Dust emission spectrum from A.P. Jones, M. Kohler, N. Ysard, M. Bocchio, and L. Verstraete (2017), A&A, 602A, 46J 
inside the DustPedia framework.

lambda    nu*dP/dnu     j_nu    j_nu(carb.) j_nu(sil)
 (um)   (erg s-1 H-1) (Jy cm2 sr-1 H-1)
0.9927057738263894 5.947093565153458e-20 1.5670929332350354e-12 1.5670928932112417e-12 4.0023794174869686e-20
1.0001793341362166 6.046903280319979e-20 1.6053891816991444e-12 1.6053891335423562e-12 4.8156787561708257e-20
1.0077091589558085 6.147135125793443e-20 1.6442861501320672e-12 1.6442860922671887e-12 5.786487840581848e-20
1.0114953028030835 6.197405228738901e-20 1.6639612089704559e-12 1.663961145572477e-12 6.33979790729428e-20
1.0152956718711033 6.24777600370172e-20 1.6837880331661165e-12 1.6837879637292527e-12 6.943686382859378e-20
1.0229392996569957 6.348764276188037e-20 1.7238858276877617e-12 1.723885744475357e-12 8.321240423548006e-20
1.0267826658714554 6.399267266008884e-20 1.7441274217194918e-12 1.7441273306685642e-12 9.10509276108053e-20
1.0306404723013447 6.449862510456928e-20 1.7645220218602427e-12 1.7645219222657956e-12 9.959444724120529e-20
1.03451277320114 6.50054865725706e-20 1.7850702156014233e-12 1.7850701066982913e-12 1.0890313173938224e-19
1.0383996230291617 6.551324403443188e-20 1.8057726038463553e-12 1.8057724848043685e-12 1.1904198764584392e-19
1.0403485208654093 6.576745482903946e-20 1.8161818124948142e-12 1.816181688050358e-12 1.2444445617013729e-19
1.0423010764483396 6.602188496543638e-20 1.8266298014695293e-12 1.8266296713883066e-12 1.3008122265384546e-19
1.0462171883269815 6.653139735756529e-20 1.8476424378831015e-12 1.8476422957864673e-12 1.4209663399830922e-19
1.0471985131304309 6.66589102643495e-20 1.852919959487285e-12 1.8529198142248223e-12 1.4526246239764523e-19
1.048180758391296 6.678647674319864e-20 1.858207246443746e-12 1.858207097948023e-12 1.4849572240985208e-19
1.0501480137395462 6.704176973114425e-20 1.8688111576104823e-12 1.868811002440459e-12 1.5517002359049634e-19
1.0521189612883777 6.729727497088866e-20 1.8794542544051137e-12 1.87945409227434e-12 1.621307737744847e-19
1.0531058218030118 6.742493870708057e-20 1.88478582555962e-12 1.884785659837181e-12 1.6572243872660874e-19
1.0540936079674168 6.755210442177184e-20 1.890111810260868e-12 1.89011164086992e-12 1.693909477182112e-19
1.058054026499678 6.806126774652712e-20 1.911513244744327e-12 1.911513059887601e-12 1.8485672644742222e-19
1.0590464539527713 6.818868293881805e-20 1.916888030657326e-12 1.9168878417281994e-12 1.8892912727941033e-19
1.06003981227728 6.831614758126772e-20 1.922272609074308e-12 1.9222724159870827e-12 1.9308722552441323e-19
1.0620293250338977 6.857122464623948e-20 1.9330711871473406e-12 1.9330709854799447e-12 2.0166739601443057e-19
1.0660195594769086 6.908196603218072e-20 1.954786338288572e-12 1.954786118354928e-12 2.199336437992818e-19
1.070024785945596 6.959348340596033e-20 1.9766594171941444e-12 1.9766591774194303e-12 2.3977471414577157e-19
1.0740450607676866 7.010576887031177e-20 1.998691161711367e-12 1.998690900392343e-12 2.613190237808993e-19
1.07808044048254 7.061881513972054e-20 2.020882329128279e-12 2.020882044423461e-12 2.8470481787673026e-19
1.0861967418109137 7.164638382388505e-20 2.065723566466737e-12 2.0657232288594778e-12 3.3760725950488173e-19
1.0902777775684922 7.215912096103767e-20 2.0883237483537323e-12 2.0883233808975757e-12 3.674561566868873e-19
1.0943741465085532 7.267256567719665e-20 2.1110851501903203e-12 2.1110847503778154e-12 3.998125051687929e-19
1.1026131145906286 7.37015628179527e-20 2.157095057792479e-12 2.157094584934844e-12 4.72857635397838e-19
1.1109141095355224 7.473335201234407e-20 2.203760415255853e-12 2.2037598567392567e-12 5.585165962256373e-19
1.1192775983109025 7.576711928524718e-20 2.2510649202943104e-12 2.2510642614607093e-12 6.588336010882626e-19
1.1277040513999907 7.67991784288042e-20 2.298905651167937e-12 2.298904875006941e-12 7.761609960779288e-19
1.1361939428280308 7.783390895797298e-20 2.347419699042916e-12 2.3474187858408985e-12 9.13202017478365e-19
1.1447477501889525 7.887133482917909e-20 2.3966158250035385e-12 2.396614751944685e-12 1.0730588526841917e-18
1.1533659546722406 7.991185210553454e-20 2.446514291520626e-12 2.446513032232138e-12 1.259288487474716e-18
1.1707974979042381 8.200531119948085e-20 2.5485502423460673e-12 2.5485485145995868e-12 1.7277464806104739e-18
1.1884924949847024 8.411170868780257e-20 2.653519797682465e-12 2.6535174391191648e-12 2.3585633011576926e-18
1.2064549276569216 8.624519071139809e-20 2.7619475153022405e-12 2.761944311545795e-12 3.2037564459039427e-18
1.2246888378427687 8.839235184008339e-20 2.873491268979235e-12 2.8734869385353805e-12 4.330443855159242e-18
1.2431983285522175 9.055157688286168e-20 2.988173900690496e-12 2.9881680757707682e-12 5.824919727980167e-18
1.2619875648066055 9.272617311764989e-20 3.1061816165333207e-12 3.106173818963634e-12 7.797569686376551e-18
1.3004222497298317 9.710889866123874e-20 3.352068255549312e-12 3.352054479498597e-12 1.3776050714646825e-17
1.3400274889804893 1.0155440818049836e-19 3.6122842714334004e-12 3.6122603803174845e-12 2.3891115915710926e-17
1.3808389325824078 1.0607932553735564e-19 3.888151747016983e-12 3.888111055919913e-12 4.069109707051075e-17
1.4228933163050095 1.1072081465357295e-19 4.181874978382958e-12 4.181806881135731e-12 6.809724722819302e-17
1.466228494730424 1.1555680730424568e-19 4.4974528880525365e-12 4.49734085537096e-12 1.1203268157712058e-16
1.5108834753276823 1.2057680075018836e-19 4.835753568310208e-12 4.835572293808748e-12 1.8127450146023107e-16
1.5568984535646726 1.2577444154370403e-19 5.197830557832827e-12 5.19754177883608e-12 2.8877899674511283e-16
1.6043148490894465 1.311756221748013e-19 5.586144543553861e-12 5.585690761895148e-12 4.537816587121082e-16
1.6531753430134553 1.3680649063015567e-19 6.003369227067126e-12 6.002666701881527e-12 7.025251856002026e-16
1.7035239163302658 1.426964581635709e-19 6.45254232460197e-12 6.4514705305740746e-12 1.0717940278948358e-15
1.755405889504358 1.4894182360825582e-19 6.940066806755196e-12 6.938454633886209e-12 1.6121728689880427e-15
1.8088679632656115 1.555304756512824e-19 7.467784902464873e-12 7.46539315513714e-12 2.3917473277310557e-15
1.8639582606462262 1.6244445623672924e-19 8.037306138608936e-12 8.033805125372224e-12 3.5010132367149634e-15
1.9207263702978936 1.6968544018763243e-19 8.65126293207262e-12 8.64620458323242e-12 5.058348840201722e-15
1.979223391128241 1.772618779650432e-19 9.312785371579481e-12 9.30556887811445e-12 7.216493465035531e-15
2.039501978296691 1.8517452577479234e-19 1.0024778950690007e-11 1.001460947222788e-11 1.0169478462126204e-14
2.1016163906111602 1.9347612731529503e-19 1.0793201020152505e-11 1.0779039720640892e-11 1.4161299511612868e-14
2.1656225393682647 2.021731780540014e-19 1.1621862526172546e-11 1.1602369182677974e-11 1.9493343494575753e-14
2.231578038680979 2.112072398671283e-19 1.2510950705476947e-11 1.2484418039331641e-11 2.653266614530641e-14
2.299542257339062 2.2054703359344123e-19 1.3462076327721908e-11 1.3426355887612226e-11 3.5720440109686654e-14
2.369576372248914 2.301787131145149e-19 1.44778909607486e-11 1.4430310202649334e-11 4.7580758099263094e-14
2.4417434235010123 2.40092796207786e-19 1.556139724418063e-11 1.5498670610445452e-11 6.272663373517967e-14
2.5161083711144245 2.503195851078369e-19 1.6718357430709678e-11 1.6636489212586955e-11 8.18682181227222e-14
2.5927381535095444 2.6094183998849707e-19 1.7958572490976712e-11 1.7852755888735263e-11 1.058166022414462e-13
2.6717017477616296 2.7202110267393105e-19 1.9291233794376788e-11 1.91557537489135e-11 1.3548004546328794e-13
2.753070231689431 2.836724986673803e-19 2.0730222223260902e-11 2.0558359488582395e-11 1.718627346785107e-13
2.836916847834745 2.962988415944355e-19 2.2312384899137433e-11 2.2096317633944304e-11 2.1606726519312753e-13
2.9233170693905177 3.1084268912528383e-19 2.4120483713275788e-11 2.3851254460891328e-11 2.692292523844675e-13
2.967498994190263 3.197797348601668e-19 2.518900145942914e-11 2.4890064773311272e-11 2.9893668611786707e-13
3.0123486681368425 3.2931228404787183e-19 2.633192458385416e-11 2.600043020001761e-11 3.3149438383655767e-13
3.0578761833420214 3.453082409678863e-19 2.8028268717340088e-11 2.766103141732892e-11 3.6723730001116615e-13
3.1040917844459814 3.6405630924253655e-19 2.999663574219276e-11 2.95906142084069e-11 4.0602153378586206e-13
3.127460860933648 3.8171389717962787e-19 3.1688325331029666e-11 3.1261581940775935e-11 4.2674339025372383e-13
3.1510058709225794 4.0420133744853085e-19 3.3807759604784875e-11 3.335944873303481e-11 4.483108717500605e-13
3.162844764501044 4.246909465062831e-19 3.565498948957547e-11 3.5195529709616666e-11 4.594597799588099e-13
3.1747281389236908 4.478646183212009e-19 3.7741810398724916e-11 3.7270983659605385e-11 4.708267391195377e-13
3.1986289994194426 5.106513990424321e-19 4.335686073578954e-11 4.286257635578634e-11 4.942843800032025e-13
3.2227097969389145 6.564567243476178e-19 5.615607348879233e-11 5.563696513583537e-11 5.191083529569732e-13
3.2348180950136065 7.933448517968342e-19 6.812104549263219e-11 6.758869777051221e-11 5.323477221199746e-13
3.240889293275058 8.956499536033532e-19 7.704987470964334e-11 7.651054350735268e-11 5.393312022906645e-13
3.2469718861334385 1.0142393986494777e-18 8.741549844934163e-11 8.686894143117433e-11 5.465570181673113e-13
3.2714166318528037 1.6358552412960192e-18 1.420529182932989e-10 1.414765271737182e-10 5.763911195806845e-13
3.2744851364798273 1.6746419848021053e-18 1.4555744765455478e-10 1.4497754818597091e-10 5.798994685838622e-13
3.2775565192852394 1.7144607616644083e-18 1.4915821333347898e-10 1.4857478866679077e-10 5.834246666881733e-13
3.283707930232385 1.6759262741886094e-18 1.4607936235522504e-10 1.4548964876335304e-10 5.897135918719759e-13
3.2898708863219004 1.5538648790575924e-18 1.356942790166108e-10 1.3509885618047371e-10 5.954228361370483e-13
3.29141343181113 1.5250130968290448e-18 1.33237183503163e-10 1.3264032740080327e-10 5.968561023597356e-13
3.292184975758714 1.510826365154949e-18 1.320286603601918e-10 1.3143108673070013e-10 5.975736294916813e-13
3.295272960557952 1.4224875326466876e-18 1.244254718976071e-10 1.2382510987438144e-10 6.003620232256972e-13
3.3076538914384823 1.1139850034572397e-18 9.78067519396301e-11 9.719519734730488e-11 6.115545923252287e-13
3.310756385682612 1.0504953158816888e-18 9.231893348921875e-11 9.170455914610758e-11 6.143743431111806e-13
3.313861789986515 9.91641639364307e-19 8.722853512509908e-11 8.66113323800396e-11 6.172027450594788e-13
3.3200813396944477 9.094281099327934e-19 8.014686341102874e-11 7.952357049502649e-11 6.232929160022468e-13
3.345076488085796 7.657382939002598e-19 6.799169250320011e-11 6.734124160192303e-11 6.504509012770657e-13
3.3482140837626964 7.7150659472844955e-19 6.856812828383465e-11 6.791399763733775e-11 6.541306464969064e-13
3.3513546224236106 7.773266053106359e-19 6.915018565674859e-11 6.849235944069943e-11 6.578262160491594e-13
3.3576445397418455 8.184345454030616e-19 7.294375271416931e-11 7.227819740964297e-11 6.655553045263531e-13
3.3702598118196083 9.673938477275062e-19 8.654383495817103e-11 8.586206878199381e-11 6.817661761772208e-13
3.382922481734668 1.0028127093217972e-18 9.004950061387115e-11 8.935200101319308e-11 6.974996006780813e-13
3.389271646505754 1.0210651196808286e-18 9.186059458741735e-11 9.115512479379099e-11 7.054697936263884e-13
3.395632727569191 1.0411804661408568e-18 9.384608405005363e-11 9.313240047298201e-11 7.136835770716132e-13
3.421196662673239 1.1389054575580507e-18 1.034272903259041e-10 1.0267963053966184e-10 7.476597862422828e-13
3.4276182099114902 1.1210894618186055e-18 1.0200046338079629e-10 1.0124524670283573e-10 7.552166779605482e-13
3.4340518103208963 1.0406259612086048e-18 9.485733794867464e-11 9.40949861531984e-11 7.623517954762366e-13
3.4469541582030403 9.250540199077218e-19 8.463929465041392e-11 8.386327299494035e-11 7.760216554735631e-13
3.472904465399547 8.925266809034417e-19 8.227795281762857e-11 8.147040342213593e-11 8.075493954926342e-13
3.4990501388274233 8.436857104425689e-19 7.836105820962434e-11 7.752130203207604e-11 8.397561775482889e-13
3.5253949054701885 6.720482810511239e-19 6.288943314586899e-11 6.201847840840616e-11 8.709547374628249e-13
3.5519380250092896 5.086208331871911e-19 4.795445476921563e-11 4.705221521118393e-11 9.022395580316997e-13
3.578680990867387 4.447974723732932e-19 4.2252725684356046e-11 4.131620622303273e-11 9.36519461323316e-13
3.605625307711299 4.201710699180843e-19 4.0213898089156904e-11 3.924131919096339e-11 9.725788981935099e-13
3.660119384959845 4.0443485850998647e-19 3.929282600021268e-11 3.8244689939761485e-11 1.0481360604511869e-12
3.715437065384467 3.936899922175918e-19 3.882698941625242e-11 3.7699493908450896e-11 1.1274955078015255e-12
3.8285932144167436 3.923520254187878e-19 3.987351823052781e-11 3.857648492368705e-11 1.2970333068407631e-12
3.94519561050918 3.9581009422717324e-19 4.145002912006787e-11 3.9969658579698915e-11 1.4803705403689495e-12
4.06534921144712 4.0074820847636684e-19 4.324529657164336e-11 4.156837045500178e-11 1.6769261166415772e-12
4.189162171576248 4.06191964440929e-19 4.5167695590996215e-11 4.328099852746317e-11 1.8866970635330488e-12
4.316745939156006 4.1173200880823446e-19 4.717811159690099e-11 4.506963965900158e-11 2.1084719378994375e-12
4.448215356677963 4.1718602618764905e-19 4.925893197250421e-11 4.6920253054989366e-11 2.3386789175148476e-12
4.58368876423945 4.225271091734292e-19 5.140899719770906e-11 4.8831789072111673e-11 2.5772081255973943e-12
4.723288106065518 4.278298425009062e-19 5.363952764872145e-11 5.0814338977250195e-11 2.8251886714712484e-12
4.867139040275056 4.3319281694372785e-19 5.59660212086304e-11 5.289078068692095e-11 3.0752405217094404e-12
4.940699165968905 4.361638891811997e-19 5.720151754451224e-11 5.399978241873339e-11 3.2017351257788532e-12
5.015371051989984 4.389540455824934e-19 5.84374905522895e-11 5.510874695531924e-11 3.328743596970261e-12
5.091171501069577 4.424013690433032e-19 5.978656778135771e-11 5.632741520614093e-11 3.4591525752167897e-12
5.129500256944802 4.440498694331565e-19 6.046112664583391e-11 5.6936755729827736e-11 3.5243709160061654e-12
5.168117569889187 4.45723797915332e-19 6.114594204423427e-11 5.755563994405215e-11 3.5903021001821265e-12
5.20702561229733 4.479974876341692e-19 6.192053861874041e-11 5.825780936284247e-11 3.6627292558979444e-12
5.246226572918644 4.502408850155674e-19 6.26991142145712e-11 5.896377424972243e-11 3.735339964848782e-12
5.265937586045735 4.513515874010514e-19 6.308994003631704e-11 5.931823775011503e-11 3.7717022862020004e-12
5.285722656980489 4.524551646351109e-19 6.348181788196691e-11 5.967372168165645e-11 3.808096200310465e-12
5.305582063971359 4.535517786170547e-19 6.387476918437949e-11 6.003025229926144e-11 3.844516885118074e-12
5.3255160863122235 4.547596688054655e-19 6.428550730031139e-11 6.040422207698163e-11 3.881285223329766e-12
5.365609099470188 4.580689494454008e-19 6.524080583651792e-11 6.12834131056019e-11 3.957392730916037e-12
5.406003951863644 4.614000113027844e-19 6.620997024562236e-11 6.21763072112371e-11 4.0336630343852414e-12
5.446702915881641 4.647574313926866e-19 6.719384042880015e-11 6.308378301623576e-11 4.110057412564384e-12
5.487708281020852 4.683694122716314e-19 6.822585309585724e-11 6.403895024854048e-11 4.186902847316766e-12
5.529022354014368 4.740025613566603e-19 6.956622984539811e-11 6.529922533919139e-11 4.267004506206741e-12
5.570647458961463 4.798202957588221e-19 7.095021599843353e-11 6.660296148585908e-11 4.347254512574432e-12
5.612585937458331 4.85841349348897e-19 7.238138869512843e-11 6.795377521001795e-11 4.427613485110479e-12
5.654840148729818 4.924200924948107e-19 7.391380012650546e-11 6.94053121005369e-11 4.508488025968561e-12
5.67608639626678 4.972812154293278e-19 7.492391881291618e-11 7.037303942322098e-11 4.550879389695189e-12
5.686739436050992 4.997655876671624e-19 7.543955382970401e-11 7.08674625260309e-11 4.5720913036731194e-12
5.6974124697621304 5.022871151984233e-19 7.596247955827806e-11 7.13691663536785e-11 4.593313204599555e-12
5.718818669136295 5.074456270692833e-19 7.703095349532778e-11 7.239516904098287e-11 4.635784454344929e-12
5.740305295436557 5.131805855673908e-19 7.819421818697522e-11 7.351557869270187e-11 4.678639494273398e-12
5.7835210386641895 5.286266369569929e-19 8.115416166926826e-11 7.638699869535569e-11 4.767162973912579e-12
5.827062130521658 5.46200184527055e-19 8.44833106658012e-11 7.962657384222263e-11 4.856736823578578e-12
5.8489554468988025 5.590844309016337e-19 8.680108317671288e-11 8.189573178882235e-11 4.905351387890541e-12
5.870931020387893 5.727354708894859e-19 8.925457608185713e-11 8.430050159636958e-11 4.9540744854875615e-12
5.892989160043636 5.872143799693046e-19 9.185477919158771e-11 8.685187817012489e-11 5.002901021462814e-12
5.915130176081913 6.037057566765348e-19 9.478924342397279e-11 8.973564968085114e-11 5.053593743121676e-12
5.95966208400165 6.508324617588552e-19 1.0295804204710764e-10 9.778753850316504e-11 5.170503543942599e-12
6.004529249263818 7.189801575197771e-19 1.1459490333543064e-10 1.0929205010206152e-10 5.302853233369099e-12
6.027089341400364 7.666559273684985e-19 1.226528262593072e-10 1.1727280401528078e-10 5.380022244026423e-12
6.049734195844842 8.225738528797621e-19 1.3209325049123037e-10 1.2663133389021391e-10 5.4619166010164235e-12
6.095279466722835 9.844987137689553e-19 1.5928622095497755e-10 1.5362064532308446e-10 5.665575631893092e-12
6.141167624020661 1.2319952390134853e-18 2.0083038195823265e-10 1.9489756073734927e-10 5.932821220883338e-12
6.164241091010745 1.3897016820178655e-18 2.2738961815480693e-10 2.2128766333637653e-10 6.101954818430432e-12
6.187401249150058 1.5670263704316416e-18 2.5736768652262226e-10 2.510923323013837e-10 6.275354221238496e-12
6.1990139391386085 1.653030263137548e-18 2.720024717110392e-10 2.6563893718061884e-10 6.363534530420346e-12
6.204828454712694 1.6981402610203984e-18 2.7968731570473516e-10 2.7327927154832573e-10 6.4080441564094516e-12
6.210648424152782 1.7306211974689427e-18 2.8530435244512353e-10 2.7885869595611205e-10 6.445656489011492e-12
6.233982942956859 1.8390376139420698e-18 3.043166081174492e-10 2.977411286979224e-10 6.575479419526747e-12
6.239830258556775 1.8517673573605902e-18 3.067104922375423e-10 3.001179883982936e-10 6.592503839248664e-12
6.245683058788269 1.8510448418771283e-18 3.0687839541594437e-10 3.0026885024153e-10 6.609545174414297e-12
6.257405133728602 1.8438676913290073e-18 3.06262245042547e-10 2.996234500908923e-10 6.6387949516547165e-12
6.269149208991335 1.8172546896423375e-18 3.02408391175645e-10 2.957616490918062e-10 6.6467420838388174e-12
6.280915325867298 1.7567429322776647e-18 2.9288733114043743e-10 2.8625894601949965e-10 6.62838512093773e-12
6.304513850009849 1.610135331865601e-18 2.6945324380346124e-10 2.628853129855207e-10 6.567930817940451e-12
6.32820103803542 1.432088697166344e-18 2.4055789662082735e-10 2.3407567268545853e-10 6.482223935368849e-12
6.3519772230701035 1.2697910057840722e-18 2.140970147234564e-10 2.0769239954479835e-10 6.404615178657943e-12
6.375842739491607 1.1329636060795555e-18 1.9174453246283806e-10 1.8540918789513082e-10 6.335344567707236e-12
6.399797922933955 1.024123088962409e-18 1.7397540318282428e-10 1.676794747725638e-10 6.295928410260496e-12
6.42384311029221 9.332354544929798e-19 1.5913129181290304e-10 1.5286879849992664e-10 6.26249331297639e-12
6.447978639727206 8.669211828373295e-19 1.4837906771814336e-10 1.421268101239083e-10 6.252257594235066e-12
6.472204850670314 8.113482449870848e-19 1.393891560924558e-10 1.3314255179201504e-10 6.246604300440753e-12
6.496522083828205 7.746810451659005e-19 1.3358979455615517e-10 1.2733011897707692e-10 6.259675579078244e-12
