Dust emission spectrum from A.P. Jones, M. Kohler, N. Ysard, M. Bocchio, and L. Verstraete (2017), A&A, 602A, 46J 
inside the DustPedia framework.

lambda    nu*dP/dnu     j_nu    j_nu(carb.) j_nu(sil)
 (um)   (erg s-1 H-1) (Jy cm2 sr-1 H-1)
0.9927057738263894 9.16758267654592e-24 2.415710106099925e-16 2.415709931422425e-16 1.7467749962700824e-23
1.0001793341362166 9.321919327282872e-24 2.4748714750238534e-16 2.4748712647604467e-16 2.1026340705158554e-23
1.0077091589558085 9.47673747241658e-24 2.5349155103078765e-16 2.5349152575434087e-16 2.5276446743232463e-23
1.0114953028030835 9.554317884662746e-24 2.56526945576004e-16 2.565269178762186e-16 2.769978547788239e-23
1.0152956718711033 9.632007713698835e-24 2.595845195807394e-16 2.595844892353449e-16 3.03453944391321e-23
1.0229392996569957 9.787625989505995e-24 2.657643124867856e-16 2.6576427610374723e-16 3.6383038359186213e-23
1.0267826658714554 9.865376210764428e-24 2.688819275633219e-16 2.6888188774329594e-16 3.9820025928526695e-23
1.0306404723013447 9.943218095802681e-24 2.7202172557566894e-16 2.7202168200842643e-16 4.3567242566367716e-23
1.03451277320114 1.0021148351879606e-23 2.7518374820705833e-16 2.751837005557777e-16 4.7651280644292366e-23
1.0383996230291617 1.0099163753572697e-23 2.783680383522905e-16 2.783679862514085e-16 5.210088198013178e-23
1.0403485208654093 1.0138202394955788e-23 2.799685474977501e-16 2.7996849302537196e-16 5.44723781648926e-23
1.0423010764483396 1.0177261144677496e-23 2.815746401960206e-16 2.8157458324892045e-16 5.694710024474127e-23
1.0462171883269815 1.0255437440099331e-23 2.848035992923294e-16 2.848035370688547e-16 6.222347470882888e-23
1.0471985131304309 1.0274993488143013e-23 2.856143378624111e-16 2.8561427424844895e-16 6.361396219043764e-23
1.048180758391296 1.0294554232744807e-23 2.864264774401746e-16 2.86426412405998e-16 6.503417666044391e-23
1.0501480137395462 1.0333689627736674e-23 2.880549626455752e-16 2.8805489467935922e-16 6.796621604984241e-23
1.0521189612883777 1.0372843260274997e-23 2.8968906102415726e-16 2.8968898999958803e-16 7.102456920392785e-23
1.0531058218030118 1.0392400250384714e-23 2.905074748464013e-16 2.9050740224357523e-16 7.260282600721275e-23
1.0540936079674168 1.041187467327449e-23 2.913248588680452e-16 2.913247846530741e-16 7.421497094274593e-23
1.058054026499678 1.0489812174209342e-23 2.9460830762889497e-16 2.946082266160611e-16 8.101283390051131e-23
1.0590464539527713 1.0509306286581436e-23 2.9543265191578634e-16 2.954325691126114e-16 8.280317501737152e-23
1.06003981227728 1.0528804208832134e-23 2.962583906369729e-16 2.9625830600563723e-16 8.463133569351655e-23
1.0620293250338977 1.0567811315568845e-23 2.979140546304372e-16 2.979139662262703e-16 8.840416679557889e-23
1.0660195594769086 1.0645869424286348e-23 3.012421519692243e-16 3.012420555311791e-16 9.643804516517746e-23
1.070024785945596 1.0723983910527934e-23 3.045926536387177e-16 3.045925484713577e-16 1.0516736003610571e-22
1.0740450607676866 1.0802152269503626e-23 3.0796561561797855e-16 3.079655009688843e-16 1.1464909422882644e-22
1.07808044048254 1.0880372083266781e-23 3.113610959616207e-16 3.1136097101700374e-16 1.2494461706519678e-22
1.0861967418109137 1.1036834392411482e-23 3.1821632421306356e-16 3.1821617596670163e-16 1.4824636189621314e-22
1.0902777775684922 1.1114794047198357e-23 3.21668114268714e-16 3.2166795286848155e-16 1.6140023244777356e-22
1.0943741465085532 1.1192791529883029e-23 3.251424491171694e-16 3.251422734533242e-16 1.7566384514150616e-22
1.1026131145906286 1.1348892346596701e-23 3.3215902969020193e-16 3.32158821809504e-16 2.0788069786489562e-22
1.1109141095355224 1.1505122569983534e-23 3.3926664614492955e-16 3.3926640045835564e-16 2.456865741020259e-22
1.1192775983109025 1.1661343922854634e-23 3.4646219198855827e-16 3.4646190199634137e-16 2.8999221692853363e-22
1.1277040513999907 1.1816967958041336e-23 3.5372897177013003e-16 3.5372862992355877e-16 3.418465712667433e-22
1.1361939428280308 1.1972669844208895e-23 3.6108787826149764e-16 3.610874758054368e-16 4.0245606081727135e-22
1.1447477501889525 1.2128442322483856e-23 3.685396838491674e-16 3.6853921064277635e-16 4.732063910376211e-22
1.1533659546722406 1.2284339863552174e-23 3.7608705400028476e-16 3.7608649831245736e-16 5.556878273057672e-22
1.1707974979042381 1.259698843420862e-23 3.9148754461450337e-16 3.914867812149613e-16 7.633995420562782e-22
1.1884924949847024 1.2910084547739272e-23 4.0728176221378353e-16 4.0728071870306574e-16 1.043510717777157e-21
1.2064549276569216 1.3225796494582591e-23 4.2354774179052095e-16 4.2354632241595266e-16 1.419374568267501e-21
1.2246888378427687 1.3541894295832813e-23 4.402249087671585e-16 4.4022298758729405e-16 1.921179864452935e-21
1.2431983285522175 1.385807017390906e-23 4.573120097199546e-16 4.573094219053302e-16 2.5878146245734004e-21
1.2619875648066055 1.417472425395871e-23 4.748310689066365e-16 4.748275997890907e-16 3.4691175456307934e-21
1.3004222497298317 1.4807196000193697e-23 5.111244422521483e-16 5.111182955380773e-16 6.146714070851382e-21
1.3400274889804893 1.5440939157932936e-23 5.492332893834163e-16 5.492225977283208e-16 1.0691655095636727e-20
1.3808389325824078 1.6078149189286993e-23 5.893163775547538e-16 5.892981122077592e-16 1.8265346994493548e-20
1.4228933163050095 1.6724517316189108e-23 6.31677437606776e-16 6.316467751804734e-16 3.066242630250338e-20
1.466228494730424 1.7392467300409654e-23 6.769121102890902e-16 6.768615048084268e-16 5.0605480663235164e-20
1.5108834753276823 1.8080801634626099e-23 7.251336946955411e-16 7.250515476158827e-16 8.214707965836833e-20
1.5568984535646726 1.87895623502503e-23 7.765088053958851e-16 7.763775108035436e-16 1.3129459234142753e-19
1.6043148490894465 1.9524545202827335e-23 8.314573229529249e-16 8.31250323290401e-16 2.0699966252424422e-19
1.6531753430134553 2.029229805371946e-23 8.90470599172879e-16 8.901490486867908e-16 3.215504860881083e-19
1.7035239163302658 2.1100946961321376e-23 9.541565019156627e-16 9.536642500921609e-16 4.922518235016423e-19
1.755405889504358 2.197015699476594e-23 1.0237175402095988e-15 1.0229745199240549e-15 7.430202855440029e-19
1.8088679632656115 2.290375340980355e-23 1.0997221168859647e-15 1.0986158953439402e-15 1.1062215420243232e-18
1.8639582606462262 2.3906235344099257e-23 1.182814954313689e-15 1.1811898424382192e-15 1.6251118754695975e-18
1.9207263702978936 2.4986607348670584e-23 1.2739202003116972e-15 1.271563596458612e-15 2.3566038530851475e-18
1.979223391128241 2.6156564103181888e-23 1.374184175115929e-15 1.3708096050886456e-15 3.3745700272833023e-18
2.039501978296691 2.7428463431792263e-23 1.4848925990781846e-15 1.4801191502177891e-15 4.773448860395394e-18
2.1016163906111602 2.882443184934693e-23 1.6079910816836642e-15 1.6013183159649949e-15 6.6727657186696725e-18
2.1656225393682647 3.03613344560943e-23 1.745311908118812e-15 1.7360907158028514e-15 9.221192315961082e-18
2.231578038680979 3.204789067784197e-23 1.8983704381404486e-15 1.8857693110393735e-15 1.260112710107508e-17
2.299542257339062 3.3898420962356387e-23 2.0691420009108712e-15 2.0521085002804854e-15 1.7033500630385228e-17
2.369576372248914 3.5931948407539674e-23 2.260064903537769e-15 2.2372819946110758e-15 2.2782908926693137e-17
2.4417434235010123 3.816946629590491e-23 2.4739194053739712e-15 2.4437578369126746e-15 3.016156846129688e-17
2.5161083711144245 4.0639927602134574e-23 2.7142615921081552e-15 2.6747270947420087e-15 3.9534497366145665e-17
2.5927381535095444 4.3382252871427057e-23 2.9856589232594868e-15 2.9343361549836652e-15 5.1322768275821745e-17
2.6717017477616296 4.643421586382209e-23 3.2930287594683638e-15 3.227025588579832e-15 6.600317088853148e-17
2.753070231689431 4.984406736589248e-23 3.64250534634204e-15 3.558396071517366e-15 8.410927482467239e-17
2.836916847834745 5.371228916928574e-23 4.044731539650343e-15 3.938497205235165e-15 1.0623433441517788e-16
2.9233170693905177 5.823925438953024e-23 4.5191958380266366e-15 4.386192948840418e-15 1.3300288918621949e-16
2.967498994190263 6.091812188954803e-23 4.798511268553334e-15 4.650452768993657e-15 1.4805849955967622e-16
3.0123486681368425 6.379921547409449e-23 5.101407423139743e-15 4.936806259203639e-15 1.646011639361043e-16
3.0578761833420214 6.798275291846487e-23 5.518081067519252e-15 5.335276002311189e-15 1.8280506520806313e-16
3.1040917844459814 7.27976004792147e-23 5.9982015118048625e-15 5.795578561792447e-15 2.0262295001241385e-16
3.127460860933648 7.679621526796404e-23 6.375307453000194e-15 6.162070350737038e-15 2.1323710226315765e-16
3.1510058709225794 8.174611235906557e-23 6.837317592035266e-15 6.613014424639751e-15 2.243031673955139e-16
3.162844764501044 8.595951938191123e-23 7.21674381171594e-15 6.986713044875651e-15 2.300307668402884e-16
3.1747281389236908 9.070826205202436e-23 7.644037702281911e-15 7.40816226076875e-15 2.3587544151316117e-16
3.1986289994194426 1.0339138174694765e-22 8.778446016380684e-15 8.5304936709342e-15 2.479523454464844e-16
3.2227097969389145 1.3187702642970615e-22 1.1281316365568066e-14 1.1020564466133759e-14 2.607518994343068e-16
3.2348180950136065 1.583277340128052e-22 1.3594908628957355e-14 1.3327325546703737e-14 2.6758308225361654e-16
3.240889293275058 1.7799464291613961e-22 1.5312304634752256e-14 1.5041118264657374e-14 2.71186370094884e-16
3.2469718861334385 2.0074850708100522e-22 1.730215847739124e-14 1.7027243741838007e-14 2.749147355532334e-16
3.2714166318528037 3.2030918373351917e-22 2.781471927151845e-14 2.752439500014878e-14 2.9032427136967106e-16
3.2744851364798273 3.2784204489555727e-22 2.849555410763597e-14 2.820341322084118e-14 2.9214088679478526e-16
3.2775565192852394 3.355771777297497e-22 2.9195239334067924e-14 2.8901272693802074e-14 2.9396664026585474e-16
3.283707930232385 3.2849053117016163e-22 2.863233787315519e-14 2.8335104875765066e-14 2.9723299739011705e-16
3.2898708863219004 3.054629538207965e-22 2.6675147783851133e-14 2.637494100150953e-14 3.0020678234161156e-16
3.29141343181113 3.000255718034448e-22 2.621260253379854e-14 2.5911648987338688e-14 3.0095354645985415e-16
3.292184975758714 2.9735280872635e-22 2.5985178638614746e-14 2.568385121177895e-14 3.013274268357934e-16
3.295272960557952 2.8058366187181055e-22 2.454274904624413e-14 2.4239967065822585e-14 3.0278198042154513e-16
3.3076538914384823 2.221836412765952e-22 1.9507498054230183e-14 1.919887327706202e-14 3.086247771681683e-16
3.310756385682612 2.1021533466552644e-22 1.847400479183695e-14 1.8163907165680624e-14 3.100976261563227e-16
3.313861789986515 1.9914095757540047e-22 1.751718899566101e-14 1.7205613651118617e-14 3.1157534454239567e-16
3.3200813396944477 1.8373272421657532e-22 1.619215569772777e-14 1.5877402501549694e-14 3.1475319617807433e-16
3.345076488085796 1.5725366371501424e-22 1.3962920273784231e-14 1.3634006852352034e-14 3.2891342143219727e-16
3.3482140837626964 1.584751179134876e-22 1.4084574635052228e-14 1.3753743059699595e-14 3.308315753526358e-16
3.3513546224236106 1.597074726993075e-22 1.4207414634307913e-14 1.3874656196362147e-14 3.3275843794576685e-16
3.3576445397418455 1.6779932051442872e-22 1.4955273100284677e-14 1.4618486275646115e-14 3.367868246385617e-16
3.3702598118196083 1.9681769412640898e-22 1.7607469881410343e-14 1.7262233237225373e-14 3.452366441849679e-16
3.382922481734668 2.0408046618485125e-22 1.8325798919541503e-14 1.7972345753188945e-14 3.53453166352556e-16
3.389271646505754 2.0782314875075955e-22 1.8696905462054734e-14 1.8339286970240657e-14 3.576184918140771e-16
3.395632727569191 2.119071333723209e-22 1.9100103484437036e-14 1.8738192351947394e-14 3.6191113248964407e-16
3.421196662673239 2.314997085008746e-22 2.1023156402129818e-14 2.0643471969883273e-14 3.7968443224655135e-16
3.4276182099114902 2.2833813508964584e-22 2.0774966119893117e-14 2.0391311510579164e-14 3.8365460931395576e-16
3.4340518103208963 2.131935014170403e-22 1.9433464824277557e-14 1.904605328967725e-14 3.8741153460030345e-16
3.4469541582030403 1.9162105344455343e-22 1.753267425975204e-14 1.7138048070779688e-14 3.9462618897235436e-16
3.472904465399547 1.8651506531555006e-22 1.71939708606537e-14 1.6782730815147195e-14 4.112400455065026e-16
3.4990501388274233 1.782555929037357e-22 1.6556280044607416e-14 1.6128030535624202e-14 4.2824950898321593e-16
3.5253949054701885 1.4627005308329107e-22 1.368776765597377e-14 1.3242980226389364e-14 4.447874295844051e-16
3.5519380250092896 1.1592696582966319e-22 1.0929977847299453e-14 1.0468557629533494e-14 4.614202177659549e-16
3.578680990867387 1.0473556258234291e-22 9.949163990469994e-15 9.469512271600031e-15 4.796517188699629e-16
3.605625307711299 1.0108494414091914e-22 9.674677608869045e-15 9.175818499049658e-15 4.988591098193902e-16
3.660119384959845 1.0028517714001679e-22 9.743195802361544e-15 9.20395636747914e-15 5.392394348824037e-16
3.715437065384467 1.0054358070804156e-22 9.915935434461401e-15 9.334088473273361e-15 5.818469611880404e-16
3.8285932144167436 1.0517739245059507e-22 1.0688851856548519e-14 1.0015297824370268e-14 6.735540321782539e-16
3.94519561050918 1.1106114029195557e-22 1.1630545977352849e-14 1.0856791658982195e-14 7.737543183706511e-16
4.06534921144712 1.1753722466309649e-22 1.2683605394241543e-14 1.1801230954006875e-14 8.823744402346685e-16
4.189162171576248 1.243944764594011e-22 1.3832405211789137e-14 1.2832751115400383e-14 9.996540963887504e-16
4.316745939156006 1.315248081486797e-22 1.507070605115243e-14 1.3945507543074298e-14 1.1251985080781336e-15
4.448215356677963 1.388537395832071e-22 1.6395052765215342e-14 1.5137738812326894e-14 1.2573139528884454e-15
4.58368876423945 1.463468859381025e-22 1.7806068500085916e-14 1.6409879530900577e-14 1.3961889691853415e-15
4.723288106065518 1.5399143594024723e-22 1.930680627021878e-14 1.776409316568282e-14 1.54271310453595e-15
4.867139040275056 1.6175648436654784e-22 2.0898007724508697e-14 1.920492554206768e-14 1.6930821824410217e-15
4.940699165968905 1.6573365944747816e-22 2.1735446385527533e-14 1.9965280229901918e-14 1.7701661556256135e-15
5.015371051989984 1.6968793506613027e-22 2.2590376377795446e-14 2.074209225469476e-14 1.848284123100687e-15
5.091171501069577 1.7380355119214033e-22 2.3487987427481196e-14 2.1558883861662216e-14 1.9291035658189815e-15
5.129500256944802 1.7584833913942904e-22 2.3943231233781538e-14 2.197340588220241e-14 1.969825351579129e-15
5.168117569889187 1.7790169369855266e-22 2.440517357013358e-14 2.2394033247123953e-14 2.011140323009623e-15
5.20702561229733 1.8010225412630308e-22 2.4893060541126506e-14 2.2836861350658477e-14 2.0561991904680335e-15
5.246226572918644 1.822977477268894e-22 2.5386204776565613e-14 2.3284619149781434e-14 2.101585626784174e-15
5.265937586045735 1.83393450527008e-22 2.5634742670177787e-14 2.3510346421634617e-14 2.1243962485431627e-15
5.285722656980489 1.844877167896422e-22 2.588458825118055e-14 2.3737306057931244e-14 2.1472821932493114e-15
5.305582063971359 1.8558049300008009e-22 2.613573954366968e-14 2.396549832114925e-14 2.170241222520426e-15
5.3255160863122235 1.8669859125847596e-22 2.6391992242475574e-14 2.419854143094268e-14 2.1934508115329047e-15
5.365609099470188 1.8913873460831688e-22 2.693822289348757e-14 2.469675246857693e-14 2.2414704249106387e-15
5.406003951863644 1.9158461294157096e-22 2.749200522679732e-14 2.5202177926983175e-14 2.2898272998141413e-15
5.446702915881641 1.9403659411306e-22 2.8053481367928007e-14 2.5714977719776154e-14 2.3385036481518572e-15
5.487708281020852 1.965460938028523e-22 2.863023197292206e-14 2.624254477508157e-14 2.3876871978404914e-15
5.529022354014368 1.9951724498542364e-22 2.9281830214273713e-14 2.6842866217316933e-14 2.4389639969567878e-15
5.570647458961463 2.025315580485866e-22 2.99479991093776e-14 2.7457404795596087e-14 2.490594313781513e-15
5.612585937458331 2.0559277474960343e-22 3.062952661811105e-14 2.808696652998509e-14 2.542560088125957e-15
5.654840148729818 2.087821350556477e-22 3.1338853218404845e-14 2.8743755709518044e-14 2.5950975088868088e-15
5.67608639626678 2.1073965416399227e-22 3.175153263252298e-14 2.912894468936822e-14 2.6225879431547623e-15
5.686739436050992 2.1173096428622625e-22 3.196076294937627e-14 2.932439287256645e-14 2.6363700768098266e-15
5.6974124697621304 2.1273092903514494e-22 3.217197566746666e-14 2.952179922252504e-14 2.650176444941638e-15
5.718818669136295 2.147577202141766e-22 3.260052126988215e-14 2.992266052362005e-14 2.677860746262095e-15
5.740305295436557 2.169183370532208e-22 3.3052224213708035e-14 3.0346379115805986e-14 2.705845097902054e-15
5.7835210386641895 2.221631203344473e-22 3.410623022773946e-14 3.1342531105076065e-14 2.7636991226633834e-15
5.827062130521658 2.279049805451884e-22 3.525111821475191e-14 3.242863352960869e-14 2.822484685143222e-15
5.8489554468988025 2.31736670184598e-22 3.5978454902327334e-14 3.312421321942064e-14 2.8542416829066887e-15
5.870931020387893 2.357465380728392e-22 3.6738526576288794e-14 3.3852376748375374e-14 2.886149827913421e-15
5.892989160043636 2.399487200219567e-22 3.753388446664581e-14 3.461567742612365e-14 2.918207040522161e-15
5.915130176081913 2.446244809410756e-22 3.840905807994573e-14 3.5457616378311104e-14 2.9514417016346324e-15
5.95966208400165 2.5731275979154573e-22 4.07054341915895e-14 3.7678163245468e-14 3.027270946121511e-15
6.004529249263818 2.749504804276969e-22 4.382307828262346e-14 4.0710418202669295e-14 3.1126600799541648e-15
6.027089341400364 2.8698347911440626e-22 4.5912818966821836e-14 4.275077073872462e-14 3.1620482280972128e-15
6.049734195844842 3.009495815968045e-22 4.832807209702122e-14 4.511369695925068e-14 3.2143751377705403e-15
6.095279466722835 3.4072510928131066e-22 5.5127360028860946e-14 5.178418881654987e-14 3.343171212311087e-15
6.141167624020661 4.0070446872341976e-22 6.531975851670822e-14 6.180920746785105e-14 3.510551048857165e-15
6.164241091010745 4.388321195632076e-22 7.18038046529899e-14 6.818809467659983e-14 3.615709976390105e-15
6.187401249150058 4.815119528783237e-22 7.908330050064726e-14 7.535961357978006e-14 3.723686920867206e-15
6.1990139391386085 5.022695203345612e-22 8.264733806918255e-14 7.88687101283939e-14 3.778627940788635e-15
6.204828454712694 5.131393470979151e-22 8.451514275155172e-14 8.070876523718829e-14 3.806377514363446e-15
6.210648424152782 5.210541762232927e-22 8.589922771871144e-14 8.206923152357557e-14 3.829996195135871e-15
6.233982942956859 5.476600477586851e-22 9.062459999288147e-14 8.671235891185054e-14 3.912241081030922e-15
6.239830258556775 5.509142634602035e-22 9.124860326267145e-14 8.732502526883872e-14 3.923577993832711e-15
6.245683058788269 5.510171469612563e-22 9.135124880857228e-14 8.741631602063341e-14 3.934932787938872e-15
6.257405133728602 5.498664436998177e-22 9.13315702167801e-14 8.737680694527412e-14 3.954763271505964e-15
6.269149208991335 5.441209948909985e-22 9.054688680003544e-14 8.658505010941558e-14 3.961836690619868e-15
6.280915325867298 5.303635912315165e-22 8.842316876064411e-14 8.447003239281782e-14 3.953136367826287e-15
6.304513850009849 4.967122644093343e-22 8.312390159588738e-14 7.920243660781769e-14 3.9214649880696955e-15
6.32820103803542 4.5561929368660025e-22 7.653354095035124e-14 7.265893093299707e-14 3.874610017354169e-15
6.3519772230701035 4.181700119886425e-22 7.050683994911262e-14 6.667425296834906e-14 3.832586980763554e-15
6.375842739491607 3.865339899081227e-22 6.541761692804457e-14 6.162209819427263e-14 3.795518733771949e-15
6.399797922933955 3.616549101280303e-22 6.143700838374675e-14 5.766054807903411e-14 3.776460304712644e-15
6.42384311029221 3.4088086512297027e-22 5.81255375159199e-14 5.436454771341558e-14 3.760989802504297e-15
6.447978639727206 3.2599008505045885e-22 5.579527396808528e-14 5.203570857352843e-14 3.759565394556841e-15
6.472204850670314 3.1357058345424624e-22 5.387124366529213e-14 5.011031566454288e-14 3.7609280007492425e-15
6.496522083828205 3.0569458767205285e-22 5.27154722822637e-14 4.894179909230192e-14 3.773673189961799e-15
6.520930681187647 2.9908388979278936e-22 5.176926951477333e-14 4.798112707040554e-14 3.788142444367791e-15
