Dust emission spectrum from A.P. Jones, M. Kohler, N. Ysard, M. Bocchio, and L. Verstraete (2017), A&A, 602A, 46J 
inside the DustPedia framework.

lambda    nu*dP/dnu     j_nu    j_nu(carb.) j_nu(sil)
 (um)   (erg s-1 H-1) (Jy cm2 sr-1 H-1)
0.9927057738263894 7.843739546123018e-25 2.0668699219546227e-17 2.0668698389506925e-17 8.300392963362362e-25
1.0001793341362166 7.975265412353908e-25 2.1173490331558307e-17 2.1173489332238437e-17 9.993198669412193e-25
1.0077091589558085 8.107012652826914e-25 2.1685302748681836e-17 2.1685301547138563e-17 1.2015432738303851e-24
1.0114953028030835 8.172958676754468e-25 2.194383891112002e-17 2.194383759425181e-17 1.3168682164703464e-24
1.0152956718711033 8.238947386248368e-25 2.2204126727064013e-17 2.2204125284277723e-17 1.4427862856481112e-24
1.0229392996569957 8.370972109973327e-25 2.27297778852439e-17 2.2729776155040886e-17 1.73020301554797e-24
1.0267826658714554 8.436854272373525e-25 2.299474030043972e-17 2.2994738406591785e-17 1.8938479354377424e-24
1.0306404723013447 8.502759446282945e-25 2.3261435829402786e-17 2.3261433757116177e-17 2.072286607456641e-24
1.03451277320114 8.568683669531358e-25 2.3529863111346732e-17 2.3529860844557185e-17 2.2667895401183027e-24
1.0383996230291617 8.634623028512962e-25 2.380002080378551e-17 2.3800018325055332e-17 2.47873017306017e-24
1.0403485208654093 8.667597174545254e-25 2.393574814071978e-17 2.3935745549020892e-17 2.5916988804845273e-24
1.0423010764483396 8.700573659664676e-25 2.407190758783156e-17 2.4071904878238886e-17 2.7095926760574768e-24
1.0462171883269815 8.766531750932981e-25 2.4345522173572118e-17 2.4345519212591816e-17 2.9609802944929083e-24
1.0471985131304309 8.783021997690602e-25 2.4414195641059832e-17 2.4414192613825654e-17 3.0272341827831022e-24
1.048180758391296 8.79951241728711e-25 2.4482976998243588e-17 2.4482973903336807e-17 3.09490678023361e-24
1.0501480137395462 8.832493543228962e-25 2.4620863305523464e-17 2.462086007089919e-17 3.2346242761320266e-24
1.0521189612883777 8.86547466738491e-25 2.4759180944763453e-17 2.4759177564392704e-17 3.380370754375802e-24
1.0531058218030118 8.881941807122526e-25 2.4828436395377746e-17 2.482843293979104e-17 3.455586715513038e-24
1.0540936079674168 8.898332508150359e-25 2.4897586106677293e-17 2.4897582574257088e-17 3.5324202197843595e-24
1.058054026499678 8.963889320020014e-25 2.5175248312230838e-17 2.517524445580204e-17 3.856428802319977e-24
1.0590464539527713 8.980276746497265e-25 2.524492960627538e-17 2.524492566450575e-17 3.9417696238783146e-24
1.06003981227728 8.99666335181561e-25 2.5314717159197402e-17 2.5314713130281193e-17 4.028916211075992e-24
1.0620293250338977 9.029433879719097e-25 2.5454610967188322e-17 2.5454606758415663e-17 4.2087726561465695e-24
1.0660195594769086 9.094962683060119e-25 2.5735672884307275e-17 2.5735668292507514e-17 4.591799757162545e-24
1.070024785945596 9.160472286831683e-25 2.6018432941612233e-17 2.6018427933571144e-17 5.0080410860852964e-24
1.0740450607676866 9.225959310165256e-25 2.6302890088328895e-17 2.6302884628104972e-17 5.460223921283425e-24
1.07808044048254 9.291420435888337e-25 2.6589043350894182e-17 2.6589037399608167e-17 5.9512860203502796e-24
1.0861967418109137 9.42214555507664e-25 2.716612769689152e-17 2.716612063394748e-17 7.062944037617848e-24
1.0902777775684922 9.487161062015084e-25 2.7456354077484604e-17 2.7456346386873356e-17 7.6906112453702e-24
1.0943741465085532 9.552133817329584e-25 2.7748253644941552e-17 2.7748245273609736e-17 8.371331827201027e-24
1.1026131145906286 9.681939326076598e-25 2.833707003162653e-17 2.833706012242415e-17 9.909202383099966e-24
1.1109141095355224 9.811539317628662e-25 2.893257344772253e-17 2.89325617333199e-17 1.171440262234139e-23
1.1192775983109025 9.940803190083001e-25 2.953443862171856e-17 2.953442479111886e-17 1.3830599707124326e-23
1.1277040513999907 1.006920948882168e-24 3.014115915068703e-17 3.014114284258029e-17 1.6308106741069216e-23
1.1361939428280308 1.0197333230696867e-24 3.075448891609435e-17 3.0754469711282384e-17 1.9204811966418792e-23
1.1447477501889525 1.0325156872643855e-24 3.1374433322596094e-17 3.1374410735363606e-17 2.258723248866072e-23
1.1533659546722406 1.0452719492893328e-24 3.200116997769927e-17 3.200114344596443e-17 2.65317348446189e-23
1.1707974979042381 1.070745702709755e-24 3.3276493683365626e-17 3.327645721337014e-17 3.6469995491430386e-23
1.1884924949847024 1.0960952188501654e-24 3.4579137776876305e-17 3.457908789586692e-17 4.9881009365454494e-23
1.2064549276569216 1.1215021247455451e-24 3.5915394021359323e-17 3.5915326133046524e-17 6.788831280987924e-23
1.2246888378427687 1.1467586023535404e-24 3.727925281874275e-17 3.727916087322757e-17 9.194551516560773e-23
1.2431983285522175 1.1718299788239242e-24 3.867002518684008e-17 3.8669901260142207e-17 1.2392669787212807e-22
1.2619875648066055 1.1967361703943673e-24 4.008878795853064e-17 4.008862172282094e-17 1.662357096953655e-22
1.3004222497298317 1.2458092663626816e-24 4.3003656223221054e-17 4.300336130057158e-17 2.9492264947969622e-22
1.3400274889804893 1.2940185855098542e-24 4.602816428285157e-17 4.6027650611039593e-17 5.136718119849682e-22
1.3808389325824078 1.3414442190782841e-24 4.9168286633745147e-17 4.9167407895581306e-17 8.787381638376376e-22
1.4228933163050095 1.3884652254117995e-24 5.244170215574807e-17 5.244022494179376e-17 1.4772139542939709e-21
1.466228494730424 1.4360362785440098e-24 5.589030762403802e-17 5.588786613947214e-17 2.4414845659036248e-21
1.5108834753276823 1.4839110476712412e-24 5.951251069182089e-17 5.950854168241466e-17 3.9690094062423764e-21
1.5568984535646726 1.5319505306407305e-24 6.331031315679257e-17 6.330396009620831e-17 6.3530605842601005e-21
1.6043148490894465 1.5805084037195051e-24 6.730631994802742e-17 6.729628855489221e-17 1.0031393135223709e-20
1.6531753430134553 1.6299899772506516e-24 7.152753955445332e-17 7.151193292796086e-17 1.5606626492455347e-20
1.7035239163302658 1.6809395594688864e-24 7.600983088268231e-17 7.598590164438627e-17 2.3929238296053848e-20
1.755405889504358 1.7348791851395207e-24 8.083812293171025e-17 8.080194551529625e-17 3.61774164139947e-20
1.8088679632656115 1.7919527160638852e-24 8.604048423896443e-17 8.598653462714415e-17 5.3949611820274096e-20
1.8639582606462262 1.8523741998771194e-24 9.165039467999365e-17 9.157100700159926e-17 7.938767839438544e-20
1.9207263702978936 1.9167268272965937e-24 9.772263155615616e-17 9.760731416166859e-17 1.15317394487571e-19
1.979223391128241 1.9858100866058256e-24 1.0432825905705854e-16 1.041628420001389e-16 1.6541705691963852e-19
2.039501978296691 2.060483965466985e-24 1.1154826074926324e-16 1.1131385755661536e-16 2.344031926478361e-19
2.1016163906111602 2.142403222635418e-24 1.1951546151450493e-16 1.1918719776365561e-16 3.2826375084931016e-19
2.1656225393682647 2.2327707335737e-24 1.2835013411682077e-16 1.2789566224099782e-16 4.544718758229802e-19
2.231578038680979 2.332127537661171e-24 1.381445668288632e-16 1.3752233821844138e-16 6.222286104218214e-19
2.299542257339062 2.441447892456565e-24 1.4902471070634923e-16 1.4818199001165227e-16 8.427206946969393e-19
2.369576372248914 2.562131707222507e-24 1.6115418746732486e-16 1.60024788375235e-16 1.1293990920898753e-18
2.4417434235010123 2.6957469378380967e-24 1.7472239747325551e-16 1.7322419355538236e-16 1.4982039178731478e-18
2.5161083711144245 2.8445617798488745e-24 1.8998273965963162e-16 1.8801488439793547e-16 1.9678552616961637e-18
2.5927381535095444 3.0117883504888052e-24 2.0727768081238596e-16 2.0471762655882473e-16 2.560054253561229e-18
2.6717017477616296 3.2007566979743627e-24 2.2699174870104053e-16 2.236922400173032e-16 3.299508683737253e-18
2.753070231689431 3.415967263299775e-24 2.4963209619632984e-16 2.4541806167844663e-16 4.2140345178831896e-18
2.836916847834745 3.667036157938297e-24 2.761412152497257e-16 2.7080646286390504e-16 5.334752385820666e-18
2.9233170693905177 3.9738657214140945e-24 3.083603596463582e-16 3.016655978671106e-16 6.694761779247638e-18
2.967498994190263 4.166250996462866e-24 3.281749622944087e-16 3.207128704978315e-16 7.462091796577174e-18
3.0123486681368425 4.376414519553829e-24 3.499396246628428e-16 3.416332850137005e-16 8.306339649142223e-18
3.0578761833420214 4.712917856804837e-24 3.8254206665621206e-16 3.7330554232940583e-16 9.236524326806361e-18
3.1040917844459814 5.11257489127901e-24 4.2125364352965476e-16 4.1100277245411065e-16 1.0250871075544094e-17
3.127460860933648 5.470676708044792e-24 4.541531879931297e-16 4.4335837864666343e-16 1.0794809346466234e-17
3.1510058709225794 5.9253980680694214e-24 4.956055680381219e-16 4.842431709846977e-16 1.1362397053424192e-17
3.162844764501044 6.325494616275744e-24 5.310578101912543e-16 5.194014510343578e-16 1.1656359156896447e-17
3.1747281389236908 6.78165824195213e-24 5.714942620743996e-16 5.595377995968383e-16 1.1956462477561385e-17
3.1986289994194426 8.020361301158051e-24 6.8096883438897705e-16 6.683918600568526e-16 1.2576974332124523e-17
3.2227097969389145 1.0856875688163616e-23 9.287428803613735e-16 9.155077548478163e-16 1.3235125513557433e-17
3.2348180950136065 1.3513334388057527e-23 1.1603308000563638e-15 1.1467442856734892e-15 1.3586514382874571e-17
3.240889293275058 1.54931164586654e-23 1.332822803372513e-15 1.3190509376431738e-15 1.3771865729339284e-17
3.2469718861334385 1.7783888715788378e-23 1.5327618888876646e-15 1.518798235337518e-15 1.396365355014652e-17
3.2714166318528037 2.9893050360087393e-23 2.59582567768938e-15 2.5810689367257347e-15 1.4756740963645534e-17
3.2744851364798273 3.065398284729875e-23 2.6643996413517484e-15 2.649549287113195e-15 1.485035423855372e-17
3.2775565192852394 3.1435918757353066e-23 2.7349272617888002e-15 2.719982812431632e-15 1.4944449357168063e-17
3.283707930232385 3.0706608389812616e-23 2.676491109877199e-15 2.661378084118417e-15 1.511302575878216e-17
3.2898708863219004 2.835794011528386e-23 2.4764123896496443e-15 2.461145669659945e-15 1.5266719989699195e-17
3.29141343181113 2.7803603324968877e-23 2.4291422847192147e-15 2.413836963956226e-15 1.5305320762988687e-17
3.292184975758714 2.753115312145565e-23 2.4059027222657125e-15 2.390578074494025e-15 1.5324647771688022e-17
3.295272960557952 2.5817670469451156e-23 2.258280482417595e-15 2.242880603392554e-15 1.539987902504135e-17
3.3076538914384823 1.9861640907959077e-23 1.7438319002229996e-15 1.7281297129897611e-15 1.570218723323821e-17
3.310756385682612 1.8644080555732345e-23 1.6384667373292126e-15 1.6226883212642141e-15 1.5778416064998238e-17
3.313861789986515 1.7518625539773465e-23 1.5410043130290425e-15 1.525149406776333e-15 1.5854906252709302e-17
3.3200813396944477 1.5947745745080327e-23 1.4054566666508955e-15 1.3894373673556637e-15 1.601929929523151e-17
3.345076488085796 1.3206943228851841e-23 1.1726753514566662e-15 1.1559237861348685e-15 1.6751565321797782e-17
3.3482140837626964 1.332366968155463e-23 1.18414942682095e-15 1.1672986780273668e-15 1.685074879358322e-17
3.3513546224236106 1.3441532298465307e-23 1.1957450672598773e-15 1.1787946724302725e-15 1.695039482960476e-17
3.3576445397418455 1.424725375012253e-23 1.269799961697794e-15 1.2526412803849794e-15 1.7158681312814644e-17
3.3702598118196083 1.716851110567316e-23 1.535908870102128e-15 1.5183132684512748e-15 1.7595601650853576e-17
3.382922481734668 1.7874477933557488e-23 1.605073207278233e-15 1.5870523413590302e-15 1.8020865919203203e-17
3.389271646505754 1.8239039463527666e-23 1.6408836003983208e-15 1.6226470680449942e-15 1.8236532353327092e-17
3.395632727569191 1.8635131111214655e-23 1.6796647050332078e-15 1.661205911656473e-15 1.8458793376735324e-17
3.421196662673239 2.053683196439274e-23 1.865008959136795e-15 1.8456294570561144e-15 1.9379502080680866e-17
3.4276182099114902 2.0202935833686995e-23 1.8381305746516722e-15 1.8185449613008806e-15 1.9585613350791632e-17
3.4340518103208963 1.8658201156989528e-23 1.7007718033551143e-15 1.6809909339793747e-15 1.9780869375739824e-17
3.4469541582030403 1.6457613379022438e-23 1.5058156151449706e-15 1.4856593440717072e-15 2.015627107326367e-17
3.472904465399547 1.5898980134628066e-23 1.4656542659780304e-15 1.4446341495176745e-15 2.1020116460356233e-17
3.4990501388274233 1.5016553972779106e-23 1.3947291573204973e-15 1.3728236099782074e-15 2.1905547342290403e-17
3.5253949054701885 1.1714911175298735e-23 1.0962666581282393e-15 1.0734986141086008e-15 2.2768044019638363e-17
3.5519380250092896 8.592246910279814e-24 8.101054635198194e-16 7.86468663540306e-16 2.36367999795133e-17
3.578680990867387 7.404698300830285e-24 7.033958273437005e-16 6.788065496613917e-16 2.4589277682308904e-17
3.605625307711299 6.977642784356455e-24 6.678189811767773e-16 6.42225423792169e-16 2.5593557384608413e-17
3.660119384959845 6.77983964263307e-24 6.586946050317946e-16 6.309860666078662e-16 2.7708538423928427e-17
3.715437065384467 6.690167752739957e-24 6.598061359533346e-16 6.298606102076196e-16 2.994552574571489e-17
3.8285932144167436 6.921880950601684e-24 7.034492710436843e-16 6.686700749762387e-16 3.4779196067445746e-17
3.94519561050918 7.276410179543726e-24 7.620003083057795e-16 7.219111212394577e-16 4.008918706632198e-17
4.06534921144712 7.688770559869682e-24 8.297059253166775e-16 7.838269645428832e-16 4.587896077379401e-17
4.189162171576248 8.139221709471552e-24 9.05064404774807e-16 8.528956155618078e-16 5.2168789212999076e-17
4.316745939156006 8.619043152408925e-24 9.876088596557063e-16 9.286625125460173e-16 5.894634710968912e-17
4.448215356677963 9.123513028438229e-24 1.0772520636056717e-15 1.0111214732039224e-15 6.613059040174931e-17
4.58368876423945 9.651261917895843e-24 1.1742718659214135e-15 1.1005315996692798e-15 7.374026625213369e-17
4.723288106065518 1.0202993790874807e-23 1.2792089592118699e-15 1.1973765783035534e-15 8.183238090831669e-17
4.867139040275056 1.0779494729814553e-23 1.392648739938567e-15 1.30243441292731e-15 9.021432701125711e-17
4.940699165968905 1.1082553321260661e-23 1.4534418918406169e-15 1.358900469092462e-15 9.45414227481549e-17
5.015371051989984 1.1387528527085085e-23 1.5160096994490536e-15 1.4170615659774384e-15 9.894813347161509e-17
5.091171501069577 1.1712504362144654e-23 1.5828396676328266e-15 1.479313739756158e-15 1.0352592787666785e-16
5.129500256944802 1.1875589927062309e-23 1.6169615081537299e-15 1.5111198840384486e-15 1.058416241152814e-16
5.168117569889187 1.2040702516377384e-23 1.651785481685523e-15 1.5435897574017223e-15 1.081957242838008e-16
5.20702561229733 1.222067440228561e-23 1.6890959484391167e-15 1.578340745969417e-15 1.1075520246969998e-16
5.246226572918644 1.240162553716799e-23 1.7270109443178482e-15 1.613671144625318e-15 1.1333979969253031e-16
5.265937586045735 1.2492468027030553e-23 1.7461976001219872e-15 1.6315563181984069e-15 1.1464128192358054e-16
5.285722656980489 1.2583555231346021e-23 1.7655383868768648e-15 1.6495896289266367e-15 1.1594875795022855e-16
5.305582063971359 1.2674887392392397e-23 1.785034355053509e-15 1.667772225416183e-15 1.172621296373256e-16
5.3255160863122235 1.2769091528743042e-23 1.805057886609776e-15 1.6864669992581664e-15 1.1859088735160948e-16
5.365609099470188 1.2978795414246591e-23 1.848514448835564e-15 1.7271743980820362e-15 1.213400507535278e-16
5.406003951863644 1.3190984404154262e-23 1.892879634838994e-15 1.768763874223268e-15 1.2411576061572567e-16
5.446702915881641 1.3405757141648626e-23 1.9381816090684255e-15 1.811264357067258e-15 1.2691725200116723e-16
5.487708281020852 1.362828839031718e-23 1.985188565487528e-15 1.8554337247790038e-15 1.297548407085243e-16
5.529022354014368 1.3899167193029836e-23 2.0398891027982926e-15 1.90717471102139e-15 1.3271439177690302e-16
5.570647458961463 1.4177174122713658e-23 2.0963547710360522e-15 1.960652354821971e-15 1.357024162140809e-16
5.612585937458331 1.446281278392626e-23 2.154692010346928e-15 2.0159738602948667e-15 1.3871815005206066e-16
5.654840148729818 1.4764417889062696e-23 2.2161854267713137e-15 2.0744107776117027e-15 1.4177464915961069e-16
5.67608639626678 1.4953206665587067e-23 2.2529562900097603e-15 2.1095832228441146e-15 1.4337306716564512e-16
5.686739436050992 1.5049282309311377e-23 2.2716873087864765e-15 2.127512055015922e-15 1.4417525377055375e-16
5.6974124697621304 1.5146514221004965e-23 2.290655567459138e-15 2.145676157458828e-15 1.449794100003095e-16
5.718818669136295 1.5344557325958448e-23 2.3293251901861664e-15 2.1827316056825915e-15 1.4659358450357481e-16
5.740305295436557 1.5557358790275753e-23 2.370501811394284e-15 2.2222749009186108e-15 1.4822691047567313e-16
5.7835210386641895 1.6081390889816284e-23 2.4687968878212707e-15 2.317191118374813e-15 1.5160576944645787e-16
5.827062130521658 1.6663118604642337e-23 2.577361680966916e-15 2.422314628536989e-15 1.5504705242992693e-16
5.8489554468988025 1.705522354084613e-23 2.647921843895672e-15 2.4910194328329436e-15 1.5690241106272906e-16
5.870931020387893 1.7468585014242217e-23 2.7222884375829454e-15 2.563519263088663e-15 1.587691744942827e-16
5.892989160043636 1.7904873520894675e-23 2.80076282157984e-15 2.6401155510408613e-15 1.6064727053897788e-16
5.915130176081913 1.839305587814449e-23 2.887936435362367e-15 2.725343107113181e-15 1.6259332824918523e-16
5.95966208400165 1.9725945756153355e-23 3.1205338883872432e-15 2.9535225133627932e-15 1.6701137502445025e-16
6.004529249263818 2.159621247477616e-23 3.4421198625225212e-15 3.2701451659769638e-15 1.719746965455568e-16
6.027089341400364 2.287795503727419e-23 3.66011106701623e-15 3.485276737449755e-15 1.7483432956647588e-16
6.049734195844842 2.437365494542006e-23 3.9140501449452276e-15 3.736188166914007e-15 1.7786197803122032e-16
6.095279466722835 2.864927202199104e-23 4.635287186942003e-15 4.450011315199174e-15 1.852758717428284e-16
6.141167624020661 3.5137480610655753e-23 5.727841657682532e-15 5.532978088375839e-15 1.9486356930669165e-16
6.164241091010745 3.9269441512916267e-23 6.425453337444948e-15 6.224589009386987e-15 2.0086432805796246e-16
6.187401249150058 4.3923289270920285e-23 7.213940720733903e-15 7.0069092091700925e-15 2.0703151156381003e-16
6.1990139391386085 4.619163800575514e-23 7.600731813644668e-15 7.390561159805718e-15 2.1017065383895006e-16
6.204828454712694 4.738191936512857e-23 7.803902978077871e-15 7.592146213665512e-15 2.11756764412357e-16
6.210648424152782 4.8251251199458584e-23 7.954537941787556e-15 7.7414258886667e-15 2.1311205312085907e-16
6.233982942956859 5.1189805211995427e-23 8.470684761534234e-15 8.252830749427687e-15 2.1785401210654803e-16
6.239830258556775 5.155849880959683e-23 8.539697217397731e-15 8.321172594618653e-15 2.1852462277907915e-16
6.245683058788269 5.158321758793567e-23 8.551805275405634e-15 8.332608764602008e-15 2.1919651080362602e-16
6.257405133728602 5.148546658947847e-23 8.551619326542654e-15 8.33123936719242e-15 2.2037995935023228e-16
6.269149208991335 5.0887934238685134e-23 8.46823420574117e-15 8.247383613167417e-15 2.20850592573752e-16
6.280915325867298 4.941643604430648e-23 8.238796810597562e-15 8.018357694460968e-15 2.204391161365963e-16
6.304513850009849 4.579963466144441e-23 7.66448625795992e-15 7.445669084040856e-15 2.1881717391906378e-16
6.32820103803542 4.1351322767764517e-23 6.946069225450303e-15 6.729724145863545e-15 2.1634507958675677e-16
6.3519772230701035 3.7287154200697786e-23 6.286915221117971e-15 6.072772404716717e-15 2.1414281640125516e-16
6.375842739491607 3.3859214163764206e-23 5.730386355353225e-15 5.518169789261615e-15 2.1221656609161192e-16
6.399797922933955 3.114710564112826e-23 5.291190405035592e-15 5.079888872407334e-15 2.1130153262825747e-16
6.42384311029221 2.888686620243504e-23 4.925664057327726e-15 4.715076428503452e-15 2.105876288242763e-16
6.447978639727206 2.7260660906964003e-23 4.665835292566324e-15 4.4551711063779775e-15 2.1066418618834632e-16
6.472204850670314 2.5906410825657603e-23 4.450706296197579e-15 4.2398079304221496e-15 2.1089836577543073e-16
6.496522083828205 2.504493098583573e-23 4.318870593192811e-15 4.107095832139665e-15 2.1177476105314621e-16
6.520930681187647 2.4322780785111655e-23 4.210098359646093e-15 3.997348164500628e-15 2.1275019514546538e-16
