Dust emission spectrum from A.P. Jones, M. Kohler, N. Ysard, M. Bocchio, and L. Verstraete (2017), A&A, 602A, 46J 
inside the DustPedia framework.

lambda    nu*dP/dnu     j_nu    j_nu(carb.) j_nu(sil)
 (um)   (erg s-1 H-1) (Jy cm2 sr-1 H-1)
0.9927057738263894 5.889390871350573e-25 1.551887945673217e-17 1.5518879456729194e-17 2.9794843226580713e-30
1.0001793341362166 5.986689660532818e-25 1.5894030993498767e-17 1.5894030993495174e-17 3.58986690449337e-30
1.0077091589558085 6.083849698014585e-25 1.627358044555646e-17 1.627358044555214e-17 4.3197889397277276e-30
1.0114953028030835 6.132365718879666e-25 1.6464985423443715e-17 1.6464985423438978e-17 4.736379660217477e-30
1.0152956718711033 6.180832730489974e-25 1.665746688171014e-17 1.6657466881704947e-17 5.191482882864307e-30
1.0229392996569957 6.277553237169031e-25 1.70454982849179e-17 1.704549828491167e-17 6.231159039755267e-30
1.0267826658714554 6.325689433042979e-25 1.7240737013836996e-17 1.724073701383017e-17 6.823598594064734e-30
1.0306404723013447 6.373755336937586e-25 1.7437009914152223e-17 1.743700991414476e-17 7.469964534192433e-30
1.03451277320114 6.421746310334923e-25 1.7634308540910442e-17 1.7634308540902267e-17 8.174928086419547e-30
1.0383996230291617 6.469657740442228e-25 1.7832624343580025e-17 1.7832624343571086e-17 8.943542930501104e-30
1.0403485208654093 6.493582192516668e-25 1.7932160985469012e-17 1.793216098545966e-17 9.353410620964829e-30
1.0423010764483396 6.517485041076401e-25 1.803194866807349e-17 1.803194866806371e-17 9.781274555195237e-30
1.0462171883269815 6.565223653529021e-25 1.8232272758772656e-17 1.823227275876196e-17 1.069403170408817e-29
1.0471985131304309 6.577143917574767e-25 1.828250895936486e-17 1.8282508959353925e-17 1.093468106637436e-29
1.048180758391296 6.589058284811917e-25 1.8332806953055177e-17 1.8332806953044e-17 1.1180520773541799e-29
1.0501480137395462 6.6128690474116975e-25 1.8433587760555472e-17 1.8433587760543774e-17 1.1688200047820361e-29
1.0521189612883777 6.6366553795903265e-25 1.8534614059168515e-17 1.8534614059156303e-17 1.2217948168399518e-29
1.0531058218030118 6.648520946601037e-25 1.8585167864266703e-17 1.8585167864254213e-17 1.2491399545591295e-29
1.0540936079674168 6.660320362013471e-25 1.8635615106470738e-17 1.8635615106457966e-17 1.2770772773493095e-29
1.058054026499678 6.707450984309874e-25 1.8837999672193767e-17 1.8837999672179814e-17 1.3949355999567166e-29
1.0590464539527713 6.719216535348467e-25 1.8888743992255676e-17 1.8888743992241418e-17 1.4259903074155482e-29
1.06003981227728 6.730975107133359e-25 1.8939547294308017e-17 1.8939547294293442e-17 1.4577070661333008e-29
1.0620293250338977 6.754471039078216e-25 1.9041330262692504e-17 1.9041330262677275e-17 1.523180751890115e-29
1.0660195594769086 6.801376146620902e-25 1.9245597565626515e-17 1.9245597565609893e-17 1.662681610675397e-29
1.070024785945596 6.848161960337865e-25 1.9450792181805373e-17 1.945079218178723e-17 1.8143755596464715e-29
1.0740450607676866 6.894824167441332e-25 1.9656904627223497e-17 1.96569046272037e-17 1.9792735347016915e-29
1.07808044048254 6.941358489650979e-25 1.9863925335091287e-17 1.9863925335069695e-17 2.1584654145027466e-29
1.0861967418109137 7.033944306403573e-25 2.028041576343788e-17 2.0280415763412236e-17 2.5645203870403397e-29
1.0902777775684922 7.0798004158445e-25 2.0489322964446606e-17 2.0489322964418673e-17 2.7940126196742674e-29
1.0943741465085532 7.125508615741569e-25 2.0699084016191955e-17 2.0699084016161522e-17 3.0430689461668433e-29
1.1026131145906286 7.216465036789601e-25 2.1121127518071104e-17 2.1121127518035042e-17 3.6063098198733485e-29
1.1109141095355224 7.306781461975468e-25 2.1546465286565922e-17 2.1546465286523234e-17 4.2683639121250995e-29
1.1192775983109025 7.396342568140126e-25 2.1974766165963582e-17 2.1974766165913132e-17 5.0455527898258774e-29
1.1277040513999907 7.484732352239625e-25 2.240478850694272e-17 2.2404788506883156e-17 5.956716485543383e-29
1.1361939428280308 7.572377762002403e-25 2.2837795204037608e-17 2.2837795203967365e-17 7.023569773155885e-29
1.1447477501889525 7.659249563816803e-25 2.327370108804567e-17 2.3273701087962956e-17 8.271110734588468e-29
1.1533659546722406 7.745366546824606e-25 2.3712565095909944e-17 2.3712565095812665e-17 9.728092390098878e-29
1.1707974979042381 7.915614159781441e-25 2.4600041253616595e-17 2.4600041253482522e-17 1.3407385302261299e-28
1.1884924949847024 8.082475690546826e-25 2.5498244648385543e-17 2.5498244648201677e-17 1.838738797152013e-28
1.2064549276569216 8.247255855850627e-25 2.6411313641072522e-17 2.6411313640821578e-17 2.509486946405175e-28
1.2246888378427687 8.408154933086157e-25 2.7333541064908677e-17 2.7333541064567837e-17 3.408416973015264e-28
1.2431983285522175 8.564796400106811e-25 2.826356199255873e-17 2.8263561992097997e-17 4.607289582216326e-28
1.2619875648066055 8.717121548376125e-25 2.920099233287397e-17 2.920099233225411e-17 6.198525621926641e-28
1.3004222497298317 9.006290442942649e-25 3.10885003436822e-17 3.108850034257579e-17 1.1063981360185264e-27
1.3400274889804893 9.27452894608705e-25 3.298944441422831e-17 3.298944441228913e-17 1.939190651109037e-27
1.3808389325824078 9.520841229821302e-25 3.489697476231128e-17 3.489697475897229e-17 3.3389885316164065e-27
1.4228933163050095 9.746424530962121e-25 3.681180363624888e-17 3.68118036305981e-17 5.6507622483039784e-27
1.466228494730424 9.956705596521706e-25 3.875134263848786e-17 3.875134262908384e-17 9.40400462655099e-27
1.5108834753276823 1.0147595681670636e-24 4.0697108997836274e-17 4.069710898243973e-17 1.5396553956882785e-26
1.5568984535646726 1.0315786049840894e-24 4.2631640657531233e-17 4.263164063270627e-17 2.482496848432405e-26
1.6043148490894465 1.0461582368926462e-24 4.4550893144796604e-17 4.455089310530556e-17 3.9491035553143245e-26
1.6531753430134553 1.0585426304212762e-24 4.6451175114121475e-17 4.645117505221106e-17 6.191041104269982e-26
1.7035239163302658 1.0688787504074603e-24 4.83332625464739e-17 4.833326245080043e-17 9.567347980995394e-26
1.755405889504358 1.0780164766969462e-24 5.0231064625188085e-17 5.023106447937312e-17 1.4581496123342224e-25
1.8088679632656115 1.0857457962394057e-24 5.213200841261928e-17 5.2132008193362875e-17 2.1925642329829513e-25
1.8639582606462262 1.0919244175616262e-24 5.402542522827403e-17 5.402542490287374e-17 3.254002991685998e-25
1.9207263702978936 1.0966553048916576e-24 5.591200622739989e-17 5.591200575056631e-17 4.768336023225967e-25
1.979223391128241 1.1001783003174558e-24 5.779993137241886e-17 5.77999306822255e-17 6.901933644755652e-25
2.039501978296691 1.1027804755609434e-24 5.970114113903775e-17 5.970114015187267e-17 9.87165071604576e-25
2.1016163906111602 1.1052661213625467e-24 6.165804326437527e-17 6.165804186862203e-17 1.3957532596826457e-24
2.1656225393682647 1.1081015772420411e-24 6.369887598196701e-17 6.369887403040181e-17 1.951565203796137e-24
2.231578038680979 1.111320171583722e-24 6.58295231424501e-17 6.582952044312724e-17 2.699322862951954e-24
2.299542257339062 1.1152011317454388e-24 6.8071297589946e-17 6.807129389537383e-17 3.694572166443715e-24
2.369576372248914 1.1203619796328182e-24 7.046906448565741e-17 7.046905948001587e-17 5.005641542318117e-24
2.4417434235010123 1.1275319445263905e-24 7.307996229546849e-17 7.30799555799211e-17 6.715547381100563e-24
2.5161083711144245 1.1379599422613167e-24 7.600212763359531e-17 7.600211870918854e-17 8.924406783267547e-24
2.5927381535095444 1.1536897998031358e-24 7.939938609606779e-17 7.939937434435396e-17 1.1751713826165881e-23
2.6717017477616296 1.177161766056403e-24 8.34821365679724e-17 8.348212122992242e-17 1.533804997239174e-23
2.753070231689431 1.212049919700739e-24 8.857419841231552e-17 8.857417856483471e-17 1.9847480818254624e-23
2.836916847834745 1.2666778408954044e-24 9.538546751374611e-17 9.538544204303089e-17 2.5470715192777952e-23
2.9233170693905177 1.3593770034009312e-24 1.0548368038830865e-16 1.0548364796583581e-16 3.242247283350982e-23
2.967498994190263 1.438100874183943e-24 1.132789888467005e-16 1.132789524289043e-16 3.641779617280864e-23
3.0123486681368425 1.5300421480478521e-24 1.2234270145433594e-16 1.223426606014532e-16 4.085288271789795e-23
3.0578761833420214 1.7357595288011127e-24 1.4088958423220975e-16 1.4088953845060268e-16 4.578160706753029e-23
3.1040917844459814 2.0008491786149114e-24 1.6486115598670268e-16 1.6486110477227945e-16 5.121442324145149e-23
3.127460860933648 2.2812751433155824e-24 1.8938212479321177e-16 1.8938207064189028e-16 5.41513214776176e-23
3.1510058709225794 2.6549028771500158e-24 2.2205843951757974e-16 2.22058382284126e-16 5.723345372657792e-23
3.162844764501044 3.0026910712320093e-24 2.5209136070819314e-16 2.5209130187120946e-16 5.883698380754969e-23
3.1747281389236908 3.407139741497709e-24 2.871216364614527e-16 2.87121575982617e-16 6.047883560741717e-23
3.1986289994194426 4.535261157654884e-24 3.8506638145240694e-16 3.850663175633258e-16 6.388908117998091e-23
3.2227097969389145 7.194510577693836e-24 6.1544874129879095e-16 6.154486737691223e-16 6.752966855964765e-23
3.2348180950136065 9.716308514895164e-24 8.342968292597224e-16 8.342967597776166e-16 6.948210562259689e-23
3.240889293275058 1.1601679063745322e-23 9.98055004286803e-16 9.980549337725532e-16 7.05142500565279e-23
3.2469718861334385 1.378276171153922e-23 1.1879118348458983e-15 1.1879117632620368e-15 7.158386191227112e-23
3.2714166318528037 2.541703655931145e-23 2.207141638496792e-15 2.2071415624679043e-15 7.60288869721929e-23
3.2744851364798273 2.6144332474338484e-23 2.2724273845591555e-15 2.272427308002726e-15 7.65564304534148e-23
3.2775565192852394 2.689251834064001e-23 2.3396510887968904e-15 2.3396510117097238e-15 7.708716665224917e-23
3.283707930232385 2.6173001573542554e-23 2.28132671446806e-15 2.2813266364277287e-15 7.804033129013298e-23
3.2898708863219004 2.3891186401937688e-23 2.086344416014201e-15 2.08634433710254e-15 7.891166036562317e-23
3.29141343181113 2.3353077575361915e-23 2.0403092201252734e-15 2.0403091409945765e-15 7.91306968452026e-23
3.292184975758714 2.3088669978484362e-23 2.017681341194513e-15 2.0176812619541168e-15 7.924039621416377e-23
3.295272960557952 2.1419701630673744e-23 1.873588641120616e-15 1.8735885614530502e-15 7.966756527986239e-23
3.3076538914384823 1.563788613061253e-23 1.3729905204201532e-15 1.3729904390328648e-15 8.138728873069455e-23
3.310756385682612 1.4461139906985048e-23 1.2708643180676463e-15 1.2708642362459077e-15 8.182173883932969e-23
3.313861789986515 1.3375408641860207e-23 1.1765513429599248e-15 1.1765512607019181e-15 8.225800649937711e-23
3.3200813396944477 1.1852791926903222e-23 1.044573051161855e-15 1.044572967966054e-15 8.319580057407226e-23
3.345076488085796 9.136589135220341e-24 8.112590998235955e-16 8.112590124387663e-16 8.73848290799445e-23
3.3482140837626964 9.23844343690366e-24 8.210724043746162e-16 8.210723164205143e-16 8.795410169847462e-23
3.3513546224236106 9.341423849544591e-24 8.310035821252355e-16 8.310034935987108e-16 8.852652462326028e-23
3.3576445397418455 1.0094027495431638e-23 8.996397447448664e-16 8.996396550201891e-16 8.972467689362618e-23
3.3702598118196083 1.2869949948766415e-23 1.1513561171620139e-15 1.1513560249170035e-15 9.224501037634052e-23
3.382922481734668 1.3502193540861652e-23 1.2124555006574653e-15 1.2124554059521798e-15 9.470528510422239e-23
3.389271646505754 1.3829739637154365e-23 1.2441989071718425e-15 1.2441988112154745e-15 9.595636763878563e-23
3.395632727569191 1.418268593543693e-23 1.2783466263882674e-15 1.2783465291413898e-15 9.724687765522683e-23
3.421196662673239 1.5877397687081548e-23 1.4418722900165924e-15 1.4418721874020788e-15 1.0261451397698143e-22
3.4276182099114902 1.5535875033202835e-23 1.413505796265557e-15 1.4135056924384465e-15 1.0382711088792981e-22
3.4340518103208963 1.4039327783251733e-23 1.2797424912995867e-15 1.2797423863195136e-15 1.0498007319344526e-22
3.4469541582030403 1.1907972125399974e-23 1.0895389239119081e-15 1.0895388167048242e-15 1.0720708371806292e-22
3.472904465399547 1.131065142142429e-23 1.0426772262388764e-15 1.0426771138933015e-15 1.1234557496547198e-22
3.4990501388274233 1.0397071108840394e-23 9.65674165492347e-16 9.656740478409102e-16 1.1765143693306513e-22
3.5253949054701885 7.145801311139297e-24 6.686951019764182e-16 6.686949791152452e-16 1.2286117308584414e-22
3.5519380250092896 4.089988238180201e-24 3.8561762156968537e-16 3.856174934167746e-16 1.2815291077510923e-22
3.578680990867387 2.8783341032539375e-24 2.734221052197189e-16 2.7342197122901734e-16 1.3399070148464354e-22
3.605625307711299 2.3882368823948184e-24 2.2857431526667186e-16 2.285741750738426e-16 1.4019282926095933e-22
3.660119384959845 2.030689418262071e-24 1.9729141614106047e-16 1.9729126271832516e-16 1.5342273526949744e-22
3.715437065384467 1.7774842170505e-24 1.7530128336315792e-16 1.753011157064332e-16 1.6765672471669214e-22
3.8285932144167436 1.6489664473014471e-24 1.6757934058788848e-16 1.67579141287273e-16 1.9930061552341666e-22
3.94519561050918 1.6243582360771753e-24 1.701060613885644e-16 1.7010582591585462e-16 2.354727097838543e-22
4.06534921144712 1.6425303553034496e-24 1.7724773521280345e-16 1.772474585542798e-16 2.766585236215985e-22
4.189162171576248 1.6855924307552807e-24 1.8743434747073588e-16 1.874340239448499e-16 3.23525886002844e-22
4.316745939156006 1.7469157767357806e-24 2.0016949302480212e-16 2.0016911638066977e-16 3.7664413240653965e-22
4.448215356677963 1.8243219082315645e-24 2.1540546215013229e-16 2.1540502592430513e-16 4.36225827159632e-22
4.58368876423945 1.9181587386722174e-24 2.3338293586432523e-16 2.3338243261354303e-16 5.0325078226898095e-22
4.723288106065518 2.0306470379118243e-24 2.545940865138104e-16 2.5459350737777677e-16 5.791360336087357e-22
4.867139040275056 2.16615746879999e-24 2.7985509015455676e-16 2.7985442638705003e-16 6.63767506617017e-22
4.940699165968905 2.247937921019648e-24 2.9480996390959885e-16 2.9480925392414927e-16 7.099854497124196e-22
5.015371051989984 2.3327717058452345e-24 3.1055944441765057e-16 3.105586854627136e-16 7.589549370193718e-22
5.091171501069577 2.4361638878368593e-24 3.292256480164686e-16 3.292248363984515e-16 8.116180171150505e-22
5.129500256944802 2.4892902962715402e-24 3.389378225766482e-16 3.389369834598082e-16 8.3911684009962e-22
5.168117569889187 2.544696174628662e-24 3.4909027864737345e-16 3.4908941107537896e-16 8.675719946631289e-22
5.20702561229733 2.612534841159553e-24 3.6109480296220893e-16 3.610939047960711e-16 8.98166137679848e-22
5.246226572918644 2.6821424151990126e-24 3.7350662551334995e-16 3.7350569579959347e-16 9.297137565481428e-22
5.265937586045735 2.7176274255547164e-24 3.7987005275989046e-16 3.798691069055888e-16 9.45854301568102e-22
5.285722656980489 2.7535764282035065e-24 3.863411250488511e-16 3.863401628044814e-16 9.622443697775844e-22
5.305582063971359 2.789997002913141e-24 3.929218735059908e-16 3.929208946181676e-16 9.788878230796983e-22
5.3255160863122235 2.829098643160998e-24 3.9992561775751213e-16 3.999246218911008e-16 9.958664110949927e-22
5.365609099470188 2.9262429726903073e-24 4.1677229998432543e-16 4.1677126875644424e-16 1.0312278812612424e-21
5.406003951863644 3.0271124394515762e-24 4.343845245697608e-16 4.3438345684454034e-16 1.0677252204506585e-21
5.446702915881641 3.131886649935695e-24 4.528028549565224e-16 4.5280174956100025e-16 1.1053955221015722e-21
5.487708281020852 3.2450672691273745e-24 4.726984234855609e-16 4.726972790966439e-16 1.1443889168617057e-21
5.529022354014368 3.40189062748113e-24 4.992730516538011e-16 4.992718660167276e-16 1.185637073572242e-21
5.570647458961463 3.567956777977218e-24 5.275877371344062e-16 5.275865088650316e-16 1.2282693746396831e-21
5.612585937458331 3.743928538747289e-24 5.577762106354709e-16 5.577749383011496e-16 1.2723343214249399e-21
5.654840148729818 3.9372894384274146e-24 5.909994921565709e-16 5.909981741086488e-16 1.3180479221165715e-21
5.67608639626678 4.068692831884769e-24 6.130181514048197e-16 6.130168091959023e-16 1.3422089175309887e-21
5.686739436050992 4.1364203464632624e-24 6.243921412154521e-16 6.243907867667799e-16 1.354448672295717e-21
5.6974124697621304 4.2055413910327994e-24 6.360174137089316e-16 6.360160469130037e-16 1.366795927757184e-21
5.718818669136295 4.348097976537614e-24 6.600473334615365e-16 6.600459416445447e-16 1.3918169919588263e-21
5.740305295436557 4.505168234913174e-24 6.864603179411777e-16 6.864589004766862e-16 1.4174644913862128e-21
5.7835210386641895 4.9121465897609e-24 7.541071724712064e-16 7.541057008528311e-16 1.4716183752985355e-21
5.827062130521658 5.380788779978176e-24 8.322715059489999e-16 8.322699776898256e-16 1.5282591743731559e-21
5.8489554468988025 5.7091737765847416e-24 8.86382164233134e-16 8.863806049473285e-16 1.5592858057208363e-21
5.870931020387893 6.0615188282676685e-24 9.446215939602946e-16 9.446200029886176e-16 1.5909716769410744e-21
5.892989160043636 6.439750679979932e-24 1.0073354756560184e-15 1.0073338523230282e-15 1.6233329905795011e-21
5.915130176081913 6.869789041917588e-24 1.0786415378089067e-15 1.0786398806283065e-15 1.6571806004132447e-21
5.95966208400165 8.071369382329048e-24 1.276845328209023e-15 1.2768435939015786e-15 1.7343074440361163e-21
6.004529249263818 9.802366016302695e-24 1.5623535286032129e-15 1.5623517050269508e-15 1.823576261546551e-21
6.027089341400364 1.100521603970309e-23 1.760660555377201e-15 1.7606586792873935e-15 1.8760898072433566e-21
6.049734195844842 1.2426464027724088e-23 1.9955071751768367e-15 1.9955052424734198e-15 1.932703417347961e-21
6.095279466722835 1.653089478054145e-23 2.6746035538394447e-15 2.6746014795671412e-15 2.0742723029214475e-21
6.141167624020661 2.284626825274545e-23 3.7242228169591896e-15 3.724220553801293e-15 2.2631578967812884e-21
6.164241091010745 2.687913611417441e-23 4.398092465757429e-15 4.3980900832984756e-15 2.3824589522818214e-21
6.187401249150058 3.147288846317365e-23 5.16909264884951e-15 5.169090139337224e-15 2.5095122884203593e-21
6.1990139391386085 3.371604242359664e-23 5.5479001685823594e-15 5.547897593940901e-15 2.574641458332927e-21
6.204828454712694 3.489762303732284e-23 5.747712798423137e-15 5.747710190386493e-15 2.6080366442359684e-21
6.210648424152782 3.576034616555063e-23 5.8953296197326696e-15 5.895326983133711e-15 2.636598958246386e-21
6.233982942956859 3.8691797462322357e-23 6.402564295823136e-15 6.402561556955554e-15 2.738867580141318e-21
6.239830258556775 3.906681755572939e-23 6.470684773140622e-15 6.470682018742845e-15 2.754397774081569e-21
6.245683058788269 3.909986550169858e-23 6.4822330149346956e-15 6.482230244913434e-15 2.7700212630497414e-21
6.257405133728602 3.902055667542818e-23 6.481226037217986e-15 6.481223239047345e-15 2.798170643020184e-21
6.269149208991335 3.844562274732921e-23 6.3977157351861516e-15 6.397712923306335e-15 2.811879816858713e-21
6.280915325867298 3.700205579143515e-23 6.169049078462481e-15 6.1690462708480265e-15 2.8076144534358745e-21
6.304513850009849 3.3441516704818853e-23 5.596377506591616e-15 5.5963747240600365e-15 2.7825315794934426e-21
6.32820103803542 2.9027631302289916e-23 4.875973076095481e-15 4.875970337863421e-15 2.738232062491621e-21
6.3519772230701035 2.497990137848008e-23 4.211813037623913e-15 4.211810339321516e-15 2.6983023966566583e-21
6.375842739491607 2.1574745154110582e-23 3.6513436092574105e-15 3.651340944610834e-15 2.6646465756442725e-21
6.399797922933955 1.884625449619303e-23 3.2015533677530894e-15 3.2015507180329264e-15 2.649720163842855e-21
6.42384311029221 1.657801142071226e-23 2.826811133638566e-15 2.826808494066779e-15 2.6395717865257523e-21
6.447978639727206 1.492581643477567e-23 2.554648301793454e-15 2.5546456562879777e-15 2.6455054770642923e-21
6.472204850670314 1.3549805803589e-23 2.3278487478690433e-15 2.327846092696193e-15 2.65517285055786e-21
6.496522083828205 1.2656444308966835e-23 2.18253925999211e-15 2.1825365814647514e-15 2.6785273586604022e-21
