Dust emission spectrum from A.P. Jones, M. Kohler, N. Ysard, M. Bocchio, and L. Verstraete (2017), A&A, 602A, 46J 
inside the DustPedia framework.

lambda    nu*dP/dnu     j_nu    j_nu(carb.) j_nu(sil)
 (um)   (erg s-1 H-1) (Jy cm2 sr-1 H-1)
0.9927057738263894 1.0419588370486964e-21 2.7456207177037643e-14 2.7456187850685893e-14 1.93263517500648e-20
1.0001793341362166 1.0594568236818239e-21 2.812746366808328e-14 2.8127440414540362e-14 2.3253542917604946e-20
1.0077091589558085 1.0770305279929286e-21 2.8809296431719724e-14 2.880926849041588e-14 2.794130384439539e-20
1.0114953028030835 1.0858451259074836e-21 2.9154204086592486e-14 2.915417347351171e-14 3.0613080770244815e-20
1.0152956718711033 1.0946778930979073e-21 2.950178648334512e-14 2.950175295425867e-14 3.352908644566612e-20
1.0229392996569957 1.1123883882736567e-21 3.020478464796275e-14 3.020474446705969e-14 4.018090306973516e-20
1.0267826658714554 1.1212461316490826e-21 3.0559688217644045e-14 3.055964425174101e-14 4.3965903044768967e-20
1.0306404723013447 1.1301207200058281e-21 3.091729311404449e-14 3.091724502271883e-14 4.8091325658109495e-20
1.03451277320114 1.1390119596806357e-21 3.127761103933708e-14 3.127755845311246e-14 5.258622462136424e-20
1.0383996230291617 1.1479196681731904e-21 3.164065401972919e-14 3.1640596537739435e-14 5.748198974386562e-20
1.0403485208654093 1.152379644331032e-21 3.182320125605856e-14 3.182314116537044e-14 6.009068812370849e-20
1.0423010764483396 1.1568436744873883e-21 3.2006434420441594e-14 3.200637160791928e-14 6.281252232366347e-20
1.0462171883269815 1.1657838194771077e-21 3.237496496108737e-14 3.2374896346664686e-14 6.86144226894871e-20
1.0471985131304309 1.1680213598992553e-21 3.246752883121006e-14 3.2467458688098884e-14 7.014311117310742e-20
1.048180758391296 1.1702598975684857e-21 3.256026560954542e-14 3.256019390518496e-14 7.170436046452422e-20
1.0501480137395462 1.1747399561965895e-21 3.2746258731460335e-14 3.274618380426968e-14 7.492719065746967e-20
1.0521189612883777 1.1792239789577665e-21 3.293294602355628e-14 3.2932867735217354e-14 7.82883389262301e-20
1.0531058218030118 1.1814645277182437e-21 3.3026468217033625e-14 3.302638819438186e-14 8.002265176848216e-20
1.0540936079674168 1.1836964161307217e-21 3.3119894562027273e-14 3.3119812767956865e-14 8.179407041160775e-20
1.058054026499678 1.1926333994692373e-21 3.349532876319697e-14 3.349523950114192e-14 8.926205504353633e-20
1.0590464539527713 1.1948699944888428e-21 3.358962062197809e-14 3.358952939347652e-14 9.122850156788105e-20
1.06003981227728 1.1971075260740516e-21 3.368408625137167e-14 3.3683993015042734e-14 9.32363289353501e-20
1.0620293250338977 1.2015853931560287e-21 3.387353973026075e-14 3.387344235081155e-14 9.737944920628434e-20
1.0660195594769086 1.2105523055387972e-21 3.4254542025463454e-14 3.4254435825762767e-14 1.0619970068722792e-19
1.070024785945596 1.219534059092203e-21 3.4638350669010295e-14 3.46382348886211e-14 1.1578038918813987e-19
1.0740450607676866 1.2285305907978963e-21 3.502498115757246e-14 3.502485497404895e-14 1.2618352349373808e-19
1.07808044048254 1.2375418525302187e-21 3.541444948328385e-14 3.541431200742558e-14 1.374758582652975e-19
1.0861967418109137 1.2555947818669827e-21 3.6201572115780844e-14 3.62014090948383e-14 1.6302094254381107e-19
1.0902777775684922 1.2646053567181794e-21 3.659835878760046e-14 3.659818135347452e-14 1.7743412595592155e-19
1.0943741465085532 1.273630093592662e-21 3.699802741741724e-14 3.699783435933097e-14 1.930580862775449e-19
1.1026131145906286 1.2917222106264008e-21 3.780608565201638e-14 3.780585732251444e-14 2.283295019326404e-19
1.1109141095355224 1.3098716242594117e-21 3.862590338692395e-14 3.8625633695146337e-14 2.6969177758971743e-19
1.1192775983109025 1.3280650723644332e-21 3.945723058326444e-14 3.9456912451258683e-14 3.1813200577041713e-19
1.1277040513999907 1.3462390890216223e-21 4.0298304134126276e-14 4.029792934805878e-14 3.747860674913526e-19
1.1361939428280308 1.3644716132921422e-21 4.115156988397333e-14 4.115112892469466e-14 4.409592786617204e-19
1.1447477501889525 1.3827644158923161e-21 4.201723082989176e-14 4.201671268029442e-14 5.181495973342006e-19
1.1533659546722406 1.4011259313749674e-21 4.2895697259050244e-14 4.2895089184459465e-14 6.080745907649239e-19
1.1707974979042381 1.4381170901366043e-21 4.469361319383503e-14 4.4692778914204436e-14 8.342796305948482e-19
1.1884924949847024 1.4754151929868058e-21 4.654576022136764e-14 4.654462133823767e-14 1.1388831299654261e-18
1.2064549276569216 1.5132867180009137e-21 4.846204705731066e-14 4.8460500054452185e-14 1.5470028584634716e-18
1.2246888378427687 1.5515190024515571e-21 5.043735362156324e-14 5.04352625734029e-14 2.091048160328159e-18
1.2431983285522175 1.5901105724468749e-21 5.247315480705979e-14 5.2470342119010085e-14 2.812688049688208e-18
1.2619875648066055 1.629151287187986e-21 5.457401733159298e-14 5.457025210698944e-14 3.7652246035478794e-18
1.3004222497298317 1.708519298592691e-21 5.897578269098332e-14 5.896913062794615e-14 6.652063037171136e-18
1.3400274889804893 1.7902624911794715e-21 6.367953055401327e-14 6.366799421370853e-14 1.1536340304750833e-17
1.3808389325824078 1.8752201036852752e-21 6.873290610824735e-14 6.871325753491008e-14 1.964857333726988e-17
1.4228933163050095 1.9647909184534674e-21 7.420926232653471e-14 7.417638010284065e-14 3.288222369406256e-17
1.466228494730424 2.0613453764157193e-21 8.022724002771925e-14 8.017314263249973e-14 5.409739521951471e-17
1.5108834753276823 2.1660279828614404e-21 8.686892903123912e-14 8.678139673074731e-14 8.75323004918353e-17
1.5568984535646726 2.2804597901708393e-21 9.424365902781762e-14 9.41042158644648e-14 1.3944316335284164e-16
1.6043148490894465 2.407334604136985e-21 1.0251690703237622e-13 1.0229778877697842e-13 2.1911825539779957e-16
1.6531753430134553 2.5499367475625317e-21 1.1189682397941882e-13 1.1155759455027305e-13 3.3922942914577585e-16
1.7035239163302658 2.7123283725963915e-21 1.2264784878076918e-13 1.2213030993134844e-13 5.175388494207345e-16
1.755405889504358 2.900594812590308e-21 1.3515560163712464e-13 1.3437712921614815e-13 7.784724209764528e-16
1.8088679632656115 3.119860275155312e-21 1.4979987274547139e-13 1.4864496599297685e-13 1.1549067524945214e-15
1.8639582606462262 3.3762155828045344e-21 1.6704588668386064e-13 1.6535534697643659e-13 1.6905397074240916e-15
1.9207263702978936 3.6772772658474385e-21 1.8748274728698855e-13 1.8504021451427972e-13 2.442532772708801e-15
1.979223391128241 4.032090383316489e-21 2.1183343406776468e-13 2.0834879464307738e-13 3.4846394246872942e-15
2.039501978296691 4.450899119815528e-21 2.409579807010655e-13 2.360474288174771e-13 4.9105518835883545e-15
2.1016163906111602 4.946329343593907e-21 2.759344403782037e-13 2.6909635165518866e-13 6.83808872301503e-15
2.1656225393682647 5.531646498524495e-21 3.1798498578314754e-13 3.0857220468810703e-13 9.412781095040572e-15
2.231578038680979 6.220202788874968e-21 3.6845635840249803e-13 3.5564448862946197e-13 1.2811869773036007e-14
2.299542257339062 7.027117894610781e-21 4.289316247868322e-13 4.1168324030807166e-13 1.72483844787605e-14
2.369576372248914 7.968977352312517e-21 5.01236554911386e-13 4.782611602363233e-13 2.297539467506261e-14
2.4417434235010123 9.06325310412898e-21 5.874265455088675e-13 5.571376383061432e-13 3.028890720272424e-14
2.5161083711144245 1.032898373011305e-20 6.898527009847163e-13 6.503208671541245e-13 3.9531833830591844e-14
2.5927381535095444 1.1786344530864479e-20 8.111613019609556e-13 7.600654746393436e-13 5.109582732161202e-14
2.6717017477616296 1.3454871110806454e-20 9.541945890238771e-13 8.887751287323718e-13 6.541946029150538e-14
2.753070231689431 1.535406012412089e-20 1.122044187919496e-12 1.0390565618935139e-12 8.298762602598179e-14
2.836916847834745 1.7507934056456096e-20 1.3184113760089071e-12 1.2140786395733692e-12 1.0433273643553822e-13
2.9233170693905177 1.9946263348544035e-20 1.5477717091983964e-12 1.417768561314526e-12 1.3000314788387053e-13
2.967498994190263 2.1268562040104832e-20 1.6753214224235487e-12 1.5309733998030418e-12 1.4434802262050688e-13
3.0123486681368425 2.267302431030417e-20 1.8129428969009624e-12 1.6528736881396678e-12 1.600692087612944e-13
3.0578761833420214 2.4276361291833297e-20 1.970484040170986e-12 1.7931555938785013e-12 1.7732844629248501e-13
3.1040917844459814 2.5997268271221687e-20 2.1420603539228165e-12 1.94600410433883e-12 1.9605624958398672e-13
3.127460860933648 2.7033124431413462e-20 2.244179339621263e-12 2.038117094971879e-12 2.060622446493847e-13
3.1510058709225794 2.8172725975230544e-20 2.3563918743919404e-12 2.1399153064042918e-12 2.1647656798764855e-13
3.162844764501044 2.891567690721669e-20 2.427619813165755e-12 2.205759754529268e-12 2.2186005863648764e-13
3.1747281389236908 2.971024197446783e-20 2.503699273463064e-12 2.276350433575378e-12 2.2734883988768602e-13
3.1986289994194426 3.1605433403249273e-20 2.6834595521103907e-12 2.4447836846809468e-12 2.3867586742944405e-13
3.2227097969389145 3.5004782091709875e-20 2.9944565158575396e-12 2.7437938579943223e-12 2.506626578632179e-13
3.2348180950136065 3.785669071565007e-20 3.25058812016053e-12 2.99353254751579e-12 2.570555726447399e-13
3.240889293275058 3.9890934341614017e-20 3.4316883294711113e-12 3.1712606328935757e-12 2.6042769657753534e-13
3.2469718861334385 4.221567005951645e-20 3.638493875843756e-12 3.3745770383141366e-12 2.6391683752961825e-13
3.2714166318528037 5.4105838015249534e-20 4.6983938387369165e-12 4.420070962251001e-12 2.783228764859142e-13
3.2744851364798273 5.489900238409705e-20 4.771741505546207e-12 4.491724547119904e-12 2.8001695842630105e-13
3.2775565192852394 5.571057706854613e-20 4.846824333998948e-12 4.565105157680588e-12 2.8171917631836056e-13
3.283707930232385 5.5232366507104e-20 4.814238552727546e-12 4.5294826333232865e-12 2.847559194042604e-13
3.2898708863219004 5.326704091296596e-20 4.651648164167899e-12 4.3641354131046575e-12 2.875127510632416e-13
3.29141343181113 5.280496752728778e-20 4.613458837134499e-12 4.325254002580868e-12 2.882048345536302e-13
3.292184975758714 5.25781377648026e-20 4.594717998986304e-12 4.3061666909903614e-12 2.885513079959433e-13
3.295272960557952 5.11155833611339e-20 4.47109759141225e-12 4.181199847396629e-12 2.8989774401562243e-13
3.3076538914384823 4.605198818789122e-20 4.043317792466804e-12 3.748015475200097e-12 2.9530231726670783e-13
3.310756385682612 4.502544621400158e-20 3.95689643876618e-12 3.660232544051348e-12 2.966638947148312e-13
3.313861789986515 4.4080310163283157e-20 3.877470177500903e-12 3.5794405279377306e-12 2.980296495631734e-13
3.3200813396944477 4.2829718916756557e-20 3.77453434137605e-12 3.4735639214965062e-12 3.0097041987954337e-13
3.345076488085796 4.118099746582638e-20 3.656556997313022e-12 3.342472758839694e-12 3.1408423847332817e-13
3.3482140837626964 4.140339636388968e-20 3.6797525940330816e-12 3.36389151126162e-12 3.15861082771461e-13
3.3513546224236106 4.162707518544702e-20 3.703102348170339e-12 3.385456779980738e-12 3.1764556818960057e-13
3.3576445397418455 4.260614783137169e-20 3.7973132108987e-12 3.475935485733553e-12 3.2137772516514793e-13
3.3702598118196083 4.576183076534806e-20 4.093890340985087e-12 3.764684847009942e-12 3.2920549397514584e-13
3.382922481734668 4.6883989905903386e-20 4.210038263942264e-12 3.873235546805111e-12 3.368027171371526e-13
3.389271646505754 4.745670668299495e-20 4.269464512139313e-12 3.92881321553561e-12 3.4065129660370355e-13
3.395632727569191 4.807152437503994e-20 4.332893733240558e-12 3.988276234248152e-12 3.4461749899240523e-13
3.421196662673239 5.087997337265175e-20 4.620557169925842e-12 4.259533525961343e-12 3.6102364396449827e-13
3.4276182099114902 5.0782087264690014e-20 4.620323898183708e-12 4.2556512461604985e-12 3.646726520232107e-13
3.4340518103208963 4.953374679222981e-20 4.515204823332991e-12 4.147086826016335e-12 3.6811799731665675e-13
3.4469541582030403 4.785454224614721e-20 4.378527755531917e-12 4.00380897165494e-12 3.747187838769761e-13
3.472904465399547 4.8190991358148726e-20 4.442507095907724e-12 4.052564463166471e-12 3.899426327412534e-13
3.4990501388274233 4.824118916327203e-20 4.480614742356697e-12 4.075120370666716e-12 4.0549437168998263e-13
3.5253949054701885 4.6042792782535617e-20 4.308626657027487e-12 3.888067388182342e-12 4.205592688451446e-13
3.5519380250092896 4.398801478809146e-20 4.147335555102549e-12 3.711669736285902e-12 4.3566581881664535e-13
3.578680990867387 4.381367050096111e-20 4.161999822130792e-12 3.709781213089476e-12 4.522186090413149e-13
3.605625307711299 4.438396537249604e-20 4.24791802212893e-12 3.7782873367158e-12 4.696306854131292e-13
3.660119384959845 4.618160359933912e-20 4.486768824341635e-12 3.980653734460289e-12 5.061150898813445e-13
3.715437065384467 4.8118660222076954e-20 4.745619010132776e-12 4.2011835004660844e-12 5.444355096666921e-13
3.8285932144167436 5.2500460979305326e-20 5.3354588541629675e-12 4.709158363758859e-12 6.263004904041079e-13
3.94519561050918 5.712975339577735e-20 5.982742674870106e-12 5.267913849331942e-12 7.148288255381641e-13
4.06534921144712 6.191435577467343e-20 6.681264247438029e-12 5.871524325043724e-12 8.097399223943046e-13
4.189162171576248 6.68034659365696e-20 7.428405478181892e-12 6.517373132364275e-12 9.110323458176187e-13
4.316745939156006 7.174948326724273e-20 8.221379577458443e-12 7.203258453085639e-12 1.0181211243728024e-12
4.448215356677963 7.669832600539271e-20 9.05609820546871e-12 7.926816678763026e-12 1.1292815267056833e-12
4.58368876423945 8.161310280016316e-20 9.929890134996751e-12 8.685429638553075e-12 1.2444604964436773e-12
4.723288106065518 8.646223018438085e-20 1.084027509496463e-11 9.47607184660216e-12 1.3642032483624718e-12
4.867139040275056 9.11843625470647e-20 1.1780495355876091e-11 1.0295549181634512e-11 1.4849461742415726e-12
4.940699165968905 9.349695704267531e-20 1.2261830842243933e-11 1.0715804021773548e-11 1.5460268204703834e-12
5.015371051989984 9.575893716959163e-20 1.2748286620116471e-11 1.1140931021600761e-11 1.6073555985157084e-12
5.091171501069577 9.800009846502507e-20 1.3243832274138943e-11 1.157350588944673e-11 1.6703263846922095e-12
5.129500256944802 9.909778195014639e-20 1.349299697454579e-11 1.1791178508189766e-11 1.7018184663560208e-12
5.168117569889187 1.00184040899518e-19 1.3743595444645224e-11 1.2009940684830487e-11 1.733654759814737e-12
5.20702561229733 1.012941136090487e-19 1.4000493857014643e-11 1.2231866083859284e-11 1.768627773155359e-12
5.246226572918644 1.0238791613203806e-19 1.4258215682773075e-11 1.245452626364099e-11 1.8036894191320908e-12
5.265937586045735 1.029285244604533e-19 1.4387352603828378e-11 1.2566104854023022e-11 1.8212477498053517e-12
5.285722656980489 1.0346483709136501e-19 1.4516655922622473e-11 1.2677834586900993e-11 1.838821335721479e-12
5.305582063971359 1.0399677987310642e-19 1.464611235914049e-11 1.2789704510693745e-11 1.8564078484467456e-12
5.3255160863122235 1.0452886061419825e-19 1.4776356156996376e-11 1.2902193923884362e-11 1.8741622331120135e-12
5.365609099470188 1.0561457983665803e-19 1.504223393655309e-11 1.3131321552867998e-11 1.9109123836850892e-12
5.406003951863644 1.0668297405447518e-19 1.5308791427891926e-11 1.3361050284132545e-11 1.947741143759384e-12
5.446702915881641 1.0773353264111877e-19 1.5575931253914275e-11 1.3591301437932417e-11 1.984629815981862e-12
5.487708281020852 1.08773658187555e-19 1.5844705973026257e-11 1.382296968243278e-11 2.0217362905934775e-12
5.529022354014368 1.0986416091036791e-19 1.6124038333859662e-11 1.406362323064021e-11 2.0604151032194506e-12
5.570647458961463 1.1093852557981037e-19 1.640429223609091e-11 1.4305126687468167e-11 2.0991655486227428e-12
5.612585937458331 1.1199652786384203e-19 1.6685414336761278e-11 1.4547445726072036e-11 2.137968610689243e-12
5.654840148729818 1.1304938694155715e-19 1.6969067505933036e-11 1.4792046879899667e-11 2.177020626033367e-12
5.67608639626678 1.1361944564412686e-19 1.711871242443688e-11 1.492122221466126e-11 2.197490209775618e-12
5.686739436050992 1.1390349994525828e-19 1.7193719270712807e-11 1.4985986431039634e-11 2.207732839673176e-12
5.6974124697621304 1.1418691549357273e-19 1.726885076591463e-11 1.505087047393054e-11 2.2179802919840936e-12
5.718818669136295 1.147518671380324e-19 1.7419493379149615e-11 1.5181004928737138e-11 2.238488450412478e-12
5.740305295436557 1.1532819231038661e-19 1.7572757205257853e-11 1.5313575275054297e-11 2.2591819302035545e-12
5.7835210386641895 1.1658457462374464e-19 1.789793165100756e-11 1.5596004250492772e-11 2.3019274005147897e-12
5.827062130521658 1.1787030961016483e-19 1.8231546358213423e-11 1.5886366293578706e-11 2.3451800646347152e-12
5.8489554468988025 1.1863364193098213e-19 1.841855729053439e-11 1.6049902635610633e-11 2.368654654923758e-12
5.870931020387893 1.194054160953589e-19 1.8608031695535527e-11 1.6215850042686547e-11 2.3921816528489802e-12
5.892989160043636 1.2018662909996143e-19 1.8800146342355043e-11 1.6384387744130246e-11 2.415758598224795e-12
5.915130176081913 1.210183549198835e-19 1.900137306362619e-11 1.656113639204169e-11 2.4402366715844975e-12
5.95966208400165 1.2309160218072408e-19 1.9472400498769993e-11 1.6975711409810467e-11 2.4966890889595285e-12
6.004529249263818 1.2572385412082197e-19 2.0038540367558158e-11 1.7477943378195955e-11 2.560596989362199e-12
6.027089341400364 1.2741977389269673e-19 2.0385149101898536e-11 1.778728939232422e-11 2.597859709574315e-12
6.049734195844842 1.2931284402554325e-19 2.076573895194832e-11 1.812833478682798e-11 2.6374041651203394e-12
6.095279466722835 1.3446708023577505e-19 2.175599902168381e-11 1.9020253703533457e-11 2.7357453181503452e-12
6.141167624020661 1.418337397069599e-19 2.3120644640414488e-11 2.0255854029009293e-11 2.8647906114051957e-12
6.164241091010745 1.4645741973513317e-19 2.3964061625912375e-11 2.101760121117319e-11 2.9464604147391894e-12
6.187401249150058 1.5142987786561866e-19 2.487077312294511e-11 2.1840583068850142e-11 3.030190054094972e-12
6.1990139391386085 1.538340539026405e-19 2.5313053141221104e-11 2.2240283324067486e-11 3.0727698171536147e-12
6.204828454712694 1.550755319852709e-19 2.554127021662036e-11 2.2447007967130905e-11 3.094262249489459e-12
6.210648424152782 1.5598350556322178e-19 2.571491272146743e-11 2.2602488546428646e-11 3.1124241750387876e-12
6.233982942956859 1.589807189295878e-19 2.6307495167007338e-11 2.3132383191571777e-11 3.1751119754355616e-12
6.239830258556775 1.5931741465421797e-19 2.638793824525367e-11 2.3204605661785594e-11 3.183332583468076e-12
6.245683058788269 1.5931553538971705e-19 2.6412377895529007e-11 2.3220816536041802e-11 3.1915613594872105e-12
6.257405133728602 1.5915316282841264e-19 2.6434979680304188e-11 2.3229294435383026e-11 3.20568524492116e-12
6.269149208991335 1.5846006932914896e-19 2.636925627680752e-11 2.3159733587806904e-11 3.2095226890006153e-12
6.280915325867298 1.568644984206995e-19 2.6152730401798107e-11 2.2952071768027695e-11 3.2006586337704076e-12
6.304513850009849 1.5297803128627548e-19 2.5600597629886055e-11 2.2429130659440287e-11 3.1714669704457648e-12
6.32820103803542 1.483651769492777e-19 2.4921930442796793e-11 2.1791848888054964e-11 3.1300815547418246e-12
6.3519772230701035 1.4421594179888673e-19 2.4315972056840883e-11 2.122336556317205e-11 3.0926064936688328e-12
6.375842739491607 1.4064460093124237e-19 2.3802912206775558e-11 2.074375452076655e-11 3.0591576860090073e-12
6.399797922933955 1.3800155459169236e-19 2.34433500803803e-11 2.0403225335629215e-11 3.040124744751091e-12
6.42384311029221 1.3575539978389401e-19 2.3148426299261077e-11 2.0124446411943663e-11 3.0239798873174134e-12
6.447978639727206 1.3423832900606838e-19 2.2975742782950663e-11 1.995670543306347e-11 3.019037349887197e-12
6.472204850670314 1.3296508879498348e-19 2.2843324837889097e-11 1.9827017302770022e-11 3.016307535119079e-12
6.496522083828205 1.3224244528102438e-19 2.2804535114076988e-11 1.978191583030991e-11 3.0226192837670776e-12
6.520930681187647 1.3164457188885212e-19 2.2786728255382092e-11 1.975646048490382e-11 3.0302677704782767e-12
