Dust emission spectrum from A.P. Jones, M. Kohler, N. Ysard, M. Bocchio, and L. Verstraete (2017), A&A, 602A, 46J 
inside the DustPedia framework.

lambda    nu*dP/dnu     j_nu    j_nu(carb.) j_nu(sil)
 (um)   (erg s-1 H-1) (Jy cm2 sr-1 H-1)
0.9927057738263894 7.028164417301276e-27 1.8519612431358412e-19 1.85196123424038e-19 8.895460611421896e-28
1.0001793341362166 7.143883959432674e-27 1.8966260070857924e-19 1.8966259963721258e-19 1.0713667284747391e-27
1.0077091589558085 7.259439748794125e-27 1.941814518860064e-19 1.9418145059732696e-19 1.2886793968742443e-27
1.0114953028030835 7.317142186581962e-27 1.964602976505896e-19 1.9646029623793305e-19 1.4126564936054065e-27
1.0152956718711033 7.374786873977916e-27 1.98751969952145e-19 1.9875196840408818e-19 1.5480568061591591e-27
1.0229392996569957 7.489824028051949e-27 2.033718836004174e-19 2.0337188174317536e-19 1.8572420486851783e-27
1.0267826658714554 7.54707670197587e-27 2.0569641620775759e-19 2.056964141744071e-19 2.0333504162636656e-27
1.0306404723013447 7.604246624415595e-27 2.0803328143326843e-19 2.0803327920783667e-19 2.2254318288864004e-27
1.03451277320114 7.661328359375831e-27 2.1038238135479128e-19 2.1038237891992759e-19 2.4348636949868683e-27
1.0383996230291617 7.718316502667517e-27 2.127436168632873e-19 2.127436142001518e-19 2.663135572759122e-27
1.0403485208654093 7.746773797587998e-27 2.1392875417277564e-19 2.1392875138794082e-19 2.78483476066334e-27
1.0423010764483396 7.7752056829723e-27 2.1511688768819108e-19 2.1511688477633328e-19 2.911857719606312e-27
1.0462171883269815 7.831990562884562e-27 2.1750209242283434e-19 2.175020892400641e-19 3.182770245177987e-27
1.0471985131304309 7.846169863760818e-27 2.181002462901863e-19 2.181002430360035e-19 3.25418269217517e-27
1.048180758391296 7.860342231778666e-27 2.1869913801234276e-19 2.1869913468521317e-19 3.327129587504298e-27
1.0501480137395462 7.888665839931086e-27 2.1989912854993284e-19 2.1989912507217993e-19 3.477752906866142e-27
1.0521189612883777 7.916960730154468e-27 2.211020510516006e-19 2.2110204741670194e-19 3.634898711987345e-27
1.0531058218030118 7.931075444404762e-27 2.2170399952455975e-19 2.217039958085534e-19 3.716006363985261e-27
1.0540936079674168 7.945111452135491e-27 2.2230468048424237e-19 2.223046766853783e-19 3.798864091916675e-27
1.058054026499678 8.001176673743883e-27 2.247145210747444e-19 2.247145169264025e-19 4.14834198616876e-27
1.0590464539527713 8.015172873854809e-27 2.253187520768953e-19 2.253187478364874e-19 4.240408036440866e-27
1.06003981227728 8.0291608712046e-27 2.25923688074002e-19 2.2592368373957294e-19 4.334429142822365e-27
1.0620293250338977 8.057111937579647e-27 2.2713566832891974e-19 2.271356638004245e-19 4.528495258329168e-27
1.0660195594769086 8.112912125595189e-27 2.295680146025594e-19 2.2956800966068208e-19 4.94187721852187e-27
1.070024785945596 8.168572160431371e-27 2.3201145129866747e-19 2.320114459074262e-19 5.391241269066805e-27
1.0740450607676866 8.224087006287294e-27 2.3446586889331707e-19 2.344658630137615e-19 5.87955553516195e-27
1.07808044048254 8.279451669767606e-27 2.3693115696150985e-19 2.3693115055149143e-19 6.4100184818919546e-27
1.0861967418109137 8.389612708276474e-27 2.418910733529298e-19 2.4189106574149173e-19 7.611438054031546e-27
1.0902777775684922 8.444176508519258e-27 2.4437900716048136e-19 2.443789988703799e-19 8.290101441148656e-27
1.0943741465085532 8.498566714695577e-27 2.468771787828208e-19 2.468771697564592e-19 9.02636163880423e-27
1.1026131145906286 8.606807428017993e-27 2.519037732240171e-19 2.519037625335027e-19 1.0690514449593692e-26
1.1109141095355224 8.714297496780141e-27 2.5696992511449494e-19 2.569699124692828e-19 1.2645212137544914e-26
1.1192775983109025 8.820900447550845e-27 2.620717238586684e-19 2.620717089205046e-19 1.4938163884474337e-26
1.1277040513999907 8.926121624746518e-27 2.6719441361166662e-19 2.671943959872796e-19 1.7624387042662376e-26
1.1361939428280308 9.030470706302165e-27 2.7235307992882493e-19 2.723530591615905e-19 2.0767234406255898e-26
1.1447477501889525 9.133913864229364e-27 2.7754674824056306e-19 2.775467238009974e-19 2.4439565553303393e-26
1.1533659546722406 9.236474342526506e-27 2.8277615756436263e-19 2.8277612883926137e-19 2.872510123192769e-26
1.1707974979042381 9.439281354201313e-27 2.933527405841339e-19 2.9335270104993217e-19 3.953420179987172e-26
1.1884924949847024 9.638133969696766e-27 3.0405968087312203e-19 3.040596267320398e-19 5.414108238478912e-26
1.2064549276569216 9.834593484525307e-27 3.149466169016481e-19 3.149465431191074e-19 7.378254070587139e-26
1.2246888378427687 1.0026527909548435e-26 3.259460779863426e-19 3.2594597792466845e-19 1.0006167413112328e-25
1.2431983285522175 1.021349779416347e-26 3.3704225364026288e-19 3.3704211859105814e-19 1.3504920472511109e-25
1.2619875648066055 1.039544617074387e-26 3.4823117039734775e-19 3.482309889911364e-19 1.8140621143456758e-25
1.3004222497298317 1.0741311638547305e-26 3.707755958817039e-19 3.7077527313018803e-19 3.227515156671557e-25
1.3400274889804893 1.1062882517312254e-26 3.9350607452682303e-19 3.9350551073666393e-19 5.6379015886368705e-25
1.3808389325824078 1.1359097836074375e-26 4.163478215207587e-19 4.163468541331067e-19 9.673876520111754e-25
1.4228933163050095 1.163152498374199e-26 4.393174259251822e-19 4.393157946377824e-19 1.6312873997988842e-24
1.466228494730424 1.1886787144269227e-26 4.626318987068035e-19 4.626291939803477e-19 2.7047264557564144e-24
1.5108834753276823 1.2120219090781113e-26 4.860834949367712e-19 4.860790836031981e-19 4.411333573068178e-24
1.5568984535646726 1.2328117135562321e-26 5.094792167731632e-19 5.094721320577016e-19 7.084715461578407e-24
1.6043148490894465 1.2511119853904192e-26 5.327889644960332e-19 5.327777396979147e-19 1.1224798118553047e-23
1.6531753430134553 1.2670080154640562e-26 5.559909398631761e-19 5.559734156471379e-19 1.752421603847338e-23
1.7035239163302658 1.2807126535872664e-26 5.791210734503587e-19 5.790941080474299e-19 2.696540292852397e-23
1.755405889504358 1.2932827345530832e-26 6.026157301140991e-19 6.025748133542132e-19 4.0916759885884184e-23
1.8088679632656115 1.3045218823932488e-26 6.263652687666059e-19 6.263040230039126e-19 6.124576269361815e-23
1.8639582606462262 1.3143222890683098e-26 6.502906191298395e-19 6.502001491716833e-19 9.046995815632936e-23
1.9207263702978936 1.3228788828955964e-26 6.744581639156127e-19 6.743262317134472e-19 1.3193220216549342e-22
1.979223391128241 1.3305617303103916e-26 6.990355715661383e-19 6.988455584244148e-19 1.900131417236046e-22
2.039501978296691 1.3378091150634397e-26 7.24248683808691e-19 7.239783136194953e-19 2.7037018919579624e-22
2.1016163906111602 1.345692069947874e-26 7.507037288638309e-19 7.503234898352696e-19 3.8023902856161433e-22
2.1656225393682647 1.354894961708139e-26 7.788571725458985e-19 7.783284497866474e-19 5.287227592513592e-22
2.231578038680979 1.365599486529621e-26 8.08918665389736e-19 8.081915401856834e-19 7.27125204052323e-22
2.299542257339062 1.37830078187064e-26 8.413076351915684e-19 8.403183203114128e-19 9.893148801556672e-22
2.369576372248914 1.393914065070429e-26 8.76750745960744e-19 8.754186175508145e-19 1.332128409929684e-21
2.4417434235010123 1.4135066926401968e-26 9.16151567181786e-19 9.14375839674093e-19 1.7757275076933587e-21
2.5161083711144245 1.4387861513077072e-26 9.60937240829755e-19 9.585931885525614e-19 2.3440522771940567e-21
2.5927381535095444 1.4724222199791357e-26 1.0133522924489926e-18 1.0102871020896811e-18 3.065190359311297e-21
2.6717017477616296 1.5175617669921897e-26 1.0762267543465663e-18 1.0722552016722364e-18 3.971552674330276e-21
2.753070231689431 1.5788207069287366e-26 1.1537707835293289e-18 1.1486706187128937e-18 5.100164816434843e-21
2.836916847834745 1.6663351845086484e-26 1.2548112509539558e-18 1.248318160864016e-18 6.4930900899396785e-21
2.9233170693905177 1.8020554392548287e-26 1.3983423253505308e-18 1.3901461781439241e-18 8.196147206606353e-21
2.967498994190263 1.9093043790024367e-26 1.5039561781554776e-18 1.4947917871792443e-18 9.164390976232879e-21
3.0123486681368425 2.0331137989440678e-26 1.6256848534810798e-18 1.6154514821322754e-18 1.0233371348804269e-20
3.0578761833420214 2.2923719134231306e-26 1.86069164782783e-18 1.8492766398767075e-18 1.1415007951123098e-20
3.1040917844459814 2.62264047391911e-26 2.1609401892406883e-18 2.14823118719467e-18 1.2709002046017734e-20
3.127460860933648 2.962785187104956e-26 2.459582991047257e-18 2.4461779261613667e-18 1.3405064885890735e-20
3.1510058709225794 3.413150077387856e-26 2.854789101881061e-18 2.8406561158541264e-18 1.4132986026935353e-20
3.162844764501044 3.8285790926254655e-26 3.2142890831686194e-18 3.199778479737013e-18 1.451060343160523e-20
3.1747281389236908 4.31082292631953e-26 3.6327554107197586e-18 3.617858868138095e-18 1.4896542581663712e-20
3.1986289994194426 5.652006508382891e-26 4.798836535477123e-18 4.783140670825083e-18 1.5695864652040888e-20
3.2227097969389145 8.800470421816133e-26 7.528293113831417e-18 7.51174775182145e-18 1.6545362009970055e-20
3.2348180950136065 1.1781585039628682e-25 1.011633073110796e-17 1.0099331375016839e-17 1.6999356091122363e-20
3.240889293275058 1.4009169100218952e-25 1.2051636017123068e-17 1.2034397171931909e-17 1.723884519115668e-20
3.2469718861334385 1.658588053937938e-25 1.4295076847750792e-17 1.427759018291602e-17 1.7486664834769878e-20
3.2714166318528037 3.032293343453162e-25 2.6331554754050492e-17 2.6313041909951195e-17 1.8512844099292774e-20
3.2744851364798273 3.1182332599899953e-25 2.710323034026413e-17 2.7084595992157993e-17 1.8634348106134355e-20
3.2775565192852394 3.2066352479807966e-25 2.7897750423674925e-17 2.787899390982237e-17 1.8756513852550376e-20
3.283707930232385 3.1220094745232845e-25 2.721248305067191e-17 2.719350691786217e-17 1.897613280973907e-20
3.2898708863219004 2.8530525026866116e-25 2.4914837034182534e-17 2.4895659975464642e-17 1.91770587178958e-20
3.29141343181113 2.789626420178736e-25 2.4372378704383784e-17 2.4353151163326746e-17 1.922754105703735e-20
3.292184975758714 2.7584611997619926e-25 2.41057440656188e-17 2.4086491245686352e-17 1.925281993245301e-20
3.295272960557952 2.5617193765806956e-25 2.240744716456262e-17 2.2388095815053068e-17 1.9351349509556382e-20
3.3076538914384823 1.880109625117261e-25 1.6507171564470112e-17 1.6487423914243256e-17 1.9747650226855958e-20
3.310756385682612 1.7413783989936197e-25 1.5303466294975837e-17 1.5283618637461378e-17 1.9847657514457503e-20
3.313861789986515 1.613375210638615e-25 1.4191856275959848e-17 1.417190823691902e-17 1.9948039040824763e-20
3.3200813396944477 1.4339642134232368e-25 1.2637363271960945e-17 1.2617199805130049e-17 2.016346683089522e-20
3.345076488085796 1.1146985115593154e-25 9.897668568419248e-18 9.876546242976627e-18 2.112232544262268e-20
3.3482140837626964 1.126880641668969e-25 1.001522176563172e-17 9.993969587915723e-18 2.1252177715993687e-20
3.3513546224236106 1.1391960350416365e-25 1.0134172275125032e-17 1.0112789598350215e-17 2.1382676774814745e-20
3.3576445397418455 1.2283441033453375e-25 1.0947732964791243e-17 1.0926077626737574e-17 2.1655338053672393e-20
3.3702598118196083 1.5565454926298456e-25 1.392498169545803e-17 1.3902754294654978e-17 2.2227400803049996e-20
3.382922481734668 1.6318465760258364e-25 1.4653480942514425e-17 1.46306954015865e-17 2.278554092792756e-20
3.389271646505754 1.6708469949312533e-25 1.5031852078833307e-17 1.500878321277063e-17 2.306886606267744e-20
3.395632727569191 1.712874587906042e-25 1.543887709876462e-17 1.5415516226827808e-17 2.3360871936812397e-20
3.421196662673239 1.9145142203001615e-25 1.7386255969009077e-17 1.7361683908418047e-17 2.4572060591028367e-20
3.4276182099114902 1.874541738599122e-25 1.705520678551264e-17 1.7030362129110832e-17 2.4844656401805388e-20
3.4340518103208963 1.6982097020210845e-25 1.5479880150716354e-17 1.545477655064703e-17 2.5103600069327256e-20
3.4469541582030403 1.4472074462572377e-25 1.3241455615344318e-17 1.3215852722363454e-17 2.560289298086568e-20
3.472904465399547 1.3779865443851452e-25 1.2703027742261283e-17 1.2676277815181055e-17 2.6749927080225506e-20
3.4990501388274233 1.2714910589016e-25 1.1809538036070306e-17 1.1781608943483926e-17 2.7929092586383515e-20
3.5253949054701885 8.89170851428984e-26 8.320749028438419e-18 8.291665894457401e-18 2.9083133981016097e-20
3.5519380250092896 5.298211902825096e-26 4.995329457105383e-18 4.965079442553107e-18 3.0250014552276374e-20
3.578680990867387 3.8826415559031507e-26 3.688244623264799e-18 3.656714348120164e-18 3.1530275144636166e-20
3.605625307711299 3.319546475862413e-26 3.1770846029112936e-18 3.1442015279315496e-18 3.288307497974493e-20
3.660119384959845 2.9296540897396146e-26 2.846302339344661e-18 2.8105575674983813e-18 3.5744771846279384e-20
3.715437065384467 2.6643148916667706e-26 2.6276341320643545e-18 2.5888437105650258e-18 3.8790421499328363e-20
3.8285932144167436 2.585003661353788e-26 2.6270589659108655e-18 2.5816204412179143e-18 4.543852469294988e-20
3.94519561050918 2.6355675437456564e-26 2.760019338300728e-18 2.70717395444209e-18 5.284538385863815e-20
4.06534921144712 2.744421769644499e-26 2.9615437033937416e-18 2.900498810272543e-18 6.104489312119907e-20
4.189162171576248 2.891095946052518e-26 3.2148381319013936e-18 3.1447415809509155e-18 7.009655095047766e-20
4.316745939156006 3.0684283824984434e-26 3.515943709978441e-18 3.435924113375873e-18 8.001959660256751e-20
4.448215356677963 3.274517105574123e-26 3.866361891846427e-18 3.775622191877045e-18 9.073969996938177e-20
4.58368876423945 3.5106691624652973e-26 4.271441458237484e-18 4.169117764192701e-18 1.023236940447826e-19
4.723288106065518 3.7805474623593947e-26 4.7398932937713636e-18 4.624995011135536e-18 1.1489828263582808e-19
4.867139040275056 4.0902112974416015e-26 5.284317820305233e-18 5.156076770140341e-18 1.2824105016489176e-19
4.940699165968905 4.266823741800068e-26 5.595804677551428e-18 5.4605491436180684e-18 1.3525553393335838e-19
5.015371051989984 4.450597181782976e-26 5.925033232518902e-18 5.782542644617812e-18 1.4249058790108893e-19
5.091171501069577 4.660400191137518e-26 6.29811188238938e-18 6.148023604088432e-18 1.5008827830094812e-19
5.129500256944802 4.7684310907006747e-26 6.492620219544607e-18 6.338649265074992e-18 1.539709544696102e-19
5.168117569889187 4.8801928955914216e-26 6.69481848073099e-18 6.536879256480368e-18 1.5793922425062395e-19
5.20702561229733 5.0080875900989765e-26 6.921991519782497e-18 6.759764269773804e-18 1.6222725000869331e-19
5.246226572918644 5.13911595569247e-26 7.156569494055312e-18 6.989983474062281e-18 1.6658601999303283e-19
5.265937586045735 5.205833367602331e-26 7.276715628547368e-18 7.107923699164656e-18 1.6879192938271232e-19
5.285722656980489 5.27336834102744e-26 7.39881064059924e-18 7.227795123959256e-18 1.7101551663998326e-19
5.305582063971359 5.341732702718222e-26 7.522888444427501e-18 7.349631668027193e-18 1.732567764003074e-19
5.3255160863122235 5.413604365976105e-26 7.652752142776912e-18 7.477222754504275e-18 1.7552938827263794e-19
5.365609099470188 5.581055859635034e-26 7.948859710793605e-18 7.768625102004324e-18 1.8023460878928112e-19
5.406003951863644 5.754056840351644e-26 8.256955415228514e-18 8.071937568257799e-18 1.8501784697071342e-19
5.446702915881641 5.932843346922894e-26 8.577604191236147e-18 8.387724990055657e-18 1.8987920118049046e-19
5.487708281020852 6.122889259485092e-26 8.919014183991239e-18 8.724179109677282e-18 1.9483507431395353e-19
5.529022354014368 6.366851913411356e-26 9.34420865432236e-18 9.144195089805598e-18 2.0001356451676462e-19
5.570647458961463 6.623000467555348e-26 9.793318829659747e-18 9.588039774662792e-18 2.0527905499695518e-19
5.612585937458331 6.892140659891883e-26 1.0268016765425319e-17 1.0057384960578662e-17 2.106318048466549e-19
5.654840148729818 7.183344335452344e-26 1.0782425119179818e-17 1.0566332241674645e-17 2.160928775051752e-19
5.67608639626678 7.371364730599236e-26 1.1106221499619487e-17 1.0887274238544884e-17 2.1894726107460196e-19
5.686739436050992 7.467896585976365e-26 1.1272780687485578e-17 1.1052397012444536e-17 2.2038367504104336e-19
5.6974124697621304 7.566160611294826e-26 1.1442545575613362e-17 1.1220719328436435e-17 2.2182624717692816e-19
5.718818669136295 7.768044176495683e-26 1.1791999335282319e-17 1.1567269439409066e-17 2.2472989587325387e-19
5.740305295436557 7.987702265397465e-26 1.2171000839061638e-17 1.1943324618952046e-17 2.2767622010959215e-19
5.7835210386641895 8.539906354090152e-26 1.3110367364189924e-17 1.2876582695141192e-17 2.337846690487298e-19
5.827062130521658 9.166958607967381e-26 1.417895917790719e-17 1.3938913804191915e-17 2.400453737152811e-19
5.8489554468988025 9.594643461120617e-26 1.4896237474839715e-17 1.4652829419643852e-17 2.4340805519586524e-19
5.870931020387893 1.0051002435546854e-25 1.5663390992515472e-17 1.5416587161243354e-17 2.468038312721168e-19
5.892989160043636 1.0538300647800764e-25 1.6484495476914322e-17 1.623426261251518e-17 2.5023286439913916e-19
5.915130176081913 1.1088030075256875e-25 1.7409573625434135e-17 1.715579009585506e-17 2.5378352957906953e-19
5.95966208400165 1.2599682167724316e-25 1.993198991487001e-17 1.9670232630585328e-17 2.617572842846846e-19
6.004529249263818 1.4747929382216266e-25 2.3506038717158085e-17 2.3235365474288086e-17 2.706732428700018e-19
6.027089341400364 1.6228131381131514e-25 2.5962444269297647e-17 2.5686678547056076e-17 2.7576572224156764e-19
6.049734195844842 1.7969338562667753e-25 2.885611220938184e-17 2.857496190195527e-17 2.8115030742658104e-19
6.095279466722835 2.2968087552052552e-25 3.716104264599474e-17 3.6866866213743594e-17 2.9417643225113056e-19
6.141167624020661 3.0616744984130316e-25 4.9909061291537924e-17 4.9598236178225076e-17 3.1082511331284997e-19
6.164241091010745 3.5495141309961473e-25 5.807884334646211e-17 5.775769565206927e-17 3.2114769439282623e-19
6.187401249150058 4.103750849334331e-25 6.739981420143538e-17 6.706802935381632e-17 3.317848476190514e-19
6.1990139391386085 4.374514217349389e-25 7.198166338441119e-17 7.164445787317896e-17 3.372055112322252e-19
6.204828454712694 4.5170040848098975e-25 7.439601878049039e-17 7.405607140423697e-17 3.3994737625341774e-19
6.210648424152782 4.621372777452637e-25 7.618638726989871e-17 7.584407294101239e-17 3.423143288862872e-19
6.233982942956859 4.976484851721196e-25 8.234888612079069e-17 8.199818670150455e-17 3.5069941928612713e-19
6.239830258556775 5.022322626967716e-25 8.318534393481352e-17 8.28333820582464e-17 3.51961876567117e-19
6.245683058788269 5.027206777996587e-25 8.334434231702737e-17 8.299111445892345e-17 3.5322785810391106e-19
6.257405133728602 5.019549888859713e-25 8.337358614691068e-17 8.301808387782768e-17 3.5550226908303016e-19
6.269149208991335 4.952522034956855e-25 8.241465708628882e-17 8.205803823341392e-17 3.5661885287487854e-19
6.280915325867298 4.781402902515321e-25 7.971640639585104e-17 7.936010737232836e-17 3.562990235226693e-19
6.304513850009849 4.358338393667787e-25 7.293600696323189e-17 7.258165190684327e-17 3.543550563886161e-19
6.32820103803542 3.83341004082426e-25 6.439245405193857e-17 6.40414306994553e-17 3.510233524832695e-19
6.3519772230701035 3.3524388666962486e-25 5.652482574952235e-17 5.61766941364142e-17 3.481316131081531e-19
6.375842739491607 2.947832178288616e-25 4.988957277813656e-17 4.9543885968133314e-17 3.4568681000323964e-19
6.399797922933955 2.6252634557567176e-25 4.45973021308549e-17 4.425239124636761e-17 3.44910884487282e-19
6.42384311029221 2.3573639509984465e-25 4.019675516928979e-17 3.985228772134037e-17 3.4446744794940816e-19
6.447978639727206 2.1637717050114516e-25 3.703432730686206e-17 3.668898937778429e-17 3.4533792907776797e-19
6.472204850670314 2.0030588468616294e-25 3.44124343637441e-17 3.4065958026971144e-17 3.464763367729667e-19
6.496522083828205 1.9005610170316884e-25 3.2774205254025286e-17 3.2425514307740485e-17 3.4869094628480667e-19
6.520930681187647 1.814919697267837e-25 3.1414954185805397e-17 3.106387177400501e-17 3.510824118003882e-19
6.57002334288761 1.7324105906177653e-25 3.021253563387443e-17 2.9855135829299253e-17 3.573998045751646e-19
