Dust emission spectrum from A.P. Jones, M. Kohler, N. Ysard, M. Bocchio, and L. Verstraete (2017), A&A, 602A, 46J 
inside the DustPedia framework.

lambda    nu*dP/dnu     j_nu    j_nu(carb.) j_nu(sil)
 (um)   (erg s-1 H-1) (Jy cm2 sr-1 H-1)
0.9927057738263894 4.0741143440841755e-26 1.073552270173684e-18 1.073552270173684e-18 8.976611718689829e-40
1.0001793341362166 4.141058438912541e-26 1.0994074339258084e-18 1.0994074339258084e-18 1.2291833967350758e-39
1.0077091589558085 4.2078951780081403e-26 1.1255623344562847e-18 1.1255623344562847e-18 1.6810264980618478e-39
1.0114953028030835 4.241265016198277e-26 1.1387508486924392e-18 1.1387508486924392e-18 1.964932800300492e-39
1.0152956718711033 4.274598115066383e-26 1.152012675947215e-18 1.152012675947215e-18 2.2960589248294296e-39
1.0229392996569957 4.341108131333781e-26 1.1787451003866443e-18 1.1787451003866443e-18 3.132113423194046e-39
1.0267826658714554 4.374203959687896e-26 1.1921941617924999e-18 1.1921941617924999e-18 3.656404159436243e-39
1.0306404723013447 4.407248352535989e-26 1.2057135731574071e-18 1.2057135731574071e-18 4.2670777425531385e-39
1.03451277320114 4.440238106493229e-26 1.2193027407357332e-18 1.2193027407357332e-18 4.978124950184205e-39
1.0383996230291617 4.473170036455343e-26 1.2329610635571862e-18 1.2329610635571862e-18 5.805760128601692e-39
1.0403485208654093 4.4896133272423933e-26 1.2398159684403058e-18 1.2398159684403058e-18 6.269057303036299e-39
1.0423010764483396 4.506040976209771e-26 1.2466879335687888e-18 1.2466879335687888e-18 6.768767205135413e-39
1.0462171883269815 4.5388477790334655e-26 1.260482735777096e-18 1.260482735777096e-18 7.88889828067857e-39
1.0471985131304309 4.547039091490421e-26 1.2639419780160354e-18 1.2639419780160354e-18 8.19634983097939e-39
1.048180758391296 4.5552261512184936e-26 1.2674054174067906e-18 1.2674054174067906e-18 8.515606027241003e-39
1.0501480137395462 4.5715873182768834e-26 1.2743448483904762e-18 1.2743448483904762e-18 9.191332581411827e-39
1.0521189612883777 4.5879308926075734e-26 1.2813009499653577e-18 1.2813009499653577e-18 9.91984746248962e-39
1.0531058218030118 4.5960833315222826e-26 1.2847816968700238e-18 1.2847816968700238e-18 1.0305151264032801e-38
1.0540936079674168 4.6041898475889794e-26 1.2882549969540768e-18 1.2882549969540768e-18 1.0705180271771512e-38
1.058054026499678 4.6365678226763e-26 1.3021886157348794e-18 1.3021886157348794e-18 1.2464091654607602e-38
1.0590464539527713 4.644650056411674e-26 1.3056820745043326e-18 1.3056820745043326e-18 1.294655627008359e-38
1.06003981227728 4.652727291346265e-26 1.3091795346053463e-18 1.3091795346053463e-18 1.3447410011467615e-38
1.0620293250338977 4.6688665759579195e-26 1.3161864180173236e-18 1.3161864180173236e-18 1.4507066764400408e-38
1.0660195594769086 4.7010830872488354e-26 1.3302477508866285e-18 1.3302477508866285e-18 1.6879121996559695e-38
1.070024785945596 4.7332143597345337e-26 1.3443719555165318e-18 1.3443719555165318e-18 1.9632259204954579e-38
1.0740450607676866 4.7652574204641885e-26 1.3585583673121373e-18 1.3585583673121373e-18 2.2826524500659453e-38
1.07808044048254 4.797209320830194e-26 1.3728063160524982e-18 1.3728063160524982e-18 2.653122336779768e-38
1.0861967418109137 4.860771127417618e-26 1.4014677270788165e-18 1.4014677270788165e-18 3.580394089483681e-38
1.0902777775684922 4.8922460099346195e-26 1.4158422925982853e-18 1.4158422925982853e-18 4.1570265807972015e-38
1.0943741465085532 4.92361594538576e-26 1.4302746037223863e-18 1.4302746037223863e-18 4.824787597276014e-38
1.1026131145906286 4.98602978843957e-26 1.4593096541542018e-18 1.4593096541542018e-18 6.492242055644938e-38
1.1109141095355224 5.0479905594777576e-26 1.4885672155752939e-18 1.4885672155752939e-18 8.723107714878395e-38
1.1192775983109025 5.109418667957101e-26 1.5180243402463141e-18 1.5180243402463141e-18 1.170301458721642e-37
1.1277040513999907 5.170026800235384e-26 1.5475951788688773e-18 1.5475951788688773e-18 1.5676918105396603e-37
1.1361939428280308 5.230110113312717e-26 1.577366943600771e-18 1.577366943600771e-18 2.0968013147238065e-37
1.1447477501889525 5.289648528560322e-26 1.607333690967824e-18 1.607333690967824e-18 2.8001367701305364e-37
1.1533659546722406 5.348655187286951e-26 1.637499446118729e-18 1.637499446118729e-18 3.7335290288001856e-37
1.1707974979042381 5.465266139473195e-26 1.6984882003994325e-18 1.6984882003994325e-18 6.605906081172513e-37
1.1884924949847024 5.579498102350445e-26 1.7601959235748636e-18 1.7601959235748636e-18 1.1612670794680495e-36
1.2064549276569216 5.692253496461765e-26 1.822908068420017e-18 1.822908068420017e-18 2.0281178316495016e-36
1.2246888378427687 5.802290207785561e-26 1.8862299627822412e-18 1.8862299627822412e-18 3.518446880090548e-36
1.2431983285522175 5.909350089911611e-26 1.950067167969882e-18 1.950067167969882e-18 6.06278439121225e-36
1.2619875648066055 6.013393756914539e-26 2.014392755862454e-18 2.014392755862454e-18 1.0376044889262245e-35
1.3004222497298317 6.210691873549826e-26 2.143847099630868e-18 2.143847099630868e-18 2.977010627303147e-35
1.3400274889804893 6.393418041714947e-26 2.2741350027600636e-18 2.2741350027600636e-18 8.30851189231946e-35
1.3808389325824078 6.560901394105565e-26 2.4047834097997248e-18 2.4047834097997248e-18 2.255749773567097e-34
1.4228933163050095 6.713984704626822e-26 2.5358415876340158e-18 2.5358415876340146e-18 5.9591762192827106e-34
1.466228494730424 6.856425096927966e-26 2.6685099366501462e-18 2.668509936650145e-18 1.5325097559592174e-33
1.5108834753276823 6.985418226684995e-26 2.801514130882956e-18 2.801514130882952e-18 3.837678035698609e-33
1.5568984535646726 7.09870148660319e-26 2.9336522631410867e-18 2.933652263141077e-18 9.361373802417847e-33
1.6043148490894465 7.19650339363059e-26 3.064647798005176e-18 3.0646477980051524e-18 2.22553193324124e-32
1.6531753430134553 7.279145139864084e-26 3.1942487326973945e-18 3.1942487326973433e-18 5.158951442896551e-32
1.7035239163302658 7.347655267872397e-26 3.3225110989219267e-18 3.322511098921809e-18 1.1667074943823243e-31
1.755405889504358 7.407897325691587e-26 3.451770704319015e-18 3.451770704318758e-18 2.576090371495377e-31
1.8088679632656115 7.458436614913195e-26 3.581163120321282e-18 3.5811631203207255e-18 5.556032260716126e-31
1.8639582606462262 7.498306981240739e-26 3.709956629216999e-18 3.709956629215828e-18 1.1711000336250956e-30
1.9207263702978936 7.528227451940051e-26 3.838200556698522e-18 3.8382005566961095e-18 2.4137010340144865e-30
1.979223391128241 7.549857758977696e-26 3.966459438570251e-18 3.966459438565383e-18 4.8674342817111045e-30
2.039501978296691 7.565180831110986e-26 4.0955560834604206e-18 4.095556083450811e-18 9.609598844874471e-30
2.1016163906111602 7.579729016880035e-26 4.228404821445988e-18 4.2284048214274016e-18 1.8586800584339246e-29
2.1656225393682647 7.596710942314905e-26 4.36694575771433e-18 4.366945757679087e-18 3.524319295351061e-29
2.231578038680979 7.616361514397828e-26 4.511584144637712e-18 4.511584144572169e-18 6.55423259308044e-29
2.299542257339062 7.640603520170083e-26 4.6637846858552915e-18 4.66378468573568e-18 1.1961131125856965e-28
2.369576372248914 7.673683067000604e-26 4.82662993498037e-18 4.8266299347660436e-18 2.1432813562664963e-28
2.4417434235010123 7.720614700953528e-26 5.0040465281941084e-18 5.0040465278168095e-18 3.772985388759084e-28
2.5161083711144245 7.789981098484428e-26 5.202776615614394e-18 5.20277661496147e-18 6.529238078500701e-28
2.5927381535095444 7.895830138775977e-26 5.434078257817828e-18 5.4340782567063504e-18 1.1114792949777132e-27
2.6717017477616296 8.054949219017688e-26 5.7124210974237266e-18 5.712421095561559e-18 1.8621696219382673e-27
2.753070231689431 8.292614010849415e-26 6.060077450729736e-18 6.060077447657998e-18 3.0717381491318963e-27
2.836916847834745 8.666074819090803e-26 6.525870836611063e-18 6.525870831618871e-18 4.992192806079881e-27
2.9233170693905177 9.301414220584723e-26 7.217625444220132e-18 7.217625436221485e-18 7.998646925439216e-27
2.967498994190263 9.84174414237972e-26 7.752327009531554e-18 7.752326999457454e-18 1.0074098437128234e-26
3.0123486681368425 1.0473021008621406e-25 8.374263965326296e-18 8.374263952680642e-18 1.2645653514445454e-26
3.0578761833420214 1.1886672843954014e-25 9.648274240186361e-18 9.648274224343407e-18 1.5842953337643424e-26
3.1040917844459814 1.3709056000199625e-25 1.129565808275415e-17 1.1295658062966584e-17 1.978756477783009e-26
3.127460860933648 1.5637164741341735e-25 1.2981334115413727e-17 1.2981334093287237e-17 2.2126492389813377e-26
3.1510058709225794 1.8206562627937932e-25 1.5228131021045023e-17 1.522813099630405e-17 2.4740973185889676e-26
3.162844764501044 2.059800797431788e-25 1.7293087217239047e-17 1.729308719102278e-17 2.6216268033409095e-26
3.1747281389236908 2.337952861369207e-25 1.9702063973195984e-17 1.9702063945422265e-17 2.777371322290896e-26
3.1986289994194426 3.113916929354391e-25 2.643871394497388e-17 2.6438713913751868e-17 3.1222003778124676e-26
3.2227097969389145 4.943029010350387e-25 4.2284752378510097e-17 4.228475234288913e-17 3.562095360465692e-26
3.2348180950136065 6.677644117389375e-25 5.733800347654876e-17 5.733800343808784e-17 3.846092358119838e-26
3.240889293275058 7.974466716545136e-25 6.860176332439475e-17 6.860176328418688e-17 4.020787640288469e-26
3.2469718861334385 9.474656891547734e-25 8.166039062513018e-17 8.166039058293972e-17 4.2190454391385e-26
3.2714166318528037 1.747728139687862e-24 1.5176763588768733e-16 1.5176763583637006e-16 5.131723737545595e-26
3.2744851364798273 1.797746937682915e-24 1.5625755125734506e-16 1.5625755120506574e-16 5.227929835064253e-26
3.2775565192852394 1.849202552345897e-24 1.608807591092676e-16 1.608807590560089e-16 5.325864251569218e-26
3.283707930232385 1.7996878821365073e-24 1.5686683973506328e-16 1.5686683968068713e-16 5.437618678785146e-26
3.2898708863219004 1.6427118564634184e-24 1.4345301447963283e-16 1.4345301442480887e-16 5.482397022188261e-26
3.29141343181113 1.6056937604201972e-24 1.402860832158298e-16 1.4028608316089351e-16 5.49362987703247e-26
3.292184975758714 1.5875044923450709e-24 1.3872943726303724e-16 1.3872943720804474e-16 5.499252063297176e-26
3.295272960557952 1.4726902311151551e-24 1.2881671913465678e-16 1.288167190795857e-16 5.507107773181837e-26
3.3076538914384823 1.0749656161721847e-24 9.438088936411814e-17 9.438088930881236e-17 5.530576484267315e-26
3.310756385682612 9.940250362765934e-25 8.735624978357569e-17 8.735624972821128e-17 5.53644338362579e-26
3.313861789986515 9.193471599330526e-25 8.086924030720249e-17 8.086924025177938e-17 5.542310868409529e-26
3.3200813396944477 8.146168944004306e-25 7.179125898434412e-17 7.179125892839786e-17 5.59462517228161e-26
3.345076488085796 6.277663977491915e-25 5.574084542931875e-17 5.574084536879123e-17 6.052752756340742e-26
3.3482140837626964 6.347669185274251e-25 5.64153045447946e-17 5.641530448339883e-17 6.139578036661034e-26
3.3513546224236106 6.418448531264903e-25 5.709786652521521e-17 5.70978664629395e-17 6.22757083243777e-26
3.3576445397418455 6.935937248938665e-25 6.181719654543863e-17 6.181719648098678e-17 6.445186210796066e-26
3.3702598118196083 8.844865950820605e-25 7.912688517433913e-17 7.912688510462408e-17 6.971505019284632e-26
3.382922481734668 9.279361429878298e-25 8.332581498107221e-17 8.332581490704643e-17 7.402577013126576e-26
3.389271646505754 9.50445967023131e-25 8.550730993655838e-17 8.550730986028412e-17 7.627424812481949e-26
3.395632727569191 9.746979939555842e-25 8.78537322191748e-17 8.785373214047161e-17 7.870320102379927e-26
3.421196662673239 1.0911352916655154e-24 9.908914374499532e-17 9.908914365562002e-17 8.937532161946318e-26
3.4276182099114902 1.0676348268804303e-24 9.713698216967115e-17 9.713698207840065e-17 9.127048190342312e-26
3.4340518103208963 9.647200324830193e-25 8.793820023557321e-17 8.793820014287798e-17 9.269525811665654e-26
3.4469541582030403 8.181572948064354e-25 7.485860809773603e-17 7.485860800287238e-17 9.486364774662789e-26
3.472904465399547 7.770608200996069e-25 7.163368318341629e-17 7.163368307963962e-17 1.0377666912578072e-25
3.4990501388274233 7.142194878561546e-25 6.633630766720683e-17 6.633630755408376e-17 1.131230623340438e-25
3.5253949054701885 4.906513409965637e-25 4.591453557365327e-17 4.5914535453399716e-17 1.2025356103758555e-25
3.5519380250092896 2.8056788335077515e-25 2.6452868215265522e-17 2.6452868088287765e-17 1.2697775503287248e-25
3.578680990867387 1.972725817532646e-25 1.8739549569360063e-17 1.8739549432029012e-17 1.3733105159565622e-25
3.605625307711299 1.6357827584661017e-25 1.5655813989711465e-17 1.5655813839712476e-17 1.499989899426947e-25
3.660119384959845 1.389902080797786e-25 1.3503578998933499e-17 1.3503578818828846e-17 1.801046508758848e-25
3.715437065384467 1.2158554577018022e-25 1.1991162569809202e-17 1.199116235409401e-17 2.157151889324663e-25
3.8285932144167436 1.127481142620012e-25 1.1458240809856828e-17 1.1458240501088908e-17 3.0876791963680575e-25
3.94519561050918 1.11061757757453e-25 1.1630610639581582e-17 1.1630610201613092e-17 4.3796849294609725e-25
4.06534921144712 1.1232714195626574e-25 1.2121378122717829e-17 1.2121377507262577e-17 6.154552505247572e-25
4.189162171576248 1.153178087469192e-25 1.2823098775158168e-17 1.2823097918184797e-17 8.569733688615391e-25
4.316745939156006 1.1958220394122974e-25 1.3702268567538876e-17 1.3702267384721774e-17 1.1828171037896658e-24
4.448215356677963 1.2497548620367536e-25 1.4756388245776147e-17 1.4756386626910014e-17 1.6188661336823906e-24
4.58368876423945 1.315273715562968e-25 1.60029738422874e-17 1.600297164429938e-17 2.197988017599541e-24
4.723288106065518 1.3939717115011752e-25 1.7477038002659777e-17 1.7477035040837228e-17 2.961822550120028e-24
4.867139040275056 1.4889292868124683e-25 1.9236110291903135e-17 1.92361063287406e-17 3.963162531903565e-24
4.940699165968905 1.5462303782861382e-25 2.0278323425038996e-17 2.027831885115001e-17 4.573888983428026e-24
5.015371051989984 1.6057846088865004e-25 2.137764165866006e-17 2.1377636389411658e-17 5.2692483995308964e-24
5.091171501069577 1.6782289213794246e-25 2.2679755123195558e-17 2.2679749058979935e-17 6.064215622998869e-24
5.129500256944802 1.7155028938925765e-25 2.3358015589856387e-17 2.3358009088611234e-17 6.501245150527434e-24
5.168117569889187 1.7543890252166216e-25 2.406731930416548e-17 2.4067312336936552e-17 6.967228925839945e-24
5.20702561229733 1.8018445057346417e-25 2.4904421426893172e-17 2.490441395874087e-17 7.46815229801072e-24
5.246226572918644 1.8505680407536802e-25 2.5770422191898117e-17 2.5770414190309515e-17 8.001588604163315e-24
5.265937586045735 1.8754183173167425e-25 2.621460353420444e-17 2.6214595253122353e-17 8.281082083769145e-24
5.285722656980489 1.9006014113606016e-25 2.66664284315344e-17 2.6666419862119345e-17 8.569415061874548e-24
5.305582063971359 1.9261228216079907e-25 2.712604303440602e-17 2.7126034167568996e-17 8.866837028407445e-24
5.3255160863122235 1.9534962420860667e-25 2.7614915206008572e-17 2.7614906031189822e-17 9.174818746655193e-24
5.365609099470188 2.0212661091661195e-25 2.8788030695313236e-17 2.8788020865453993e-17 9.829859236547722e-24
5.406003951863644 2.0916563497770957e-25 3.001484640015068e-17 3.001483587301968e-17 1.0527131002219717e-23
5.446702915881641 2.1647928841607524e-25 3.129820801010404e-17 3.129819674104804e-17 1.1269056007868242e-23
5.487708281020852 2.2437623615212113e-25 3.268415853987908e-17 3.268414647843832e-17 1.2061440760981403e-23
5.529022354014368 2.3527078950990308e-25 3.4529142146637095e-17 3.4529129212738905e-17 1.2933898194104089e-23
5.570647458961463 2.4680712131278453e-25 3.6494951801487406e-17 3.649493793806675e-17 1.3863420663352892e-23
5.612585937458331 2.5903103556382306e-25 3.8590840599247714e-17 3.8590825745917587e-17 1.4853330134139963e-23
5.654840148729818 2.7245567797976736e-25 4.0896451693307535e-17 4.0896435779693544e-17 1.5913613999009225e-23
5.67608639626678 2.8155080980962444e-25 4.242044412973619e-17 4.242042763172675e-17 1.6498009445965018e-23
5.686739436050992 2.8623818455345225e-25 4.3207618660847114e-17 4.320760186335439e-17 1.679749274134964e-23
5.6974124697621304 2.9102172267115197e-25 4.401214164271209e-17 4.401212454078262e-17 1.7101929465391884e-23
5.718818669136295 3.0088650167579426e-25 4.5674990346887864e-17 4.567497262092984e-17 1.7725958012290142e-23
5.740305295436557 3.117486144473515e-25 4.7501678479577337e-17 4.7501660099048665e-17 1.8380528672276157e-23
5.7835210386641895 3.3984369555283775e-25 5.217241864681208e-17 5.217239881018328e-17 1.9836628809245906e-23
5.827062130521658 3.721777671017787e-25 5.756645788794369e-17 5.756643646845214e-17 2.1419491521101615e-23
5.8489554468988025 3.9479680477565937e-25 6.129448146850973e-17 6.129445911779922e-17 2.2350710519287294e-23
5.870931020387893 4.19061908428655e-25 6.530622755172586e-17 6.530620423234546e-17 2.331938041192657e-23
5.892989160043636 4.451053237355408e-25 6.962542577868316e-17 6.962540145180494e-17 2.4326878231653168e-23
5.915130176081913 4.74703958286255e-25 7.45343713534084e-17 7.45343459430656e-17 2.541034277286543e-23
5.95966208400165 5.573240662071126e-25 8.816553877375213e-17 8.816551072201041e-17 2.8051741721893423e-23
6.004529249263818 6.762577270408257e-25 1.0778557384311368e-16 1.0778554244273978e-16 3.140037393041609e-23
6.027089341400364 7.588613316502128e-25 1.2140581419004954e-16 1.2140578065291496e-16 3.353713457260299e-23
6.049734195844842 8.564440217819528e-25 1.3753230096592534e-16 1.3753226503392514e-16 3.5932000200465495e-23
6.095279466722835 1.1381511367273847e-24 1.841462979173206e-16 1.8414625548190123e-16 4.243541938353224e-23
6.141167624020661 1.5714759183971713e-24 2.56169909538436e-16 2.561698576395247e-16 5.189891130535242e-23
6.164241091010745 1.848160586773428e-24 3.0240485102166777e-16 3.0240479289312313e-16 5.812854460534282e-23
6.187401249150058 2.1632959958091658e-24 3.5529873409322106e-16 3.5529866908078833e-16 6.501243284418117e-23
6.1990139391386085 2.3171816725832522e-24 3.812871163954724e-16 3.8128704783733513e-16 6.855813727278414e-23
6.204828454712694 2.3982378633324703e-24 3.9499488105527047e-16 3.9499481065248944e-16 7.040278094136542e-23
6.210648424152782 2.4574313312680383e-24 4.051238108438618e-16 4.051237389077441e-16 7.193611764877115e-23
6.233982942956859 2.658586334624933e-24 4.3993226109509397e-16 4.3993218371030677e-16 7.738478717966914e-23
6.239830258556775 2.6843372135724526e-24 4.446100558116911e-16 4.446099776733582e-16 7.813833273853564e-23
6.245683058788269 2.686638918250684e-24 4.454086803530426e-16 4.454086014544136e-16 7.889862895949941e-23
6.257405133728602 2.681272373494904e-24 4.453532650627606e-16 4.453531848343062e-16 8.022845445008546e-23
6.269149208991335 2.6419221645191453e-24 4.396408692392785e-16 4.39640788583243e-16 8.065603566500398e-23
6.280915325867298 2.5430101104593036e-24 4.2397520469878925e-16 4.2397512473721005e-16 7.996157926885869e-23
6.304513850009849 2.299009620323188e-24 3.84735113547061e-16 3.8473503601964667e-16 7.752741432344015e-23
6.32820103803542 1.9965058002040775e-24 3.3536696214325917e-16 3.3536688835815916e-16 7.378510001181499e-23
6.3519772230701035 1.7191141142050285e-24 2.898565182330829e-16 2.8985644799009215e-16 7.024299073471831e-23
6.375842739491607 1.4857727835857486e-24 2.5145450939988467e-16 2.514544422691178e-16 6.71307668844578e-23
6.399797922933955 1.2988536221392978e-24 2.2064592139612464e-16 2.2064585636845444e-16 6.502767016212246e-23
6.42384311029221 1.1434862576559357e-24 1.9498235356901562e-16 1.9498229032102085e-16 6.324799473306327e-23
6.447978639727206 1.0303744385429654e-24 1.7635513079889572e-16 1.7635506838644827e-16 6.241244741383988e-23
6.472204850670314 9.361984893864008e-25 1.6083835538792547e-16 1.608382935748118e-16 6.181311366879041e-23
6.496522083828205 8.751289631155906e-25 1.5091152561725133e-16 1.5091146357972632e-16 6.203752502235642e-23
