Dust emission spectrum from A.P. Jones, M. Kohler, N. Ysard, M. Bocchio, and L. Verstraete (2017), A&A, 602A, 46J 
inside the DustPedia framework.

lambda    nu*dP/dnu     j_nu    j_nu(carb.) j_nu(sil)
 (um)   (erg s-1 H-1) (Jy cm2 sr-1 H-1)
0.9927057738263894 3.1374830090954852e-24 8.267445934443875e-17 8.26744587910792e-17 5.533595308908242e-25
1.0001793341362166 3.1900913665126598e-24 8.46935684435201e-17 8.469356777730686e-17 6.662132446274795e-25
1.0077091589558085 3.2427879826656704e-24 8.674075416592746e-17 8.67407533648986e-17 8.0102884922025675e-25
1.0114953028030835 3.2691651308920155e-24 8.777486323304476e-17 8.777486235513262e-17 8.779121443135642e-25
1.0152956718711033 3.2955592653414182e-24 8.881597628154213e-17 8.88159753196846e-17 9.618575237654075e-25
1.0229392996569957 3.348366168714685e-24 9.091849583714884e-17 9.091849468368014e-17 1.1534686770319798e-24
1.0267826658714554 3.37471738415598e-24 9.197829822680432e-17 9.197829696423902e-17 1.2625652902918285e-24
1.0306404723013447 3.401077691009981e-24 9.304502962838424e-17 9.304502824685984e-17 1.381524404971094e-24
1.03451277320114 3.427445497149651e-24 9.411868436257005e-17 9.4118682851377e-17 1.5111930267455355e-24
1.0383996230291617 3.453819229443495e-24 9.519925680811811e-17 9.519925515563132e-17 1.6524867820401133e-24
1.0403485208654093 3.467007831628648e-24 9.574213543688376e-17 9.574213370908454e-17 1.7277992536563512e-24
1.0423010764483396 3.48019733432365e-24 9.628674142215742e-17 9.628673961576227e-17 1.8063951173716514e-24
1.0462171883269815 3.506578278348305e-24 9.738113276075177e-17 9.738113078676489e-17 1.9739868629952722e-24
1.0471985131304309 3.513173780231984e-24 9.765580914425357e-17 9.765580712609745e-17 2.0181561218554013e-24
1.048180758391296 3.519769341479559e-24 9.793091678269898e-17 9.793091471942782e-17 2.0632711868224067e-24
1.0501480137395462 3.5329605487582355e-24 9.848242549972369e-17 9.848242334330748e-17 2.1564161840880182e-24
1.0521189612883777 3.546151714411409e-24 9.903565826847481e-17 9.90356560148943e-17 2.2535805029172013e-24
1.0531058218030118 3.5527379125524e-24 9.931266068476004e-17 9.931265838103556e-17 2.3037244770086915e-24
1.0540936079674168 3.5592935244534746e-24 9.958923980740265e-17 9.958923745245586e-17 2.3549468131895726e-24
1.058054026499678 3.585513464819195e-24 1.0069980627947875e-16 1.0069980370852623e-16 2.570952534879985e-24
1.0590464539527713 3.592067710885322e-24 1.0097850997481208e-16 1.0097850734696566e-16 2.627846415918876e-24
1.06003981227728 3.598621616770365e-24 1.0125763833669628e-16 1.0125763565075215e-16 2.685944140717327e-24
1.0620293250338977 3.6117283195834984e-24 1.018171687381965e-16 1.0181716593234806e-16 2.8058484374310462e-24
1.0660195594769086 3.6379366756505285e-24 1.0294132204934452e-16 1.0294131898814467e-16 3.0611998381083633e-24
1.070024785945596 3.664137143664716e-24 1.0407226131599859e-16 1.0407225797730455e-16 3.338694057390197e-24
1.0740450607676866 3.690328358523976e-24 1.0520998190090723e-16 1.0520997826075791e-16 3.6401492808556145e-24
1.07808044048254 3.71650897988593e-24 1.0635447944911194e-16 1.0635447548158795e-16 3.967524013566852e-24
1.0861967418109137 3.768790608513426e-24 1.0866256134045511e-16 1.0866255663182577e-16 4.708629358411896e-24
1.0902777775684922 3.7947921899703625e-24 1.0982332579496565e-16 1.0982332066789149e-16 5.127074163580136e-24
1.0943741465085532 3.820776374425089e-24 1.10990773355588e-16 1.1099076777470009e-16 5.580887884800685e-24
1.1026131145906286 3.8726877819353534e-24 1.1334570605267013e-16 1.1334569944653518e-16 6.606134922066644e-24
1.1109141095355224 3.924515572457064e-24 1.15727340400943e-16 1.1572733259134126e-16 7.809601748227595e-24
1.1192775983109025 3.9762073348291334e-24 1.1813436925790064e-16 1.1813436003750083e-16 9.220399804749548e-24
1.1277040513999907 4.027554296823479e-24 1.205607601901187e-16 1.2056074931804752e-16 1.0872071160712815e-23
1.1361939428280308 4.078786257126644e-24 1.230135211805243e-16 1.2301350837731633e-16 1.2803207977612527e-23
1.1447477501889525 4.129895966557309e-24 1.2549266537083851e-16 1.254926503126835e-16 1.5058154992440484e-23
1.1533659546722406 4.180898799130306e-24 1.2799889370559718e-16 1.2799887601777396e-16 1.7687823229745938e-23
1.1707974979042381 4.282740805378178e-24 1.330984537196787e-16 1.3309842940634837e-16 2.4313330327620265e-23
1.1884924949847024 4.38407218011495e-24 1.3830681252217784e-16 1.383067792681716e-16 3.3254006243636323e-23
1.2064549276569216 4.485616196408809e-24 1.436490128444168e-16 1.436489675855416e-16 4.525887520658615e-23
1.2246888378427687 4.586537716328083e-24 1.4910086459240744e-16 1.4910080329539728e-16 6.129701011040516e-23
1.2431983285522175 4.686693358311126e-24 1.5465942456155504e-16 1.5465934194375645e-16 8.261779858141874e-23
1.2619875648066055 4.786157182324246e-24 1.603287718421402e-16 1.6032866101833374e-16 1.1082380646357699e-22
1.3004222497298317 4.982006285154176e-24 1.7197214001643623e-16 1.719719434013366e-16 1.9661509965313082e-22
1.3400274889804893 5.174177455824255e-24 1.8404518500131856e-16 1.8404484255344387e-16 3.424478746566454e-22
1.3808389325824078 5.362892929567394e-24 1.9656744052185343e-16 1.9656685469641088e-16 5.85825442558425e-22
1.4228933163050095 5.5495338441902095e-24 2.096033776243491e-16 2.096023928150463e-16 9.848093028626476e-22
1.466228494730424 5.7377355830911654e-24 2.233117725476226e-16 2.233101448912454e-16 1.627656377269083e-21
1.5108834753276823 5.926268132408272e-24 2.3767401431914006e-16 2.3767136831286927e-16 2.6460062708282507e-21
1.5568984535646726 6.1142531671374365e-24 2.5268132030965863e-16 2.5267708493593575e-16 4.235373722840067e-21
1.6043148490894465 6.302684369953183e-24 2.68401287672486e-16 2.683946000770626e-16 6.687595423482474e-21
1.6531753430134553 6.492645437895169e-24 2.849115392448048e-16 2.8490113482714317e-16 1.0404417661636899e-20
1.7035239163302658 6.685631134660039e-24 3.023152670938799e-16 3.0229931426834914e-16 1.5952825530702562e-20
1.755405889504358 6.886872964996345e-24 3.208995116940516e-16 3.2087539341644234e-16 2.4118277609329804e-20
1.8088679632656115 7.095892833436296e-24 3.40708797739778e-16 3.4067283133189787e-16 3.5966407880182725e-20
1.8639582606462262 7.312264304268259e-24 3.6179078154676954e-16 3.6173785642784004e-16 5.292511892959029e-20
1.9207263702978936 7.536777714175875e-24 3.842559832701137e-16 3.84179105007122e-16 7.687826299171398e-20
1.979223391128241 7.770793338743166e-24 4.082532091016541e-16 4.0814293106370766e-16 1.102780379464257e-19
2.039501978296691 8.015599995584002e-24 4.3393991574525753e-16 4.3378364695015897e-16 1.562687950985574e-19
2.1016163906111602 8.27531099267596e-24 4.616440089410893e-16 4.61425166440523e-16 2.188425005662068e-19
2.1656225393682647 8.551862907190298e-24 4.916011906559275e-16 4.912982094053788e-16 3.0298125054865353e-19
2.231578038680979 8.844201375809547e-24 5.238900310030794e-16 5.234752119294648e-16 4.1481907361454757e-19
2.299542257339062 9.152626686226328e-24 5.58671576949233e-16 5.581097631527684e-16 5.618137964646262e-19
2.369576372248914 9.478767107490909e-24 5.962000341721868e-16 5.954471014441269e-16 7.529327280599172e-19
2.4417434235010123 9.824594180794518e-24 6.36772178195203e-16 6.357733755832876e-16 9.988026119154318e-19
2.5161083711144245 1.0194514703559238e-23 6.808717766662386e-16 6.795598731584412e-16 1.3119035077974424e-18
2.5927381535095444 1.0596451673484641e-23 7.292703444330513e-16 7.275636415973437e-16 1.7067028357074855e-18
2.6717017477616296 1.1038616445676045e-23 7.82838274408616e-16 7.806386019527912e-16 2.1996724558248354e-18
2.753070231689431 1.1533846476212413e-23 8.428705696325303e-16 8.400612132872748e-16 2.8093563452554597e-18
2.836916847834745 1.2115268140939474e-23 9.12323937759112e-16 9.087674361685647e-16 3.5565015905471106e-18
2.9233170693905177 1.2857568418989538e-23 9.977097113503915e-16 9.932465368308929e-16 4.463174519498425e-18
2.967498994190263 1.336399223101909e-23 1.0526796513798448e-15 1.0477049235154604e-15 4.974727864384782e-18
3.0123486681368425 1.392336096896705e-23 1.1133167778682753e-15 1.1077792181021805e-15 5.537559766094815e-18
3.0578761833420214 1.4966871085943342e-23 1.2148435365422422e-15 1.2086858536577045e-15 6.157682884537573e-18
3.1040917844459814 1.6244402836700447e-23 1.3384672161177103e-15 1.331633302067348e-15 6.833914050362729e-18
3.127460860933648 1.7508228464172877e-23 1.4534614632634705e-15 1.4462649236991595e-15 7.196539564310822e-18
3.1510058709225794 1.915332620160846e-23 1.6020012500291632e-15 1.5944263186602139e-15 7.574931368949461e-18
3.162844764501044 2.0663932720042256e-23 1.7348434432319623e-15 1.7270725371273644e-15 7.77090610459763e-18
3.1747281389236908 2.2397526172972788e-23 1.8874524837203507e-15 1.8794815087353097e-15 7.970974985040923e-18
3.1986289994194426 2.7165361919628263e-23 2.3064752506215585e-15 2.298090601066809e-15 8.384649554749679e-18
3.2227097969389145 3.831201148622664e-23 3.277370849787695e-15 3.2685474327786575e-15 8.82341700903829e-18
3.2348180950136065 4.883058055213254e-23 4.192867946000498e-15 4.183810269745248e-15 9.057676255249716e-18
3.240889293275058 5.66925075162014e-23 4.877073440940866e-15 4.867892197121307e-15 9.181243819559522e-18
3.2469718861334385 6.579697028198802e-23 5.6709244004080386e-15 5.6616152980412765e-15 9.309102366764341e-18
3.2714166318528037 1.1399522593053517e-22 9.899014354171795e-15 9.889176526862696e-15 9.83782730909702e-18
3.2744851364798273 1.1701175926161873e-22 1.0170492068311018e-14 1.0160591832151987e-14 9.900236159035816e-18
3.2775565192852394 1.2011221036417913e-22 1.0449771203899266e-14 1.0439808237661153e-14 9.96296623811204e-18
3.283707930232385 1.1714770976186493e-22 1.0210987802356224e-14 1.0200912451850371e-14 1.0075350505854771e-17
3.2898708863219004 1.0771137559230725e-22 9.40610580100754e-15 9.395927987681073e-15 1.0177813326466133e-17
3.29141343181113 1.0548357916801586e-22 9.215878226490309e-15 9.205674679314983e-15 1.0203547175325794e-17
3.292184975758714 1.0438854861779254e-22 9.12234559100933e-15 9.112129159161542e-15 1.0216431847792016e-17
3.295272960557952 9.751414120640925e-23 8.529595344658094e-15 8.519328758641399e-15 1.0266586016694236e-17
3.3076538914384823 7.360782730792114e-23 6.462692481476766e-15 6.452224356654606e-15 1.0468124822158804e-17
3.310756385682612 6.871689981302105e-23 6.0389330704431915e-15 6.028414126399859e-15 1.0518944043332159e-17
3.313861789986515 6.419433860869797e-23 5.646775909643055e-15 5.636205972141249e-15 1.0569937501806199e-17
3.3200813396944477 5.786506323220223e-23 5.099582109337459e-15 5.088902576473972e-15 1.0679532863487671e-17
3.345076488085796 4.669225646987949e-23 4.145914563068876e-15 4.134746852854344e-15 1.1167710214531853e-17
3.3482140837626964 4.712995031792368e-23 4.188703637131694e-15 4.1774698046026386e-15 1.1233832529055483e-17
3.3513546224236106 4.7572082695002283e-23 4.231964180774444e-15 4.220663917554708e-15 1.1300263219736504e-17
3.3576445397418455 5.073269544140909e-23 4.521599450544851e-15 4.510160329669642e-15 1.1439120875209764e-17
3.3702598118196083 6.228627623815205e-23 5.572180579374602e-15 5.560450178274033e-15 1.1730401100569051e-17
3.382922481734668 6.498824447306735e-23 5.835744707034783e-15 5.8237307964219805e-15 1.2013910612802134e-17
3.389271646505754 6.638491000753777e-23 5.972349057257793e-15 5.960191369022241e-15 1.2157688235551394e-17
3.395632727569191 6.790546197463919e-23 6.120612035250748e-15 6.1083061729995915e-15 1.2305862251156883e-17
3.421196662673239 7.524525697585587e-23 6.8332388674083e-15 6.8203191993545135e-15 1.2919668053787241e-17
3.4276182099114902 7.385610318595564e-23 6.719674927857178e-15 6.7066178522899824e-15 1.3057075567194422e-17
3.4340518103208963 6.763566015796046e-23 6.1652687057066974e-15 6.152081459456206e-15 1.3187246250493213e-17
3.4469541582030403 5.874469227430711e-23 5.37493942142856e-15 5.361501907379717e-15 1.3437514048842447e-17
3.472904465399547 5.628314473093536e-23 5.188485706569765e-15 5.174472295596193e-15 1.4013410973570817e-17
3.4990501388274233 5.2524887792054404e-23 4.878482281711395e-15 4.863878583483203e-15 1.4603698228193603e-17
3.5253949054701885 3.9110143380563466e-23 3.659878042705966e-15 3.644699346692873e-15 1.5178696013092243e-17
3.5519380250092896 2.641005335786688e-23 2.4900272001565613e-15 2.4742693335035533e-15 1.5757866653008866e-17
3.578680990867387 2.1417816093434637e-23 2.0345464269958746e-15 2.0181535752076692e-15 1.639285178820593e-17
3.605625307711299 1.9452366701010875e-23 1.861754766361871e-15 1.8446923947721328e-15 1.7062371589738943e-17
3.660119384959845 1.8124603573981375e-23 1.760893947616283e-15 1.7424215886669974e-15 1.847235894928562e-17
3.715437065384467 1.7209026100989844e-23 1.6972102097983874e-15 1.6772465259679103e-15 1.9963683830476586e-17
3.8285932144167436 1.6958743305373814e-23 1.7234644312894736e-15 1.700278300577843e-15 2.318613071163049e-17
3.94519561050918 1.712152030823834e-23 1.793000041451674e-15 1.7662739167407925e-15 2.6726124710881317e-17
4.06534921144712 1.7440862415369414e-23 1.88206772148891e-15 1.8514817476397135e-15 3.0585973849196004e-17
4.189162171576248 1.7841426003725158e-23 1.9839291989803377e-15 1.9491500061716716e-15 3.477919280866604e-17
4.316745939156006 1.8293590144053463e-23 2.0961621123950414e-15 2.0568645476552486e-15 3.929756473979274e-17
4.448215356677963 1.8786294789288275e-23 2.2181778845697064e-15 2.174090824301874e-15 4.408706026783286e-17
4.58368876423945 1.931929015036072e-23 2.35058369424993e-15 2.301423516748508e-15 4.9160177501422445e-17
4.723288106065518 1.990033190945377e-23 2.495020911669148e-15 2.4404659910636033e-15 5.455492060554444e-17
4.867139040275056 2.0544283913566484e-23 2.654203357605867e-15 2.594060472931696e-15 6.014288467417138e-17
4.940699165968905 2.0912533345881692e-23 2.7426127489148663e-15 2.6795851337494298e-15 6.30276151654366e-17
5.015371051989984 2.1282588623781967e-23 2.8333286460092376e-15 2.767363223694828e-15 6.596542231441007e-17
5.091171501069577 2.1722649881540162e-23 2.9356208420916564e-15 2.8666035568405445e-15 6.901728525111192e-17
5.129500256944802 2.1943677835841655e-23 2.9878164054001974e-15 2.9172553226566753e-15 7.056108274352094e-17
5.168117569889187 2.2171303763690854e-23 3.0415366227254382e-15 2.9694061398695715e-15 7.213048285586716e-17
5.20702561229733 2.2451005341070826e-23 3.103094061068777e-15 3.02925725942231e-15 7.383680164646663e-17
5.246226572918644 2.273396246938774e-23 3.1658593363164553e-15 3.0902994698547686e-15 7.555986646168688e-17
5.265937586045735 2.2876708755369663e-23 3.197707117671253e-15 3.1212795963888647e-15 7.642752128238701e-17
5.285722656980489 2.3020326256037332e-23 3.2298717601063702e-15 3.15257258813955e-15 7.729917196681907e-17
5.305582063971359 2.3164835202500083e-23 3.26235850351099e-15 3.184183750419439e-15 7.817475309155039e-17
5.3255160863122235 2.3320072915275762e-23 3.2965604042605833e-15 3.2174998126928425e-15 7.906059156773964e-17
5.365609099470188 2.3710299116824275e-23 3.3769567286308145e-15 3.2960633614617967e-15 8.08933671690185e-17
5.406003951863644 2.411022288505947e-23 3.45976831540983e-15 3.3770244749993474e-15 8.274384041048379e-17
5.446702915881641 2.452039315483697e-23 3.545116814937895e-15 3.4605053136037844e-15 8.46115013341115e-17
5.487708281020852 2.4960469253293498e-23 3.635910595056614e-15 3.5494073679175976e-15 8.65032271390162e-17
5.529022354014368 2.5583766718489113e-23 3.7547607142786855e-15 3.666284453094084e-15 8.8476261184602e-17
5.570647458961463 2.6235635135820354e-23 3.8794190162355625e-15 3.7889507387595076e-15 9.046827747605393e-17
5.612585937458331 2.6918242964994873e-23 4.010321084548139e-15 3.917842317846765e-15 9.247876670137377e-17
5.654840148729818 2.7663332417558555e-23 4.152352948851391e-15 4.057836516078318e-15 9.451643277307377e-17
5.67608639626678 2.818042631738135e-23 4.245863121320559e-15 4.150281076543462e-15 9.558204477709674e-17
5.686739436050992 2.844571152238008e-23 4.293876646516903e-15 4.197759810669867e-15 9.611683584703582e-17
5.6974124697621304 2.871563383103293e-23 4.342756725963662e-15 4.246103785963454e-15 9.665294000020634e-17
5.718818669136295 2.9269841283191217e-23 4.443202704736854e-15 4.345473648401136e-15 9.772905633571654e-17
5.740305295436557 2.988097999624659e-23 4.553016881735322e-15 4.454198941418205e-15 9.881794031711543e-17
5.7835210386641895 3.148040830175201e-23 4.8328365733541416e-15 4.731766060389837e-15 1.0107051296430523e-16
5.827062130521658 3.3306219139774054e-23 5.151627074467619e-15 5.048262372847667e-15 1.0336470161995127e-16
5.8489554468988025 3.460505889029966e-23 5.3726350244234135e-15 5.26803341704826e-15 1.046016073751527e-16
5.870931020387893 3.598867615975007e-23 5.6084426365231054e-15 5.502596520193583e-15 1.0584611632952181e-16
5.892989160043636 3.746377201560692e-23 5.86025585129138e-15 5.75315767093206e-15 1.0709818035931859e-16
5.915130176081913 3.913947017455669e-23 6.14537914345116e-15 6.0369835912850346e-15 1.0839555216612349e-16
5.95966208400165 4.3856745295435234e-23 6.937890918922463e-15 6.8265500022394945e-15 1.1134091668296683e-16
6.004529249263818 5.064850724739042e-23 8.072630004311225e-15 7.957980206614188e-15 1.1464979769703787e-16
6.027089341400364 5.53778181718279e-23 8.85957529104705e-15 8.743019071336067e-15 1.1655621971098393e-16
6.049734195844842 6.094153160268964e-23 9.786312768307746e-15 9.667738116286931e-15 1.1857465202081352e-16
6.095279466722835 7.702326172282075e-23 1.2461920075533535e-14 1.2338402827704981e-14 1.2351724782855222e-16
6.141167624020661 1.0168538265365629e-22 1.6575968470669802e-14 1.6446059424465342e-14 1.2990904620446113e-16
6.164241091010745 1.1743729193191163e-22 1.921564988736099e-14 1.908174033532235e-14 1.3390955203864165e-16
6.187401249150058 1.3526839484966735e-22 2.2216418625104533e-14 2.2078397617395324e-14 1.380210077092067e-16
6.1990139391386085 1.4396016726096066e-22 2.3688326944839273e-14 2.35482131756133e-14 1.4011376922596668e-16
6.204828454712694 1.485289882617932e-22 2.4463040530185064e-14 2.4321869353910157e-14 1.4117117627490468e-16
6.210648424152782 1.5185394069006023e-22 2.5034126635095317e-14 2.4892051933014745e-14 1.4207470208057272e-16
6.233982942956859 1.6308686291360422e-22 2.6986963493367028e-14 2.6841727485296002e-14 1.45236008071032e-16
6.239830258556775 1.6448702607018329e-22 2.724418730686772e-14 2.7098504225014994e-14 1.4568308185271938e-16
6.245683058788269 1.6455153432418893e-22 2.7280436256438768e-14 2.7134305249236345e-14 1.4613100720241737e-16
6.257405133728602 1.6411237363065128e-22 2.7258693356223162e-14 2.711177338332301e-14 1.469199729001549e-16
6.269149208991335 1.617405211883566e-22 2.691515453461716e-14 2.6767920806234656e-14 1.4723372838250135e-16
6.280915325867298 1.5598487338103825e-22 2.600607773820284e-14 2.5859118327445103e-14 1.4695941075773088e-16
6.304513850009849 1.4186956919466658e-22 2.3741616533692304e-14 2.359573841774626e-14 1.4587811594604249e-16
6.32820103803542 1.2449584331545205e-22 2.0912432494760884e-14 2.0768202441703045e-14 1.4423005305783786e-16
6.3519772230701035 1.0859338588641932e-22 1.830972154558502e-14 1.8166959667984186e-14 1.427618776008368e-16
6.375842739491607 9.518932154536687e-23 1.6109989638881202e-14 1.596851192815346e-14 1.4147771072774125e-16
6.399797922933955 8.449049213248889e-23 1.4353028061067898e-14 1.4212160372649062e-14 1.4086768841883832e-16
6.42384311029221 7.556925902428104e-23 1.2885744698170576e-14 1.2745352945621057e-14 1.4039175254951757e-16
6.447978639727206 6.907434660485361e-23 1.1822513228853992e-14 1.1682070438061762e-14 1.4044279079223093e-16
6.472204850670314 6.364634837590071e-23 1.0934405593771223e-14 1.0793806683254272e-14 1.4059891051695384e-16
6.496522083828205 6.010751162148913e-23 1.0365233768017193e-14 1.022405059398176e-14 1.4118317403543078e-16
6.520930681187647 5.711439236661769e-23 9.886090399748536e-15 9.744256936318227e-15 1.4183346343031024e-16
6.57002334288761 5.398503537937037e-23 9.414770458737424e-15 9.271039541985142e-15 1.4373091675228044e-16
