Dust emission spectrum from A.P. Jones, M. Kohler, N. Ysard, M. Bocchio, and L. Verstraete (2017), A&A, 602A, 46J 
inside the DustPedia framework.

lambda    nu*dP/dnu     j_nu    j_nu(carb.) j_nu(sil)
 (um)   (erg s-1 H-1) (Jy cm2 sr-1 H-1)
0.9927057738263894 6.731995033112668e-20 1.773918928193624e-12 1.773918887166141e-12 4.102748325814392e-20
1.0001793341362166 6.844874202285865e-20 1.8172420634218926e-12 1.8172420140615057e-12 4.936038669370126e-20
1.0077091589558085 6.958240770607042e-20 1.8612473443743673e-12 1.8612472850682853e-12 5.930608225201472e-20
1.0114953028030835 7.015102369467042e-20 1.8835073371707175e-12 1.8835072721965504e-12 6.497416692402095e-20
1.0152956718711033 7.072080560290157e-20 1.9059397471913265e-12 1.90593967603128e-12 7.116004658017325e-20
1.0229392996569957 7.186324446753721e-20 1.9513093143793888e-12 1.951309229109637e-12 8.526975177103528e-20
1.0267826658714554 7.243460665398698e-20 1.9742132730998904e-12 1.9742131798021063e-12 9.329778376078835e-20
1.0306404723013447 7.300704289431886e-20 1.997291178363348e-12 1.9972910763159725e-12 1.0204737517003858e-19
1.03451277320114 7.358053874062373e-20 2.0205437276000083e-12 2.0205436160199502e-12 1.1158005847975262e-19
1.0383996230291617 7.415508031027735e-20 2.0439716340400933e-12 2.043971512077784e-12 1.2196230896459403e-19
1.0403485208654093 7.44427390608892e-20 2.055751573572926e-12 2.055751446078689e-12 1.2749423766525731e-19
1.0423010764483396 7.473065429925585e-20 2.067575627351456e-12 2.0675754940855405e-12 1.3326591535655606e-19
1.0462171883269815 7.530724799532965e-20 2.0913564542852112e-12 2.0913563087168345e-12 1.455683761509039e-19
1.0471985131304309 7.54515543162735e-20 2.0973293804614297e-12 2.097329231651708e-12 1.4880972185016397e-19
1.048180758391296 7.559592342599195e-20 2.10331341855206e-12 2.1033132664319995e-12 1.5212006014095672e-19
1.0501480137395462 7.588484929112677e-20 2.115314879329143e-12 2.11531472037582e-12 1.5895332316329924e-19
1.0521189612883777 7.617402417394208e-20 2.127360935057234e-12 2.1273607689775815e-12 1.6607965176015705e-19
1.0531058218030118 7.631851480002385e-20 2.1333954124565096e-12 2.1333952426998353e-12 1.6975667425546948e-19
1.0540936079674168 7.646244548897756e-20 2.139423671508376e-12 2.1394234979960615e-12 1.7351231464270505e-19
1.058054026499678 7.70387574846353e-20 2.163647698114478e-12 2.163647508769636e-12 1.8934484160288405e-19
1.0590464539527713 7.718298200919021e-20 2.1697315156622824e-12 2.1697313221486194e-12 1.93513662783389e-19
1.06003981227728 7.732726483927351e-20 2.1758264831655777e-12 2.17582628539543e-12 1.9777014799911999e-19
1.0620293250338977 7.761600482731801e-20 2.188049919878535e-12 2.1880497133253913e-12 2.065531442172064e-19
1.0660195594769086 7.819417814078413e-20 2.2126311676205573e-12 2.2126309423702046e-12 2.2525035269776107e-19
1.070024785945596 7.87732687230184e-20 2.237392293416709e-12 2.2373920478583757e-12 2.4555833392926176e-19
1.0740450607676866 7.935326855826167e-20 2.2623341712962912e-12 2.262333903687973e-12 2.676083190195099e-19
1.07808044048254 7.993417032885047e-20 2.2874576979449327e-12 2.2874574064033608e-12 2.915415722285167e-19
1.0861967418109137 8.109777249659096e-20 2.3382279871369766e-12 2.338227641459511e-12 3.456774659369805e-19
1.0902777775684922 8.167845794325511e-20 2.363818477554779e-12 2.3638181013352335e-12 3.7621954546907503e-19
1.0943741465085532 8.225998901569999e-20 2.3895928215501804e-12 2.389592412224912e-12 4.093252687812762e-19
1.1026131145906286 8.342557484533696e-20 2.4416971406274963e-12 2.441696656572415e-12 4.840550825953501e-19
1.1109141095355224 8.459451136400865e-20 2.4945493607876818e-12 2.4945487891090022e-12 5.716786793116499e-19
1.1192775983109025 8.576588657480161e-20 2.5481314381193418e-12 2.5481307638358103e-12 6.742835325264534e-19
1.1277040513999907 8.693554336929874e-20 2.6023274731292984e-12 2.6023266788579154e-12 7.942713824729305e-19
1.1361939428280308 8.810843808244563e-20 2.6572927657830207e-12 2.6572918313812167e-12 9.34401804336719e-19
1.1447477501889525 8.928460565985658e-20 2.713037624088096e-12 2.713036526246974e-12 1.0978411227543195e-18
1.1533659546722406 9.046449914794652e-20 2.7695852894063793e-12 2.769584001187104e-12 1.288219276178047e-18
1.1707974979042381 9.283903518010238e-20 2.885239286902711e-12 2.8852375198876822e-12 1.7670150287155903e-18
1.1884924949847024 9.522922261528872e-20 3.004250317461729e-12 3.0042479058826672e-12 2.4115790630617093e-18
1.2064549276569216 9.765107775707471e-20 3.1272138116113432e-12 3.127210536655941e-12 3.2749554029776094e-18
1.2246888378427687 1.0008954485804346e-19 3.253747946270529e-12 3.2537435207072483e-12 4.4255632802543145e-18
1.2431983285522175 1.0254283775330863e-19 3.3838817834565062e-12 3.3838758321170066e-12 5.951339500130473e-18
1.2619875648066055 1.050147731414908e-19 3.517830476867015e-12 3.5178225121347023e-12 7.964732310971081e-18
1.3004222497298317 1.1000056267218464e-19 3.7970711161321415e-12 3.797057052202811e-12 1.40639293294885e-17
1.3400274889804893 1.1506295086741974e-19 4.092782333036237e-12 4.092757955873766e-12 2.4377162471343842e-17
1.3808389325824078 1.2022096500136455e-19 4.4064887548094e-12 4.406447258831109e-12 4.1495978290493724e-17
1.4228933163050095 1.25516625546355e-19 4.740706048683565e-12 4.740636643572311e-12 6.940511125394903e-17
1.466228494730424 1.3103773996117898e-19 5.099968368636547e-12 5.099854249749667e-12 1.1411888688160587e-16
1.5108834753276823 1.3677207261891126e-19 5.485267763758029e-12 5.485083221349751e-12 1.8454240827769135e-16
1.5568984535646726 1.427116951610609e-19 5.897789733461295e-12 5.897495922375208e-12 2.938110860849103e-16
1.6043148490894465 1.4888465067108216e-19 6.340287663030085e-12 6.3398262493321235e-12 4.614136979617631e-16
1.6531753430134553 1.553188421314252e-19 6.8157318628708555e-12 6.815017953706242e-12 7.139091646127439e-16
1.7035239163302658 1.6204522120079006e-19 7.327467421083611e-12 7.326378926419266e-12 1.0884946643442616e-15
1.755405889504358 1.6916965430899478e-19 7.882599219867674e-12 7.880962942565782e-12 1.6362773018910082e-15
1.8088679632656115 1.7667502441604788e-19 8.483038931450065e-12 8.480612950872173e-12 2.4259805778949447e-15
1.8639582606462262 1.845367931506354e-19 9.130374373794466e-12 9.126825513514102e-12 3.5488602803684617e-15
1.9207263702978936 1.9275192464203848e-19 9.827287355340594e-12 9.82216318700531e-12 5.124168335284671e-15
1.979223391128241 2.013243082808111e-19 1.0576950298758724e-11 1.056964468688977e-11 7.305611868952478e-15
2.039501978296691 2.1024832192106797e-19 1.138219710942085e-11 1.1371908871036528e-11 1.0288238384323057e-14
2.1016163906111602 2.195763886483261e-19 1.2249222345134068e-11 1.2234905295804639e-11 1.43170493294314e-14
2.1656225393682647 2.293079850357734e-19 1.3181698501705105e-11 1.3162004189542406e-11 1.969431216269717e-14
2.231578038680979 2.3936860910078406e-19 1.4179101392464066e-11 1.4152313698751287e-11 2.6787693712774902e-14
2.299542257339062 2.497141791189394e-19 1.5242423734478895e-11 1.5206385215068215e-11 3.603851941068059e-14
2.369576372248914 2.603196581373724e-19 1.637371055931309e-11 1.6325740218065408e-11 4.797034124768205e-14
2.4417434235010123 2.711647680184995e-19 1.757529896944537e-11 1.75121043379607e-11 6.319463148466343e-14
2.5161083711144245 2.822736491619141e-19 1.8852507117757598e-11 1.8770088454707163e-11 8.241866305043313e-14
2.5927381535095444 2.9372901885608085e-19 2.0215055883958378e-11 2.0108606996340397e-11 1.0644888761798279e-13
2.6717017477616296 3.0558890061396238e-19 2.1671799977140098e-11 2.1535613295255465e-11 1.3618668188463224e-13
2.753070231689431 3.179708285625774e-19 2.3236675982276314e-11 2.3064049385311493e-11 1.7262659696481059e-13
2.836916847834745 3.313123506317685e-19 2.494903000414844e-11 2.4732171643948246e-11 2.168583602001935e-13
2.9233170693905177 3.4664898682401097e-19 2.689894771030664e-11 2.6628947684742818e-11 2.7000002556382393e-13
2.967498994190263 3.561158115102353e-19 2.80511887339565e-11 2.7751525380161342e-11 2.996633537951663e-13
3.0123486681368425 3.6620367995872086e-19 2.928177341116473e-11 2.8949614175520137e-11 3.3215923564459626e-13
3.0578761833420214 3.8340853868057996e-19 3.112082561522585e-11 3.075300463539969e-11 3.678209798261648e-13
3.1040917844459814 4.03607558471258e-19 3.3255484404178866e-11 3.284898819115938e-11 4.0649621301948747e-13
3.127460860933648 4.2285669257872395e-19 3.51038318013666e-11 3.467668022350941e-11 4.271515778571816e-13
3.1510058709225794 4.474278805679939e-19 3.74232661430698e-11 3.6974622272377957e-11 4.486438706918301e-13
3.162844764501044 4.699413098691576e-19 3.9453990253249364e-11 3.8994238630325214e-11 4.597516229241422e-13
3.1747281389236908 4.954078973226654e-19 4.174831001580352e-11 4.127723499884733e-11 4.710750169561931e-13
3.1986289994194426 5.644758436841986e-19 4.7926825598101355e-11 4.743238772586621e-11 4.944378722351433e-13
3.2227097969389145 7.252652329354174e-19 6.204224316547697e-11 6.152308765307941e-11 5.191555123975669e-13
3.2348180950136065 8.763352707854672e-19 7.524706905549139e-11 7.471473235618384e-11 5.323366993075878e-13
3.240889293275058 9.892803151626787e-19 8.510459251333513e-11 8.4565302996685e-11 5.39289516650135e-13
3.2469718861334385 1.120219752286233e-18 9.654975753189202e-11 9.600327392371552e-11 5.464836081764786e-13
3.2714166318528037 1.806366925719642e-18 1.5685965776756428e-10 1.5628347599260526e-10 5.761817749590322e-13
3.2744851364798273 1.849140375104363e-18 1.6072459415078127e-10 1.6014492145967235e-10 5.79672691108865e-13
3.2775565192852394 1.8930504782354608e-18 1.6469553191148484e-10 1.64112351668315e-10 5.831802431698314e-13
3.283707930232385 1.8503528423126855e-18 1.6128296781317476e-10 1.6069353309353345e-10 5.894347196412803e-13
3.2898708863219004 1.7154043800009457e-18 1.4980103077388436e-10 1.4920592081239025e-10 5.951099614941419e-13
3.29141343181113 1.683504199056398e-18 1.4708421741716202e-10 1.4648768279260092e-10 5.965346245611086e-13
3.292184975758714 1.6678181939212272e-18 1.4574792110223122e-10 1.4515067326757603e-10 5.972478346551981e-13
3.295272960557952 1.5702078865178006e-18 1.3734662186726377e-10 1.3674660293321285e-10 6.000189340509258e-13
3.3076538914384823 1.2292595816252502e-18 1.0792774282984266e-10 1.0731660207026258e-10 6.111407595800756e-13
3.310756385682612 1.1590707627470496e-18 1.018606889889209e-10 1.0124674657020158e-10 6.1394241871933e-13
3.313861789986515 1.0939984619864118e-18 9.623222692560612e-11 9.561547436053039e-11 6.167525650757674e-13
3.3200813396944477 1.0030726991762213e-18 8.839965439175789e-11 8.777684966417934e-11 6.228047275785832e-13
3.345076488085796 8.439736634984845e-19 7.493839379131615e-11 7.428859690228375e-11 6.497968890323928e-13
3.3482140837626964 8.502916628534897e-19 7.557020019736098e-11 7.491674585816962e-11 6.534543391913649e-13
3.3513546224236106 8.5666622121044215e-19 7.620815734062561e-11 7.555102996515111e-11 6.571273754745136e-13
3.3576445397418455 9.019548787122727e-19 8.038758139140554e-11 7.972277154682048e-11 6.648098445850511e-13
3.3702598118196083 1.0661835538815627e-18 9.538164186075443e-11 9.47007191034093e-11 6.809227573451549e-13
3.382922481734668 1.1050703392743406e-18 9.92319216438281e-11 9.853536542980701e-11 6.965562140211032e-13
3.389271646505754 1.1251089255652167e-18 1.0122094358716113e-10 1.0051646875394302e-10 7.044748332181172e-13
3.395632727569191 1.1472116532363916e-18 1.0340313205439869e-10 1.0269049656885005e-10 7.12635485548663e-13
3.421196662673239 1.2546979836302123e-18 1.1394274367820738e-10 1.1319635689207074e-10 7.463867861366561e-13
3.4276182099114902 1.2349161457668986e-18 1.1235679523765923e-10 1.1160290696523144e-10 7.538882724277959e-13
3.4340518103208963 1.1459776031537838e-18 1.0446057357411985e-10 1.0369960512445307e-10 7.609684496667798e-13
3.4469541582030403 1.0181551794696236e-18 9.315773390571388e-11 9.238320616316992e-11 7.745277425439746e-13
3.472904465399547 9.817534010570516e-19 9.05033560777746e-11 8.969754711903554e-11 8.058089587390487e-13
3.4990501388274233 9.27369004270949e-19 8.61335158649981e-11 8.52957634720773e-11 8.377523929208057e-13
3.5253949054701885 7.375809457902562e-19 6.902189751514962e-11 6.815322045402805e-11 8.686770611215723e-13
3.5519380250092896 5.568488570361034e-19 5.250155240534438e-11 5.1601880173864487e-11 8.996722314799064e-13
3.578680990867387 4.860149769368053e-19 4.616810745220517e-11 4.523447417676799e-11 9.336332754371773e-13
3.605625307711299 4.5842513077240875e-19 4.3875132797658183e-11 4.29057841710345e-11 9.693486266236904e-13
3.660119384959845 4.402017776397045e-19 4.276775725392653e-11 4.172361257676902e-11 1.0441446771575069e-12
3.715437065384467 4.2745571332415777e-19 4.2157074818352686e-11 4.103442796739812e-11 1.1226468509545728e-12
3.8285932144167436 4.241170383147661e-19 4.310169787213618e-11 4.181154571746746e-11 1.2901521546687196e-12
3.94519561050918 4.259727780841732e-19 4.4608726036712127e-11 4.3137733035143346e-11 1.4709930015687928e-12
4.06534921144712 4.293772064487073e-19 4.633469156250294e-11 4.467016116013334e-11 1.6645304023695954e-12
4.189162171576248 4.332688461625722e-19 4.817858812019703e-11 4.6307889339479585e-11 1.8706987807174326e-12
4.316745939156006 4.372109652386544e-19 5.009760540387095e-11 4.800937010438265e-11 2.088235299488296e-12
4.448215356677963 4.410201239829325e-19 5.2073125469473835e-11 4.975957138634164e-11 2.313554083132198e-12
4.58368876423945 4.446802407239788e-19 5.410437520559738e-11 5.155788625279127e-11 2.5464889528061143e-12
4.723288106065518 4.482855156237935e-19 5.6204174933806516e-11 5.3416082921981063e-11 2.7880920118254658e-12
4.867139040275056 4.519628464821993e-19 5.839100110245254e-11 5.535996480183416e-11 3.0310363006183852e-12
4.940699165968905 4.541226487133915e-19 5.955675217979306e-11 5.640307423554929e-11 3.153677944243761e-12
5.015371051989984 4.560910750141755e-19 6.071892526188266e-11 5.744228735229454e-11 3.2766379095881236e-12
5.091171501069577 4.587797684509445e-19 6.199996121739669e-11 5.859721929410805e-11 3.4027419232886514e-12
5.129500256944802 4.600453637959978e-19 6.2639047814168e-11 5.917331497730639e-11 3.465732836861633e-12
5.168117569889187 4.613404208866449e-19 6.328828474075762e-11 5.975890707134936e-11 3.5293776694082663e-12
5.20702561229733 4.632852371813954e-19 6.403355423235845e-11 6.043416823473573e-11 3.5993859976227207e-12
5.246226572918644 4.651992770920363e-19 6.478217233852733e-11 6.111265215079755e-11 3.6695201877297704e-12
5.265937586045735 4.661452330717138e-19 6.51577963247038e-11 6.145317370219527e-11 3.7046226225085275e-12
5.285722656980489 4.670840800508425e-19 6.553433096352519e-11 6.179458872115897e-11 3.739742242366202e-12
5.305582063971359 4.68016026212492e-19 6.59118033668964e-11 6.213692912964074e-11 3.774874237255658e-12
5.3255160863122235 4.6906922994119885e-19 6.630832827577688e-11 6.24979935570983e-11 3.810334718678575e-12
5.365609099470188 4.721455258708324e-19 6.724567255041851e-11 6.336192730952868e-11 3.883745240889828e-12
5.406003951863644 4.7524763533032705e-19 6.819707634093301e-11 6.423981911384932e-11 3.957257227083679e-12
5.446702915881641 4.783807517901762e-19 6.916347696404875e-11 6.513264492235203e-11 4.030832041696717e-12
5.487708281020852 4.817921621108283e-19 7.018110152728207e-11 6.607631113228787e-11 4.104790394994199e-12
5.529022354014368 4.873938677448751e-19 7.153158356725645e-11 6.734969701868714e-11 4.181886548569324e-12
5.570647458961463 4.931971245491928e-19 7.29282250581585e-11 6.866915959184578e-11 4.259065466312725e-12
5.612585937458331 4.992223758340907e-19 7.437491452503688e-11 7.003862662350869e-11 4.336287901528171e-12
5.654840148729818 5.058529243709628e-19 7.593011031684832e-11 7.151615841784342e-11 4.413951899004897e-12
5.67608639626678 5.108682076044536e-19 7.697103152712152e-11 7.251635641307934e-11 4.454675114042172e-12
5.686739436050992 5.13434131431681e-19 7.750281882541996e-11 7.302777253034013e-11 4.475046295079829e-12
5.6974124697621304 5.16040297181684e-19 7.804241705548423e-11 7.354699402912388e-11 4.495423026360352e-12
5.718818669136295 5.213776735520948e-19 7.914585757068732e-11 7.460966693553558e-11 4.53619063515174e-12
5.740305295436557 5.273382535998044e-19 8.035144668368718e-11 7.57741308377743e-11 4.577315845912885e-12
5.7835210386641895 5.435558504187166e-19 8.34460775852767e-11 7.878381830116224e-11 4.662259284114467e-12
5.827062130521658 5.620716872558271e-19 8.69382294551989e-11 8.219007255686137e-11 4.748156898337531e-12
5.8489554468988025 5.757524967549009e-19 8.938889655615382e-11 8.459408080673388e-11 4.794815749419966e-12
5.870931020387893 5.9026150580920875e-19 9.198581746057999e-11 8.714425661845234e-11 4.84156084212765e-12
5.892989160043636 6.0566467331348205e-19 9.474085909521342e-11 8.985247203761407e-11 4.8883870575993404e-12
5.915130176081913 6.232391857369783e-19 9.785623250207656e-11 9.291921568678933e-11 4.937016815287225e-12
5.95966208400165 6.736442258839767e-19 1.0656673507943703e-10 1.0151735865630586e-10 5.049376423131185e-12
6.004529249263818 7.467227015588643e-19 1.190166583994439e-10 1.1383996372392618e-10 5.1766946755177126e-12
6.027089341400364 7.979279560333912e-19 1.276558563823203e-10 1.224048257398217e-10 5.251030642498596e-12
6.049734195844842 8.580238588582761e-19 1.3778599954135114e-10 1.3245605803609554e-10 5.329941505255577e-12
6.095279466722835 1.0322113144944389e-18 1.6700584491710652e-10 1.6147933369154077e-10 5.526511225565721e-12
6.141167624020661 1.2986373546817247e-18 2.116938667513023e-10 2.0590900883006216e-10 5.784857921240106e-12
6.164241091010745 1.4684001907618707e-18 2.4026664355112645e-10 2.343180942201353e-10 5.9485493309911655e-12
6.187401249150058 1.6593201736060727e-18 2.72525978081452e-10 2.6640964553201924e-10 6.116332549432836e-12
6.1990139391386085 1.7518872748452712e-18 2.8826917422102853e-10 2.82067523511546e-10 6.201650709482532e-12
6.204828454712694 1.800443633846597e-18 2.965368989753815e-10 2.902921872834299e-10 6.244711691951617e-12
6.210648424152782 1.8353716645246358e-18 3.025731598625741e-10 2.962921000299038e-10 6.2810598326704e-12
6.233982942956859 1.9518741426517004e-18 3.2298834676397786e-10 3.1658199758988963e-10 6.4063491740881816e-12
6.239830258556775 1.965500200674704e-18 3.2554820217869145e-10 3.1912555371030725e-10 6.422648468384085e-12
6.245683058788269 1.964615112107362e-18 3.2570682220860155e-10 3.1926785966640644e-10 6.438962542195156e-12
6.257405133728602 1.956666242085746e-18 3.24997828704412e-10 3.1853094504154314e-10 6.466883662868856e-12
6.269149208991335 1.9277675331568565e-18 3.2079877497927643e-10 3.143247037434414e-10 6.474071235835085e-12
6.280915325867298 1.862331684340619e-18 3.104912771828285e-10 3.0403561485001765e-10 6.455662332810956e-12
6.304513850009849 1.7039281458075066e-18 2.8514930205517255e-10 2.7875355007736536e-10 6.395751977807132e-12
6.32820103803542 1.511673670907796e-18 2.539263380614651e-10 2.476150586340604e-10 6.311279427404702e-12
6.3519772230701035 1.3364484075873551e-18 2.2533599079928125e-10 2.1910129563710247e-10 6.2346951621787725e-12
6.375842739491607 1.1887607092241331e-18 2.0118772145657746e-10 1.9502148374968475e-10 6.166237706892721e-12
6.399797922933955 1.0712119488531814e-18 1.8197473790460718e-10 1.7584792837090053e-10 6.12680953370668e-12
6.42384311029221 9.730678599019916e-19 1.6592334209157046e-10 1.598301383994852e-10 6.093203692085262e-12
6.447978639727206 9.01390960674259e-19 1.5427878917050845e-10 1.4819664436701597e-10 6.082144803492509e-12
6.472204850670314 8.413180655606741e-19 1.4453795381748378e-10 1.3846241523225878e-10 6.075538585225001e-12
6.496522083828205 8.015970570755465e-19 1.382313235101915e-10 1.321442029927942e-10 6.087120517397283e-12
