Dust emission spectrum from A.P. Jones, M. Kohler, N. Ysard, M. Bocchio, and L. Verstraete (2017), A&A, 602A, 46J 
inside the DustPedia framework.

lambda    nu*dP/dnu     j_nu    j_nu(carb.) j_nu(sil)
 (um)   (erg s-1 H-1) (Jy cm2 sr-1 H-1)
0.9927057738263894 4.0661119083175723e-22 1.0714435828962562e-14 1.071443546024282e-14 3.6871974368497653e-22
1.0001793341362166 4.134527947279151e-22 1.0976736571257818e-14 1.0976736127499746e-14 4.437580724803446e-22
1.0077091589558085 4.2032023295563907e-22 1.1243070528403816e-14 1.1243069995046063e-14 5.333577515989792e-22
1.0114953028030835 4.237633019482886e-22 1.13777568224415e-14 1.1377756238004254e-14 5.844372448006903e-22
1.0152956718711033 4.272124291188014e-22 1.151345975502114e-14 1.1513459114825907e-14 6.401952333555945e-22
1.0229392996569957 4.341249897761651e-22 1.1787835943557402e-14 1.1787835176137784e-14 7.67419618312487e-22
1.0267826658714554 4.375805577745959e-22 1.1926306845783237e-14 1.1926306005952653e-14 8.398305810090847e-22
1.0306404723013447 4.410415138172816e-22 1.2065799269727997e-14 1.2065798350960157e-14 9.187678399530287e-22
1.03451277320114 4.445077415381421e-22 1.2206316295135696e-14 1.2206315290345887e-14 1.0047898094233012e-21
1.0383996230291617 4.479791277454669e-22 1.2347861076038166e-14 1.2347859977538225e-14 1.0984999415764656e-21
1.0403485208654093 4.497167207973984e-22 1.2419019881645198e-14 1.2419018733205406e-14 1.1484397929531949e-21
1.0423010764483396 4.514555625042123e-22 1.2490436844405437e-14 1.2490435643855322e-14 1.2005501203975655e-21
1.0462171883269815 4.549369392177685e-22 1.2634046913848779e-14 1.263404560220449e-14 1.3116442918597498e-21
1.0471985131304309 4.558080434092526e-22 1.2670111437143408e-14 1.2670110096224689e-14 1.3409187207833507e-21
1.048180758391296 4.566794484290078e-22 1.27062408702243e-14 1.2706239499406258e-14 1.3708180434102811e-21
1.0501480137395462 4.58423154709155e-22 1.2778694683375615e-14 1.277869325083327e-14 1.4325423452274115e-21
1.0521189612883777 4.601680457086257e-22 1.285140879214627e-14 1.2851407295224666e-14 1.4969216051255706e-21
1.0531058218030118 4.610397697049506e-22 1.2887831114452448e-14 1.2887829584309658e-14 1.5301427933032306e-21
1.0540936079674168 4.619079785461215e-22 1.2924212102300753e-14 1.2924210538224512e-14 1.56407624458312e-21
1.058054026499678 4.653835465927202e-22 1.3070382651570067e-14 1.3070380944419856e-14 1.7071502103198633e-21
1.0590464539527713 4.662531146406563e-22 1.3107087220225233e-14 1.3107085475396932e-14 1.7448282985753363e-21
1.06003981227728 4.671229503007709e-22 1.314385667553897e-14 1.3143854892237926e-14 1.7833010439142043e-21
1.0620293250338977 4.688634189713251e-22 1.3217590477590594e-14 1.3217588614896104e-14 1.8626944915255893e-21
1.0660195594769086 4.723475081494933e-22 1.3365839290461959e-14 1.3365837258723695e-14 2.0317382639665044e-21
1.070024785945596 4.758357304507065e-22 1.3515132906140587e-14 1.351513069075006e-14 2.2153905302670027e-21
1.0740450607676866 4.793280061308418e-22 1.3665475250498955e-14 1.3665472835653073e-14 2.414845884141059e-21
1.07808044048254 4.828242594537987e-22 1.3816870363431176e-14 1.381686773204052e-14 2.6313906571929834e-21
1.0861967418109137 4.898230368393997e-22 1.4122680540090734e-14 1.4122677418698155e-14 3.121392576070976e-21
1.0902777775684922 4.933131981401559e-22 1.4276749125154583e-14 1.4276745727211447e-14 3.3979431323473145e-21
1.0943741465085532 4.968068638529841e-22 1.4431877876051844e-14 1.4431874178268206e-14 3.697783642919037e-21
1.1026131145906286 5.038044987346582e-22 1.474533446459605e-14 1.4745330089714284e-14 4.374881766227075e-21
1.1109141095355224 5.108155671038846e-22 1.5063088915027804e-14 1.5063083745808315e-14 5.1692194886905076e-21
1.1192775983109025 5.178342436549395e-22 1.5385018084563013e-14 1.5385011984705325e-14 6.0998576846587616e-21
1.1277040513999907 5.24834908755979e-22 1.571040162607785e-14 1.571039443733626e-14 7.188741584390755e-21
1.1361939428280308 5.318475129784093e-22 1.604017253619655e-14 1.6040164075094335e-14 8.461102215765796e-21
1.1447477501889525 5.388719973182292e-22 1.637437935114473e-14 1.6374369405235436e-14 9.94590929565865e-21
1.1533659546722406 5.4591093172899185e-22 1.6713151568662238e-14 1.6713139892265454e-14 1.1676396785011341e-20
1.1707974979042381 5.60053506811687e-22 1.7405268995805313e-14 1.7405252963569628e-14 1.6032235688034864e-20
1.1884924949847024 5.742549204076602e-22 1.811634579763647e-14 1.8116323894895494e-14 2.1902740975043258e-20
1.2064549276569216 5.886116082324009e-22 1.8849913316043982e-14 1.8849883540937642e-14 2.9775106346486016e-20
1.2246888378427687 6.030285579904873e-22 1.960347541680671e-14 1.9603435138169757e-14 4.0278636944045286e-20
1.2431983285522175 6.174934202129145e-22 2.0377090997711487e-14 2.0377036774379086e-14 5.422333240287988e-20
1.2619875648066055 6.320265409661374e-22 2.1171899547922547e-14 2.1171826901460124e-14 7.264646241856532e-20
1.3004222497298317 6.612042144534083e-22 2.2823878020041557e-14 2.2823749458172794e-14 1.285618687655196e-19
1.3400274889804893 6.906447629106526e-22 2.4566193224973967e-14 2.4565969881163838e-14 2.23343810135256e-19
1.3808389325824078 7.204523195136174e-22 2.6406916998853483e-14 2.640653592987187e-14 3.810689816176957e-19
1.4228933163050095 7.50877153968389e-22 2.836028972370358e-14 2.8359650848094203e-14 6.388756093653995e-19
1.466228494730424 7.824562312666173e-22 3.045307428596167e-14 3.045202128379763e-14 1.053002164037296e-18
1.5108834753276823 8.151196306796067e-22 3.26905145777178e-14 3.268880757658306e-14 1.707001134746584e-18
1.5568984535646726 8.488350667845298e-22 3.5079470793432886e-14 3.5076746286222976e-14 2.724507209910458e-18
1.6043148490894465 8.838031719127715e-22 3.763696473859399e-14 3.763267527665978e-14 4.289461934211853e-18
1.6531753430134553 9.202363805042498e-22 4.038199315617195e-14 4.037533944660691e-14 6.653709565045037e-18
1.7035239163302658 9.583854130832025e-22 4.333690212627318e-14 4.332673092076958e-14 1.0171205503597753e-17
1.755405889504358 9.989771009986082e-22 4.6548159888144955e-14 4.653282978774744e-14 1.5330100397509917e-17
1.8088679632656115 1.042005117598177e-21 5.0031802789170214e-14 5.0009013316875846e-14 2.2789472294380754e-17
1.8639582606462262 1.087444680398524e-21 5.3803780120558636e-14 5.3770352021664803e-14 3.342809889384889e-17
1.9207263702978936 1.1354240281685413e-21 5.788859548713963e-14 5.784019615791916e-14 4.839932922049123e-17
1.979223391128241 1.1861378691949885e-21 6.231597861720678e-14 6.224678224105751e-14 6.919637614925922e-17
2.039501978296691 1.2397511308066944e-21 6.711631088673713e-14 6.70185879061101e-14 9.772298062704123e-17
2.1016163906111602 1.296805024342602e-21 7.234317487068582e-14 7.220679295719856e-14 1.3638191348727425e-16
2.1656225393682647 1.35754410700127e-21 7.80380025513091e-14 7.78498496566393e-14 1.8815289466982563e-16
2.231578038680979 1.421788003298824e-21 8.422021723355966e-14 8.39635371960241e-14 2.566800375355698e-16
2.299542257339062 1.489553446761782e-21 9.092156837390669e-14 9.057520584041948e-14 3.4636253348722043e-16
2.369576372248914 1.5609992195369335e-21 9.818447668106391e-14 9.77220261646735e-14 4.624505163904504e-16
2.4417434235010123 1.6363241605089174e-21 1.0605686919441147e-13 1.0544575374040736e-13 6.111154540040916e-16
2.5161083711144245 1.7160197153301044e-21 1.1460961373307732e-13 1.1381006990525603e-13 7.995438278212682e-16
2.5927381535095444 1.8009624133660956e-21 1.2394606420873378e-13 1.2291007434626718e-13 1.035989862466646e-15
2.6717017477616296 1.8919135397805017e-21 1.3417101120423604e-13 1.3284125635925023e-13 1.3297548449857815e-15
2.753070231689431 1.990040573308064e-21 1.4542820862713936e-13 1.4373701566409377e-13 1.6911929630456212e-15
2.836916847834745 2.098631558855589e-21 1.580346208938472e-13 1.5590286716842371e-13 2.131753725423499e-15
2.9233170693905177 2.225020215191167e-21 1.7265506231866713e-13 1.6999168389766446e-13 2.6633784210026286e-15
2.967498994190263 2.3019392996860417e-21 1.8132341126827198e-13 1.7836186382424376e-13 2.961547444028177e-15
3.0123486681368425 2.3843725461160323e-21 1.9065525674412031e-13 1.8736646458672437e-13 3.2887921573959263e-15
3.0578761833420214 2.5162881813805843e-21 2.0424418809211404e-13 2.0059566809320867e-13 3.648519998905346e-15
3.1040917844459814 2.6703505042584376e-21 2.2002511519957477e-13 2.1598553957955922e-13 4.039575620015532e-15
3.127460860933648 2.8100439063887534e-21 2.332783431728737e-13 2.2902954794195987e-13 4.2487952309138835e-15
3.1510058709225794 2.986676183814783e-21 2.498082541664125e-13 2.4534149462956744e-13 4.466759536845036e-15
3.162844764501044 3.144472347749556e-21 2.639946281680681e-13 2.5941511677447205e-13 4.579511393596027e-15
3.1747281389236908 3.322958989948538e-21 2.8002767584429053e-13 2.7533315178794266e-13 4.694524056347879e-15
3.1986289994194426 3.8051280645645675e-21 3.230744258931553e-13 3.1814238424576076e-13 4.932041647394565e-15
3.2227097969389145 4.9149539663844385e-21 4.204458662596644e-13 4.152622619909514e-13 5.183604268713047e-15
3.2348180950136065 5.954195400824573e-21 5.112606640768406e-13 5.059428418064132e-13 5.31782227042729e-15
3.240889293275058 6.729820233207136e-21 5.789447135020669e-13 5.735560945834569e-13 5.388618918610079e-15
3.2469718861334385 7.628413349281318e-21 6.574794434065356e-13 6.520175708689557e-13 5.461872537579962e-15
3.2714166318528037 1.2345916350819221e-20 1.0720835208189843e-12 1.0663190243586502e-12 5.764496460334155e-15
3.2744851364798273 1.2641271374359964e-20 1.0987609369998336e-12 1.0929608034683811e-12 5.800133531452558e-15
3.2775565192852394 1.294453801414699e-20 1.1261757666259148e-12 1.1203398203475646e-12 5.835946278350175e-15
3.283707930232385 1.2656201967627293e-20 1.1031570670762536e-12 1.0972571291380228e-12 5.899937938230457e-15
3.2898708863219004 1.173535895516893e-20 1.024813092750102e-12 1.0188549676530845e-12 5.9581250970174405e-15
3.29141343181113 1.1517773667262487e-20 1.0062836357561984e-12 1.000310900819155e-12 5.972734937043607e-15
3.292184975758714 1.1410796004034908e-20 9.971709157336873e-13 9.911908664088352e-13 5.980049324852685e-15
3.295272960557952 1.0742776410012481e-20 9.396743336085765e-13 9.33665841919423e-13 6.008491689153226e-15
3.3076538914384823 8.412210662629142e-21 7.385835527320563e-13 7.324608474655823e-13 6.1227052664739934e-15
3.310756385682612 7.933307651167038e-21 6.971896878787087e-13 6.910381992389651e-13 6.151488639743613e-15
3.313861789986515 7.489660991245015e-21 6.58818801990512e-13 6.526384378487414e-13 6.1803641417705235e-15
3.3200813396944477 6.870518576200072e-21 6.054909760050587e-13 5.992484809550702e-13 6.242495049988616e-15
3.345076488085796 5.7925479993207216e-21 5.143338729656653e-13 5.078144386626697e-13 6.519434302995734e-15
3.3482140837626964 5.8375216162013016e-21 5.188133630668869e-13 5.122564106395213e-13 6.55695242736563e-15
3.3513546224236106 5.88290266419495e-21 5.233370486104671e-13 5.167424117051038e-13 6.594636905363411e-15
3.3576445397418455 6.1968863436852024e-21 5.523033547282318e-13 5.45629919945517e-13 6.673434782714697e-15
3.3702598118196083 7.332051058479542e-21 6.559312096107872e-13 6.490924979196862e-13 6.838711691100795e-15
3.382922481734668 7.605832967114636e-21 6.829804350050473e-13 6.759811435572817e-13 6.999291447765582e-15
3.389271646505754 7.74696257977854e-21 6.969590627553498e-13 6.898783923763977e-13 7.080670378951975e-15
3.395632727569191 7.901915461794752e-21 7.122337065471663e-13 7.05069170242127e-13 7.164536305039461e-15
3.421196662673239 8.651710355561799e-21 7.856867774423774e-13 7.781751483055407e-13 7.511629136836677e-15
3.4276182099114902 8.519440741850535e-21 7.751271713894617e-13 7.675381554350878e-13 7.589015954373899e-15
3.4340518103208963 7.91223291858921e-21 7.212325848718592e-13 7.135704098589783e-13 7.66217501288097e-15
3.4469541582030403 7.042337503481515e-21 6.443499148777187e-13 6.365473922808344e-13 7.802522596884305e-15
3.472904465399547 6.808656574336543e-21 6.276589107763653e-13 6.195329824889487e-13 8.125928287416397e-15
3.4990501388274233 6.450524762758811e-21 5.991211421039881e-13 5.906644333355487e-13 8.456708768439278e-15
3.5253949054701885 5.156932903451491e-21 4.825792970738559e-13 4.738014998319366e-13 8.777797241919315e-15
3.5519380250092896 3.9264452565561605e-21 3.701982482302802e-13 3.610979420574022e-13 9.100306172877984e-15
3.578680990867387 3.452536513634531e-21 3.2796741727748587e-13 3.185136636199848e-13 9.453753657501055e-15
3.605625307711299 3.276417938588388e-21 3.1358069727543636e-13 3.0375483290089913e-13 9.825864374537204e-15
3.660119384959845 3.179487617915576e-21 3.089027840005106e-13 2.982957743012824e-13 1.0607009699228177e-14
3.715437065384467 3.1215519507459906e-21 3.0785762135124175e-13 2.9642806411468637e-13 1.142955723655532e-14
3.8285932144167436 3.1613447840621456e-21 3.2127765555877734e-13 3.08083560322073e-13 1.3194095236704503e-14
3.94519561050918 3.24095484955474e-21 3.393993100483351e-13 3.242861122313202e-13 1.511319781701488e-14
4.06534921144712 3.334920098126055e-21 3.598758662815089e-13 3.4269255708969676e-13 1.7183309191811986e-14
4.189162171576248 3.435535354527127e-21 3.8202433496921896e-13 3.6261747368321145e-13 1.9406861286007488e-14
4.316745939156006 3.539353821879123e-21 4.055551329925937e-13 3.8378125374367543e-13 2.177387924891824e-14
4.448215356677963 3.6445719600252405e-21 4.3033014285820946e-13 4.0608059551656684e-13 2.424954734164255e-14
4.58368876423945 3.750660151294148e-21 4.563439197656228e-13 4.295087676267018e-13 2.683515213892097e-14
4.723288106065518 3.857892503341707e-21 4.83686529179774e-13 4.541413725983564e-13 2.954515658141753e-14
4.867139040275056 3.966568111806869e-21 5.124577933610967e-13 4.801533280214802e-13 3.230446533961649e-14
4.940699165968905 4.023487670325384e-21 5.276677099433899e-13 4.939571184318494e-13 3.3710591511540536e-14
5.015371051989984 4.0791068588303305e-21 5.430472071589073e-13 5.079175371376625e-13 3.5129670021245034e-14
5.091171501069577 4.140125987693591e-21 5.59500806975069e-13 5.22908000461433e-13 3.65928065136361e-14
5.129500256944802 4.170066181894784e-21 5.677896040525748e-13 5.304620451547992e-13 3.7327558897775814e-14
5.168117569889187 4.200234650081234e-21 5.762028091998752e-13 5.381310154343614e-13 3.8071793765513994e-14
5.20702561229733 4.235336362549127e-21 5.853923650007906e-13 5.465064564213532e-13 3.888590857943728e-14
5.246226572918644 4.2702159480792915e-21 5.946566968040891e-13 5.549524935310096e-13 3.9704203273079536e-14
5.265937586045735 4.287573079477311e-21 5.993171089596586e-13 5.592023062306863e-13 4.0114802728972225e-14
5.285722656980489 4.304875545293057e-21 6.039964768469789e-13 5.634701688977119e-13 4.0526307949267144e-14
5.305582063971359 4.3221237428843315e-21 6.086949042617688e-13 5.677562325317542e-13 4.0938671730014715e-14
5.3255160863122235 4.3402759480239276e-21 6.135479029505019e-13 5.721926306390826e-13 4.135527231141933e-14
5.365609099470188 4.3838468078745965e-21 6.243725944660997e-13 5.821552860430418e-13 4.2217308423057856e-14
5.406003951863644 4.42762175334033e-21 6.353547840621058e-13 5.922712866968034e-13 4.308349736530227e-14
5.446702915881641 4.471631796114379e-21 6.465009337539487e-13 6.025474724105867e-13 4.395346134336183e-14
5.487708281020852 4.5177304447492724e-21 6.580831403041956e-13 6.132524333822748e-13 4.4830706921920866e-14
5.529022354014368 4.580339690192683e-21 6.722262486218665e-13 6.264811265894947e-13 4.574512203237156e-14
5.570647458961463 4.644514892748022e-21 6.867765656458366e-13 6.401128096933195e-13 4.666375595251712e-14
5.612585937458331 4.710406262827434e-21 7.017635429314529e-13 6.541773191413884e-13 4.7586223790064663e-14
5.654840148729818 4.780916956559962e-21 7.176306282675047e-13 6.691137136916118e-13 4.851691457589272e-14
5.67608639626678 4.82908906025049e-21 7.275848462889898e-13 6.785806205243338e-13 4.900422576465571e-14
5.686739436050992 4.853627230384754e-21 7.326544319009472e-13 6.83406107927428e-13 4.9248323973519174e-14
5.6974124697621304 4.87847740636903e-21 7.377876697283678e-13 6.882949605818505e-13 4.9492709146517184e-14
5.718818669136295 4.9291467941946396e-21 7.482513538803438e-13 6.982690379742369e-13 4.9982315906107085e-14
5.740305295436557 4.984584457101243e-21 7.595098013675659e-13 7.090329796336153e-13 5.04768217339504e-14
5.7835210386641895 5.128292350458853e-21 7.872896244732151e-13 7.357909249089476e-13 5.149869956426758e-14
5.827062130521658 5.2897249241202025e-21 8.18186237868147e-13 7.65651192783489e-13 5.2535045084658014e-14
5.8489554468988025 5.404373515644548e-21 8.390601653724498e-13 7.859641865085484e-13 5.3095978863901344e-14
5.870931020387893 5.525421708659196e-21 8.610767052963414e-13 8.074177681480457e-13 5.365893714829561e-14
5.892989160043636 5.6533781161743285e-21 8.843274556302449e-13 8.301035833005345e-13 5.4223872329710397e-14
5.915130176081913 5.798078500661893e-21 9.103697758592292e-13 8.55559885314902e-13 5.480989054432734e-14
5.95966208400165 6.205040718777828e-21 9.816026101424715e-13 9.254494789282284e-13 5.615313121424306e-14
6.004529249263818 6.786919738881326e-21 1.0817355712644102e-12 1.0240664623381312e-12 5.766910892627913e-14
6.027089341400364 7.191134504010666e-21 1.1504678167104077e-12 1.0919188122336616e-12 5.854900447674632e-14
6.049734195844842 7.663991311689707e-21 1.2307241721256379e-12 1.1712422773574026e-12 5.9481894768235e-14
6.095279466722835 9.027299710070092e-21 1.4605650938234594e-12 1.398776577882756e-12 6.178851594070334e-14
6.141167624020661 1.1104619470826854e-20 1.8101896007429077e-12 1.7453905928467049e-12 6.479900789620258e-14
6.164241091010745 1.2428197587331056e-20 2.033560972332025e-12 1.966864392627152e-12 6.669657970487316e-14
6.187401249150058 1.391552762587682e-20 2.2854798230530398e-12 2.216836222648662e-12 6.864360040437779e-14
6.1990139391386085 1.4637922942196382e-20 2.408637827014689e-12 2.3390038088095763e-12 6.963401820511234e-14
6.204828454712694 1.501673213458612e-20 2.473287747653831e-12 2.403153638905665e-12 7.013410874816577e-14
6.210648424152782 1.5290677791475585e-20 2.520769381609439e-12 2.450211014130299e-12 7.055836747914009e-14
6.233982942956859 1.6208074360473728e-20 2.6820474883718888e-12 2.610017660007459e-12 7.202982836443024e-14
6.239830258556775 1.631775384635595e-20 2.702729527298987e-12 2.6305013147998486e-12 7.222821249913884e-14
6.245683058788269 1.6315541068143405e-20 2.7048977691201416e-12 2.632470912768821e-12 7.242685635131997e-14
6.257405133728602 1.626331255755224e-20 2.7012993606469404e-12 2.6285282045976056e-12 7.277115604933483e-14
6.269149208991335 1.604898454543553e-20 2.6707030247604755e-12 2.5978217618344053e-12 7.28812629260702e-14
6.280915325867298 1.5551811213372677e-20 2.592825846624618e-12 2.520123862459378e-12 7.270198416524063e-14
6.304513850009849 1.4342582612846537e-20 2.40020533247525e-12 2.328123441541939e-12 7.208189093330994e-14
6.32820103803542 1.2869710805763753e-20 2.161814814737873e-12 2.0906312561224313e-12 7.118355861544175e-14
6.3519772230701035 1.1526402070969152e-20 1.943444442948279e-12 1.873070400463445e-12 7.037404248483358e-14
6.375842739491607 1.039300400585315e-20 1.7589282509104555e-12 1.6892724745144524e-12 6.965577639600297e-14
6.399797922933955 9.493704897426051e-21 1.6127662338926878e-12 1.5434992802687104e-12 6.926695362397762e-14
6.42384311029221 8.742573299556845e-21 1.4907459593713287e-12 1.4218020557034085e-12 6.894390366791984e-14
6.447978639727206 8.196986931551491e-21 1.4029663861952675e-12 1.3340890409340689e-12 6.887734526119822e-14
6.472204850670314 7.740238317050444e-21 1.3297684362222614e-12 1.2609068969845136e-12 6.886153923774785e-14
6.496522083828205 7.442013998149962e-21 1.283337351934276e-12 1.2142841668560829e-12 6.905318507819317e-14
