Dust emission spectrum from A.P. Jones, M. Kohler, N. Ysard, M. Bocchio, and L. Verstraete (2017), A&A, 602A, 46J 
inside the DustPedia framework.

lambda    nu*dP/dnu     j_nu    j_nu(carb.) j_nu(sil)
 (um)   (erg s-1 H-1) (Jy cm2 sr-1 H-1)
0.9927057738263894 6.845188955931753e-20 1.803746169785099e-12 1.8037461106855717e-12 5.909952737843609e-20
1.0001793341362166 6.959967114156875e-20 1.8477980202550888e-12 1.8477979491521285e-12 7.110296058034545e-20
1.0077091589558085 7.075241029214631e-20 1.8925435337135435e-12 1.8925434482839455e-12 8.542959873282004e-20
1.0114953028030835 7.133059367326186e-20 1.915177989890673e-12 1.9151778962962757e-12 9.35943970254385e-20
1.0152956718711033 7.190996306834292e-20 1.937987776901002e-12 1.9379876743959305e-12 1.0250507189667658e-19
1.0229392996569957 7.307162684866245e-20 1.984120632781339e-12 1.9841205099514304e-12 1.22829908859799e-19
1.0267826658714554 7.365260476473856e-20 2.007409947285516e-12 2.0074098128913373e-12 1.3439417892209184e-19
1.0306404723013447 7.423467542283208e-20 2.030876152117464e-12 2.030876005119618e-12 1.4699784543966867e-19
1.03451277320114 7.481782417189793e-20 2.0545199577309754e-12 2.0545197970014306e-12 1.6072954510809952e-19
1.0383996230291617 7.540203693799723e-20 2.0783420907272595e-12 2.078341915042225e-12 1.756850346495369e-19
1.0403485208654093 7.569453809049527e-20 2.0903202616326834e-12 2.090320077978981e-12 1.8365370213136467e-19
1.0423010764483396 7.59873002379587e-20 2.102343294508065e-12 2.1023431025403406e-12 1.9196772474859913e-19
1.0462171883269815 7.657360119292253e-20 2.126524329937165e-12 2.1265241202479137e-12 2.0968925092564958e-19
1.0471985131304309 7.672033711464285e-20 2.1325977783699693e-12 2.1325975640116037e-12 2.1435836498490344e-19
1.048180758391296 7.686713693493274e-20 2.138682527229162e-12 2.1386823081023e-12 2.191268619267614e-19
1.0501480137395462 7.716092754175748e-20 2.150885976010007e-12 2.1508857470399236e-12 2.289700836650295e-19
1.0521189612883777 7.745497157945456e-20 2.163134776598381e-12 2.163134537362919e-12 2.392354623471139e-19
1.0531058218030118 7.760189524233614e-20 2.1692708216575358e-12 2.169270577125373e-12 2.4453216286041444e-19
1.0540936079674168 7.774824961326517e-20 2.175400545682778e-12 2.175400295740667e-12 2.499421113696234e-19
1.058054026499678 7.833426685378527e-20 2.200032317440745e-12 2.2000320446920957e-12 2.727486494812974e-19
1.0590464539527713 7.848092031020162e-20 2.2062185438099415e-12 2.2062182650561626e-12 2.787537792608373e-19
1.06003981227728 7.862763311716269e-20 2.2124161096418355e-12 2.2124158247566473e-12 2.848851878817418e-19
1.0620293250338977 7.892123618798062e-20 2.224845312535948e-12 2.2248450149989737e-12 2.9753697356865618e-19
1.0660195594769086 7.950914814406534e-20 2.2498403778575094e-12 2.2498400533874634e-12 3.244700461518379e-19
1.070024785945596 8.009799393928614e-20 2.2750183820356025e-12 2.275018028312188e-12 3.537234148081666e-19
1.0740450607676866 8.068776549232912e-20 2.3003802161572446e-12 2.300379830671128e-12 3.8548611614999375e-19
1.07808044048254 8.127845543554076e-20 2.3259267944887623e-12 2.325926374527123e-12 4.199616394079302e-19
1.0861967418109137 8.246166837358408e-20 2.3775521191439338e-12 2.3775516212002807e-12 4.979436523978297e-19
1.0902777775684922 8.305214270896064e-20 2.403573653072002e-12 2.403573111132903e-12 5.41939099404516e-19
1.0943741465085532 8.364347851292555e-20 2.429782184700099e-12 2.429781595072658e-12 5.896274401433792e-19
1.1026131145906286 8.482872149828071e-20 2.482764393406101e-12 2.482763696131388e-12 6.972747128191559e-19
1.1109141095355224 8.60173792197053e-20 2.536507332323688e-12 2.536506508828386e-12 8.234953030646978e-19
1.1192775983109025 8.72085252626429e-20 2.590992686817908e-12 2.5909917155217205e-12 9.712961879879775e-19
1.1277040513999907 8.83979336458935e-20 2.6461026454665035e-12 2.646101501329462e-12 1.1441370414805905e-18
1.1361939428280308 8.959064514961107e-20 2.7019951598180357e-12 2.701993813825043e-12 1.3459929937792705e-18
1.1447477501889525 9.078669654601599e-20 2.7586807566172984e-12 2.758679175192206e-12 1.5814250921304781e-18
1.1533659546722406 9.198654987021793e-20 2.81618311871884e-12 2.8161812630566265e-12 1.8556622131288366e-18
1.1707974979042381 9.440129990247856e-20 2.9337911438322627e-12 2.9337885984713304e-12 2.5453609330754133e-18
1.1884924949847024 9.683203819414043e-20 3.0548152499410248e-12 3.0548117760944337e-12 3.473846591220971e-18
1.2064549276569216 9.92950674164136e-20 3.179861537442083e-12 3.1798568199137063e-12 4.717528376859756e-18
1.2246888378427687 1.0177509900176167e-19 3.3085425638425184e-12 3.308536188879263e-12 6.374963255745747e-18
1.2431983285522175 1.042703412999309e-19 3.440888863720217e-12 3.4408802908972255e-12 8.572822990708618e-18
1.2619875648066055 1.0678470437637459e-19 3.5771204020249178e-12 3.5771089289371746e-12 1.1473087742488182e-17
1.3004222497298317 1.1185669445618797e-19 3.861142282802236e-12 3.861122023904774e-12 2.025889746214226e-17
1.3400274889804893 1.17007738330925e-19 4.161958307684377e-12 4.16192319271591e-12 3.5114968466845864e-17
1.3808389325824078 1.2225768331904047e-19 4.4811410948854525e-12 4.481081320497401e-12 5.977438805211689e-17
1.4228933163050095 1.2764993809767958e-19 4.82128029669075e-12 4.821180319579141e-12 9.997711160949554e-17
1.466228494730424 1.3327470192794414e-19 5.187030578925927e-12 5.186866192233299e-12 1.6438669262798043e-16
1.5108834753276823 1.391207421454279e-19 5.579461563667888e-12 5.579195732857797e-12 2.6583081009057634e-16
1.5568984535646726 1.4518157147113824e-19 5.999861334026712e-12 5.999438103183698e-12 4.232308430158569e-16
1.6043148490894465 1.5148773818863227e-19 6.451140753653726e-12 6.450476093545188e-12 6.646601085398948e-16
1.6531753430134553 1.580701768274929e-19 6.936466471087567e-12 6.935438094719602e-12 1.0283763679648148e-15
1.7035239163302658 1.6496357128032012e-19 7.459431294949266e-12 7.45786333330239e-12 1.5679616468779116e-15
1.755405889504358 1.7227954560040007e-19 8.027507163125208e-12 8.025150128095948e-12 2.3570350292599458e-15
1.8088679632656115 1.8000551413527533e-19 8.642952162210226e-12 8.639457570434252e-12 3.4945917759748727e-15
1.8639582606462262 1.8812230197945782e-19 9.307775516237488e-12 9.302663431638433e-12 5.112084599053439e-15
1.9207263702978936 1.9663365310308253e-19 1.0025193867002805e-11 1.0017812572739221e-11 7.381294263589981e-15
1.979223391128241 2.0555151924426448e-19 1.0799034758626584e-11 1.0788511124848007e-11 1.0523633778576489e-14
2.039501978296691 2.148793627148506e-19 1.1632907405964343e-11 1.161808733956533e-11 1.48200663990152e-14
2.1016163906111602 2.246809669758026e-19 1.2533984815708973e-11 1.251336130235576e-11 2.0623513353215367e-14
2.1656225393682647 2.3496755199098665e-19 1.350703695532326e-11 1.3478667568550609e-11 2.836938677265197e-14
2.231578038680979 2.4567617767599996e-19 1.455273290038769e-11 1.4514145594702324e-11 3.858730568536758e-14
2.299542257339062 2.567759508986758e-19 1.5673470614406603e-11 1.5621557621079936e-11 5.191299332666336e-14
2.369576372248914 2.682563324287053e-19 1.6872915300820736e-11 1.6803814681655714e-11 6.91006191650217e-14
2.4417434235010123 2.8011228654447134e-19 1.8155224283038753e-11 1.806419328242634e-11 9.103100061241741e-14
2.5161083711144245 2.923846538075319e-19 1.9527801420343557e-11 1.940907846571348e-11 1.1872295463008437e-13
2.5927381535095444 3.0517395291943823e-19 2.100272059131352e-11 2.0849382427512444e-11 1.533381638010726e-13
2.6717017477616296 3.185552673637793e-19 2.2591350739840253e-11 2.2395175690935165e-11 1.9617504890509077e-13
2.753070231689431 3.3266322485910305e-19 2.4310367093152463e-11 2.4061700845959665e-11 2.486662471927996e-13
2.836916847834745 3.4795729361650817e-19 2.6202455000686414e-11 2.589007350472053e-11 3.123814959658792e-13
2.9233170693905177 3.6550151518750306e-19 2.836184878295308e-11 2.7972917446302775e-11 3.889313366502973e-13
2.967498994190263 3.7616673808013764e-19 2.9630597194136234e-11 2.919893623968526e-11 4.3166095445096416e-13
3.0123486681368425 3.875266813798051e-19 3.098676800905767e-11 3.050829718213749e-11 4.784708269201845e-13
3.0578761833420214 4.0619897956882954e-19 3.2970699222678856e-11 3.24408581419861e-11 5.298410806927704e-13
3.1040917844459814 4.279765360772051e-19 3.526338078201161e-11 3.467782855792273e-11 5.855522240888851e-13
3.127460860933648 4.481953345911639e-19 3.720734214633799e-11 3.659203615226872e-11 6.153059940692696e-13
3.1510058709225794 4.738424013506582e-19 3.96326001703468e-11 3.8986334822987074e-11 6.462653473597138e-13
3.162844764501044 4.970755576145056e-19 4.173204992493961e-11 4.106978401271376e-11 6.622659122258537e-13
3.1747281389236908 5.233155284003583e-19 4.410010222649441e-11 4.342152512034512e-11 6.785771061492869e-13
3.1986289994194426 5.94250958002667e-19 5.0454881895056234e-11 4.974265091605033e-11 7.122309790059086e-13
3.2227097969389145 7.584938522554397e-19 6.488475923585568e-11 6.413692283493496e-11 7.478364009207294e-13
3.2348180950136065 9.12506594539115e-19 7.83529421009523e-11 7.758611838092727e-11 7.668237200250378e-13
3.240889293275058 1.0275653423894587e-18 8.83981298369412e-11 8.762129067881807e-11 7.768391581231462e-13
3.2469718861334385 1.1609255673644213e-18 1.0005811967951187e-10 9.927091753113538e-11 7.872021483765078e-13
3.2714166318528037 1.859495769708306e-18 1.6147321228242454e-10 1.6064323033179172e-10 8.299819506327538e-13
3.2744851364798273 1.903089135325106e-18 1.6541374198842302e-10 1.6457873142091715e-10 8.350105675058575e-13
3.2775565192852394 1.9478385515885583e-18 1.694620983538677e-10 1.686220352056867e-10 8.400631481809641e-13
3.283707930232385 1.904597569220963e-18 1.6601112038165863e-10 1.651620477458341e-10 8.490726358245619e-13
3.2898708863219004 1.7675336328400625e-18 1.543533193769762e-10 1.534960716330381e-10 8.572477439381181e-13
3.29141343181113 1.7351355655340524e-18 1.515951412014929e-10 1.507358412499309e-10 8.592999515620045e-13
3.292184975758714 1.7192050719529327e-18 1.5023853684941065e-10 1.4937820952848218e-10 8.603273209284609e-13
3.295272960557952 1.620029050430722e-18 1.417044961460066e-10 1.408401770943747e-10 8.643190516318957e-13
3.3076538914384823 1.2736507060374947e-18 1.1182523846958201e-10 1.1094489858069275e-10 8.803398888892653e-13
3.310756385682612 1.2023577824925323e-18 1.0566481018433592e-10 1.0478043454385148e-10 8.843756404844487e-13
3.313861789986515 1.1362675612204761e-18 9.995037616509196e-11 9.906195254729227e-11 8.884236177996723e-13
3.3200813396944477 1.0439811756312058e-18 9.200487182343947e-11 9.110773014849542e-11 8.971416749440349e-13
3.345076488085796 8.829768297082806e-19 7.840157606222014e-11 7.746555254861185e-11 9.360235136082656e-13
3.3482140837626964 8.895085941060495e-19 7.905562934520942e-11 7.811433732477014e-11 9.41292020439294e-13
3.3513546224236106 8.960981944887322e-19 7.971598565163016e-11 7.876940267276153e-11 9.465829788686008e-13
3.3576445397418455 9.423777572159938e-19 8.399030865912884e-11 8.303265918878976e-11 9.576494703390977e-13
3.3702598118196083 1.1098515357213522e-18 9.928821478570822e-11 9.830735488535517e-11 9.80859900353058e-13
3.382922481734668 1.149836310737625e-18 1.0325176835826578e-10 1.0224838867781735e-10 1.0033796804484258e-12
3.389271646505754 1.170435741615559e-18 1.0529879150585264e-10 1.0428400516297043e-10 1.0147863428822084e-12
3.395632727569191 1.1931424299096455e-18 1.0754307096829234e-10 1.0651652931756441e-10 1.0265416507279374e-12
3.421196662673239 1.3034066043055388e-18 1.1836611404536932e-10 1.1729095410868397e-10 1.0751599366853612e-12
3.4276182099114902 1.283481331187866e-18 1.1677541800223074e-10 1.15689452277346e-10 1.0859657248847667e-12
3.4340518103208963 1.1931894639828003e-18 1.0876412893866458e-10 1.0766796431549628e-10 1.0961646231683084e-12
3.4469541582030403 1.0635222075580044e-18 9.73086625813918e-11 9.619296598265516e-11 1.1156965987366351e-12
3.472904465399547 1.0273085070480435e-18 9.470287295668163e-11 9.354211619470468e-11 1.160756761976956e-12
3.4990501388274233 9.728088951602813e-19 9.035394758613049e-11 8.914717674497867e-11 1.2067708411518275e-12
3.5253949054701885 7.805417618848435e-19 7.304211666881932e-11 7.179079926692667e-11 1.2513174018926073e-12
3.5519380250092896 5.974822170411744e-19 5.633260000965536e-11 5.5036634489630177e-11 1.295965520025177e-12
3.578680990867387 5.262887498631841e-19 4.999384115220293e-11 4.8648955213771296e-11 1.3448859384316491e-12
3.605625307711299 4.991173707208208e-19 4.776972171027416e-11 4.6373388297913965e-11 1.3963334123602074e-12
3.660119384959845 4.824125555222431e-19 4.6868740924777086e-11 4.5364664826654063e-11 1.5040760981230383e-12
3.715437065384467 4.71320711061439e-19 4.648318377859272e-11 4.4866026374936165e-11 1.6171574036565756e-12
3.8285932144167436 4.717919047846294e-19 4.794674653805049e-11 4.6088300039944714e-11 1.8584464981057685e-12
3.94519561050918 4.776779710087693e-19 5.002339782917321e-11 4.7904452569413855e-11 2.1189452597593544e-12
4.06534921144712 4.852406286097098e-19 5.2362991147532614e-11 4.9965257914223677e-11 2.397733233308938e-12
4.189162171576248 4.933698039743334e-19 5.486168873471869e-11 5.2166972777802986e-11 2.6947159569157006e-12
4.316745939156006 5.015848338742304e-19 5.747385377281414e-11 5.446577944180527e-11 3.008074331008864e-12
4.448215356677963 5.096534458940675e-19 6.017695427208792e-11 5.684431132108716e-11 3.3326429510007564e-12
4.58368876423945 5.175267534516686e-19 6.296763175736467e-11 5.929944931881928e-11 3.66818243854537e-12
4.723288106065518 5.252713960505913e-19 6.585634467861723e-11 6.184013634456705e-11 4.016208334050171e-12
4.867139040275056 5.329604026496307e-19 6.885541964543719e-11 6.44892533927741e-11 4.366166252663087e-12
4.940699165968905 5.370783243868165e-19 7.043612723846269e-11 6.589329737888111e-11 4.542829859581556e-12
5.015371051989984 5.409559921016819e-19 7.201690244293583e-11 6.729695043836201e-11 4.719952004573825e-12
5.091171501069577 5.455337826569011e-19 7.372398630765721e-11 6.882238319952121e-11 4.901603108136e-12
5.129500256944802 5.47722185482996e-19 7.457698493525924e-11 6.958464427937084e-11 4.992340655888402e-12
5.168117569889187 5.499292042394856e-19 7.544120239513647e-11 7.035718223017565e-11 5.084020164960809e-12
5.20702561229733 5.528080238244948e-19 7.640705926441769e-11 7.122219306208257e-11 5.184866202335151e-12
5.246226572918644 5.556407810992068e-19 7.737676864953787e-11 7.209087510749693e-11 5.285893542040915e-12
5.265937586045735 5.570402017906786e-19 7.786309810308644e-11 7.252663998480276e-11 5.3364581182836846e-12
5.285722656980489 5.584284996336914e-19 7.835042913574706e-11 7.296338168634993e-11 5.387047449397121e-12
5.305582063971359 5.598058205265057e-19 7.883877709229241e-11 7.340112248571818e-11 5.43765460657425e-12
5.3255160863122235 5.613046211528884e-19 7.934686120166524e-11 7.385812625756411e-11 5.488734944101129e-12
5.365609099470188 5.6529293491398845e-19 8.051226054970748e-11 7.491777875440448e-11 5.594481795302985e-12
5.406003951863644 5.692910444291054e-19 8.169211571175117e-11 7.59917409077699e-11 5.700374803981271e-12
5.446702915881641 5.733037285611414e-19 8.288727979827557e-11 7.708092148213922e-11 5.806358316136363e-12
5.487708281020852 5.775854165155149e-19 8.413499418412775e-11 7.822209987361752e-11 5.912894310510246e-12
5.529022354014368 5.8410630625938545e-19 8.57254303417404e-11 7.970148007855785e-11 6.0239502631825526e-12
5.570647458961463 5.908142641991685e-19 8.736270647658583e-11 8.12275810400808e-11 6.135125436505026e-12
5.612585937458331 5.977296123931891e-19 8.905067357317575e-11 8.28043102770262e-11 6.246363296149593e-12
5.654840148729818 6.052464677291783e-19 9.084939287581846e-11 8.449115565563824e-11 6.3582372201801985e-12
5.67608639626678 6.107470887303212e-19 9.201949293771128e-11 8.56025944843551e-11 6.4168984533561934e-12
5.686739436050992 6.135548989330629e-19 9.261603633334896e-11 8.616979347288183e-11 6.446242860467138e-12
5.6974124697621304 6.164024433648307e-19 9.322050394479359e-11 8.674490868216672e-11 6.475595262626865e-12
5.718818669136295 6.222210989759433e-19 9.44540301112567e-11 8.791970966685946e-11 6.534320444397263e-12
5.740305295436557 6.286742629437096e-19 9.579219063948932e-11 8.919862989258491e-11 6.593560746904394e-12
5.7835210386641895 6.459778696161578e-19 9.916978979223132e-11 9.245386918669221e-11 6.71592060553911e-12
5.827062130521658 6.656103841786716e-19 1.0295303894421262e-10 9.611338400255621e-11 6.839654941656392e-12
5.8489554468988025 6.7996554954944655e-19 1.0556857419291146e-10 9.86617078157001e-11 6.906866377211368e-12
5.870931020387893 6.951582211003545e-19 1.0833282638801734e-10 1.0135862434537173e-10 6.974202042645625e-12
5.892989160043636 7.112554054715553e-19 1.1125784798020099e-10 1.0421619341589129e-10 7.0416545643096884e-12
5.915130176081913 7.295733562808029e-19 1.1455200766157255e-10 1.0744030259775274e-10 7.1117050638198016e-12
5.95966208400165 7.818610069383903e-19 1.2368602237480735e-10 1.1641246483570387e-10 7.273557539103462e-12
6.004529249263818 8.57366435915957e-19 1.36651648615392e-10 1.2919469087853987e-10 7.456957736852122e-12
6.027089341400364 9.10153181182753e-19 1.4561011793665663e-10 1.380460802580948e-10 7.564037678561813e-12
6.049734195844842 9.720250698825004e-19 1.5609291565764502e-10 1.4841520796270407e-10 7.677707694940968e-12
6.095279466722835 1.1510935366608344e-18 1.862403036754338e-10 1.7827943999224693e-10 7.960863683186927e-12
6.141167624020661 1.424563213312665e-18 2.322213310518306e-10 2.238883224939991e-10 8.333008557831491e-12
6.164241091010745 1.5987588919225368e-18 2.6159655605223217e-10 2.5302775226193915e-10 8.568803790292944e-12
6.187401249150058 1.7944708768631968e-18 2.9472306709381504e-10 2.859125738767175e-10 8.810493217097562e-12
6.1990139391386085 1.8893546126919878e-18 3.1088912045411937e-10 3.019557275967005e-10 8.933392857418885e-12
6.204828454712694 1.939109526999932e-18 3.193754667463095e-10 3.103800451337669e-10 8.995421612542646e-12
6.210648424152782 1.9749103951590495e-18 3.255770426550015e-10 3.1652926204388125e-10 9.047780611120261e-12
6.233982942956859 2.094291427059105e-18 3.465549908606465e-10 3.3732673267022347e-10 9.22825819042306e-12
6.239830258556775 2.1082378036098486e-18 3.491900059306733e-10 3.399382688301883e-10 9.251737100485e-12
6.245683058788269 2.107341233670282e-18 3.493688979067532e-10 3.4009366060651734e-10 9.275237300235992e-12
6.257405133728602 2.0992154031670004e-18 3.486749213217298e-10 3.3935946402980425e-10 9.315457291925512e-12
6.269149208991335 2.069623377466646e-18 3.444049309579023e-10 3.350791200656199e-10 9.325810892282305e-12
6.280915325867298 2.0026145097711072e-18 3.338794813362416e-10 3.245801882164834e-10 9.299293119758162e-12
6.304513850009849 1.8403897204475767e-18 3.079859004538246e-10 2.9877290737941684e-10 9.212993074407861e-12
6.32820103803542 1.6435941635743717e-18 2.7608594053570246e-10 2.669946290125075e-10 9.09131152319492e-12
6.3519772230701035 1.4642758344982487e-18 2.468887269399064e-10 2.3790773400123147e-10 8.980992938674896e-12
6.375842739491607 1.3130715092412392e-18 2.2222627565324916e-10 2.1334389474074856e-10 8.882380912500578e-12
6.399797922933955 1.1928894803271956e-18 2.0264500481356802e-10 1.9381941964420432e-10 8.825585169363795e-12
6.42384311029221 1.0925092632663298e-18 1.8628997595851823e-10 1.775127995434637e-10 8.77717641505455e-12
6.447978639727206 1.0192977766738786e-18 1.7445928975347903e-10 1.6569804351588737e-10 8.76124623759166e-12
6.472204850670314 9.579332073561694e-19 1.6457236728039198e-10 1.5582063720968068e-10 8.751730070711312e-12
6.496522083828205 9.17451078696089e-19 1.582097585621014e-10 1.4944134487681877e-10 8.768413685282623e-12
6.520930681187647 8.830149915090816e-19 1.5284354203327282e-10 1.4405458174448e-10 8.788960288792797e-12
6.57002334288761 8.45299023732725e-19 1.4741670949204554e-10 1.3855077358214146e-10 8.865935909904102e-12
