Dust emission spectrum from A.P. Jones, M. Kohler, N. Ysard, M. Bocchio, and L. Verstraete (2017), A&A, 602A, 46J 
inside the DustPedia framework.

lambda    nu*dP/dnu     j_nu    j_nu(carb.) j_nu(sil)
 (um)   (erg s-1 H-1) (Jy cm2 sr-1 H-1)
0.9927057738263894 3.443835524754695e-22 9.074702213681404e-15 9.074702029876013e-15 1.8380539193031827e-22
1.0001793341362166 3.501811297494429e-22 9.296940454870179e-15 9.29694023363904e-15 2.2123113659322284e-22
1.0077091589558085 3.5599903716177056e-22 9.522554397889443e-15 9.522554131965005e-15 2.659244384959421e-22
1.0114953028030835 3.589153021029811e-22 9.636632073626726e-15 9.636631782221124e-15 2.9140560353969706e-22
1.0152956718711033 3.6183627868957426e-22 9.751559525531803e-15 9.751559206309536e-15 3.1922226614706893e-22
1.0229392996569957 3.6768905008683647e-22 9.983894737091347e-15 9.983894354393434e-15 3.826979128101667e-22
1.0267826658714554 3.7061416739083294e-22 1.0101130416252132e-14 1.0101129997423308e-14 4.1882882385376416e-22
1.0306404723013447 3.735433847014549e-22 1.0219218275696778e-14 1.0219217817478239e-14 4.582185430634207e-22
1.03451277320114 3.7647659223923173e-22 1.0338160470918527e-14 1.0338159969772374e-14 5.0114615517786035e-22
1.0383996230291617 3.7941368280346334e-22 1.0457959211588695e-14 1.045795866367542e-14 5.479132782618091e-22
1.0403485208654093 3.8088365144225667e-22 1.051818049252833e-14 1.051817991969084e-14 5.72837489548486e-22
1.0423010764483396 3.823545518406257e-22 1.0578616764505412e-14 1.057861616565965e-14 5.988457639842009e-22
1.0462171883269815 3.8529909751230323e-22 1.0700135456584414e-14 1.0700134802288901e-14 6.542955164215408e-22
1.0471985131304309 3.8603579673415696e-22 1.07306499612528e-14 1.0730649292345148e-14 6.689076528563114e-22
1.048180758391296 3.8677271802059686e-22 1.0761218474154761e-14 1.0761217790322824e-14 6.838319372887335e-22
1.0501480137395462 3.882472207626128e-22 1.0822517677891366e-14 1.082251696324893e-14 7.146424368959067e-22
1.0521189612883777 3.8972259380211067e-22 1.0884033376923837e-14 1.0884032630144615e-14 7.467792185066155e-22
1.0531058218030118 3.9045961321278544e-22 1.0914844841522507e-14 1.0914844078159575e-14 7.633629349194701e-22
1.0540936079674168 3.911936030689881e-22 1.0945619764006792e-14 1.0945618983704327e-14 7.803024674786374e-22
1.058054026499678 3.9413153359549247e-22 1.1069256738574636e-14 1.1069255886846934e-14 8.517276982499602e-22
1.0590464539527713 3.9486650202347163e-22 1.1100300501704335e-14 1.1100299631166272e-14 8.70538064244908e-22
1.06003981227728 3.9560166202023376e-22 1.1131398152993684e-14 1.113139726324822e-14 8.897454652969227e-22
1.0620293250338977 3.9707255131721492e-22 1.1193755283186217e-14 1.1193754353802846e-14 9.293833720553529e-22
1.0660195594769086 4.000165699893997e-22 1.1319118013231927e-14 1.1319116999447741e-14 1.013784187036432e-21
1.070024785945596 4.029635065131891e-22 1.144534762383587e-14 1.1445346518351064e-14 1.105484809843151e-21
1.0740450607676866 4.0591328099892753e-22 1.1572446893131279e-14 1.1572445688048512e-14 1.2050827658067267e-21
1.07808044048254 4.088658168287336e-22 1.1700418685572657e-14 1.1700417372351137e-14 1.3132215212690736e-21
1.0861967418109137 4.1477430748467233e-22 1.1958859833625974e-14 1.1958858275680864e-14 1.5579451135596143e-21
1.0902777775684922 4.1771972259387594e-22 1.2089033309032982e-14 1.2089031612955264e-14 1.6960777177814327e-21
1.0943741465085532 4.2066744565232934e-22 1.2220083182831465e-14 1.2220081336977943e-14 1.8458535273466557e-21
1.1026131145906286 4.265695854441382e-22 1.2484825414611166e-14 1.2484823230499308e-14 2.1841118565732562e-21
1.1109141095355224 4.32480303456558e-22 1.275311420499346e-14 1.2753111623998544e-14 2.5809949168448473e-21
1.1192775983109025 4.383945399567913e-22 1.3024839527420809e-14 1.3024836481376126e-14 3.04604468294254e-21
1.1277040513999907 4.442904047960139e-22 1.3299383447078233e-14 1.3299379856829194e-14 3.590249040902923e-21
1.1361939428280308 4.501932469871851e-22 1.3577533372047835e-14 1.3577529145804594e-14 4.2262432445770295e-21
1.1447477501889525 4.561029016054652e-22 1.3859324609950528e-14 1.3859319641413048e-14 4.9685374786605755e-21
1.1533659546722406 4.620214667842705e-22 1.4144862016015702e-14 1.414485618223489e-14 5.833780813065966e-21
1.1707974979042381 4.739032583180076e-22 1.472790293907933e-14 1.47278949268822e-14 8.012197129045444e-21
1.1884924949847024 4.858200242385594e-22 1.5326439951570444e-14 1.53264290025656e-14 1.0949004842665182e-20
1.2064549276569216 4.978530663192397e-22 1.5943428591947e-14 1.5943413703466163e-14 1.488848083327187e-20
1.2246888378427687 5.099201698943114e-22 1.657667349680431e-14 1.6576653350526983e-14 2.0146277326404323e-20
1.2431983285522175 5.220099860264735e-22 1.7226167338443623e-14 1.722614020960315e-14 2.7128840468457535e-20
1.2619875648066055 5.341383293409081e-22 1.7892797723674664e-14 1.7892761366814643e-14 3.635686002494532e-20
1.3004222497298317 5.584263880066542e-22 1.9276126020419337e-14 1.92760616415715e-14 6.437884783678396e-20
1.3400274889804893 5.828447122363817e-22 2.073175182073397e-14 2.0731639910245456e-14 1.1191048851639574e-19
1.3808389325824078 6.074704927628727e-22 2.2265766168219828e-14 2.2265575106952232e-14 1.910612675932227e-19
1.4228933163050095 6.32504707950078e-22 2.388941609725137e-14 2.388909557099677e-14 3.205262545975659e-19
1.466228494730424 6.583913405347655e-22 2.5624488120035387e-14 2.562395947923443e-14 5.286408009654852e-19
1.5108834753276823 6.850558998143364e-22 2.7474286026899438e-14 2.74734284855349e-14 8.575413645301988e-19
1.5568984535646726 7.124552367620776e-22 2.944335554408449e-14 2.9441985911390524e-14 1.3696326939649017e-18
1.6043148490894465 7.4074298219446155e-22 3.1544713107191134e-14 3.154255527666701e-14 2.1578305241209085e-18
1.6531753430134553 7.700804796358156e-22 3.379282249340663e-14 3.37894729797805e-14 3.3495136261404736e-18
1.7035239163302658 8.006604177454918e-22 3.620478952052356e-14 3.619966563995213e-14 5.123880571422086e-18
1.755405889504358 8.330768599144593e-22 3.881790166726355e-14 3.881017333922299e-14 7.728328040564356e-18
1.8088679632656115 8.672968415634174e-22 4.16431971435905e-14 4.163169988741514e-14 1.1497256175362187e-17
1.8639582606462262 9.032696520462079e-22 4.46913048767291e-14 4.4674427828575014e-14 1.6877048154089013e-17
1.9207263702978936 9.410692479960585e-22 4.797958795226763e-14 4.795513368458269e-14 2.445426768492962e-17
1.979223391128241 9.808202804513046e-22 5.1529233836373406e-14 5.149424456157197e-14 3.498927480143941e-17
2.039501978296691 1.0226176308957538e-21 5.5361371430085586e-14 5.5311918671329114e-14 4.94527587564618e-17
2.1016163906111602 1.066866833132555e-21 5.951591212577919e-14 5.94468406107635e-14 6.907151501567518e-17
2.1656225393682647 1.1137151709226665e-21 6.402157167613367e-14 6.3926202534661e-14 9.536914147265798e-17
2.231578038680979 1.1629458073706136e-21 6.888758964090459e-14 6.875737781189147e-14 1.3021182901313983e-16
2.299542257339062 1.214498622344368e-21 7.413236481816461e-14 7.395650869850189e-14 1.7585611966270149e-16
2.369576372248914 1.268430107347594e-21 7.978232451222735e-14 7.954732485933778e-14 2.3499965288957204e-16
2.4417434235010123 1.3248249953123355e-21 8.586733278424966e-14 8.555651344477836e-14 3.108193394713024e-16
2.5161083711144245 1.3840129938615043e-21 9.24355316031515e-14 9.202850985306122e-14 4.070217500902859e-16
2.5927381535095444 1.4466562418490323e-21 9.956195982183247e-14 9.903408669923654e-14 5.278731225959323e-16
2.6717017477616296 1.5133347358955533e-21 1.0732290220258111e-13 1.0664471002775416e-13 6.781921748269318e-16
2.753070231689431 1.5849983619348495e-21 1.1582852909876468e-13 1.1496517226091167e-13 8.633568378530169e-16
2.836916847834745 1.6644604405052777e-21 1.2533995002510014e-13 1.242506202767601e-13 1.0893297483400242e-15
2.9233170693905177 1.758149753515216e-21 1.3642727971019287e-13 1.3506492162863947e-13 1.362358081553408e-15
2.967498994190263 1.8167406716204652e-21 1.4310438855314872e-13 1.4158869030532588e-13 1.5156982478228704e-15
3.0123486681368425 1.8798080774084857e-21 1.5031010661978372e-13 1.486260227021961e-13 1.6840839175875912e-15
3.0578761833420214 1.9860885303635243e-21 1.612084984401891e-13 1.5933922087146698e-13 1.8692775687220823e-15
3.1040917844459814 2.111787250783877e-21 1.7400196430758405e-13 1.7193122437904e-13 2.0707399285440943e-15
3.127460860933648 2.229949766158759e-21 1.8512130206419844e-13 1.8294272164647218e-13 2.1785804177262413e-15
3.1510058709225794 2.3808875986128204e-21 1.991395577461822e-13 1.9684858889760627e-13 2.290968848575922e-15
3.162844764501044 2.517748742900978e-21 2.1137795779265129e-13 2.0902883539590385e-13 2.3491223967474162e-15
3.1747281389236908 2.673125463207368e-21 2.2526582872867307e-13 2.2285737581646316e-13 2.4084529122099447e-15
3.1986289994194426 3.0953230523438098e-21 2.628084261874274e-13 2.6027741392588257e-13 2.531012261544771e-15
3.2227097969389145 4.074584749245061e-21 3.485571434161339e-13 3.4589628296376207e-13 2.6608604523718416e-15
3.2348180950136065 4.994428384825288e-21 4.288496767096997e-13 4.261195269841752e-13 2.7301497255244943e-15
3.240889293275058 5.681616472992884e-21 4.887711271921944e-13 4.86004429087136e-13 2.766698105058412e-15
3.2469718861334385 6.4778984975862915e-21 5.58318604882406e-13 5.555140898876512e-13 2.8045149947546183e-15
3.2714166318528037 1.0665311593845326e-20 9.261446845460373e-13 9.23183907025748e-13 2.9607775202893112e-15
3.2744851364798273 1.0927259525001085e-20 9.49781517932048e-13 9.4680232916545e-13 2.9791887665977617e-15
3.2775565192852394 1.1196281386276315e-20 9.74077310427682e-13 9.710796187618274e-13 2.997691665854932e-15
3.283707930232385 1.0938924222849818e-20 9.534733716730266e-13 9.504425985102718e-13 3.0307731627553373e-15
3.2898708863219004 1.0119425981247996e-20 8.836985963800211e-13 8.806377242449406e-13 3.0608721350803526e-15
3.29141343181113 9.925796052230887e-21 8.671959032849599e-13 8.641274733262289e-13 3.0684299587307465e-15
3.292184975758714 9.830597499188902e-21 8.590799368430728e-13 8.560077230045944e-13 3.0722138384785752e-15
3.295272960557952 9.235882756751825e-21 8.078658294190104e-13 8.047788983333862e-13 3.086931085624104e-15
3.3076538914384823 7.161737217758909e-21 6.287932542541177e-13 6.256472152458003e-13 3.1460390083176404e-15
3.310756385682612 6.735703837715617e-21 5.919426628525558e-13 5.887817259691546e-13 3.1609368834012817e-15
3.313861789986515 6.341100972307705e-21 5.577871349264075e-13 5.546112517272912e-13 3.1758831991162187e-15
3.3200813396944477 5.789810130564767e-21 5.10249371711698e-13 5.070413372933482e-13 3.20803441834974e-15
3.345076488085796 4.825185607864932e-21 4.2843950568254053e-13 4.250881847039222e-13 3.351320978618334e-15
3.3482140837626964 4.864257649734859e-21 4.323139229289918e-13 4.289431912847196e-13 3.3707316442723416e-15
3.3513546224236106 4.9036940738372086e-21 4.362276465170426e-13 4.328374171485535e-13 3.3902293684890896e-15
3.3576445397418455 5.180861731906069e-21 4.617492005207891e-13 4.583182048760135e-13 3.4309956447755177e-15
3.3702598118196083 6.186599982740771e-21 5.534582312222384e-13 5.499417274600776e-13 3.516503762160922e-15
3.382922481734668 6.426240782199602e-21 5.77056680556959e-13 5.734570653503318e-13 3.599615206627464e-15
3.389271646505754 6.549855725876129e-21 5.892607923271892e-13 5.856190512106712e-13 3.641741116517844e-15
3.395632727569191 6.685493367547883e-21 6.025923390711172e-13 5.989071845795405e-13 3.685154491576552e-15
3.421196662673239 7.342536664587875e-21 6.667969376186942e-13 6.629320733141633e-13 3.864864304530811e-15
3.4276182099114902 7.223416707639474e-21 6.572105763768448e-13 6.53305607854975e-13 3.904968521869827e-15
3.4340518103208963 6.682551717382946e-21 6.09142083942513e-13 6.051991843343185e-13 3.942899608194445e-15
3.4469541582030403 5.9073468379304084e-21 5.405021316135238e-13 5.364864292113218e-13 4.015702402201993e-15
3.472904465399547 5.6940285222421565e-21 5.249064483103734e-13 5.207230393177983e-13 4.183408992575036e-15
3.4990501388274233 5.3696729651510044e-21 4.987322300008146e-13 4.943772087141386e-13 4.355021286675991e-15
3.5253949054701885 4.212524430569675e-21 3.942027396265272e-13 3.8968100365582785e-13 4.521735970699413e-15
3.5519380250092896 3.112142080611384e-21 2.9342305092942397e-13 2.887337572553359e-13 4.689293674088104e-15
3.578680990867387 2.6835712681383146e-21 2.54920964460669e-13 2.500480245934002e-13 4.872939867268919e-15
3.605625307711299 2.5193404576757606e-21 2.4112202783645876e-13 2.360556808761313e-13 5.066346960327372e-15
3.660119384959845 2.417500878633553e-21 2.3487204275485054e-13 2.2939940145094913e-13 5.472641303901438e-15
3.715437065384467 2.3501646591359453e-21 2.317808939788548e-13 2.2588000357097437e-13 5.900890407880475e-15
3.8285932144167436 2.352919915933199e-21 2.3911994608105794e-13 2.322988992356419e-13 6.821046845415966e-15
3.94519561050918 2.3901205561630365e-21 2.5029823164785085e-13 2.42474212435214e-13 7.824019212636844e-15
4.06534921144712 2.439332765903444e-21 2.6323179160173966e-13 2.5432330928638647e-13 8.908482315353154e-15
4.189162171576248 2.493915266668962e-21 2.7731815362148383e-13 2.672419146847656e-13 1.0076238936718143e-14
4.316745939156006 2.551084163539979e-21 2.9231473576452474e-13 2.809920675751339e-13 1.1322668189390783e-14
4.448215356677963 2.6096058026997675e-21 3.0812727809924377e-13 2.954971250174944e-13 1.263015308174931e-14
4.58368876423945 2.669271944181295e-21 3.247710996976879e-13 3.107711717694316e-13 1.3999927928256358e-14
4.723288106065518 2.7305734082536503e-21 3.4234794602617045e-13 3.2690777512091695e-13 1.5440170905253333e-14
4.867139040275056 2.7942957173899692e-21 3.6100694024884244e-13 3.4409477429214825e-13 1.6912165956694287e-14
4.940699165968905 2.8289470620672152e-21 3.7100747910863327e-13 3.533430519002815e-13 1.766442720835165e-14
5.015371051989984 2.862845670816296e-21 3.811276340305416e-13 3.6270250176188495e-13 1.842513226865661e-14
5.091171501069577 2.9019009248018045e-21 3.921658215267994e-13 3.7295508218538037e-13 1.9210739341419022e-14
5.129500256944802 2.9211099571798816e-21 3.977337034079348e-13 3.7812781628877804e-13 1.960588711915676e-14
5.168117569889187 2.9406329532928435e-21 4.034062640953385e-13 3.833998170629227e-13 2.0006447032415762e-14
5.20702561229733 2.9645053584874355e-21 4.097428525884518e-13 3.8929888486410874e-13 2.0443967724343043e-14
5.246226572918644 2.9883267417170836e-21 4.1614488138476937e-13 3.952606995859561e-13 2.088418179881339e-14
5.265937586045735 3.0002205294985115e-21 4.193709263142552e-13 3.9826568517819395e-13 2.110524113606116e-14
5.285722656980489 3.012104321827334e-21 4.226139360215625e-13 4.012870319109728e-13 2.132690411058967e-14
5.305582063971359 3.0239791283204198e-21 4.258741293635946e-13 4.043249823316996e-13 2.15491470318949e-14
5.3255160863122235 3.0366909426938368e-21 4.292711758677135e-13 4.0749743548393407e-13 2.1773740383779417e-14
5.365609099470188 3.0686578059833917e-21 4.370558369897553e-13 4.14817400038228e-13 2.2238436951527292e-14
5.406003951863644 3.1009933356405668e-21 4.4498628403782215e-13 4.2228042165457034e-13 2.2705862383251854e-14
5.446702915881641 3.1337316028257096e-21 4.530695951132505e-13 4.298937675237141e-13 2.317582758953654e-14
5.487708281020852 3.1685256851099483e-21 4.61548859209855e-13 4.378986730367955e-13 2.365018617305962e-14
5.529022354014368 3.2182224506385382e-21 4.72317284644975e-13 4.4817260752557777e-13 2.4144677119397164e-14
5.570647458961463 3.2695795258803236e-21 4.834671972730942e-13 4.588252087714652e-13 2.4641988501629024e-14
5.612585937458331 3.3227422801489543e-21 4.95027236433277e-13 4.698853085819346e-13 2.5141927851342337e-14
5.654840148729818 3.380314198033411e-21 5.073957618836667e-13 4.817489408373661e-13 2.564682104630057e-14
5.67608639626678 3.420756793514269e-21 5.15395507257842e-13 4.894844132053031e-13 2.591109405253885e-14
5.686739436050992 3.4414194881989385e-21 5.194818473645676e-13 4.93438321895031e-13 2.6043525469536648e-14
5.6974124697621304 3.462386439648891e-21 5.23627724435631e-13 4.974515749795288e-13 2.617614945610214e-14
5.718818669136295 3.50526424425847e-21 5.321039981125773e-13 5.056620351751058e-13 2.6441962937471463e-14
5.740305295436557 3.552514260003016e-21 5.413027752246053e-13 5.145922341809438e-13 2.671054104366146e-14
5.7835210386641895 3.6768076685238474e-21 5.644593425632947e-13 5.371936849833579e-13 2.7265657579936935e-14
5.827062130521658 3.8175934902764234e-21 5.904848551342588e-13 5.626557089091916e-13 2.7829146225066982e-14
5.8489554468988025 3.9186633844988436e-21 6.083950966598621e-13 5.802612470313051e-13 2.8133849628556875e-14
5.870931020387893 4.025734003956133e-21 6.273667342156898e-13 5.989269143353119e-13 2.843981988037788e-14
5.892989160043636 4.1392794743210986e-21 6.474851691232603e-13 6.187381352800883e-13 2.874703384317199e-14
5.915130176081913 4.268126227047035e-21 6.701484148950624e-13 6.410827936786149e-13 2.906562121644768e-14
5.95966208400165 4.6324715349049616e-21 7.32830992762455e-13 7.030367616527579e-13 2.9794231109697187e-14
6.004529249263818 5.156281323867873e-21 8.218356983831947e-13 7.912200664484003e-13 3.0615631934794326e-14
6.027089341400364 5.521250627068042e-21 8.833128000722649e-13 8.522212252372671e-13 3.109157483499754e-14
6.049734195844842 5.949156645754896e-21 9.553469713000203e-13 9.237509586794447e-13 3.15960126205755e-14
6.095279466722835 7.185592838794138e-21 1.162587530694608e-12 1.1297469992359123e-12 3.2840531458695594e-14
6.141167624020661 9.074886413601006e-21 1.479318139354528e-12 1.4448566763455424e-12 3.446146300898512e-14
6.164241091010745 1.0279817296307954e-20 1.6820327412387738e-12 1.646551175790101e-12 3.548156544867315e-14
6.187401249150058 1.1636743628751099e-20 1.9112133930225912e-12 1.874684787388471e-12 3.6528605634121063e-14
6.1990139391386085 1.2296316128332031e-20 2.023331607673249e-12 1.9862703227444525e-12 3.706128492879651e-14
6.204828454712694 1.2642430303454301e-20 2.0822351820529978e-12 2.0449048941601783e-12 3.733028789281973e-14
6.210648424152782 1.2892955937300796e-20 2.1254890730420085e-12 2.087930216928257e-12 3.7558856113751935e-14
6.233982942956859 1.373344671374483e-20 2.2725559771069513e-12 2.234202860302788e-12 3.8353116804163055e-14
6.239830258556775 1.3834789746650256e-20 2.291473146630114e-12 2.253011797050204e-12 3.846134957991024e-14
6.245683058788269 1.3833889979646642e-20 2.2934733201868455e-12 2.2549035823490785e-12 3.856973783776685e-14
6.257405133728602 1.378852556734502e-20 2.2902428498206922e-12 2.2514845558588757e-12 3.8758293961816824e-14
6.269149208991335 1.359530828976275e-20 2.2623880575887994e-12 2.2235660804330985e-12 3.882197715570104e-14
6.280915325867298 1.314380116402046e-20 2.1913580941403585e-12 2.1526267826204733e-12 3.8731311519884997e-14
6.304513850009849 1.2044143017567457e-20 2.0155656115912435e-12 1.9771551973415745e-12 3.8410414249669105e-14
6.32820103803542 1.0701635888057436e-20 1.7976281949064444e-12 1.7596871648872577e-12 3.794103001918667e-14
6.3519772230701035 9.476040345917296e-21 1.5977369033317262e-12 1.5602179327637213e-12 3.751897056800513e-14
6.375842739491607 8.442397826080994e-21 1.4288046106165133e-12 1.3916591218984835e-12 3.7145488718030305e-14
6.399797922933955 7.620234296244639e-21 1.294505854154615e-12 1.2575578956359895e-12 3.694795851862562e-14
6.42384311029221 6.93380249620317e-21 1.1823221493399042e-12 1.145536631545458e-12 3.6785517794446217e-14
6.447978639727206 6.4342337930932705e-21 1.1012599883360967e-12 1.0644998111802491e-12 3.676017715584785e-14
6.472204850670314 6.01603370643293e-21 1.0335510880125262e-12 9.967890915795541e-13 3.676199643297207e-14
6.496522083828205 5.742260623046633e-21 9.902235529157947e-13 9.533487498207394e-13 3.687480309505536e-14
6.520930681187647 5.510075180596647e-21 9.537543706168836e-13 9.167500635460637e-13 3.7004307070820115e-14
6.57002334288761 5.262179203195692e-21 9.177026367155274e-13 8.802860296827843e-13 3.741660703274325e-14
