Dust emission spectrum from A.P. Jones, M. Kohler, N. Ysard, M. Bocchio, and L. Verstraete (2017), A&A, 602A, 46J 
inside the DustPedia framework.

lambda    nu*dP/dnu     j_nu    j_nu(carb.) j_nu(sil)
 (um)   (erg s-1 H-1) (Jy cm2 sr-1 H-1)
0.9927057738263894 2.7715639598584364e-20 7.303228455917175e-13 7.30322823296095e-13 2.2295622862771746e-20
1.0001793341362166 2.818079164122649e-20 7.4817035985647e-13 7.481703330302886e-13 2.682618167251657e-20
1.0077091589558085 2.864791131003836e-20 7.662978417320497e-13 7.662978094978868e-13 3.223416301561753e-20
1.0114953028030835 2.888218982413216e-20 7.754671789834946e-13 7.75467143667067e-13 3.531642766041757e-20
1.0152956718711033 2.911693761066437e-20 7.847072475427005e-13 7.847072088622565e-13 3.868044398619296e-20
1.0229392996569957 2.9587583340582625e-20 8.033943831820135e-13 8.03394336827778e-13 4.63542355388103e-20
1.0267826658714554 2.9822947651224724e-20 8.128277603171099e-13 8.12827709596353e-13 5.0720757118790945e-20
1.0306404723013447 3.0058742035608584e-20 8.223324479437633e-13 8.223323924637602e-13 5.548000335036604e-20
1.03451277320114 3.0294960200097577e-20 8.31908720130148e-13 8.319086594646564e-13 6.066549171294101e-20
1.0383996230291617 3.053159608134693e-20 8.41556857212301e-13 8.415567908988661e-13 6.631343469812629e-20
1.0403485208654093 3.06500688352987e-20 8.464079644724886e-13 8.464078951495591e-13 6.932292950562434e-20
1.0423010764483396 3.076864385185408e-20 8.512771460557677e-13 8.512770735928254e-13 7.246294214753369e-20
1.0462171883269815 3.100609792546389e-20 8.610698803206793e-13 8.610698011644417e-13 7.915623760839824e-20
1.0471985131304309 3.106552429752052e-20 8.635294185659414e-13 8.635293376461499e-13 8.091979145168098e-20
1.048180758391296 3.112497564759607e-20 8.659935081788555e-13 8.659934254579467e-13 8.272090869545062e-20
1.0501480137395462 3.1243952962824853e-20 8.70935360730186e-13 8.709352742912964e-13 8.643888958816747e-20
1.0521189612883777 3.1363029243181015e-20 8.758954767132404e-13 8.758953863968011e-13 9.031643953423472e-20
1.0531058218030118 3.142252597881652e-20 8.783802062534595e-13 8.783801139362502e-13 9.2317209547995e-20
1.0540936079674168 3.148179063090445e-20 8.80862332698172e-13 8.808622383373856e-13 9.436078624110153e-20
1.058054026499678 3.1719082604129376e-20 8.908362790821872e-13 8.908361761060463e-13 1.0297614060553285e-19
1.0590464539527713 3.177846358758946e-20 8.933411507359112e-13 8.933410454912022e-13 1.0524470896512768e-19
1.06003981227728 3.183786763036531e-20 8.958505864866143e-13 8.958504789255986e-13 1.0756101585727004e-19
1.0620293250338977 3.195674462885838e-20 9.008831706852045e-13 9.00883058344526e-13 1.123406787874733e-19
1.0660195594769086 3.219477248263027e-20 9.110033345611175e-13 9.110032120450572e-13 1.2251606021057418e-19
1.070024785945596 3.243316221884302e-20 9.211971062763435e-13 9.211969727076325e-13 1.3356871103388904e-19
1.0740450607676866 3.2671910171817947e-20 9.314648301973589e-13 9.31464684627192e-13 1.4557016697694373e-19
1.07808044048254 3.291101296179187e-20 9.418068597810252e-13 9.418067011835865e-13 1.5859743878503387e-19
1.0861967418109137 3.338990736829313e-20 9.627048128817108e-13 9.627046248144803e-13 1.8806723072698944e-19
1.0902777775684922 3.3628867016318753e-20 9.732374879999935e-13 9.732372833051598e-13 2.0469483358572842e-19
1.0943741465085532 3.386815676735341e-20 9.838453087436892e-13 9.838450860244539e-13 2.2271923526581564e-19
1.1026131145906286 3.434771965683319e-20 1.0052879950620097e-12 1.0052877316523127e-12 2.634096972553339e-19
1.1109141095355224 3.4828585384642545e-20 1.0270361990099945e-12 1.0270358878831846e-12 3.11126809658253e-19
1.1192775983109025 3.531037480391056e-20 1.049082330084101e-12 1.0490819630747806e-12 3.670093203809438e-19
1.1277040513999907 3.579137022514448e-20 1.0713784308240498e-12 1.0713779984564243e-12 4.323676254614634e-19
1.1361939428280308 3.627361289938014e-20 1.0939883993419786e-12 1.093987890634391e-12 5.087075875481064e-19
1.1447477501889525 3.6757114255443816e-20 1.1169163283067605e-12 1.116915730549452e-12 5.977573086768249e-19
1.1533659546722406 3.724205916577567e-20 1.14017167158633e-12 1.1401709700880894e-12 7.01498240509027e-19
1.1707974979042381 3.8217749145625295e-20 1.18772616580987e-12 1.1877252033527933e-12 9.624570765547046e-19
1.1884924949847024 3.919948459055067e-20 1.2366483815713858e-12 1.2366470677119947e-12 1.3138593915117506e-18
1.2064549276569216 4.0193861765830125e-20 1.2871829225355846e-12 1.2871811378535739e-12 1.784682010654999e-18
1.2246888378427687 4.119463759241463e-20 1.3391705162989988e-12 1.3391681039853986e-12 2.4123136002848014e-18
1.2431983285522175 4.220106457895466e-20 1.3926220182704919e-12 1.392618773445354e-12 3.2448251381051784e-18
1.2619875648066055 4.321469028077902e-20 1.4476244624484187e-12 1.4476201187404682e-12 4.3437079506767895e-18
1.3004222497298317 4.525770606506547e-20 1.5622349950534627e-12 1.5622273209776384e-12 7.67407582425143e-18
1.3400274889804893 4.733023091087883e-20 1.6835335043142932e-12 1.6835201955483155e-12 1.3308765978061816e-17
1.3808389325824078 4.9440119333052887e-20 1.8121409179759915e-12 1.8121182506259095e-12 2.2667350081621727e-17
1.4228933163050095 5.1604837324250734e-20 1.9490913126409435e-12 1.949053378442711e-12 3.7934198231161643e-17
1.466228494730424 5.3860900538369155e-20 2.096257834829422e-12 2.096195425993172e-12 6.240883624963344e-17
1.5108834753276823 5.620367417091942e-20 2.2540581292022984e-12 2.2539571485730874e-12 1.0098062921110944e-16
1.5568984535646726 5.863053613241074e-20 2.423000957831893e-12 2.422840090834277e-12 1.6086699761616451e-16
1.6043148490894465 6.115399144769788e-20 2.6042570256451273e-12 2.6040042423962305e-12 2.527832488964948e-16
1.6531753430134553 6.37867788417705e-20 2.7991039272226803e-12 2.7987125791030765e-12 3.9134811960370166e-16
1.7035239163302658 6.654329880182902e-20 3.0089986637597737e-12 3.0084016110333855e-12 5.970527263884052e-16
1.755405889504358 6.946929039286895e-20 3.2369787388427244e-12 3.2360806631100874e-12 8.980757326380376e-16
1.8088679632656115 7.25601530967717e-20 3.483970672291476e-12 3.482638327432588e-12 1.3323448588893647e-15
1.8639582606462262 7.580877070478853e-20 3.750810044622685e-12 3.748859772981211e-12 1.9502716414722015e-15
1.9207263702978936 7.921740779664392e-20 4.038829865945899e-12 4.036012066175174e-12 2.8177997707246025e-15
1.979223391128241 8.27917428477234e-20 4.3496195602299655e-12 4.3455995461357225e-12 4.0200140942438e-15
2.039501978296691 8.653412944466297e-20 4.684691459278638e-12 4.6790264577170164e-12 5.665001561621287e-15
2.1016163906111602 9.047143694983826e-20 5.0470123582242235e-12 5.0391236760123836e-12 7.888682211840855e-15
2.1656225393682647 9.460926494522022e-20 5.438584294311748e-12 5.427725347931236e-12 1.085894638051119e-14
2.231578038680979 9.892319107267389e-20 5.859757307170418e-12 5.8449770413281825e-12 1.4780265842237816e-14
2.299542257339062 1.0340170269165347e-19 6.311586201687382e-12 6.291687801808094e-12 1.9898399879286097e-14
2.369576372248914 1.0804163857765e-19 6.795654738801247e-12 6.769149439641679e-12 2.6505299159569136e-14
2.4417434235010123 1.1284202966738092e-19 7.313754003572996e-12 7.278811555011012e-12 3.494244856198306e-14
2.5161083711144245 1.1782061800789377e-19 7.869009545196025e-12 7.823404100901157e-12 4.560544429486967e-14
2.5927381535095444 1.2301963554092268e-19 8.466472999395512e-12 8.407526887343085e-12 5.894611205242869e-14
2.6717017477616296 1.2847137326917294e-19 9.110952324132965e-12 9.03548191805694e-12 7.547040607602448e-14
2.753070231689431 1.3423290290753933e-19 9.809473671289934e-12 9.713735953376056e-12 9.573771791387521e-14
2.836916847834745 1.4049526874358454e-19 1.0579806845837773e-11 1.045944458740998e-11 1.2036225842779292e-13
2.9233170693905177 1.4770033020430402e-19 1.146111372013797e-11 1.1311137087523788e-11 1.4997663261418217e-13
2.967498994190263 1.5209333552230505e-19 1.1980369087853682e-11 1.1813843655896618e-11 1.6652543195706253e-13
3.0123486681368425 1.5677789768984846e-19 1.2536015139308227e-11 1.2351353142225815e-11 1.846619970824105e-13
3.0578761833420214 1.6449139491666776e-19 1.3351575408370408e-11 1.3147002490909915e-11 2.0457291746049659e-13
3.1040917844459814 1.73501042254386e-19 1.4295721385035461e-11 1.4069543353240122e-11 2.2617803179533732e-13
3.127460860933648 1.8187222712456372e-19 1.509828786529619e-11 1.486056653266322e-11 2.3772133263296806e-13
3.1510058709225794 1.9249804118907498e-19 1.6100707488977356e-11 1.5850971792302807e-11 2.4973569667454753e-13
3.162844764501044 2.0212205441459175e-19 1.696918614594731e-11 1.6713239847357614e-11 2.559462985896955e-13
3.1747281389236908 2.1299783686766817e-19 1.794945089552194e-11 1.768717252772769e-11 2.6227836779425004e-13
3.1986289994194426 2.424143106439047e-19 2.058218880171295e-11 2.030684313919628e-11 2.7534566251667064e-13
3.2227097969389145 3.105301827012234e-19 2.6564059919696806e-11 2.627488583460443e-11 2.8917408509237007e-13
3.2348180950136065 3.7441379329393153e-19 3.2149271515757606e-11 3.185272231823812e-11 2.965491975194828e-13
3.240889293275058 4.2213902510639327e-19 3.6315257834427276e-11 3.601481842501346e-11 3.004394094138143e-13
3.2469718861334385 4.774543725330696e-19 4.1150947219533365e-11 4.084648260289012e-11 3.044646166432352e-13
3.2714166318528037 7.673456160003812e-19 6.663406476361822e-11 6.631298078623532e-11 3.210839773829001e-13
3.2744851364798273 7.854438832155178e-19 6.826964088700021e-11 6.794660255151961e-11 3.230383354805877e-13
3.2775565192852394 8.040231801439279e-19 6.995007626336382e-11 6.962507418383872e-11 3.250020795251146e-13
3.283707930232385 7.861032138603168e-19 6.85193961063139e-11 6.819089072314153e-11 3.2850538317238076e-13
3.2898708863219004 7.292520090472787e-19 6.368335298826052e-11 6.335166721803114e-11 3.3168577022937355e-13
3.29141343181113 7.158145127588453e-19 6.253920690188596e-11 6.220672271751765e-11 3.3248418436830713e-13
3.292184975758714 7.092072249703759e-19 6.197646664777705e-11 6.164358275831686e-11 3.328838894601775e-13
3.295272960557952 6.680547472758339e-19 5.843497765395043e-11 5.810054046410065e-11 3.3443718984981346e-13
3.3076538914384823 5.243480412118071e-19 4.6037225490174866e-11 4.5696553376708897e-11 3.4067211346595956e-13
3.310756385682612 4.947763033753257e-19 4.3481603347284765e-11 4.3139360465694825e-11 3.4224288158993883e-13
3.313861789986515 4.673651522863239e-19 4.111119983685737e-11 4.076738136793386e-11 3.438184689235151e-13
3.3200813396944477 4.290877592505341e-19 3.7815015454644743e-11 3.7467804399952974e-11 3.472110546917833e-13
3.345076488085796 3.6229296432591446e-19 3.21688389136889e-11 3.180649925337931e-11 3.6233966030959505e-13
3.3482140837626964 3.650049374961275e-19 3.24400407585325e-11 3.207565126228547e-11 3.643894962470426e-13
3.3513546224236106 3.677410824537406e-19 3.271387335974144e-11 3.2347425212466946e-11 3.6644814727448346e-13
3.3576445397418455 3.86949521356087e-19 3.448724196357585e-11 3.411648825643847e-11 3.7075370713738883e-13
3.3702598118196083 4.564767929240283e-19 4.0836782580180405e-11 4.045699845780988e-11 3.797841223705225e-13
3.382922481734668 4.730813964710054e-19 4.248125607695752e-11 4.209270750568248e-11 3.8854857127505245e-13
3.389271646505754 4.81637162101144e-19 4.3330709504441126e-11 4.293772106383879e-11 3.9298844060234763e-13
3.395632727569191 4.910629750016441e-19 4.4261622960220946e-11 4.3864058955963355e-11 3.975640042575845e-13
3.421196662673239 5.368208374754632e-19 4.8750248971161616e-11 4.8333758206920536e-11 4.164907642410629e-13
3.4276182099114902 5.285598381777609e-19 4.8090139328536114e-11 4.766943892822136e-11 4.2070040031477216e-13
3.4340518103208963 4.910924657359718e-19 4.476509881827443e-11 4.4340423735086864e-11 4.2467508318757254e-13
3.4469541582030403 4.372993105136465e-19 4.001139868207864e-11 3.957910867758312e-11 4.3229000449552394e-13
3.472904465399547 4.223176566159135e-19 3.8931533329539497e-11 3.8481680507333334e-11 4.498528222061469e-13
3.4990501388274233 3.997331675834187e-19 3.712699364896266e-11 3.6659199742430546e-11 4.677939065321108e-13
3.5253949054701885 3.1990201884971844e-19 2.993602869753854e-11 2.94508553461023e-11 4.851733514362331e-13
3.5519380250092896 2.438969790819185e-19 2.2995414046336665e-11 2.2492813197705004e-11 5.026008486316659e-13
3.578680990867387 2.143375702867575e-19 2.036060707102506e-11 1.983891028680511e-11 5.216967842199529e-13
3.605625307711299 2.0305670657159837e-19 1.9434231171560817e-11 1.8892447146196537e-11 5.417840253642861e-13
3.660119384959845 1.9612859952142787e-19 1.9054853389870616e-11 1.8470979551958373e-11 5.838738379122466e-13
3.715437065384467 1.9153680742529939e-19 1.8889983849562962e-11 1.8261902101201492e-11 6.280817483614786e-13
3.8285932144167436 1.917749294502505e-19 1.9489490687427412e-11 1.8766966347945062e-11 7.225243394823524e-13
3.94519561050918 1.9428015343987348e-19 2.034540840414261e-11 1.9520754371568468e-11 8.24654032574141e-13
4.06534921144712 1.9750043940640269e-19 2.1312547116884855e-11 2.037839999175177e-11 9.341471251330886e-13
4.189162171576248 2.0097508182856905e-19 2.234800811459303e-11 2.129700615308374e-11 1.0510019615092804e-12
4.316745939156006 2.0450539922372847e-19 2.34331515168633e-11 2.2258607820712176e-11 1.1745436961511255e-12
4.448215356677963 2.0799647234916152e-19 2.4559029878339516e-11 2.3256247265721407e-11 1.3027826126181119e-12
4.58368876423945 2.1142863764403934e-19 2.5724584302818e-11 2.4288926799780246e-11 1.435657503037752e-12
4.723288106065518 2.148302210185132e-19 2.693452030541574e-11 2.5360722957266076e-11 1.5737973481496694e-12
4.867139040275056 2.1823483234615714e-19 2.819468554838366e-11 2.648159451596481e-11 1.71309103241885e-12
4.940699165968905 2.200616218122586e-19 2.8860387192068147e-11 2.7076831176389966e-11 1.7835560156781855e-12
5.015371051989984 2.2179481770453017e-19 2.952731087591593e-11 2.7673003622569263e-11 1.8543072533466734e-12
5.091171501069577 2.238279533124871e-19 3.02483356482781e-11 2.832138287351482e-11 1.9269527747632712e-12
5.129500256944802 2.248052720742496e-19 3.060912965222338e-11 2.8645846400553735e-11 1.963283251669647e-12
5.168117569889187 2.2579211948433547e-19 3.0974948873285396e-11 2.8974938048740957e-11 2.0000108245444377e-12
5.20702561229733 2.270610802348224e-19 3.1383534005383295e-11 2.9343176967238824e-11 2.040357038144472e-12
5.246226572918644 2.2831284501388913e-19 3.179412093080924e-11 2.971331542904603e-11 2.080805501763218e-12
5.265937586045735 2.289324095106674e-19 3.200017988540686e-11 2.989911841791075e-11 2.101061467496105e-12
5.285722656980489 2.2954783760650434e-19 3.22067580638345e-11 3.0085423031570463e-11 2.1213350322640326e-12
5.305582063971359 2.301591896935582e-19 3.2413862783575555e-11 3.027223927367928e-11 2.1416235098962757e-12
5.3255160863122235 2.3082204622029298e-19 3.262934986372987e-11 3.046724421267335e-11 2.162105651056532e-12
5.365609099470188 2.32565317866681e-19 3.3123285840741574e-11 3.091878380220726e-11 2.2045020385343212e-12
5.406003951863644 2.3431527695246604e-19 3.3623769256773574e-11 3.137678014381676e-11 2.2469891129568216e-12
5.446702915881641 2.360739409709797e-19 3.413116961135613e-11 3.1841624307017846e-11 2.2895453043382862e-12
5.487708281020852 2.3794832658703913e-19 3.4661160931485713e-11 3.232880817055101e-11 2.3323527609347075e-12
5.529022354014368 2.407675780188836e-19 3.5335869544338976e-11 3.2958895417186704e-11 2.3769741271522715e-12
5.570647458961463 2.436690638167323e-19 3.603093254442723e-11 3.3609254412729764e-11 2.4216781316974596e-12
5.612585937458331 2.4666140657209977e-19 3.6747994317710885e-11 3.428155148086139e-11 2.4664428368494897e-12
5.654840148729818 2.499107359289967e-19 3.7512385189924826e-11 3.5000890445845005e-11 2.5114947440798087e-12
5.67608639626678 2.522710419136081e-19 3.8008946400411786e-11 3.547383715706292e-11 2.5351092433488698e-12
5.686739436050992 2.5347589757217717e-19 3.826215548110905e-11 3.5715229945876836e-11 2.546925535232222e-12
5.6974124697621304 2.5469781669095865e-19 3.851876169724556e-11 3.5960014306808417e-11 2.5587473904371425e-12
5.718818669136295 2.571946987505755e-19 3.904251376275123e-11 3.6460107371803125e-11 2.582406390948096e-12
5.740305295436557 2.5996047528145495e-19 3.9610629661044496e-11 3.700435047573213e-11 2.6062791853123557e-12
5.7835210386641895 2.6735171669864863e-19 4.104353228284958e-11 3.838794027856979e-11 2.6555920042797973e-12
5.827062130521658 2.757328999037419e-19 4.264888387674324e-11 3.994339393520657e-11 2.7054899415366713e-12
5.8489554468988025 2.8184258503115714e-19 4.3757687236211946e-11 4.1025116104251354e-11 2.7325711319605918e-12
5.870931020387893 2.883086475603357e-19 4.492975802383415e-11 4.217004524198442e-11 2.7597127818497293e-12
5.892989160043636 2.9515953661366876e-19 4.6170214808699176e-11 4.3383302755659814e-11 2.786912053039348e-12
5.915130176081913 3.029512930424593e-19 4.7567086356599535e-11 4.4751935456462e-11 2.8151509001375364e-12
5.95966208400165 3.251580913011236e-19 5.1438184791314854e-11 4.855790821077139e-11 2.88027658054346e-12
6.004529249263818 3.571987452969263e-19 5.693224668402954e-11 5.397824349104735e-11 2.954003192982192e-12
6.027089341400364 3.7958574114480543e-19 6.072771669417499e-11 5.773072579366084e-11 2.996990900514159e-12
6.049734195844842 4.0582420086211676e-19 6.516939194238989e-11 6.21267810366843e-11 3.0426109057055875e-12
6.095279466722835 4.817403822256723e-19 7.794281891173913e-11 7.47867578687181e-11 3.1560610430210255e-12
6.141167624020661 5.976755965246424e-19 9.742847580585869e-11 9.412354314817185e-11 3.3049326576868594e-12
6.164241091010745 6.715365201903815e-19 1.0988000869465419e-10 1.0648085861000734e-10 3.3991500846468834e-12
6.187401249150058 7.545412557683428e-19 1.2392550696481334e-10 1.2042976314712986e-10 3.4957438176834647e-12
6.1990139391386085 7.94797748510843e-19 1.3078221066260627e-10 1.2723734519221664e-10 3.5448654703896336e-12
6.204828454712694 8.159089046950522e-19 1.3438193337258645e-10 1.3081227340544123e-10 3.569659967145246e-12
6.210648424152782 8.311125009374377e-19 1.370143935806369e-10 1.3342378131748941e-10 3.5906122631474767e-12
6.233982942956859 8.818532429413212e-19 1.4592555677750767e-10 1.4226262545622538e-10 3.662931321282284e-12
6.239830258556775 8.87808003556585e-19 1.470487254788807e-10 1.4337631054792568e-10 3.672414930955045e-12
6.245683058788269 8.874733932936484e-19 1.4713117950838727e-10 1.4344927154485584e-10 3.681907963531392e-12
6.257405133728602 8.841214136827869e-19 1.46850563257885e-10 1.4315236143677174e-10 3.698201821113289e-12
6.269149208991335 8.716744115838882e-19 1.4505487752404223e-10 1.4135224867981258e-10 3.702628844229667e-12
6.280915325867298 8.433689913363891e-19 1.4060799021906964e-10 1.3691558728995337e-10 3.692402929116263e-12
6.304513850009849 7.747866987287645e-19 1.2965915665383752e-10 1.2600043035053462e-10 3.658726303302879e-12
6.32820103803542 6.915183221686126e-19 1.161591411096255e-10 1.1254815861397394e-10 3.6109824956515736e-12
6.3519772230701035 6.15626243615263e-19 1.0379955468503004e-10 1.0023180486149632e-10 3.567749823533713e-12
6.375842739491607 5.516300054939855e-19 9.335872478898479e-11 8.982956279674172e-11 3.5291619922430825e-12
6.399797922933955 5.007623453700742e-19 8.506822263210703e-11 8.156101777309552e-11 3.5072048590114722e-12
6.42384311029221 4.582774951150962e-19 7.814350543086358e-11 7.465492590047962e-11 3.48857953038397e-12
6.447978639727206 4.2730312993453493e-19 7.313564520966146e-11 6.965276758059619e-11 3.4828776290652486e-12
6.472204850670314 4.013455033570815e-19 6.895092379886273e-11 6.547119538912983e-11 3.479728409732873e-12
6.496522083828205 3.842415514805237e-19 6.626049551945449e-11 6.277348563366859e-11 3.487009885785904e-12
