Dust emission spectrum from A.P. Jones, M. Kohler, N. Ysard, M. Bocchio, and L. Verstraete (2017), A&A, 602A, 46J 
inside the DustPedia framework.

lambda    nu*dP/dnu     j_nu    j_nu(carb.) j_nu(sil)
 (um)   (erg s-1 H-1) (Jy cm2 sr-1 H-1)
0.9927057738263894 1.4499715079405737e-19 3.820757280160915e-12 3.820757146752005e-12 1.3340891003799767e-19
1.0001793341362166 1.4742624578868108e-19 3.914011670369293e-12 3.914011509877215e-12 1.604920776252153e-19
1.0077091589558085 1.498660071219052e-19 4.008738946572863e-12 4.008738753759051e-12 1.9281381254018763e-19
1.0114953028030835 1.5108979547196105e-19 4.056658382943626e-12 4.056658171710941e-12 2.1123268418115096e-19
1.0152956718711033 1.5231614184016843e-19 4.104950253283003e-12 4.104950021949874e-12 2.3133312837180118e-19
1.0229392996569957 1.547751736348994e-19 4.202624584879343e-12 4.2026243077016826e-12 2.7717765785576565e-19
1.0267826658714554 1.5600507323218567e-19 4.251935648896757e-12 4.2519353456368516e-12 3.032599060032551e-19
1.0306404723013447 1.5723733960776268e-19 4.301622677177962e-12 4.301622345493062e-12 3.31684899961163e-19
1.03451277320114 1.5847194332108473e-19 4.351687233586672e-12 4.3516868709344075e-12 3.6265226488617136e-19
1.0383996230291617 1.5970885616891618e-19 4.402130917374404e-12 4.402130520996759e-12 3.963776463147407e-19
1.0403485208654093 1.603281700501847e-19 4.427495441820704e-12 4.427495027474048e-12 4.143466566579529e-19
1.0423010764483396 1.6094805121414495e-19 4.452955364575118e-12 4.452954931481208e-12 4.330939101733167e-19
1.0462171883269815 1.6218950281433436e-19 4.504162249417263e-12 4.504161776364837e-12 4.730524256881446e-19
1.0471985131304309 1.6250021542168454e-19 4.51702392646009e-12 4.517023442880105e-12 4.835799855346169e-19
1.048180758391296 1.628110671702542e-19 4.529909639945416e-12 4.52990914561394e-12 4.943314756968383e-19
1.0501480137395462 1.634331866499942e-19 4.555753285752841e-12 4.5557527692284045e-12 5.1652443638674e-19
1.0521189612883777 1.6405585842491768e-19 4.581693407499394e-12 4.581692867830835e-12 5.396685588224293e-19
1.0531058218030118 1.6436699272694062e-19 4.594688315957874e-12 4.594687764347728e-12 5.516101463077646e-19
1.0540936079674168 1.6467692800283406e-19 4.607670022420765e-12 4.607669458613874e-12 5.638068892449774e-19
1.058054026499678 1.6591797977995711e-19 4.6598370320069835e-12 4.659836416784537e-12 6.152224448502782e-19
1.0590464539527713 1.6622856884534256e-19 4.672938972275415e-12 4.6729383435153514e-12 6.287600629753033e-19
1.06003981227728 1.665392877599232e-19 4.686065045087894e-12 4.686064402505735e-12 6.425821592690905e-19
1.0620293250338977 1.6716111398350989e-19 4.7123897045740815e-12 4.712389033471488e-12 6.71102592351718e-19
1.0660195594769086 1.6840631225701486e-19 4.765329902860903e-12 4.76532917104676e-12 7.318141427289082e-19
1.070024785945596 1.6965355771691583e-19 4.81865953692025e-12 4.818658739168045e-12 7.977522057346866e-19
1.0740450607676866 1.7090283497862317e-19 4.872380565643332e-12 4.872379696301112e-12 8.693422200822072e-19
1.07808044048254 1.7215413018214926e-19 4.9264949982978655e-12 4.926494051255747e-12 9.470421172922083e-19
1.0861967418109137 1.7466083149612286e-19 5.035857729360168e-12 5.035856606580317e-12 1.1227798517197407e-18
1.0902777775684922 1.7591190925045241e-19 5.0909852117561546e-12 5.090983989838328e-12 1.2219178272223602e-18
1.0943741465085532 1.7716489181755196e-19 5.146511187074632e-12 5.146509857703822e-12 1.329370810657946e-18
1.1026131145906286 1.796765510299973e-19 5.25876773041231e-12 5.258766158509292e-12 1.5719030177390323e-18
1.1109141095355224 1.8219578535362602e-19 5.372646198479801e-12 5.37264434223305e-12 1.856246750643465e-18
1.1192775983109025 1.8472065032011192e-19 5.488108560972053e-12 5.488106371807507e-12 2.1891645463760644e-18
1.1277040513999907 1.872422239893894e-19 5.604906402293165e-12 5.604903823857351e-12 2.5784358160855177e-18
1.1361939428280308 1.89771181987205e-19 5.72337451467277e-12 5.723371481675077e-12 3.0329976932463504e-18
1.1447477501889525 1.9230761732892682e-19 5.843535930480052e-12 5.843532367377072e-12 3.5631029818194586e-18
1.1533659546722406 1.9485251824348852e-19 5.965441396501711e-12 5.965437215997855e-12 4.180503855870855e-18
1.1707974979042381 1.9997543584201814e-19 6.2148102119715176e-12 6.214804479030008e-12 5.732941511403816e-18
1.1884924949847024 2.051340637376657e-19 6.4714806986900284e-12 6.471472876373717e-12 7.822316311039772e-18
1.2064549276569216 2.1036294988454404e-19 6.73674000779362e-12 6.736729387558389e-12 1.0620235232391688e-17
1.2246888378427687 2.1562994159054913e-19 7.0097779003767804e-12 7.009763552402861e-12 1.4347973918802216e-17
1.2431983285522175 2.2093133798334317e-19 7.29066550503558e-12 7.290646215201069e-12 1.9289834509248642e-17
1.2619875648066055 2.26275572731632e-19 7.579877403090621e-12 7.579851593846122e-12 2.5809244497705682e-17
1.3004222497298317 2.3706321838340373e-19 8.18310268015169e-12 8.183057130252107e-12 4.554989958523147e-17
1.3400274889804893 2.4802902361933073e-19 8.822377648901927e-12 8.822298738257427e-12 7.891064450004535e-17
1.3808389325824078 2.5921574823266345e-19 9.501098911024142e-12 9.500964657545208e-12 1.342534789330973e-16
1.4228933163050095 2.707157139931357e-19 1.0224809798818065e-11 1.0224585372498618e-11 2.244263194467242e-16
1.466228494730424 2.8271985069433907e-19 1.1003412422664955e-11 1.1003043616176247e-11 3.688064887090696e-16
1.5108834753276823 2.9520459259121697e-19 1.1839231536438894e-11 1.1838635473698378e-11 5.960627405169598e-16
1.5568984535646726 3.0815599932466417e-19 1.2735041000461754e-11 1.2734092548222878e-11 9.484522388782185e-16
1.6043148490894465 3.216379611473835e-19 1.3697027785154982e-11 1.3695539153048872e-11 1.4886321061092208e-15
1.6531753430134553 3.357148199885864e-19 1.473190350915711e-11 1.4729601609878856e-11 2.3018992782556096e-15
1.7035239163302658 3.504582039611415e-19 1.584724963159987e-11 1.584374200909677e-11 3.5076225030981726e-15
1.755405889504358 3.661018375619794e-19 1.7058816316353612e-11 1.705354664683251e-11 5.269669521105169e-15
1.8088679632656115 3.8261660517167287e-19 1.8371309517112134e-11 1.836350132535074e-11 7.808191761394639e-15
1.8639582606462262 3.9995877693453997e-19 1.9788863267589128e-11 1.97774480158963e-11 1.1415251692834802e-14
1.9207263702978936 4.1813272513845005e-19 2.131812924949135e-11 2.130165710547385e-11 1.6472144017499008e-14
1.979223391128241 4.371598262282916e-19 2.2967011753897347e-11 2.2943541911257126e-11 2.3469842640221963e-14
2.039501978296691 4.570430185967864e-19 2.4742902476559742e-11 2.470987175556531e-11 3.303072099442648e-14
2.1016163906111602 4.779125881579756e-19 2.6660687835892043e-11 2.6614752114049345e-11 4.593572184270295e-14
2.1656225393682647 4.997875121269566e-19 2.8730130347388694e-11 2.866698312262533e-11 6.31472247633534e-14
2.231578038680979 5.225298018668653e-19 3.095227510861688e-11 3.0866440674266446e-11 8.583443435043229e-14
2.299542257339062 5.460696796086915e-19 3.333180948920942e-11 3.321641045330916e-11 1.1539903590025167e-13
2.369576372248914 5.703800505164264e-19 3.587603764842824e-11 3.572253595342765e-11 1.5350169500060358e-13
2.4417434235010123 5.954457014266728e-19 3.859327411565104e-11 3.83911948973076e-11 2.020792183434424e-13
2.5161083711144245 6.213480026588617e-19 4.149862262209055e-11 4.123525404432142e-11 2.633685777691168e-13
2.5927381535095444 6.482932844092093e-19 4.461692285142695e-11 4.4277006471233865e-11 3.399163801930737e-13
2.6717017477616296 6.764325687892158e-19 4.797134745198644e-11 4.753678350999651e-11 4.345639419899037e-13
2.753070231689431 7.060400812368978e-19 5.159600543347671e-11 5.10455651925399e-11 5.504402409368145e-13
2.836916847834745 7.38067097209168e-19 5.557914794976138e-11 5.48881810577775e-11 6.90966891983883e-13
2.9233170693905177 7.747184980792289e-19 6.011589002745366e-11 5.925624852661075e-11 8.59641500842905e-13
2.967498994190263 7.96946408819573e-19 6.277534836165e-11 6.182165272954309e-11 9.536956321069136e-13
3.0123486681368425 8.206003158979477e-19 6.561548620691757e-11 6.455879519218323e-11 1.056691014734334e-12
3.0578761833420214 8.594373266793467e-19 6.975952925525852e-11 6.858984795562528e-11 1.169681299633237e-12
3.1040917844459814 9.046797337227444e-19 7.454162377322253e-11 7.324946672592725e-11 1.2921570472952843e-12
3.127460860933648 9.466659407105625e-19 7.858833155064534e-11 7.723078824563047e-11 1.3575433050148683e-12
3.1510058709225794 9.998972568467021e-19 8.36322964746786e-11 8.220673537859003e-11 1.4255610960885792e-12
3.162844764501044 1.0481294642054737e-18 8.799585990093067e-11 8.653515233146077e-11 1.4607075694698906e-12
3.1747281389236908 1.1025787838138613e-18 9.291495176454217e-11 9.141842017779161e-11 1.4965315867505396e-12
3.1986289994194426 1.2497127588320325e-18 1.061068708438365e-10 1.0453644031267623e-10 1.5704305311603076e-12
3.2227097969389145 1.5903752644353197e-18 1.360473994887359e-10 1.3439880258932813e-10 1.6485968994077424e-12
3.2348180950136065 1.9097797190745528e-18 1.6398441463296968e-10 1.6229413826209764e-10 1.6902763708720223e-12
3.240889293275058 2.1484007454335948e-18 1.8481998195365412e-10 1.8310772037977005e-10 1.7122615738840293e-12
3.2469718861334385 2.4249810894967206e-18 2.0900482760859907e-10 2.0726981788901794e-10 1.7350097195811401e-12
3.2714166318528037 3.8732010474984805e-18 3.3633753039047713e-10 3.345086280026782e-10 1.8289023877989117e-12
3.2744851364798273 3.9635383296248394e-18 3.4450499162026256e-10 3.4266505679976046e-10 1.839934820502101e-12
3.2775565192852394 4.0562667616416774e-18 3.528955088963873e-10 3.510444894527934e-10 1.851019443593971e-12
3.283707930232385 3.966510354633445e-18 3.457343633214275e-10 3.438635872638859e-10 1.870776057541667e-12
3.2898708863219004 3.682232886855892e-18 3.2155816344610495e-10 3.1966946862506913e-10 1.888694821035853e-12
3.29141343181113 3.615035641837941e-18 3.1583805292134526e-10 3.13944860129674e-10 1.8931927916711773e-12
3.292184975758714 3.581993696078083e-18 3.130246069430609e-10 3.1112916242220473e-10 1.895444520856172e-12
3.295272960557952 3.3763679920374143e-18 2.953320651799174e-10 2.9342787336402843e-10 1.9041918158889283e-12
3.3076538914384823 2.6581272243038732e-18 2.33380870698091e-10 2.3144157549207327e-10 1.9392952060176688e-12
3.310756385682612 2.5102704172310423e-18 2.2060592197291256e-10 2.1865778479591395e-10 1.948137176998623e-12
3.313861789986515 2.373193615426495e-18 2.087550526565172e-10 2.0679804704451614e-10 1.9570056120010116e-12
3.3200813396944477 2.181787521672867e-18 1.9227844904016056e-10 1.9030233972963825e-10 1.9761093105222683e-12
3.345076488085796 1.8479089567596513e-18 1.6408015448980131e-10 1.620188330615755e-10 2.0613214282258593e-12
3.3482140837626964 1.861441056511761e-18 1.6543673123185622e-10 1.6336386298688232e-10 2.0728682449739783e-12
3.3513546224236106 1.875092316280047e-18 1.6680630883911658e-10 1.6472184499279345e-10 2.0844638463230977e-12
3.3576445397418455 1.9710130346149133e-18 1.7566840036370835e-10 1.735596817964409e-10 2.108718567267446e-12
3.3702598118196083 2.318064279958674e-18 2.0737590272920953e-10 2.0521631374251932e-10 2.1595889866901642e-12
3.382922481734668 2.4008907152915006e-18 2.155926105949486e-10 2.133836794592624e-10 2.2089311356863017e-12
3.389271646505754 2.4435556114578168e-18 2.1983560798365185e-10 2.176016869479585e-10 2.2339210356932433e-12
3.395632727569191 2.4906063489694466e-18 2.2448908749442779e-10 2.2222941266555308e-10 2.2596748288747403e-12
3.421196662673239 2.7191447575652055e-18 2.4693338012608653e-10 2.4456720641043344e-10 2.3661737156530957e-12
3.4276182099114902 2.677798915582974e-18 2.436350884852499e-10 2.412452606126517e-10 2.3898278725982784e-12
3.4340518103208963 2.4906081189825626e-18 2.2702917748241962e-10 2.246170317883988e-10 2.4121456940208145e-12
3.4469541582030403 2.2217292241604622e-18 2.0328066295621433e-10 2.0082579208385894e-10 2.4548708723553615e-12
3.472904465399547 2.146441493002256e-18 1.9787062467227903e-10 1.9531716141719298e-10 2.553463255086015e-12
3.4990501388274233 2.03330924719314e-18 1.8885262877557658e-10 1.8619851999627527e-10 2.654108779301335e-12
3.5253949054701885 1.6349103079021122e-18 1.5299285097119442e-10 1.502413622903809e-10 2.751488680813532e-12
3.5519380250092896 1.255590463176466e-18 1.1838122260496247e-10 1.1553217643409393e-10 2.849046170868545e-12
3.578680990867387 1.1080646401982917e-18 1.0525858214306755e-10 1.0230264736891841e-10 2.9559347741491727e-12
3.605625307711299 1.051749311296297e-18 1.0066123692917739e-10 9.759291749439395e-11 3.068319434783434e-12
3.660119384959845 1.0170764979226645e-18 9.881395982783249e-11 9.551039966833966e-11 3.3035601594928384e-12
3.715437065384467 9.94011159201776e-19 9.803261835681377e-11 9.448233150505933e-11 3.550286851754449e-12
3.8285932144167436 9.947524596281698e-19 1.010936041212211e-10 9.701745061587506e-11 4.076153505346055e-12
3.94519561050918 1.0066318852619022e-18 1.0541651556098731e-10 1.0077350383578888e-10 4.643011725198432e-12
4.06534921144712 1.0219033239963078e-18 1.1027500904317736e-10 1.0502633954194948e-10 5.248669501227888e-12
4.189162171576248 1.0382658982585771e-18 1.1545299301920481e-10 1.0956024972642481e-10 5.892743292780002e-12
4.316745939156006 1.0547199470418154e-18 1.2085457117858432e-10 1.1428348822184788e-10 6.571082956736436e-12
4.448215356677963 1.0707776805181747e-18 1.2643128391504637e-10 1.1915901017169815e-10 7.27227374334819e-12
4.58368876423945 1.086335389064592e-18 1.321747451458099e-10 1.2417910931542995e-10 7.995635830379939e-12
4.723288106065518 1.1015287167746673e-18 1.3810509270206007e-10 1.2936079366161425e-10 8.744299040445824e-12
4.867139040275056 1.116494927192725e-18 1.4424472505210829e-10 1.347495540803125e-10 9.495170971795815e-12
4.940699165968905 1.1244976281203517e-18 1.4747431504345927e-10 1.3760083243719738e-10 9.873482606261886e-12
5.015371051989984 1.1319767074113536e-18 1.5069886884624033e-10 1.4044660800397217e-10 1.0252260842268162e-11
5.091171501069577 1.1408667424637372e-18 1.5417788370616148e-10 1.435375808175583e-10 1.064030288860316e-11
5.129500256944802 1.1450932643078674e-18 1.5591408452160612e-10 1.4508016159887392e-10 1.0833922922732242e-11
5.168117569889187 1.1493508524736361e-18 1.5767195052751927e-10 1.4664249509231035e-10 1.1029455435208924e-11
5.20702561229733 1.1549867526966786e-18 1.5963795288711247e-10 1.483931383140928e-10 1.1244814573019713e-11
5.246226572918644 1.1605192483757625e-18 1.6161022093674244e-10 1.5014980693676798e-10 1.1460413999974441e-11
5.265937586045735 1.1632473796370283e-18 1.625987577695004e-10 1.5103049147383162e-10 1.1568266295668736e-11
5.285722656980489 1.1659504815420516e-18 1.6358892971933686e-10 1.5191279622693194e-10 1.167613349240487e-11
5.305582063971359 1.1686288592233686e-18 1.6458076489679654e-10 1.5279676450162693e-10 1.178400039516959e-11
5.3255160863122235 1.171554347889987e-18 1.6561267577184968e-10 1.5371981891656094e-10 1.1892856855288773e-11
5.365609099470188 1.1794309091412192e-18 1.679813116213889e-10 1.558630664043728e-10 1.2118245217016048e-11
5.406003951863644 1.1873169857514888e-18 1.7037759075203064e-10 1.5803380344124389e-10 1.2343787310786707e-11
5.446702915881641 1.1952223597177544e-18 1.7280321968203504e-10 1.6023385860458842e-10 1.2569361077446612e-11
5.487708281020852 1.2036681087110798e-18 1.7533442921217942e-10 1.6253846220309695e-10 1.279596700908247e-11
5.529022354014368 1.2166872946417581e-18 1.7856517008425414e-10 1.655329668762578e-10 1.3032203207996342e-11
5.570647458961463 1.2300752443857837e-18 1.8188914694714144e-10 1.6862062382429488e-10 1.326852312284655e-11
5.612585937458331 1.2438733163422526e-18 1.853141526926961e-10 1.718093497641207e-10 1.3504802928575407e-11
5.654840148729818 1.2588871956050132e-18 1.8896291596538887e-10 1.7522063380705845e-10 1.3742282158330384e-11
5.67608639626678 1.269950436279523e-18 1.9133974988797235e-10 1.7747290050148737e-10 1.386684938648497e-11
5.686739436050992 1.2755977521365717e-18 1.9255132338452371e-10 1.7862217809389165e-10 1.3929145290632125e-11
5.6974124697621304 1.2813250464065262e-18 1.9377886611070084e-10 1.7978741934864732e-10 1.3991446762053517e-11
5.718818669136295 1.2930284406626234e-18 1.962835195882367e-10 1.8216746108178105e-10 1.4116058506455692e-11
5.740305295436557 1.3060231474441267e-18 1.9900101800533784e-10 1.8475928471222618e-10 1.4241733293111618e-11
5.7835210386641895 1.3409767249271691e-18 2.0586522570242532e-10 1.9136392909051715e-10 1.4501296611908186e-11
5.827062130521658 1.3806585257771268e-18 2.1355284465459283e-10 1.987892191075987e-10 1.4763625546994116e-11
5.8489554468988025 1.4097541941875846e-18 2.1887247132075133e-10 2.0396623447362553e-10 1.4906236847125758e-11
5.870931020387893 1.440548843827837e-18 2.2449382466460284e-10 2.0944476329208302e-10 1.5049061372519842e-11
5.892989160043636 1.4731786795526533e-18 2.304413974452349e-10 2.152493145741453e-10 1.519208287108959e-11
5.915130176081913 1.510329411139968e-18 2.371403297378835e-10 2.2179967537745135e-10 1.5340654360432195e-11
5.95966208400165 1.6165236117806205e-18 2.5572496113987354e-10 2.40040426803644e-10 1.5684534336229478e-11
6.004529249263818 1.7699926105961916e-18 2.821108899797666e-10 2.6603634353654177e-10 1.6074546443224762e-11
6.027089341400364 1.8773419094346e-18 3.0034502157644086e-10 2.8404247141182833e-10 1.6302550164612557e-11
6.049734195844842 2.0031767696545234e-18 3.2168069758821625e-10 3.051360438712207e-10 1.6544653716995508e-11
6.095279466722835 2.3674674300886714e-18 3.8304259304630934e-10 3.658939001439803e-10 1.714869290232901e-11
6.141167624020661 2.9238291758375864e-18 4.766201293393632e-10 4.5867640162091764e-10 1.79437277184456e-11
6.164241091010745 3.278174246852488e-18 5.363905073168977e-10 5.179424930488029e-10 1.8448014268094864e-11
6.187401249150058 3.676208954199114e-18 6.037788588429169e-10 5.848140545297614e-10 1.896480431315539e-11
6.1990139391386085 3.8691208734187315e-18 6.366552775150852e-10 6.174277006814639e-10 1.9227576833621245e-11
6.204828454712694 3.970273803710015e-18 6.539125467205114e-10 6.345523568291646e-10 1.9360189891346555e-11
6.210648424152782 4.0430029004199826e-18 6.665157725590492e-10 6.4704375629845e-10 1.9472016260599277e-11
6.233982942956859 4.285347013526938e-18 7.091221288113566e-10 6.892651372984653e-10 1.9856991512891233e-11
6.239830258556775 4.313546096237261e-18 7.144579156811611e-10 6.945512126103042e-10 1.990670307085694e-11
6.245683058788269 4.311534087611458e-18 7.147944947922444e-10 6.94838039029456e-10 1.9956455762788544e-11
6.257405133728602 4.2946180574842425e-18 7.133263270844397e-10 6.932849508380296e-10 2.0041376246410176e-11
6.269149208991335 4.234005655538911e-18 7.045786404172693e-10 6.845165481631387e-10 2.0062092254130256e-11
6.280915325867298 4.097250100694222e-18 6.831008822966173e-10 6.630973236028274e-10 2.0003558693789723e-11
6.304513850009849 3.766405233541998e-18 6.303011228753882e-10 6.104861018228563e-10 1.9815021052532106e-11
6.32820103803542 3.3653465064449625e-18 5.653006539277331e-10 5.457501856369083e-10 1.9550468290824856e-11
6.3519772230701035 2.999980952700409e-18 5.058210077679577e-10 4.865106450213159e-10 1.931036274664197e-11
6.375842739491607 2.6919100058093678e-18 4.555830590905218e-10 4.3648760220836045e-10 1.9095456882161493e-11
6.399797922933955 2.447047127141015e-18 4.1569808857942513e-10 3.967277193721974e-10 1.8970369207227723e-11
6.42384311029221 2.24252270230024e-18 3.823853163944318e-10 3.635220003782261e-10 1.886331601620575e-11
6.447978639727206 2.0933036874636503e-18 3.5828222420433136e-10 3.394562308261192e-10 1.882599337821212e-11
6.472204850670314 1.9682117987456125e-18 3.381376410603224e-10 3.1933520062677303e-10 1.8802440433549336e-11
