Dust emission spectrum from A.P. Jones, M. Kohler, N. Ysard, M. Bocchio, and L. Verstraete (2017), A&A, 602A, 46J 
inside the DustPedia framework.

lambda    nu*dP/dnu     j_nu    j_nu(carb.) j_nu(sil)
 (um)   (erg s-1 H-1) (Jy cm2 sr-1 H-1)
0.9927057738263894 5.832903263411293e-22 1.5370031401380092e-14 1.5370031025098177e-14 3.7628191313339217e-22
1.0001793341362166 5.931096046959491e-22 1.5746435800282012e-14 1.5746435347383025e-14 4.528989843428068e-22
1.0077091589558085 6.02963266361304e-22 1.6128556272598835e-14 1.612855572820482e-14 5.443940213903546e-22
1.0114953028030835 6.079024610515801e-22 1.632176817060156e-14 1.632176757404312e-14 5.965584406755448e-22
1.0152956718711033 6.128496228168994e-22 1.6516418969215157e-14 1.6516418315711124e-14 6.535040335820687e-22
1.0229392996569957 6.227622293950905e-22 1.6909920333631146e-14 1.690991955018132e-14 7.8344982849555235e-22
1.0267826658714554 6.277163643042826e-22 1.7108479432645748e-14 1.71084785752296e-14 8.574161479161022e-22
1.0306404723013447 6.326774296714332e-22 1.730848146885679e-14 1.7308480530802974e-14 9.38053819892644e-22
1.03451277320114 6.376452394077159e-22 1.7509930084379058e-14 1.7509929058444877e-14 1.025934179892057e-21
1.0383996230291617 6.426196117995002e-22 1.7712829013199706e-14 1.7712827891525015e-14 1.1216746930563517e-21
1.0403485208654093 6.451092034306837e-22 1.7814823538320844e-14 1.7814822365621913e-14 1.172698930200859e-21
1.0423010764483396 6.476003696246894e-22 1.7917182086188892e-14 1.791718086024646e-14 1.225942434970726e-21
1.0462171883269815 6.525873402682773e-22 1.812299323618255e-14 1.8122991896724735e-14 1.3394578150734224e-21
1.0471985131304309 6.538350339016847e-22 1.817467431921721e-14 1.8174672949845783e-14 1.3693714242167606e-21
1.048180758391296 6.550831027427834e-22 1.8226446848215536e-14 1.822644544829148e-14 1.399924055123843e-21
1.0501480137395462 6.575803558370695e-22 1.8330266503136544e-14 1.833026504013798e-14 1.4629985580806329e-21
1.0521189612883777 6.600790793209456e-22 1.8434452723534696e-14 1.8434451194746505e-14 1.5287881931910749e-21
1.0531058218030118 6.613273096394669e-22 1.8486636594199075e-14 1.8486635031461106e-14 1.5627379727549757e-21
1.0540936079674168 6.625704073175862e-22 1.8538758528989665e-14 1.8538756931573497e-14 1.5974161704509682e-21
1.058054026499678 6.675461272972021e-22 1.874815597850063e-14 1.8748154234864468e-14 1.743636159964747e-21
1.0590464539527713 6.687908777813845e-22 1.8800733103793903e-14 1.880073132164962e-14 1.7821442822183193e-21
1.06003981227728 6.700359518013443e-22 1.8853401470136828e-14 1.885339964867163e-14 1.8214652049522528e-21
1.0620293250338977 6.725270612927412e-22 1.8959012201821123e-14 1.8959010299210164e-14 1.902610960422361e-21
1.0660195594769086 6.775130631526418e-22 1.9171331621423154e-14 1.9171329546028903e-14 2.0753942492996422e-21
1.070024785945596 6.825039920656431e-22 1.9385118795096975e-14 1.938511653197545e-14 2.2631215266273767e-21
1.0740450607676866 6.874997126686929e-22 1.9600378421524188e-14 1.960037595450815e-14 2.467016031682796e-21
1.07808044048254 6.925000951536519e-22 1.9817115345914667e-14 1.9817112657519613e-14 2.6883950530591767e-21
1.0861967418109137 7.025066052178976e-22 2.0254817794633322e-14 2.02548146052461e-14 3.1893872194417094e-21
1.0902777775684922 7.074948804205016e-22 2.0475282139572935e-14 2.0475278667404018e-14 3.4721689160874125e-21
1.0943741465085532 7.124870495582031e-22 2.0697230323563543e-14 2.0697226544777247e-14 3.7787862985941796e-21
1.1026131145906286 7.224826799750341e-22 2.1145600700005655e-14 2.1145596228745165e-14 4.4712604959939116e-21
1.1109141095355224 7.32492779901758e-22 2.159997577174888e-14 2.1599970487999062e-14 5.283749812225968e-21
1.1192775983109025 7.425087800560339e-22 2.2060169154670646e-14 2.2060162918882303e-14 6.2357883452186024e-21
1.1277040513999907 7.524936041042028e-22 2.2525134178962277e-14 2.252512682909204e-14 7.349870227139092e-21
1.1361939428280308 7.624901900594039e-22 2.2996204564759603e-14 2.299619591289756e-14 8.651862041345316e-21
1.1447477501889525 7.7249826070032175e-22 2.3473440133755247e-14 2.3473429962286555e-14 1.0171468683868251e-20
1.1533659546722406 7.825213734188858e-22 2.395701855290953e-14 2.39570066101358e-14 1.194277372436131e-20
1.1707974979042381 8.0264311529567e-22 2.4944436842977712e-14 2.494442044060327e-14 1.6402374448634447e-20
1.1884924949847024 8.22823937721381e-22 2.5958093621124477e-14 2.5958071206588946e-14 2.24145355358602e-20
1.2064549276569216 8.432016045766198e-22 2.7002996427387744e-14 2.700296594805309e-14 3.0479334652583183e-20
1.2246888378427687 8.636369070471996e-22 2.8075428024113296e-14 2.8075386781145962e-14 4.1242967332368473e-20
1.2431983285522175 8.84110705194725e-22 2.917537855802889e-14 2.9175323020528677e-14 5.55375002080012e-20
1.2619875648066055 9.046498694611043e-22 3.030435420163459e-14 3.030427977275792e-14 7.442887666154922e-20
1.3004222497298317 9.457821584937513e-22 3.264712496855095e-14 3.264699317374463e-14 1.317948063163039e-19
1.3400274889804893 9.87137300234592e-22 3.5112415179899555e-14 3.5112186079478316e-14 2.2910042124665227e-19
1.3808389325824078 1.0288478939983163e-21 3.771061624119767e-14 3.771022510523293e-14 3.911359647323292e-19
1.4228933163050095 1.0712569963274488e-21 4.0460891137553394e-14 4.046023496402647e-14 6.561735269179504e-19
1.466228494730424 1.1151202736136899e-21 4.340030684549346e-14 4.339922462494565e-14 1.0822205478230653e-18
1.5108834753276823 1.160316461164975e-21 4.6534693511005565e-14 4.653293797324985e-14 1.7555377557083497e-18
1.5568984535646726 1.2067790291316107e-21 4.987207923314456e-14 4.98692753545153e-14 2.803878629254458e-18
1.6043148490894465 1.2547768173860279e-21 5.34349641770964e-14 5.343054671910289e-14 4.4174579935156214e-18
1.6531753430134553 1.3045941251937914e-21 5.724845501792734e-14 5.724159797536688e-14 6.857042560472532e-18
1.7035239163302658 1.3565713603666024e-21 6.13423362552878e-14 6.13318467720151e-14 1.0489483272681688e-17
1.755405889504358 1.4117322945486338e-21 6.578082770888168e-14 6.5765006464304e-14 1.5821244577681202e-17
1.8088679632656115 1.4700426475562634e-21 7.058399483078826e-14 7.056045792850252e-14 2.353690228570846e-17
1.8639582606462262 1.531442733523282e-21 7.57715859822103e-14 7.573703570106361e-14 3.455028114666553e-17
1.9207263702978936 1.596089136944586e-21 8.137520090977664e-14 8.132513872970604e-14 5.0062180070598566e-17
1.979223391128241 1.6642300670046978e-21 8.743344931728916e-14 8.736182012772527e-14 7.162918956386844e-17
2.039501978296691 1.7360693603419657e-21 9.398545241401209e-14 9.3884213933034e-14 1.0123848097810192e-16
2.1016163906111602 1.8123436240685235e-21 1.0110285606598921e-13 1.0096145454593488e-13 1.4140152005432995e-16
2.1656225393682647 1.893358907990633e-21 1.0883915044108295e-13 1.0864391306186153e-13 1.9523737922139995e-16
2.231578038680979 1.97881074835911e-21 1.1721569650625346e-13 1.169491300273317e-13 2.6656647892173034e-16
2.299542257339062 2.0686665472146517e-21 1.2627033110109695e-13 1.2591032274417106e-13 3.600083569258897e-16
2.369576372248914 2.1630974962094223e-21 1.360555425123432e-13 1.3557445695741781e-13 4.810855549253773e-16
2.4417434235010123 2.262327596018053e-21 1.4663071518248014e-13 1.4599441341533915e-13 6.363017671409666e-16
2.5161083711144245 2.3670012390234906e-21 1.5808740149469217e-13 1.572541565000663e-13 8.332449946258877e-16
2.5927381535095444 2.478329003884637e-21 1.7056387382994747e-13 1.6948322485454674e-13 1.080648975400735e-15
2.6717017477616296 2.59738400923983e-21 1.842016728977227e-13 1.8281329442668407e-13 1.3883784710386211e-15
2.753070231689431 2.725864766693085e-21 1.9920077776155168e-13 1.9743333471075824e-13 1.7674430507934594e-15
2.836916847834745 2.8686278827150153e-21 2.1601815622061865e-13 2.137881069416709e-13 2.230049278947723e-15
2.9233170693905177 3.0366455438475276e-21 2.356348144763494e-13 2.328458282560874e-13 2.788986220262029e-15
2.967498994190263 3.140921876060826e-21 2.4740994220489045e-13 2.443070417380488e-13 3.1029004668416166e-15
3.0123486681368425 3.2531160990713723e-21 2.6012029290354914e-13 2.566726774025121e-13 3.447615501037047e-15
3.0578761833420214 3.438935210231153e-21 2.791343754313851e-13 2.753076360068398e-13 3.826739424545309e-15
3.1040917844459814 3.658001406084882e-21 3.0140319762912254e-13 2.9716402937763147e-13 4.239168251490976e-15
3.127460860933648 3.861422437790712e-21 3.205594853982178e-13 3.1609954872879473e-13 4.459936669423019e-15
3.1510058709225794 4.120489088202077e-21 3.4464137458677605e-13 3.3995135906421774e-13 4.690015522558513e-15
3.162844764501044 4.354118991398353e-21 3.6555068609726636e-13 3.6074162004995246e-13 4.80906604731394e-15
3.1747281389236908 4.619159715598648e-21 3.8925926062442787e-13 3.8432873459364045e-13 4.930526030787392e-15
3.1986289994194426 5.338228083621147e-21 4.532422941197323e-13 4.480608675796757e-13 5.181426540056735e-15
3.2227097969389145 7.001691015667227e-21 5.989541437211611e-13 5.935068951333922e-13 5.447248587768921e-15
3.2348180950136065 8.562741312299854e-21 7.35245069222679e-13 7.296559733257041e-13 5.589095896974992e-15
3.240889293275058 9.728526649995596e-21 8.369137479166848e-13 8.312498310689781e-13 5.663916847706463e-15
3.2469718861334385 1.1079235394033882e-20 9.548996870922908e-13 9.491583524308023e-13 5.7413346614885605e-15
3.2714166318528037 1.818108148864971e-20 1.578792314865722e-12 1.5727310833750586e-12 6.061231490663068e-15
3.2744851364798273 1.862557287059024e-20 1.6189077263982536e-12 1.6128088038534174e-12 6.0989225448363205e-15
3.2775565192852394 1.9082057128175178e-20 1.6601403844336656e-12 1.6540035832049764e-12 6.136801228689723e-15
3.283707930232385 1.864672926547559e-20 1.6253115444651347e-12 1.6191070196032443e-12 6.2045248618912104e-15
3.2898708863219004 1.7258503695373138e-20 1.5071324716918134e-12 1.5008663289482538e-12 6.266142743559874e-15
3.29141343181113 1.6930508046960654e-20 1.4791828425244984e-12 1.4729012275887872e-12 6.28161493571095e-15
3.292184975758714 1.676925019785452e-20 1.4654375181231007e-12 1.4591481569211044e-12 6.2893612019964735e-15
3.295272960557952 1.5761610164697807e-20 1.3786734418401034e-12 1.3723539518488811e-12 6.3194899912221724e-15
3.3076538914384823 1.2247578147733075e-20 1.075324922722395e-12 1.0688844284341879e-12 6.440494288207175e-15
3.310756385682612 1.1525872348633313e-20 1.0129090788621308e-12 1.0064380860075905e-12 6.4709928545400335e-15
3.313861789986515 1.0857444350204312e-20 9.550617161233075e-13 9.485601255359565e-13 6.501590587351232e-15
3.3200813396944477 9.923904087895252e-21 8.745823630803193e-13 8.680149533015068e-13 6.567409778812178e-15
3.345076488085796 8.292783679880124e-21 7.363356416277229e-13 7.294748990992008e-13 6.8607425285219396e-15
3.3482140837626964 8.35954399212144e-21 7.429596697717059e-13 7.360591902021144e-13 6.9004795695913035e-15
3.3513546224236106 8.426923853757495e-21 7.496505909118416e-13 7.427101960770159e-13 6.940394834825933e-15
3.3576445397418455 8.897843535148962e-21 7.930287182558214e-13 7.860048676949564e-13 7.023850560865004e-15
3.3702598118196083 1.0604926983271103e-20 9.48725333264876e-13 9.41526432572658e-13 7.198900692217917e-15
3.382922481734668 1.1013320622503395e-20 9.88962358512186e-13 9.815933140989328e-13 7.369044413252528e-15
3.389271646505754 1.1223960505277666e-20 1.009768785327605e-12 1.002313501779577e-12 7.455283548027972e-15
3.395632727569191 1.145501077539617e-20 1.032489504923795e-12 1.0249453465737152e-12 7.54415835007972e-15
3.421196662673239 1.2573442257866511e-20 1.1418305656280226e-12 1.1339185097341205e-12 7.912055893902079e-15
3.4276182099114902 1.2372507347527441e-20 1.1256920394050587e-12 1.1176978831360398e-12 7.994156269018861e-15
3.4340518103208963 1.1456531446595589e-20 1.0443099784740891e-12 1.0362381706107383e-12 8.07180786335055e-15
3.4469541582030403 1.0144234137173733e-20 9.281629003943836e-13 9.199420524276717e-13 8.220847966711935e-15
3.472904465399547 9.786807203591023e-21 9.022009969687444e-13 8.9363682416258e-13 8.564172806164497e-15
3.4990501388274233 9.241183271534267e-21 8.583159478742854e-13 8.494004545673024e-13 8.91549330698286e-15
3.5253949054701885 7.283596096316331e-21 6.815897647180392e-13 6.723329771780828e-13 9.256787539956307e-15
3.5519380250092896 5.422277908441608e-21 5.112302991544636e-13 5.016304915728617e-13 9.599807581601873e-15
3.578680990867387 4.700214675190641e-21 4.46488331574294e-13 4.365125679873265e-13 9.975763586967533e-15
3.605625307711299 4.4264447791202014e-21 4.2364791864305134e-13 4.132762167746684e-13 1.0371701868382984e-14
3.660119384959845 4.263363885176964e-21 4.142066683693456e-13 4.0300321063512826e-13 1.120345773421729e-14
3.715437065384467 4.1590732078275694e-21 4.101813472883201e-13 3.9810118843849363e-13 1.2080158849826385e-14
3.8285932144167436 4.1843315668735654e-21 4.252406262876317e-13 4.112767456323286e-13 1.3963880655302942e-14
3.94519561050918 4.269039008150093e-21 4.470623508175776e-13 4.3104520960632757e-13 1.601714121125014e-14
4.06534921144712 4.3750549888026605e-21 4.721182690431826e-13 4.538810414306906e-13 1.8237227612492108e-14
4.189162171576248 4.491003305490654e-21 4.993901602158828e-13 4.787623297431322e-13 2.062783047275063e-14
4.316745939156006 4.612014769139573e-21 5.284654649387821e-13 5.052859749145077e-13 2.317949002427434e-14
4.448215356677963 4.735799184486088e-21 5.591759915733906e-13 5.333198503816157e-13 2.585614119177478e-14
4.58368876423945 4.861859467353816e-21 5.915438661954742e-13 5.628835553616864e-13 2.8660310833787804e-14
4.723288106065518 4.990892859978068e-21 6.257374052957349e-13 5.941286641822684e-13 3.160874111346645e-14
4.867139040275056 5.12396557547752e-21 6.619868909477287e-13 6.273647174819637e-13 3.4622173465765026e-14
4.940699165968905 5.1951835498141686e-21 6.813319266973965e-13 6.451697423523188e-13 3.616218434507784e-14
5.015371051989984 5.265040142226056e-21 7.009292582335665e-13 6.632097770499328e-13 3.771948118363359e-14
5.091171501069577 5.343619590013148e-21 7.221421477672711e-13 6.828143909525732e-13 3.9327756814698114e-14
5.129500256944802 5.382320096451263e-21 7.328481762991328e-13 6.927114825950961e-13 4.0136693704036676e-14
5.168117569889187 5.421530355212772e-21 7.437444050359377e-13 7.027876948507133e-13 4.0956710185224435e-14
5.20702561229733 5.468198814705187e-21 7.557940060534352e-13 7.139416141827586e-13 4.185239187067677e-14
5.246226572918644 5.514741862635643e-21 7.679654189941327e-13 7.252118316108989e-13 4.2753587383233947e-14
5.265937586045735 5.537969167953303e-21 7.740975161757733e-13 7.30891381510879e-13 4.3206134664894325e-14
5.285722656980489 5.561168640296409e-21 7.802609461180775e-13 7.366010284199882e-13 4.365991769808943e-14
5.305582063971359 5.584341608598852e-21 7.864560301882266e-13 7.423411422040284e-13 4.41148879841982e-14
5.3255160863122235 5.608933278177988e-21 7.928872016034353e-13 7.483125315889734e-13 4.4574670014461743e-14
5.365609099470188 5.669260312755317e-21 8.07448554958717e-13 7.619225694685587e-13 4.552598549015829e-14
5.406003951863644 5.730164555344672e-21 8.222670468530201e-13 7.757841594233095e-13 4.648288742971068e-14
5.446702915881641 5.791700798624607e-21 8.373542691032697e-13 7.899092803693838e-13 4.7444988733885955e-14
5.487708281020852 5.856687325308352e-21 8.531246460926471e-13 8.047085620397762e-13 4.841608405287088e-14
5.529022354014368 5.947045079037143e-21 8.728085850108846e-13 8.233801911569318e-13 4.9428393853952585e-14
5.570647458961463 6.040163391541179e-21 8.931487498208813e-13 8.427022722381565e-13 5.044647758272495e-14
5.612585937458331 6.1362859763712355e-21 9.14193287573044e-13 8.627233463504855e-13 5.146994122255859e-14
5.654840148729818 6.239850777046065e-21 9.366211699792956e-13 8.841176237256145e-13 5.2503546253681444e-14
5.67608639626678 6.311488244866978e-21 9.5093363307284e-13 8.978890735680291e-13 5.304455950481102e-14
5.686739436050992 6.348050052729705e-21 9.582373726489856e-13 9.049217027780946e-13 5.331566987089109e-14
5.6974124697621304 6.385124134959228e-21 9.656426511902507e-13 9.12055476729546e-13 5.358717446070431e-14
5.718818669136295 6.460861758462807e-21 9.807678204465822e-13 9.266364791115452e-13 5.413134133503714e-14
5.740305295436557 6.544029625464558e-21 9.97125173373123e-13 9.424440054912012e-13 5.46811678819219e-14
5.7835210386641895 6.761082247737592e-21 1.0379536773829952e-12 9.821360884701006e-13 5.581758891289423e-14
5.827062130521658 7.006108599785971e-21 1.0836672453828899e-12 1.0266960962617344e-12 5.697114912115551e-14
5.8489554468988025 7.180894830048372e-21 1.1148753479345635e-12 1.057280417438683e-12 5.759493049588074e-14
5.870931020387893 7.365846024490354e-21 1.147886760669965e-12 1.0896654553382694e-12 5.822130533169573e-14
5.892989160043636 7.56176608933028e-21 1.1828462962200902e-12 1.1239960699577209e-12 5.885022626236946e-14
5.915130176081913 7.783720975148866e-21 1.2221401139512219e-12 1.162637683389572e-12 5.95024305616497e-14
5.95966208400165 8.409319180454923e-21 1.3303070892146484e-12 1.2693130662520538e-12 6.099402296259505e-14
6.004529249263818 9.306347469561556e-21 1.4832954394169088e-12 1.420619864720087e-12 6.267557469682192e-14
6.027089341400364 9.930370176614009e-21 1.5887022124038303e-12 1.5250522990099817e-12 6.364991339384893e-14
6.049734195844842 1.0661410172728666e-20 1.7120655119362932e-12 1.6473829258107207e-12 6.468258612557221e-14
6.095279466722835 1.2771493271044423e-20 2.0663540445965585e-12 1.9991237098570034e-12 6.723033473955556e-14
6.141167624020661 1.5992436971736818e-20 2.606963991231554e-12 2.5364153249509798e-12 7.054866628057374e-14
6.164241091010745 1.804611060192616e-20 2.9527906974920453e-12 2.880153702372864e-12 7.263699511918114e-14
6.187401249150058 2.0357626391069285e-20 3.3435271455694623e-12 3.2687466753141387e-12 7.478047025532407e-14
6.1990139391386085 2.1481186596974822e-20 3.534681717546396e-12 3.4588107592279913e-12 7.587095831840523e-14
6.204828454712694 2.2070674491341908e-20 3.6350870690546797e-12 3.558665414427613e-12 7.642165462706622e-14
6.210648424152782 2.2497491521792727e-20 3.708860298054865e-12 3.6319707241393367e-12 7.688957391552852e-14
6.233982942956859 2.3929416179302954e-20 3.959744330789785e-12 3.881228765755856e-12 7.85155650339286e-14
6.239830258556775 2.4102120296090784e-20 3.992063663180215e-12 3.913326526646861e-12 7.87371365333522e-14
6.245683058788269 2.4100895269848626e-20 3.995605023268158e-12 3.916645996936184e-12 7.895902633197419e-14
6.257405133728602 2.4024271169801774e-20 3.9903769986181545e-12 3.911031964786624e-12 7.934503383152981e-14
6.269149208991335 2.3695955258993413e-20 3.943231374272921e-12 3.86375596975973e-12 7.947540451318999e-14
6.280915325867298 2.2928041380059872e-20 3.822604164046151e-12 3.74331436801204e-12 7.928979603411149e-14
6.304513850009849 2.1057447832868665e-20 3.5239259163479056e-12 3.4452930533813547e-12 7.863286296655131e-14
6.32820103803542 1.877408774447807e-20 3.1536140657507837e-12 3.075942114736968e-12 7.767195101381586e-14
6.3519772230701035 1.668991831877286e-20 2.8140549679048754e-12 2.7372470467098978e-12 7.68079211949784e-14
6.375842739491607 1.493191344472429e-20 2.5271003824576336e-12 2.451057044200545e-12 7.604333825708889e-14
6.399797922933955 1.3534783367900443e-20 2.299254277928984e-12 2.223615318681618e-12 7.563895924736551e-14
6.42384311029221 1.2368241205876158e-20 2.1089792410576018e-12 2.033672826501668e-12 7.530641455593378e-14
6.447978639727206 1.1520128031770036e-20 1.9717430963599283e-12 1.8964885585432212e-12 7.525453781670693e-14
6.472204850670314 1.0810285336866362e-20 1.8572007267341016e-12 1.7819424645392795e-12 7.525826219482166e-14
6.496522083828205 1.0346509594840825e-20 1.7842028016215032e-12 1.7087136043801935e-12 7.54891972413094e-14
