Dust emission spectrum from A.P. Jones, M. Kohler, N. Ysard, M. Bocchio, and L. Verstraete (2017), A&A, 602A, 46J 
inside the DustPedia framework.

lambda    nu*dP/dnu     j_nu    j_nu(carb.) j_nu(sil)
 (um)   (erg s-1 H-1) (Jy cm2 sr-1 H-1)
0.9927057738263894 3.39406135960072e-24 8.943544461384538e-17 8.943544454914274e-17 6.470264468357478e-26
1.0001793341362166 3.450082582253929e-24 9.159606159974858e-17 9.15960615218209e-17 7.792767995543014e-26
1.0077091589558085 3.5060401361170286e-24 9.378243880526813e-17 9.378243871153387e-17 9.373428624924469e-26
1.0114953028030835 3.5339884229475856e-24 9.488518874748579e-17 9.488518864473378e-17 1.0275197109896964e-25
1.0152956718711033 3.561912878659413e-24 9.599425902454815e-17 9.599425891194761e-17 1.1260054296713974e-25
1.0229392996569957 3.617652405561708e-24 9.823044989776932e-17 9.823044976267964e-17 1.3508965709223474e-25
1.0267826658714554 3.645400035066409e-24 9.935578402966012e-17 9.935578388176096e-17 1.4789919853250306e-25
1.0306404723013447 3.673112031065093e-24 1.0048721282145606e-16 1.0048721265958546e-16 1.6187056655281853e-25
1.03451277320114 3.700785837724165e-24 1.0162469233833064e-16 1.0162469216122671e-16 1.7710394929671734e-25
1.0383996230291617 3.7284189147724896e-24 1.0276817811708758e-16 1.0276817792337991e-16 1.9370769231118689e-25
1.0403485208654093 3.742219390240757e-24 1.0334215931858893e-16 1.0334215911602924e-16 2.0255968959070806e-25
1.0423010764483396 3.756008738018672e-24 1.0391762517893324e-16 1.0391762496713431e-16 2.117989204053361e-25
1.0462171883269815 3.783552799857986e-24 1.0507298804230118e-16 1.0507298781079696e-16 2.315042034121202e-25
1.0471985131304309 3.790431372857636e-24 1.0536274772542956e-16 1.0536274748873105e-16 2.36698509121378e-25
1.048180758391296 3.797306891281392e-24 1.0565287355225603e-16 1.056528733102516e-16 2.4200442553810096e-25
1.0501480137395462 3.81104860976879e-24 1.0623422073572213e-16 1.0623422048276187e-16 2.5296026868039526e-25
1.0521189612883777 3.824777646753944e-24 1.0681702377183723e-16 1.0681702350744668e-16 2.6439053591040746e-25
1.0531058218030118 3.831626835112669e-24 1.0710867649473793e-16 1.071086762244479e-16 2.702900388339499e-25
1.0540936079674168 3.8384384074381845e-24 1.0739972986717997e-16 1.0739972959086315e-16 2.763168365050503e-25
1.058054026499678 3.865649662197888e-24 1.0856748299710801e-16 1.0856748269537133e-16 3.0173670513725353e-25
1.0590464539527713 3.872443528153426e-24 1.0886030245186016e-16 1.0886030214342686e-16 3.08433285784825e-25
1.06003981227728 3.8792337396397e-24 1.0915347287455927e-16 1.0915347255928717e-16 3.1527207076144497e-25
1.0620293250338977 3.8928030490633224e-24 1.0974086360868733e-16 1.0974086327929951e-16 3.2938779951934433e-25
1.0660195594769086 3.919896167051932e-24 1.1091982343544443e-16 1.109198230759886e-16 3.594558390029492e-25
1.070024785945596 3.946926635062597e-24 1.121043137999139e-16 1.1210431340777279e-16 3.9214109698565775e-25
1.0740450607676866 3.9738920923018985e-24 1.1329428562678532e-16 1.1329428519912583e-16 4.276594650985482e-25
1.07808044048254 4.000790198699874e-24 1.144896894560696e-16 1.1448968898982604e-16 4.662435891358569e-25
1.0861967418109137 4.054327858797342e-24 1.1689523123298583e-16 1.1689523067935494e-16 5.536308837207656e-25
1.0902777775684922 4.080855404238051e-24 1.1810214898362643e-16 1.1810214838063185e-16 6.029946186800369e-25
1.0943741465085532 4.107304579120783e-24 1.193142091997359e-16 1.1931420854318817e-16 6.565477555488345e-25
1.1026131145906286 4.1599589715366496e-24 1.2175355033225138e-16 1.2175354955465864e-16 7.775927387362401e-25
1.1109141095355224 4.212273580460215e-24 1.2421283837653866e-16 1.2421283745676762e-16 9.197709973915661e-25
1.1192775983109025 4.264183143383862e-24 1.266902210132037e-16 1.266902199266509e-16 1.0865527399436066e-24
1.1277040513999907 4.315449613246977e-24 1.2917861500850477e-16 1.29178613726565e-16 1.2819397470212488e-24
1.1361939428280308 4.366319398947188e-24 1.316853323522039e-16 1.3168533084166378e-16 1.5105400917849403e-24
1.1447477501889525 4.4167767640012314e-24 1.3420993965728024e-16 1.3420993787962686e-16 1.7776533394804968e-24
1.1533659546722406 4.466833317288802e-24 1.3675282527747442e-16 1.3675282318810536e-16 2.089369061019362e-24
1.1707974979042381 4.565905946248714e-24 1.4189862260915582e-16 1.4189861973356847e-16 2.8755873626248388e-24
1.1884924949847024 4.6631786976813555e-24 1.4711194419265197e-16 1.4711194025460834e-16 3.938043648697106e-24
1.2064549276569216 4.759407864885517e-24 1.5241701732353217e-16 1.5241701195683366e-16 5.366698503474387e-24
1.2246888378427687 4.8535720827594884e-24 1.577817165494439e-16 1.5778170927128792e-16 7.278155938733973e-24
1.2431983285522175 4.945462631877427e-24 1.6319873018371708e-16 1.6319872036068365e-16 9.823033443356757e-24
1.2619875648066055 5.0350593139605454e-24 1.6866660354175845e-16 1.6866659034686937e-16 1.3194889117447655e-23
1.3004222497298317 5.2059596604213374e-24 1.7970270858744835e-16 1.797026851115683e-16 2.3475880059399164e-23
1.3400274889804893 5.365716737305558e-24 1.9085822587519994e-16 1.9085818486696447e-16 4.10082354549344e-23
1.3808389325824078 5.513863187287894e-24 2.0210099070545505e-16 2.0210092034086998e-16 7.036458509441046e-23
1.4228933163050095 5.651198261995126e-24 2.1344319659913242e-16 2.1344307794467077e-16 1.1865446164519523e-22
1.466228494730424 5.780962259327459e-24 2.249941480338886e-16 2.249939513010127e-16 1.96732875839966e-22
1.5108834753276823 5.9009461394981094e-24 2.366584713887406e-16 2.3665815052289554e-16 3.2086584511519645e-22
1.5568984535646726 6.0093912659327524e-24 2.4834773402818213e-16 2.483472187093617e-16 5.153188204847481e-22
1.6043148490894465 6.10662356428648e-24 2.6005199241760737e-16 2.6005117596283835e-16 8.164547689633222e-22
1.6531753430134553 6.193059929407532e-24 2.717650692619436e-16 2.71763794608306e-16 1.274653637529371e-21
1.7035239163302658 6.269705189244864e-24 2.8350765405827725e-16 2.8350569268386606e-16 1.961374411206719e-21
1.755405889504358 6.341626420858594e-24 2.95493300390898e-16 2.954903242408293e-16 2.9761500686329696e-21
1.8088679632656115 6.407791454989766e-24 3.0766965821544723e-16 3.0766520340081413e-16 4.454814632969572e-21
1.8639582606462262 6.467535969168579e-24 3.1999594046423056e-16 3.1998935997808447e-16 6.580486146074882e-21
1.9207263702978936 6.521611894087527e-24 3.324986467565856e-16 3.324890504436803e-16 9.59631290530013e-21
1.979223391128241 6.571556027846757e-24 3.452490267349818e-16 3.452352058062803e-16 1.3820928701555394e-20
2.039501978296691 6.619153157424948e-24 3.583405814936334e-16 3.5832091565862106e-16 1.9665835012238518e-20
2.1016163906111602 6.669195325067891e-24 3.72045723598834e-16 3.7201806626727224e-16 2.7657331561558435e-20
2.1656225393682647 6.724496789874081e-24 3.8655561534839506e-16 3.8651715780072185e-16 3.84575476732604e-20
2.231578038680979 6.78530103769823e-24 4.0193019357607857e-16 4.018773048901164e-16 5.288868596219172e-20
2.299542257339062 6.853284546779825e-24 4.1832092756422693e-16 4.1824896806788113e-16 7.195949634593254e-20
2.369576372248914 6.932027103407304e-24 4.3601396142203137e-16 4.3591706680328305e-16 9.689461874830595e-20
2.4417434235010123 7.025728293390008e-24 4.553662193533805e-16 4.55237058804341e-16 1.2916054903946535e-19
2.5161083711144245 7.141557186642063e-24 4.769706917127577e-16 4.768001931025114e-16 1.7049861024618505e-19
2.5927381535095444 7.291191801773679e-24 5.017953292716103e-16 5.015723774687007e-16 2.2295180290955144e-19
2.6717017477616296 7.488361560042827e-24 5.310607602556951e-16 5.307718826680253e-16 2.8887758766969286e-19
2.753070231689431 7.753665280287376e-24 5.666224433465777e-16 5.662514742667065e-16 3.709690798711035e-19
2.836916847834745 8.133992167156459e-24 6.125193167261181e-16 6.120470309069941e-16 4.722858191238797e-19
2.9233170693905177 8.732554083666387e-24 6.776206612518404e-16 6.770245007539561e-16 5.9616049788449295e-19
2.967498994190263 9.215567934601815e-24 7.259088955579369e-16 7.252423082557567e-16 6.665873021800076e-19
3.0123486681368425 9.773739166742706e-24 7.815115776352823e-16 7.807672362932255e-16 7.44341342056816e-19
3.0578761833420214 1.0974899377722318e-23 8.908198311235126e-16 8.899895415149413e-16 8.302896085713354e-19
3.1040917844459814 1.250962652536218e-23 1.0307381045885682e-15 1.029813694219062e-15 9.244103695062147e-19
3.127460860933648 1.4111351766442826e-23 1.171466663748981e-15 1.170491624124409e-15 9.75039624572518e-19
3.1510058709225794 1.6237214389584298e-23 1.3580950627218537e-15 1.3570670765814542e-15 1.0279861403995015e-18
3.162844764501044 1.8209339667865362e-23 1.5287677305365958e-15 1.5277122777894564e-15 1.0554527471388616e-18
3.1747281389236908 2.049861169108839e-23 1.7274298621359095e-15 1.7263463374878015e-15 1.0835246481084628e-18
3.1986289994194426 2.687065638671937e-23 2.281453275214544e-15 2.2803116106035956e-15 1.1416646109486127e-18
3.2227097969389145 4.186531914965454e-23 3.581335755431777e-15 3.580132301297013e-15 1.2034541347620775e-18
3.2348180950136065 5.607326091908859e-23 4.81476516717558e-15 4.813528691080936e-15 1.2364760946429605e-18
3.240889293275058 6.669429126911268e-23 5.737494615457045e-15 5.736240719759484e-15 1.2538956975641497e-18
3.2469718861334385 7.898275452641854e-23 6.807383804082541e-15 6.806111882851717e-15 1.2719212308243735e-18
3.2714166318528037 1.4447100014186285e-22 1.2545442078752689e-14 1.254409551685784e-14 1.346561894848939e-18
3.2744851364798273 1.4856682534835524e-22 1.2913212555340334e-14 1.2911857155669176e-14 1.3553996711586495e-18
3.2775565192852394 1.5277984004345046e-22 1.3291857407184225e-14 1.3290493121604438e-14 1.3642855797867797e-18
3.283707930232385 1.487376395804073e-22 1.2964472174437646e-14 1.296309191452781e-14 1.3802599098344608e-18
3.2898708863219004 1.3590275358849475e-22 1.1867972828980708e-14 1.1866577954394743e-14 1.3948745859703946e-18
3.29141343181113 1.328755541043311e-22 1.1609057405536402e-14 1.1607658859034527e-14 1.3985465018760161e-18
3.292184975758714 1.313880336667654e-22 1.1481786704591778e-14 1.148038631938935e-14 1.4003852024260729e-18
3.295272960557952 1.2200372961429363e-22 1.0671708034081589e-14 1.0670300482164915e-14 1.4075519166750846e-18
3.3076538914384823 8.947806953881081e-23 7.856083631520241e-15 7.854647254003359e-15 1.4363775168835914e-18
3.310756385682612 8.285402886874316e-23 7.281322881508946e-15 7.279879229793531e-15 1.4436517154154496e-18
3.313861789986515 7.674066176954129e-23 6.7503977696811525e-15 6.748946816546315e-15 1.4509531348398222e-18
3.3200813396944477 6.817037227835439e-23 6.007777256935694e-15 6.006310634307582e-15 1.466622628111602e-18
3.345076488085796 5.290814530868603e-23 4.697837858441194e-15 4.696301491717408e-15 1.5363667237877227e-18
3.3482140837626964 5.348570723886173e-23 4.753575485115238e-15 4.7520296733874556e-15 1.545811727784119e-18
3.3513546224236106 5.40695861656603e-23 4.809975493177444e-15 4.808420189400917e-15 1.555303776525751e-18
3.3576445397418455 5.831647468808824e-23 5.197510946602462e-15 5.1959358103990395e-15 1.5751362034221776e-18
3.3702598118196083 7.39583557284503e-23 6.616374237831237e-15 6.6147574918035876e-15 1.6167460276480768e-18
3.382922481734668 7.753866671682722e-23 6.96273406909435e-15 6.961076725904373e-15 1.6573431899775587e-18
3.389271646505754 7.939299066953776e-23 7.142627035635825e-15 7.140949084367108e-15 1.6779512687158971e-18
3.395632727569191 8.139359527150786e-23 7.33635563803653e-15 7.334656447285277e-15 1.6991907512556528e-18
3.421196662673239 9.100469583645951e-23 8.264398976083e-15 8.262611687734522e-15 1.787288348476457e-18
3.4276182099114902 8.909054379560579e-23 8.105755213556057e-15 8.103948097535626e-15 1.807116020429174e-18
3.4340518103208963 8.066547457814364e-23 7.35298990038874e-15 7.351163949696407e-15 1.8259506923347284e-18
3.4469541582030403 6.866266677471968e-23 6.2824003350727705e-15 6.280538067516542e-15 1.8622675562287348e-18
3.472904465399547 6.531711682994069e-23 6.021286278274071e-15 6.019340579467238e-15 1.9456988068331143e-18
3.4990501388274233 6.019276293080754e-23 5.590670247745302e-15 5.5886387805663385e-15 2.031467178963886e-18
3.5253949054701885 4.190766950358383e-23 3.9216670198496e-15 3.919551611687919e-15 2.1154081616809104e-18
3.5519380250092896 2.4703773082758838e-23 2.329153451113412e-15 2.3269531680795425e-15 2.2002830338693254e-18
3.578680990867387 1.7896771493988412e-23 1.7000712088949786e-15 1.697777804191576e-15 2.29340470340305e-18
3.605625307711299 1.5160178837791874e-23 1.4509563614534712e-15 1.4485645588736492e-15 2.3918025798223284e-18
3.660119384959845 1.3198689934875389e-23 1.2823173278200775e-15 1.2797173756127007e-15 2.5999522073767104e-18
3.715437065384467 1.1822125338307703e-23 1.1659365095935294e-15 1.1631150277788793e-15 2.8214818146503887e-18
3.8285932144167436 1.1204091305306915e-23 1.138637014660001e-15 1.1353319741044525e-15 3.3050405555484068e-18
3.94519561050918 1.1173287439981906e-23 1.1700891324118823e-15 1.166245344622682e-15 3.8437877892003524e-18
4.06534921144712 1.1384806864600145e-23 1.2285503437242415e-15 1.224110155168852e-15 4.440188555389473e-18
4.189162171576248 1.1737544194028011e-23 1.3051903276112721e-15 1.300091757433156e-15 5.098570178116065e-18
4.316745939156006 1.2193584511779146e-23 1.3971959394852251e-15 1.3913756079413944e-15 5.8203315438309174e-18
4.448215356677963 1.274006176410824e-23 1.5042733849417916e-15 1.4976733194710212e-15 6.600065470771152e-18
4.58368876423945 1.33783401109937e-23 1.6277465619224328e-15 1.6203039295840964e-15 7.442632338336591e-18
4.723288106065518 1.4120391331346152e-23 1.7703559826519212e-15 1.7619987355427831e-15 8.357247109137485e-18
4.867139040275056 1.499004052445609e-23 1.936627047116797e-15 1.927299316445232e-15 9.32773067156469e-18
4.940699165968905 1.5503327588327405e-23 2.0332124851207317e-15 2.02337455949081e-15 9.837925629921109e-18
5.015371051989984 1.603240935591245e-23 2.1343778003533625e-15 2.124013638358482e-15 1.0364161994880338e-17
5.091171501069577 1.6666342323710763e-23 2.2523063325021323e-15 2.2413895596856606e-15 1.091677281647131e-17
5.129500256944802 1.6990616663191644e-23 2.3134154440252177e-15 2.302216269210789e-15 1.1199174814428137e-17
5.168117569889187 1.732739665516822e-23 2.3770325852236265e-15 2.3655447833471413e-15 1.1487801876486395e-17
5.20702561229733 1.7735313944946907e-23 2.451308818366264e-15 2.439509132317363e-15 1.1799686048901053e-17
5.246226572918644 1.815254587760757e-23 2.5278658272582435e-15 2.5157491121582643e-15 1.2116715099979937e-17
5.265937586045735 1.836474490598587e-23 2.567024659362499e-15 2.5547475007631788e-15 1.2277158599319647e-17
5.285722656980489 1.857938230068903e-23 2.6067841761138197e-15 2.5943452884091382e-15 1.2438887704682072e-17
5.305582063971359 1.8796496351763792e-23 2.647155016357371e-15 2.6345531143378168e-15 1.260190201955334e-17
5.3255160863122235 1.9028868649928457e-23 2.6899493478057984e-15 2.6771821512894435e-15 1.2767196516353526e-17
5.365609099470188 1.9602228954431504e-23 2.791861825009968e-15 2.778752402851612e-15 1.3109422158356516e-17
5.406003951863644 2.019564947755256e-23 2.8980349333418067e-15 2.8845776118628596e-15 1.3457321478947704e-17
5.446702915881641 2.0810087718511907e-23 3.0086871538059424e-15 2.9948762522344755e-15 1.3810901571465881e-17
5.487708281020852 2.147153637437223e-23 3.1276890591879568e-15 3.1135177038064603e-15 1.417135538149558e-17
5.529022354014368 2.2383494651068274e-23 3.2850778889943543e-15 3.2705298893979243e-15 1.4547999596429808e-17
5.570647458961463 2.3346058803288512e-23 3.452142248768132e-15 3.4372112782880553e-15 1.493097048007732e-17
5.612585937458331 2.4362845733010826e-23 3.6296140892160784e-15 3.614293802422214e-15 1.532028679386468e-17
5.654840148729818 2.5476904233532768e-23 3.82416322172984e-15 3.808445741359669e-15 1.5717480370171695e-17
5.67608639626678 2.6233149643025467e-23 3.952472591115703e-15 3.9365475070906156e-15 1.592508402508762e-17
5.686739436050992 2.662245891367409e-23 4.018656890067349e-15 4.002627333608149e-15 1.602955645920042e-17
5.6974124697621304 2.701946239397159e-23 4.086239319451634e-15 4.070104842758777e-15 1.6134476692856292e-17
5.718818669136295 2.7837288762720834e-23 4.225739235357301e-15 4.209393572629959e-15 1.6345662727342217e-17
5.740305295436557 2.8737534647372615e-23 4.378788125602862e-15 4.36222817353603e-15 1.6559952066830598e-17
5.7835210386641895 3.1068656571892283e-23 4.769624914847883e-15 4.75262069120719e-15 1.700422364069391e-17
5.827062130521658 3.374572216566498e-23 5.219607041752055e-15 5.202147475166892e-15 1.7459566585162993e-17
5.8489554468988025 3.562328113072831e-23 5.530719901230465e-15 5.51301576785509e-15 1.770413337537659e-17
5.870931020387893 3.7634296966340114e-23 5.864894689781773e-15 5.846943583372611e-15 1.795110640915934e-17
5.892989160043636 3.9789441353776766e-23 6.2240477658242e-15 6.205847268356118e-15 1.820049746808489e-17
5.915130176081913 4.223811268704414e-23 6.631904203303153e-15 6.613445469584823e-15 1.845873371832893e-17
5.95966208400165 4.908309518096623e-23 7.764670133058788e-15 7.745631481580864e-15 1.903865147792309e-17
6.004529249263818 5.893555456693791e-23 9.393463933575209e-15 9.373776849438431e-15 1.9687084136774826e-17
6.027089341400364 6.578208545693597e-23 1.0524093547699595e-14 1.0504036107497107e-14 2.0057440202487046e-17
6.049734195844842 7.386310441426552e-23 1.18613271249696e-14 1.184087808842267e-14 2.0449036546934224e-17
6.095279466722835 9.72008769041835e-23 1.5726541984300533e-14 1.5705145635026383e-14 2.1396349274150297e-17
6.141167624020661 1.3308500052033676e-22 2.1694492511848305e-14 2.1671885431998905e-14 2.2607079849406362e-17
6.164241091010745 1.5600833111214765e-22 2.5526827303720485e-14 2.5503469551083368e-14 2.3357752637114028e-17
6.187401249150058 1.8208818926435918e-22 2.9906080011373886e-14 2.9881948721578224e-14 2.4131289795663562e-17
6.1990139391386085 1.9482388770415089e-22 3.205783958443687e-14 3.2033314103220026e-14 2.4525481216844905e-17
6.204828454712694 2.0152960874184377e-22 3.319235554203419e-14 3.316763067330293e-14 2.4724868731262713e-17
6.210648424152782 2.064269343199093e-22 3.403084563479737e-14 3.4005948640561646e-14 2.4896994235733683e-17
6.233982942956859 2.23060485064192e-22 3.6911159241741385e-14 3.6885652481648885e-14 2.5506760092485496e-17
6.239830258556775 2.25184821567601e-22 3.7297637412653056e-14 3.7272038844664706e-14 2.5598567988351466e-17
6.245683058788269 2.2536728635764632e-22 3.736287185055184e-14 3.733718121849591e-14 2.5690632055931043e-17
6.257405133728602 2.2490639283330986e-22 3.735644217720606e-14 3.7330586145675415e-14 2.5856031530641346e-17
6.269149208991335 2.216312079759548e-22 3.688153202758521e-14 3.68555947902677e-14 2.5937237317495045e-17
6.280915325867298 2.1342329748852654e-22 3.5582314780433786e-14 3.5556400788875136e-14 2.5913991558650994e-17
6.304513850009849 1.9318291592402001e-22 3.2328812561876926e-14 3.23030399064612e-14 2.5772655415735078e-17
6.32820103803542 1.6810604370865327e-22 2.8237941102264892e-14 2.8212410689259115e-14 2.5530413005779243e-17
6.3519772230701035 1.451110296891808e-22 2.4466891101277447e-14 2.444157093417445e-14 2.5320167102998716e-17
6.375842739491607 1.2575340592890869e-22 2.12827030771851e-14 2.1257560658193518e-14 2.5142418991579774e-17
6.399797922933955 1.1025610082995775e-22 1.873002357040122e-14 1.870493753641466e-14 2.5086033986559285e-17
6.42384311029221 9.736153532631694e-23 1.660166983023785e-14 1.6576616005289673e-14 2.5053824948177416e-17
6.447978639727206 8.797353607432965e-23 1.5057229567116085e-14 1.503211240507152e-14 2.5117162044565376e-17
6.472204850670314 8.014813807880655e-23 1.3769403456790989e-14 1.3744203475533451e-14 2.5199981257529306e-17
6.496522083828205 7.50687481868666e-23 1.2945222695778797e-14 1.2919861636794422e-14 2.5361058984373503e-17
6.520930681187647 7.078850815950216e-23 1.2252981462816159e-14 1.2227446466037352e-14 2.5534996778803034e-17
