Dust emission spectrum from A.P. Jones, M. Kohler, N. Ysard, M. Bocchio, and L. Verstraete (2017), A&A, 602A, 46J 
inside the DustPedia framework.

lambda    nu*dP/dnu     j_nu    j_nu(carb.) j_nu(sil)
 (um)   (erg s-1 H-1) (Jy cm2 sr-1 H-1)
0.9927057738263894 2.685217071874887e-22 7.075699501675196e-15 7.075699501674809e-15 3.8813435415054245e-28
1.0001793341362166 2.7295796166020673e-22 7.246746613826402e-15 7.246746613825934e-15 4.676482644550044e-28
1.0077091589558085 2.773878898646372e-22 7.419798917465805e-15 7.419798917465241e-15 5.62734456240431e-28
1.0114953028030835 2.795999360372755e-22 7.507068368535884e-15 7.507068368535269e-15 6.170033003530749e-28
1.0152956718711033 2.8180974767409455e-22 7.59482863153327e-15 7.594828631532593e-15 6.762891284578095e-28
1.0229392996569957 2.8621963584164706e-22 7.771748207505092e-15 7.771748207504281e-15 8.117266706565844e-28
1.0267826658714554 2.884143642165407e-22 7.860765624211752e-15 7.860765624210865e-15 8.889031612447278e-28
1.0306404723013447 2.90605887688042e-22 7.95025456242582e-15 7.950254562424845e-15 9.731045865747856e-28
1.03451277320114 2.927939947669007e-22 8.040211171742723e-15 8.040211171741658e-15 1.064939462483527e-27
1.0383996230291617 2.9497847513678374e-22 8.130631553620277e-15 8.130631553619115e-15 1.165066126627868e-27
1.0403485208654093 2.9606928991266686e-22 8.176014428039155e-15 8.176014428037937e-15 1.2184591685430508e-27
1.0423010764483396 2.9715911969460206e-22 8.221511762300883e-15 8.221511762299608e-15 1.2741965625994412e-27
1.0462171883269815 2.993357205899505e-22 8.312847805734869e-15 8.312847805733477e-15 1.3931004963398255e-27
1.0471985131304309 2.9987921475645967e-22 8.335752568622348e-15 8.335752568620923e-15 1.4244496409207779e-27
1.048180758391296 3.0042244006298175e-22 8.358685505538291e-15 8.358685505536832e-15 1.4564749263838903e-27
1.0501480137395462 3.0150807126365178e-22 8.404635646504613e-15 8.40463564650309e-15 1.5226097825867699e-27
1.0521189612883777 3.0259258857999585e-22 8.450697717019606e-15 8.450697717018016e-15 1.5916195246685882e-27
1.0531058218030118 3.0313358888182145e-22 8.47374728893117e-15 8.47374728892954e-15 1.6272417539485936e-27
1.0540936079674168 3.03671573058389e-22 8.496748274405602e-15 8.49674827440394e-15 1.6636354166216976e-27
1.058054026499678 3.0582045316228015e-22 8.589023773557897e-15 8.58902377355608e-15 1.817168239662974e-27
1.0590464539527713 3.0635689332148563e-22 8.612160209110184e-15 8.612160209108325e-15 1.857622887238076e-27
1.06003981227728 3.068930152675481e-22 8.635323536990405e-15 8.635323536988506e-15 1.8989399821697296e-27
1.0620293250338977 3.079642920336571e-22 8.681730604517352e-15 8.681730604515367e-15 1.9842318782935713e-27
1.0660195594769086 3.1010288998395786e-22 8.774864521401479e-15 8.774864521399316e-15 2.165958210317924e-27
1.070024785945596 3.122360488336738e-22 8.868421238729276e-15 8.868421238726915e-15 2.3635683553510323e-27
1.0740450607676866 3.1436357194493803e-22 8.962396432348962e-15 8.962396432346381e-15 2.578379249176082e-27
1.07808044048254 3.164852642532206e-22 9.056785740364071e-15 9.05678574036126e-15 2.811810665501026e-27
1.0861967418109137 3.207066347538667e-22 9.246680962458365e-15 9.246680962455025e-15 3.340774296277549e-27
1.0902777775684922 3.227974045306622e-22 9.341930400625473e-15 9.341930400621831e-15 3.639731464196028e-27
1.0943741465085532 3.248814304977095e-22 9.437569144631307e-15 9.437569144627344e-15 3.9641745756941375e-27
1.1026131145906286 3.290285100924823e-22 9.62999624236505e-15 9.629996242360354e-15 4.6979026610704405e-27
1.1109141095355224 3.3314640962087657e-22 9.823925332371446e-15 9.823925332365886e-15 5.560353708571209e-27
1.1192775983109025 3.3722987102253566e-22 1.0019205427043552e-14 1.0019205427036976e-14 6.57278965530666e-27
1.1277040513999907 3.4125992699661184e-22 1.021527040705198e-14 1.0215270407044221e-14 7.759753217669802e-27
1.1361939428280308 3.452560438569957e-22 1.0412696078275486e-14 1.0412696078266338e-14 9.149532007952038e-27
1.1447477501889525 3.4921688872209645e-22 1.0611443608537026e-14 1.0611443608526252e-14 1.0774690770022659e-26
1.1533659546722406 3.5314331826642428e-22 1.081153986961575e-14 1.0811539869603079e-14 1.267268576724493e-26
1.1707974979042381 3.6090561127512747e-22 1.1216176972267924e-14 1.1216176972250458e-14 1.7465662750989628e-26
1.1884924949847024 3.6851351874955574e-22 1.1625705064976026e-14 1.1625705064952071e-14 2.395306093933236e-26
1.2064549276569216 3.760265281231474e-22 1.2042010997608001e-14 1.2042010997575309e-14 3.2690827999499055e-26
1.2246888378427687 3.833625825901094e-22 1.2462492636455354e-14 1.2462492636410958e-14 4.440109687561013e-26
1.2431983285522175 3.9050451494422647e-22 1.288652765448409e-14 1.2886527654424074e-14 6.001868688413564e-26
1.2619875648066055 3.974496484163436e-22 1.3313940928437695e-14 1.3313940928356946e-14 8.074755489251104e-26
1.3004222497298317 4.106340540149444e-22 1.4174533910767537e-14 1.4174533910623406e-14 1.441293457029533e-25
1.3400274889804893 4.2286415619763595e-22 1.504125293774304e-14 1.5041252937490422e-14 2.5261636895323673e-25
1.3808389325824078 4.340945509870603e-22 1.5910974907137077e-14 1.5910974906702108e-14 4.349665971992194e-25
1.4228933163050095 4.443798252870115e-22 1.6784024558348703e-14 1.6784024557612585e-14 7.361189783831703e-25
1.466228494730424 4.539674068478018e-22 1.76683405559471e-14 1.7668340554722042e-14 1.2250499975441428e-24
1.5108834753276823 4.626708727299634e-22 1.8555495832009156e-14 1.8555495830003465e-14 2.0056932270975686e-24
1.5568984535646726 4.703393637544691e-22 1.9437528701927333e-14 1.9437528698693413e-14 3.2339230772910022e-24
1.6043148490894465 4.769868163387757e-22 2.03125951092293e-14 2.0312595104084845e-14 5.144456529806819e-24
1.6531753430134553 4.826333675047862e-22 2.1179011997807553e-14 2.1179011989742542e-14 8.065005485182599e-24
1.7035239163302658 4.873460241705568e-22 2.2037133143713902e-14 2.2037133131250613e-14 1.2463285681007759e-23
1.755405889504358 4.915122811430784e-22 2.2902419111273247e-14 2.2902419092278086e-14 1.8995164825479003e-23
1.8088679632656115 4.95036383994127e-22 2.376913732875646e-14 2.3769137300194158e-14 2.856230845152461e-23
1.8639582606462262 4.978534550654617e-22 2.4632423433977265e-14 2.4632423391587705e-14 4.2389561843884223e-23
1.9207263702978936 5.00010438457373e-22 2.5492592452790367e-14 2.5492592390673746e-14 6.211662228504269e-23
1.979223391128241 5.016166858119111e-22 2.6353373818428e-14 2.6353373728517212e-14 8.991077876211956e-23
2.039501978296691 5.028030815215962e-22 2.7220211456677194e-14 2.722021132808021e-14 1.2859697719952964e-22
2.1016163906111602 5.039363295396185e-22 2.811244044189083e-14 2.811244026006749e-14 1.8182333965668887e-22
2.1656225393682647 5.052290445979986e-22 2.904293515621087e-14 2.904293490198248e-14 2.5422838918726987e-22
2.231578038680979 5.066964083783625e-22 3.00143773094709e-14 3.001437695783289e-14 3.5163800933208823e-22
2.299542257339062 5.084657092906829e-22 3.103648268114359e-14 3.103648219985548e-14 4.812881110936352e-22
2.369576372248914 5.108184640976535e-22 3.212970445387612e-14 3.2129703801796344e-14 6.520797684223065e-22
2.4417434235010123 5.14087099245855e-22 3.332008996450611e-14 3.332008908967867e-14 8.748274410135109e-22
2.5161083711144245 5.188409529408562e-22 3.4652376469937206e-14 3.465237530736393e-14 1.1625732804360141e-21
2.5927381535095444 5.260117430548402e-22 3.62012470639886e-14 3.6201245533104945e-14 1.530883657079188e-21
2.6717017477616296 5.367118530493773e-22 3.806261255326126e-14 3.806261055518929e-14 1.998071973291001e-21
2.753070231689431 5.52616103365241e-22 4.0384086158265576e-14 4.0384083572754686e-14 2.585510885332019e-21
2.836916847834745 5.775190446066732e-22 4.348929324362303e-14 4.34892899255792e-14 3.3180438359486604e-21
2.9233170693905177 6.1977799928419e-22 4.809296039629774e-14 4.8092956172655574e-14 4.223642144212089e-21
2.967498994190263 6.556670908148151e-22 5.1646797801793076e-14 5.164679305768428e-14 4.7441088008508124e-21
3.0123486681368425 6.975815403826575e-22 5.577886219930597e-14 5.577885687744302e-14 5.321862957397032e-21
3.0578761833420214 7.913699989372523e-22 6.423458334756992e-14 6.42345773836471e-14 5.963922802344953e-21
3.1040917844459814 9.122272644365091e-22 7.516350704739201e-14 7.516350037574185e-14 6.671650170080299e-21
3.127460860933648 1.0400803685934336e-21 8.634321499407269e-14 8.634320793983584e-14 7.054236878602819e-21
3.1510058709225794 1.2104275224334186e-21 1.0124123526101685e-13 1.0124122780527377e-13 7.455743072395962e-21
3.162844764501044 1.3689957306674411e-21 1.1493423344615412e-13 1.1493422578152085e-13 7.664633284573244e-21
3.1747281389236908 1.553397652939361e-21 1.3090571858707228e-13 1.3090571070855665e-13 7.87851562760365e-21
3.1986289994194426 2.06774848104283e-21 1.7556219976548987e-13 1.75562191442725e-13 8.322764806139664e-21
3.2227097969389145 3.2802030314900737e-21 2.8060238498977357e-13 2.8060237619275324e-13 8.797020374658633e-21
3.2348180950136065 4.429990949746198e-21 3.8038390787577793e-13 3.8038389882441567e-13 9.051362340039853e-21
3.240889293275058 5.289607157728221e-21 4.550478310488312e-13 4.550478218630125e-13 9.185818732445534e-21
3.2469718861334385 6.284050621370233e-21 5.416111995643551e-13 5.416111902391991e-13 9.325155967303104e-21
3.2714166318528037 1.1588587732310433e-20 1.0063193030261105e-12 1.0063192931219057e-12 9.904204803940906e-21
3.2744851364798273 1.1920190804750375e-20 1.036085661795822e-12 1.0360856518228946e-12 9.972927349924205e-21
3.2775565192852394 1.2261318454793922e-20 1.066735614324816e-12 1.06673560428275e-12 1.004206580794271e-20
3.283707930232385 1.1933258790994699e-20 1.0401429119263324e-12 1.040142901760099e-12 1.0166233583658384e-20
3.2898708863219004 1.0892882859927618e-20 9.512422257633707e-13 9.512422154836301e-13 1.0279740724943242e-20
3.29141343181113 1.0647536280217517e-20 9.3025282745028e-13 9.30252817142006e-13 1.030827438155303e-20
3.292184975758714 1.0526981665412916e-20 9.199358172295498e-13 9.199358069069852e-13 1.0322564805368546e-20
3.295272960557952 9.766028961580296e-21 8.542378996105685e-13 8.542378892323566e-13 1.0378211679616947e-20
3.3076538914384823 7.129856074008156e-21 6.259941222113125e-13 6.259941116090742e-13 1.0602238282418735e-20
3.310756385682612 6.5933277690618804e-21 5.794304634987977e-13 5.794304528399641e-13 1.0658833650631746e-20
3.313861789986515 6.0982969414845e-21 5.364291774844886e-13 5.364291667688227e-13 1.0715665789395343e-20
3.3200813396944477 5.40407072567091e-21 4.762545973489789e-13 4.762545865111476e-13 1.0837831257674529e-20
3.345076488085796 4.165630865951119e-21 3.698760988914042e-13 3.6987608750787255e-13 1.1383531686866393e-20
3.3482140837626964 4.2120689516913336e-21 3.7435024689786783e-13 3.7435023544017775e-13 1.1457690244590117e-20
3.3513546224236106 4.259020460185526e-21 3.788781363272993e-13 3.788781247950401e-13 1.1532259189465262e-20
3.3576445397418455 4.602160352093381e-21 4.101718928649687e-13 4.101718811766274e-13 1.1688341251752336e-20
3.3702598118196083 5.867811235916172e-21 5.24939132453397e-13 5.249391204367345e-13 1.2016662498861498e-20
3.382922481734668 6.15607034560104e-21 5.527962053254619e-13 5.527961929883021e-13 1.2337159953832984e-20
3.389271646505754 6.305408586295254e-21 5.672689926326587e-13 5.672689801325216e-13 1.2500137187124323e-20
3.395632727569191 6.46632767199256e-21 5.82837990084713e-13 5.828379774164626e-13 1.2668250597873654e-20
3.421196662673239 7.23900063846969e-21 6.573945323870287e-13 6.573945190195417e-13 1.3367487053395793e-20
3.4276182099114902 7.083282553662905e-21 6.444607030367644e-13 6.444606895113134e-13 1.3525450804135049e-20
3.4340518103208963 6.400941474672964e-21 5.834721516533702e-13 5.834721379777243e-13 1.3675646016242073e-20
3.4469541582030403 5.429161275604667e-21 4.967497800359373e-13 4.96749766070181e-13 1.3965756383692434e-20
3.472904465399547 5.156801155904682e-21 4.753819143713867e-13 4.753818997362445e-13 1.4635142346375418e-20
3.4990501388274233 4.740243859255521e-21 4.4027120571721666e-13 4.40271190390885e-13 1.5326331520402174e-20
3.5253949054701885 3.2578368978157266e-21 3.048642806806636e-13 3.0486426467566516e-13 1.6004998483532784e-20
3.5519380250092896 1.8645455682955625e-21 1.7579552445714244e-13 1.7579550776279475e-13 1.6694347702368295e-20
3.578680990867387 1.3120794209790532e-21 1.2463859462805112e-13 1.246385771732204e-13 1.7454830685775873e-20
3.605625307711299 1.0885983157107923e-21 1.0418799594307219e-13 1.0418797768029671e-13 1.826277548364342e-20
3.660119384959845 9.255193808411827e-22 8.991873777942214e-14 8.991871779320042e-14 1.998622171393446e-20
3.715437065384467 8.100042037598297e-22 7.988525303716763e-14 7.988523119669879e-14 2.1840468859676722e-20
3.8285932144167436 7.5123320466442065e-22 7.634549827949033e-14 7.63454723168044e-14 2.5962685925118822e-20
3.94519561050918 7.39776420417204e-22 7.747087458318676e-14 7.747084390839939e-14 3.067478739089274e-20
4.06534921144712 7.477439102551348e-22 8.069008538195509e-14 8.069004934193414e-14 3.604002094238735e-20
4.189162171576248 7.669557497489735e-22 8.528387282132883e-14 8.528383067594484e-14 4.214538397123381e-20
4.316745939156006 7.943616604739801e-22 9.102154378188218e-14 9.102149471683895e-14 4.90650432239178e-20
4.448215356677963 8.289346758097608e-22 9.787584972224489e-14 9.787579289555564e-14 5.682668923639125e-20
4.58368876423945 8.707932153776353e-22 1.0594966570714911e-13 1.05949600149188e-13 6.555796110968237e-20
4.723288106065518 9.209024822670931e-22 1.1545892607815764e-13 1.1545885063470293e-13 7.544345464771549e-20
4.867139040275056 9.811997275831557e-22 1.2676536317303393e-13 1.2676527670472445e-13 8.646830947479964e-20
4.940699165968905 1.0176069921207305e-21 1.3345594547610546e-13 1.3345585298703214e-13 9.24890733221143e-20
5.015371051989984 1.0553048018307431e-21 1.404916186725979e-13 1.4049151980431988e-13 9.886827800006029e-20
5.091171501069577 1.1013511002604333e-21 1.488376999130583e-13 1.4883759418441507e-13 1.0572864320657331e-19
5.129500256944802 1.1249816150456774e-21 1.53175714224031e-13 1.5317560491314446e-13 1.093108865558165e-19
5.168117569889187 1.1496196448884894e-21 1.5770882440658388e-13 1.577087113888737e-13 1.1301771023492485e-19
5.20702561229733 1.1798912664257984e-21 1.630801617090606e-13 1.6308004470588283e-13 1.170031777368952e-19
5.246226572918644 1.210934884838211e-21 1.6863094218610219e-13 1.686308210732486e-13 1.211128535560682e-19
5.265937586045735 1.2267539055695787e-21 1.714757020959181e-13 1.7147557888045237e-13 1.2321546573271853e-19
5.285722656980489 1.2427753155587476e-21 1.743678543577446e-13 1.7436772900716154e-13 1.2535058303828488e-19
5.305582063971359 1.2590023880172327e-21 1.7730828260092154e-13 1.7730815508221298e-13 1.2751870855890778e-19
5.3255160863122235 1.2764418022113372e-21 1.8043972327190096e-13 1.8043959354140923e-13 1.2973049173346235e-19
5.365609099470188 1.3199229320753435e-21 1.8799099095224549e-13 1.8799085661525146e-13 1.3433699403334575e-19
5.406003951863644 1.365061468471628e-21 1.9588356522956734e-13 1.9588342613810245e-13 1.3909146482104889e-19
5.446702915881641 1.4119376923597443e-21 2.0413555456559805e-13 2.0413541056686182e-13 1.4399873622058078e-19
5.487708281020852 1.4626010777692733e-21 2.1305235494724663e-13 2.1305220586888107e-13 1.4907836559680103e-19
5.529022354014368 1.5331044312588534e-21 2.2500362642914467e-13 2.250034719774242e-13 1.544517204901275e-19
5.570647458961463 1.6077726699971168e-21 2.3773862677541037e-13 2.377384667700239e-13 1.600053864433018e-19
5.612585937458331 1.6869061259324482e-21 2.5131785953777627e-13 2.513176937920946e-13 1.6574568167865834e-19
5.654840148729818 1.773912299951899e-21 2.662697992608334e-13 2.6626962756008807e-13 1.717007453604546e-19
5.67608639626678 1.833214774087894e-21 2.7620515442518234e-13 2.76204979577009e-13 1.7484817334975274e-19
5.686739436050992 1.8637841600256984e-21 2.813379891231091e-13 2.8133781268047556e-13 1.7644263359726655e-19
5.6974124697621304 1.8949851978812725e-21 2.8658464452234767e-13 2.8658446647124987e-13 1.780510978498298e-19
5.718818669136295 1.9593431440345397e-21 2.974310203069441e-13 2.974308389963778e-13 1.8131056611425745e-19
5.740305295436557 2.030299273938684e-21 3.0936023083509813e-13 3.093600461834587e-13 1.8465163945037897e-19
5.7835210386641895 2.214461024227604e-21 3.399615445127126e-13 3.399613528065025e-13 1.9170621013471183e-19
5.827062130521658 2.4266602011394625e-21 3.7534276527335355e-13 3.7534256618860475e-13 1.9908474869597057e-19
5.8489554468988025 2.5755820840375655e-21 3.9987397671664076e-13 3.998737735900847e-13 2.0312655600739666e-19
5.870931020387893 2.7354076374948736e-21 4.262834441116526e-13 4.2628323685741085e-13 2.0725424181807164e-19
5.892989160043636 2.9070149129789095e-21 4.54728668177861e-13 4.5472845670794417e-13 2.1146991681692796e-19
5.915130176081913 3.102207343012698e-21 4.870847821748062e-13 4.870845662955962e-13 2.15879210090416e-19
5.95966208400165 3.648099511253757e-21 5.771088643253077e-13 5.771086383988633e-13 2.2592644457645863e-19
6.004529249263818 4.4350893082660195e-21 7.06888257275398e-13 7.068880197199967e-13 2.3755540149585084e-19
6.027089341400364 4.982218612413015e-21 7.970762007302121e-13 7.97075956333925e-13 2.4439628701022767e-19
6.049734195844842 5.628831167900652e-21 9.039074155242195e-13 9.039071637529359e-13 2.5177128369236425e-19
6.095279466722835 7.49680126094578e-21 1.2129392607686099e-12 1.2129389905552933e-12 2.702133166146443e-19
6.141167624020661 1.0371815108616279e-20 1.6907334735575026e-12 1.690733178738254e-12 2.9481924839404926e-19
6.164241091010745 1.220782756392911e-20 1.9975029779275182e-12 1.997502667567044e-12 3.103604740262982e-19
6.187401249150058 1.4299427962984487e-20 2.3485314369128883e-12 2.348531110001307e-12 3.2691158127320894e-19
6.1990139391386085 1.5320708736699086e-20 2.520988718523121e-12 2.5209883831272293e-12 3.3539589116137892e-19
6.204828454712694 1.5858691955846173e-20 2.6119603224374715e-12 2.6119599826912244e-12 3.397462476353646e-19
6.210648424152782 1.6251399140752694e-20 2.6791506512001404e-12 2.6791503077331093e-12 3.434670308652587e-19
6.233982942956859 1.7585585898183123e-20 2.9099926025013373e-12 2.909992245711879e-12 3.567894589133592e-19
6.239830258556775 1.775612362446507e-20 2.9409684728716438e-12 2.9409681140590814e-12 3.588125612834546e-19
6.245683058788269 1.7770881187187383e-20 2.9461736314940425e-12 2.9461732706462258e-12 3.6084781710075317e-19
6.257405133728602 1.7734157066313836e-20 2.9456033003928266e-12 2.9456029358780196e-12 3.645148078385393e-19
6.269149208991335 1.747165554657904e-20 2.9074489531546563e-12 2.9074485868539668e-12 3.663006877954468e-19
6.280915325867298 1.6813478731735148e-20 2.80317331719088e-12 2.803172951445836e-12 3.6574504329523896e-19
6.304513850009849 1.5190427819933765e-20 2.542090698737084e-12 2.542090336259562e-12 3.624775231395362e-19
6.32820103803542 1.3178649468710602e-20 2.2137093901858853e-12 2.213709033479215e-12 3.5670667068365073e-19
6.3519772230701035 1.1333695683084868e-20 1.9109525902132767e-12 1.9109522387082024e-12 3.515050742387755e-19
6.375842739491607 9.781597859197483e-21 1.6554529185111514e-12 1.6554525713903864e-12 3.4712076509752285e-19
6.399797922933955 8.537571319822731e-21 1.4503407144869055e-12 1.4503403693105888e-12 3.4517631680481975e-19
6.42384311029221 7.503299635402106e-21 1.2794303496425977e-12 1.279430005788299e-12 3.438542981435045e-19
6.447978639727206 6.749546918088375e-21 1.1552278327633648e-12 1.1552274881360909e-12 3.446272738988698e-19
6.472204850670314 6.12164200503131e-21 1.0516945322227528e-12 1.05169418633612e-12 3.4588663268747755e-19
6.496522083828205 5.713496166691758e-21 9.852632691461766e-13 9.852629202171761e-13 3.489290004052565e-19
