Dust emission spectrum from A.P. Jones, M. Kohler, N. Ysard, M. Bocchio, and L. Verstraete (2017), A&A, 602A, 46J 
inside the DustPedia framework.

lambda    nu*dP/dnu     j_nu    j_nu(carb.) j_nu(sil)
 (um)   (erg s-1 H-1) (Jy cm2 sr-1 H-1)
0.9927057738263894 3.062774703817925e-20 8.070585306690477e-13 8.070585008547233e-13 2.981432456950274e-20
1.0001793341362166 3.1141776045007627e-20 8.267813795577574e-13 8.26781343685044e-13 3.5872713324386793e-20
1.0077091589558085 3.165797990695586e-20 8.468136267859868e-13 8.468135836815711e-13 4.310441579896765e-20
1.0114953028030835 3.1916876233554164e-20 8.569464478112259e-13 8.569464005851204e-13 4.7226105472980527e-20
1.0152956718711033 3.217629128705692e-20 8.671574363215626e-13 8.671573845970013e-13 5.172456130043546e-20
1.0229392996569957 3.269639288078249e-20 8.87808175759439e-13 8.87808113773271e-13 6.198616795913366e-20
1.0267826658714554 3.2956489740571803e-20 8.982327990185336e-13 8.982327311933321e-13 6.782520158589354e-20
1.0306404723013447 3.321706205174342e-20 9.087362311487033e-13 9.08736156959306e-13 7.418939749679992e-20
1.03451277320114 3.347810287140536e-20 9.193187754062986e-13 9.193186942827225e-13 8.112357619388116e-20
1.0383996230291617 3.37396055118558e-20 9.2998074199885e-13 9.29980653322688e-13 8.867616202414881e-20
1.0403485208654093 3.387052799626797e-20 9.353416075827294e-13 9.353415148821875e-13 9.270054185570755e-20
1.0423010764483396 3.400156354675385e-20 9.407224483756461e-13 9.407223514761925e-13 9.689945375130413e-20
1.0462171883269815 3.4263970817241924e-20 9.515442195221774e-13 9.515441136722637e-13 1.058499138724702e-19
1.0471985131304309 3.4329642132143977e-20 9.542622112549763e-13 9.542621030467893e-13 1.0820818692916146e-19
1.048180758391296 3.439534106582423e-20 9.569852330760588e-13 9.56985122459368e-13 1.1061669080563944e-19
1.0501480137395462 3.452682143801604e-20 9.624463882583715e-13 9.624462726698935e-13 1.1558847785823438e-19
1.0521189612883777 3.4658411241883914e-20 9.679277279452761e-13 9.679276071716308e-13 1.2077364506966686e-19
1.0531058218030118 3.472416041516994e-20 9.70673560999438e-13 9.706734375503079e-13 1.2344913016135187e-19
1.0540936079674168 3.478965313780497e-20 9.734165180122972e-13 9.734163918304398e-13 1.2618185753057387e-19
1.058054026499678 3.5051882096853373e-20 9.844385668935857e-13 9.844384291910379e-13 1.3770254806626341e-19
1.0590464539527713 3.511750346718028e-20 9.872066618914502e-13 9.8720652115531e-13 1.4073614052507741e-19
1.06003981227728 3.5183150339188415e-20 9.899798011518719e-13 9.899796573183015e-13 1.438335702721611e-19
1.0620293250338977 3.531452029656746e-20 9.95541235050237e-13 9.95541084825169e-13 1.502250679580968e-19
1.0660195594769086 3.557756308961102e-20 1.0067248845346154e-12 1.0067247207027457e-12 1.638318698955917e-19
1.070024785945596 3.584100613454338e-20 1.0179898868446453e-12 1.0179897082328646e-12 1.786117807789033e-19
1.0740450607676866 3.6104845401468757e-20 1.0293366232437126e-12 1.0293364285832524e-12 1.9466046015400545e-19
1.07808044048254 3.63690771776084e-20 1.040765485083757e-12 1.0407652730028683e-12 2.1208088892301127e-19
1.0861967418109137 3.689830319463096e-20 1.0638596172438467e-12 1.063859365755136e-12 2.514887111382078e-19
1.0902777775684922 3.716237810305859e-20 1.0754991982208589e-12 1.075498924497257e-12 2.7372360233162675e-19
1.0943741465085532 3.7426818289196884e-20 1.0872218363688147e-12 1.0872215385424834e-12 2.9782633160583396e-19
1.1026131145906286 3.795678696259491e-20 1.1109180651831647e-12 1.1109177129444197e-12 3.52238744665807e-19
1.1109141095355224 3.8488197693171326e-20 1.1349519892636782e-12 1.1349515732162892e-12 4.1604738932473497e-19
1.1192775983109025 3.902063177440708e-20 1.1593152304550199e-12 1.1593147396799888e-12 4.907750308308621e-19
1.1277040513999907 3.955219134836442e-20 1.1839548035155499e-12 1.183954225341583e-12 5.781739670694593e-19
1.1361939428280308 4.0085132477864515e-20 1.2089413326021225e-12 1.2089406523442433e-12 6.802578792922084e-19
1.1447477501889525 4.06194681680216e-20 1.234279354160149e-12 1.2342785548225161e-12 7.993376334168821e-19
1.1533659546722406 4.1155403131558696e-20 1.2599793307465799e-12 1.2599783926836987e-12 9.380628814992055e-19
1.1707974979042381 4.2233696664572904e-20 1.3125332529723878e-12 1.3125319659481211e-12 1.2870242666568595e-18
1.1884924949847024 4.3318693169288574e-20 1.3665993917813302e-12 1.3665976348521524e-12 1.75692917745878e-18
1.2064549276569216 4.4417687164289636e-20 1.4224482511657175e-12 1.42244586463949e-12 2.3865262274357507e-18
1.2246888378427687 4.552378577597148e-20 1.4799040667545127e-12 1.4799008409419358e-12 3.225812576979322e-18
1.2431983285522175 4.66361704282887e-20 1.5389791332097913e-12 1.5389747941397218e-12 4.339070069232531e-18
1.2619875648066055 4.775656014882063e-20 1.5997699917467923e-12 1.5997641832201823e-12 5.808526609626539e-18
1.3004222497298317 5.001495462463504e-20 1.726448801410387e-12 1.7264385394235924e-12 1.0261986794602739e-17
1.3400274889804893 5.23063130878971e-20 1.8605324520060093e-12 1.8605146551554375e-12 1.7796850571599695e-17
1.3808389325824078 5.463946762300655e-20 2.0027139163856966e-12 2.002683604977192e-12 3.031140850487096e-17
1.4228933163050095 5.703392716949683e-20 2.154145575023893e-12 2.15409484836309e-12 5.0726660802833e-17
1.466228494730424 5.953032342330531e-20 2.3169108878366288e-12 2.3168274330118227e-12 8.345482480592181e-17
1.5108834753276823 6.212390380344712e-20 2.491489968433336e-12 2.49135493433839e-12 1.350340949460403e-16
1.5568984535646726 6.481225215500926e-20 2.678470288864003e-12 2.678255173058135e-12 2.1511580586780295e-16
1.6043148490894465 6.760980997613227e-20 2.8791795672644145e-12 2.878841538500889e-12 3.3802876352549523e-16
1.6531753430134553 7.05314398859144e-20 3.0950744646796704e-12 3.094551143132237e-12 5.233215474330476e-16
1.7035239163302658 7.359404114488688e-20 3.327823769680017e-12 3.3270253742335557e-12 7.9839544646107625e-16
1.755405889504358 7.68493809420849e-20 3.580860129647868e-12 3.5796591978979156e-12 1.2009317499522753e-15
1.8088679632656115 8.029385841133288e-20 3.85530399167052e-12 3.853522343213963e-12 1.7816484565570725e-15
1.8639582606462262 8.392138976888677e-20 4.152200184456401e-12 4.149592227187147e-12 2.6079572692556983e-15
1.9207263702978936 8.773658608055569e-20 4.473172678256884e-12 4.4694046383392145e-12 3.7680399176706235e-15
1.979223391128241 9.17481950182056e-20 4.820163580817216e-12 4.81478790660002e-12 5.375674217197459e-15
2.039501978296691 9.596166072725731e-20 5.195068989682923e-12 5.187493592651655e-12 7.575397031268225e-15
2.1016163906111602 1.0040992778234919e-19 5.6014380172484276e-12 5.590889052846891e-12 1.0548964401537564e-14
2.1656225393682647 1.051028390729726e-19 6.041804153121924e-12 6.0272832691859135e-12 1.4520883936011263e-14
2.231578038680979 1.1001740139499657e-19 6.516927575320753e-12 6.497162994364381e-12 1.9764580956373018e-14
2.299542257339062 1.1514524665494056e-19 7.02840602291045e-12 7.001797331327073e-12 2.6608691583377346e-14
2.369576372248914 1.2048755815740503e-19 7.57848415053879e-12 7.543040530200436e-12 3.5443620338352025e-14
2.4417434235010123 1.2604816679215384e-19 8.169697826568249e-12 8.122971816306404e-12 4.6726010261845855e-14
2.5161083711144245 1.3185182222074876e-19 8.806126339763791e-12 8.74514147620055e-12 6.098486356324146e-14
2.5927381535095444 1.3795039765698693e-19 9.494039808224211e-12 9.415215434146024e-12 7.882437407819097e-14
2.6717017477616296 1.4438470640922113e-19 1.0239496496018252e-11 1.0138575378183063e-11 1.00921117835191e-13
2.753070231689431 1.5122267450169546e-19 1.1051052401423636e-11 1.092302927271375e-11 1.2802312870988915e-13
2.836916847834745 1.5868013413979868e-19 1.194919362398357e-11 1.178824187750079e-11 1.6095174648278337e-13
2.9233170693905177 1.6724905538769382e-19 1.2978037630197226e-11 1.2777484722116482e-11 2.0055290808073964e-13
2.967498994190263 1.7242760069738576e-19 1.358209608720685e-11 1.3359413666177265e-11 2.226824210295818e-13
3.0123486681368425 1.7794827140841291e-19 1.4228805573108781e-11 1.3981870434738623e-11 2.4693513837016515e-13
3.0578761833420214 1.8683992822973352e-19 1.5165579891383275e-11 1.489201931867187e-11 2.7356057271140544e-13
3.1040917844459814 1.971831962760922e-19 1.624702652587389e-11 1.5944574995726365e-11 3.0245153014752704e-13
3.127460860933648 2.0663584614223887e-19 1.7154062154898455e-11 1.6836174603075518e-11 3.1788755182293817e-13
3.1510058709225794 2.1858533589976907e-19 1.828267203636242e-11 1.7948718544097425e-11 3.339534922649932e-13
3.162844764501044 2.2932725968595293e-19 1.9253203066938524e-11 1.8910944585734225e-11 3.422584812042965e-13
3.1747281389236908 2.414537523052383e-19 2.034744734630806e-11 1.9996721446739937e-11 3.5072589956812106e-13
3.1986289994194426 2.741820173547891e-19 2.3279426170183914e-11 2.291122632209695e-11 3.681998480869635e-13
3.2227097969389145 3.496896552565862e-19 2.991392615922188e-11 2.952723456136439e-11 3.8669159785747827e-13
3.2348180950136065 4.204116244505209e-19 3.609890368603463e-11 3.5702349883519686e-11 3.965538025149524e-13
3.240889293275058 4.732185909827066e-19 4.070946802241315e-11 4.0307712120778746e-11 4.017559016343899e-13
3.2469718861334385 5.344146138209619e-19 4.606024958996583e-11 4.5653111069710004e-11 4.0713852025581685e-13
3.2714166318528037 8.550426713165347e-19 7.424942235694587e-11 7.382005996708659e-11 4.2936238985927033e-13
3.2744851364798273 8.750741110451286e-19 7.606017003530419e-11 7.562819422365316e-11 4.3197581165098826e-13
3.2775565192852394 8.956372140400718e-19 7.792050400237811e-11 7.748590221778725e-11 4.346017845908479e-13
3.283707930232385 8.758891096077884e-19 7.634543630944475e-11 7.590614981016135e-11 4.392864992834132e-13
3.2898708863219004 8.131126438521698e-19 7.100664636536968e-11 7.056310696440429e-11 4.4353940096539096e-13
3.29141343181113 7.982753253215062e-19 6.974363448226287e-11 6.929902741979165e-11 4.4460706247121936e-13
3.292184975758714 7.909798423065552e-19 6.912244276392398e-11 6.867730120473049e-11 4.4514155919348884e-13
3.295272960557952 7.455271094966461e-19 6.521151172339956e-11 6.476429304789245e-11 4.472186755071069e-13
3.3076538914384823 5.868159185975191e-19 5.152184168222227e-11 5.1066285494123466e-11 4.555561880987928e-13
3.310756385682612 5.541609034388616e-19 4.870040143297453e-11 4.824274477022384e-11 4.576566627507005e-13
3.313861789986515 5.238935401011867e-19 4.60836498292104e-11 4.5623886247427196e-11 4.597635817831926e-13
3.3200813396944477 4.816470614602321e-19 4.2447006888790036e-11 4.1982706647329406e-11 4.643002414606362e-13
3.345076488085796 4.0807552125910757e-19 3.623397912909697e-11 3.5749448497081675e-11 4.845306320153033e-13
3.3482140837626964 4.111061641183631e-19 3.6537315937610134e-11 3.6050044208190665e-11 4.872717294194641e-13
3.3513546224236106 4.1416362243912256e-19 3.684357538809819e-11 3.6353550773492006e-11 4.900246146061771e-13
3.3576445397418455 4.354622440019375e-19 3.881098423966375e-11 3.831520211112775e-11 4.95782128535982e-13
3.3702598118196083 5.124465046449942e-19 4.584387819611209e-11 4.533602034614797e-11 5.078578499641367e-13
3.382922481734668 5.3093516910152e-19 4.767634712993153e-11 4.715676921608217e-11 5.195779138493578e-13
3.389271646505754 5.404601871289877e-19 4.8622750090625604e-11 4.8097235060509755e-11 5.255150301158509e-13
3.395632727569191 5.509492984889968e-19 4.965943547227635e-11 4.91278018716794e-11 5.3163360059694e-13
3.421196662673239 6.0181964169472e-19 5.4652977902881603e-11 5.4096034914488244e-11 5.569429883933547e-13
3.4276182099114902 5.927501959601445e-19 5.3930392458523735e-11 5.336782022814894e-11 5.625722303747762e-13
3.4340518103208963 5.513909519760535e-19 5.026155393306505e-11 4.9693666646638235e-11 5.678872864268046e-13
3.4469541582030403 4.9204176564796095e-19 4.5020147025729425e-11 4.444207685556603e-11 5.780701701633959e-13
3.472904465399547 4.757378563693826e-19 4.385609723207198e-11 4.325454157550605e-11 6.015556565659241e-13
3.4990501388274233 4.510321559666763e-19 4.189161507734577e-11 4.12660681057798e-11 6.255469715659754e-13
3.5253949054701885 3.63037840413431e-19 3.3972624642967144e-11 3.332383739619565e-11 6.487872467714953e-13
3.5519380250092896 2.792715842407714e-19 2.633064884676559e-11 2.565855706793339e-11 6.720917788321947e-13
3.578680990867387 2.468686513158564e-19 2.345083785764363e-11 2.2753210464709442e-11 6.976273929341965e-13
3.605625307711299 2.3468089499403313e-19 2.246093144062033e-11 2.173644283233148e-11 7.244886082888488e-13
3.660119384959845 2.2760104560876215e-19 2.2112555568329513e-11 2.1331783296646362e-11 7.80772271683145e-13
3.715437065384467 2.2311743218827977e-19 2.200456793264824e-11 2.1164679618377496e-11 8.39888314270756e-13
3.8285932144167436 2.24604828805274e-19 2.282589143377676e-11 2.1859711870223874e-11 9.661795635528815e-13
3.94519561050918 2.286429615982765e-19 2.3943950784912762e-11 2.284120056635896e-11 1.1027502185538042e-12
4.06534921144712 2.3350724408891494e-19 2.519809149152504e-11 2.394892407620738e-11 1.2491674153176552e-12
4.189162171576248 2.386791901023803e-19 2.6540625975425012e-11 2.5135197035561512e-11 1.4054289398635004e-12
4.316745939156006 2.439280070685407e-19 2.795037182656641e-11 2.637973945654256e-11 1.5706323700238477e-12
4.448215356677963 2.4913466041563424e-19 2.941639105593319e-11 2.7674274054081794e-11 1.7421170018513875e-12
4.58368876423945 2.542672991047428e-19 3.093677679691657e-11 2.9016975810433235e-11 1.9198009864833277e-12
4.723288106065518 2.5934808479770847e-19 3.251598505571796e-11 3.0411459641328e-11 2.104525414389959e-12
4.867139040275056 2.6439663026690054e-19 3.415852442200107e-11 3.1867731634017445e-11 2.2907927879836177e-12
4.940699165968905 2.670435857171425e-19 3.502192348436856e-11 3.263690296861035e-11 2.385020515758217e-12
5.015371051989984 2.6957392835861927e-19 3.5888093640180056e-11 3.340846260932094e-11 2.4796310308591216e-12
5.091171501069577 2.7242674011816114e-19 3.6816024775760843e-11 3.4239250141093654e-11 2.5767746346671895e-12
5.129500256944802 2.738037756720046e-19 3.728068826626361e-11 3.465533151137855e-11 2.625356754885062e-12
5.168117569889187 2.7518804226963035e-19 3.7751253495065643e-11 3.507678361223261e-11 2.6744698828330352e-12
5.20702561229733 2.768877618717999e-19 3.82703917438927e-11 3.554196978648316e-11 2.7284219574095423e-12
5.246226572918644 2.7856410457757815e-19 3.879195157584466e-11 3.6009440812300855e-11 2.7825107635438002e-12
5.265937586045735 2.793935988927622e-19 3.905364663094152e-11 3.624404902884893e-11 2.8095976020926097e-12
5.285722656980489 2.8021736307332638e-19 3.9315956586177694e-11 3.647924861161906e-11 2.836707974558636e-12
5.305582063971359 2.81035442461199e-19 3.95788857329024e-11 3.671504744398242e-11 2.8638382889199733e-12
5.3255160863122235 2.8190993443355137e-19 3.985121019122479e-11 3.695998261570857e-11 2.891227575516218e-12
5.365609099470188 2.8412199078252764e-19 4.0466282765881414e-11 3.7518361566481376e-11 2.947921199400026e-12
5.406003951863644 2.8633651640399796e-19 4.108871210864112e-11 3.808397601626242e-11 3.00473609237869e-12
5.446702915881641 2.885555765777627e-19 4.1718875391202006e-11 3.8657231980732305e-11 3.0616434104696963e-12
5.487708281020852 2.908983784123372e-19 4.2374223233589465e-11 3.9255336506222274e-11 3.1188867273671885e-12
5.529022354014368 2.9428948297864836e-19 4.3190926554026646e-11 4.001237089956407e-11 3.1785556544625813e-12
5.570647458961463 2.977660786851708e-19 4.403016668210826e-11 4.079183159428917e-11 3.238335087819084e-12
5.612585937458331 3.013375405463199e-19 4.489372853905425e-11 4.159553284734555e-11 3.2981956917087028e-12
5.654840148729818 3.05188846044878e-19 4.580980287200136e-11 4.2451362521827313e-11 3.358440350174049e-12
5.67608639626678 3.0793190652625827e-19 4.6395207477445375e-11 4.300518916463321e-11 3.3900183128121625e-12
5.686739436050992 3.093302019807423e-19 4.669335584390163e-11 4.328753645822477e-11 3.4058193856768497e-12
5.6974124697621304 3.1074699534151018e-19 4.699525742781764e-11 4.3573629529848375e-11 3.421627897969265e-12
5.718818669136295 3.1363811476270035e-19 4.76107029873946e-11 4.415743761849369e-11 3.4532653689008973e-12
5.740305295436557 3.16826735674145e-19 4.8275440641192966e-11 4.479025191029685e-11 3.4851887308961124e-12
5.7835210386641895 3.252685328598228e-19 4.993485620320587e-11 4.638372500462533e-11 3.5511311985805354e-12
5.827062130521658 3.348020843144607e-19 5.178538803531894e-11 4.816753193266725e-11 3.6178561026516925e-12
5.8489554468988025 3.417031217283523e-19 5.3051380885445595e-11 4.939731106470239e-11 3.654069820743213e-12
5.870931020387893 3.4899659391836254e-19 5.438731251587882e-11 5.069694812897223e-11 3.690364386906589e-12
5.892989160043636 3.5671391887422484e-19 5.5798834923747315e-11 5.207209891787799e-11 3.7267360058693085e-12
5.915130176081913 3.654752080623062e-19 5.738411151346169e-11 5.361961373892436e-11 3.764497774537353e-12
5.95966208400165 3.9036200405447747e-19 6.17530777712276e-11 5.790149213261114e-11 3.85158563861645e-12
6.004529249263818 4.2616890712468805e-19 6.792507999801982e-11 6.397490509072997e-11 3.9501749072898385e-12
6.027089341400364 4.511472982177564e-19 7.217643431727023e-11 6.816877505653821e-11 4.007659260732008e-12
6.049734195844842 4.803964880007945e-19 7.714460337201113e-11 7.307593977648162e-11 4.0686635955295236e-12
6.095279466722835 5.649332319458684e-19 9.140294278704088e-11 8.718257052487328e-11 4.220372262167626e-12
6.141167624020661 6.9389204059209385e-19 1.1311293999924485e-10 1.086934924896104e-10 4.4194475096344435e-12
6.164241091010745 7.760306727551833e-19 1.26977840379379e-10 1.2243240271621623e-10 4.545437663162739e-12
6.187401249150058 8.682752709612828e-19 1.4260512903210049e-10 1.3793052355309078e-10 4.674605479009734e-12
6.1990139391386085 9.130109307853526e-19 1.5023392820494785e-10 1.4549363589107434e-10 4.740292313873519e-12
6.204828454712694 9.364656282903194e-19 1.542378823695539e-10 1.4946443416771266e-10 4.773448201841271e-12
6.210648424152782 9.533608613867921e-19 1.5716784447242684e-10 1.5236637827990944e-10 4.801466192517362e-12
6.233982942956859 1.0097380417464706e-18 1.670874231293024e-10 1.621892498887217e-10 4.89817324058069e-12
6.239830258556775 1.0163500628947546e-18 1.6833930398277657e-10 1.6342844899660776e-10 4.910854986168799e-12
6.245683058788269 1.0159832905646748e-18 1.684363959879663e-10 1.6351284665564164e-10 4.923549332324641e-12
6.257405133728602 1.0122689368676489e-18 1.6813557645693385e-10 1.6319023852684607e-10 4.945337930087796e-12
6.269149208991335 9.984510813343817e-19 1.6615171604445809e-10 1.6120045817641293e-10 4.951257868045159e-12
6.280915325867298 9.670227989902438e-19 1.6122377471642615e-10 1.5628619122536917e-10 4.937583491057007e-12
6.304513850009849 8.908682650764723e-19 1.4908519742143894e-10 1.4419264724739605e-10 4.892550174042909e-12
6.32820103803542 7.984357771479543e-19 1.341188094826627e-10 1.2929010365090443e-10 4.8287058317582776e-12
6.3519772230701035 7.142067823454688e-19 1.2042102936537297e-10 1.1565013546048762e-10 4.7708939048853545e-12
6.375842739491607 6.431601194696359e-19 1.0884942441636454e-10 1.0413013122851739e-10 4.719293187847166e-12
6.399797922933955 5.867431766875227e-19 9.967442569076745e-11 9.498449418977749e-11 4.689931500989962e-12
6.42384311029221 5.396127186522017e-19 9.201243757337706e-11 8.734741237782342e-11 4.665025195553605e-12
6.447978639727206 5.052851317083314e-19 8.648276020819032e-11 8.182535975304545e-11 4.657400455144872e-12
6.472204850670314 4.765168587773446e-19 8.186531889257902e-11 7.721212966077129e-11 4.6531892318077205e-12
6.496522083828205 4.575934860764867e-19 7.890966246902502e-11 7.424673624571336e-11 4.662926223311673e-12
