Dust emission spectrum from A.P. Jones, M. Kohler, N. Ysard, M. Bocchio, and L. Verstraete (2017), A&A, 602A, 46J 
inside the DustPedia framework.

lambda    nu*dP/dnu     j_nu    j_nu(carb.) j_nu(sil)
 (um)   (erg s-1 H-1) (Jy cm2 sr-1 H-1)
0.9927057738263894 1.4827576233985215e-25 3.90715055660679e-18 3.907150556606778e-18 1.2248305370143908e-32
1.0001793341362166 1.507264420358223e-25 4.001628407516183e-18 4.001628407516168e-18 1.476170560591177e-32
1.0077091589558085 1.5317365616473107e-25 4.097214657604416e-18 4.0972146576043986e-18 1.7768598130395944e-32
1.0114953028030835 1.5439566229591798e-25 4.145418661706388e-18 4.14541866170637e-18 1.9485280624800658e-32
1.0152956718711033 1.5561644137099196e-25 4.1938939806601046e-18 4.193893980660083e-18 2.136108139219793e-32
1.0229392996569957 1.5805264418110593e-25 4.291618045330547e-18 4.291618045330521e-18 2.5647797196484545e-32
1.0267826658714554 1.5926511448611924e-25 4.340788436420172e-18 4.3407884364201425e-18 2.809132534486615e-32
1.0306404723013447 1.604758217236353e-25 4.390219496127098e-18 4.390219496127068e-18 3.0757905946830864e-32
1.03451277320114 1.6168464906908096e-25 4.439909099841565e-18 4.439909099841531e-18 3.366693110793293e-32
1.0383996230291617 1.6289148034430065e-25 4.489855096339316e-18 4.489855096339278e-18 3.683938793641493e-32
1.0403485208654093 1.6349411133215048e-25 4.5149235624721644e-18 4.514923562472127e-18 3.85314279527279e-32
1.0423010764483396 1.640962000398388e-25 4.540055308290512e-18 4.540055308290472e-18 4.0297981669145284e-32
1.0462171883269815 1.652986933367319e-25 4.590507532769296e-18 4.59050753276925e-18 4.406726762819404e-32
1.0471985131304309 1.6559895539829325e-25 4.6031597052952e-18 4.603159705295155e-18 4.506119985213614e-32
1.048180758391296 1.658990693988186e-25 4.6158274544187935e-18 4.615827454418749e-18 4.607663420029749e-32
1.0501480137395462 1.664988461278067e-25 4.641209541763769e-18 4.641209541763721e-18 4.8173792588448123e-32
1.0521189612883777 1.6709800937493098e-25 4.666653512466771e-18 4.6666535124667205e-18 5.036239714002701e-32
1.0531058218030118 1.6739689673102978e-25 4.679385762173184e-18 4.679385762173133e-18 5.149224436926079e-32
1.0540936079674168 1.6769411896965162e-25 4.692091201139162e-18 4.692091201139111e-18 5.264663129857908e-32
1.058054026499678 1.6888132401289448e-25 4.7430631007762574e-18 4.743063100776202e-18 5.751741400893268e-32
1.0590464539527713 1.691776956135548e-25 4.75584343030622e-18 4.7558434303061644e-18 5.88010348392203e-32
1.06003981227728 1.6947389188826553e-25 4.768638628846818e-18 4.768638628846758e-18 6.011210796288111e-32
1.0620293250338977 1.700657515615817e-25 4.794273486586774e-18 4.794273486586711e-18 6.281885977407095e-32
1.0660195594769086 1.7124729129701178e-25 4.845720015269734e-18 4.845720015269665e-18 6.858714197510177e-32
1.070024785945596 1.7242583373264059e-25 4.897400321622436e-18 4.897400321622361e-18 7.486130051264357e-32
1.0740450607676866 1.7360127023209172e-25 4.949312019052467e-18 4.949312019052387e-18 8.168345431220735e-32
1.07808044048254 1.7477349302667371e-25 5.001452700088834e-18 5.0014527000887446e-18 8.909902840683057e-32
1.0861967418109137 1.7710580028554285e-25 5.106351582336691e-18 5.106351582336586e-18 1.0591015532848073e-31
1.0902777775684922 1.7826096513776473e-25 5.1589681518245815e-18 5.158968151824464e-18 1.1541539486085898e-31
1.0943741465085532 1.794124118493636e-25 5.211800008512262e-18 5.211800008512135e-18 1.2573392903257016e-31
1.1026131145906286 1.8170374147931667e-25 5.318099477694686e-18 5.318099477694537e-18 1.4907966961221452e-31
1.1109141095355224 1.8397898030862035e-25 5.425229608010949e-18 5.42522960801077e-18 1.7653741847519511e-31
1.1192775983109025 1.8623522417474421e-25 5.5331070260782954e-18 5.533107026078087e-18 2.0878971815733305e-31
1.1277040513999907 1.884619980057865e-25 5.64141910251746e-18 5.6414191025172146e-18 2.466250769960465e-31
1.1361939428280308 1.906700513303311e-25 5.750483825141286e-18 5.750483825140996e-18 2.909530458213407e-31
1.1447477501889525 1.928586475763507e-25 5.860279755266229e-18 5.8602797552658844e-18 3.4282158254957356e-31
1.1533659546722406 1.950282592409719e-25 5.9708217355956075e-18 5.970821735595205e-18 4.034370763653106e-31
1.1707974979042381 1.9931752856260729e-25 6.194363856340904e-18 6.194363856340347e-18 5.566636681035474e-31
1.1884924949847024 2.0352161786120744e-25 6.4206119537480535e-18 6.42061195374729e-18 7.6433915449685535e-31
1.2064549276569216 2.0767337496651708e-25 6.650608077412461e-18 6.650608077411416e-18 1.0444419697480083e-30
1.2246888378427687 2.1172747983571763e-25 6.882915230172901e-18 6.882915230171481e-18 1.4203676551637835e-30
1.2431983285522175 2.1567444583657514e-25 7.117189697628736e-18 7.117189697626817e-18 1.9224600220754117e-30
1.2619875648066055 2.1951279059726155e-25 7.353334790189422e-18 7.35333479018683e-18 2.5898738982213575e-30
1.3004222497298317 2.2679982429640288e-25 7.828824153801146e-18 7.828824153796509e-18 4.635558908234929e-30
1.3400274889804893 2.3356001451070594e-25 8.307715853685551e-18 8.307715853677401e-18 8.148354270521354e-30
1.3808389325824078 2.3976823867304547e-25 8.78828453474183e-18 8.788284534727757e-18 1.4072895056282186e-29
1.4228933163050095 2.454545991127982e-25 9.270708940956177e-18 9.270708940932283e-18 2.389238276607965e-29
1.466228494730424 2.5075571573607383e-25 9.759373283511018e-18 9.759373283471122e-18 3.989524407018624e-29
1.5108834753276823 2.555685836219276e-25 1.0249622502078134e-17 1.024962250201258e-17 6.554962625866846e-29
1.5568984535646726 2.5980983159450706e-25 1.0737058064520021e-17 1.0737058064413935e-17 1.0608842831247446e-28
1.6043148490894465 2.6348711274852835e-25 1.122066030847993e-17 1.122066030831049e-17 1.6944030965217351e-28
1.6531753430134553 2.6661150778012185e-25 1.1699498423040061e-17 1.1699498422773274e-17 2.667858089604703e-28
1.7035239163302658 2.6921998949361055e-25 1.2173766603549094e-17 1.2173766603134851e-17 4.142394059478977e-28
1.755405889504358 2.7152656967075613e-25 1.2652003901069895e-17 1.2652003900435224e-17 6.346754730807693e-28
1.8088679632656115 2.7347832890886066e-25 1.3131042821189195e-17 1.313104282022916e-17 9.600297208188997e-28
1.8639582606462262 2.7503939825385513e-25 1.360819504190134e-17 1.3608195040466813e-17 1.434524208302287e-27
1.9207263702978936 2.7623568560962277e-25 1.408363348551089e-17 1.408363348339207e-17 2.1188181208093716e-27
1.979223391128241 2.771275775502804e-25 1.45594172864425e-17 1.4559417283346902e-17 3.095597833585164e-27
2.039501978296691 2.7778736420694924e-25 1.5038553007319596e-17 1.5038553002842647e-17 4.4769492734040686e-27
2.1016163906111602 2.784176289091709e-25 1.553172206860348e-17 1.5531722062188608e-17 6.414871336331134e-27
2.1656225393682647 2.791358460464613e-25 1.604603765991317e-17 1.6046037650798264e-17 9.114905875729814e-27
2.231578038680979 2.799504378656715e-25 1.6582983283705205e-17 1.6582983270849746e-17 1.2855459471370423e-26
2.299542257339062 2.8093179728555654e-25 1.7147930925762996e-17 1.7147930907747684e-17 1.8015312250294634e-26
2.369576372248914 2.8223557858870174e-25 1.775218862231681e-17 1.775218859720359e-17 2.5113221625227928e-26
2.4417434235010123 2.840456494095708e-25 1.8410161636495823e-17 1.841016160163248e-17 3.48633382897689e-26
2.5161083711144245 2.866769027071331e-25 1.9146591843870006e-17 1.9146591795613082e-17 4.825692908275787e-26
2.5927381535095444 2.906446370158786e-25 2.0002782164766523e-17 2.0002782098088588e-17 6.667793833916038e-26
2.6717017477616296 2.965642525911984e-25 2.103178862063961e-17 2.1031788528578353e-17 9.206126098980037e-26
2.753070231689431 3.0536232737037233e-25 2.2315271782558175e-17 2.2315271655440642e-17 1.2711752722476137e-25
2.836916847834745 3.1913713084367474e-25 2.4032191488406353e-17 2.4032191312741962e-17 1.756643882462143e-25
2.9233170693905177 3.425085246673772e-25 2.657765995444674e-17 2.657765971139906e-17 2.430476885710198e-25
2.967498994190263 3.623524688797866e-25 2.8542449293829954e-17 2.854244900800469e-17 2.8582527023620928e-25
3.0123486681368425 3.8552883965117004e-25 3.0827019890699445e-17 3.0827019554300615e-17 3.3639883640628374e-25
3.0578761833420214 4.3736728901319655e-25 3.550059468686841e-17 3.550059429036992e-17 3.9649848554120725e-25
3.1040917844459814 5.041643458083251e-25 4.154092059791235e-17 4.1540920130330305e-17 4.675820477572392e-25
3.127460860933648 5.748133981615264e-25 4.771865551702859e-17 4.771865500865884e-17 5.083697494572464e-25
3.1510058709225794 6.689389209780085e-25 5.59506467085563e-17 5.595064615555523e-17 5.530010661673001e-25
3.162844764501044 7.565490562882735e-25 6.351618482149006e-17 6.351618424397351e-17 5.775165559763554e-25
3.1747281389236908 8.584304091385316e-25 7.234042703273002e-17 7.234042642957697e-17 6.031530756779686e-25
3.1986289994194426 1.1425978554646167e-24 9.701227919729001e-17 9.701227853847636e-17 6.588136310656659e-25
3.2227097969389145 1.81242350509817e-24 1.5504234136112213e-16 1.5504234063487885e-16 7.262432539118113e-25
3.2348180950136065 2.447617339460209e-24 2.1016617395611828e-16 2.101661731883701e-16 7.677481751473292e-25
3.240889293275058 2.9225048848340887e-24 2.5141366256856824e-16 2.5141366177615736e-16 7.924108652287106e-25
3.2469718861334385 3.471876410406912e-24 2.992348821928575e-16 2.9923488137298e-16 8.198774846223036e-25
3.2714166318528037 6.402308972549802e-24 5.559579175511518e-16 5.559579166072301e-16 9.439217541772715e-25
3.2744851364798273 6.585503772744152e-24 5.724024175790359e-16 5.724024166217177e-16 9.573181278078162e-25
3.2775565192852394 6.773960378023264e-24 5.893350549456924e-16 5.89335053974768e-16 9.709242219732409e-25
3.283707930232385 6.592744196955043e-24 5.746457247521614e-16 5.746457237638762e-16 9.882851252178651e-25
3.2898708863219004 6.0180210441764684e-24 5.255354166905334e-16 5.255354156927083e-16 9.97825021278611e-25
3.29141343181113 5.882486976304924e-24 5.139405021154165e-16 5.139405011151952e-16 1.0002211898847664e-24
3.292184975758714 5.815890336125724e-24 5.08241203350799e-16 5.082412023493782e-16 1.0014209589499364e-24
3.295272960557952 5.395523117397092e-24 4.719482558609717e-16 4.719482548564296e-16 1.0045421729721892e-24
3.3076538914384823 3.9392395080852164e-24 3.458612281155995e-16 3.458612270993842e-16 1.0162152630697184e-24
3.310756385682612 3.6428483047421186e-24 3.20138381649554e-16 3.201383806303944e-16 1.0191596376328993e-24
3.313861789986515 3.369381211917664e-24 2.9638346729975724e-16 2.9638346627764264e-16 1.022114602843954e-24
3.3200813396944477 2.9858775205667465e-24 2.6314198471455774e-16 2.6314198368170452e-16 1.0328532291004052e-24
3.345076488085796 2.301769708358461e-24 2.0437951121231754e-16 2.0437951010665414e-16 1.1056634455048385e-24
3.3482140837626964 2.327430672092075e-24 2.0685184804144372e-16 2.0685184692316325e-16 1.1182804319938966e-24
3.3513546224236106 2.353375352742685e-24 2.0935388220391615e-16 2.0935388107287093e-16 1.1310451361181203e-24
3.3576445397418455 2.542953539034945e-24 2.26643138607542e-16 2.266431374460762e-16 1.1614658272752843e-24
3.3702598118196083 3.2421780780269275e-24 2.9004786948862096e-16 2.9004786825555553e-16 1.2330655114140075e-24
3.382922481734668 3.401457579085728e-24 3.054404411797768e-16 3.054404398859302e-16 1.293846617851169e-24
3.389271646505754 3.4839754937317365e-24 3.1343746271758715e-16 3.1343746139219483e-16 1.3253922419747603e-24
3.395632727569191 3.572892633522619e-24 3.2204021616942216e-16 3.220402148102724e-16 1.3591496669505739e-24
3.421196662673239 3.9998348898042206e-24 3.6323654580641576e-16 3.6323654430046935e-16 1.5059465137636459e-24
3.4276182099114902 3.913828084985331e-24 3.560931503304699e-16 3.5609314879702376e-16 1.5334461937547828e-24
3.4340518103208963 3.53688824799841e-24 3.22401916090412e-16 3.224019145349763e-16 1.5554357484869731e-24
3.4469541582030403 3.000064070250613e-24 2.744956525213432e-16 2.7449565092985596e-16 1.591487236700793e-24
3.472904465399547 2.8496728658143246e-24 2.6269830876295464e-16 2.62698307044972e-16 1.7179826505515917e-24
3.4990501388274233 2.6196254190980354e-24 2.4330934779690843e-16 2.4330934594657626e-16 1.8503321424765626e-24
3.5253949054701885 1.800751983978609e-24 1.685121064986381e-16 1.685121045408597e-16 1.957778419153233e-24
3.5519380250092896 1.03110520318855e-24 9.721600965253863e-17 9.721600759121474e-17 2.0613238880752865e-24
3.578680990867387 7.259839923456523e-25 6.896352696462913e-17 6.896352475643834e-17 2.208190792650248e-24
3.605625307711299 6.026220618023071e-25 5.767598941145606e-17 5.76759870285719e-17 2.3828841629502392e-24
3.660119384959845 5.127597889014017e-25 4.981712318131219e-17 4.981712039097293e-17 2.79033925163981e-24
3.715437065384467 4.492127544841661e-25 4.4302825087721274e-17 4.4302821822366495e-17 3.2653547757496963e-24
3.8285932144167436 4.174353113388274e-25 4.2422654703945276e-17 4.242265022508382e-17 4.478861459043125e-24
3.94519561050918 4.120450777282103e-25 4.3150189244068077e-17 4.315018311908243e-17 6.1249856616837746e-24
4.06534921144712 4.177081941036572e-25 4.5075472210086e-17 4.5075463866594326e-17 8.343491658671733e-24
4.189162171576248 4.299971032455631e-25 4.7814777161181964e-17 4.7814765845429633e-17 1.1315752330979575e-23
4.316745939156006 4.473381851117512e-25 5.1258027958149057e-17 5.125801268435329e-17 1.527379577462232e-23
4.448215356677963 4.69298428844492e-25 5.541206543398441e-17 5.541204492367166e-17 2.0510312746356104e-23
4.58368876423945 4.961035472142239e-25 6.036106397623164e-17 6.03610365754729e-17 2.740075874225985e-23
4.723288106065518 5.284755375851108e-25 6.625806662822834e-17 6.62580302066427e-17 3.642158565534113e-23
4.867139040275056 5.677061061825306e-25 7.3344364763573e-17 7.334431659848877e-17 4.816508422970819e-23
4.940699165968905 5.913213164135267e-25 7.75499244533295e-17 7.754986915627403e-17 5.529705548962789e-23
5.015371051989984 6.160541598345344e-25 8.201464255160529e-17 8.201457915524924e-17 6.339635605287247e-23
5.091171501069577 6.458502581588541e-25 8.728085611381139e-17 8.728078347724012e-17 7.263657127472829e-23
5.129500256944802 6.612622155737763e-25 9.003641553356916e-17 9.003633782580507e-17 7.770776410166913e-23
5.168117569889187 6.773574862613442e-25 9.292225766691487e-17 9.292217455719441e-17 8.310972045688168e-23
5.20702561229733 6.967052004579691e-25 9.629598928925913e-17 9.629590037290794e-17 8.891635116510549e-23
5.246226572918644 7.166169683774125e-25 9.979380070479744e-17 9.97937056111363e-17 9.509366115925322e-23
5.265937586045735 7.2679039116747235e-25 1.015907852717578e-16 1.0159068694385718e-16 9.832790060798815e-23
5.285722656980489 7.371121427122428e-25 1.0342067559330896e-16 1.0342057393047254e-16 1.0166283641515162e-22
5.305582063971359 7.4758475976393355e-25 1.0528412901672053e-16 1.0528402391543769e-16 1.0510128286283411e-22
5.3255160863122235 7.587673737186704e-25 1.072604913944019e-16 1.0726038273421027e-16 1.0866019164425568e-22
5.365609099470188 7.860202214183097e-25 1.1194950609775208e-16 1.1194938987313118e-16 1.1622462087956966e-22
5.406003951863644 8.14352328466183e-25 1.1685791529341018e-16 1.168577910237975e-16 1.2426961266674385e-22
5.446702915881641 8.438144658966931e-25 1.219972629659125e-16 1.2199713014344108e-16 1.328224714128681e-22
5.487708281020852 8.755511531530305e-25 1.2753869656689609e-16 1.275385546178121e-16 1.4194908402375278e-22
5.529022354014368 9.184840892678156e-25 1.3479985230558333e-16 1.3479970031882489e-16 1.5198675847655484e-22
5.570647458961463 9.639146807615367e-25 1.4253243434802056e-16 1.425322716755324e-16 1.626724881626635e-22
5.612585937458331 1.01201634380288e-24 1.5077174564245492e-16 1.5077157159876691e-16 1.7404368801035291e-22
5.654840148729818 1.0646900888571574e-24 1.5981332123503592e-16 1.5981313502157989e-16 1.862134560042355e-22
5.67608639626678 1.0998856635128978e-24 1.6571658369476932e-16 1.6571639078062968e-16 1.9291413961857156e-22
5.686739436050992 1.1180127120149606e-24 1.6876388101078495e-16 1.6876368466370498e-16 1.9634707996710562e-22
5.6974124697621304 1.13650358785227e-24 1.7187705586680902e-16 1.7187685603063787e-16 1.9983617114451073e-22
5.718818669136295 1.1746110328851911e-24 1.7830759203078984e-16 1.78307385044665e-16 2.0698612484191293e-22
5.740305295436557 1.2164409023213632e-24 1.8535121554240227e-16 1.8535100106033783e-16 2.1448206447309097e-22
5.7835210386641895 1.3237616110738407e-24 2.0322238095126012e-16 2.0322214981335577e-16 2.3113790440252286e-22
5.827062130521658 1.4468841717858595e-24 2.2379627185270643e-16 2.2379602262368376e-16 2.4922902267386994e-22
5.8489554468988025 1.532368046745623e-24 2.3790897927240996e-16 2.379087194149521e-16 2.598574578985613e-22
5.870931020387893 1.623959381581006e-24 2.530763564408884e-16 2.5307608553134276e-16 2.709095455610508e-22
5.892989160043636 1.7221450669149253e-24 2.6938586699055533e-16 2.693855845897549e-16 2.8240080034832555e-22
5.915130176081913 1.833504860683823e-24 2.878828578928333e-16 2.878825631403992e-16 2.947524341505868e-22
5.95966208400165 2.1429431352196722e-24 3.3900157472823816e-16 3.3900124989690954e-16 3.2483132860576685e-22
6.004529249263818 2.5867405192307395e-24 4.1228854044825893e-16 4.1228817753668166e-16 3.6291157720877265e-22
6.027089341400364 2.8942428623027693e-24 4.630330951209545e-16 4.630327079373916e-16 3.8718356285396564e-22
6.049734195844842 3.25708871238919e-24 5.230404949677796e-16 5.230400805933683e-16 4.143744113541774e-22
6.095279466722835 4.302850905620189e-24 6.961764911455137e-16 6.961760030039028e-16 4.8814161085465235e-22
6.141167624020661 5.909126844735855e-24 9.63260379332487e-16 9.632597839436433e-16 5.953888438165082e-22
6.164241091010745 6.93456403187296e-24 1.1346664450949262e-15 1.1346657791354228e-15 6.659595030581625e-22
6.187401249150058 8.101800742769088e-24 1.3306360079054603e-15 1.3306352639856396e-15 7.439198204686753e-22
6.1990139391386085 8.67197218841759e-24 1.4269538328849702e-15 1.4269530488108384e-15 7.840741316896774e-22
6.204828454712694 8.972227901423104e-24 1.477745033930394e-15 1.4777442289683291e-15 8.049620654499706e-22
6.210648424152782 9.191793373871942e-24 1.5153279413064476e-15 1.51532711897691e-15 8.223295374080263e-22
6.233982942956859 9.938527431595794e-24 1.6445878728833475e-15 1.644586988832533e-15 8.840508144883704e-22
6.239830258556775 1.003455435161707e-23 1.6620355102034177e-15 1.662034617607815e-15 8.925956024565778e-22
6.245683058788269 1.0043947740339203e-23 1.6651517545470104e-15 1.6651508533303502e-15 9.01216660626848e-22
6.257405133728602 1.0025906485449018e-23 1.6652803469901243e-15 1.6652794306894566e-15 9.163006677142824e-22
6.269149208991335 9.882316019245815e-24 1.6445109788422734e-15 1.6445100576637988e-15 9.211784741874709e-22
6.280915325867298 9.518610767131391e-24 1.5869598519660367e-15 1.586958938602645e-15 9.13363391580093e-22
6.304513850009849 8.620388054728652e-24 1.4426063935258882e-15 1.4426055076173579e-15 8.859085300998988e-22
6.32820103803542 7.505974637710282e-24 1.2608307533671781e-15 1.260829909707849e-15 8.436593294492614e-22
6.3519772230701035 6.484222646037304e-24 1.0932922858920374e-15 1.0932914822151587e-15 8.036768785900369e-22
6.375842739491607 5.6247706194518595e-24 9.519449758580968e-16 9.519442073045535e-16 7.685535434510546e-22
6.399797922933955 4.937335660421182e-24 8.387419163071326e-16 8.387411714549392e-16 7.448521933836532e-22
6.42384311029221 4.366167010247767e-24 7.44500000794638e-16 7.444992759879572e-16 7.248066808594059e-22
6.447978639727206 3.9514504805292916e-24 6.763158520552178e-16 6.763151366132509e-16 7.154419670926792e-22
6.472204850670314 3.6065764590059025e-24 6.196077357778135e-16 6.196070270301745e-16 7.08747639225746e-22
6.496522083828205 3.3843330765294094e-24 5.836109754129109e-16 5.836102640420806e-16 7.113708300768861e-22
