Dust emission spectrum from A.P. Jones, M. Kohler, N. Ysard, M. Bocchio, and L. Verstraete (2017), A&A, 602A, 46J 
inside the DustPedia framework.

lambda    nu*dP/dnu     j_nu    j_nu(carb.) j_nu(sil)
 (um)   (erg s-1 H-1) (Jy cm2 sr-1 H-1)
0.9927057738263894 1.3313684116188482e-19 3.5082313848317842e-12 3.5082312366008666e-12 1.4823091795717228e-19
1.0001793341362166 1.353672585027878e-19 3.5938582491292535e-12 3.5938580708061716e-12 1.7832308190257725e-19
1.0077091589558085 1.3760747207782156e-19 3.6808375912029715e-12 3.680837376967143e-12 2.1423582892262352e-19
1.0114953028030835 1.3873116789911752e-19 3.724837627025283e-12 3.724837392324207e-12 2.3470107558641616e-19
1.0152956718711033 1.3985721321566157e-19 3.769179654087607e-12 3.7691793970528855e-12 2.570347210144341e-19
1.0229392996569957 1.4211512672565098e-19 3.858865161859473e-12 3.8588648538868005e-12 3.0797267326055603e-19
1.0267826658714554 1.432444370661894e-19 3.904143088740405e-12 3.904142751787693e-12 3.3695271353063956e-19
1.0306404723013447 1.4437592150688205e-19 3.949766254896674e-12 3.949765886360891e-12 3.6853578355278163e-19
1.03451277320114 1.455095530733617e-19 3.995736098163953e-12 3.995735695220266e-12 4.029436872545759e-19
1.0383996230291617 1.466453059307368e-19 4.042054088990259e-12 4.0420536485742284e-12 4.404160288409716e-19
1.0403485208654093 1.4721397008824108e-19 4.065344108486978e-12 4.065343648105545e-12 4.603814336793564e-19
1.0423010764483396 1.4778315541022616e-19 4.088721731723398e-12 4.088721250511852e-12 4.812115461281181e-19
1.0462171883269815 1.4892307803556122e-19 4.1357405659148046e-12 4.13574004030527e-12 5.256095359871297e-19
1.0471985131304309 1.4920837998547244e-19 4.14755033200276e-12 4.14754979469603e-12 5.37306729671174e-19
1.048180758391296 1.494938097741065e-19 4.1593821708676525e-12 4.1593816216149186e-12 5.492527327957003e-19
1.0501480137395462 1.500650515491397e-19 4.183112167639342e-12 4.1831115937279644e-12 5.739113776666806e-19
1.0521189612883777 1.506368007731242e-19 4.206930759165112e-12 4.206930159538251e-12 5.99626860335554e-19
1.0531058218030118 1.509224904159435e-19 4.218862874016316e-12 4.218862261121134e-12 6.128951830758641e-19
1.0540936079674168 1.5120707919683745e-19 4.230782869480538e-12 4.23078224303353e-12 6.264470095704793e-19
1.058054026499678 1.5234663867352518e-19 4.278683416554213e-12 4.278682732979273e-12 6.835749405496101e-19
1.0590464539527713 1.526318282169505e-19 4.290713825180227e-12 4.290713126563611e-12 6.98616616259685e-19
1.06003981227728 1.5291713708258987e-19 4.302766395342297e-12 4.30276568136792e-12 7.139743762559024e-19
1.0620293250338977 1.5348811172731224e-19 4.326938127187009e-12 4.326937381523519e-12 7.456634888884084e-19
1.0660195594769086 1.5463148159374865e-19 4.375548714811798e-12 4.375547901691579e-12 8.131202190307267e-19
1.070024785945596 1.5577673286587492e-19 4.4245169364908765e-12 4.424516050106739e-12 8.863841382463212e-19
1.0740450607676866 1.569238515183907e-19 4.473844594326029e-12 4.473843628398077e-12 9.659279523759593e-19
1.07808044048254 1.5807282493145795e-19 4.52353353688165e-12 4.5235324846211805e-12 1.052260470086628e-18
1.0861967418109137 1.6037455250305652e-19 4.623952736839702e-12 4.623951489316668e-12 1.2475230330330408e-18
1.0902777775684922 1.6152333260045657e-19 4.674572069203896e-12 4.674570711528451e-12 1.3576754442099517e-18
1.0943741465085532 1.6267386407069315e-19 4.72555737593117e-12 4.725555898864493e-12 1.4770666780290201e-18
1.1026131145906286 1.6498016299732742e-19 4.828634300664322e-12 4.828632554119603e-12 1.746544718735364e-18
1.1109141095355224 1.6729342864922302e-19 4.9332008515915526e-12 4.93319878911192e-12 2.062479632916044e-18
1.1192775983109025 1.6961187694457909e-19 5.039222156748408e-12 5.0392197243631184e-12 2.4323852895297303e-18
1.1277040513999907 1.7192731722368447e-19 5.146470173793301e-12 5.1464673088878925e-12 2.8649054085154234e-18
1.1361939428280308 1.742495534924054e-19 5.255252368712039e-12 5.255248998741981e-12 3.3699700575009694e-18
1.1447477501889525 1.765786729608768e-19 5.365589956005141e-12 5.365585997033994e-12 3.958971148333379e-18
1.1533659546722406 1.7891558501903278e-19 5.477529605330243e-12 5.477524960363697e-12 4.6449665461080314e-18
1.1707974979042381 1.8361988362093154e-19 5.706514517862648e-12 5.706508147979388e-12 6.3698832603319035e-18
1.1884924949847024 1.8835707882663622e-19 5.942207636694884e-12 5.9421989453029305e-12 8.691391954304509e-18
1.2064549276569216 1.9315891748591882e-19 6.185791785120346e-12 6.185779984954849e-12 1.1800165498467413e-17
1.2246888378427687 1.979959064381264e-19 6.43652416300556e-12 6.43650822094184e-12 1.5942063721260134e-17
1.2431983285522175 2.0286468318846011e-19 6.6944715105268866e-12 6.694450077551564e-12 2.1432975321764214e-17
1.2619875648066055 2.0777303394069902e-19 6.960071323326383e-12 6.9600426466210365e-12 2.867670534589005e-17
1.3004222497298317 2.176817300371704e-19 7.514079833364532e-12 7.514029222776182e-12 5.0610588351653565e-17
1.3400274889804893 2.277557082657856e-19 8.101257025056046e-12 8.101169347274498e-12 8.767778154774115e-17
1.3808389325824078 2.380349554471264e-19 8.724754076108216e-12 8.724604906788001e-12 1.491693202165344e-16
1.4228933163050095 2.4860522850151773e-19 9.38970678474976e-12 9.389457424198537e-12 2.493605512245201e-16
1.466228494730424 2.596431636119215e-19 1.0105271366446191e-11 1.0104861584788019e-11 4.097816581691294e-16
1.5108834753276823 2.7112886890443953e-19 1.0873670450030628e-11 1.0873008163477488e-11 6.622865531375034e-16
1.5568984535646726 2.830518165727665e-19 1.169757037737104e-11 1.1696516550111921e-11 1.0538272591194298e-15
1.6043148490894465 2.9547360304664794e-19 1.25828124773347e-11 1.2581158455099405e-11 1.654022235293276e-15
1.6531753430134553 3.084569972907397e-19 1.3535770392757771e-11 1.3533212747672718e-11 2.5576450850516414e-15
1.7035239163302658 3.220723883681592e-19 1.4563681147215274e-11 1.4559783820542462e-11 3.89732667280909e-15
1.755405889504358 3.365400973440412e-19 1.5681362710199023e-11 1.567550756941253e-11 5.855140786487724e-15
1.8088679632656115 3.5184030457527537e-19 1.689358759807933e-11 1.688491189994157e-11 8.675698137759323e-15
1.8639582606462262 3.67941132983196e-19 1.820471806352677e-11 1.8192034553582355e-11 1.2683509944419185e-14
1.9207263702978936 3.848563699368156e-19 1.96215635456098e-11 1.9603261312065264e-11 1.8302233544529964e-14
1.979223391128241 4.026170667418457e-19 2.1152243068535677e-11 2.1126165677468772e-11 2.607739106690554e-14
2.039501978296691 4.2123901078960487e-19 2.280458368074277e-11 2.2767883177812368e-11 3.670050293040057e-14
2.1016163906111602 4.40856747958864e-19 2.4593501884894132e-11 2.454246260862818e-11 5.103927626595417e-14
2.1656225393682647 4.615043994447928e-19 2.652943747136712e-11 2.6459274458338583e-11 7.016301302854305e-14
2.231578038680979 4.830734273175949e-19 2.861505997662942e-11 2.851968915775027e-11 9.537081887915396e-14
2.299542257339062 5.055194580868478e-19 3.0856645038621566e-11 3.072842492935004e-11 1.28220109271524e-13
2.369576372248914 5.288386518704484e-19 3.326314685667965e-11 3.309259080347869e-11 1.70556053200949e-13
2.4417434235010123 5.530389457364858e-19 3.584471863395801e-11 3.5620187993339e-11 2.2453064061901616e-13
2.5161083711144245 5.782178840649052e-19 3.861804602488968e-11 3.8325416649290473e-11 2.9262937559921494e-13
2.5927381535095444 6.045878140386338e-19 4.16090194123433e-11 4.123133761395106e-11 3.776817983922323e-13
2.6717017477616296 6.323097237354628e-19 4.4842236838001035e-11 4.435939193645808e-11 4.828449015429615e-13
2.753070231689431 6.6165623395265105e-19 4.835252211504424e-11 4.7740926816264025e-11 6.115952987802084e-13
2.836916847834745 6.935207287107135e-19 5.222464371191897e-11 5.1456908958313576e-11 7.677347536053865e-13
2.9233170693905177 7.29942572673182e-19 5.664140914922361e-11 5.568625968621e-11 9.551494630136149e-13
2.967498994190263 7.518257049805231e-19 5.922119732906724e-11 5.8161544124804586e-11 1.059653204262662e-12
3.0123486681368425 7.751069270108573e-19 6.197781903424487e-11 6.08037274457104e-11 1.1740915885344796e-12
3.0578761833420214 8.124358357192863e-19 6.594447284348086e-11 6.464483751393211e-11 1.2996353295487527e-12
3.1040917844459814 8.557309492399732e-19 7.050845961461266e-11 6.907274122660653e-11 1.4357183880061333e-12
3.127460860933648 8.951966087182393e-19 7.431555828041777e-11 7.280718908519945e-11 1.5083691952183172e-12
3.1510058709225794 9.450108731808664e-19 7.904155049579664e-11 7.745760659117242e-11 1.5839439046241862e-12
3.162844764501044 9.897801440788847e-19 8.309713433837237e-11 8.147413911393165e-11 1.6229952244407206e-12
3.1747281389236908 1.0402635504542807e-18 8.766361101066538e-11 8.600081164596962e-11 1.6627993646957588e-12
3.1986289994194426 1.1763602235516e-18 9.98788733043516e-11 9.813396466852238e-11 1.7449086358291938e-12
3.2227097969389145 1.4902170359805714e-18 1.2747944271564977e-10 1.256476832651681e-10 1.831759450481644e-12
3.2348180950136065 1.78406390198806e-18 1.531897483847471e-10 1.5131167878666465e-10 1.8780695980824322e-12
3.240889293275058 2.0034696882761096e-18 1.7235203088572411e-10 1.704495334827596e-10 1.9024974029645524e-12
3.2469718861334385 2.2577361471491475e-18 1.9459028207042375e-10 1.9266250915536973e-10 1.927772915054007e-12
3.2714166318528037 3.588747225760557e-18 3.1163638662329366e-10 3.096042893689178e-10 2.0320972543759028e-12
3.2744851364798273 3.6718373283663035e-18 3.1915076450377944e-10 3.1710640909043627e-10 2.0443554133431618e-12
3.2775565192852394 3.757123387856057e-18 3.268700132057801e-10 3.2481334164462006e-10 2.056671561160044e-12
3.283707930232385 3.674954972815829e-18 3.203214171058959e-10 3.182427939298073e-10 2.0786231760886005e-12
3.2898708863219004 3.414146954152685e-18 2.981470368784461e-10 2.9604850412689767e-10 2.0985327515483213e-12
3.29141343181113 3.3525004770348364e-18 2.929009083147597e-10 2.90797377858665e-10 2.1035304560946565e-12
3.292184975758714 3.322188400781787e-18 2.9032064447353114e-10 2.8821461211644664e-10 2.106032357084536e-12
3.295272960557952 3.133488650936173e-18 2.7408732599090417e-10 2.719715744960801e-10 2.115751494824124e-12
3.3076538914384823 2.4744242808359525e-18 2.1725193883043985e-10 2.1509718388569097e-10 2.1547549447489443e-12
3.310756385682612 2.3387688724292724e-18 2.0553413681738886e-10 2.0336955754025695e-10 2.1645792771318735e-12
3.313861789986515 2.2130119149622404e-18 1.9466486671565506e-10 1.924904337019109e-10 2.1744330137441675e-12
3.3200813396944477 2.0374993291394236e-18 1.795624949889309e-10 1.7736683581594912e-10 2.19565917298178e-12
3.345076488085796 1.7320161565874768e-18 1.5378976194262166e-10 1.5149942340808382e-10 2.290338534537768e-12
3.3482140837626964 1.744593022403277e-18 1.550517895512418e-10 1.5274862132455255e-10 2.303168226689285e-12
3.3513546224236106 1.7572797541694682e-18 1.5632582291854506e-10 1.5400977079503245e-10 2.3160521235126368e-12
3.3576445397418455 1.8456780517124937e-18 1.6449780150443572e-10 1.6215479990993687e-10 2.343001594498884e-12
3.3702598118196083 2.1650239308558215e-18 1.9368478949150283e-10 1.912852656679733e-10 2.399523823529525e-12
3.382922481734668 2.2417012667180568e-18 2.0129788714979912e-10 1.9884353916169477e-10 2.454347988104393e-12
3.389271646505754 2.281191776741134e-18 2.052284706825268e-10 2.0274635636444762e-10 2.482114318079144e-12
3.395632727569191 2.3247212725078846e-18 2.0953715040520932e-10 2.070264209938573e-10 2.510729411352039e-12
3.421196662673239 2.5359334424084496e-18 2.302954320348222e-10 2.2766637148843527e-10 2.6290605463869947e-12
3.4276182099114902 2.4982353985232492e-18 2.2729780000814088e-10 2.246424572786787e-10 2.6553427294622394e-12
3.4340518103208963 2.326555265815699e-18 2.1207508493198973e-10 2.093949448246363e-10 2.680140107353449e-12
3.4469541582030403 2.0800963799466184e-18 1.9032173971972326e-10 1.875941275776863e-10 2.7276121420369652e-12
3.472904465399547 2.0120912474376838e-18 1.854854899731018e-10 1.8264833162915382e-10 2.8371583439479705e-12
3.4990501388274233 1.9093351194219695e-18 1.7733798093631422e-10 1.7438899514067302e-10 2.9489857956411786e-12
3.5253949054701885 1.5445217438281113e-18 1.4453440279453648e-10 1.4147721798739288e-10 3.057184807143638e-12
3.5519380250092896 1.197225374056251e-18 1.1287836891967801e-10 1.097127877820319e-10 3.165581137646104e-12
3.578680990867387 1.062932531914157e-18 1.0097133972527387e-10 9.768699443777498e-11 3.2843452874988715e-12
3.605625307711299 1.0124608864829165e-18 9.690100490787997e-11 9.349178878974934e-11 3.409216118130627e-12
3.660119384959845 9.831815740655143e-19 9.552090207728115e-11 9.185030949970227e-11 3.670592577578904e-12
3.715437065384467 9.646186140067443e-19 9.513382980804754e-11 9.11890986885372e-11 3.944731119510314e-12
3.8285932144167436 9.707022862999555e-19 9.864945967306558e-11 9.412043701888375e-11 4.529022654181785e-12
3.94519561050918 9.87185917535583e-19 1.0338009471098946e-10 9.822123470744061e-11 5.158860003548888e-12
4.06534921144712 1.0069116814631086e-18 1.0865724004575838e-10 1.0282543242511872e-10 5.831807620639644e-12
4.189162171576248 1.027722565586784e-18 1.1428059651133788e-10 1.0773315715870421e-10 6.547439352633661e-12
4.316745939156006 1.0486482401992987e-18 1.2015884760870923e-10 1.1285770364184564e-10 7.301143966863572e-12
4.448215356677963 1.0691756108320745e-18 1.2624212071990302e-10 1.181618822088072e-10 8.0802385110958e-12
4.58368876423945 1.0891633938041262e-18 1.3251882931123597e-10 1.23634861677808e-10 8.883967633427975e-12
4.723288106065518 1.1086952015316425e-18 1.3900359677793014e-10 1.2928778789164114e-10 9.715808886288981e-12
4.867139040275056 1.127818118563636e-18 1.4570761627196918e-10 1.3515751201799758e-10 1.0550104253971568e-11
4.940699165968905 1.1377750044461504e-18 1.4921560104554215e-10 1.3824515394614289e-10 1.0970447099399294e-11
5.015371051989984 1.147182435367522e-18 1.5272319142105593e-10 1.4133188303428524e-10 1.1391308386770713e-11
5.091171501069577 1.1578356912680254e-18 1.5647108458404272e-10 1.4464862187093925e-10 1.1822462713103435e-11
5.129500256944802 1.1629313947166807e-18 1.5834289609438938e-10 1.463053017578758e-10 1.2037594336513586e-11
5.168117569889187 1.168038679113552e-18 1.6023561163334618e-10 1.4798076071474502e-10 1.2254850918601208e-11
5.20702561229733 1.1744264606852618e-18 1.6232483668103916e-10 1.4983069977562442e-10 1.249413690541473e-11
5.246226572918644 1.1806975235360577e-18 1.6442018338358823e-10 1.516864935055914e-10 1.2733689877996824e-11
5.265937586045735 1.1837896600488632e-18 1.6547015841495836e-10 1.526166336264597e-10 1.2853524788498679e-11
5.285722656980489 1.1868530959121296e-18 1.6652167546391993e-10 1.535482992083408e-10 1.297337625557918e-11
5.305582063971359 1.1898880218911863e-18 1.67574743032216e-10 1.544815156361885e-10 1.3093227396027425e-11
5.3255160863122235 1.193147042651376e-18 1.6866505141536894e-10 1.5545087337965455e-10 1.321417803571438e-11
5.365609099470188 1.201530530957874e-18 1.711288664551022e-10 1.576642589409806e-10 1.3464607514121639e-11
5.406003951863644 1.2098986955527616e-18 1.7361802052535462e-10 1.5990281272083195e-10 1.3715207804522668e-11
5.446702915881641 1.2182598399231304e-18 1.761339394602278e-10 1.6216809617349085e-10 1.3965843286736948e-11
5.487708281020852 1.227096591594596e-18 1.7874718032185818e-10 1.645295547122512e-10 1.4217625609606964e-11
5.529022354014368 1.2401483564770446e-18 1.8200839540223414e-10 1.6752828725971586e-10 1.4480108142518312e-11
5.570647458961463 1.2535127392347689e-18 1.8535480968941421e-10 1.7061212599703323e-10 1.474268369238099e-11
5.612585937458331 1.2672270926839863e-18 1.887934340777728e-10 1.7378821940085743e-10 1.500521467691534e-11
5.654840148729818 1.2820372778382644e-18 1.9243781590789826e-10 1.7716873756391361e-10 1.526907834398463e-11
5.67608639626678 1.292726187431059e-18 1.9477130627344247e-10 1.793638210226667e-10 1.540748525077576e-11
5.686739436050992 1.2981743207272826e-18 1.9595925362925926e-10 1.8048255126956574e-10 1.5476702359693548e-11
5.6974124697621304 1.3036941756913686e-18 1.971618207488366e-10 1.816158950944152e-10 1.5545925654421354e-11
5.718818669136295 1.3149571587623322e-18 1.9961232956125126e-10 1.8392794753794333e-10 1.5684382023307947e-11
5.740305295436557 1.32740664892008e-18 2.0225925930876421e-10 1.8643523976810627e-10 1.582401954065798e-11
5.7835210386641895 1.3605750258943355e-18 2.0887393463598932e-10 1.9276151375090632e-10 1.6112420885082927e-11
5.827062130521658 1.3980725683205412e-18 2.162463552168725e-10 1.9984246010534218e-10 1.6403895111530312e-11
5.8489554468988025 1.425376068746589e-18 2.2129785746642791e-10 2.047355066421303e-10 1.6562350824297612e-11
5.870931020387893 1.454232858468592e-18 2.266263290893099e-10 2.0990528563721154e-10 1.6721043452098355e-11
5.892989160043636 1.4847679196155855e-18 2.3225423977895732e-10 2.1537428484175227e-10 1.687995493720506e-11
5.915130176081913 1.5194715874678702e-18 2.3857576408282175e-10 2.2153073105419648e-10 1.704503302862523e-11
5.95966208400165 1.6183541127580091e-18 2.560145361191054e-10 2.3858741733275227e-10 1.7427118786353128e-11
6.004529249263818 1.760867538601535e-18 2.806564871951838e-10 2.627960251439928e-10 1.7860462051190953e-11
6.027089341400364 1.8604013554819785e-18 2.9763480080267184e-10 2.7952100334150464e-10 1.811379746116723e-11
6.049734195844842 1.9769700976144777e-18 3.174722918843295e-10 2.9908949266158426e-10 1.8382799222745194e-11
6.095279466722835 2.3140942357645346e-18 3.7440711764620374e-10 3.5535316922586304e-10 1.9053948420340652e-11
6.141167624020661 2.8284171704429224e-18 4.6106679854714763e-10 4.411294852858282e-10 1.9937313261319475e-11
6.164241091010745 3.155919514027538e-18 5.163866047711959e-10 4.958889776736664e-10 2.049762709752933e-11
6.187401249150058 3.523541499142588e-18 5.787048266143643e-10 5.576329930208173e-10 2.1071833593546967e-11
6.1990139391386085 3.701704036058717e-18 6.091072074140965e-10 5.877434067254621e-10 2.1363800688634388e-11
6.204828454712694 3.795100757422582e-18 6.250611731181249e-10 6.035500257846965e-10 2.151114733342844e-11
6.210648424152782 3.862265924623661e-18 6.367200865256909e-10 6.150846886803482e-10 2.1635397845342724e-11
6.233982942956859 4.086020757924307e-18 6.761384151809866e-10 6.540752705305635e-10 2.2063144650423268e-11
6.239830258556775 4.112030583343911e-18 6.810806548134048e-10 6.589622755473309e-10 2.2118379266074045e-11
6.245683058788269 4.110180699317087e-18 6.814128049955354e-10 6.592391454097753e-10 2.2173659585760052e-11
6.257405133728602 4.094574529789614e-18 6.800995504637001e-10 6.578315355516202e-10 2.226801491207983e-11
6.269149208991335 4.0386201196613374e-18 6.720646367938381e-10 6.497736042824098e-10 2.229103251142818e-11
6.280915325867298 3.9123862725901555e-18 6.522800534530909e-10 6.300540577025364e-10 2.2225995750554364e-11
6.304513850009849 3.606983137269923e-18 6.036221225924209e-10 5.816056114079659e-10 2.2016511184455015e-11
6.32820103803542 3.2369027391299554e-18 5.437250611865218e-10 5.220024951269073e-10 2.1722566059614388e-11
6.3519772230701035 2.8998183164890036e-18 4.889327786798554e-10 4.674769943907442e-10 2.1455784289111216e-11
6.375842739491607 2.6154980704177075e-18 4.4265098364905727e-10 4.2143398171381763e-10 2.1217001935239594e-11
6.399797922933955 2.3897328964883492e-18 4.059616941036269e-10 3.8488367734467943e-10 2.107801675894755e-11
6.42384311029221 2.2011040681498517e-18 3.7532278922002413e-10 3.543637194847118e-10 2.095906973531237e-11
6.447978639727206 2.063608943173626e-18 3.5319978007779394e-10 3.322821796033338e-10 2.091760047446014e-11
6.472204850670314 1.9483330656295614e-18 3.347224862851031e-10 3.1383105553654035e-10 2.0891430748562792e-11
6.496522083828205 1.872323270905361e-18 3.228725972627753e-10 3.01944866609136e-10 2.09277306536393e-11
