Dust emission spectrum from A.P. Jones, M. Kohler, N. Ysard, M. Bocchio, and L. Verstraete (2017), A&A, 602A, 46J 
inside the DustPedia framework.

lambda    nu*dP/dnu     j_nu    j_nu(carb.) j_nu(sil)
 (um)   (erg s-1 H-1) (Jy cm2 sr-1 H-1)
0.9927057738263894 1.6526515134182368e-23 4.354830606589046e-16 4.354830606207099e-16 3.81947254173959e-26
1.0001793341362166 1.6799239415560506e-23 4.460021265147072e-16 4.460021264687055e-16 4.600161790710027e-26
1.0077091589558085 1.7071576070820558e-23 4.56644526592427e-16 4.566445265370945e-16 5.533244186531941e-26
1.0114953028030835 1.7207565644583975e-23 4.620114495760809e-16 4.620114495154253e-16 6.065568635432938e-26
1.0152956718711033 1.7343418346725883e-23 4.674085666500937e-16 4.674085665836243e-16 6.646941313626066e-26
1.0229392996569957 1.7614526857792848e-23 4.782888746628143e-16 4.782888745830692e-16 7.974499936755609e-26
1.0267826658714554 1.774945365552662e-23 4.837633365554181e-16 4.837633364681114e-16 8.73066210049294e-26
1.0306404723013447 1.7884184175321756e-23 4.892668141250672e-16 4.892668140295132e-16 9.555408241631369e-26
1.03451277320114 1.8018705479799288e-23 4.94799072687134e-16 4.947990725825875e-16 1.0454652583076611e-25
1.0383996230291617 1.815300470454302e-23 5.003598746496123e-16 5.003598745352643e-16 1.1434790888769468e-25
1.0403485208654093 1.8220067037447534e-23 5.031509043776657e-16 5.031509042580923e-16 1.19573346072544e-25
1.0423010764483396 1.8287069060582466e-23 5.059489795706189e-16 5.059489794455916e-16 1.2502737172728068e-25
1.0462171883269815 1.8420885836821646e-23 5.11566144215988e-16 5.115661440793284e-16 1.3665962999738594e-25
1.0471985131304309 1.8454299864563562e-23 5.129747909440568e-16 5.129747908043309e-16 1.397258892093534e-25
1.048180758391296 1.8487697432177835e-23 5.143851721753058e-16 5.143851720324477e-16 1.4285803352302185e-25
1.0501480137395462 1.8554442402413204e-23 5.172111226169303e-16 5.172111224676047e-16 1.4932539544591802e-25
1.0521189612883777 1.8621119181591247e-23 5.200439643769459e-16 5.200439642208731e-16 1.5607281543831843e-25
1.0531058218030118 1.8654380294017924e-23 5.21461527989071e-16 5.214615278295155e-16 1.5955536078660398e-25
1.0540936079674168 1.86874559694202e-23 5.228761048063974e-16 5.228761046432843e-16 1.6311304970829141e-25
1.058054026499678 1.8819571539902622e-23 5.285511341474074e-16 5.285511339692887e-16 1.7811869448996636e-25
1.0590464539527713 1.8852552689062792e-23 5.29974051990796e-16 5.299740518087242e-16 1.8207176411055504e-25
1.06003981227728 1.888551435781087e-23 5.313986260000076e-16 5.313986258138987e-16 1.8610877860430563e-25
1.0620293250338977 1.8951378490887955e-23 5.342527263652775e-16 5.342527261708361e-16 1.944414578419653e-25
1.0660195594769086 1.9082864617460306e-23 5.399806229059088e-16 5.399806226937177e-16 2.121909720625485e-25
1.070024785945596 1.921401780836355e-23 5.457345628396156e-16 5.457345626081302e-16 2.3148546087297003e-25
1.0740450607676866 1.9344826048011664e-23 5.51514282919137e-16 5.515142826666844e-16 2.5245236761977982e-25
1.07808044048254 1.947527741844431e-23 5.573195176375607e-16 5.573195173623314e-16 2.7522902582734905e-25
1.0861967418109137 1.9734831735139908e-23 5.689988080311683e-16 5.689988077043534e-16 3.268147645244734e-25
1.0902777775684922 1.9863386870818072e-23 5.748570932213113e-16 5.748570928653566e-16 3.559547527209352e-25
1.0943741465085532 1.9991529322184376e-23 5.807393792744625e-16 5.807393788868947e-16 3.875677937019045e-25
1.1026131145906286 2.024653093869571e-23 5.925748404166094e-16 5.925748399575875e-16 4.590220583404584e-25
1.1109141095355224 2.0499747228236286e-23 6.045029461126806e-16 6.045029455697291e-16 5.429515418457068e-25
1.1192775983109025 2.0750855462517173e-23 6.165144357925363e-16 6.165144351511315e-16 6.41404748706642e-25
1.1277040513999907 2.0998689667174323e-23 6.285745151263651e-16 6.285745143696212e-16 7.567439766787125e-25
1.1361939428280308 2.124444801360395e-23 6.407186331776625e-16 6.407186322859731e-16 8.916894250665418e-25
1.1447477501889525 2.1488049264267056e-23 6.529444319249147e-16 6.52944430875545e-16 1.0493694890137483e-24
1.1533659546722406 2.1729546740810567e-23 6.652535919133906e-16 6.652535906800117e-16 1.2333789132177947e-24
1.1707974979042381 2.2207012245889207e-23 6.90146596765812e-16 6.901465950683194e-16 1.6974927418807452e-24
1.1884924949847024 2.2675043717658346e-23 7.153424696370146e-16 7.153424673123416e-16 2.324673072983634e-24
1.2064549276569216 2.313730501238925e-23 7.409575138351809e-16 7.40957510667156e-16 3.168024688110305e-24
1.2246888378427687 2.3588757528391838e-23 7.668320549557425e-16 7.668320506593623e-16 4.29638029471736e-24
1.2431983285522175 2.4028351387031084e-23 7.92928129614229e-16 7.929281238155779e-16 5.798651152310639e-24
1.2619875648066055 2.4455930941670135e-23 8.192353954890516e-16 8.192353876999548e-16 7.789096863788653e-24
1.3004222497298317 2.5267977741965528e-23 8.72216524319181e-16 8.722165104610954e-16 1.385808566672833e-23
1.3400274889804893 2.602178898723383e-23 9.25593489807705e-16 9.255934656000657e-16 2.4207639439885723e-23
1.3808389325824078 2.671464600345491e-23 9.79178525156588e-16 9.791784836195535e-16 4.15370348559872e-23
1.4228933163050095 2.7349982680076284e-23 1.032996447749018e-15 1.0329963777059058e-15 7.004311193391284e-23
1.466228494730424 2.794309453298318e-23 1.087540873966954e-15 1.087540757833244e-15 1.1613371006727365e-22
1.5108834753276823 2.8482610944618535e-23 1.142300066457977e-15 1.1422998770471282e-15 1.8941084900946882e-22
1.5568984535646726 2.8959351651303756e-23 1.196791662126908e-15 1.1967913579282008e-15 3.041987074628182e-22
1.6043148490894465 2.9374272642142016e-23 1.2509102691512634e-15 1.250909787188494e-15 4.81962768974011e-22
1.6531753430134553 2.9728717710263565e-23 1.3045614154700189e-15 1.3045606630271152e-15 7.524429040303673e-22
1.7035239163302658 3.0026909514508566e-23 1.3577765489965233e-15 1.3577753911743378e-15 1.157822185562757e-21
1.755405889504358 3.029278255968396e-23 1.4115171255031022e-15 1.4115153686470092e-15 1.7568560933442082e-21
1.8088679632656115 3.05205584758087e-23 1.4654424790127056e-15 1.4654398492836664e-15 2.6297290391739413e-21
1.8639582606462262 3.070634589141401e-23 1.5192657727122212e-15 1.519261888174475e-15 3.884537746690785e-21
1.9207263702978936 3.0853129134163263e-23 1.5730196540238629e-15 1.5730139892083556e-15 5.664815507450978e-21
1.979223391128241 3.096772654226651e-23 1.626947621477677e-15 1.626939462822082e-15 8.158655595153892e-21
2.039501978296691 3.105826481380438e-23 1.6813988751835443e-15 1.6813872662113555e-15 1.1608972189071741e-20
2.1016163906111602 3.11473801529294e-23 1.7375783767566617e-15 1.7375620503104006e-15 1.6326446260671942e-20
2.1656225393682647 3.124821702985132e-23 1.7962940781983126e-15 1.796271376257651e-15 2.2701940661824892e-20
2.231578038680979 3.136173936634443e-23 1.8577259733008696e-15 1.8576947524893527e-15 3.122081151646691e-20
2.299542257339062 3.149581078685404e-23 1.9224879242661702e-15 1.922445445729938e-15 4.247853623164626e-20
2.369576372248914 3.166774770868732e-23 1.9918531652871592e-15 1.9917959672521743e-15 5.71980349846522e-20
2.4417434235010123 3.189798186634167e-23 2.0674388192814753e-15 2.0673625742825287e-15 7.624499894678664e-20
2.5161083711144245 3.222149153428217e-23 2.1520106474635183e-15 2.1519100001095987e-15 1.0064735391945934e-19
2.5927381535095444 3.2695489335764617e-23 2.2501731243642967e-15 2.250041513253365e-15 1.316111109322113e-19
2.6717017477616296 3.3388164433369754e-23 2.367826906507715e-15 2.367656378595016e-15 1.7052791269883696e-19
2.753070231689431 3.440214153221356e-23 2.5140401070569746e-15 2.5138211195108685e-15 2.189875461066482e-19
2.836916847834745 3.597006262869896e-23 2.708677083915682e-15 2.708398287808246e-15 2.7879610743700763e-19
2.9233170693905177 3.860428150397647e-23 2.9955793584840616e-15 2.9952274375387303e-15 3.5192094533229107e-19
2.967498994190263 4.082708620319773e-23 3.2159434193235625e-15 3.215549924496528e-15 3.934948270347838e-19
3.0123486681368425 4.341973032141997e-23 3.471856713698273e-15 3.4714173196086276e-15 4.393940896452049e-19
3.0578761833420214 4.919388301627964e-23 3.993010327714446e-15 3.992520197178938e-15 4.901305355080272e-19
3.1040917844459814 5.662732436947287e-23 4.6658420113643355e-15 4.665296320021522e-15 5.456913428128273e-19
3.127460860933648 6.447849953834867e-23 5.352741111404537e-15 5.352165532888837e-15 5.755785157008877e-19
3.1510058709225794 7.493462434513796e-23 6.267598672302443e-15 6.266991838692058e-15 6.068336103865983e-19
3.162844764501044 8.466367005751942e-23 7.107950595327986e-15 7.107327547775263e-15 6.230475527220341e-19
3.1747281389236908 9.597560517960661e-23 8.087919753897029e-15 8.08728013508503e-15 6.396188119978501e-19
3.1986289994194426 1.2752077928044989e-22 1.0827152688800139e-14 1.0826478749093475e-14 6.7393970666316955e-19
3.2227097969389145 2.018654974210103e-22 1.7268424996775662e-14 1.7267714581741647e-14 7.10415034014823e-19
3.2348180950136065 2.723610542168958e-22 2.3386450069864138e-14 2.3385720161420107e-14 7.299084440281122e-19
3.240889293275058 3.2506476382256224e-22 2.7964272452963445e-14 2.7963532261424995e-14 7.4019153843894505e-19
3.2469718861334385 3.8603553375913843e-22 3.327171932745556e-14 3.327096849512151e-14 7.508323340469729e-19
3.2714166318528037 7.112303194639682e-22 6.176117538278525e-14 6.176038048867592e-14 7.94894109332199e-19
3.2744851364798273 7.315597926333383e-22 6.358611404036156e-14 6.358531392915487e-14 8.001112066771547e-19
3.2775565192852394 7.524729221811463e-22 6.546519999991188e-14 6.54643946431938e-14 8.053567180802982e-19
3.283707930232385 7.32364142057136e-22 6.383531813494197e-14 6.383450334832675e-14 8.147866152310283e-19
3.2898708863219004 6.685876340422899e-22 5.838571820724417e-14 5.838489479338956e-14 8.234138546017158e-19
3.29141343181113 6.535473484811439e-22 5.709905585640303e-14 5.709823027496722e-14 8.255814358073947e-19
3.292184975758714 6.461570558100243e-22 5.6466614846328654e-14 5.646578817948326e-14 8.266668454006658e-19
3.295272960557952 5.995117866763898e-22 5.2439501403992195e-14 5.243867050654729e-14 8.308974449087234e-19
3.3076538914384823 4.379108356655538e-22 3.844812662889764e-14 3.844727871535128e-14 8.479135463648834e-19
3.310756385682612 4.0501882679935303e-22 3.5593596247298256e-14 3.55927440397043e-14 8.52207593960804e-19
3.313861789986515 3.746700004578126e-22 3.2957385004734147e-14 3.2956528487023783e-14 8.56517710366868e-19
3.3200813396944477 3.3211069571581114e-22 2.926853731060049e-14 2.9267671542975593e-14 8.657676248867893e-19
3.345076488085796 2.562025857095232e-22 2.2748826282880978e-14 2.274791934424134e-14 9.069386396376062e-19
3.3482140837626964 2.5905156496586737e-22 2.3023368899341328e-14 2.3022456385156088e-14 9.125141852439677e-19
3.3513546224236106 2.619320026734037e-22 2.3301205041182976e-14 2.330028692368039e-14 9.181175025809297e-19
3.3576445397418455 2.8297308524684285e-22 2.5220243782410165e-14 2.521931395747039e-14 9.298249397834077e-19
3.3702598118196083 3.6057001162266645e-22 3.22568844633873e-14 3.225593007538232e-14 9.543880049831494e-19
3.382922481734668 3.7825156706754836e-22 3.396582871778984e-14 3.396485036456014e-14 9.78353229695527e-19
3.389271646505754 3.8741152125511446e-22 3.485365625224273e-14 3.485266573369532e-14 9.90518547414698e-19
3.395632727569191 3.9728307109299675e-22 3.5808835926060196e-14 3.580783286945971e-14 1.0030566004810636e-18
3.421196662673239 4.446848079329304e-22 4.038311031734945e-14 4.038205525509984e-14 1.0550622495922288e-18
3.4276182099114902 4.35142700614682e-22 3.959073616432781e-14 3.9589669397463845e-14 1.0667668639692767e-18
3.4340518103208963 3.9331276998168315e-22 3.585207724238483e-14 3.5850999357112867e-14 1.0778852719624332e-18
3.4469541582030403 3.337372128772553e-22 3.053581919393606e-14 3.0534719870271704e-14 1.09932366436045e-18
3.472904465399547 3.1704898127123037e-22 2.9227295586846035e-14 2.9226147012231583e-14 1.1485746144499873e-18
3.4990501388274233 2.9152225717242275e-22 2.707642464598117e-14 2.707522544076161e-14 1.1992052195523956e-18
3.5253949054701885 2.006576086019328e-22 1.877728671762086e-14 1.877603796065212e-14 1.2487569687397805e-18
3.5519380250092896 1.152476133788151e-22 1.0865926250803876e-14 1.086462739082329e-14 1.2988599805847882e-18
3.578680990867387 8.138965248892866e-23 7.731461785991597e-15 7.730107954610802e-15 1.3538313807964544e-18
3.605625307711299 6.770317314564145e-23 6.479761935352103e-15 6.478350017832029e-15 1.4119175200729508e-18
3.660119384959845 5.773576601839347e-23 5.6093122549022554e-15 5.607777462505375e-15 1.5347923968786115e-18
3.715437065384467 5.0683184806817564e-23 4.9985407782187915e-15 4.99687521227098e-15 1.665565947810974e-18
3.8285932144167436 4.714147974995648e-23 4.790842229545269e-15 4.788891207899101e-15 1.951021646167289e-18
3.94519561050918 4.6501737685239497e-23 4.869755494615193e-15 4.867486436782766e-15 2.269057832427055e-18
4.06534921144712 4.705399444967187e-23 5.077661987792821e-15 5.075040857445914e-15 2.6211303469068084e-18
4.189162171576248 4.829674704402605e-23 5.370497103561377e-15 5.3674873089957245e-15 3.0097945656510286e-18
4.316745939156006 5.004284760504049e-23 5.7341353075051286e-15 5.730699430069437e-15 3.4358774356903035e-18
4.448215356677963 5.222920725949796e-23 6.1669250786847215e-15 6.1630288901607546e-15 3.896188523966493e-18
4.58368876423945 5.486298998925151e-23 6.675196069982098e-15 6.670802471121848e-15 4.393598860249107e-18
4.723288106065518 5.800333571481635e-23 7.272217177758873e-15 7.267283627219289e-15 4.933550539582508e-18
4.867139040275056 6.1768855928877e-23 7.980181031943165e-15 7.974674536063671e-15 5.506495879493857e-18
4.940699165968905 6.403571726191124e-23 8.398082223883763e-15 8.392274518853107e-15 5.807705030655206e-18
5.015371051989984 6.638155016651768e-23 8.83730597710869e-15 8.831187588630753e-15 6.118388477938716e-18
5.091171501069577 6.923985124087418e-23 9.357143420092935e-15 9.350698773290736e-15 6.4446468022023846e-18
5.129500256944802 7.070609866488054e-23 9.627230363714108e-15 9.620618986589767e-15 6.611377124340521e-18
5.168117569889187 7.223410548709858e-23 9.909326018464552e-15 9.902544234625663e-15 6.7817838388904425e-18
5.20702561229733 7.410814565513482e-23 1.0242950957683052e-14 1.0235985036177078e-14 6.96592150597624e-18
5.246226572918644 7.602935676500457e-23 1.0587606506025284e-14 1.0580453407901571e-14 7.153098123713172e-18
5.265937586045735 7.700812108691345e-23 1.0764197750269157e-14 1.0756949924406607e-14 7.247825862550508e-18
5.285722656980489 7.799924997669328e-23 1.0943701318878064e-14 1.0936358005860447e-14 7.343313017615165e-18
5.305582063971359 7.90029427940422e-23 1.1126171197571025e-14 1.1118731638201872e-14 7.439559369150414e-18
5.3255160863122235 8.008107137033694e-23 1.1320380084973538e-14 1.1312842932627816e-14 7.537152345722138e-18
5.365609099470188 8.276569488101171e-23 1.1787964751145358e-14 1.1780225541349705e-14 7.739209795656848e-18
5.406003951863644 8.555163021798529e-23 1.2276486242823616e-14 1.2268541623912597e-14 7.944618911021297e-18
5.446702915881641 8.844377735222786e-23 1.2787051181769318e-14 1.277889779775133e-14 8.153384017989206e-18
5.487708281020852 9.156808179668932e-23 1.3338425467688803e-14 1.333005925802846e-14 8.366209660342376e-18
5.529022354014368 9.591097506938237e-23 1.4076221270358222e-14 1.4067632673063233e-14 8.588597294988418e-18
5.570647458961463 1.0050857061852375e-22 1.486203242778722e-14 1.4853217704872178e-14 8.814722915038024e-18
5.612585937458331 1.0537921864508445e-22 1.5699557469451317e-14 1.569051287166522e-14 9.04459778609727e-18
5.654840148729818 1.1073222429200872e-22 1.6621254125549634e-14 1.661197499880786e-14 9.279126741773637e-18
5.67608639626678 1.1437897991402944e-22 1.723314925053874e-14 1.7223747539336207e-14 9.401711202539662e-18
5.686739436050992 1.1625852440165927e-22 1.7549209921996404e-14 1.7539746522277803e-14 9.463399718604784e-18
5.6974124697621304 1.1817670856033558e-22 1.7872239873668285e-14 1.7862714520807623e-14 9.525352860662933e-18
5.718818669136295 1.2213271949393217e-22 1.853991705462169e-14 1.853026700030189e-14 9.65005431979529e-18
5.740305295436557 1.2649349612647024e-22 1.9274033962938424e-14 1.9264257373484642e-14 9.776589453780273e-18
5.7835210386641895 1.3780844303624444e-22 2.115619585485132e-14 2.1146156922964288e-14 1.0038931887032266e-17
5.827062130521658 1.5084096419195654e-22 2.3331270109314344e-14 2.3320962292140373e-14 1.0307817173970892e-17
5.8489554468988025 1.599864387756971e-22 2.4838817559129403e-14 2.4828365317748642e-14 1.0452241380753676e-17
5.870931020387893 1.6979926879142551e-22 2.646136397218595e-14 2.645076588400876e-14 1.0598088177195248e-17
5.892989160043636 1.80333155051114e-22 2.820854308610137e-14 2.8197797721503977e-14 1.0745364597393684e-17
5.915130176081913 1.9231326423065458e-22 3.019555241144657e-14 3.018465454463045e-14 1.0897866816122719e-17
5.95966208400165 2.2581586083630614e-22 3.57228015825409e-14 3.5711561231439265e-14 1.12403511016208e-17
6.004529249263818 2.741061177826841e-22 4.368849924775958e-14 4.36768759264226e-14 1.162332133699117e-17
6.027089341400364 3.076764897282735e-22 4.922337347373916e-14 4.92115314037701e-14 1.184206996906587e-17
6.049734195844842 3.473449970387543e-22 5.5778492764007814e-14 5.576641939212383e-14 1.2073371883981528e-17
6.095279466722835 4.619370038729872e-22 7.473874636616432e-14 7.472611340954274e-14 1.2632956621571734e-17
6.141167624020661 6.382859566406323e-22 1.0404846415913057e-13 1.0403511594821762e-13 1.3348210912961985e-17
6.164241091010745 7.509074360122915e-22 1.228670565444743e-13 1.228532648432136e-13 1.379170126070014e-17
6.187401249150058 8.79186854108424e-22 1.4439724240292107e-13 1.4438299367639153e-13 1.4248726529536706e-17
6.1990139391386085 9.418231713738116e-22 1.5497491863347091e-13 1.5496043700652348e-13 1.4481626947429606e-17
6.204828454712694 9.748165183579477e-22 1.6055435559860095e-13 1.6053975616441612e-13 1.4599434184837803e-17
6.210648424152782 9.989014455378687e-22 1.6467551102025254e-13 1.6466080988989435e-13 1.4701130358149905e-17
6.233982942956859 1.0807242158573177e-21 1.788339320450946e-13 1.788188706484535e-13 1.5061396641033284e-17
6.239830258556775 1.0911813843706701e-21 1.8073370728264775e-13 1.8071859164728788e-13 1.511563535993002e-17
6.245683058788269 1.0920846210289044e-21 1.8105297536710135e-13 1.8103780534141197e-13 1.5170025689405393e-17
6.257405133728602 1.08982860896727e-21 1.810180622305594e-13 1.8100279449097716e-13 1.5267739582270306e-17
6.269149208991335 1.0737259276631916e-21 1.7867816338507253e-13 1.786628476842286e-13 1.531570084386243e-17
6.280915325867298 1.0333566575976907e-21 1.72283074546136e-13 1.7226777260780744e-13 1.5301938328540118e-17
6.304513850009849 9.338083992506186e-22 1.562711514301454e-13 1.562559330651217e-13 1.521836502377309e-17
6.32820103803542 8.104260029194718e-22 1.361328910806198e-13 1.361178159306522e-13 1.5075149967577325e-17
6.3519772230701035 6.972770015703616e-22 1.175665316508968e-13 1.1755158081654513e-13 1.495083435164643e-17
6.375842739491607 6.020818328549484e-22 1.0189727094996744e-13 1.0188242522257648e-13 1.4845727390968816e-17
6.399797922933955 5.2579205927530295e-22 8.932020622191626e-14 8.930539390120838e-14 1.4812320707873e-17
6.42384311029221 4.6236000625328815e-22 7.883963765358761e-14 7.882484444953154e-14 1.4793204056054404e-17
6.447978639727206 4.1613744052407615e-22 7.122456653497517e-14 7.120973599108068e-14 1.4830543894493282e-17
6.472204850670314 3.7762971237215183e-22 6.487656471584401e-14 6.486168531796029e-14 1.4879397883723116e-17
6.496522083828205 3.5260316169455023e-22 6.080461658970654e-14 6.078964209337309e-14 1.497449633345593e-17
