Dust emission spectrum from A.P. Jones, M. Kohler, N. Ysard, M. Bocchio, and L. Verstraete (2017), A&A, 602A, 46J 
inside the DustPedia framework.

lambda    nu*dP/dnu     j_nu    j_nu(carb.) j_nu(sil)
 (um)   (erg s-1 H-1) (Jy cm2 sr-1 H-1)
0.9927057738263894 2.4416978509395613e-22 6.4340125228949966e-15 6.434012522894945e-15 5.162362592973386e-29
1.0001793341362166 2.4820445575721695e-22 6.589567083353031e-15 6.589567083352969e-15 6.220529580826141e-29
1.0077091589558085 2.5223339385082096e-22 6.7469458149608935e-15 6.746945814960819e-15 7.486106749657502e-29
1.0114953028030835 2.542452170209898e-22 6.8263113847614035e-15 6.826311384761321e-15 8.208489816634993e-29
1.0152956718711033 2.562550132206357e-22 6.906123466079546e-15 6.9061234660794564e-15 8.997712602766532e-29
1.0229392996569957 2.6026576798252316e-22 7.067020436404281e-15 7.067020436404172e-15 1.0800884154287733e-28
1.0267826658714554 2.6226186324739224e-22 7.14797629707859e-15 7.147976297078472e-15 1.1828500973984059e-28
1.0306404723013447 2.6425504903859295e-22 7.229361132278192e-15 7.229361132278062e-15 1.2949743063293515e-28
1.03451277320114 2.662451330149172e-22 7.311171441862709e-15 7.311171441862565e-15 1.4172730126864385e-28
1.0383996230291617 2.682319239007799e-22 7.39340368189461e-15 7.393403681894454e-15 1.5506247652177723e-28
1.0403485208654093 2.6922402496159235e-22 7.434676906578341e-15 7.434676906578179e-15 1.62173953781432e-28
1.0423010764483396 2.702152315228996e-22 7.476054265477522e-15 7.476054265477352e-15 1.6959798106415954e-28
1.0462171883269815 2.721948668461714e-22 7.55911956359563e-15 7.559119563595447e-15 1.8543655787307873e-28
1.0471985131304309 2.726891798389597e-22 7.579950258053574e-15 7.579950258053385e-15 1.8961262933674873e-28
1.048180758391296 2.7318324864213405e-22 7.600806585227644e-15 7.600806585227449e-15 1.938788597574674e-28
1.0501480137395462 2.741706420087261e-22 7.642595905953744e-15 7.642595905953543e-15 2.0268925566585792e-28
1.0521189612883777 2.751570236521519e-22 7.68448706067506e-15 7.684487060674847e-15 2.1188302762851373e-28
1.0531058218030118 2.756490706572669e-22 7.705449514171228e-15 7.705449514171012e-15 2.166289217686889e-28
1.0540936079674168 2.7613837532674317e-22 7.726367800661859e-15 7.726367800661636e-15 2.214776912957546e-28
1.058054026499678 2.7809281741070846e-22 7.810288014741826e-15 7.810288014741585e-15 2.419341506868383e-28
1.0590464539527713 2.78580719489321e-22 7.831329536605388e-15 7.831329536605142e-15 2.4732454772181277e-28
1.06003981227728 2.7906833249162897e-22 7.852395525824313e-15 7.852395525824061e-15 2.528299809949286e-28
1.0620293250338977 2.800426799106872e-22 7.894600665215956e-15 7.894600665215691e-15 2.6419535382469957e-28
1.0660195594769086 2.8198778120836557e-22 7.979301892097863e-15 7.979301892097575e-15 2.8841247137482337e-28
1.070024785945596 2.8392794105679963e-22 8.064387799366868e-15 8.064387799366552e-15 3.147486124037134e-28
1.0740450607676866 2.8586298061005957e-22 8.149854455811391e-15 8.149854455811047e-15 3.4337970564970946e-28
1.07808044048254 2.87792722452062e-22 8.235697895870884e-15 8.235697895870513e-15 3.744954409194831e-28
1.0861967418109137 2.9163220109494704e-22 8.408400792749625e-15 8.40840079274918e-15 4.45014563781633e-28
1.0902777775684922 2.93533837044491e-22 8.495027027510373e-15 8.495027027509887e-15 4.848756882660106e-28
1.0943741465085532 2.9542934486636565e-22 8.582007488880193e-15 8.582007488879666e-15 5.28139007242003e-28
1.1026131145906286 2.99201302224608e-22 8.75701444632818e-15 8.757014446327556e-15 6.259931146218879e-28
1.1109141095355224 3.029467416367146e-22 8.933388094775401e-15 8.933388094774661e-15 7.410365917751459e-28
1.1192775983109025 3.066608813695152e-22 9.11099113955443e-15 9.110991139553555e-15 8.761132072323363e-28
1.1277040513999907 3.103264731678352e-22 9.28930878517029e-15 9.289308785169255e-15 1.0345063969582493e-27
1.1361939428280308 3.139612182262183e-22 9.468864640958544e-15 9.46886464095732e-15 1.2200015739025854e-27
1.1447477501889525 3.1756390411843694e-22 9.649623398773582e-15 9.649623398772144e-15 1.4369576860884106e-27
1.1533659546722406 3.2113530941617576e-22 9.83160949593557e-15 9.83160949593388e-15 1.6903897889347735e-27
1.1707974979042381 3.281958066945364e-22 1.0199625980976939e-14 1.0199625980974609e-14 2.3305869723339677e-27
1.1884924949847024 3.351159690374434e-22 1.0572093614944625e-14 1.0572093614941434e-14 3.1974838941795246e-27
1.2064549276569216 3.4194988843564346e-22 1.0950728231132388e-14 1.0950728231128022e-14 4.3656127582610466e-27
1.2246888378427687 3.486229431598854e-22 1.1333163588045898e-14 1.1333163588039965e-14 5.931841492106169e-27
1.2431983285522175 3.5511951768499706e-22 1.1718833739856673e-14 1.1718833739848654e-14 8.021643383499886e-27
1.2619875648066055 3.6143717476889135e-22 1.2107579446575623e-14 1.2107579446564828e-14 1.0796713060895633e-26
1.3004222497298317 3.734307186713191e-22 1.2890324933782197e-14 1.2890324933762908e-14 1.9288469222058802e-26
1.3400274889804893 3.8455657838885566e-22 1.3678654668749918e-14 1.367865466871608e-14 3.3838116546969106e-26
1.3808389325824078 3.947734297969729e-22 1.4469728130015876e-14 1.4469728129957553e-14 5.83197742007294e-26
1.4228933163050095 4.0413087929592743e-22 1.526384011359878e-14 1.5263840113499984e-14 9.879592449946596e-26
1.466228494730424 4.1285390886464264e-22 1.6068209637173365e-14 1.606820963700878e-14 1.645856558993189e-25
1.5108834753276823 4.207729548549715e-22 1.6875172547528218e-14 1.6875172547258465e-14 2.697530137449674e-25
1.5568984535646726 4.277507890366694e-22 1.7677487533262672e-14 1.767748753282725e-14 4.354228372727448e-25
1.6043148490894465 4.338000518874127e-22 1.847347664656063e-14 1.847347664586718e-14 6.93450079095836e-25
1.6531753430134553 4.389390246722137e-22 1.9261608284360005e-14 1.9261608283271598e-14 1.0884099698710868e-24
1.7035239163302658 4.432286157104075e-22 2.004220314331716e-14 2.0042203141633112e-14 1.6840389646746307e-24
1.755405889504358 4.470212051761852e-22 2.082932082340224e-14 2.0829320820832343e-14 2.5698963687245002e-24
1.8088679632656115 4.502296880363457e-22 2.161774695846607e-14 2.1617746954596693e-14 3.869385989128714e-24
1.8639582606462262 4.527950358749463e-22 2.2403056439586356e-14 2.2403056433835806e-14 5.750551784957559e-24
1.9207263702978936 4.547599214774477e-22 2.3185534641744985e-14 2.3185534633306032e-14 8.438960223387855e-24
1.979223391128241 4.562237766020489e-22 2.3968572158217644e-14 2.3968572145984008e-14 1.2233639191591874e-23
2.039501978296691 4.573056198328703e-22 2.4757118899325797e-14 2.4757118881800147e-14 1.75256538818173e-23
2.1016163906111602 4.583389520191309e-22 2.556875886008826e-14 2.556875883526637e-14 2.4821887275512788e-23
2.1656225393682647 4.5951713471119825e-22 2.64152001736244e-14 2.641520013885482e-14 3.4769588952342973e-23
2.231578038680979 4.608539651923639e-22 2.7298880685020576e-14 2.7298880636834895e-14 4.818568358509163e-23
2.299542257339062 4.62465204023541e-22 2.822863574287285e-14 2.8228635676782267e-14 6.60905864439497e-23
2.369576372248914 4.646068845240175e-22 2.9223066384967426e-14 2.922306629521959e-14 8.974783014527282e-23
2.4417434235010123 4.675813431991381e-22 3.030586148529092e-14 3.0305861364586355e-14 1.2070458274345135e-22
2.5161083711144245 4.719063918331843e-22 3.151770856884785e-14 3.1517708408004045e-14 1.6084380335585642e-22
2.5927381535095444 4.784294247005558e-22 3.2926530700021e-14 3.2926530487583526e-14 2.124374686177177e-22
2.6717017477616296 4.88162136900538e-22 3.461955642389705e-14 3.461955614570314e-14 2.781939090093834e-22
2.753070231689431 5.026277557122546e-22 3.673103709539148e-14 3.6731036734068004e-14 3.6132346820983613e-22
2.836916847834745 5.252773761275121e-22 3.955530481286276e-14 3.955530434723599e-14 4.656267954964865e-22
2.9233170693905177 5.637118701059352e-22 4.3742392720036713e-14 4.374239212454554e-14 5.954911802451564e-22
2.967498994190263 5.963527379560453e-22 4.6974615177781653e-14 4.697461450714915e-14 6.706324988344647e-22
3.0123486681368425 6.344734901791665e-22 5.0732720591205985e-14 5.0732719836816294e-14 7.543896901003898e-22
3.0578761833420214 7.197730795436694e-22 5.842314458644372e-14 5.842314373856007e-14 8.478836315241212e-22
3.1040917844459814 8.296907160134969e-22 6.836285913769309e-14 6.836285818622732e-14 9.514657760115601e-22
3.127460860933648 9.459713267433708e-22 7.853066754224929e-14 7.853066653454702e-14 1.0077022875745466e-21
3.1510058709225794 1.1008991979552251e-21 9.208018872107274e-14 9.208018765416813e-14 1.0669046172267707e-21
3.162844764501044 1.245114997236773e-21 1.045338086554504e-13 1.0453380755763001e-13 1.0978203754839525e-21
3.1747281389236908 1.412825647160063e-21 1.1905963436327726e-13 1.1905963323374914e-13 1.1295281213123953e-21
3.1986289994194426 1.8806181809980465e-21 1.5967390028427363e-13 1.5967389908866633e-13 1.1956073445059949e-21
3.2227097969389145 2.983324508324027e-21 2.55206145533586e-13 2.5520614426679323e-13 1.2667928059689323e-21
3.2348180950136065 4.029036405917058e-21 3.45955698429658e-13 3.459556971242814e-13 1.3053764506916415e-21
3.240889293275058 4.8108427225207096e-21 4.1386127194751905e-13 4.138612706215451e-13 1.325973975226093e-21
3.2469718861334385 5.71527260928523e-21 4.925892295051743e-13 4.925892281577144e-13 1.3474599025809847e-21
3.2714166318528037 1.0539659857796103e-20 9.152334527060672e-13 9.152334512685462e-13 1.4375207985028239e-21
3.2744851364798273 1.0841248688469771e-20 9.423055810155308e-13 9.423055795674071e-13 1.4481239836047423e-21
3.2775565192852394 1.1151500012551059e-20 9.701813275945764e-13 9.701813261357743e-13 1.4588019588409616e-21
3.283707930232385 1.085313915644221e-20 9.45996057191224e-13 9.459960557137407e-13 1.4774833757793497e-21
3.2898708863219004 9.906938444330426e-21 8.65142708084552e-13 8.651427065904337e-13 1.494118339691102e-21
3.29141343181113 9.683800625280643e-21 8.460532723301582e-13 8.460532708318575e-13 1.4983005685230874e-21
3.292184975758714 9.57415859326799e-21 8.366701576693429e-13 8.366701561689475e-13 1.5003952165852332e-21
3.295272960557952 8.882087000370311e-21 7.769191933797938e-13 7.769191918713514e-13 1.5084421518946017e-21
3.3076538914384823 6.484535765793425e-21 5.693356545377963e-13 5.693356529970116e-13 1.5407848911032774e-21
3.310756385682612 5.9965722297164786e-21 5.269867884882984e-13 5.269867869393405e-13 1.5489578564026626e-21
3.313861789986515 5.546349663437125e-21 4.87877815158455e-13 4.878778136012891e-13 1.5571659470934522e-21
3.3200813396944477 4.914962466260408e-21 4.3315004358378194e-13 4.331500420086598e-13 1.5751221654640466e-21
3.345076488085796 3.788624542229692e-21 3.3640082641460686e-13 3.364008247574738e-13 1.6571330584412486e-21
3.3482140837626964 3.830860009748882e-21 3.4047006516947304e-13 3.404700635009958e-13 1.6684772509979305e-21
3.3513546224236106 3.873562437553374e-21 3.445881819557456e-13 3.4458818027585433e-13 1.679891312207574e-21
3.3576445397418455 4.185645242390077e-21 3.730495898847709e-13 3.7304958818072065e-13 1.7040502404410617e-21
3.3702598118196083 5.336741482400784e-21 4.774292033717946e-13 4.77429201616364e-13 1.7554307246232017e-21
3.382922481734668 5.598914424857155e-21 5.027653152493086e-13 5.027653134443455e-13 1.8049631098417475e-21
3.389271646505754 5.7347382667971734e-21 5.159283740452061e-13 5.159283722149992e-13 1.8302069117707843e-21
3.395632727569191 5.881095353066879e-21 5.300884781828282e-13 5.300884763264916e-13 1.8563365800054497e-21
3.421196662673239 6.583848567514515e-21 5.978982827197516e-13 5.978982807542112e-13 1.9655404691435156e-21
3.4276182099114902 6.442226842416861e-21 5.861353134697877e-13 5.861353114799451e-13 1.989842589901366e-21
3.4340518103208963 5.821644872534967e-21 5.306668828921505e-13 5.306668808794829e-13 2.0126676056679044e-21
3.4469541582030403 4.937820367743511e-21 4.517937591125206e-13 4.51793757056189e-13 2.0563316654950648e-21
3.472904465399547 4.690115050234213e-21 4.323602566388358e-13 4.3236025447863753e-13 2.160198257963951e-21
3.4990501388274233 4.3112630799546215e-21 4.0042771020515646e-13 4.004277079374611e-13 2.2676952084401367e-21
3.5253949054701885 2.963025955823413e-21 2.772762434073626e-13 2.7727624103558133e-13 2.37178127683077e-21
3.5519380250092896 1.695832371421389e-21 1.5988868611988006e-13 1.5988868364262993e-13 2.4772501550574268e-21
3.578680990867387 1.1933653271826265e-21 1.1336156552695566e-13 1.1336156293092373e-13 2.5960319300440598e-21
3.605625307711299 9.90109657043364e-22 9.476180464588962e-14 9.476180192219097e-14 2.723698653154948e-21
3.660119384959845 8.417900921913977e-22 8.178402757625514e-14 8.178402457722665e-14 2.9990284944292066e-21
3.715437065384467 7.3672832038920945e-22 7.265854673439439e-14 7.26585434357729e-14 3.298621508737492e-21
3.8285932144167436 6.832759727341861e-22 6.943921578133284e-14 6.943921180268378e-14 3.9786490577110906e-21
3.94519561050918 6.728559449647109e-22 7.046282780345361e-14 7.046282302460508e-14 4.778848510725806e-21
4.06534921144712 6.801023758566531e-22 7.339079332337099e-14 7.33907876034846e-14 5.719886380855843e-21
4.189162171576248 6.975756570761914e-22 7.756895184736886e-14 7.756894501823753e-14 6.829131324167683e-21
4.316745939156006 7.225016018546027e-22 8.278749398158153e-14 8.278748584540176e-14 8.136179774547193e-21
4.448215356677963 7.539462369778334e-22 8.90216451821227e-14 8.902163551344491e-14 9.668677764054328e-21
4.58368876423945 7.920173401254629e-22 9.636498187938613e-14 9.63649704042968e-14 1.1475089328617445e-20
4.723288106065518 8.375928740988773e-22 1.0501391362970107e-13 1.0501390000960784e-13 1.362009322601323e-20
4.867139040275056 8.924349335331996e-22 1.152974621551256e-13 1.1529744600673409e-13 1.6148391552327147e-20
4.940699165968905 9.255485887704229e-22 1.2138277641057844e-13 1.213827588237646e-13 1.7586813870932746e-20
5.015371051989984 9.598360479286668e-22 1.2778196384577394e-13 1.277819446915068e-13 1.9154267136442082e-20
5.091171501069577 1.0017170274018987e-21 1.353730506892751e-13 1.353730298071261e-13 2.08821490488074e-20
5.129500256944802 1.023209941529099e-21 1.3931864441045553e-13 1.3931862260648193e-13 2.180397362125668e-20
5.168117569889187 1.0456192525192206e-21 1.4344168858361196e-13 1.4344166581355307e-13 2.277005892825536e-20
5.20702561229733 1.0731527239517626e-21 1.4832715923961659e-13 1.4832713543139274e-13 2.3808223846683563e-20
5.246226572918644 1.1013883671500707e-21 1.5337584240967968e-13 1.5337581751589354e-13 2.48937861340745e-20
5.265937586045735 1.1157765182215272e-21 1.5596327916750505e-13 1.5596325371247553e-13 2.5455029523407445e-20
5.285722656980489 1.1303487529155452e-21 1.585938216299558e-13 1.58593795600995e-13 2.6028960783638503e-20
5.305582063971359 1.145108048371208e-21 1.6126827350101324e-13 1.6126824688514046e-13 2.6615872835672985e-20
5.3255160863122235 1.1609700560422568e-21 1.641164644375571e-13 1.6411643721898498e-13 2.721857207985969e-20
5.365609099470188 1.200518502489542e-21 1.709847275587998e-13 1.7098469907358216e-13 2.848521765195444e-20
5.406003951863644 1.2415744600921428e-21 1.7816342879645125e-13 1.7816339898520768e-13 2.981124355749016e-20
5.446702915881641 1.284210948794426e-21 1.856690388180172e-13 1.856690076185395e-13 3.119947769626361e-20
5.487708281020852 1.3302921199126237e-21 1.9377933820985433e-13 1.9377930555211948e-13 3.265773488162492e-20
5.529022354014368 1.3944192204636115e-21 2.0464971268081826e-13 2.04649678452174e-13 3.422864425122268e-20
5.570647458961463 1.462334558152139e-21 2.1623293903978314e-13 2.1623290316329321e-13 3.587648990851117e-20
5.612585937458331 1.5343113031758511e-21 2.2858404901791925e-13 2.2858401141283675e-13 3.760508247129139e-20
5.654840148729818 1.6134488319423732e-21 2.421837294947282e-13 2.421836900677442e-13 3.942698404017253e-20
5.67608639626678 1.6673883184843468e-21 2.5122056318952253e-13 2.512205227802585e-13 4.0409264021058954e-20
5.686739436050992 1.6951931812450828e-21 2.558892016659922e-13 2.558891607561596e-13 4.090983255690897e-20
5.6974124697621304 1.723572574750505e-21 2.6066136780150657e-13 2.606613263847115e-13 4.1416795128613724e-20
5.718818669136295 1.7821103598346985e-21 2.7052683662840104e-13 2.7052679417816757e-13 4.2450233406773316e-20
5.740305295436557 1.84664967345071e-21 2.813772218624765e-13 2.813771783405437e-13 4.352193280781637e-20
5.7835210386641895 2.0141573484946594e-21 3.092111514244005e-13 3.0921110557957333e-13 4.584482713469613e-20
5.827062130521658 2.2071670749232704e-21 3.41392747502512e-13 3.413926991780583e-13 4.8324453580244194e-20
5.8489554468988025 2.3426220089264937e-21 3.6370558114182796e-13 3.637055314081907e-13 4.9733637214982815e-20
5.870931020387893 2.4879946210195848e-21 3.8772682412731707e-13 3.877267729397708e-13 5.118754636265304e-20
5.892989160043636 2.6440835602119427e-21 4.1359973439354585e-13 4.135996817058944e-13 5.2687651421491527e-20
5.915130176081913 2.8216249340312892e-21 4.430298862734679e-13 4.43029831993039e-13 5.428042886951796e-20
5.95966208400165 3.3181531870610883e-21 5.249132079689656e-13 5.24913149924511e-13 5.80444545051759e-20
6.004529249263818 4.033977729288622e-21 6.42956948269318e-13 6.429568856368957e-13 6.263242266004722e-20
6.027089341400364 4.531632007525317e-21 7.249894684802463e-13 7.249894030174484e-13 6.54627979611387e-20
6.049734195844842 5.119773791690883e-21 8.221602954636035e-13 8.221602268766861e-13 6.858691750675067e-20
6.095279466722835 6.818831417765157e-21 1.1032476453999541e-12 1.1032475685966131e-12 7.68033409483782e-20
6.141167624020661 9.433872384581613e-21 1.5378372694506895e-12 1.5378371810648075e-12 8.838588273298263e-20
6.164241091010745 1.1103864866958901e-20 1.816867335494742e-12 1.8168672395958177e-12 9.589892402343433e-20
6.187401249150058 1.3006335082415687e-20 2.1361544601047726e-12 2.1361543560030836e-12 1.0410168855673552e-19
6.1990139391386085 1.3935268556285436e-20 2.29301760275841e-12 2.2930174944378086e-12 1.0832060105578651e-19
6.204828454712694 1.442460579908526e-20 2.375763279778131e-12 2.375763169272818e-12 1.105053131937699e-19
6.210648424152782 1.4781803708902775e-20 2.4368781229002106e-12 2.436878010560506e-12 1.1233970450010962e-19
6.233982942956859 1.599535242229395e-20 2.6468471106263367e-12 2.6468469917460603e-12 1.1888027616656287e-19
6.239830258556775 1.615047082433713e-20 2.6750222357634524e-12 2.675022115944967e-12 1.1981848513565023e-19
6.245683058788269 1.616389543932705e-20 2.6797569588111854e-12 2.6797568380470197e-12 1.207641659888644e-19
6.257405133728602 1.6130495067906344e-20 2.6792386766015746e-12 2.6792385541633173e-12 1.2243825696378778e-19
6.269149208991335 1.589173298984202e-20 2.6445348766148454e-12 2.644534753526852e-12 1.2308799361185057e-19
6.280915325867298 1.529307401924549e-20 2.549688717758288e-12 2.549688595295064e-12 1.224632243756614e-19
6.304513850009849 1.3816790708897895e-20 2.312215005649489e-12 2.3122148856191887e-12 1.2003030024071776e-19
6.32820103803542 1.1986928556229103e-20 2.0135277417776205e-12 2.0135276256303093e-12 1.1614731143050933e-19
6.3519772230701035 1.0308804627267339e-20 1.738147684155675e-12 1.738147571639608e-12 1.1251606671921267e-19
6.375842739491607 8.897054638921038e-21 1.5057514406305195e-12 1.505751331269854e-12 1.0936066463135182e-19
6.399797922933955 7.765518065394158e-21 1.3191862881631055e-12 1.3191861807568893e-12 1.0740621617994968e-19
6.42384311029221 6.824769110797958e-21 1.1637302458853876e-12 1.163730140073854e-12 1.0581153337415517e-19
6.447978639727206 6.13917331078826e-21 1.0507585123638591e-12 1.050758407052731e-12 1.0531112815749874e-19
6.472204850670314 5.568045512253474e-21 9.565869770874431e-13 9.565868720082999e-13 1.05079143273816e-19
6.496522083828205 5.196805429051193e-21 8.96162587102653e-13 8.961624813072757e-13 1.0579537743405657e-19
