Dust emission spectrum from A.P. Jones, M. Kohler, N. Ysard, M. Bocchio, and L. Verstraete (2017), A&A, 602A, 46J 
inside the DustPedia framework.

lambda    nu*dP/dnu     j_nu    j_nu(carb.) j_nu(sil)
 (um)   (erg s-1 H-1) (Jy cm2 sr-1 H-1)
0.9927057738263894 1.2101706525848455e-24 3.188868405881902e-17 3.188868308235255e-17 9.764664653244736e-25
1.0001793341362166 1.2305169836878969e-24 3.2668930887961524e-17 3.266892971245955e-17 1.1755019729177309e-24
1.0077091589558085 1.2509138641415614e-24 3.3460470605006685e-17 3.346046919176427e-17 1.41324240880424e-24
1.0114953028030835 1.2611298498874227e-24 3.386047986593285e-17 3.386047831712289e-17 1.5488099567014515e-24
1.0152956718711033 1.2713567932759826e-24 3.4263317909192267e-17 3.4263316212371435e-17 1.6968208310020025e-24
1.0229392996569957 1.2918314295613053e-24 3.5077218121563115e-17 3.507721608692948e-17 2.034633622817376e-24
1.0267826658714554 1.3020554939616226e-24 3.548766752846281e-17 3.5487665301508443e-17 2.2269543630360255e-24
1.0306404723013447 1.3122878517601946e-24 3.590093292215761e-17 3.590093048550999e-17 2.4366476144728955e-24
1.03451277320114 1.3225279862090201e-24 3.631701633131388e-17 3.631701366610996e-17 2.6652039198364574e-24
1.0383996230291617 1.3327753886678922e-24 3.673591988014319e-17 3.6735916965908733e-17 2.914234438446075e-24
1.0403485208654093 1.3379016587256522e-24 3.6946429899112785e-17 3.6946426852146555e-17 3.046966229064343e-24
1.0423010764483396 1.3430295588385149e-24 3.7157645797498946e-17 3.715764261201888e-17 3.185480072304566e-24
1.0462171883269815 1.3532900049969824e-24 3.7582196426107975e-17 3.758219294528674e-17 3.48082123048735e-24
1.0471985131304309 1.355856040370907e-24 3.768877573053088e-17 3.768877217187495e-17 3.558655927306696e-24
1.048180758391296 1.3584224303093232e-24 3.7795531772673865e-17 3.7795528134517906e-17 3.638155960930356e-24
1.0501480137395462 1.3635562442245367e-24 3.8009574231935567e-17 3.8009570429647296e-17 3.8022882724650445e-24
1.0521189612883777 1.3686913877911512e-24 3.8224324132953075e-17 3.822432015945587e-17 3.9734972214240344e-24
1.0531058218030118 1.371255895528738e-24 3.8331865399771086e-17 3.833186133791965e-17 4.061851445325308e-24
1.0540936079674168 1.3738091014705953e-24 3.84392585539726e-17 3.843925440186833e-17 4.152104259538833e-24
1.058054026499678 1.3840244104074159e-24 3.8870580568611684e-17 3.8870576035925964e-17 4.532685711843378e-24
1.0590464539527713 1.3865788236801754e-24 3.89788486318213e-17 3.897884399889831e-17 4.632922982733608e-24
1.06003981227728 1.3891334574005313e-24 3.908729180510653e-17 3.90872870698271e-17 4.7352794319732646e-24
1.0620293250338977 1.3942433585571298e-24 3.930470365962952e-17 3.930469871310851e-17 4.946520999572372e-24
1.0660195594769086 1.4044655045350852e-24 3.974163068236704e-17 3.974162528600426e-17 5.396362780181288e-24
1.070024785945596 1.4146904170213409e-24 4.018136466754371e-17 4.018135878236573e-17 5.885177986238036e-24
1.0740450607676866 1.4249176749779843e-24 4.062390883142941e-17 4.062390241526604e-17 6.416163365681877e-24
1.07808044048254 1.4351468678642528e-24 4.1069266586142036e-17 4.106925959337997e-17 6.992762059092734e-24
1.0861967418109137 1.4555931823266407e-24 4.1967967948133203e-17 4.1967959650221076e-17 8.297912131546754e-24
1.0902777775684922 1.4657724987711203e-24 4.242024401212307e-17 4.2420234977373764e-17 9.034749293239183e-24
1.0943741465085532 1.4759515686914417e-24 4.287531904274451e-17 4.2875309208936287e-17 9.833808223714817e-24
1.1026131145906286 1.496307574925694e-24 4.379388375769212e-17 4.379387211887064e-17 1.1638821485790794e-23
1.1109141095355224 1.5166585326567275e-24 4.472370029885519e-17 4.4723686541572954e-17 1.3757282239144304e-23
1.1192775983109025 1.5369852747135006e-24 4.566431543861206e-17 4.566429919828385e-17 1.624032820527722e-23
1.1277040513999907 1.5572087943922841e-24 4.661346866875035e-17 4.6613449521881965e-17 1.914686837278436e-23
1.1361939428280308 1.5774179827855482e-24 4.7573892869940836e-17 4.7573870325272615e-17 2.254466822134946e-23
1.1447477501889525 1.5976110195344629e-24 4.854564538445992e-17 4.854561887288117e-17 2.651157875514293e-23
1.1533659546722406 1.6177944907297434e-24 4.952904028662264e-17 4.952900914966186e-17 3.1136960784292916e-23
1.1707974979042381 1.6581945480121602e-24 5.153315139446813e-17 5.153310860665949e-17 4.27878086148813e-23
1.1884924949847024 1.698537551759698e-24 5.358472786981985e-17 5.3584669365151014e-17 5.85046688476444e-23
1.2064549276569216 1.7391061057595207e-24 5.569376968186889e-17 5.569369008085432e-17 7.960101456395672e-23
1.2246888378427687 1.7795927713184014e-24 5.78516600618731e-17 5.785155228640084e-17 1.077754722590887e-22
1.2431983285522175 1.819949692004554e-24 6.005777433619718e-17 6.005762911913196e-17 1.4521706520587737e-22
1.2619875648066055 1.860218095466764e-24 6.2314393623796e-17 6.231419889139284e-17 1.947324031661342e-22
1.3004222497298317 1.94014679913505e-24 6.697125171992194e-17 6.697090646668582e-17 3.4525323610912857e-22
1.3400274889804893 2.0195049314806927e-24 7.183367054932793e-17 7.18330696207034e-17 6.00928624541875e-22
1.3808389325824078 2.0984792593827577e-24 7.691607914281774e-17 7.691505184501419e-17 1.0272978035628488e-21
1.4228933163050095 2.1777078374604253e-24 8.225103783961667e-17 8.224931211124913e-17 1.725728367553028e-21
1.466228494730424 2.258704287805267e-24 8.790841802768649e-17 8.79055678771575e-17 2.8501505289950447e-21
1.5108834753276823 2.3411414737710777e-24 9.389188604500124e-17 9.388725612568466e-17 4.629919316590107e-21
1.5568984535646726 2.4248350204316627e-24 1.0021019701783604e-16 1.0020279167456412e-16 7.4053432719309e-21
1.6043148490894465 2.5103331518202085e-24 1.0690312426996546e-16 1.0689144032671897e-16 1.1683943246519051e-20
1.6531753430134553 2.5982420778398297e-24 1.1401656794737148e-16 1.1399840457407873e-16 1.8163373292740865e-20
1.7035239163302658 2.689338735925092e-24 1.216082882649872e-16 1.2158046112364431e-16 2.782714134290102e-20
1.755405889504358 2.7858692542664596e-24 1.2980986986131427e-16 1.297678337684347e-16 4.203609287955394e-20
1.8088679632656115 2.88791639461766e-24 1.3866310355573531e-16 1.3860046945665828e-16 6.263409907704236e-20
1.8639582606462262 2.9955966514884915e-24 1.482139059317498e-16 1.481218173452834e-16 9.208858646642291e-20
1.9207263702978936 3.1095382494731537e-24 1.585370728554105e-16 1.5840342255627023e-16 1.336502991402094e-19
1.979223391128241 3.2306334216915362e-24 1.6972738874174538e-16 1.6953584419597452e-16 1.9154454577086094e-19
2.039501978296691 3.3597785024415444e-24 1.8188806840104655e-16 1.81616887519421e-16 2.71180881625519e-19
2.1016163906111602 3.499035618043033e-24 1.9519614810496818e-16 1.9481673192079057e-16 3.7941618417761453e-19
2.1656225393682647 3.649670374206236e-24 2.0980017113615373e-16 2.0927537783630969e-16 5.247932998440874e-19
2.231578038680979 3.811804254498071e-24 2.2579384663591225e-16 2.250760355137402e-16 7.178111221720009e-19
2.299542257339062 3.986167091591672e-24 2.4331356793935214e-16 2.4234235827394924e-16 9.712096654028937e-19
2.369576372248914 4.174029384011537e-24 2.6254009969468786e-16 2.6123982340631644e-16 1.3002762883713469e-18
2.4417434235010123 4.3768394572287165e-24 2.836808873223963e-16 2.8195780005288884e-16 1.7230872695074788e-18
2.5161083711144245 4.5970211459196086e-24 3.0702608667598217e-16 3.0476526456980223e-16 2.2608221061799125e-18
2.5927381535095444 4.838321941162727e-24 3.329836078372264e-16 3.3004563695879385e-16 2.9379708784325316e-18
2.6717017477616296 5.104451996133705e-24 3.619983004319523e-16 3.582159624811182e-16 3.78233795083396e-18
2.753070231689431 5.4007001539262374e-24 3.946724299254899e-16 3.89847300916003e-16 4.825129009486802e-18
2.836916847834745 5.739682871208125e-24 4.3221908237047606e-16 4.2611793733764344e-16 6.101145032832698e-18
2.9233170693905177 6.148577846142981e-24 4.771116612555291e-16 4.694644552320679e-16 7.647206023461118e-18
2.967498994190263 6.4049331870300206e-24 5.04515620623031e-16 4.95997525419219e-16 8.518095203811965e-18
3.0123486681368425 6.683475039965317e-24 5.34412984985568e-16 5.249373678259053e-16 9.475617159662581e-18
3.0578761833420214 7.138832396724232e-24 5.794507312730138e-16 5.689208088286981e-16 1.0529922444315477e-17
3.1040917844459814 7.679037445596311e-24 6.32718849415005e-16 6.210402228844282e-16 1.1678626530576654e-17
3.127460860933648 8.172750920348114e-24 6.784683290993495e-16 6.661741091647766e-16 1.2294219934573054e-17
3.1510058709225794 8.801399276129732e-24 7.361568687313188e-16 7.232205784504856e-16 1.2936290280833049e-17
3.162844764501044 9.361492689579963e-24 7.859454650483653e-16 7.726767477832102e-16 1.3268717265155074e-17
3.1747281389236908 9.999099515709078e-24 8.426298989513401e-16 8.290218876274528e-16 1.3608011323887405e-17
3.1986289994194426 1.1731419557127424e-23 9.960562625017437e-16 9.8174694420948e-16 1.430931829226385e-17
3.2227097969389145 1.5720082094264907e-23 1.3447620423306462e-15 1.3297091760994242e-15 1.5052866231221697e-17
3.2348180950136065 1.94606401650088e-23 1.670999882325826e-15 1.6555501105160521e-15 1.5449771809773774e-17
3.240889293275058 2.2251245454597213e-23 1.914202828362451e-15 1.8985436973457394e-15 1.5659131016711006e-17
3.2469718861334385 2.5482179471049354e-23 2.1962639422245507e-15 2.180388183465006e-15 1.5875758759544568e-17
3.2714166318528037 4.25273487869727e-23 3.692951460472945e-15 3.676180140681606e-15 1.677131979133959e-17
3.2744851364798273 4.359666377088581e-23 3.789358658348598e-15 3.772481697986246e-15 1.687696036235161e-17
3.2775565192852394 4.4695254621753926e-23 3.888490464718305e-15 3.871507326447583e-15 1.698313827072157e-17
3.283707930232385 4.3660488045375e-23 3.805594763930847e-15 3.788421539755193e-15 1.7173224175654657e-17
3.2898708863219004 4.034260028414363e-23 3.5229961967685916e-15 3.505649794343905e-15 1.734640242468772e-17
3.29141343181113 3.955915350430175e-23 3.4561999537196764e-15 3.4388100604083376e-15 1.738989331133906e-17
3.292184975758714 3.917404526513332e-23 3.42335614239471e-15 3.405944474150712e-15 1.741166824399791e-17
3.295272960557952 3.6758440436172024e-23 3.2152733802741758e-15 3.197776975929474e-15 1.7496404344701364e-17
3.3076538914384823 2.8350324207598903e-23 2.489129672818933e-15 2.4712928314021256e-15 1.7836841416806967e-17
3.310756385682612 2.662814414425018e-23 2.3401169248728222e-15 2.3221942537384102e-15 1.7922671134411808e-17
3.313861789986515 2.5034922679953815e-23 2.202166131045478e-15 2.184157341379085e-15 1.8008789666392758e-17
3.3200813396944477 2.281020982312933e-23 2.010237808908671e-15 1.992043875001294e-15 1.8193933907377393e-17
3.345076488085796 1.892334137916096e-23 1.6802477013805747e-15 1.661228922043483e-15 1.90187793370921e-17
3.3482140837626964 1.908544620201474e-23 1.6962308974100004e-15 1.6771003894920214e-15 1.913050791797943e-17
3.3513546224236106 1.9249105697847617e-23 1.7123809009478235e-15 1.6931381505516874e-15 1.9242750396135714e-17
3.3576445397418455 2.0380874762512165e-23 1.816464733954985e-15 1.796987345203624e-15 1.9477388751361068e-17
3.3702598118196083 2.4486207123420013e-23 2.190555866174752e-15 2.1705862941780885e-15 1.996957199666404e-17
3.382922481734668 2.547254314439588e-23 2.287356121632551e-15 2.266907734343138e-15 2.044838728941318e-17
3.389271646505754 2.5981692346005876e-23 2.3374549392476543e-15 2.316763775200331e-15 2.0691164047322815e-17
3.395632727569191 2.653705530953802e-23 2.391899199041362e-15 2.370957836427025e-15 2.0941362614335496e-17
3.421196662673239 2.9213231280175405e-23 2.652937812284107e-15 2.6309602782692983e-15 2.197753401480828e-17
3.4276182099114902 2.873704437833538e-23 2.6145922717262932e-15 2.5923830376206302e-15 2.220923410566258e-17
3.4340518103208963 2.6550837902038315e-23 2.420218116381645e-15 2.397789510416548e-15 2.2428605965096262e-17
3.4469541582030403 2.3428551852413682e-23 2.1436327617567163e-15 2.120782643999392e-15 2.2850117757324783e-17
3.472904465399547 2.2608213984963244e-23 2.084147850530082e-15 2.0603274224443263e-15 2.3820428085755684e-17
3.4990501388274233 2.1333166293187337e-23 1.9814125864703065e-15 1.956598195227536e-15 2.481439124277074e-17
3.5253949054701885 1.6656570620186864e-23 1.5587009356222137e-15 1.5329192646348844e-15 2.578167098732938e-17
3.5519380250092896 1.222290445840297e-23 1.152415868075949e-15 1.1256606609755193e-15 2.675520710042973e-17
3.578680990867387 1.0518738511149748e-23 9.992084048627065e-16 9.713859737276012e-16 2.782243113510528e-17
3.605625307711299 9.887831373352642e-24 9.463484557570617e-16 9.174012363233773e-16 2.894721943368429e-17
3.660119384959845 9.549650516268501e-24 9.277952881732473e-16 8.964814279809141e-16 3.1313860192332743e-17
3.715437065384467 9.358543767776296e-24 9.229700703749528e-16 8.891561650495822e-16 3.3813905325370587e-17
3.8285932144167436 9.546465685477951e-24 9.70177669251776e-16 9.30972655380856e-16 3.9205013870919975e-17
3.94519561050918 9.892412690669064e-24 1.035953352570692e-15 9.908426480710377e-16 4.511070449965424e-17
4.06534921144712 1.0304726056502371e-23 1.1119973214534431e-15 1.0604668035590596e-15 5.153051789438359e-17
4.189162171576248 1.0755721447333386e-23 1.1960136948138801e-15 1.137531159710039e-15 5.848253510384117e-17
4.316745939156006 1.1233329978527105e-23 1.287165641713805e-15 1.221217683194681e-15 6.594795851912417e-17
4.448215356677963 1.1731424384032765e-23 1.385179271114224e-15 1.3113478133447187e-15 7.383145776950514e-17
4.58368876423945 1.2248356449967777e-23 1.4902611187356509e-15 1.4081124888377545e-15 8.214862989789677e-17
4.723288106065518 1.2785382399985561e-23 1.6029781109578617e-15 1.512021177658939e-15 9.095693329892238e-17
4.867139040275056 1.3344411506417362e-23 1.7240212399040309e-15 1.6239845610262636e-15 1.0003667887776738e-16
4.940699165968905 1.363989501004027e-23 1.788829183421895e-15 1.6841222737781336e-15 1.0470690964376165e-16
5.015371051989984 1.3934993693837824e-23 1.8551510585789195e-15 1.7457001358793743e-15 1.0945092269954488e-16
5.091171501069577 1.425467249569798e-23 1.9263908364661595e-15 1.8120222475732376e-15 1.143685888929223e-16
5.129500256944802 1.4414198346984414e-23 1.962614408304386e-15 1.8457633060816656e-15 1.1685110222272034e-16
5.168117569889187 1.4575750323454768e-23 1.9995521636888066e-15 1.880180004786115e-15 1.193721589026914e-16
5.20702561229733 1.4756768156789922e-23 2.039625350056576e-15 1.917507915077916e-15 1.221174349786603e-16
5.246226572918644 1.493832696802506e-23 2.080263920746398e-15 1.9553779144445984e-15 1.2488600630179974e-16
5.265937586045735 1.502931229370969e-23 2.10079777686635e-15 1.974519044261974e-15 1.2627873260437646e-16
5.285722656980489 1.5120436894496358e-23 2.1214761069338103e-15 1.9937991812599354e-15 1.2767692567387513e-16
5.305582063971359 1.5211702503779923e-23 2.142300024250978e-15 2.013219560780365e-15 1.2908046347061225e-16
5.3255160863122235 1.5306721252552848e-23 2.1637810217637124e-15 2.0332811727769327e-15 1.304998489867794e-16
5.365609099470188 1.5525367944328477e-23 2.2112119077767004e-15 2.077775460212444e-15 1.3343644756425615e-16
5.406003951863644 1.574651309183572e-23 2.2595928429628424e-15 2.1231954789186802e-15 1.3639736404416196e-16
5.446702915881641 1.5970294912723524e-23 2.3089581262870134e-15 2.169576490794997e-15 1.39381635492017e-16
5.487708281020852 1.620381018516074e-23 2.3603564714528903e-15 2.2179559617172727e-15 1.4240050973561794e-16
5.529022354014368 1.6502533340537727e-23 2.421967982859429e-15 2.2764195834881963e-15 1.455483993712322e-16
5.570647458961463 1.680979844718855e-23 2.485636479449049e-15 2.3369143898032852e-15 1.4872208964576376e-16
5.612585937458331 1.7126268679253798e-23 2.5514977509254003e-15 2.3995771427364965e-15 1.5192060818890387e-16
5.654840148729818 1.7463279250536108e-23 2.621292980832374e-15 2.46613483389027e-15 1.5515814694210396e-16
5.67608639626678 1.7683025197462413e-23 2.664250132829948e-15 2.507398437609767e-15 1.5685169522018177e-16
5.686739436050992 1.7795024986189925e-23 2.6861568272697016e-15 2.5284556632496775e-15 1.5770116402002363e-16
5.6974124697621304 1.7908488987796695e-23 2.7083578047144466e-15 2.5498053955029457e-15 1.5855240921150068e-16
5.718818669136295 1.8139954074488687e-23 2.75367031299402e-15 2.593410144916012e-15 1.6026016807800793e-16
5.740305295436557 1.839104466292676e-23 2.802275455275293e-15 2.6402881890508908e-15 1.619872662244027e-16
5.7835210386641895 1.902537815689358e-23 2.9207544736137087e-15 2.755195613783333e-15 1.6555885983037625e-16
5.827062130521658 1.9735420451069557e-23 3.052568827913548e-15 2.883376841116151e-15 1.6919198679739658e-16
5.8489554468988025 2.0226503065119996e-23 3.1402812847035204e-15 2.9691285579587546e-15 1.7115272674476652e-16
5.870931020387893 2.0745383322908054e-23 3.232941712630669e-15 3.0598176176864364e-15 1.7312409494423246e-16
5.892989160043636 2.129425308331391e-23 3.3309451909536503e-15 3.155839203971378e-15 1.7510598698227207e-16
5.915130176081913 2.1912140510455678e-23 3.440476089246161e-15 3.2633159713470406e-15 1.771601178991208e-16
5.95966208400165 2.3624872975309093e-23 3.737322288098603e-15 3.55548687723948e-15 1.818354108591225e-16
6.004529249263818 2.605446163888695e-23 4.1526994615046906e-15 3.965605481479024e-15 1.870939800256675e-16
6.027089341400364 2.773203486215793e-23 4.436687087831507e-15 4.246557351653292e-15 1.9012973617821478e-16
6.049734195844842 2.969419229439603e-23 4.768450111982546e-15 4.575105115148008e-15 1.9334499683453823e-16
6.095279466722835 3.533144220912498e-23 5.7164238324250886e-15 5.5151846003294044e-15 2.012392320956845e-16
6.141167624020661 4.391571935079928e-23 7.158802576423779e-15 6.947328535451132e-15 2.1147404097264733e-16
6.164241091010745 4.938764831614727e-23 8.081042598916741e-15 7.863150136834839e-15 2.178924620819025e-16
6.187401249150058 5.555223617569683e-23 9.12387358341594e-15 8.89938787730236e-15 2.2448570611358e-16
6.1990139391386085 5.855406554347414e-23 9.634941907430704e-15 9.407100848820933e-15 2.2784105860976965e-16
6.204828454712694 6.012941827931218e-23 9.903443183970331e-15 9.673907106904215e-15 2.2953607706611604e-16
6.210648424152782 6.127589604773542e-23 1.0101736802924829e-14 9.870755336988545e-15 2.309814659362853e-16
6.233982942956859 6.514026012034177e-23 1.0779150389000789e-14 1.0543124304688119e-14 2.360260843126695e-16
6.239830258556775 6.561778786546217e-23 1.0868354459191121e-14 1.0631624363274546e-14 2.367300959165746e-16
6.245683058788269 6.563589295517968e-23 1.0881550276951779e-14 1.0644114949519066e-14 2.37435327432708e-16
6.257405133728602 6.547586135991537e-23 1.0875392193530309e-14 1.0636720112364721e-14 2.3867208116558667e-16
6.269149208991335 6.464951555958384e-23 1.0758291670446268e-14 1.0519153735871575e-14 2.391379345746956e-16
6.280915325867298 6.26583531974787e-23 1.0446512978350663e-14 1.0207862757513174e-14 2.386502208374894e-16
6.304513850009849 5.778202756529163e-23 9.669718099390444e-15 9.43290650449843e-15 2.3681159489201624e-16
6.32820103803542 5.1801155850664413e-23 8.701400352240941e-15 8.467345832292546e-15 2.340545199483947e-16
6.3519772230701035 4.633716545223406e-23 7.812820179762082e-15 7.581230864518188e-15 2.3158931524389184e-16
6.375842739491607 4.172796439258806e-23 7.062105949518843e-15 6.8326828924945335e-15 2.2942305702430847e-16
6.399797922933955 3.8071215698750693e-23 6.46744045929184e-15 6.2390929022704e-15 2.28347557021439e-16
6.42384311029221 3.502060654910065e-23 5.9715630534606095e-15 5.7440738919719e-15 2.274891614887097e-16
6.447978639727206 3.281354618323144e-23 5.616246883319864e-15 5.388764518156033e-15 2.2748236516383095e-16
6.472204850670314 3.0970697611963916e-23 5.320747817473872e-15 5.093102913551815e-15 2.27644903922056e-16
6.496522083828205 2.978222378804749e-23 5.135792571791492e-15 4.90729419294779e-15 2.2849837884370293e-16
