Dust emission spectrum from A.P. Jones, M. Kohler, N. Ysard, M. Bocchio, and L. Verstraete (2017), A&A, 602A, 46J 
inside the DustPedia framework.

lambda    nu*dP/dnu     j_nu    j_nu(carb.) j_nu(sil)
 (um)   (erg s-1 H-1) (Jy cm2 sr-1 H-1)
0.9927057738263894 1.7697551355071544e-23 4.663405302146293e-16 4.6634052576082075e-16 4.4538086368301555e-24
1.0001793341362166 1.799517704433592e-23 4.777530119219792e-16 4.777530065603401e-16 5.3616391606978174e-24
1.0077091589558085 1.8293558710075318e-23 4.893311210516481e-16 4.893311146056395e-16 6.4460086134913115e-24
1.0114953028030835 1.844301259544563e-23 4.95182361047896e-16 4.951823539835438e-16 7.064352342784515e-24
1.0152956718711033 1.8592631135992277e-23 5.010750992562337e-16 5.010750915167817e-16 7.739451932697747e-24
1.0229392996569957 1.889218514542109e-23 5.129812481524251e-16 5.129812388721587e-16 9.280266270155884e-24
1.0267826658714554 1.904177512792464e-23 5.189857022418581e-16 5.189856920843884e-16 1.0157469742312774e-23
1.0306404723013447 1.919149109149376e-23 5.250314810334831e-16 5.250314699195713e-16 1.1113911819434371e-23
1.03451277320114 1.934132554980832e-23 5.311186176672958e-16 5.311186055109047e-16 1.2156391088286648e-23
1.0383996230291617 1.9491271134206022e-23 5.372471466958968e-16 5.372471334036407e-16 1.329225628591967e-23
1.0403485208654093 1.9566283328976942e-23 5.403269445743794e-16 5.403269306767137e-16 1.389766570491199e-23
1.0423010764483396 1.964132059703582e-23 5.434171042154489e-16 5.43417089686001e-16 1.452944792504062e-23
1.0462171883269815 1.979146681498391e-23 5.496285279984621e-16 5.49628512121919e-16 1.587654283084346e-23
1.0471985131304309 1.9829017664800717e-23 5.511878676448349e-16 5.511878514132764e-16 1.6231558448122094e-23
1.048180758391296 1.986657401590228e-23 5.527498020341385e-16 5.527497854399686e-16 1.659416991400964e-23
1.0501480137395462 1.9941702792371024e-23 5.558814576283861e-16 5.558814402855844e-16 1.7342801774555096e-23
1.0521189612883777 2.0016852290409227e-23 5.590235000344708e-16 5.590234819107596e-16 1.8123711229876503e-23
1.0531058218030118 2.005438275804758e-23 5.605969703127958e-16 5.605969517860878e-16 1.8526707973222068e-23
1.0540936079674168 2.0091748420919114e-23 5.621682892669428e-16 5.621682703285782e-16 1.893836446908427e-23
1.058054026499678 2.0241250663815335e-23 5.684792542825824e-16 5.684792336083295e-16 2.0674253021824384e-23
1.0590464539527713 2.0278635611698402e-23 5.700634211838887e-16 5.700634000524387e-16 2.113145010813173e-23
1.06003981227728 2.0316024112102812e-23 5.716501597156327e-16 5.716501381173194e-16 2.159831308176939e-23
1.0620293250338977 2.039081137025917e-23 5.748313544895403e-16 5.748313319277233e-16 2.2561817258963865e-23
1.0660195594769086 2.0540424146124875e-23 5.812246351644565e-16 5.81224610550844e-16 2.4613612460161375e-23
1.070024785945596 2.06900827428845e-23 5.876591441425974e-16 5.876591172994261e-16 2.6843171245701457e-23
1.0740450607676866 2.0839781060683403e-23 5.941349319631622e-16 5.941349026980878e-16 2.92650744579246e-23
1.07808044048254 2.0989513151378617e-23 6.006520520162119e-16 6.006520201211851e-16 3.1895026772615596e-23
1.0861967418109137 2.1288817577257362e-23 6.13803653784563e-16 6.13803615936553e-16 3.784801017908991e-23
1.0902777775684922 2.1437837453762796e-23 6.204225394072229e-16 6.20422498198389e-16 4.120883395668136e-23
1.0943741465085532 2.1586859408225987e-23 6.270825573762792e-16 6.270825125228188e-16 4.485346046692824e-23
1.1026131145906286 2.1884889339966076e-23 6.405262633600079e-16 6.405262102736137e-16 5.308639415355061e-23
1.1109141095355224 2.2182868674208304e-23 6.541353567676807e-16 6.541352940186722e-16 6.27490084215545e-23
1.1192775983109025 2.2480517503923814e-23 6.679032385094066e-16 6.679031644348565e-16 7.407455001701953e-23
1.1277040513999907 2.277668118040816e-23 6.817968909528346e-16 6.81796803621123e-16 8.733171158993176e-23
1.1361939428280308 2.3072659174066092e-23 6.958562839719481e-16 6.958561811423667e-16 1.0282958156207743e-22
1.1447477501889525 2.3368424965875219e-23 7.100822776731397e-16 7.100821567498897e-16 1.2092324993098648e-22
1.1533659546722406 2.366407455931145e-23 7.24479474315118e-16 7.244793322948134e-16 1.4202030462934898e-22
1.1707974979042381 2.425592595221786e-23 7.538224666141437e-16 7.538222714525907e-16 1.9516155272845852e-22
1.1884924949847024 2.484703675504412e-23 7.838635663433451e-16 7.838632994948575e-16 2.668484875432366e-22
1.2064549276569216 2.5441531542638827e-23 8.14748906577446e-16 8.147485435053909e-16 3.630720549605205e-22
1.2246888378427687 2.6034914415832908e-23 8.463526278592897e-16 8.463521362793466e-16 4.915799428160309e-22
1.2431983285522175 2.6626475434425005e-23 8.786654158817225e-16 8.78664753525111e-16 6.62356611513683e-22
1.2619875648066055 2.721680951148973e-23 9.11720504824617e-16 9.117196166211914e-16 8.882034251978298e-22
1.3004222497298317 2.838872716903002e-23 9.799405870178975e-16 9.799390122665882e-16 1.5747513094219959e-21
1.3400274889804893 2.955234196661893e-23 1.0511750497359343e-15 1.0511723088111888e-15 2.7409247456477368e-21
1.3808389325824078 3.0710126229051803e-23 1.1256258497472378e-15 1.1256211640893146e-15 4.685657923320878e-21
1.4228933163050095 3.187102277744288e-23 1.2037540827844762e-15 1.2037462114809745e-15 7.871303502139365e-21
1.466228494730424 3.3056612048992484e-23 1.2865581768587958e-15 1.286545176898743e-15 1.2999960052990892e-20
1.5108834753276823 3.426136618065763e-23 1.3740580504084986e-15 1.374036932658558e-15 2.1117749940548782e-20
1.5568984535646726 3.548157120369841e-23 1.4663328477464973e-15 1.466299070875509e-15 3.3776870987835966e-20
1.6043148490894465 3.672388212943787e-23 1.5638951077518323e-15 1.5638418155506236e-15 5.3292201208646775e-20
1.6531753430134553 3.79954058355169e-23 1.6673218435192401e-15 1.667238997674843e-15 8.284584439699122e-20
1.7035239163302658 3.930523707423866e-23 1.777330068762604e-15 1.7772031450362363e-15 1.2692372636684305e-19
1.755405889504358 4.068336319412232e-23 1.895674778585456e-15 1.8954830457198904e-15 1.9173286556563615e-19
1.8088679632656115 4.2127462722537215e-23 2.0227471740257687e-15 2.022461490593377e-15 2.856834323915055e-19
1.8639582606462262 4.363490266167982e-23 2.158935300994449e-15 2.158515271268573e-15 4.2002972587562235e-19
1.9207263702978936 4.5209653344273994e-23 2.3049744145206716e-15 2.3043648156478356e-15 6.09598872836288e-19
1.979223391128241 4.6858544172308665e-23 2.4618015430675058e-15 2.4609278799335593e-15 8.736631339466648e-19
2.039501978296691 4.8587391885929646e-23 2.6303718689652467e-15 2.6291349726706875e-15 1.236896294559508e-18
2.1016163906111602 5.04179006115792e-23 2.8125978324346243e-15 2.810867258842963e-15 1.7305735916606295e-18
2.1656225393682647 5.235888102153148e-23 3.009834059659132e-15 3.007440399442037e-15 2.393660217096355e-18
2.231578038680979 5.440123526869674e-23 3.2224803145569033e-15 3.2192062713725923e-15 3.274043184311676e-18
2.299542257339062 5.654356118792837e-23 3.4513895931889914e-15 3.4469597615977576e-15 4.429831591233994e-18
2.369576372248914 5.87911348654137e-23 3.697872963676981e-15 3.69194221032401e-15 5.9307533529732466e-18
2.4417434235010123 6.115080375221761e-23 3.963433988938358e-15 3.955574731877058e-15 7.859257061300346e-18
2.5161083711144245 6.364253652544439e-23 4.250561029697328e-15 4.2402490841466824e-15 1.0311945550647009e-17
2.5927381535095444 6.630485368986535e-23 4.563241071441597e-15 4.549840549726682e-15 1.3400521714914703e-17
2.6717017477616296 6.917508554026125e-23 4.9057692024093155e-15 4.888517397017162e-15 1.725180539215222e-17
2.753070231689431 7.231344041216718e-23 5.284522456406663e-15 5.2625143260533885e-15 2.2008130353275813e-17
2.836916847834745 7.588641510163707e-23 5.714524205535201e-15 5.686695976503486e-15 2.782822903171523e-17
2.9233170693905177 8.027381915219773e-23 6.2290136303724914e-15 6.194133587442531e-15 3.488004292996027e-17
2.967498994190263 8.31563329290242e-23 6.5502117963350714e-15 6.51135949845353e-15 3.8852297881540494e-17
3.0123486681368425 8.630224873128193e-23 6.900757776405289e-15 6.8575380786110646e-15 4.321969779422265e-17
3.0578761833420214 9.195111772878411e-23 7.463565391136489e-15 7.415536850286726e-15 4.802854084976241e-17
3.1040917844459814 9.877183989929438e-23 8.138364389865483e-15 8.085096439000233e-15 5.326795086524793e-17
3.127460860933648 1.0540832575911951e-22 8.750567752272029e-15 8.694491988424496e-15 5.607576384753243e-17
3.1510058709225794 1.13988662571029e-22 9.534113187745206e-15 9.475108845647811e-15 5.900434209739517e-17
3.162844764501044 1.218447676423985e-22 1.0229494990153293e-14 1.0168974399187566e-14 6.052059096572558e-17
3.1747281389236908 1.3082168264854446e-22 1.1024418854678251e-14 1.0962350693097515e-14 6.20681615807369e-17
3.1986289994194426 1.5540054439191881e-22 1.3194284347601372e-14 1.3129017420736124e-14 6.526692686525006e-17
3.2227097969389145 2.127390061727417e-22 1.8198590739460497e-14 1.8129932379968115e-14 6.865835949238875e-17
3.2348180950136065 2.6676489470141844e-22 2.2905932378125863e-14 2.2835463673317127e-14 7.046870480873571e-17
3.240889293275058 3.0714483457333463e-22 2.642267877799728e-14 2.635125515473909e-14 7.142362325819496e-17
3.2469718861334385 3.539226553848451e-22 3.050396718385923e-14 3.0431555489279504e-14 7.241169457973065e-17
3.2714166318528037 6.008838819422341e-22 5.217901121720002e-14 5.210251473569271e-14 7.649648150731349e-17
3.2744851364798273 6.163372017720895e-22 5.3571133889311364e-14 5.349415556546361e-14 7.697832384773966e-17
3.2775565192852394 6.322153337658376e-22 5.5002780894789523e-14 5.4925318277725837e-14 7.746261706368519e-17
3.283707930232385 6.170232640166155e-22 5.378181985333748e-14 5.3703490226218137e-14 7.83296271193583e-17
3.2898708863219004 5.686658487703334e-22 4.965985356272369e-14 4.958073404387904e-14 7.911951884465187e-17
3.29141343181113 5.572449499220826e-22 4.868531804963405e-14 4.860600016239333e-14 7.931788724070281e-17
3.292184975758714 5.516305771308108e-22 4.8206099517485533e-14 4.812668231154157e-14 7.94172059439585e-17
3.295272960557952 5.164600376165527e-22 4.517493645595019e-14 4.5095132756060445e-14 7.98036998897506e-17
3.3076538914384823 3.939913156769483e-22 3.4592037378592006e-14 3.4510680894632625e-14 8.135648395939583e-17
3.310756385682612 3.6889060228935234e-22 3.241859955269334e-14 3.233685158663896e-14 8.17479660543826e-17
3.313861789986515 3.456627969910274e-22 3.0405802088041186e-14 3.032366132256653e-14 8.21407654746523e-17
3.3200813396944477 3.1317544316532545e-22 2.7599795072218107e-14 2.7516809836350946e-14 8.298523586716071e-17
3.345076488085796 2.560096727694935e-22 2.273169709213413e-14 2.2644949613705e-14 8.674747842912955e-17
3.3482140837626964 2.5827264600179107e-22 2.2954141992123137e-14 2.286688490303589e-14 8.725708908724207e-17
3.3513546224236106 2.6055784466768524e-22 2.3178961340056637e-14 2.309119229634949e-14 8.776904370714865e-17
3.3576445397418455 2.7681013791073058e-22 2.4670965273822257e-14 2.4582126009714466e-14 8.883926410779395e-17
3.3702598118196083 3.3605669751608777e-22 3.006390358460553e-14 2.9972819399587963e-14 9.108418501756177e-17
3.382922481734668 3.5000689978854114e-22 3.142954436495224e-14 3.133627623224221e-14 9.326813271003208e-17
3.389271646505754 3.5721203702036457e-22 3.213674571973466e-14 3.204237024616014e-14 9.437547357452173e-17
3.395632727569191 3.650842536903478e-22 3.2906617701124236e-14 3.281110103471123e-14 9.55166664129913e-17
3.421196662673239 4.0315647826864008e-22 3.6611802891930876e-14 3.6511560093807095e-14 1.0024279812377983e-16
3.4276182099114902 3.960653451423197e-22 3.603534785534201e-14 3.5934048238677795e-14 1.0129961666421596e-16
3.4340518103208963 3.6415352359760293e-22 3.319409196074635e-14 3.309179175643671e-14 1.0230020430963686e-16
3.4469541582030403 3.184784158531705e-22 2.913969119542068e-14 2.90354684131976e-14 1.042227822230852e-16
3.472904465399547 3.05821229292926e-22 2.8192260481134834e-14 2.8083611969335454e-14 1.0864851179937885e-16
3.4990501388274233 2.8655332257765964e-22 2.6614912772305128e-14 2.650173064686409e-14 1.131821254410389e-16
3.5253949054701885 2.17919741393304e-22 2.039265539982342e-14 2.027506136774834e-14 1.175940320750776e-16
3.5519380250092896 1.5280031332236946e-22 1.4406519033094287e-14 1.42844845581584e-14 1.220344749358866e-16
3.578680990867387 1.2725529769314757e-22 1.2088385207362689e-14 1.1961482965037268e-14 1.2690224232541995e-16
3.605625307711299 1.172658364681976e-22 1.122332481860592e-14 1.1091292249731523e-14 1.3203256887439767e-16
3.660119384959845 1.106458852585972e-22 1.074978930629988e-14 1.060696213729589e-14 1.428271690039889e-16
3.715437065384467 1.0609957151391143e-22 1.0463885345509876e-14 1.030965509920617e-14 1.54230246303707e-16
3.8285932144167436 1.0510653234290067e-22 1.068165056379884e-14 1.0502830670436894e-14 1.7881989336194562e-16
3.94519561050918 1.0617947151438476e-22 1.1119327804961566e-14 1.0913571179222907e-14 2.0575662573865746e-16
4.06534921144712 1.0800094192653343e-22 1.165453186025959e-14 1.1419493511847176e-14 2.3503834841241355e-16
4.189162171576248 1.101841798012725e-22 1.2252249989872022e-14 1.1985502458148668e-14 2.667475317233595e-16
4.316745939156006 1.125747501902297e-22 1.2899322894134165e-14 1.2598524457162431e-14 3.0079843697173625e-16
4.448215356677963 1.1511310847334414e-22 1.3591895278106587e-14 1.3255139029950559e-14 3.3675624815602265e-16
4.58368876423945 1.1779602571859378e-22 1.4332276970145402e-14 1.3957584864459223e-14 3.746921056861809e-16
4.723288106065518 1.2066139698547677e-22 1.5128024501287863e-14 1.4713156415475956e-14 4.148680858119041e-16
4.867139040275056 1.237789044141908e-22 1.599152275538658e-14 1.5535240601489907e-14 4.562821538966762e-16
4.940699165968905 1.2554752895039514e-22 1.6465162197191212e-14 1.5987578427219517e-14 4.77583769971694e-16
5.015371051989984 1.2730481627968253e-22 1.6947956337280883e-14 1.6448734419299604e-14 4.992219179812806e-16
5.091171501069577 1.2940126311218304e-22 1.748741737571923e-14 1.6965765252026845e-14 5.216521236923861e-16
5.129500256944802 1.3044554997296344e-22 1.7761259399464867e-14 1.7228284163879532e-14 5.329752355853355e-16
5.168117569889187 1.3151790354929616e-22 1.8042083787799113e-14 1.7497609638391547e-14 5.444741494075705e-16
5.20702561229733 1.328531237010727e-22 1.836246229905227e-14 1.7805466537863147e-14 5.569957611891228e-16
5.246226572918644 1.3419754616416802e-22 1.8687923629972964e-14 1.8118300003938637e-14 5.696236260343352e-16
5.265937586045735 1.3487341766831872e-22 1.8852610848638724e-14 1.8276634791171853e-14 5.759760574668651e-16
5.285722656980489 1.3555184620660832e-22 1.9018630545176756e-14 1.8436277121546584e-14 5.823534236301665e-16
5.305582063971359 1.3623292273598137e-22 1.9186004565140086e-14 1.8597249397257128e-14 5.887551678829557e-16
5.3255160863122235 1.3696711384118763e-22 1.936187617487865e-14 1.8766646978946346e-14 5.952291959323004e-16
5.365609099470188 1.3883734870250943e-22 1.9774011140733295e-14 1.916538768275726e-14 6.086234579760401e-16
5.406003951863644 1.407465643947896e-22 2.019684788138703e-14 1.9574719243826983e-14 6.221286375600479e-16
5.446702915881641 1.426972788782476e-22 2.0630930328185488e-14 1.9995189985589886e-14 6.357403425955949e-16
5.487708281020852 1.4478957271029893e-22 2.1091027421354773e-14 2.0441517545261826e-14 6.49509876092945e-16
5.529022354014368 1.4780250997727237e-22 2.1691999619953536e-14 2.1028131752039833e-14 6.638678679136971e-16
5.570647458961463 1.5094291855694514e-22 2.231967419825907e-14 2.1641330658012052e-14 6.783435402470221e-16
5.612585937458331 1.5422088597527447e-22 2.2976063909840537e-14 2.2283131451875116e-14 6.929324579654204e-16
5.654840148729818 1.5779635740874747e-22 2.368572810079575e-14 2.2978028748179334e-14 7.076993526164043e-16
5.67608639626678 1.6030773146868867e-22 2.415310107234435e-14 2.3437677194755243e-14 7.15423877589107e-16
5.686739436050992 1.6159458549751563e-22 2.4392682753794048e-14 2.367338432297476e-14 7.192984308192815e-16
5.6974124697621304 1.6290289723258943e-22 2.4636323780924433e-14 2.3913142694491843e-14 7.231810864325997e-16
5.718818669136295 1.6558601130140068e-22 2.5136187318633645e-14 2.440521689064744e-14 7.309704279862111e-16
5.740305295436557 1.685486627897957e-22 2.5682052836695755e-14 2.4943204857845668e-14 7.388479788500911e-16
5.7835210386641895 1.7634643554789526e-22 2.7072504750488763e-14 2.6317366203412675e-14 7.5513854707609055e-16
5.827062130521658 1.8523198626916437e-22 2.865068867519962e-14 2.7878978897172998e-14 7.717097780266259e-16
5.8489554468988025 1.9159532318137506e-22 2.9746279210307244e-14 2.896562620661754e-14 7.806530036896995e-16
5.870931020387893 1.9836117795513782e-22 3.091242597911297e-14 3.0122781272746285e-14 7.8964470636668435e-16
5.892989160043636 2.0556128562347834e-22 3.215484352115236e-14 3.1356159111341225e-14 7.986844098111406e-16
5.915130176081913 2.137424434822444e-22 3.3560197631391426e-14 3.275214402592287e-14 8.080536054685587e-16
5.95966208400165 2.3684942051225767e-22 3.746824878715005e-14 3.663887047744041e-14 8.293783097096483e-16
6.004529249263818 2.701353265365345e-22 4.305561329915791e-14 4.2202249876200125e-14 8.533634229577852e-16
6.027089341400364 2.9333611683132134e-22 4.692914055564142e-14 4.606193059912242e-14 8.672099565190072e-16
6.049734195844842 3.2059940378230457e-22 5.148354424699338e-14 5.0601669010359356e-14 8.818752366340209e-16
6.095279466722835 3.994334646745403e-22 6.462603375822442e-14 6.370815174561513e-14 9.178820126093025e-16
6.141167624020661 5.202057504241825e-22 8.479993773207597e-14 8.383537324128662e-14 9.645644907893745e-16
6.164241091010745 5.9731873878586855e-22 9.773614127890462e-14 9.674230141960475e-14 9.938398592998546e-16
6.187401249150058 6.844398975014646e-22 1.1241209229632228e-13 1.11388179675592e-13 1.0239126207302764e-15
6.1990139391386085 7.268643591883034e-22 1.1960392178338958e-13 1.1856470490356097e-13 1.0392168798286033e-15
6.204828454712694 7.491503757919025e-22 1.233866615579371e-13 1.2233971344821517e-13 1.0469481097219174e-15
6.210648424152782 7.653359015769062e-22 1.2617068606448903e-13 1.2511714532231494e-13 1.053540742174093e-15
6.233982942956859 8.198731647804413e-22 1.3566934069264866e-13 1.3459279069987293e-13 1.0765499927757577e-15
6.239830258556775 8.2658738288530465e-22 1.3690867920009765e-13 1.3582891810625625e-13 1.0797610938413335e-15
6.245683058788269 8.267566269219275e-22 1.37065154408691e-13 1.359821766495873e-13 1.0829777591036695e-15
6.257405133728602 8.243105090893397e-22 1.3691610754560353e-13 1.3582748876978225e-13 1.0886187758212748e-15
6.269149208991335 8.124001832360822e-22 1.351910845537978e-13 1.3410034095162156e-13 1.0907436021762268e-15
6.280915325867298 7.839307762798111e-22 1.3069834444460136e-13 1.2960982537681602e-13 1.0885190677853605e-15
6.304513850009849 7.143003448161882e-22 1.195368744176582e-13 1.1845674159449255e-13 1.0801328231656956e-15
6.32820103803542 6.288604099817408e-22 1.0563405590215837e-13 1.0456649850515054e-13 1.0675573970078019e-15
6.3519772230701035 5.507273338457454e-22 9.285707456257794e-14 9.180076132832328e-14 1.0563132342546663e-15
6.375842739491607 4.848505951875465e-22 8.205687295663825e-14 8.101044034606604e-14 1.0464326105722165e-15
6.399797922933955 4.32326805344164e-22 7.344256864933753e-14 7.240104155277455e-14 1.041527096562971e-15
6.42384311029221 3.8850218349320086e-22 6.624571969888828e-14 6.520810787078787e-14 1.0376118281004253e-15
6.447978639727206 3.565896197267333e-22 6.1032578717076e-14 5.999499788749997e-14 1.0375808295760512e-15
6.472204850670314 3.298959889910813e-22 5.6675938831278174e-14 5.563761663789782e-14 1.0383221933803564e-15
6.496522083828205 3.124518381421544e-22 5.3880725656795444e-14 5.2838510637616e-14 1.0422150191794414e-15
6.520930681187647 2.9767661413903764e-22 5.152568022398565e-14 5.047909113266382e-14 1.0465890913218207e-15
6.57002334288761 2.820664099114016e-22 4.919123391833104e-14 4.813151914234638e-14 1.059714775984645e-15
