Dust emission spectrum from A.P. Jones, M. Kohler, N. Ysard, M. Bocchio, and L. Verstraete (2017), A&A, 602A, 46J 
inside the DustPedia framework.

lambda    nu*dP/dnu     j_nu    j_nu(carb.) j_nu(sil)
 (um)   (erg s-1 H-1) (Jy cm2 sr-1 H-1)
0.9927057738263894 8.647118648187522e-23 2.2785648784508227e-15 2.2785648759103806e-15 2.540442558790117e-24
1.0001793341362166 8.790292479232731e-23 2.333730141849537e-15 2.3337301387904172e-15 3.0591190656365226e-24
1.0077091589558085 8.933353833528854e-23 2.3895667952808693e-15 2.3895667916019845e-15 3.678884875072722e-24
1.0114953028030835 9.004826012489048e-23 2.4177346204225674e-15 2.4177346163901736e-15 4.032393603600862e-24
1.0152956718711033 9.07625055006233e-23 2.446067537177658e-15 2.4460675327592343e-15 4.418423121660148e-24
1.0229392996569957 9.218860912264707e-23 2.5032058181281106e-15 2.5032058128283743e-15 5.299736278545348e-24
1.0267826658714554 9.289875081413818e-23 2.5319658017577706e-15 2.53196579595615e-15 5.8016214038415796e-24
1.0306404723013447 9.360812393290389e-23 2.56088553572796e-15 2.5608855293790088e-15 6.348951009258385e-24
1.03451277320114 9.431666555350458e-23 2.5899640075218345e-15 2.5899640005761983e-15 6.94563572390777e-24
1.0383996230291617 9.5024313158187e-23 2.6192001927150313e-15 2.6192001851191267e-15 7.595903769245148e-24
1.0403485208654093 9.537778228257032e-23 2.633877104534202e-15 2.633877096591656e-15 7.942545606936194e-24
1.0423010764483396 9.573100465040568e-23 2.648593055326944e-15 2.6485930470226182e-15 8.304325094145816e-24
1.0462171883269815 9.643667836809084e-23 2.6781415481739778e-15 2.67814153909814e-15 9.0758372072821e-24
1.0471985131304309 9.661293058664163e-23 2.6855528648551753e-15 2.6855528555759867e-15 9.27918900039237e-24
1.048180758391296 9.678911441409614e-23 2.692973825714831e-15 2.6929738162279284e-15 9.486902548305533e-24
1.0501480137395462 9.714127309666096e-23 2.7078446132246585e-15 2.7078446033088863e-15 9.915772815557571e-24
1.0521189612883777 9.749314683597562e-23 2.7227537768131006e-15 2.7227537664499193e-15 1.0363181196358144e-23
1.0531058218030118 9.766870871667432e-23 2.730215278201916e-15 2.7302152676078255e-15 1.0594089230369739e-23
1.0540936079674168 9.784332577426193e-23 2.7376619453106203e-15 2.737661934480649e-15 1.0829971118144203e-23
1.058054026499678 9.854099866081897e-23 2.7675421032706205e-15 2.76754209144584e-15 1.1824780569098238e-23
1.0590464539527713 9.871521340565377e-23 2.775035429132184e-15 2.775035417045356e-15 1.2086827448879052e-23
1.06003981227728 9.888934491033542e-23 2.782538035013012e-15 2.782538022658583e-15 1.2354428801575966e-23
1.0620293250338977 9.923735451634284e-23 2.797571017492229e-15 2.7975710045854836e-15 1.2906744892741126e-23
1.0660195594769086 9.99323344479e-23 2.8277475780153738e-15 2.827747563932272e-15 1.4083101881809993e-23
1.070024785945596 1.0062588008313861e-22 2.8580706661789197e-15 2.8580706508172652e-15 1.5361654943760986e-23
1.0740450607676866 1.0131793358157643e-22 2.888539154986883e-15 2.8885391382360687e-15 1.6750814317418846e-23
1.07808044048254 1.0200843764562724e-22 2.9191519094757757e-15 2.9191518912161346e-15 1.825964105640315e-23
1.0861967418109137 1.033833705285118e-22 2.9807710240682625e-15 2.9807710023921808e-15 2.1676082258277413e-23
1.0902777775684922 1.0406495754155188e-22 3.0116958093598228e-15 3.011695785754304e-15 2.3605517915828673e-23
1.0943741465085532 1.047447238331552e-22 3.0427580061941466e-15 3.0427579804957866e-15 2.569836095366111e-23
1.1026131145906286 1.0609857847982847e-22 3.1052899087493585e-15 3.1052898783217687e-15 3.0427588683641935e-23
1.1109141095355224 1.0744450910917217e-22 3.168357227871702e-15 3.168357191891053e-15 3.598064939083185e-23
1.1192775983109025 1.0878087533862544e-22 3.231913985693369e-15 3.231913943200912e-15 4.2492456490362626e-23
1.1277040513999907 1.1010164412102965e-22 3.2957812446829997e-15 3.2957811945644796e-15 5.011852103940275e-23
1.1361939428280308 1.1141309859420848e-22 3.3601460580975384e-15 3.3601459990596994e-15 5.903783897535548e-23
1.1447477501889525 1.1271485837561155e-22 3.4249986244189307e-15 3.4249985549627564e-15 6.945617415733768e-23
1.1533659546722406 1.140072312652259e-22 3.4903498452109434e-15 3.4903497636010866e-15 8.160985780514514e-23
1.1707974979042381 1.1656795483225598e-22 3.622683521252367e-15 3.622683409005082e-15 1.1224728712414507e-22
1.1884924949847024 1.1908640268895034e-22 3.756886313447826e-15 3.756886159828914e-15 1.5361891295922167e-22
1.2064549276569216 1.2158190302062265e-22 3.893583308050443e-15 3.8935830988418046e-15 2.0920863958645348e-22
1.2246888378427687 1.2402875221152868e-22 4.031972553767955e-15 4.031972270240066e-15 2.8352788886209977e-22
1.2431983285522175 1.264217634786859e-22 4.171878912666127e-15 4.1718785302677565e-15 3.823983694320473e-22
1.2619875648066055 1.2876069381153168e-22 4.3132816399313504e-15 4.313281126637095e-15 5.132942557852574e-22
1.3004222497298317 1.3324118972594081e-22 4.599306228052448e-15 4.5993053161539854e-15 9.118984631531716e-22
1.3400274889804893 1.374577742751463e-22 4.889364872451733e-15 4.889363281933736e-15 1.5905179987241065e-21
1.3808389325824078 1.4140038085072103e-22 5.182783120543047e-15 5.182780395682515e-15 2.7248605317618696e-21
1.4228933163050095 1.4509116635367442e-22 5.480027581600261e-15 5.4800229940898585e-15 4.587510402734588e-21
1.466228494730424 1.486144871127438e-22 5.784052621944488e-15 5.784045028249114e-15 7.593695373591585e-21
1.5108834753276823 1.5191629654040696e-22 6.0926294984534735e-15 6.092617134328662e-15 1.2364124812276601e-20
1.5568984535646726 1.5495376878910278e-22 6.403713064259505e-15 6.403693241623531e-15 1.982263597387534e-20
1.6043148490894465 1.5773699365889224e-22 6.7172667591393174e-15 6.7172354083504756e-15 3.135078883953583e-20
1.6531753430134553 1.6027833367720582e-22 7.033365242622767e-15 7.0333163863201496e-15 4.885630261687628e-20
1.7035239163302658 1.6260465019907403e-22 7.352764049573852e-15 7.352689011601257e-15 7.503797259555737e-20
1.755405889504358 1.648461973657084e-22 7.681144186649762e-15 7.681030542488694e-15 1.1364416106763328e-19
1.8088679632656115 1.6697742858942155e-22 8.017409546591373e-15 8.01723977208803e-15 1.6977450334331207e-19
1.8639582606462262 1.6898114791037425e-22 8.360723713648978e-15 8.360473431730071e-15 2.502819189057646e-19
1.9207263702978936 1.7087584728362998e-22 8.71195479091621e-15 8.711590555840216e-15 3.6423507599243905e-19
1.979223391128241 1.726993824078653e-22 9.073086106455139e-15 9.072562630457208e-15 5.234759979333053e-19
2.039501978296691 1.7449483570040073e-22 9.446613396817542e-15 9.44587015638958e-15 7.432404279600495e-19
2.1016163906111602 1.76381880534701e-22 9.839586513023277e-15 9.838543574620165e-15 1.0429384031116169e-18
2.1656225393682647 1.7842848260579358e-22 1.0256906062208776e-14 1.0255459176534591e-14 1.4468856741841902e-18
2.231578038680979 1.8063499893867697e-22 1.0699991008013717e-14 1.0698005867994935e-14 1.9851400187804944e-18
2.299542257339062 1.8303819061831134e-22 1.1172556043234388e-14 1.1169861641758407e-14 2.694401475982925e-18
2.369576372248914 1.857217632310405e-22 1.1681616430617779e-14 1.1677997433672737e-14 3.618996945043164e-18
2.4417434235010123 1.8878428369274709e-22 1.22358824521269e-14 1.2231070739262082e-14 4.8117128648204295e-18
2.5161083711144245 1.923987515847198e-22 1.2849937797835386e-14 1.2843602937184562e-14 6.334860650829128e-18
2.5927381535095444 1.9685076802192324e-22 1.3547688586782356e-14 1.3539427507227613e-14 8.261079554742104e-18
2.6717017477616296 2.0247306465752614e-22 1.4359015491729458e-14 1.4348341900418048e-14 1.0673591311410198e-17
2.753070231689431 2.097679175947761e-22 1.5329422370792655e-14 1.5315755643561302e-14 1.366672723135217e-17
2.836916847834745 2.19894699261876e-22 1.655887394229756e-14 1.6541527162544308e-14 1.734677975325236e-17
2.9233170693905177 2.3541498572085797e-22 1.8267514493970884e-14 1.8245686406892374e-14 2.1828087078512337e-17
2.967498994190263 2.4773381754726687e-22 1.9513955424588606e-14 1.9489589913649258e-14 2.43655109393426e-17
3.0123486681368425 2.61904094760903e-22 2.0941942361446078e-14 2.0914780671346098e-14 2.7161690099983708e-17
3.0578761833420214 2.921003834124409e-22 2.3709448739983474e-14 2.3679201679808362e-14 3.0247060175113634e-17
3.1040917844459814 3.305505327044966e-22 2.723590739178443e-14 2.720228926734212e-14 3.3618124442309313e-17
3.127460860933648 3.705719835466552e-22 3.076336926676112e-14 3.072794083349979e-14 3.5428433261331005e-17
3.1510058709225794 4.236215102296179e-22 3.5432080140216004e-14 3.5394760784503e-14 3.731935571301167e-17
3.162844764501044 4.728313804966846e-22 3.969662654841014e-14 3.9658327121272095e-14 3.8299427138034433e-17
3.1747281389236908 5.299032098876974e-22 4.465524995527533e-14 4.461594946611513e-14 3.930048916020242e-17
3.1986289994194426 6.886253814805947e-22 5.846774300427047e-14 5.842637107551967e-14 4.137192875080892e-17
3.2227097969389145 1.0620558946725486e-21 9.085273508273897e-14 9.080916406303254e-14 4.357101970643247e-17
3.2348180950136065 1.4158122079231206e-21 1.2156958932362712e-13 1.2152484368161052e-13 4.4745642016576875e-17
3.240889293275058 1.680268763105539e-21 1.4454809845626783e-13 1.4450273320779356e-13 4.536524847425893e-17
3.2469718861334385 1.986268041643192e-21 1.7119292658659991e-13 1.7114692020125016e-13 4.600638534977447e-17
3.2714166318528037 3.616126217244977e-21 3.1401389872956526e-13 3.139652394523544e-13 4.8659277210865665e-17
3.2744851364798273 3.718056098548652e-21 3.231680328408504e-13 3.231190599741817e-13 4.897286666879249e-17
3.2775565192852394 3.822895863221197e-21 3.3259222343732877e-13 3.325429353241391e-13 4.928811318964142e-17
3.283707930232385 3.722273627773079e-21 3.2444586998316134e-13 3.2439601618536956e-13 4.9853797791875095e-17
3.2898708863219004 3.402803650706e-21 2.9715646079708296e-13 2.971060904204054e-13 5.037037667762839e-17
3.29141343181113 3.327448126261017e-21 2.907121371729398e-13 2.9066163703330154e-13 5.050013963818123e-17
3.292184975758714 3.2904186157177977e-21 2.875443345952617e-13 2.874937694812456e-13 5.056511401614984e-17
3.295272960557952 3.0569167283576863e-21 2.6738955368550597e-13 2.6733873549920593e-13 5.081818630004965e-17
3.3076538914384823 2.2473823512643054e-21 1.9731788799798502e-13 1.9726605243151656e-13 5.183556646850375e-17
3.310756385682612 2.0824524825493395e-21 1.8300870962910887e-13 1.829566174327665e-13 5.209219634233652e-17
3.313861789986515 1.930212952039764e-21 1.697888043445365e-13 1.6973645460158779e-13 5.234974294875231e-17
3.3200813396944477 1.716809869150419e-21 1.513004981731576e-13 1.5124759528780104e-13 5.2902885356546787e-17
3.345076488085796 1.3369720577927016e-21 1.1871287326614033e-13 1.1865750740226973e-13 5.5365863870570073e-17
3.3482140837626964 1.3513636907087164e-21 1.2010328821005819e-13 1.2004758877351188e-13 5.569943654631892e-17
3.3513546224236106 1.365911806805256e-21 1.2151012764265664e-13 1.2145409302932169e-13 5.60346133349863e-17
3.3576445397418455 1.471670254489888e-21 1.31164002941056e-13 1.3110726786174731e-13 5.673507930870319e-17
3.3702598118196083 1.8610083980734546e-21 1.664873143828449e-13 1.6642910983026753e-13 5.820455257734914e-17
3.382922481734668 1.9502226848431448e-21 1.751240059320128e-13 1.750643695212249e-13 5.963641078791099e-17
3.389271646505754 1.9964214549709906e-21 1.796089772981748e-13 1.7954861442191296e-13 6.036287626184733e-17
3.395632727569191 2.0463048191964873e-21 1.8444227518609965e-13 1.8438116361409902e-13 6.111157200062913e-17
3.421196662673239 2.2860684732789096e-21 2.0760447333150353e-13 2.075402584883838e-13 6.421484311976112e-17
3.4276182099114902 2.2384408129181287e-21 2.0366082096406188e-13 2.035959096898268e-13 6.4911274235062e-17
3.4340518103208963 2.0286668201625047e-21 1.8492132746901787e-13 1.8485575560648734e-13 6.557186253055005e-17
3.4469541582030403 1.7297128071494458e-21 1.5826283524449814e-13 1.5819599161731594e-13 6.684362718221412e-17
3.472904465399547 1.6462836496871403e-21 1.5176336052641312e-13 1.516935927335162e-13 6.976779289690564e-17
3.4990501388274233 1.5186218113581507e-21 1.410487468085923e-13 1.4097597773673091e-13 7.276907186138863e-17
3.5253949054701885 1.063538613101252e-21 9.952460618167004e-14 9.944890721608281e-14 7.569896558726631e-17
3.5519380250092896 6.351574253154184e-22 5.988474328264449e-14 5.980608795515849e-14 7.865532748601011e-17
3.578680990867387 4.6565683301437675e-22 4.423422265288891e-14 4.415232505974488e-14 8.18975931440305e-17
3.605625307711299 3.975291278357029e-22 3.8046874187156727e-14 3.7961554657285717e-14 8.531952987099818e-17
3.660119384959845 3.4869982551632355e-22 3.3877894751199105e-14 3.3785354029084005e-14 9.254072211510355e-17
3.715437065384467 3.143601396464815e-22 3.10032209510663e-14 3.0903020791387064e-14 1.0020015967923826e-16
3.8285932144167436 2.987784108893551e-22 3.036392229852462e-14 3.0247094957699356e-14 1.1682734082525718e-16
3.94519561050918 2.9767590098630617e-22 3.1173219036559256e-14 3.1038008412996305e-14 1.3521062356295585e-16
4.06534921144712 3.0245807015372835e-22 3.263867103489808e-14 3.2483277207624455e-14 1.5539382727362795e-16
4.189162171576248 3.1060213274228415e-22 3.453830653919275e-14 3.4360825741438344e-14 1.7748079775441413e-16
4.316745939156006 3.2115584131408223e-22 3.679948558133422e-14 3.6598017841097665e-14 2.0146774023656714e-16
4.448215356677963 3.337907046442561e-22 3.9412090964259724e-14 3.918497628952967e-14 2.271146747300576e-16
4.58368876423945 3.4853215446400343e-22 4.2406009373464876e-14 4.21514809201608e-14 2.545284533040785e-16
4.723288106065518 3.6566881064300546e-22 4.5846035807375997e-14 4.556208125351551e-14 2.8395455386048167e-16
4.867139040275056 3.8577971714945637e-22 4.984052132759751e-14 4.952574923529012e-14 3.14772092307376e-16
4.940699165968905 3.977072640789651e-22 5.215805253043739e-14 5.182723838951386e-14 3.3081414092352014e-16
5.015371051989984 4.099713932681267e-22 5.457906052334745e-14 5.4231813836767925e-14 3.472466865795284e-16
5.091171501069577 4.247833160894551e-22 5.740564631319273e-14 5.704124506469982e-14 3.644012484928795e-16
5.129500256944802 4.323475742445727e-22 5.886776067469403e-14 5.84946411283964e-14 3.7311954629762335e-16
5.168117569889187 4.402068998452237e-22 6.038911476411928e-14 6.000711089191854e-14 3.8200387220073264e-16
5.20702561229733 4.498171069014461e-22 6.21720395941272e-14 6.178040642845788e-14 3.9163316566931213e-16
5.246226572918644 4.596408002038017e-22 6.400811651891327e-14 6.360673025905527e-14 4.013862598579939e-16
5.265937586045735 4.646348756370463e-22 6.494667851179157e-14 6.454036979628401e-14 4.0630871550757645e-16
5.285722656980489 4.69684968321291e-22 6.589924914420085e-14 6.54879876520893e-14 4.1126149211155225e-16
5.305582063971359 4.74792002597853e-22 6.686608013973466e-14 6.644983576925012e-14 4.1624437048454025e-16
5.3255160863122235 4.802729627035895e-22 6.78921047047185e-14 6.747081406001936e-14 4.212906446991487e-16
5.365609099470188 4.939131917798658e-22 7.034594832070342e-14 6.991421493232636e-14 4.3173338837703637e-16
5.406003951863644 5.080289276068035e-22 7.290112561069829e-14 7.245881572794452e-14 4.423098827537678e-16
5.446702915881641 5.226434903530335e-22 7.556290856220938e-14 7.510989002323828e-14 4.530185389711162e-16
5.487708281020852 5.3840010271094705e-22 7.842699662258961e-14 7.796309960758986e-14 4.638970149997419e-16
5.529022354014368 5.603333310287874e-22 8.223642755182434e-14 8.17611763742958e-14 4.752511775285426e-16
5.570647458961463 5.834890984098617e-22 8.62795465945018e-14 8.579279491924049e-14 4.86751675261291e-16
5.612585937458331 6.079558744429003e-22 9.057419776334679e-14 9.007580071575138e-14 4.983970475954169e-16
5.654840148729818 6.347966685795744e-22 9.528497069371037e-14 9.477473541450172e-14 5.102352792086339e-16
5.67608639626678 6.531276127742411e-22 9.84048436089086e-14 9.788841992279447e-14 5.164236861141505e-16
5.686739436050992 6.625655469559078e-22 1.0001418760864338e-13 9.949465433558078e-14 5.195332730626018e-16
5.6974124697621304 6.72190917492448e-22 1.0165757250035976e-13 1.01134919410148e-13 5.226530902117172e-16
5.718818669136295 6.92022021500345e-22 1.0504990744290637e-13 1.0452098410572759e-13 5.289233371787983e-16
5.740305295436557 7.138777733429493e-22 1.0877479767846794e-13 1.0823952174958736e-13 5.352759288805866e-16
5.7835210386641895 7.706519488251034e-22 1.1830961301100166e-13 1.1776118344678274e-13 5.484295642189419e-16
5.827062130521658 8.3590445757498835e-22 1.29293211494215e-13 1.2873134708970312e-13 5.61864404511871e-16
5.8489554468988025 8.818035944429544e-22 1.3690509503784437e-13 1.3633600148188681e-13 5.690935559575433e-16
5.870931020387893 9.30972299116152e-22 1.4508187832773086e-13 1.4450549906970637e-13 5.763792580244741e-16
5.892989160043636 9.836724579184298e-22 1.538705786184372e-13 1.5328685712418645e-13 5.837214942507381e-16
5.915130176081913 1.043585720725151e-21 1.6385581853677784e-13 1.6326449238111749e-13 5.913261556603733e-16
5.95966208400165 1.211327680063971e-21 1.916252392817203e-13 1.91016740499212e-13 6.084987825083442e-16
6.004529249263818 1.4530095019405512e-21 2.31588426577349e-13 2.3096068190733656e-13 6.277446700123957e-16
6.027089341400364 1.6210682766108489e-21 2.5934529244180307e-13 2.587065059221334e-13 6.387865196695804e-16
6.049734195844842 1.8194584746751724e-21 2.9217824419321817e-13 2.9152777520399675e-13 6.504689892213364e-16
6.095279466722835 2.3926262045105747e-21 3.8711313782760426e-13 3.8643422672247525e-13 6.789111051291393e-16
6.141167624020661 3.2740642342319513e-21 5.337127530160805e-13 5.329972646703076e-13 7.154883457727877e-16
6.164241091010745 3.837079364779861e-21 6.278412287161391e-13 6.2710294782527e-13 7.382808908689158e-16
6.187401249150058 4.477545144098096e-21 7.353899441524415e-13 7.346282113185253e-13 7.617328339160384e-16
6.1990139391386085 4.790213409856288e-21 7.882190160458407e-13 7.874453401165761e-13 7.736759292645234e-16
6.204828454712694 4.954837700247778e-21 8.160723162539034e-13 8.152926029801758e-13 7.797132737275013e-16
6.210648424152782 5.074977874480363e-21 8.366436735373069e-13 8.358587773031147e-13 7.848962341921559e-16
6.233982942956859 5.482766658577327e-21 9.072663549611611e-13 9.064632208281554e-13 8.031341330058687e-16
6.239830258556775 5.534685210272539e-21 9.16716680675334e-13 9.159108903915037e-13 8.057902838303227e-16
6.245683058788269 5.538862193017361e-21 9.182690250223746e-13 9.17460572465801e-13 8.084525565732443e-16
6.257405133728602 5.526913952270438e-21 9.18007882636786e-13 9.171946962413454e-13 8.131863954409564e-16
6.269149208991335 5.445790850034933e-21 9.062311733322517e-13 9.054158915984617e-13 8.152817337898399e-16
6.280915325867298 5.243446599461446e-21 8.741968174606726e-13 8.733827090803949e-13 8.141083802777614e-16
6.304513850009849 4.744878277691957e-21 7.940468220738339e-13 7.932380247816275e-13 8.087972922062491e-16
6.32820103803542 4.127639599288548e-21 6.93348325406379e-13 6.925479934177464e-13 8.003319886326212e-16
6.3519772230701035 3.561748086753719e-21 6.005394817709293e-13 5.997466155640366e-13 7.928662068924685e-16
6.375842739491607 3.0854033669088857e-21 5.221784908823173e-13 5.213920712246638e-13 7.864196576535351e-16
6.399797922933955 2.7039910604121714e-21 4.593470648284811e-13 4.585633235814789e-13 7.8374124700238e-16
6.42384311029221 2.3866289744972626e-21 4.0695769750431223e-13 4.0617588549550034e-13 7.818120088118121e-16
6.447978639727206 2.1554393385806654e-21 3.6891713562110833e-13 3.681342983598673e-13 7.828372612411017e-16
6.472204850670314 1.9626903540304793e-21 3.3718906007304765e-13 3.364046034187742e-13 7.844566542734555e-16
6.496522083828205 1.83737992308848e-21 3.168467951793362e-13 3.1605831044735616e-13 7.884847319800689e-16
