Dust emission spectrum from A.P. Jones, M. Kohler, N. Ysard, M. Bocchio, and L. Verstraete (2017), A&A, 602A, 46J 
inside the DustPedia framework.

lambda    nu*dP/dnu     j_nu    j_nu(carb.) j_nu(sil)
 (um)   (erg s-1 H-1) (Jy cm2 sr-1 H-1)
0.9927057738263894 1.155815101294337e-22 3.0456384408977338e-15 3.0456384400856393e-15 8.120945343899518e-25
1.0001793341362166 1.174899004885782e-22 3.119233208461233e-15 3.1192332074832432e-15 9.779908240903216e-25
1.0077091589558085 1.1939584583317048e-22 3.1936980669746618e-15 3.1936980657984177e-15 1.1762451154343166e-24
1.0114953028030835 1.2034767165550887e-22 3.2312532395986197e-15 3.2312532383092814e-15 1.2893383633553407e-24
1.0152956718711033 1.2129861102950407e-22 3.26902164178326e-15 3.2690216403704153e-15 1.4128436890485302e-24
1.0229392996569957 1.231965328929318e-22 3.3451668361817133e-15 3.3451668344868756e-15 1.694837549211473e-24
1.0267826658714554 1.2414121597826688e-22 3.3834826700141236e-15 3.3834826681586817e-15 1.8554417349396834e-24
1.0306404723013447 1.2508460295126762e-22 3.4220037426428857e-15 3.4220037406122848e-15 2.0306003572209764e-24
1.03451277320114 1.2602660481154911e-22 3.4607284782234533e-15 3.460728476001887e-15 2.221567163734077e-24
1.0383996230291617 1.26967133077078e-22 3.4996552815946975e-15 3.499655279165e-15 2.429697850974175e-24
1.0403485208654093 1.2743681710722965e-22 3.5191939550347777e-15 3.519193952494125e-15 2.5406530801455734e-24
1.0423010764483396 1.2790609980168882e-22 3.5387825386962794e-15 3.538782536039822e-15 2.656457823715123e-24
1.0462171883269815 1.2884341759223084e-22 3.5781086169871425e-15 3.578108614083713e-15 2.9034305012048044e-24
1.0471985131304309 1.2907747920654966e-22 3.587971009331574e-15 3.587971006363045e-15 2.968529412535405e-24
1.048180758391296 1.2931143098221733e-22 3.597845698959359e-15 3.597845695924333e-15 3.0350258670966576e-24
1.0501480137395462 1.2977899962534284e-22 3.617631865864945e-15 3.617631862692619e-15 3.1723262052127773e-24
1.0521189612883777 1.3024611276040816e-22 3.637466908625482e-15 3.637466905309914e-15 3.315566693922681e-24
1.0531058218030118 1.304791376259997e-22 3.64739269837707e-15 3.647392694987574e-15 3.389495319984687e-24
1.0540936079674168 1.3071087320753457e-22 3.657297833928707e-15 3.6572978304636886e-15 3.465017742994887e-24
1.058054026499678 1.3163656159087854e-22 3.697037085918902e-15 3.69703708213536e-15 3.78354138076329e-24
1.0590464539527713 1.318676636020631e-22 3.707001442106503e-15 3.707001438239055e-15 3.867448897572031e-24
1.06003981227728 1.320986349486282e-22 3.7169775616487125e-15 3.716977557695577e-15 3.953136570218994e-24
1.0620293250338977 1.325601804067624e-22 3.736964982459574e-15 3.736964978329577e-15 4.1299967528793716e-24
1.0660195594769086 1.3348164583962253e-22 3.777079789217616e-15 3.777079784710912e-15 4.506706090356328e-24
1.070024785945596 1.344008747383271e-22 3.817379756390984e-15 3.817379751474811e-15 4.916173350351476e-24
1.0740450607676866 1.3531778463046636e-22 3.85786311913353e-15 3.857863113772433e-15 5.361097480929559e-24
1.07808044048254 1.362322937362687e-22 3.898528097979754e-15 3.8985280921353686e-15 5.8443865781320155e-24
1.0861967418109137 1.3805217487843823e-22 3.9803492629771266e-15 3.980349256038297e-15 6.938830306822313e-24
1.0902777775684922 1.3895372324908883e-22 4.021395442717869e-15 4.021395435160878e-15 7.556990163253957e-24
1.0943741465085532 1.398524869335371e-22 4.062612976869442e-15 4.062612968641886e-15 8.227556833079865e-24
1.1026131145906286 1.416413503821569e-22 4.145554655918092e-15 4.14555464617506e-15 9.743032488681801e-24
1.1109141095355224 1.4341815338062562e-22 4.229159280813606e-15 4.2291592692908105e-15 1.152279593093911e-23
1.1192775983109025 1.45180653827287e-22 4.313362841546385e-15 4.313362827936199e-15 1.3610185382203228e-23
1.1277040513999907 1.4692071827795591e-22 4.397922952209167e-15 4.397922936154e-15 1.6055166489128178e-23
1.1361939428280308 1.486467307340187e-22 4.483088008746604e-15 4.483087989831341e-15 1.8915262578914466e-23
1.1447477501889525 1.5035813690245365e-22 4.568842293577543e-15 4.568842271320929e-15 2.2256613901329407e-23
1.1533659546722406 1.5205531875800546e-22 4.655198204540429e-15 4.655198178385226e-15 2.615520293561048e-23
1.1707974979042381 1.5541249339636015e-22 4.8298889659162425e-15 4.829888929930665e-15 3.598557791866753e-23
1.1884924949847024 1.5870583123190824e-22 5.006782905155636e-15 5.006782855890709e-15 4.9264926166178234e-23
1.2064549276569216 1.6196100592529702e-22 5.1866984605334884e-15 5.186698393418969e-15 6.711451981182801e-23
1.2246888378427687 1.6514298264732899e-22 5.36852916447801e-15 5.368529073491e-15 9.098701111717395e-23
1.2431983285522175 1.6824451533526952e-22 5.552016728648781e-15 5.552016605890923e-15 1.2275785821100475e-22
1.2619875648066055 1.712646917582596e-22 5.737099021931839e-15 5.737098857095827e-15 1.6483601172064177e-22
1.3004222497298317 1.7701211861828135e-22 6.110219679637969e-15 6.110219386585751e-15 2.9305221646320665e-22
1.3400274889804893 1.8236470748153295e-22 6.486701821246945e-15 6.4867013097299335e-15 5.115170118985353e-22
1.3808389325824078 1.87304748700316e-22 6.865327265181866e-15 6.865326388184104e-15 8.769977602874086e-22
1.4228933163050095 1.918575793598029e-22 7.246373801061907e-15 7.246372323405414e-15 1.4776564949016867e-21
1.466228494730424 1.961315402092064e-22 7.633408905367695e-15 7.633406457425202e-15 2.4479424929429052e-21
1.5108834753276823 2.0004884649666562e-22 8.022993787062149e-15 8.02298979798525e-15 3.989076896164444e-21
1.5568984535646726 2.0354697770532443e-22 8.411905373506414e-15 8.411898972620696e-15 6.400885718558882e-21
1.6043148490894465 2.0663428163598556e-22 8.79956920146227e-15 8.799559069264406e-15 1.0132197864448766e-20
1.6531753430134553 2.0932191397778403e-22 9.185505242746323e-15 9.185489438955137e-15 1.5803791184120983e-20
1.7035239163302658 2.116410150191623e-22 9.570122654813702e-15 9.570098359823832e-15 2.4294989871564883e-20
1.755405889504358 2.1376067857106295e-22 9.960354680780679e-15 9.9603178519938e-15 3.68287868778642e-20
1.8088679632656115 2.156421309665085e-22 1.0354041825074085e-14 1.035398675350502e-14 5.507156906833917e-20
1.8639582606462262 2.1725935436823345e-22 1.0749396950729548e-14 1.074931568461421e-14 8.126611533888547e-20
1.9207263702978936 2.1863434641715937e-22 1.1146879866329008e-14 1.1146761481075084e-14 1.1838525392484388e-19
1.979223391128241 2.1981572319474816e-22 1.154843147839668e-14 1.1548261160760296e-14 1.7031763638712253e-19
2.039501978296691 2.208607711297395e-22 1.195672244975705e-14 1.1956480374237592e-14 2.4207551945926323e-19
2.1016163906111602 2.2192847203494015e-22 1.2380434961182128e-14 1.2380094904644402e-14 3.4005653772583203e-19
2.1656225393682647 2.231108114514309e-22 1.2825455897511491e-14 1.2824983605701481e-14 4.722918100076929e-19
2.231578038680979 2.2441339418728594e-22 1.3293222874803888e-14 1.3292574144061576e-14 6.48730742314138e-19
2.299542257339062 2.2589015975041967e-22 1.3788217971896034e-14 1.3787336422131133e-14 8.81549764903754e-19
2.369576372248914 2.276603743063315e-22 1.4319491280023296e-14 1.4318305787815297e-14 1.1854922080030799e-18
2.4417434235010123 2.2986462619539137e-22 1.4898467663793966e-14 1.4896889501440252e-14 1.5781623537109373e-18
2.5161083711144245 2.327447100777179e-22 1.5544565765838524e-14 1.55424853657234e-14 2.0804001151242044e-18
2.5927381535095444 2.3669676395792884e-22 1.6289974785589967e-14 1.6287258210757716e-14 2.716574832254879e-18
2.6717017477616296 2.421904590369445e-22 1.7175699686981987e-14 1.7172184984200497e-14 3.514702781489126e-18
2.753070231689431 2.4993297580299012e-22 1.8264604971072796e-14 1.8260098310921256e-14 4.506660151546166e-18
2.836916847834745 2.615336905534508e-22 1.9694442058291486e-14 1.9688713551213043e-14 5.728507078450682e-18
2.9233170693905177 2.805394792035273e-22 2.176904323566782e-14 2.176182396467365e-14 7.219270994167278e-18
2.967498994190263 2.9632349492723673e-22 2.3341356979513437e-14 2.333329194167463e-14 8.065037838807094e-18
3.0123486681368425 3.1466954250584345e-22 2.5161085885564026e-14 2.5152087999010186e-14 8.99788655384123e-18
3.0578761833420214 3.5507845985888074e-22 2.8821306033033616e-14 2.8811277946688656e-14 1.002808634495369e-17
3.1040917844459814 4.069620029606882e-22 3.3531875849436884e-14 3.352072094127614e-14 1.115490816074363e-17
3.127460860933648 4.615653221568612e-22 3.8317263788657097e-14 3.830550327314053e-14 1.1760515516556513e-17
3.1510058709225794 5.342036101586005e-22 4.4681265396727917e-14 4.466887194652904e-14 1.2393450198870424e-17
3.162844764501044 6.017396525987442e-22 5.051913907129076e-14 5.0506417430090524e-14 1.272164120022878e-17
3.1747281389236908 6.802169507695316e-22 5.732227583008241e-14 5.730921887140564e-14 1.3056958676766745e-17
3.1986289994194426 8.989232132629101e-22 7.632308193552974e-14 7.630933082415052e-14 1.375111137919644e-17
3.2227097969389145 1.4141490654275864e-21 1.2097226808237617e-13 1.2095777966073975e-13 1.448842163645429e-17
3.2348180950136065 1.90258786562591e-21 1.6336688169651494e-13 1.633519993474708e-13 1.4882349044154482e-17
3.240889293275058 2.2677470770752017e-21 1.9508696166268642e-13 1.950718715155061e-13 1.5090147180381572e-17
3.2469718861334385 2.6902050105974595e-21 2.318640078914611e-13 2.318487027221214e-13 1.5305169339660178e-17
3.2714166318528037 4.94271613776388e-21 4.292111147368249e-13 4.291949195379743e-13 1.6195198850669103e-17
3.2744851364798273 5.083546263502204e-21 4.4185445358738606e-13 4.418381530965512e-13 1.630049083484324e-17
3.2775565192852394 5.2284142741709714e-21 4.548724293611169e-13 4.548560230137513e-13 1.6406347365581913e-17
3.283707930232385 5.089187099318044e-21 4.435906386960503e-13 4.4357404222948255e-13 1.6596466567760913e-17
3.2898708863219004 4.647493724329998e-21 4.058514473534274e-13 4.058346771162766e-13 1.6770237150810073e-17
3.29141343181113 4.543324951706019e-21 3.969407355016395e-13 3.969239216095728e-13 1.6813892066586116e-17
3.292184975758714 4.492139139721407e-21 3.925607379165475e-13 3.925439021651225e-13 1.6835751424971013e-17
3.295272960557952 4.169138977067599e-21 3.646760148844043e-13 3.646590939627197e-13 1.692092168462961e-17
3.3076538914384823 3.0499271700769218e-21 2.6778050802467727e-13 2.6776324462558276e-13 1.7263399094465603e-17
3.310756385682612 2.8220726194593975e-21 2.4800751656750794e-13 2.4799016676251873e-13 1.7349804989253698e-17
3.313861789986515 2.611815303863454e-21 2.2974511550298754e-13 2.297276789764196e-13 1.7436526567999956e-17
3.3200813396944477 2.316992832613083e-21 2.0419393908276768e-13 2.041763163703846e-13 1.7622712383060768e-17
3.345076488085796 1.7914126713892866e-21 1.5906371729046852e-13 1.5904526570914506e-13 1.8451581323447522e-17
3.3482140837626964 1.8111847484180446e-21 1.6097017060361594e-13 1.609516067694533e-13 1.8563834162645907e-17
3.3513546224236106 1.831174368341324e-21 1.628994127765374e-13 1.6288073614048798e-13 1.8676636049452136e-17
3.3576445397418455 1.977020781363728e-21 1.7620384647320645e-13 1.761849341249142e-13 1.891234829229579e-17
3.3702598118196083 2.514657181081827e-21 2.249632624469888e-13 2.2494385558557894e-13 1.940686140979939e-17
3.382922481734668 2.637333460309679e-21 2.368244427354281e-13 2.368045537199803e-13 1.9889015447782345e-17
3.389271646505754 2.7008800505341823e-21 2.4298591986857606e-13 2.4296578616704546e-13 2.013370153058604e-17
3.395632727569191 2.7693943645570224e-21 2.4961745322333286e-13 2.495970673440623e-13 2.0385879270628944e-17
3.421196662673239 3.0984649920887027e-21 2.813805449563175e-13 2.813591134736566e-13 2.1431482660897064e-17
3.4276182099114902 3.0324383376822187e-21 2.759013675104235e-13 2.7587970105008555e-13 2.1666460337932646e-17
3.4340518103208963 2.7426561303567765e-21 2.500043907535235e-13 2.4998250125222194e-13 2.188950130158258e-17
3.4469541582030403 2.329878555851581e-21 2.1317595874895423e-13 2.1315363952792095e-13 2.231922103329194e-17
3.472904465399547 2.2143673186913946e-21 2.0413239588957445e-13 2.0410908903204904e-13 2.330685752543868e-17
3.4990501388274233 2.0376536561396774e-21 1.8925613505538247e-13 1.8923181374120567e-13 2.4321314176795173e-17
3.5253949054701885 1.4083663008171611e-21 1.317931476316028e-13 1.317678347831378e-13 2.5312848464972944e-17
3.5519380250092896 8.1664726206588385e-22 7.699620549504548e-14 7.696989116122228e-14 2.6314333823175735e-17
3.578680990867387 5.821863038571127e-22 5.530372747581451e-14 5.527631459327456e-14 2.7412882539937045e-17
3.605625307711299 4.87540829755926e-22 4.666174957245423e-14 4.6633176614464195e-14 2.857295799003794e-17
3.660119384959845 4.188789772269153e-22 4.0696142829928247e-14 4.06651189674102e-14 3.1023862518050423e-17
3.715437065384467 3.703678961175005e-22 3.652688833077047e-14 3.6493260620829176e-14 3.3627709941292635e-17
3.8285932144167436 3.465693320034126e-22 3.52207652376202e-14 3.518147015936871e-14 3.92950782514739e-17
3.94519561050918 3.4285038557225686e-22 3.590398191724771e-14 3.585839791585482e-14 4.558400139288492e-17
4.06534921144712 3.4735707183023047e-22 3.7483784755189496e-14 3.743126880609837e-14 5.251594909112045e-17
4.189162171576248 3.566109485103115e-22 3.965439047741822e-14 3.95942570382378e-14 6.013343918041558e-17
4.316745939156006 3.69309199516031e-22 4.231711466631308e-14 4.2248671310549367e-14 6.844335576371245e-17
4.448215356677963 3.8500890289026265e-22 4.54596419002526e-14 4.538226956151921e-14 7.73723387333953e-17
4.58368876423945 4.0375382325986505e-22 4.91248459989606e-14 4.9037879837900717e-14 8.696616105986364e-17
4.723288106065518 4.2594841580145865e-22 5.340364218810435e-14 5.33063226675715e-14 9.731952053286325e-17
4.867139040275056 4.524069158914735e-22 5.844837231685282e-14 5.834014173204639e-14 1.0823058480643439e-16
4.940699165968905 4.682735241979057e-22 6.141259483980144e-14 6.129865760470832e-14 1.1393723509312637e-16
5.015371051989984 4.846623358039006e-22 6.452258716970481e-14 6.440278500508281e-14 1.1980216462200196e-16
5.091171501069577 5.0459028942542195e-22 6.819084128465938e-14 6.806489921806958e-14 1.259420665897834e-16
5.129500256944802 5.147997480403983e-22 7.009431801713263e-14 6.996524726070873e-14 1.2907075642389845e-16
5.168117569889187 5.254307243109403e-22 7.20804156458339e-14 7.194815215405652e-14 1.3226349177736467e-16
5.20702561229733 5.384638790432953e-22 7.44244651754027e-14 7.428874653776939e-14 1.357186376333465e-16
5.246226572918644 5.518144322426202e-22 7.684392347272625e-14 7.670469925608738e-14 1.3922421663888015e-16
5.265937586045735 5.586118987508475e-22 7.808278995693208e-14 7.79417941399528e-14 1.4099581697926768e-16
5.285722656980489 5.654925698004018e-22 7.93415549994339e-14 7.9198775098547e-14 1.4277990088689918e-16
5.305582063971359 5.724577902244427e-22 8.06205838942581e-14 8.047600747036261e-14 1.4457642389545723e-16
5.3255160863122235 5.799388052626231e-22 8.198101735224976e-14 8.183462047529964e-14 1.4639687695013446e-16
5.365609099470188 5.985723136612216e-22 8.5252100457732e-14 8.510193557981741e-14 1.5016487791459149e-16
5.406003951863644 6.178949696633161e-22 8.86666808715811e-14 8.851269293851082e-14 1.5398793307028593e-16
5.446702915881641 6.379402088270412e-22 9.22323123840945e-14 9.2074446614536e-14 1.5786576955851314e-16
5.487708281020852 6.59585202527396e-22 9.607963704029656e-14 9.591782530782734e-14 1.6181173246920706e-16
5.529022354014368 6.896997257598537e-22 1.0122268012475129e-13 1.0105674778076339e-13 1.6593234398789808e-16
5.570647458961463 7.215587797654472e-22 1.0669567696998219e-13 1.0652556320272065e-13 1.7011376726155506e-16
5.612585937458331 7.552882218315704e-22 1.1252399663904272e-13 1.1234964082799243e-13 1.7435581105030206e-16
5.654840148729818 7.923438724531853e-22 1.1893330006752974e-13 1.1875462452358132e-13 1.786755439484043e-16
5.67608639626678 8.176138950272522e-22 1.2318751481180765e-13 1.2300658137794016e-13 1.8093343386748083e-16
5.686739436050992 8.306348576298269e-22 1.2538422932938402e-13 1.252021605333293e-13 1.8206879605472026e-16
5.6974124697621304 8.43921334569137e-22 1.2762891021140025e-13 1.274457017763554e-13 1.8320843504483595e-16
5.718818669136295 8.71316420038363e-22 1.3226704705157844e-13 1.3208154651260128e-13 1.8550053897715924e-16
5.740305295436557 9.015155708258692e-22 1.373654951622412e-13 1.371776707163932e-13 1.8782444584801285e-16
5.7835210386641895 9.799142295909644e-22 1.5043532098196438e-13 1.502426818323055e-13 1.9263914965893652e-16
5.827062130521658 1.070171519302182e-21 1.655283822527166e-13 1.6533081734441504e-13 1.9756490830158164e-16
5.8489554468988025 1.1335611559109642e-21 1.759919088096196e-13 1.7579169588193812e-13 2.002129276815205e-16
5.870931020387893 1.2015499482365645e-21 1.8724845364383854e-13 1.8704556942963064e-13 2.0288421420792928e-16
5.892989160043636 1.2745075574780023e-21 1.9936434505618074e-13 1.9915876623262997e-13 2.0557882355083113e-16
5.915130176081913 1.357478353048202e-21 2.131408299934489e-13 2.1293246068560433e-13 2.0836930784453608e-16
5.95966208400165 1.5896066870619175e-21 2.5146685474567546e-13 2.512522013682803e-13 2.1465337739503824e-16
6.004529249263818 1.9241928250252174e-21 3.0668814497349814e-13 3.064664570628599e-13 2.2168791063833029e-16
6.027089341400364 2.1568235107185923e-21 3.450576587077025e-13 3.4483194382103466e-13 2.257148866677043e-16
6.049734195844842 2.431649470098463e-21 3.904871051226266e-13 3.902571310003909e-13 2.2997412223574394e-16
6.095279466722835 3.2256195033813767e-21 5.218866553571444e-13 5.21646343941986e-13 2.4031141515846135e-16
6.141167624020661 4.4473214976233e-21 7.249681222582795e-13 7.247145568592765e-13 2.535653990028189e-16
6.164241091010745 5.2275975826187145e-21 8.553644523568906e-13 8.551026479485723e-13 2.618044083182094e-16
6.187401249150058 6.1160771267457296e-21 1.0045016793628623e-12 1.0042313916009077e-12 2.7028776195466323e-16
6.1990139391386085 6.549890050391516e-21 1.077769913153605e-12 1.0774953038404252e-12 2.746093131797183e-16
6.204828454712694 6.778374287480828e-21 1.1164126738084187e-12 1.1161358792834855e-12 2.7679452493324465e-16
6.210648424152782 6.945156025126596e-21 1.1449549128815929e-12 1.1446762373899593e-12 2.7867549163356443e-16
6.233982942956859 7.511638081494683e-21 1.2429959045080916e-12 1.2427105888322333e-12 2.8531567585795275e-16
6.239830258556775 7.58396904222649e-21 1.256142068175909e-12 1.2558557696923728e-12 2.8629848353565817e-16
6.245683058788269 7.590111499900019e-21 1.2583386341712615e-12 1.2580513503867841e-12 2.872837844773234e-16
6.257405133728602 7.574251392077319e-21 1.2580659918078276e-12 1.2577769471521698e-12 2.8904465565794614e-16
6.269149208991335 7.462468492640333e-21 1.2418254325718418e-12 1.2415355666176892e-12 2.8986595415268317e-16
6.280915325867298 7.182580336264157e-21 1.1974926705199307e-12 1.1972031480247811e-12 2.895224951498862e-16
6.304513850009849 6.49252201782595e-21 1.0865118499956137e-12 1.0862240714074081e-12 2.877785882055646e-16
6.32820103803542 5.6374737788865456e-21 9.469656713214687e-13 9.466807613037868e-13 2.8491001768196904e-16
6.3519772230701035 4.853379783574198e-21 8.183190133251806e-13 8.180366155436149e-13 2.823977815656677e-16
6.375842739491607 4.193599747282726e-21 7.097313793348267e-13 7.0945113107231e-13 2.8024826251644936e-16
6.399797922933955 3.664947125338135e-21 6.225918160095683e-13 6.223123697416156e-13 2.7944626795254817e-16
6.42384311029221 3.2252953528408285e-21 5.499634776033627e-13 5.496845652437009e-13 2.7891235966182203e-16
6.447978639727206 2.9049294096050417e-21 4.971971225498269e-13 4.969176855225014e-13 2.79437027325645e-16
6.472204850670314 2.6379689110286037e-21 4.532015229936991e-13 4.529213471116065e-13 2.801758820925295e-16
6.496522083828205 2.4644317638614235e-21 4.249786865011089e-13 4.2469690687983814e-13 2.817796212708105e-16
