Dust emission spectrum from A.P. Jones, M. Kohler, N. Ysard, M. Bocchio, and L. Verstraete (2017), A&A, 602A, 46J 
inside the DustPedia framework.

lambda    nu*dP/dnu     j_nu    j_nu(carb.) j_nu(sil)
 (um)   (erg s-1 H-1) (Jy cm2 sr-1 H-1)
0.9927057738263894 2.965515085348335e-20 7.814300687787062e-13 7.814300687787062e-13 7.498962471636651e-29
1.0001793341362166 3.0145286713369715e-20 8.003256365347689e-13 8.003256365347686e-13 9.03777894253955e-29
1.0077091589558085 3.063472945676081e-20 8.194428840100184e-13 8.194428840100184e-13 1.087873354939605e-28
1.0114953028030835 3.0879130640620804e-20 8.290836835141021e-13 8.290836835141018e-13 1.1929763648027996e-28
1.0152956718711033 3.112328641245623e-20 8.387787459577001e-13 8.387787459577e-13 1.307821309747327e-28
1.0229392996569957 3.161052688568851e-20 8.583235561031154e-13 8.583235561031151e-13 1.5702732977690731e-28
1.0267826658714554 3.185302090109726e-20 8.681576328793817e-13 8.681576328793817e-13 1.7198770619580954e-28
1.0306404723013447 3.209516230216447e-20 8.780438433459856e-13 8.780438433459855e-13 1.88313709881569e-28
1.03451277320114 3.233692772396479e-20 8.879817625803648e-13 8.879817625803647e-13 2.0612406801105027e-28
1.0383996230291617 3.257829393085628e-20 8.979709603370494e-13 8.979709603370494e-13 2.255472730836998e-28
1.0403485208654093 3.269882010402277e-20 9.029846527791094e-13 9.029846527791093e-13 2.359067017551694e-28
1.0423010764483396 3.281923782093697e-20 9.080110011494449e-13 9.080110011494446e-13 2.467223367538163e-28
1.0462171883269815 3.3059736430403213e-20 9.18101444431744e-13 9.181014444317438e-13 2.6979959772795343e-28
1.0471985131304309 3.311978883009778e-20 9.206318785279212e-13 9.206318785279206e-13 2.7588489705830834e-28
1.048180758391296 3.317981161752891e-20 9.231654279413595e-13 9.231654279413591e-13 2.8210184204715082e-28
1.0501480137395462 3.3299766937809416e-20 9.28241844580924e-13 9.282418445809239e-13 2.949415872809316e-28
1.0521189612883777 3.3419599561490266e-20 9.333306378828665e-13 9.333306378828663e-13 3.0834120698469024e-28
1.0531058218030118 3.34793770197572e-20 9.35877087401465e-13 9.358770874014647e-13 3.152586390005179e-28
1.0540936079674168 3.353882145448695e-20 9.384181747700708e-13 9.384181747700706e-13 3.2232631407808972e-28
1.058054026499678 3.377626241058334e-20 9.486125529756156e-13 9.486125529756154e-13 3.5214743271338486e-28
1.0590464539527713 3.383553671743308e-20 9.51168618445209e-13 9.511686184452085e-13 3.600063357560879e-28
1.06003981227728 3.3894775959034823e-20 9.537276577145359e-13 9.537276577145355e-13 3.6803331406434367e-28
1.0620293250338977 3.401314786684242e-20 9.5885462837772e-13 9.588546283777197e-13 3.846052639290365e-28
1.0660195594769086 3.4249455759512735e-20 9.691439323155131e-13 9.691439323155127e-13 4.199212774053002e-28
1.070024785945596 3.448516419127421e-20 9.794799917477681e-13 9.794799917477677e-13 4.583344929418851e-28
1.0740450607676866 3.47202514348403e-20 9.89862329355309e-13 9.898623293553086e-13 5.001027815113112e-28
1.07808044048254 3.495469593646136e-20 1.0002904636432333e-12 1.0002904636432327e-12 5.45504255560751e-28
1.0861967418109137 3.542115727071255e-20 1.0212702361293838e-12 1.0212702361293834e-12 6.484295224296434e-28
1.0902777775684922 3.565219018097069e-20 1.0317935479832953e-12 1.0317935479832947e-12 7.066248665063599e-28
1.0943741465085532 3.588247946209066e-20 1.0423599172334994e-12 1.0423599172334986e-12 7.697995655178471e-28
1.1026131145906286 3.634074526259459e-20 1.0636198067613214e-12 1.0636198067613204e-12 9.127326711097934e-28
1.1109141095355224 3.679579289877438e-20 1.0850458283321417e-12 1.0850458283321407e-12 1.080841337620527e-27
1.1192775983109025 3.724704153806086e-20 1.1066213072640812e-12 1.1066213072640797e-12 1.2783043969020814e-27
1.1277040513999907 3.769239616613002e-20 1.1282837176794286e-12 1.1282837176794268e-12 1.5099494510203593e-27
1.1361939428280308 3.813400668843505e-20 1.1500966571292453e-12 1.1500966571292433e-12 1.7813451785265036e-27
1.1447477501889525 3.8571725790472976e-20 1.1720558378700742e-12 1.172055837870072e-12 2.0989076482962744e-27
1.1533659546722406 3.90056479715643e-20 1.1941642284354643e-12 1.1941642284354617e-12 2.4700229165618266e-27
1.1707974979042381 3.986350151776809e-20 1.2388726409041892e-12 1.238872640904186e-12 3.4081449068109366e-27
1.1884924949847024 4.070431903944403e-20 1.2841222477508774e-12 1.284122247750873e-12 4.679627476586225e-27
1.2064549276569216 4.1534670101118274e-20 1.3301214588133671e-12 1.330121458813361e-12 6.394542672028886e-27
1.2246888378427687 4.2345490693913235e-20 1.3765828746104593e-12 1.3765828746104509e-12 8.696128501141882e-27
1.2431983285522175 4.313488349074367e-20 1.4234377522006564e-12 1.423437752200645e-12 1.1770163400650003e-26
1.2619875648066055 4.39025520161252e-20 1.4706667535859822e-12 1.4706667535859659e-12 1.5856370805690558e-26
1.3004222497298317 4.535995782967223e-20 1.5657645881076266e-12 1.5657645881075985e-12 2.838097290801484e-26
1.3400274889804893 4.671199484248471e-20 1.6615428840556075e-12 1.6615428840555578e-12 4.9887883289704375e-26
1.3808389325824078 4.7953638532867773e-20 1.7576565696746664e-12 1.7576565696745804e-12 8.616058197861632e-26
1.4228933163050095 4.909090935624727e-20 1.8541413928833613e-12 1.854141392883216e-12 1.4627989448854225e-25
1.466228494730424 5.0151131278302014e-20 1.9518741947659733e-12 1.951874194765729e-12 2.442565963519867e-25
1.5108834753276823 5.111370330426515e-20 2.049923962199365e-12 2.0499239621989633e-12 4.013242424064314e-25
1.5568984535646726 5.1961951186720174e-20 2.147410987542341e-12 2.1474109875416912e-12 6.495209896786023e-25
1.6043148490894465 5.2697405525249614e-20 2.2441313367055443e-12 2.2441313367045067e-12 1.0373896509482711e-24
1.6531753430134553 5.332228243137103e-20 2.3398988453762275e-12 2.339898845374594e-12 1.6333825038657461e-24
1.7035239163302658 5.3843976422416255e-20 2.434752349580091e-12 2.434752349577555e-12 2.5361596282930095e-24
1.755405889504358 5.430528977066074e-20 2.5303996542962594e-12 2.5303996542923743e-12 3.885768202597488e-24
1.8088679632656115 5.469563846536114e-20 2.6262072526422766e-12 2.626207252636399e-12 5.877732984699544e-24
1.8639582606462262 5.500784847261853e-20 2.721637465770799e-12 2.7216374657620165e-12 8.782801275460636e-24
1.9207263702978936 5.524710090699072e-20 2.816724850715628e-12 2.8167248507026553e-12 1.2972355841897567e-23
1.979223391128241 5.542547220403826e-20 2.911881182125595e-12 2.9118811821066424e-12 1.8952639797763402e-23
2.039501978296691 5.555741875716712e-20 3.0077076735105444e-12 3.0077076734831347e-12 2.7409893511075666e-23
2.1016163906111602 5.568345423383854e-20 3.106340422365741e-12 3.106340422326467e-12 3.927472246796181e-23
2.1656225393682647 5.58270681533365e-20 3.209201722812314e-12 3.209201722756508e-12 5.580554617883044e-23
2.231578038680979 5.598993557783996e-20 3.31658765323512e-12 3.316587653156413e-12 7.870689472393523e-23
2.299542257339062 5.618611893221714e-20 3.429571503638042e-12 3.4295715035277443e-12 1.1029783010560929e-22
2.369576372248914 5.644672184119203e-20 3.5504129502275475e-12 3.550412950073792e-12 1.5375441811610014e-22
2.4417434235010123 5.680847288791881e-20 3.681989744828095e-12 3.681989744614645e-12 2.1344900994077547e-22
2.5161083711144245 5.733427789579654e-20 3.8292447252204814e-12 3.82924472492503e-12 2.9545058622569323e-22
2.5927381535095444 5.812708103673327e-20 4.000429362087233e-12 4.000429361678999e-12 4.0823227555241093e-22
2.6717017477616296 5.930978262381419e-20 4.206140154726002e-12 4.206140154162361e-12 5.6364037341595815e-22
2.753070231689431 6.106742375542293e-20 4.462685917736199e-12 4.462685916957928e-12 7.782705748579289e-22
2.836916847834745 6.381924611132046e-20 4.805822309483185e-12 4.805822308407687e-12 1.0754962545858652e-21
2.9233170693905177 6.84886140046026e-20 5.3145161730891684e-12 5.314516171601121e-12 1.4880470729076008e-21
2.967498994190263 7.245401962749998e-20 5.707192192577992e-12 5.707192190828044e-12 1.7499506341272367e-21
3.0123486681368425 7.708511002587767e-20 6.163752164934245e-12 6.1637521628746614e-12 2.059584712724483e-21
3.0578761833420214 8.744763479452145e-20 7.098022913807639e-12 7.098022911380097e-12 2.42754174825031e-21
3.1040917844459814 1.0080070369879902e-19 8.305533827172822e-12 8.305533824310073e-12 2.862747231212569e-21
3.127460860933648 1.1492681181324106e-19 9.540753503879428e-12 9.540753500766957e-12 3.1124678538696697e-21
3.1510058709225794 1.3374781619872616e-19 1.1186786382880935e-11 1.1186786379495219e-11 3.3857208133233494e-21
3.162844764501044 1.5126761017423499e-19 1.269969396627049e-11 1.2699693962734678e-11 3.535815648891395e-21
3.1747281389236908 1.7164153293117594e-19 1.4464331245271498e-11 1.4464331241578725e-11 3.692773932781334e-21
3.1986289994194426 2.2846993489890996e-19 1.9398241478045633e-11 1.9398241474012077e-11 4.033552843323708e-21
3.2227097969389145 3.624292424500021e-19 3.100372411256192e-11 3.100372410811553e-11 4.446387268918959e-21
3.2348180950136065 4.894647122305763e-19 4.2028189700077485e-11 4.202818969537699e-11 4.70049903158946e-21
3.240889293275058 5.844404169950113e-19 5.027752273480244e-11 5.0277522729950945e-11 4.8514950933146194e-21
3.2469718861334385 6.943128122918312e-19 5.98415922779888e-11 5.984159227296914e-11 5.019658069196451e-21
3.2714166318528037 1.2803910485141787e-18 1.1118544013341759e-10 1.1118544012763848e-10 5.77911278076963e-21
3.2744851364798273 1.3170290191224957e-18 1.1447424837679928e-10 1.1447424837093812e-10 5.8611313948355014e-21
3.2775565192852394 1.3547193378824937e-18 1.1786068280191962e-10 1.1786068279597516e-10 5.944434012176168e-21
3.283707930232385 1.318474360495951e-18 1.1492265311981505e-10 1.1492265311376431e-10 6.050725256532711e-21
3.2898708863219004 1.2035281856674603e-18 1.0510044446680792e-10 1.0510044446069876e-10 6.109132783436171e-21
3.29141343181113 1.1764209811573897e-18 1.0278142428373466e-10 1.0278142427761087e-10 6.123803203474091e-21
3.292184975758714 1.1631014569200764e-18 1.0164154582012192e-10 1.0164154581399077e-10 6.131148728363004e-21
3.295272960557952 1.0790272589566152e-18 9.438288407087572e-11 9.438288406472546e-11 6.150258201968941e-21
3.3076538914384823 7.877674597349462e-19 6.91651829075686e-11 6.916518290134687e-11 6.221726100526383e-21
3.310756385682612 7.284884298584344e-19 6.402053763306885e-11 6.40205376268291e-11 6.239752883566557e-21
3.313861789986515 6.73794214154477e-19 5.926947794783962e-11 5.926947794158179e-11 6.257844507307997e-21
3.3200813396944477 5.970917002136329e-19 5.262101140068942e-11 5.262101139436581e-11 6.323591198675077e-21
3.345076488085796 4.6026170237110985e-19 4.086771209941874e-11 4.086771209264938e-11 6.76936803381139e-21
3.3482140837626964 4.653926919691908e-19 4.136206485251691e-11 4.13620648456703e-11 6.846614889868084e-21
3.3513546224236106 4.705804105308683e-19 4.186235558171146e-11 4.186235557478669e-11 6.924766139609477e-21
3.3576445397418455 5.08493440085231e-19 4.5319958643837077e-11 4.531995863672605e-11 7.111015269146118e-21
3.3702598118196083 6.483326955056411e-19 5.8000366582474995e-11 5.8000366574925614e-11 7.549380682247356e-21
3.382922481734668 6.801830650825018e-19 6.107834969314964e-11 6.107834968522813e-11 7.92150990533797e-21
3.389271646505754 6.966837811780232e-19 6.267747780712384e-11 6.267747779900919e-11 8.114646379567129e-21
3.395632727569191 7.144642150068684e-19 6.43977398277652e-11 6.439773981944386e-11 8.32132449166725e-21
3.421196662673239 7.998396367641148e-19 7.263574493983074e-11 7.263574493061067e-11 9.220080696659623e-21
3.4276182099114902 7.826352530429824e-19 7.120676911817005e-11 7.120676910878163e-11 9.388446084363152e-21
3.4340518103208963 7.072446869752509e-19 6.446826312779988e-11 6.446826311827678e-11 9.523076011297084e-21
3.4469541582030403 5.998742914364445e-19 5.488645615654134e-11 5.488645614679754e-11 9.743799408528089e-21
3.472904465399547 5.697824999776521e-19 5.2525642821139935e-11 5.252564281062166e-11 1.0518261125994342e-20
3.4990501388274233 5.237583811157135e-19 4.864638630522456e-11 4.8646386293895995e-11 1.1328564137792846e-20
3.5253949054701885 3.599688415001023e-19 3.368543158344075e-11 3.3685431571454354e-11 1.1986398484803393e-20
3.5519380250092896 2.0602367483525173e-19 1.942459362972762e-11 1.942459361710727e-11 1.2620350335356722e-20
3.578680990867387 1.4498102923062864e-19 1.3772208787140513e-11 1.3772208773620976e-11 1.3519535465421885e-20
3.605625307711299 1.2028811721640634e-19 1.151258245366628e-11 1.1512582439077194e-11 1.458908671217364e-20
3.660119384959845 1.0226872816200559e-19 9.935907492586998e-12 9.935907475503286e-12 1.7083709704190515e-20
3.715437065384467 8.950410953940488e-20 8.827186828454729e-12 8.827186808462759e-12 1.9991968015113897e-20
3.8285932144167436 8.300771662510409e-20 8.43581653132224e-12 8.43581650390064e-12 2.7421600770090484e-20
3.94519561050918 8.173802078960179e-20 8.55976992845755e-12 8.559769890957638e-12 3.7499912214990395e-20
4.06534921144712 8.261310254319588e-20 8.914894800820492e-12 8.914894749737893e-12 5.108260199268498e-20
4.189162171576248 8.472874199189125e-20 9.421658627258122e-12 9.421658557978004e-12 6.92801163132282e-20
4.316745939156006 8.77474088871979e-20 1.005449408901126e-11 1.0054493995498224e-11 9.351303535632655e-20
4.448215356677963 9.155502943119203e-20 1.0810292491587838e-11 1.0810292366014493e-11 1.2557334334704631e-19
4.58368876423945 9.61639718008855e-20 1.1700298630550407e-11 1.1700298462790657e-11 1.677597474042748e-19
4.723288106065518 1.0168004619830205e-19 1.2748221623566484e-11 1.2748221400577183e-11 2.2298929993422742e-19
4.867139040275056 1.0831633117332478e-19 1.399384719824381e-11 1.3993846903355538e-11 2.948882707988494e-19
4.940699165968905 1.123236295324054e-19 1.4730889522795747e-11 1.4730889184242348e-11 3.3855340096232163e-19
5.015371051989984 1.164716791254762e-19 1.5505752178391044e-11 1.5505751790250093e-11 3.881409554319596e-19
5.091171501069577 1.21540267591529e-19 1.6425074502457174e-11 1.642507405774347e-11 4.447137016891246e-19
5.129500256944802 1.2414085801513213e-19 1.6902822531975166e-11 1.6902822056213345e-11 4.757618210382388e-19
5.168117569889187 1.2685220661946286e-19 1.7402027242912224e-11 1.7402026734077195e-11 5.088350232135386e-19
5.20702561229733 1.3018550156423437e-19 1.7993753535937084e-11 1.7993752991551267e-11 5.443858234685387e-19
5.246226572918644 1.3360347476069776e-19 1.860519513503297e-11 1.860519455282688e-11 5.822060887394364e-19
5.265937586045735 1.3534505987414965e-19 1.8918537012000213e-11 1.8918536409992658e-11 6.020075547524157e-19
5.285722656980489 1.3710884236654495e-19 1.923708522178041e-11 1.9237084599354883e-11 6.224255290823149e-19
5.305582063971359 1.3889518057846112e-19 1.9560936630705367e-11 1.9560935987228127e-11 6.434772420276463e-19
5.3255160863122235 1.4081531435795193e-19 1.990586355850773e-11 1.9905862893241254e-11 6.652664794652697e-19
5.365609099470188 1.4560564001269079e-19 2.0737989990963498e-11 2.0737989279384187e-11 7.115793115189535e-19
5.406003951863644 1.5057837118411586e-19 2.160769230929238e-11 2.160769154845802e-11 7.608343632779509e-19
5.446702915881641 1.557423498211053e-19 2.2516964538956697e-11 2.2516963725757886e-11 8.131988045815898e-19
5.487708281020852 1.6132401771304248e-19 2.3499546394247223e-11 2.3499545525171202e-11 8.690760246491244e-19
5.529022354014368 1.6909721346627681e-19 2.4817282810756847e-11 2.4817281880225675e-11 9.305311743611407e-19
5.570647458961463 1.7732976767223746e-19 2.622145297001216e-11 2.6221451974058155e-11 9.959540091750978e-19
5.612585937458331 1.8605483497632874e-19 2.7718734412123164e-11 2.7718733346549558e-11 1.0655736000804326e-18
5.654840148729818 1.9564891012804734e-19 2.9367514970615286e-11 2.936751383053291e-11 1.1400823837176404e-18
5.67608639626678 2.0219141669349784e-19 3.046359447929935e-11 3.0463593298192365e-11 1.1811069772754561e-18
5.686739436050992 2.0556403456205776e-19 3.102986566798873e-11 3.1029864465863747e-11 1.2021249794096752e-18
5.6974124697621304 2.090063887296238e-19 3.1608701579278345e-11 3.160870035579158e-11 1.223486762128823e-18
5.718818669136295 2.1610703504634747e-19 3.280534914215647e-11 3.2805347874894474e-11 1.2672619888483125e-18
5.740305295436557 2.2393651739356147e-19 3.412159655600229e-11 3.4121595242846797e-11 1.313155496795035e-18
5.7835210386641895 2.4426319775375e-19 3.7499009044398573e-11 3.749900762926854e-11 1.4151300269768613e-18
5.827062130521658 2.6768693944160283e-19 4.140437793078456e-11 4.1404376404892586e-11 1.5258919755787175e-18
5.8489554468988025 2.841300935035009e-19 4.41128361228571e-11 4.411283453189308e-11 1.590964027975828e-18
5.870931020387893 3.0177785616322024e-19 4.7028787270515e-11 4.702878561188514e-11 1.658629870808479e-18
5.892989160043636 3.2072725375380636e-19 5.016963493949207e-11 5.0169633210507586e-11 1.7289844919561851e-18
5.915130176081913 3.4228247693889137e-19 5.3742566916924036e-11 5.374256511231727e-11 1.8046067397263407e-18
5.95966208400165 4.02575047960461e-19 6.368511276007443e-11 6.368511077131119e-11 1.9887632363936543e-18
6.004529249263818 4.895070390272385e-19 7.802025025676212e-11 7.802024803485454e-11 2.221907615599461e-18
6.027089341400364 5.499485456602665e-19 8.798307169417567e-11 8.798306932366405e-11 2.370511609347918e-18
6.049734195844842 6.213826125395874e-19 9.978489931539895e-11 9.978489677841276e-11 2.536986192004938e-18
6.095279466722835 8.277568729114908e-19 1.3392629397230875e-10 1.3392629098368664e-10 2.9886221073211955e-18
6.141167624020661 1.1454053845521428e-18 1.8671517031252524e-10 1.8671516666728744e-10 3.645237819343062e-18
6.164241091010745 1.348260949937566e-18 2.2060888789756754e-10 2.206088838202645e-10 4.077303080013164e-18
6.187401249150058 1.579360210551164e-18 2.593933907209677e-10 2.5939338616635657e-10 4.554611145799449e-18
6.1990139391386085 1.692199848181623e-18 2.7844774024935496e-10 2.784477354489011e-10 4.8004538675646185e-18
6.204828454712694 1.751641183250134e-18 2.8849903147971544e-10 2.884990265513763e-10 4.928339176303153e-18
6.210648424152782 1.7950294472299204e-18 2.9592247847816565e-10 2.9592247344349503e-10 5.034670637272543e-18
6.233982942956859 1.9424339806318567e-18 3.2142622641136573e-10 3.2142622099880974e-10 5.4125560071582455e-18
6.239830258556775 1.9612730461390162e-18 3.2484805340284694e-10 3.2484804793797586e-10 5.464871035535867e-18
6.245683058788269 1.9628987576611902e-18 3.2542227367336877e-10 3.2542226815571576e-10 5.5176530243342806e-18
6.257405133728602 1.95883084484386e-18 3.2535736431721255e-10 3.2535735870720855e-10 5.6100040881363765e-18
6.269149208991335 1.929814937124873e-18 3.211394823900665e-10 3.2113947675019845e-10 5.639868209401274e-18
6.280915325867298 1.8570779856008e-18 3.0961537111014753e-10 3.096153655181267e-10 5.59202076486554e-18
6.304513850009849 1.677715505967666e-18 2.807626640541834e-10 2.8076265863025356e-10 5.423929776208604e-18
6.32820103803542 1.4553989681823416e-18 2.4447348493345435e-10 2.444734797681932e-10 5.165261200792398e-18
6.3519772230701035 1.251516277741623e-18 2.1101574804181417e-10 2.1101574312134356e-10 4.920470685323844e-18
6.375842739491607 1.0799958220188202e-18 1.8278018185544073e-10 1.8278017715001092e-10 4.705429857938878e-18
6.399797922933955 9.425132813922857e-19 1.6011173842542704e-10 1.6011173386510753e-10 4.5603195514014455e-18
6.42384311029221 8.282097956161191e-19 1.4122276863141276e-10 1.4122276419382087e-10 4.437591923700009e-18
6.447978639727206 7.44901027354819e-19 1.274945429519339e-10 1.2749453857167692e-10 4.380256941453827e-18
6.472204850670314 6.754987648041753e-19 1.1605029449351818e-10 1.1605029015424689e-10 4.339271260635213e-18
6.496522083828205 6.303776030441863e-19 1.0870540206058624e-10 1.0870539770525462e-10 4.3553316127853074e-18
