Dust emission spectrum from A.P. Jones, M. Kohler, N. Ysard, M. Bocchio, and L. Verstraete (2017), A&A, 602A, 46J 
inside the DustPedia framework.

lambda    nu*dP/dnu     j_nu    j_nu(carb.) j_nu(sil)
 (um)   (erg s-1 H-1) (Jy cm2 sr-1 H-1)
0.9927057738263894 2.8514558561906023e-22 7.513748140521555e-15 7.513748066891665e-15 7.36298902799329e-23
1.0001793341362166 2.899439211834579e-22 7.697705962691066e-15 7.697705874053018e-15 8.863804786272554e-23
1.0077091589558085 2.9475495112814166e-22 7.884347324483125e-15 7.884347217918397e-15 1.0656472822610118e-22
1.0114953028030835 2.971649036518157e-22 7.978675818245362e-15 7.978675701458237e-15 1.1678712093661204e-22
1.0152956718711033 2.9957764541034644e-22 8.073677001978922e-15 8.073676874031125e-15 1.2794779549328015e-22
1.0229392996569957 3.044086536098884e-22 8.2656362869198e-15 8.265636133499425e-15 1.5342037410176165e-22
1.0267826658714554 3.06821356306287e-22 8.362450244037347e-15 8.362450076115134e-15 1.6792220852589542e-22
1.0306404723013447 3.0923623561463383e-22 8.459934561621041e-15 8.459934377887036e-15 1.8373400713242359e-22
1.03451277320114 3.116531735972013e-22 8.558089895457646e-15 8.558089694489483e-15 2.0096816343405747e-22
1.0383996230291617 3.1407205422787024e-22 8.656916925993791e-15 8.656916706247625e-15 2.1974616596944186e-22
1.0403485208654093 3.1528218731416446e-22 8.706582547432475e-15 8.706582317677746e-15 2.29754730038905e-22
1.0423010764483396 3.1649276344645943e-22 8.756416360475049e-15 8.756416120275767e-15 2.4019928644939117e-22
1.0462171883269815 3.189151892126267e-22 8.856588935115245e-15 8.856588672645926e-15 2.6246931603501605e-22
1.0471985131304309 3.1952105093164913e-22 8.881737346136071e-15 8.881737077797671e-15 2.683383964287558e-22
1.048180758391296 3.2012701135390884e-22 8.906927888523357e-15 8.906927614190309e-15 2.7433305058312646e-22
1.0501480137395462 3.213392215593203e-22 8.957435417295556e-15 8.957435130586206e-15 2.867093528104386e-22
1.0521189612883777 3.2255180641562424e-22 9.008111622590039e-15 9.008111322970775e-15 2.996192647986645e-22
1.0531058218030118 3.2315740207069603e-22 9.033489722454233e-15 9.033489416172668e-15 3.0628156406099264e-22
1.0540936079674168 3.237603569302523e-22 9.05883361541756e-15 9.058833302330535e-15 3.130870254301025e-22
1.058054026499678 3.2617291857388046e-22 9.160626514523002e-15 9.16062617273845e-15 3.4178455020014104e-22
1.0590464539527713 3.2677623652559377e-22 9.18617913563731e-15 9.186178786294427e-15 3.4934288376273306e-22
1.06003981227728 3.273796223208355e-22 9.211773541647883e-15 9.211773184586873e-15 3.5706101274574426e-22
1.0620293250338977 3.2858659116887062e-22 9.26308776237294e-15 9.263087389383378e-15 3.7298956123892276e-22
1.0660195594769086 3.31001274498311e-22 9.36621822609959e-15 9.366217819189966e-15 4.0690962109326474e-22
1.070024785945596 3.334168707095655e-22 9.4700188162017e-15 9.47001837243325e-15 4.437684496011758e-22
1.0740450607676866 3.3583328436422512e-22 9.574490488920758e-15 9.574490005113661e-15 4.838070956961107e-22
1.07808044048254 3.382504224874695e-22 9.679634248644048e-15 9.67963372135886e-15 5.27285187406394e-22
1.0861967418109137 3.4308268093435413e-22 9.89183181938091e-15 9.891831193681632e-15 6.25699275392204e-22
1.0902777775684922 3.454889142086717e-22 9.998634888089677e-15 9.99863420682962e-15 6.812600563265115e-22
1.0943741465085532 3.4789537303955366e-22 1.0106107428572275e-14 1.0106106687059644e-14 7.41512633826519e-22
1.1026131145906286 3.527086535708762e-22 1.032306594824404e-14 1.0323065070625427e-14 8.77618617144967e-22
1.1109141095355224 3.5752192292228175e-22 1.0542718078430884e-14 1.0542717041070954e-14 1.0373599276465321e-21
1.1192775983109025 3.6233069867069264e-22 1.0764958903249971e-14 1.0764957678657392e-14 1.2245925757084836e-21
1.1277040513999907 3.6711641596865033e-22 1.0989258226105091e-14 1.098925678234653e-14 1.4437585596182879e-21
1.1361939428280308 3.7190001925066476e-22 1.121626091957987e-14 1.1216259219612177e-14 1.6999676962627148e-21
1.1447477501889525 3.7668110657387337e-22 1.1445982281775786e-14 1.1445980282685491e-14 1.9990902956819005e-21
1.1533659546722406 3.8146124093670426e-22 1.1678497657398242e-14 1.1678495309533682e-14 2.3478645581916884e-21
1.1707974979042381 3.9103319030608686e-22 1.2152477898605216e-14 1.21524746722152e-14 3.226390014925471e-21
1.1884924949847024 4.00597226171902e-22 1.263786798683798e-14 1.2637863575327189e-14 4.411510790270096e-21
1.2064549276569216 4.102198890240613e-22 1.3137031686890685e-14 1.3137025684622123e-14 6.002268563895656e-21
1.2246888378427687 4.198291168313002e-22 1.364796022013918e-14 1.3647952093391892e-14 8.126747286367485e-21
1.2431983285522175 4.294136423428634e-22 1.4170516768684198e-14 1.4170505818675203e-14 1.0950008994245789e-20
1.2619875648066055 4.389833714693647e-22 1.47052556206745e-14 1.4705240936990025e-14 1.4683684476870654e-20
1.3004222497298317 4.579977979655461e-22 1.5809466494182257e-14 1.5809440460561244e-14 2.6033621016425374e-20
1.3400274889804893 4.7690146969063815e-22 1.6963356971418774e-14 1.6963311658742645e-14 4.5312676125936954e-20
1.3808389325824078 4.957364741868483e-22 1.8170351559134566e-14 1.817027409633656e-14 7.74627980040321e-20
1.4228933163050095 5.146491093383082e-22 1.943806356305106e-14 1.943793343549946e-14 1.3012755160378627e-19
1.466228494730424 5.339892846893384e-22 2.0782779540560532e-14 2.0782564626604772e-14 2.1491395576131107e-19
1.5108834753276823 5.536707205938885e-22 2.2205060559931947e-14 2.2204711443537896e-14 3.49116394050531e-19
1.5568984535646726 5.736361367736569e-22 2.3706433550438137e-14 2.3705875154802488e-14 5.583956356514817e-19
1.6043148490894465 5.939951310595881e-22 2.5295421552065572e-14 2.5294540531068096e-14 8.810209974713238e-19
1.6531753430134553 6.148646027692868e-22 2.6981608972464507e-14 2.6980239373783805e-14 1.3695986807001939e-18
1.7035239163302658 6.363930254092583e-22 2.877683850308102e-14 2.8774740213547643e-14 2.0982895333713107e-18
1.755405889504358 6.590654504605222e-22 3.0709696883063393e-14 3.070652717573965e-14 3.1697073237249805e-18
1.8088679632656115 6.828461102121913e-22 3.2786808187887267e-14 3.278208529979373e-14 4.722888093526024e-18
1.8639582606462262 7.076932323564965e-22 3.5014720061495124e-14 3.500777617477879e-14 6.943886716343945e-18
1.9207263702978936 7.336711380734231e-22 3.740557772150421e-14 3.739549989782981e-14 1.0077823674397645e-17
1.979223391128241 7.608896988591432e-22 3.997476805654929e-14 3.996032475061969e-14 1.4443305929608473e-17
2.039501978296691 7.894414559602959e-22 4.2737930918952396e-14 4.271748268107747e-14 2.044823787490345e-17
2.1016163906111602 8.196751258645837e-22 4.5726149925763326e-14 4.569754026736447e-14 2.8609658398871476e-17
2.1656225393682647 8.517305086144975e-22 4.896146450159043e-14 4.892189276568519e-14 3.9571735905237385e-17
2.231578038680979 8.854567664835043e-22 5.2450408254353945e-14 5.239628212095132e-14 5.412613340262643e-17
2.299542257339062 9.208272083906765e-22 5.620681431086372e-14 5.6133580806551586e-14 7.323350431211516e-17
2.369576372248914 9.579213110613113e-22 6.025179349935492e-14 6.015374691625142e-14 9.804658310349991e-17
2.4417434235010123 9.968431286599885e-22 6.46094850000622e-14 6.447955659894337e-14 1.2992840111882746e-16
2.5161083711144245 1.0379071268178338e-21 6.931979500743514e-14 6.914931902130235e-14 1.7047598613278761e-16
2.5927381535095444 1.0817245021956822e-21 7.444658123359293e-14 7.422504523509757e-14 2.2153599849534754e-16
2.6717017477616296 1.12888178521419e-21 8.005820956797195e-14 7.977300455770475e-14 2.8520501026719913e-16
2.753070231689431 1.1803282505519577e-21 8.625604189789759e-14 8.589220582970292e-14 3.6383606819467306e-16
2.836916847834745 1.2387120122571659e-21 9.327953848195534e-14 9.281948516198981e-14 4.600533199655512e-16
2.9233170693905177 1.3100821161956828e-21 1.0165854128876003e-13 1.010819081321453e-13 5.766331566147147e-16
2.967498994190263 1.3567484131571113e-21 1.0687086776789263e-13 1.0622856571530086e-13 6.423020525917772e-16
3.0123486681368425 1.407603343054324e-21 1.1255245209103513e-13 1.1183794864804154e-13 7.145034429935937e-16
3.0578761833420214 1.4984098779498511e-21 1.2162418884118376e-13 1.2083018611675364e-13 7.940027244301169e-16
3.1040917844459814 1.6078438315363803e-21 1.3247924708481648e-13 1.3159862699181555e-13 8.806200930009369e-16
3.127460860933648 1.7140399868491363e-21 1.422925838828171e-13 1.4136554532452644e-13 9.270385582906519e-16
3.1510058709225794 1.851201983668581e-21 1.5483618149021478e-13 1.5386072798809136e-13 9.754535021234393e-16
3.162844764501044 1.9767159861255647e-21 1.6595547489058635e-13 1.649549549236029e-13 1.00051996698348e-15
3.1747281389236908 2.120047663665795e-21 1.7865764270074393e-13 1.7763153846111996e-13 1.0261042396239373e-15
3.1986289994194426 2.5122288789050378e-21 2.133008111666088e-13 2.1222182527987204e-13 1.078985886736743e-15
3.2227097969389145 3.426779394450907e-21 2.931411445223666e-13 2.920060918325359e-13 1.1350526898307261e-15
3.2348180950136065 4.288290738109179e-21 3.682167317210723e-13 3.6705175059523484e-13 1.1649811258374642e-15
3.240889293275058 4.932193937081668e-21 4.2430072526314525e-13 4.231199575271846e-13 1.1807677359608405e-15
3.2469718861334385 5.6781567234219835e-21 4.893902770020032e-13 4.881931745761713e-13 1.1971024258318722e-15
3.2714166318528037 9.614929310314853e-21 8.349325375709355e-13 8.336679058826105e-13 1.2646316883252334e-15
3.2744851364798273 9.861278570986999e-21 8.571280025402232e-13 8.558554050856361e-13 1.2725974545873968e-15
3.2775565192852394 1.0114388722758547e-20 8.799525685162677e-13 8.786719647778053e-13 1.28060373846243e-15
3.283707930232385 9.872265686601722e-21 8.604998314728068e-13 8.592048944164173e-13 1.2949370563893545e-15
3.2898708863219004 9.101457110043161e-21 7.948024807002141e-13 7.934944852379138e-13 1.3079954623001829e-15
3.29141343181113 8.919399830745636e-21 7.792691842831809e-13 7.779579094156755e-13 1.3112748675054365e-15
3.292184975758714 8.82990119825303e-21 7.71630713631766e-13 7.70317796838032e-13 1.3129167937342102e-15
3.295272960557952 8.26940663577204e-21 7.233278319527461e-13 7.220085256822436e-13 1.3193062705026026e-15
3.3076538914384823 6.317308909573136e-21 5.546533063973622e-13 5.533083296659172e-13 1.344976731444954e-15
3.310756385682612 5.91710980995772e-21 5.200035247519492e-13 5.186520760801842e-13 1.3514486717652176e-15
3.313861789986515 5.5467312294122534e-21 4.87911379139376e-13 4.865534367494091e-13 1.3579423899668303e-15
3.3200813396944477 5.028756129935371e-21 4.431785495426222e-13 4.418066464580292e-13 1.3719030845927716e-15
3.345076488085796 4.117777417012019e-21 3.656270793355028e-13 3.641929792574492e-13 1.4341000780536484e-15
3.3482140837626964 4.15391159539246e-21 3.691814756979879e-13 3.677389507907983e-13 1.442524907189648e-15
3.3513546224236106 4.190399082500661e-21 3.72773648233734e-13 3.713226597472818e-13 1.450988486452296e-15
3.3576445397418455 4.4496409380842315e-21 3.965784558795902e-13 3.951097746234393e-13 1.4686812561508917e-15
3.3702598118196083 5.394279602678211e-21 4.825766100839527e-13 4.810708160343903e-13 1.5057940495625721e-15
3.382922481734668 5.61697684231783e-21 5.043872648487638e-13 5.028453660085095e-13 1.5418988402542787e-15
3.389271646505754 5.731985203526313e-21 5.156806934378446e-13 5.141204881563363e-13 1.560205281508372e-15
3.395632727569191 5.85770373764511e-21 5.279800910411882e-13 5.264010196811987e-13 1.5790713599894093e-15
3.421196662673239 6.465868653943588e-21 5.871841863981056e-13 5.855269831319663e-13 1.657203266139465e-15
3.4276182099114902 6.352924836393564e-21 5.78010318716528e-13 5.763356442388108e-13 1.674674477716998e-15
3.4340518103208963 5.8441335626845136e-21 5.327168195274629e-13 5.3102560344133e-13 1.6912160861326684e-15
3.4469541582030403 5.115770752726945e-21 4.680756137325027e-13 4.663526137930025e-13 1.7229999395003008e-15
3.472904465399547 4.914018799480652e-21 4.530009192771121e-13 4.512047536475387e-13 1.7961656295734343e-15
3.4990501388274233 4.606945521393446e-21 4.27890530445406e-13 4.2601941559788313e-13 1.871114847522947e-15
3.5253949054701885 3.5130815107455674e-21 3.2874975062872724e-13 3.268056986105078e-13 1.9440520182194346e-15
3.5519380250092896 2.474854893317077e-21 2.333375066417443e-13 2.313200456949576e-13 2.0174609467867625e-15
3.578680990867387 2.067741270603875e-21 1.9642131558635439e-13 1.943233812274475e-13 2.0979343589068283e-15
3.605625307711299 1.9087427780014052e-21 1.826827048514486e-13 1.8049995648039014e-13 2.1827483710584156e-15
3.660119384959845 1.803788006445758e-21 1.7524683342000696e-13 1.7288562986924559e-13 2.361203550761389e-15
3.715437065384467 1.7318048362927418e-21 1.7079623403936873e-13 1.6824651602920235e-13 2.5497180101663348e-15
3.8285932144167436 1.7170043748655407e-21 1.7449382393278397e-13 1.7153759249673705e-13 2.95623143604692e-15
3.94519561050918 1.735057496153826e-21 1.8169871054195768e-13 1.782971639160639e-13 3.4015466258937727e-15
4.06534921144712 1.7649513974434966e-21 1.9045836014381467e-13 1.8657273119900472e-13 3.885628944809938e-15
4.189162171576248 1.8005172174295332e-21 2.0021374301468132e-13 1.958039012312943e-13 4.40984178338704e-15
4.316745939156006 1.8392858913091278e-21 2.107536775922681e-13 2.0578090987407802e-13 4.9727677181900835e-15
4.448215356677963 1.8803014638245766e-21 2.220152068388647e-13 2.1644798842197832e-13 5.5672184168863495e-15
4.58368876423945 1.9235075330859183e-21 2.3403372524814256e-13 2.2783935528359364e-13 6.194369964548924e-15
4.723288106065518 1.9695043259232588e-21 2.4692826738568e-13 2.4006971240861516e-13 6.858554977064766e-15
4.867139040275056 2.0193909143134264e-21 2.608936951825353e-13 2.533504872590299e-13 7.543207923505442e-15
4.940699165968905 2.0476325312819873e-21 2.6854054420397276e-13 2.6064518024242505e-13 7.895363961547658e-15
5.015371051989984 2.0756516588941554e-21 2.763293229146829e-13 2.680762394065504e-13 8.253083508132454e-15
5.091171501069577 2.1090490951774187e-21 2.8501902459233504e-13 2.7639512732586495e-13 8.623897266470194e-15
5.129500256944802 2.12566621853925e-21 2.894273442979106e-13 2.806162545590996e-13 8.811089738811054e-15
5.168117569889187 2.1427198042111276e-21 2.939457609804681e-13 2.8494457243107465e-13 9.001188549393442e-15
5.20702561229733 2.163964644473021e-21 2.9909510663840765e-13 2.898869121452839e-13 9.208194493123723e-15
5.246226572918644 2.1853405442421975e-21 3.043235764260663e-13 2.9490661942548033e-13 9.416957000585969e-15
5.265937586045735 2.1960808932138243e-21 3.06968260963823e-13 2.974462862482102e-13 9.521974715612844e-15
5.285722656980489 2.2068579909612994e-21 3.09633678701735e-13 3.000062740529453e-13 9.627404648789768e-15
5.305582063971359 2.217673251990298e-21 3.123201666834474e-13 3.0258692908566973e-13 9.733237597777636e-15
5.3255160863122235 2.2293333708743306e-21 3.151419013577379e-13 3.05301635823139e-13 9.840265534598998e-15
5.365609099470188 2.2590611055470586e-21 3.2174843358901885e-13 3.1168673555231817e-13 1.0061698036700648e-14
5.406003951863644 2.2893879105697082e-21 3.2852254383677606e-13 3.1823757962179234e-13 1.0284964214983729e-14
5.446702915881641 2.3203532135539328e-21 3.3547272843553715e-13 3.249627369756776e-13 1.0509991459859591e-14
5.487708281020852 2.3535553163916274e-21 3.428347690134477e-13 3.3209714110632267e-13 1.0737627907125078e-14
5.529022354014368 2.401433240490958e-21 3.524425190619823e-13 3.414675263787162e-13 1.0974992683266037e-14
5.570647458961463 2.4513043439840336e-21 3.624702294189435e-13 3.5125592647889304e-13 1.121430294005049e-14
5.612585937458331 2.5033271511161716e-21 3.729495148958331e-13 3.614940295394724e-13 1.1455485356360639e-14
5.654840148729818 2.5600523721245318e-21 3.8427188945096284e-13 3.7257227938389836e-13 1.1699610067064501e-14
5.67608639626678 2.5999446724935797e-21 3.917261250091742e-13 3.7989881392840576e-13 1.1827311080768292e-14
5.686739436050992 2.620380887174521e-21 3.955461717864067e-13 3.836548070096534e-13 1.1891364776753119e-14
5.6974124697621304 2.6411545116043508e-21 3.994302054089982e-13 3.874746529886168e-13 1.1955552420381371e-14
5.718818669136295 2.6837473234045884e-21 4.073965844505415e-13 3.9531225947637814e-13 1.2084324974163276e-14
5.740305295436557 2.730780402109583e-21 4.160937583934219e-13 4.0387920259911567e-13 1.2214555794306243e-14
5.7835210386641895 2.854642881661089e-21 4.382415370892432e-13 4.257576673822201e-13 1.2483869707023178e-14
5.827062130521658 2.9957191001936677e-21 4.633617391181966e-13 4.5060391561452247e-13 1.2757823503674033e-14
5.8489554468988025 3.096832798533494e-21 4.808011571639937e-13 4.678954852229509e-13 1.2905671941042715e-14
5.870931020387893 3.2043016672316642e-21 4.993554642302501e-13 4.863011424356991e-13 1.3054321794551049e-14
5.892989160043636 3.3186262428431652e-21 5.191148090952775e-13 5.059110439043596e-13 1.3203765190918116e-14
5.915130176081913 3.448522254442438e-21 5.414604909995506e-13 5.281018352834779e-13 1.335865571607279e-14
5.95966208400165 3.815549271550695e-21 6.035984764366013e-13 5.898872830289769e-13 1.3711193407624316e-14
6.004529249263818 4.3442374319555466e-21 6.924077992617082e-13 6.783000865770546e-13 1.4107712684653629e-14
6.027089341400364 4.712779205547159e-21 7.539701559218685e-13 7.396335338578419e-13 1.433662206402635e-14
6.049734195844842 5.1457517764841055e-21 8.26331977362481e-13 8.117529104929589e-13 1.4579066869522343e-14
6.095279466722835 6.397774511984414e-21 1.0351230634266045e-12 1.019948736489588e-12 1.5174326937016248e-14
6.141167624020661 8.315481901820446e-21 1.3555258605111307e-12 1.339579783988608e-12 1.594607652252292e-14
6.164241091010745 9.53992765444188e-21 1.5609684687279053e-12 1.5445384150442772e-12 1.643005368362802e-14
6.187401249150058 1.0922814010651984e-20 1.793957922650682e-12 1.7770307094030709e-12 1.6927213247611378e-14
6.1990139391386085 1.1596148290783622e-20 1.9081205394473957e-12 1.8909403178827855e-12 1.7180221564609996e-14
6.204828454712694 1.1949816851531913e-20 1.9681602722026405e-12 1.9508522388023765e-12 1.7308033400263008e-14
6.210648424152782 1.2206619462232583e-20 2.012341965017915e-12 1.9949249429479757e-12 1.7417022069939098e-14
6.233982942956859 1.3071618731850723e-20 2.163039322808886e-12 2.1452419143577016e-12 1.7797408451184568e-14
6.239830258556775 1.3177939466109731e-20 2.1826782312914476e-12 2.164827737273178e-12 1.7850494018269694e-14
6.245683058788269 1.3180334193520464e-20 2.1851225409816163e-12 2.1672188694096774e-12 1.7903671571938946e-14
6.257405133728602 1.314090652626561e-20 2.182674794701551e-12 2.164677866466287e-12 1.7996928235264042e-14
6.269149208991335 1.2951213140102242e-20 2.1552045246019033e-12 2.1371724689715207e-12 1.8032055630382314e-14
6.280915325867298 1.2498624391864203e-20 2.083793066020022e-12 2.065797786142775e-12 1.7995279877247434e-14
6.304513850009849 1.1392045920195438e-20 1.906438338445747e-12 1.8885816990274184e-12 1.7856639418329002e-14
6.32820103803542 1.003477278155072e-20 1.6856105618138115e-12 1.6679618179336615e-12 1.7648743880150292e-14
6.3519772230701035 8.793717353032792e-21 1.4826917382704551e-12 1.4652288816272907e-12 1.746285664316392e-14
6.375842739491607 7.747245361539604e-21 1.3111559204126741e-12 1.2938564091316168e-12 1.7299511281056833e-14
6.399797922933955 6.913069331841849e-21 1.1743744840832791e-12 1.1571560701994047e-12 1.7218413883874033e-14
6.42384311029221 6.216950729155586e-21 1.0600876723068605e-12 1.042933985192141e-12 1.71536871147192e-14
6.447978639727206 5.7100635650815536e-21 9.77313653387933e-13 9.601604787226075e-13 1.7153174665325853e-14
6.472204850670314 5.286001728062588e-21 9.081320191795524e-13 8.909665883561662e-13 1.7165430823386047e-14
6.496522083828205 5.0088212494051494e-21 8.637456742384119e-13 8.465158876378995e-13 1.7229786600512454e-14
6.520930681187647 4.773998198037361e-21 8.263447407630875e-13 8.090426424749412e-13 1.7302098288146292e-14
6.57002334288761 4.52559504750833e-21 7.892453577565248e-13 7.717262670853525e-13 1.751909067117267e-14
