Dust emission spectrum from A.P. Jones, M. Kohler, N. Ysard, M. Bocchio, and L. Verstraete (2017), A&A, 602A, 46J 
inside the DustPedia framework.

lambda    nu*dP/dnu     j_nu    j_nu(carb.) j_nu(sil)
 (um)   (erg s-1 H-1) (Jy cm2 sr-1 H-1)
0.9927057738263894 1.6137642177677766e-23 4.252360373795786e-16 4.252360371216595e-16 2.5791891216876502e-25
1.0001793341362166 1.6404709727541788e-23 4.355277785113954e-16 4.3552777820075866e-16 3.106367991638178e-25
1.0077091589558085 1.6671531276495132e-23 4.459438001356154e-16 4.4594379976197e-16 3.73645393639623e-25
1.0114953028030835 1.6804818867206513e-23 4.511979721632069e-16 4.511979717536152e-16 4.0959186040455088e-25
1.0152956718711033 1.6938007948428365e-23 4.564826759528277e-16 4.564826755039773e-16 4.488504247967148e-25
1.0229392996569957 1.7203911128553663e-23 4.671393878419535e-16 4.671393873034566e-16 5.384969590171893e-25
1.0267826658714554 1.733630469355979e-23 4.725029155748968e-16 4.725029149853384e-16 5.8955859660264415e-25
1.0306404723013447 1.7468544436128672e-23 4.778959442533854e-16 4.778959436081341e-16 6.452515293866131e-25
1.03451277320114 1.7600618410769e-23 4.833182760066737e-16 4.833182753006986e-16 7.0597512925133395e-25
1.0383996230291617 1.773251474624599e-23 4.887697105831496e-16 4.887697098109882e-16 7.721612852757446e-25
1.0403485208654093 1.7798392610453998e-23 4.915062782158262e-16 4.915062774083789e-16 8.074472850987636e-25
1.0423010764483396 1.7864221648064826e-23 4.94250045412902e-16 4.942500445686252e-16 8.44276882600337e-25
1.0462171883269815 1.7995727400906392e-23 4.99759075670603e-16 4.997590747477765e-16 9.228264562991998e-25
1.0471985131304309 1.8028571044432565e-23 5.011407926830384e-16 5.011407917395064e-16 9.435320964558664e-25
1.048180758391296 1.8061401207661766e-23 5.025242869758475e-16 5.025242860111649e-16 9.646826413362356e-25
1.0501480137395462 1.812702037101529e-23 5.052965943386903e-16 5.052965933303352e-16 1.0083550315293871e-24
1.0521189612883777 1.8192583449875763e-23 5.080759715498115e-16 5.080759704958928e-16 1.0539185800393144e-24
1.0531058218030118 1.8225293782145514e-23 5.094669130732249e-16 5.094669119957897e-16 1.0774352907366366e-24
1.0540936079674168 1.8257826635579847e-23 5.108550510601513e-16 5.108550499586919e-16 1.1014594261764158e-24
1.058054026499678 1.8387802161960825e-23 5.164248116157077e-16 5.164248104129191e-16 1.202788589723718e-24
1.0590464539527713 1.842025618882684e-23 5.178215370677425e-16 5.1782153583826e-16 1.2294826267961917e-24
1.06003981227728 1.8452693921906378e-23 5.192199698836469e-16 5.192199686269035e-16 1.2567435214682758e-24
1.0620293250338977 1.8517519805830434e-23 5.220219440261098e-16 5.2202194271309795e-16 1.313011907768526e-24
1.0660195594769086 1.8646968359277558e-23 5.276462308880296e-16 5.276462294551598e-16 1.4328696983206264e-24
1.070024785945596 1.8776136709406818e-23 5.332974529910517e-16 5.332974514278913e-16 1.5631602950044802e-24
1.0740450607676866 1.890501384040452e-23 5.389753893826677e-16 5.389753876779232e-16 1.704744289143769e-24
1.07808044048254 1.9033588835556183e-23 5.446798174334395e-16 5.446798155748904e-16 1.8585490578258306e-24
1.0861967418109137 1.9289564831023253e-23 5.561607792555299e-16 5.561607770486362e-16 2.2068939526428038e-24
1.0902777775684922 1.9416434155454282e-23 5.619220413878865e-16 5.619220389842179e-16 2.4036686112912654e-24
1.0943741465085532 1.9542949776750115e-23 5.67708469904181e-16 5.677084672870378e-16 2.6171431434676796e-24
1.1026131145906286 1.9794878699904584e-23 5.793558966807253e-16 5.793558935810704e-16 3.099654956389785e-24
1.1109141095355224 2.0045270310107526e-23 5.911011888670774e-16 5.911011852006687e-16 3.666408633703788e-24
1.1192775983109025 2.029381617473229e-23 6.029356549488892e-16 6.02935650617652e-16 4.331237186213574e-24
1.1277040513999907 2.053938679586928e-23 6.148257486936661e-16 6.148257435835734e-16 5.110092587931654e-24
1.1361939428280308 2.0783154642380603e-23 6.268063273312183e-16 6.268063213098749e-16 6.021343627684825e-24
1.1447477501889525 2.1025046657488334e-23 6.388754501227547e-16 6.388754430366392e-16 7.086115533195082e-24
1.1533659546722406 2.126511907212678e-23 6.510350636366095e-16 6.510350553079267e-16 8.328682667785898e-24
1.1707974979042381 2.1740576233402744e-23 6.756507599075178e-16 6.756507484447972e-16 1.1462721006838054e-23
1.1884924949847024 2.2207844192191884e-23 7.006034611251962e-16 7.006034454272918e-16 1.569790445056413e-23
1.2064549276569216 2.2670525704003903e-23 7.260092026266925e-16 7.26009181233857e-16 2.1392835589907227e-23
1.2246888378427687 2.3123789926540406e-23 7.51716716168338e-16 7.517166871560146e-16 2.901232355312728e-23
1.2431983285522175 2.3566654525947476e-23 7.776922766582338e-16 7.776922375014714e-16 3.915676263747007e-23
1.2619875648066055 2.3999047370951838e-23 8.039305112201771e-16 8.039304586224591e-16 5.259771782089013e-23
1.3004222497298317 2.482577428804268e-23 8.569522572867645e-16 8.569521637067651e-16 9.357999934410136e-23
1.3400274889804893 2.5601472502407302e-23 9.106428573894209e-16 9.10642693921613e-16 1.6346780769207462e-22
1.3808389325824078 2.6324084512174404e-23 9.648631782504172e-16 9.648628977617708e-16 2.804886466544639e-22
1.4228933163050095 2.699758484511886e-23 1.0196865412688706e-15 1.0196860682862004e-15 4.729826704908579e-22
1.466228494730424 2.7637581691464464e-23 1.0756503619021146e-15 1.0756495776817852e-15 7.842203293171333e-22
1.5108834753276823 2.8233799523196656e-23 1.1323214411213342e-15 1.1323201620798032e-15 1.2790415310175755e-21
1.5568984535646726 2.877809538837262e-23 1.189300956299089e-15 1.1892989021254118e-15 2.054173677637603e-21
1.6043148490894465 2.92722519221383e-23 1.2465656929340548e-15 1.2465624383665351e-15 3.254567519410989e-21
1.6531753430134553 2.971850361986293e-23 1.3041131987537566e-15 1.3041081177051984e-15 5.081048558435943e-21
1.7035239163302658 3.0121866507017153e-23 1.3620703767555575e-15 1.3620625582875995e-15 7.81846795872356e-21
1.755405889504358 3.050672900711942e-23 1.4214861362369533e-15 1.4214742726509823e-15 1.1863585970819967e-20
1.8088679632656115 3.086841920420387e-23 1.4821449875390367e-15 1.4821272296722784e-15 1.7757866758095763e-20
1.8639582606462262 3.120394635588429e-23 1.5438856788654576e-15 1.5438594476065216e-15 2.6231258936362887e-20
1.9207263702978936 3.151705785078927e-23 1.6068694757253228e-15 1.6068312227204585e-15 3.8253004863827366e-20
1.979223391128241 3.181520751797529e-23 1.6714716247426604e-15 1.6714165314940585e-15 5.509324860228093e-20
2.039501978296691 3.210695469896424e-23 1.7381717182221048e-15 1.7380933258969642e-15 7.83923251405271e-20
2.1016163906111602 3.241522644452565e-23 1.808306068476235e-15 1.8081958202958323e-15 1.1024818040326037e-19
2.1656225393682647 3.275341888795878e-23 1.8828201408414583e-15 1.8826668406346426e-15 1.5330020681658003e-19
2.231578038680979 3.312247444759952e-23 1.962023864892297e-15 1.961813039008345e-15 2.1082588395200588e-19
2.299542257339062 3.353016239869613e-23 2.0466636895431905e-15 2.046376843233488e-15 2.8684630970269654e-19
2.369576372248914 3.399318930234867e-23 2.1381199046092647e-15 2.1377336614425886e-15 3.8624316667565774e-19
2.4417434235010123 3.45311215126158e-23 2.2381033818267475e-15 2.2375885195987084e-15 5.148622280389021e-19
2.5161083711144245 3.5177583141241655e-23 2.349442246999684e-15 2.3487626022118144e-15 6.796447878700696e-19
2.5927381535095444 3.5987493532774176e-23 2.4767358557959512e-15 2.4758471211035623e-15 8.887346923891086e-19
2.6717017477616296 3.70250033364834e-23 2.6257447991373525e-15 2.6245932698434605e-15 1.151529293892346e-18
2.753070231689431 3.838646574484876e-23 2.805206599140137e-15 2.8037278352033994e-15 1.4787639367387829e-18
2.836916847834745 4.029242977488928e-23 3.034167115946223e-15 3.0322844813351885e-15 1.8826346110358363e-18
2.9233170693905177 4.3229030972367903e-23 3.354446393588614e-15 3.3520699674369894e-15 2.376426151622901e-18
2.967498994190263 4.5564551861085695e-23 3.589112874300805e-15 3.586455711523483e-15 2.657162777321573e-18
3.0123486681368425 4.825395583622856e-23 3.85840306451335e-15 3.855435957154096e-15 2.967107359252425e-18
3.0578761833420214 5.39790723010964e-23 4.381418582212646e-15 4.378108866301472e-15 3.3097159111753584e-18
3.1040917844459814 6.127285851673561e-23 5.048613555506213e-15 5.044928653704801e-15 3.684901801412747e-18
3.127460860933648 6.885803930232067e-23 5.716312576489596e-15 5.712425855434305e-15 3.886721055289757e-18
3.1510058709225794 7.891271602300444e-23 6.600329800754562e-15 6.596232023341763e-15 4.0977774128003664e-18
3.162844764501044 8.823455033631898e-23 7.40774436266992e-15 7.403537097375603e-15 4.207265294314931e-18
3.1747281389236908 9.904736863788332e-23 8.346779037013841e-15 8.342459871004207e-15 4.319166009631453e-18
3.1986289994194426 1.2912100421068864e-22 1.0963019798097012e-14 1.0958468873528574e-14 4.550924568436597e-18
3.2227097969389145 1.9986271289721597e-22 1.7097098371989878e-14 1.709230114093146e-14 4.797231058412616e-18
3.2348180950136065 2.668762708043043e-22 2.291549575596123e-14 2.2910566892193053e-14 4.9288637681723835e-18
3.240889293275058 3.169719922802898e-22 2.72680774374027e-14 2.726307913531569e-14 4.99830208700598e-18
3.2469718861334385 3.7493685237616604e-22 3.231514362499829e-14 3.2310073469225904e-14 5.070155772379175e-18
3.2714166318528037 6.837223721737933e-22 5.937246512885608e-14 5.936709743922443e-14 5.367689631633924e-18
3.2744851364798273 7.0303865628727e-22 6.11070983173491e-14 6.11016953984239e-14 5.402918925177657e-18
3.2775565192852394 7.2290672591615155e-22 6.289293873353428e-14 6.288750039344992e-14 5.438340084357116e-18
3.283707930232385 7.038603261789797e-22 6.135082981806318e-14 6.13453278008221e-14 5.502017241103734e-18
3.2898708863219004 6.433550476719274e-22 5.61822334246244e-14 5.617667315009207e-14 5.5602745323687846e-18
3.29141343181113 6.290834076576033e-22 5.4961692853098945e-14 5.4956117941507717e-14 5.574911591204022e-18
3.292184975758714 6.220703825238626e-22 5.4361719618226525e-14 5.4356137377173296e-14 5.582241053213774e-18
3.295272960557952 5.778395493636417e-22 5.054382338022889e-14 5.053821257108461e-14 5.610809144273421e-18
3.3076538914384823 4.244994353440633e-22 3.727061930129793e-14 3.7264893587002715e-14 5.7257142952289115e-18
3.310756385682612 3.9326063190944355e-22 3.456027035275703e-14 3.4554515641914474e-14 5.7547108425541346e-18
3.313861789986515 3.644261848821849e-22 3.2056300387788756e-14 3.205051657189044e-14 5.783815898317464e-18
3.3200813396944477 3.240082993234991e-22 2.855448234587696e-14 2.854863606795673e-14 5.846277920233761e-18
3.345076488085796 2.5207497187021524e-22 2.2382325804623933e-14 2.2376201511551335e-14 6.12429307259877e-18
3.3482140837626964 2.548049498250334e-22 2.2645948338404627e-14 2.2639786395494124e-14 6.161942910491067e-18
3.3513546224236106 2.5756466350350563e-22 2.2912690982406154e-14 2.290649120212734e-14 6.199780278820151e-18
3.3576445397418455 2.776089750350917e-22 2.474216238785609e-14 2.47358835512217e-14 6.2788366343890364e-18
3.3702598118196083 3.5139584898170103e-22 3.1436156463778635e-14 3.142971176137229e-14 6.444702406335151e-18
3.382922481734668 3.6831636767015236e-22 3.307367833325811e-14 3.306707180175378e-14 6.606531504339029e-18
3.389271646505754 3.7707897043635057e-22 3.392408355063772e-14 3.391739487086104e-14 6.688679776692786e-18
3.395632727569191 3.8653878503541134e-22 3.484040710396053e-14 3.4833633759001066e-14 6.773344959452948e-18
3.421196662673239 4.320010401503534e-22 3.923126077253499e-14 3.922413625146206e-14 7.124521072921154e-18
3.4276182099114902 4.229872556935144e-22 3.84847931894045e-14 3.8477589630924814e-14 7.20355847968646e-18
3.4340518103208963 3.832475827739252e-22 3.4934594015871726e-14 3.4927315378291987e-14 7.278637579727046e-18
3.4469541582030403 3.2661980077704657e-22 2.9884600208953886e-14 2.98771768044423e-14 7.42340451158891e-18
3.472904465399547 3.1085422161519427e-22 2.8656229025362445e-14 2.8648473045783316e-14 7.755979579132626e-18
3.4990501388274233 2.86702039025583e-22 2.6628725473039784e-14 2.6620627602123022e-14 8.097870916769407e-18
3.5253949054701885 2.0047766683005132e-22 1.876044799285663e-14 1.875201551493468e-14 8.432477921960236e-18
3.5519380250092896 1.1930605130878768e-22 1.1248569204941213e-14 1.1239798397318472e-14 8.770807622738378e-18
3.578680990867387 8.720069779513997e-23 8.283471449968845e-15 8.274329439173716e-15 9.142010795127642e-18
3.605625307711299 7.431073505240949e-23 7.112161070276762e-15 7.102626824236814e-15 9.53424603994724e-18
3.660119384959845 6.510610825214434e-23 6.3253770768608235e-15 6.315013101390003e-15 1.0363975470823647e-17
3.715437065384467 5.865087381404173e-23 5.784340221615614e-15 5.77309318128814e-15 1.1247040327476238e-17
3.8285932144167436 5.581969213499753e-23 5.6727820114897625e-15 5.659607401878018e-15 1.3174609611745116e-17
3.94519561050918 5.575063014660632e-23 5.838318114526549e-15 5.822995942891003e-15 1.532217163554454e-17
4.06534921144712 5.681488060423351e-23 6.130972789008688e-15 6.1132732366484505e-15 1.769955236023799e-17
4.189162171576248 5.853448861904755e-23 6.508912521592388e-15 6.488588520439866e-15 2.0324001152520406e-17
4.316745939156006 6.072931365543097e-23 6.958638812494059e-15 6.9354377185935014e-15 2.320109390055607e-17
4.448215356677963 6.333764158584007e-23 7.478545258782011e-15 7.452235982872625e-15 2.630927590938576e-17
4.58368876423945 6.636475413902674e-23 8.07461908475913e-15 8.044951163658721e-15 2.966792110041245e-17
4.723288106065518 6.986617040255967e-23 8.75953009054165e-15 8.726216328989145e-15 3.331376155250217e-17
4.867139040275056 7.395350478838862e-23 9.55436760618575e-15 9.51718530339246e-15 3.7182302793288044e-17
4.940699165968905 7.636191487716706e-23 1.001462413997362e-14 9.975408099793691e-15 3.921604017992658e-17
5.015371051989984 7.88391667295903e-23 1.0495775371649877e-14 1.0454461651110712e-14 4.13137205391649e-17
5.091171501069577 8.18088728294828e-23 1.105573369068304e-14 1.1012217157291872e-14 4.351653339116814e-17
5.129500256944802 8.332568854064377e-23 1.1345493726049944e-14 1.1300851484643353e-14 4.4642241406586954e-17
5.168117569889187 8.490014406675877e-23 1.1646897277940033e-14 1.1601104514592621e-14 4.579276334740815e-17
5.20702561229733 8.681147994266371e-23 1.1998758351808508e-14 1.1951722359239375e-14 4.703599256913279e-17
5.246226572918644 8.876481130619754e-23 1.236110541611456e-14 1.231280568632109e-14 4.8299729793463836e-17
5.265937586045735 8.975763423621843e-23 1.2546325126210258e-14 1.2497385838732557e-14 4.8939287477702913e-17
5.285722656980489 9.076145429566352e-23 1.273430510390214e-14 1.2684721134199097e-14 4.9583969703040236e-17
5.305582063971359 9.177644556966825e-23 1.2925093790173252e-14 1.287486001528909e-14 5.023377488416802e-17
5.3255160863122235 9.286357207421329e-23 1.3127333512646105e-14 1.3076440843474244e-14 5.0892669171860933e-17
5.365609099470188 9.555356274723855e-23 1.3609286204026323e-14 1.35570293607806e-14 5.225684324572068e-17
5.406003951863644 9.833575342536857e-23 1.411098211721093e-14 1.4057338484159253e-14 5.364363305167334e-17
5.446702915881641 1.0121457241128201e-22 1.46334310508885e-14 1.457837798406897e-14 5.5053066819529155e-17
5.487708281020852 1.0431391723830579e-22 1.5195069974438472e-14 1.5138580074654917e-14 5.64898997835423e-17
5.529022354014368 1.0860374785212443e-22 1.59390558218265e-14 1.588106455207209e-14 5.799126975440829e-17
5.570647458961463 1.13128899112653e-22 1.6728179067569478e-14 1.6668661209428508e-14 5.95178581409703e-17
5.612585937458331 1.179062247431874e-22 1.7565850033450202e-14 1.7504780293782557e-14 6.106973966764706e-17
5.654840148729818 1.2314059081921975e-22 1.8483788854264754e-14 1.8421135833896248e-14 6.265302036850501e-17
5.67608639626678 1.2670454293333597e-22 1.909020609147474e-14 1.902672552841933e-14 6.34805630554146e-17
5.686739436050992 1.2853881050753395e-22 1.940291759533322e-14 1.9339020587885895e-14 6.389700744732917e-17
5.6974124697621304 1.304090442987438e-22 1.972217495136136e-14 1.9657859714587902e-14 6.431523677345795e-17
5.718818669136295 1.3426085365889078e-22 2.0380984725736862e-14 2.0315827666869753e-14 6.515705886710577e-17
5.740305295436557 1.385026794609184e-22 2.1103894110245015e-14 2.1037882859399617e-14 6.601125084539314e-17
5.7835210386641895 1.4950442218148466e-22 2.2951749306143706e-14 2.2883967118748603e-14 6.778218739510308e-17
5.827062130521658 1.6213514375330278e-22 2.5078193137952198e-14 2.500859588346091e-14 6.959725449127862e-17
5.8489554468988025 1.7101112290763033e-22 2.6550463370459986e-14 2.6479891236562386e-14 7.057213389759862e-17
5.870931020387893 1.8051380886949115e-22 2.813110817555195e-14 2.80595515711303e-14 7.155660442162978e-17
5.892989160043636 1.906932067139969e-22 2.9829110106202766e-14 2.975655939320097e-14 7.255071300178954e-17
5.915130176081913 2.0226063768256674e-22 3.175741262751152e-14 3.1683832548463416e-14 7.358007904809737e-17
5.95966208400165 2.346302236941966e-22 3.71171843078411e-14 3.704129259873635e-14 7.589170910475903e-17
6.004529249263818 2.8123791682908273e-22 4.482520352781795e-14 4.474672708627174e-14 7.847644154621238e-17
6.027089341400364 3.1364025392294775e-22 5.0177481447744645e-14 5.009752872537877e-14 7.995272236586295e-17
6.049734195844842 3.518757246110955e-22 5.65060609088322e-14 5.642454724198111e-14 8.151366685107427e-17
6.095279466722835 4.623326437159773e-22 7.48027586137861e-14 7.471746887098293e-14 8.528974280319356e-17
6.141167624020661 6.321664828439677e-22 1.030509146386051e-13 1.0296079883285946e-13 9.011580574564988e-17
6.164241091010745 7.4068471501484e-22 1.2119436617200646e-13 1.2110125813473072e-13 9.310803727571801e-17
6.187401249150058 8.640960118436785e-22 1.4191872944701873e-13 1.4182253804774765e-13 9.619139927113245e-17
6.1990139391386085 9.243634418538948e-22 1.521019587786346e-13 1.5200419611119216e-13 9.776266744242765e-17
6.204828454712694 9.560915933947818e-22 1.5747032059870433e-13 1.5737176316285225e-13 9.855743585213439e-17
6.210648424152782 9.792633472004606e-22 1.614380406035015e-13 1.6133879706588703e-13 9.924353761443872e-17
6.233982942956859 1.0579482484897682e-21 1.7506505582236782e-13 1.7496338172473867e-13 1.0167409762913786e-16
6.239830258556775 1.0679874847829931e-21 1.76892073326218e-13 1.7679003327612195e-13 1.020400500960502e-16
6.245683058788269 1.068833871293218e-21 1.7719831306520412e-13 1.770959060416088e-13 1.0240702359530684e-16
6.257405133728602 1.0666172335075989e-21 1.7716270536724758e-13 1.770596390497057e-13 1.0306631754188037e-16
6.269149208991335 1.05107848759174e-21 1.7490941486826313e-13 1.7480602485474434e-13 1.0339001351881203e-16
6.280915325867298 1.0121884879532149e-21 1.6875387935292675e-13 1.6865058198963634e-13 1.0329736329041897e-16
6.304513850009849 9.163030785137625e-22 1.5334166757682198e-13 1.5323893356632094e-13 1.0273401050099384e-16
6.32820103803542 7.9753573389916795e-22 1.3396762295963225e-13 1.3386585451252865e-13 1.0176844710358794e-16
6.3519772230701035 6.886269022215792e-22 1.161080550675853e-13 1.1600712464250645e-13 1.0093042507878915e-16
6.375842739491607 5.969189628534332e-22 1.0102349875702605e-13 1.009232768185148e-13 1.0022193851127136e-16
6.399797922933955 5.235119689839943e-22 8.893287033231573e-14 8.883287311902517e-14 9.999721329058185e-17
6.42384311029221 4.624083121944241e-22 7.884787457469705e-14 7.87480057218463e-14 9.986885285078455e-17
6.447978639727206 4.179169301859573e-22 7.152913749514e-14 7.1429016152252e-14 1.0012134288801135e-16
6.472204850670314 3.8081316849937646e-22 6.542348062497778e-14 6.532302913640666e-14 1.0045148857112757e-16
6.496522083828205 3.567164279026525e-22 6.151392836533865e-14 6.14128347906347e-14 1.0109357470396966e-16
6.520930681187647 3.363983581255677e-22 5.822813551808239e-14 5.812634859701224e-14 1.017869210701492e-16
6.57002334288761 3.155868563487804e-22 5.5037063353554864e-14 5.4933444985236926e-14 1.0361836831793602e-16
