Dust emission spectrum from A.P. Jones, M. Kohler, N. Ysard, M. Bocchio, and L. Verstraete (2017), A&A, 602A, 46J 
inside the DustPedia framework.

lambda    nu*dP/dnu     j_nu    j_nu(carb.) j_nu(sil)
 (um)   (erg s-1 H-1) (Jy cm2 sr-1 H-1)
0.9927057738263894 1.0891004243936016e-23 2.8698414779462966e-16 2.8698414776901347e-16 2.5616133773266057e-26
1.0001793341362166 1.1070495127924549e-23 2.939099947615286e-16 2.939099947306708e-16 3.0857944442116317e-26
1.0077091589558085 1.1249740140046457e-23 3.0091728140554844e-16 3.009172813684239e-16 3.71246269873673e-26
1.0114953028030835 1.1339248724771867e-23 3.0445112624541937e-16 3.044511262047189e-16 4.0700491523651934e-26
1.0152956718711033 1.1428669851053297e-23 3.0800492077194263e-16 3.0800492072733624e-16 4.46063750902102e-26
1.0229392996569957 1.160712743639778e-23 3.1516940332498927e-16 3.1516940327146205e-16 5.352732818834556e-26
1.0267826658714554 1.1695947307459167e-23 3.1877434671748677e-16 3.187743466588771e-16 5.860966185351442e-26
1.0306404723013447 1.178464105054158e-23 3.223984793425575e-16 3.2239847927840374e-16 6.415377156544681e-26
1.03451277320114 1.1873200260367467e-23 3.2604165073038863e-16 3.2604165066018903e-16 7.019956539572725e-26
1.0383996230291617 1.1961616580539866e-23 3.2970370857380983e-16 3.2970370849701964e-16 7.679020955763413e-26
1.0403485208654093 1.2005768559399309e-23 3.315417718274739e-16 3.3154177174716956e-16 8.030429182245618e-26
1.0423010764483396 1.2049881705171322e-23 3.333844987669071e-16 3.333844986829348e-16 8.397237760835157e-26
1.0462171883269815 1.2137987380477784e-23 3.370838654437215e-16 3.370838653519249e-16 9.179651731783701e-26
1.0471985131304309 1.215998792319457e-23 3.380115912585182e-16 3.3801159116465916e-16 9.385915444742385e-26
1.048180758391296 1.2181977859957996e-23 3.3894046578368845e-16 3.3894046568772234e-16 9.596619338288015e-26
1.0501480137395462 1.2225925406337398e-23 3.408016510170194e-16 3.408016509167023e-16 1.0031713634813751e-25
1.0521189612883777 1.2269829003235437e-23 3.426674011827315e-16 3.426674010778746e-16 1.0485684417952925e-25
1.0531058218030118 1.2291730278669375e-23 3.436010390974986e-16 3.436010389902986e-16 1.0720005946263123e-25
1.0540936079674168 1.2313509693376262e-23 3.445327173214021e-16 3.4453271721180806e-16 1.0959392501514336e-25
1.058054026499678 1.240050661388232e-23 3.482705130067929e-16 3.482705128871012e-16 1.196917961624789e-25
1.0590464539527713 1.2422225036153874e-23 3.4920771981034366e-16 3.4920771968799134e-16 1.223522290971771e-25
1.06003981227728 1.2443930886803339e-23 3.501460246197322e-16 3.5014602449466296e-16 1.2506926579743052e-25
1.0620293250338977 1.248730437819248e-23 3.520259179146296e-16 3.520259177839519e-16 1.3067775712583258e-25
1.0660195594769086 1.2573895069616612e-23 3.5579876649299066e-16 3.5579876635036476e-16 1.4262590878579002e-25
1.070024785945596 1.2660270833932128e-23 3.5958889170903367e-16 3.5958889155341754e-16 1.5561617617941264e-25
1.0740450607676866 1.274642388070844e-23 3.633961250881773e-16 3.6339612491844264e-16 1.697347359080663e-25
1.07808044048254 1.2832346484596118e-23 3.672202967532587e-16 3.672202965681843e-16 1.8507447249033532e-25
1.0861967418109137 1.3003317914265107e-23 3.7491438959130957e-16 3.749143893714841e-16 2.198255383206928e-25
1.0902777775684922 1.3088006258193569e-23 3.7877393631701553e-16 3.7877393607755453e-16 2.3946080078507303e-25
1.0943741465085532 1.3172427912667664e-23 3.8264944548546285e-16 3.8264944522469674e-16 2.6076611622536545e-25
1.1026131145906286 1.33404418734856e-23 3.904476395587915e-16 3.904476392498568e-16 3.089347239986254e-25
1.1109141095355224 1.350730197639114e-23 3.983075375444314e-16 3.983075371788986e-16 3.655329378326599e-25
1.1192775983109025 1.3672796728754565e-23 4.0622308685830066e-16 4.0622308642635144e-16 4.319489128712614e-25
1.1277040513999907 1.3836159348290612e-23 4.141714217129631e-16 4.1417142120317886e-16 5.097841968977026e-25
1.1361939428280308 1.3998179954364787e-23 4.221759361124515e-16 4.221759355115677e-16 6.0088381732179e-25
1.1447477501889525 1.41588061251143e-23 4.3023512783318704e-16 4.302351271258164e-16 7.073706850639676e-25
1.1533659546722406 1.431807391891878e-23 4.3835015140710864e-16 4.3835015057542323e-16 8.316853407331852e-25
1.1707974979042381 1.4633052419510752e-23 4.5476407252806e-16 4.547640713826405e-16 1.1454194160622535e-24
1.1884924949847024 1.494194013734397e-23 4.71381863343101e-16 4.713818617733871e-16 1.5697138969462611e-24
1.2064549276569216 1.5247157417772863e-23 4.882805429274149e-16 4.882805407867104e-16 2.1407045633155556e-24
1.2246888378427687 1.5545397496801546e-23 5.053555318981177e-16 5.053555289928404e-16 2.905277383295988e-24
1.2431983285522175 1.583597740303829e-23 5.225823337002502e-16 5.225823297761914e-16 3.9240587053962294e-24
1.2619875648066055 1.611880668006367e-23 5.39954786299038e-16 5.39954781023997e-16 5.275041041436911e-24
1.3004222497298317 1.6656601331549408e-23 5.749634208457303e-16 5.749634114458664e-16 9.39986365761244e-24
1.3400274889804893 1.715682436943478e-23 6.102672245138023e-16 6.102672080672543e-16 1.644654800254837e-23
1.3808389325824078 1.761778561467447e-23 6.457490521293411e-16 6.457490238619663e-16 2.826737473492486e-23
1.4228933163050095 1.8041854360336076e-23 6.814326605994148e-16 6.814326128501867e-16 4.7749228232565067e-23
1.466228494730424 1.8439221489059344e-23 7.176516197879016e-16 7.176515404769183e-16 7.931098327594865e-23
1.5108834753276823 1.8802537737935403e-23 7.54079046664094e-16 7.540789170723649e-16 1.2959172926961964e-22
1.5568984535646726 1.9125904929443148e-23 7.904087020248946e-16 7.904084935042354e-16 2.0852065907251923e-22
1.6043148490894465 1.941011197757211e-23 8.265841572971225e-16 8.265838262859277e-16 3.3101119465463837e-22
1.6531753430134553 1.9656221333524105e-23 8.625581559073188e-16 8.625576381059232e-16 5.17801395643849e-22
1.7035239163302658 1.986719883617673e-23 8.983680675154984e-16 8.983672691232666e-16 7.983922316217598e-22
1.755405889504358 2.0059023988527814e-23 9.346667254782539e-16 9.346655114731142e-16 1.2140051396454585e-21
1.8088679632656115 2.0228110395579315e-23 9.712513048323236e-16 9.71249483742458e-16 1.8210898655670186e-21
1.8639582606462262 2.0372110109240783e-23 1.0079561311640296e-15 1.0079534351454755e-15 2.696018553955904e-21
1.9207263702978936 2.0493219408499214e-23 1.0448287680518533e-15 1.0448248274655382e-15 3.940586315215983e-21
1.979223391128241 2.0596170843136303e-23 1.0820584817246323e-15 1.082052793000796e-15 5.688723836467409e-21
2.039501978296691 2.0686551645350467e-23 1.1199062431993618e-15 1.1198981290624099e-15 8.11413695224757e-21
2.1016163906111602 2.077955158803722e-23 1.159201812184427e-15 1.1591903722052563e-15 1.1439979170643476e-20
2.1656225393682647 2.088409118343745e-23 1.2005155137499622e-15 1.200499565391877e-15 1.5948358085490642e-20
2.231578038680979 2.1001003820435408e-23 1.2440033955668057e-15 1.2439814041704071e-15 2.199139639877517e-20
2.299542257339062 2.1135690258991554e-23 1.2901115506733083e-15 1.2900815471738717e-15 3.0003499436965446e-20
2.369576372248914 2.1299756702804896e-23 1.3397223003860715e-15 1.3396817852357033e-15 4.051515036784267e-20
2.4417434235010123 2.150684861339376e-23 1.3939469239794809e-15 1.393892758305026e-15 5.416567445515403e-20
2.5161083711144245 2.1780199672745738e-23 1.4546571051734666e-15 1.4545853858028059e-15 7.171937066125078e-20
2.5927381535095444 2.215766868612645e-23 1.524937891709462e-15 1.5248438121020164e-15 9.407960744583844e-20
2.6717017477616296 2.2684158484299554e-23 1.608718590020098e-15 1.6085962925792971e-15 1.2229744080055442e-19
2.753070231689431 2.342709501221932e-23 1.7120055272548656e-15 1.7118479428285004e-15 1.5758442636541056e-19
2.836916847834745 2.453931563089425e-23 1.8479000882068066e-15 1.8476987581708748e-15 2.0133003593147086e-19
2.9233170693905177 2.635721196334537e-23 2.045242574880036e-15 2.0449875057993206e-15 2.5506908071553745e-19
2.967498994190263 2.786287565167742e-23 2.1947545105098507e-15 2.194468745608373e-15 2.857649014776018e-19
3.0123486681368425 2.9612661750374554e-23 2.3678387163495316e-15 2.3675189859121477e-15 3.19730437384272e-19
3.0578761833420214 3.345312443589176e-23 2.7153512424019746e-15 2.714993886068171e-15 3.57356333804278e-19
3.1040917844459814 3.838275563566134e-23 3.162569938645098e-15 3.1621712675379462e-15 3.986711071509069e-19
3.127460860933648 4.356290815895117e-23 3.6164143257718546e-15 3.615993386398206e-15 4.2093937364788634e-19
3.1510058709225794 5.045238923724183e-23 4.219882738604004e-15 4.219438478982367e-15 4.442596216358719e-19
3.162844764501044 5.685420469365024e-23 4.773202931370426e-15 4.772746561392847e-15 4.563699775797263e-19
3.1747281389236908 6.429297219840733e-23 5.418005949607105e-15 5.417537193464736e-15 4.687561423689151e-19
3.1986289994194426 8.502202402231352e-23 7.218795565669432e-15 7.218301128877184e-15 4.944367922471686e-19
3.2227097969389145 1.338436995894553e-22 1.1449553872156281e-14 1.1449032107306433e-14 5.217648498435135e-19
3.2348180950136065 1.8012402801970485e-22 1.5466460870396785e-14 1.5465924491105992e-14 5.363792907943982e-19
3.240889293275058 2.1472252456770067e-22 1.8471885750363664e-14 1.847134166119541e-14 5.440891682583458e-19
3.2469718861334385 2.5475034229970794e-22 2.195648106543887e-14 2.1955928997777504e-14 5.520676613712476e-19
3.2714166318528037 4.681767516617836e-22 4.0655109432509214e-14 4.065452429821167e-14 5.851342975403118e-19
3.2744851364798273 4.815226309520778e-22 4.1853247312184826e-14 4.185265825502004e-14 5.890571647921741e-19
3.2775565192852394 4.952511735011809e-22 4.308688880055251e-14 4.308629579839704e-14 5.930021554832489e-19
3.283707930232385 4.820670478806886e-22 4.201858282875253e-14 4.2017982719658673e-14 6.001090938633255e-19
3.2898708863219004 4.402255951628063e-22 3.844355808885061e-14 3.8442951463882565e-14 6.066249680471784e-19
3.29141343181113 4.303576850624538e-22 3.759944486764655e-14 3.7598836605172813e-14 6.082624737239119e-19
3.292184975758714 4.255088459332288e-22 3.718452642585023e-14 3.718391734334009e-14 6.090825101635755e-19
3.295272960557952 3.9490944471601897e-22 3.4542864445489007e-14 3.454225216414212e-14 6.122813468827048e-19
3.3076538914384823 2.8887934424348117e-22 2.536331303852217e-14 2.536268788328184e-14 6.251552403249246e-19
3.310756385682612 2.6729290644263256e-22 2.3490058145862784e-14 2.348942974023826e-14 6.284056245259223e-19
3.313861789986515 2.473734615103734e-22 2.1759901782873466e-14 2.1759270114042676e-14 6.31668830793212e-19
3.3200813396944477 2.1944353466149493e-22 1.9339308744533878e-14 1.9338670078595448e-14 6.386659384425852e-19
3.345076488085796 1.6966176335441268e-22 1.506466443618462e-14 1.506399463909829e-14 6.697970863327538e-19
3.3482140837626964 1.7153739543939228e-22 1.524549267152155e-14 1.5244818658768585e-14 6.740127529672675e-19
3.3513546224236106 1.7343366675244573e-22 1.5428482922271322e-14 1.5427804671986926e-14 6.78250284393759e-19
3.3576445397418455 1.8725786735335e-22 1.6689534485960107e-14 1.6688847384052677e-14 6.871019074308268e-19
3.3702598118196083 2.3821137992372274e-22 2.131058244551069e-14 2.1309876769595928e-14 7.0567591476273765e-19
3.382922481734668 2.4984623864454164e-22 2.2435424692025317e-14 2.2434700866690798e-14 7.238253345184976e-19
3.389271646505754 2.558731572174218e-22 2.3019746642897108e-14 2.3019013598729496e-14 7.330441676100876e-19
3.395632727569191 2.6237117600918716e-22 2.3648645203009914e-14 2.3647902656999972e-14 7.4254600994820535e-19
3.421196662673239 2.9357952968949597e-22 2.6660804063615795e-14 2.6660022072096118e-14 7.819915196803159e-19
3.4276182099114902 2.8732896461897207e-22 2.614214880435796e-14 2.6141357905296502e-14 7.908990614493837e-19
3.4340518103208963 2.5987358779583058e-22 2.368854675973448e-14 2.3687747384956706e-14 7.993747777702919e-19
3.4469541582030403 2.207663471385863e-22 2.019936944463235e-14 2.0198553697604192e-14 8.157470281594698e-19
3.472904465399547 2.0984102082730474e-22 1.9344284020008862e-14 1.9343430695553277e-14 8.533244555760036e-19
3.4990501388274233 1.931148795232345e-22 1.7936402297873078e-14 1.7935510269575886e-14 8.920282971893218e-19
3.5253949054701885 1.3349304604129115e-22 1.2492111402057951e-14 1.2491181381586851e-14 9.300204711003797e-19
3.5519380250092896 7.742443980512238e-23 7.299832319884812e-15 7.298863790374301e-15 9.685295105096914e-19
3.578680990867387 5.521650386598213e-23 5.245191207247991e-15 5.244180403122766e-15 1.0108041252255044e-18
3.605625307711299 4.62613628184691e-23 4.4276007156088084e-15 4.426545177399126e-15 1.055538209684927e-18
3.660119384959845 3.978630345869549e-23 3.865434114046774e-15 3.864283670415134e-15 1.1504436316390653e-18
3.715437065384467 3.5221811262874437e-23 3.4736897563020085e-15 3.4724378955597722e-15 1.251860742236243e-18
3.8285932144167436 3.3039919274119363e-23 3.35774441869029e-15 3.356269710832213e-15 1.4747078580774685e-18
3.94519561050918 3.276894713738279e-23 3.4316300490782998e-15 3.429904759175268e-15 1.7252899030313019e-18
4.06534921144712 3.3285604610055305e-23 3.5918958899430464e-15 3.589890433696034e-15 2.0054562470146037e-18
4.189162171576248 3.4260447063535254e-23 3.8096899477248106e-15 3.807371941198225e-15 2.3180065265860525e-18
4.316745939156006 3.557022450605209e-23 4.075796842054477e-15 4.073132306524401e-15 2.6645355300755207e-18
4.448215356677963 3.7173271818484947e-23 4.3892066194914395e-15 4.386163042245869e-15 3.0435772455701975e-18
4.58368876423945 3.907404618099421e-23 4.754150649769025e-15 4.750692108142638e-15 3.458541626384873e-18
4.723288106065518 4.1311391946654574e-23 5.179450637609629e-15 5.1755355525210856e-15 3.915085088543971e-18
4.867139040275056 4.3963372531169674e-23 5.679814953630628e-15 5.675407842429368e-15 4.407111201259994e-18
4.940699165968905 4.5544118783559855e-23 5.972967442439621e-15 5.968298622345684e-15 4.668820093937138e-18
5.015371051989984 4.717670903298827e-23 6.280585669839229e-15 6.275644694059585e-15 4.940975779645076e-18
5.091171501069577 4.9149490881385424e-23 6.642111832415122e-15 6.636883029693125e-15 5.228802721995945e-18
5.129500256944802 5.016003851545404e-23 6.829711368036545e-15 6.82433451666425e-15 5.376851372295724e-18
5.168117569889187 5.121136010444489e-23 7.025352632276598e-15 7.019823928678868e-15 5.528703597730431e-18
5.20702561229733 5.249300694080499e-23 7.255387258211964e-15 7.249694916825556e-15 5.6923413864124066e-18
5.246226572918644 5.380541498268233e-23 7.492771029101359e-15 7.486911640312298e-15 5.8593887890658576e-18
5.265937586045735 5.447345288480352e-23 7.614301072612974e-15 7.608356869990094e-15 5.9442026228774734e-18
5.285722656980489 5.514954450779023e-23 7.737768544515113e-15 7.731738661797418e-15 6.02988271768991e-18
5.305582063971359 5.583381662785907e-23 7.863208387500662e-15 7.857091953780211e-15 6.116433720451619e-18
5.3255160863122235 5.656761850169156e-23 7.99648320112423e-15 7.990278869095848e-15 6.204332028382696e-18
5.365609099470188 5.83874084197207e-23 8.315869435421122e-15 8.309482960821239e-15 6.3864745998813955e-18
5.406003951863644 6.027339542310514e-23 8.64911057608884e-15 8.642538120922417e-15 6.572455166424382e-18
5.446702915881641 6.222874651071633e-23 8.996926527017389e-15 8.990164206376547e-15 6.762320640841102e-18
5.487708281020852 6.433765631301148e-23 9.371857711317797e-15 9.364901018427245e-15 6.956692890550108e-18
5.529022354014368 6.725955493842377e-23 9.871241296151752e-15 9.864081154915737e-15 7.160141236011906e-18
5.570647458961463 7.034825804936125e-23 1.0402277994144125e-14 1.039491004056456e-14 7.367953579565061e-18
5.612585937458331 7.361571049405692e-23 1.0967381352944274e-14 1.0959801162963122e-14 7.580189981147404e-18
5.654840148729818 7.720165889253372e-23 1.1588211106307618e-14 1.1580413450319032e-14 7.79765598858702e-18
5.67608639626678 7.96419038063091e-23 1.19994147169591e-14 1.199150336757085e-14 7.911349388241883e-18
5.686739436050992 8.089886211980131e-23 1.2211673260930999e-14 1.2203704597136154e-14 7.968663794844256e-18
5.6974124697621304 8.218115780596254e-23 1.242851813438405e-14 1.2420491842791904e-14 8.026291592140725e-18
5.718818669136295 8.482419170380837e-23 1.2876430533359804e-14 1.2868288041212472e-14 8.142492147329111e-18
5.740305295436557 8.773606219579087e-23 1.3368496360045538e-14 1.3360235737578219e-14 8.26062246731702e-18
5.7835210386641895 9.528715603028042e-23 1.4628376106812213e-14 1.4619870147356525e-14 8.50595945568682e-18
5.827062130521658 1.0397201389965195e-22 1.608183263145383e-14 1.607307416784089e-14 8.75846361294439e-18
5.8489554468988025 1.1006812482183124e-22 1.7088711346078503e-14 1.7079817469178586e-14 8.89387689991588e-18
5.870931020387893 1.166029374605963e-22 1.817129596807006e-14 1.8162265019387996e-14 9.03094868206949e-18
5.892989160043636 1.2361159754693914e-22 1.9335895689044644e-14 1.9326725994179646e-14 9.169694864989882e-18
5.915130176081913 1.315792753665456e-22 2.0659567718768815e-14 2.065025435772617e-14 9.313361042653759e-18
5.95966208400165 1.538638625547603e-22 2.4340399351980955e-14 2.433076513600509e-14 9.63421597586382e-18
6.004529249263818 1.8596796217197403e-22 2.964056855490923e-14 2.963057629503224e-14 9.992259876983037e-18
6.027089341400364 2.0828594809620802e-22 3.332245834423712e-14 3.331226251663137e-14 1.0195827605767973e-17
6.049734195844842 2.3464253570291005e-22 3.768013672692382e-14 3.7669725757637675e-14 1.0410969286150204e-17
6.095279466722835 3.107830200531973e-22 5.028290246488468e-14 5.027197457421678e-14 1.09278906679005e-17
6.141167624020661 4.279218891361599e-22 6.975653291673375e-14 6.974494875892603e-14 1.1584157807727543e-17
6.164241091010745 5.027581759176552e-22 8.226369092403039e-14 8.225170212799021e-14 1.1988796040177265e-17
6.187401249150058 5.879470064434125e-22 9.656414448504861e-14 9.655173793207914e-14 1.2406552969418702e-17
6.1990139391386085 6.295521754419419e-22 1.0359141729580134e-13 1.035787976668353e-13 1.2619628965988624e-17
6.204828454712694 6.514626938303262e-22 1.0729729239779858e-13 1.0728456490925591e-13 1.2727488542656233e-17
6.210648424152782 6.67465501741146e-22 1.100361032398221e-13 1.1002328203344221e-13 1.2821206379890143e-17
6.233982942956859 7.218360500942871e-22 1.1944655004131424e-13 1.1943339422709466e-13 1.315581421959517e-17
6.239830258556775 7.287887403063402e-22 1.207101704153267e-13 1.2069696233676009e-13 1.3208078566574916e-17
6.245683058788269 7.293985295436981e-22 1.2092448832202709e-13 1.2091122780278396e-13 1.3260519243192414e-17
6.257405133728602 7.279208537023454e-22 1.209060042195776e-13 1.2089264844797081e-13 1.3355771606780749e-17
6.269149208991335 7.172495542144747e-22 1.1935711873393898e-13 1.193437113858704e-13 1.3407348068585985e-17
6.280915325867298 6.904632522614856e-22 1.1511527127262669e-13 1.1510186663438852e-13 1.3404638238133169e-17
6.304513850009849 6.243902850260739e-22 1.0449058807044846e-13 1.0447723819730477e-13 1.334987314369311e-17
6.32820103803542 5.424913159497936e-22 9.11260386023344e-14 9.111279597930875e-14 1.3242623025603123e-17
6.3519772230701035 4.673774481903467e-22 7.880361094921474e-14 7.879045885637048e-14 1.3152092844273072e-17
6.375842739491607 4.041521641742555e-22 6.839934429279032e-14 6.838626582854045e-14 1.3078464249874857e-17
6.399797922933955 3.535083933986023e-22 6.005309901990868e-14 6.004003041046654e-14 1.3068609442140361e-17
6.42384311029221 3.1137553243586517e-22 5.309441521632894e-14 5.3081343677153276e-14 1.3071539175670915e-17
6.447978639727206 2.8068634114134547e-22 4.804125039771289e-14 4.802812544253718e-14 1.3124955175715518e-17
6.472204850670314 2.551062540605702e-22 4.382710591550802e-14 4.3813917021157615e-14 1.3188894350419407e-17
6.496522083828205 2.3849188697925083e-22 4.11267093517758e-14 4.111341490548144e-14 1.3294446294346407e-17
6.520930681187647 2.2449003008544503e-22 3.885760907725484e-14 3.8844201870979296e-14 1.3407206275538451e-17
6.57002334288761 2.1017264753735955e-22 3.665325435769758e-14 3.663956120776921e-14 1.3693149928356072e-17
