Dust emission spectrum from A.P. Jones, M. Kohler, N. Ysard, M. Bocchio, and L. Verstraete (2017), A&A, 602A, 46J 
inside the DustPedia framework.

lambda    nu*dP/dnu     j_nu    j_nu(carb.) j_nu(sil)
 (um)   (erg s-1 H-1) (Jy cm2 sr-1 H-1)
0.9927057738263894 8.665457602383194e-22 2.2833972970445623e-14 2.283397228203484e-14 6.884107895973755e-22
1.0001793341362166 8.811335220032947e-22 2.3393167680725676e-14 2.3393166852143336e-14 8.2858233823413845e-22
1.0077091589558085 8.957723771167867e-22 2.39608546619332e-14 2.3960853665959955e-14 9.959732451572007e-22
1.0114953028030835 9.031101780169496e-22 2.424789485570555e-14 2.424789376429708e-14 1.0914084702254754e-21
1.0152956718711033 9.104598188458904e-22 2.4537072819880344e-14 2.4537071624289452e-14 1.1955908909281511e-21
1.0229392996569957 9.251862748744617e-22 2.5121668372682864e-14 2.5121666939355094e-14 1.4333277689415722e-21
1.0267826658714554 9.32546288469509e-22 2.5416652971845864e-14 2.541665140319612e-14 1.5686497458388822e-21
1.0306404723013447 9.399166030933208e-22 2.5713781374120237e-14 2.5713779657943225e-14 1.7161770159497535e-21
1.03451277320114 9.472969426103094e-22 2.6013059000737903e-14 2.6013057123783055e-14 1.876954842110776e-21
1.0383996230291617 9.546870374036303e-22 2.631449141008281e-14 2.6314489357969926e-14 2.052112881770592e-21
1.0403485208654093 9.583856605989226e-22 2.6466017434614674e-14 2.6466015289152542e-14 2.145462134432657e-21
1.0423010764483396 9.62086624549023e-22 2.66180843051738e-14 2.6618082062302233e-14 2.242871555083077e-21
1.0462171883269815 9.694954479875417e-22 2.6923843541256765e-14 2.6923841090707913e-14 2.450548856915657e-21
1.0471985131304309 9.713490676786398e-22 2.700062254233555e-14 2.7000620037059496e-14 2.5052760456837546e-21
1.048180758391296 9.732032452177789e-22 2.7077537410452042e-14 2.707753484927971e-14 2.561172329913514e-21
1.0501480137395462 9.769132586970943e-22 2.7231775133505053e-14 2.7231772456937415e-14 2.676567640898215e-21
1.0521189612883777 9.80625458425173e-22 2.738655748858205e-14 2.7386554691651743e-14 2.796930308018087e-21
1.0531058218030118 9.824798781276437e-22 2.746408352312027e-14 2.746408066407857e-14 2.8590417030666073e-21
1.0540936079674168 9.843266731767908e-22 2.754151755969e-14 2.7541514637204255e-14 2.922485744952428e-21
1.058054026499678 9.91718804277811e-22 2.7852605339338127e-14 2.785260214934173e-14 3.1899963930138382e-21
1.0590464539527713 9.935680572452385e-22 2.793071569201164e-14 2.7930712431564327e-14 3.26044731271323e-21
1.06003981227728 9.95417791381906e-22 2.8008961610173604e-14 2.8008958277788337e-14 3.3323852574354586e-21
1.0620293250338977 9.991186895922117e-22 2.8165860553826793e-14 2.816585707298472e-14 3.480842070388489e-21
1.0660195594769086 1.006526112498171e-21 2.848128979024109e-14 2.8481285993290603e-14 3.796950488501783e-21
1.070024785945596 1.0139408643359285e-21 2.8798899837738724e-14 2.879889569733967e-14 4.140399053802177e-21
1.0740450607676866 1.0213627445695457e-21 2.9118697695888164e-14 2.9118693182462475e-14 4.513425692395908e-21
1.07808044048254 1.0287915609469442e-21 2.9440690583104645e-14 2.944068566466425e-14 4.918440394370124e-21
1.0861967418109137 1.0436577623855287e-21 3.009095951562883e-14 3.0090953680619237e-14 5.8350095963536266e-21
1.0902777775684922 1.0510686270498718e-21 3.04184910484563e-14 3.041848469609531e-14 6.352360987098105e-21
1.0943741465085532 1.0584852897053416e-21 3.07482274221262e-14 3.074822050880625e-14 6.913319957031209e-21
1.1026131145906286 1.0733354332423485e-21 3.141434821564797e-14 3.141434003544089e-14 8.18020707642024e-21
1.1109141095355224 1.0882071351733404e-21 3.208939173098872e-14 3.208938206432589e-14 9.66666282197839e-21
1.1192775983109025 1.1030876723109706e-21 3.277308133888399e-14 3.2773069930458994e-14 1.1408424983138255e-20
1.1277040513999907 1.1179219718187302e-21 3.346386238963961e-14 3.346384894299285e-14 1.3446646755804563e-20
1.1361939428280308 1.1327738321827264e-21 3.416371660919491e-14 3.416370078054364e-14 1.582865126248753e-20
1.1447477501889525 1.1476428517027699e-21 3.4872733240790704e-14 3.487271463200686e-14 1.8608783849635775e-20
1.1533659546722406 1.1625343265377189e-21 3.559117664425718e-14 3.5591154794856504e-14 2.184940068234377e-20
1.1707974979042381 1.1924298414668064e-21 3.705817729364523e-14 3.705814728536913e-14 3.000827611252574e-20
1.1884924949847024 1.2224137277970256e-21 3.8564179449829864e-14 3.856413844225665e-14 4.100757322669895e-20
1.2064549276569216 1.2526907904787127e-21 4.0116627810383263e-14 4.011657204819512e-14 5.576218814203062e-20
1.2246888378427687 1.2830543866143093e-21 4.171000658780806e-14 4.1709931133467275e-14 7.545434078982564e-20
1.2431983285522175 1.3134762849418665e-21 4.334430927598841e-14 4.334420766968464e-14 1.0160630377389688e-19
1.2619875648066055 1.3439966470997462e-21 4.5021783359988806e-14 4.5021647191759723e-14 1.3616822909385764e-19
1.3004222497298317 1.4051228160435295e-21 4.850294516508204e-14 4.850270404542277e-14 2.411196592616358e-19
1.3400274889804893 1.4665897211152922e-21 5.2166509333742516e-14 5.2166090192677323e-14 4.1914106520338957e-19
1.3808389325824078 1.5285985594999329e-21 5.602810094710059e-14 5.602738536070399e-14 7.155863965905273e-19
1.4228933163050095 1.5916647460406402e-21 6.011645593710255e-14 6.011525546235206e-14 1.2004747504787641e-18
1.466228494730424 1.6569186972496426e-21 6.448701685391633e-14 6.44850369227109e-14 1.979931205413196e-18
1.5108834753276823 1.7241906044308354e-21 6.914896411207296e-14 6.914575234161472e-14 3.211770458248852e-18
1.5568984535646726 1.793395188036562e-21 7.411493302005772e-14 7.410980330153093e-14 5.129718526800419e-18
1.6043148490894465 1.8649494633280392e-21 7.941930898327305e-14 7.941122720830809e-14 8.081774964961661e-18
1.6531753430134553 1.9392981581940915e-21 8.510066175503591e-14 8.508811674046412e-14 1.2545014571785432e-17
1.7035239163302658 2.016975224835854e-21 9.120491267560723e-14 9.118572208150693e-14 1.919059410026808e-17
1.755405889504358 2.0995368246149395e-21 9.782964565006632e-14 9.780070055573149e-14 2.894509433482566e-17
1.8088679632656115 2.1869750684359462e-21 1.0500745483959677e-13 1.049643938873648e-13 4.3060952231942234e-17
1.8639582606462262 2.2792533148822546e-21 1.1277120243766077e-13 1.1270799242013182e-13 6.321001752894676e-17
1.9207263702978936 2.3766662858200714e-21 1.21172240338865e-13 1.2108065117736536e-13 9.15891614996373e-17
1.979223391128241 2.4796561240051667e-21 1.3027338728035333e-13 1.301423411013455e-13 1.3104617900781809e-16
2.039501978296691 2.5886108113014786e-21 1.4013942287193494e-13 1.3995420625589452e-13 1.852166160403983e-16
2.1016163906111602 2.7047229558937754e-21 1.508848609482934e-13 1.5062616572890247e-13 2.5869521939089975e-16
2.1656225393682647 2.828558847033545e-21 1.62598829299861e-13 1.6224164094268084e-13 3.5718835718016566e-16
2.231578038680979 2.9597896431494558e-21 1.7532439866796095e-13 1.7483671314859438e-13 4.876855193665582e-16
2.299542257339062 3.0985031825166278e-21 1.891310241860744e-13 1.8847238599858027e-13 6.586381874941416e-16
2.369576372248914 3.2451021881032695e-21 2.0411199193937615e-13 2.032318420433255e-13 8.801498960505855e-16
2.4417434235010123 3.400077550452437e-21 2.2037294854036593e-13 2.1920882933439057e-13 1.1641192059753185e-15
2.5161083711144245 3.564555318017425e-21 2.3806970542268847e-13 2.365452769964007e-13 1.5244284262877167e-15
2.5927381535095444 3.740508388421726e-21 2.574297439212479e-13 2.5545268792023433e-13 1.977056001013503e-15
2.6717017477616296 3.92970753038988e-21 2.786875943339793e-13 2.761475447431055e-13 2.540049590873829e-15
2.753070231689431 4.134849080770499e-21 3.0216655018266357e-13 2.9893299889120456e-13 3.233551291458937e-15
2.836916847834745 4.3633216856015356e-21 3.285740584202234e-13 3.2449416530982237e-13 4.079893110401069e-15
2.9233170693905177 4.6315749410769966e-21 3.593966718259776e-13 3.542941990813305e-13 5.1024727446470516e-15
2.967498994190263 4.7965217531419995e-21 3.778212946887001e-13 3.7214451330255023e-13 5.6767813861498686e-15
3.0123486681368425 4.973884492045237e-21 3.97713531130523e-13 3.9140609081394394e-13 6.307440316579079e-15
3.0578761833420214 5.261395720274459e-21 4.2706137757607164e-13 4.200603269890328e-13 7.001050587038865e-15
3.1040917844459814 5.598949434683605e-21 4.613287627966122e-13 4.535731703501303e-13 7.755592446481721e-15
3.127460860933648 5.9074898216606155e-21 4.904156247432502e-13 4.822561346987117e-13 8.159490044538432e-15
3.1510058709225794 6.2988787924774915e-21 5.268438282267507e-13 5.182634070679908e-13 8.58042115876001e-15
3.162844764501044 6.649323406257545e-21 5.582449028246318e-13 5.494466777723326e-13 8.798225052299298e-15
3.1747281389236908 7.046476324048465e-21 5.938106350044574e-13 5.847901979344955e-13 9.020437069962238e-15
3.1986289994194426 8.121713327837177e-21 6.895741289485476e-13 6.800946673768277e-13 9.479461571719947e-15
3.2227097969389145 1.0600406778081742e-20 9.068034494316939e-13 8.968376642834993e-13 9.965785148195079e-15
3.2348180950136065 1.292351858394488e-20 1.1096859018973469e-12 1.0994606059549187e-12 1.0225295942428228e-14
3.240889293275058 1.4657555489795582e-20 1.2609421900763515e-12 1.250580008602162e-12 1.0362181474189673e-14
3.2469718861334385 1.6666366770703047e-20 1.4364446505829898e-12 1.4259408325951796e-12 1.050381798781009e-14
3.2714166318528037 2.7225810741483817e-20 2.364210335423541e-12 2.353121263611204e-12 1.1089071812337267e-14
3.2744851364798273 2.7887159606614254e-20 2.423911386142423e-12 2.4127533582430173e-12 1.1158027899405342e-14
3.2775565192852394 2.85663284911072e-20 2.485272695943356e-12 2.4740453686868733e-12 1.1227327256483886e-14
3.283707930232385 2.792134346185587e-20 2.4337180649452097e-12 2.422366836756527e-12 1.1351228188682331e-14
3.2898708863219004 2.5860510200456143e-20 2.2583194548942133e-12 2.24685549629492e-12 1.1463958599292857e-14
3.29141343181113 2.5373619950575196e-20 2.216839753392154e-12 2.205347488292751e-12 1.1492265099402914e-14
3.292184975758714 2.513424554447874e-20 2.1964408650370037e-12 2.1849344280810646e-12 1.1506436955938998e-14
3.295272960557952 2.3638034913988714e-20 2.0676270135266463e-12 2.056065455708246e-12 1.156155781840023e-14
3.3076538914384823 1.8420563612700546e-20 1.6173067772583671e-12 1.6055238411044028e-12 1.1782936153963734e-14
3.310756385682612 1.734914816927167e-20 1.524666347121511e-12 1.5128276135948918e-12 1.1838733526619665e-14
3.313861789986515 1.6356884894445884e-20 1.4388132284027717e-12 1.4269185160776257e-12 1.1894712325146129e-14
3.3200813396944477 1.49716883292873e-20 1.3194378384109519e-12 1.3074227093451047e-12 1.2015129065847211e-14
3.345076488085796 1.2556187234708126e-20 1.1148932060410722e-12 1.102341422347951e-12 1.2551783693120992e-14
3.3482140837626964 1.2656443976320872e-20 1.1248493274266688e-12 1.1122248444969805e-12 1.2624482929688144e-14
3.3513546224236106 1.27576247283276e-20 1.1349053441319403e-12 1.12220783590314e-12 1.2697508228800565e-14
3.3576445397418455 1.3459526118209437e-20 1.1995929916827527e-12 1.1867428005312447e-12 1.2850191151507537e-14
3.3702598118196083 1.600043947098622e-20 1.4314122382400014e-12 1.4182417914638203e-12 1.3170446776180802e-14
3.382922481734668 1.661162633570665e-20 1.4916730133249622e-12 1.4781912872412883e-12 1.348172608367425e-14
3.389271646505754 1.6926812611112272e-20 1.5228285061902918e-12 1.5091890049152172e-12 1.3639501275074194e-14
3.395632727569191 1.7272403854909243e-20 1.5568362225641226e-12 1.5430341241231464e-12 1.380209844097641e-14
3.421196662673239 1.894374297584426e-20 1.7203359520490175e-12 1.7058607820896025e-12 1.4475169959415044e-14
3.4276182099114902 1.8647167585024044e-20 1.6965815835307233e-12 1.681956210274026e-12 1.4625373256697494e-14
3.4340518103208963 1.7287859516665392e-20 1.575859524662395e-12 1.56109208718868e-12 1.4767437473715603e-14
3.4469541582030403 1.5341454819929967e-20 1.4036909055317602e-12 1.3886507979889939e-12 1.5040107542766505e-14
3.472904465399547 1.481865442661678e-20 1.3660639797342069e-12 1.350395756633486e-12 1.566822310072091e-14
3.4990501388274233 1.4016290462971207e-20 1.3018252404390519e-12 1.285514273653533e-12 1.6310966785518686e-14
3.5253949054701885 1.1115484152081013e-20 1.0401730309806228e-12 1.0232376636480524e-12 1.6935367332570725e-14
3.5519380250092896 8.357717576135305e-21 7.87993262028167e-13 7.704303367676838e-13 1.756292526048324e-14
3.578680990867387 7.293644452972058e-21 6.928464693522778e-13 6.745957295530823e-13 1.8250739799195605e-14
3.605625307711299 6.896096839385087e-21 6.600143497886572e-13 6.410392377158348e-13 1.8975112072822304e-14
3.660119384959845 6.672868550400571e-21 6.483018398541599e-13 6.278050237281629e-13 2.049681612599656e-14
3.715437065384467 6.537573412445771e-21 6.447567850612556e-13 6.226560371857587e-13 2.2100747875496838e-14
3.8285932144167436 6.616188995212935e-21 6.723827466817705e-13 6.46835714596939e-13 2.554703208483168e-14
3.94519561050918 6.785217398425877e-21 7.105616123810201e-13 6.812581235778778e-13 2.930348880314243e-14
4.06534921144712 6.987762583909622e-21 7.540591796088474e-13 7.206940248602795e-13 3.336515474856772e-14
4.189162171576248 7.206685671576308e-21 8.013683507544879e-13 7.636295688258624e-13 3.773878192862543e-14
4.316745939156006 7.434452112776426e-21 8.518730726173455e-13 8.094660089952934e-13 4.2407063622051954e-14
4.448215356677963 7.667262272312094e-21 9.053063309394973e-13 8.580023124562573e-13 4.730401848324005e-14
4.58368876423945 7.904090305696207e-21 9.616929838440027e-13 9.092587144237772e-13 5.243426942022524e-14
4.723288106065518 8.145703630599566e-21 1.0212744687414147e-12 9.634460223861238e-13 5.782844635529055e-14
4.867139040275056 8.393156301344439e-21 1.084347535775071e-12 1.0210059906695128e-12 6.334154510555849e-14
4.940699165968905 8.523730115915454e-21 1.1178603040373874e-12 1.0517012966291952e-12 6.615900740819237e-14
5.015371051989984 8.652100919853262e-21 1.1518450982504062e-12 1.0828370037379722e-12 6.900809451243386e-14
5.091171501069577 8.79338738041114e-21 1.1883472507862585e-12 1.116396803058248e-12 7.195044772801042e-14
5.129500256944802 8.863052773138763e-21 1.2067792224992815e-12 1.1333488182193155e-12 7.343040427996564e-14
5.168117569889187 8.933428101596732e-21 1.2255187618685998e-12 1.150588130834187e-12 7.493063103441294e-14
5.20702561229733 9.015053753457037e-21 1.2460270414435723e-12 1.1694577535543144e-12 7.656928788925771e-14
5.246226572918644 9.09641184531823e-21 1.2667373937235096e-12 1.188519361388326e-12 7.821803233518371e-14
5.265937586045735 9.136992790354014e-21 1.2771691589144344e-12 1.198123187683906e-12 7.904597123052875e-14
5.285722656980489 9.177509751509276e-21 1.2876524530892192e-12 1.207776282145964e-12 7.987617094325583e-14
5.305582063971359 9.217963935989189e-21 1.298187652480531e-12 1.217479109735784e-12 8.070854274474725e-14
5.3255160863122235 9.260525088280802e-21 1.3090816842468365e-12 1.2275319665759258e-12 8.154971767091014e-14
5.365609099470188 9.362306891779182e-21 1.3334334205537843e-12 1.2501432635608588e-12 8.329015699292534e-14
5.406003951863644 9.464845933152394e-21 1.3581862857870244e-12 1.2731454689914821e-12 8.504081679554255e-14
5.446702915881641 9.568217575564009e-21 1.3833566534566359e-12 1.2965556645790375e-12 8.68009888775984e-14
5.487708281020852 9.676641493493608e-21 1.4095649794771168e-12 1.320987363894956e-12 8.857761558216112e-14
5.529022354014368 9.82297502743628e-21 1.4416532614684705e-12 1.3512236169549246e-12 9.042964451354575e-14
5.570647458961463 9.97329344201662e-21 1.474734041434781e-12 1.3824418045426537e-12 9.22922368921275e-14
5.612585937458331 1.012795292440243e-20 1.5088779460405537e-12 1.4147132741792434e-12 9.416467186131062e-14
5.654840148729818 1.029359599766818e-20 1.5451010402518459e-12 1.4490453796643383e-12 9.605566058750769e-14
5.67608639626678 1.0406103458289842e-20 1.5678574345395084e-12 1.470811985853255e-12 9.70454486862535e-14
5.686739436050992 1.0463449309959514e-20 1.5794563830368664e-12 1.481914935753106e-12 9.754144728376004e-14
5.6974124697621304 1.0521548215438354e-20 1.5912072339760111e-12 1.4931690668592504e-12 9.803816711676026e-14
5.718818669136295 1.0640083021652459e-20 1.6151794334320516e-12 1.516145708637505e-12 9.903372479454693e-14
5.740305295436557 1.076969004934173e-20 1.6409964001136888e-12 1.540956763224854e-12 1.0003963688883442e-13
5.7835210386641895 1.1104662156821297e-20 1.7047751379781457e-12 1.602656409663598e-12 1.02118728314548e-13
5.827062130521658 1.1481197380284653e-20 1.7758499403178537e-12 1.6716207643147508e-12 1.042291760031026e-13
5.8489554468988025 1.1747653539544232e-20 1.8238909825707414e-12 1.7185205935203921e-12 1.0537038905034916e-13
5.870931020387893 1.2029183057724463e-20 1.874616972405794e-12 1.7681006255502535e-12 1.0651634685553992e-13
5.892989160043636 1.232697944655565e-20 1.9282429276030283e-12 1.8205759648412547e-12 1.0766696276177387e-13
5.915130176081913 1.2663631458924332e-20 1.988346196331898e-12 1.8794860205535656e-12 1.0886017577833237e-13
5.95966208400165 1.3608579467702546e-20 2.1528008809681368e-12 2.0412118248831706e-12 1.1158905608496624e-13
6.004529249263818 1.4958852450817862e-20 2.3842219186185116e-12 2.269556450097273e-12 1.1466546852123873e-13
6.027089341400364 1.5896241661467926e-20 2.5431473195182638e-12 2.426699290506221e-12 1.164480290120425e-13
6.049734195844842 1.6993201643180955e-20 2.7288580027704825e-12 2.610520690681502e-12 1.1833731208898188e-13
6.095279466722835 2.015503995845858e-20 3.2609693677394323e-12 3.1379709290487417e-12 1.2299843869069058e-13
6.141167624020661 2.497485016763304e-20 4.071207858345037e-12 3.942138505383513e-12 1.2906935296152455e-13
6.164241091010745 2.804688356317131e-20 4.589164873573108e-12 4.456274906187805e-12 1.3288996738530384e-13
6.187401249150058 3.1502097777898877e-20 5.1738899731942646e-12 5.0370785007898465e-12 1.3681147240441797e-13
6.1990139391386085 3.3181519159113674e-20 5.459945548289772e-12 5.3211390191942115e-12 1.3880652909555923e-13
6.204828454712694 3.40624257733552e-20 5.610154031220548e-12 5.470339998794529e-12 1.3981403242601909e-13
6.210648424152782 3.470048732045063e-20 5.720604878161996e-12 5.579934783630424e-12 1.406700945315713e-13
6.233982942956859 3.6841016836848024e-20 6.096304501002223e-12 5.952659642628365e-12 1.4364485837385913e-13
6.239830258556775 3.70992333510776e-20 6.144791394834324e-12 6.000741169618354e-12 1.4405022521597038e-13
6.245683058788269 3.7097929499687035e-20 6.150338889992965e-12 6.005882715603936e-12 1.444561743890278e-13
6.257405133728602 3.698451904166155e-20 6.143044800223136e-12 5.997882422005848e-12 1.4516237821728725e-13
6.269149208991335 3.649521788021525e-20 6.0731498934432064e-12 5.927749001014183e-12 1.4540089242902462e-13
6.280915325867298 3.5349584310695236e-20 5.893546070659231e-12 5.7484847504370515e-12 1.4506132022218014e-13
6.304513850009849 3.255835827433344e-20 5.448582536083801e-12 5.30472308019782e-12 1.4385945588598115e-13
6.32820103803542 2.9152031154918747e-20 4.896869384367131e-12 4.7547679246351705e-12 1.4210145973196017e-13
6.3519772230701035 2.6043580733009244e-20 4.391157963986065e-12 4.250637253764143e-12 1.4052071022192265e-13
6.375842739491607 2.342106089500999e-20 3.963816972583324e-12 3.824695073002079e-12 1.391218995812459e-13
6.399797922933955 2.1339284719525105e-20 3.6250629467535915e-12 3.4866808618263696e-12 1.383820849272219e-13
6.42384311029221 1.960094178355849e-20 3.3422682043962507e-12 3.2044945126593853e-12 1.3777369173686465e-13
6.447978639727206 1.833883283711694e-20 3.138807740865731e-12 3.001128958040952e-12 1.376787828247793e-13
6.472204850670314 1.728273469900582e-20 2.969163758655289e-12 2.8314781620507623e-12 1.3768559660452592e-13
6.496522083828205 1.6594539302313243e-20 2.8616436531957747e-12 2.7235355590643964e-12 1.3810809413137874e-13
