Dust emission spectrum from A.P. Jones, M. Kohler, N. Ysard, M. Bocchio, and L. Verstraete (2017), A&A, 602A, 46J 
inside the DustPedia framework.

lambda    nu*dP/dnu     j_nu    j_nu(carb.) j_nu(sil)
 (um)   (erg s-1 H-1) (Jy cm2 sr-1 H-1)
0.9927057738263894 3.4391241359297554e-22 9.062287436526148e-15 9.062287436513488e-15 1.2657082382100621e-26
1.0001793341362166 3.495910345784361e-22 9.28127404911187e-15 9.281274049096624e-15 1.5247091868151928e-26
1.0077091589558085 3.5526147549919047e-22 9.502825493256129e-15 9.502825493237786e-15 1.834349657709428e-26
1.0114953028030835 3.5809293008047637e-22 9.614551943406343e-15 9.614551943386233e-15 2.0110352279265174e-26
1.0152956718711033 3.6092150383958734e-22 9.72690616176625e-15 9.726906161744213e-15 2.2040272325620303e-26
1.0229392996569957 3.6656612711462655e-22 9.95340390591278e-15 9.953403905886327e-15 2.6448167728404073e-26
1.0267826658714554 3.6937532767801627e-22 1.0067365701880604e-14 1.0067365701851645e-14 2.8959378688924566e-26
1.0306404723013447 3.72180405420401e-22 1.0181930551301733e-14 1.0181930551270031e-14 3.1698755910543994e-26
1.03451277320114 3.749810896669196e-22 1.0297093520420291e-14 1.0297093520385602e-14 3.468601820619456e-26
1.0383996230291617 3.7777711124924674e-22 1.0412849613973815e-14 1.0412849613935878e-14 3.794249425578634e-26
1.0403485208654093 3.7917328985090364e-22 1.0470948504866956e-14 1.0470948504827276e-14 3.9678822974290964e-26
1.0423010764483396 3.805682025572011e-22 1.0529193776375864e-14 1.0529193776334372e-14 4.1491245738486215e-26
1.0462171883269815 3.8335409758921646e-22 1.0646120892900134e-14 1.0646120892854773e-14 4.5357199194195387e-26
1.0471985131304309 3.8404972841421325e-22 1.0675443153695712e-14 1.0675443153649337e-14 4.63763603333278e-26
1.048180758391296 3.8474501382827526e-22 1.0704801444726719e-14 1.0704801444679302e-14 4.74174606659354e-26
1.0501480137395462 3.861345320016657e-22 1.0763625790865568e-14 1.0763625790816001e-14 4.956728717938029e-26
1.0521189612883777 3.875226193333928e-22 1.082259327587066e-14 1.0822593275818851e-14 5.181038352359913e-26
1.0531058218030118 3.8821504981805696e-22 1.0852100679613319e-14 1.0852100679560352e-14 5.296817997889544e-26
1.0540936079674168 3.889036164828166e-22 1.0881545806149948e-14 1.0881545806095796e-14 5.415100303025991e-26
1.058054026499678 3.9165395808231324e-22 1.0999673573801187e-14 1.0999673573742048e-14 5.914042056473017e-26
1.0590464539527713 3.92340542106111e-22 1.1029291910207512e-14 1.1029291910147059e-14 6.045495612773063e-26
1.06003981227728 3.9302671756071367e-22 1.1058944635345678e-14 1.1058944635283878e-14 6.17974599442673e-26
1.0620293250338977 3.9439782678420916e-22 1.1118352912075243e-14 1.1118352912010673e-14 6.456864850153939e-26
1.0660195594769086 3.97134967062768e-22 1.123757838202444e-14 1.1237578381953969e-14 7.047230052170007e-26
1.070024785945596 3.998651253289223e-22 1.135734449414322e-14 1.135734449406633e-14 7.68908680562033e-26
1.0740450607676866 4.0258804997197132e-22 1.147764570955792e-14 1.1477645709474052e-14 8.38669314707418e-26
1.07808044048254 4.0530349140013207e-22 1.1598476441214386e-14 1.159847644112294e-14 9.144638555236972e-26
1.0861967418109137 4.107061348357725e-22 1.1841565426500765e-14 1.1841565426392147e-14 1.0861709160352857e-25
1.0902777775684922 4.133819289522965e-22 1.1963495229348509e-14 1.1963495229230189e-14 1.183189902926038e-25
1.0943741465085532 4.1604907165565273e-22 1.2085922778949262e-14 1.2085922778820416e-14 1.2884607198148665e-25
1.1026131145906286 4.213564549353139e-22 1.2332247672345533e-14 1.2332247672192889e-14 1.5264646443796508e-25
1.1109141095355224 4.266264118643078e-22 1.2580492822186097e-14 1.2580492822005488e-14 1.806119748384717e-25
1.1192775983109025 4.31852210913181e-22 1.2830464875909397e-14 1.2830464875695972e-14 2.1342849880630266e-25
1.1277040513999907 4.370095648567429e-22 1.308143887496076e-14 1.3081438874708872e-14 2.518873705235376e-25
1.1361939428280308 4.4212340454189215e-22 1.3334152211087746e-14 1.3334152210790843e-14 2.9690022888844366e-25
1.1447477501889525 4.471920252079671e-22 1.3588555167095938e-14 1.358855516674642e-14 3.4951601667713735e-25
1.1533659546722406 4.522165262129754e-22 1.3844682172811662e-14 1.3844682172400719e-14 4.1094061936407035e-25
1.1707974979042381 4.621494165300071e-22 1.43626185946978e-14 1.436261859413184e-14 5.659584716569599e-25
1.1884924949847024 4.718844369458437e-22 1.4886806072406183e-14 1.4886806071630584e-14 7.756048708223482e-25
1.2064549276569216 4.814977817874236e-22 1.5419660981230352e-14 1.5419660980172615e-14 1.0577347183839168e-24
1.2246888378427687 4.908843911250848e-22 1.5957851359448436e-14 1.5957851358012923e-14 1.4355146471571826e-24
1.2431983285522175 5.000223041740229e-22 1.6500580669387895e-14 1.6500580667448995e-14 1.9389004928445762e-24
1.2619875648066055 5.089081129188488e-22 1.7047624976904196e-14 1.7047624974297772e-14 2.6064288147841e-24
1.3004222497298317 5.257756629346968e-22 1.8149067011994372e-14 1.8149067007349846e-14 4.6445279456401616e-24
1.3400274889804893 5.414211028108001e-22 1.9258316492076683e-14 1.9258316483950355e-14 8.126336166697896e-24
1.3808389325824078 5.5578649480127945e-22 2.0371379812073308e-14 2.0371379798106235e-14 1.3967076285092197e-23
1.4228933163050095 5.689419354591067e-22 2.1488678994039827e-14 2.148867897044665e-14 2.359317495025945e-23
1.466228494730424 5.812044094617302e-22 2.2620384820778002e-14 2.262038478158997e-14 3.918802442383773e-23
1.5108834753276823 5.92335429489553e-22 2.3755715435883225e-14 2.3755715371851177e-14 6.403203840817447e-23
1.5568984535646726 6.021420722673574e-22 2.4884487062504668e-14 2.4884486959473382e-14 1.0303129083954697e-22
1.6043148490894465 6.106424043395928e-22 2.600434957738285e-14 2.600434941382826e-14 1.6355459426867595e-22
1.6531753430134553 6.178624312397271e-22 2.7113160268785092e-14 2.7113160012936334e-14 2.558487526163931e-22
1.7035239163302658 6.238881558838046e-22 2.8211385085981308e-14 2.8211384691490927e-14 3.94490382783567e-22
1.755405889504358 6.292158537552398e-22 2.9318830367058965e-14 2.93188297672117e-14 5.998472691749841e-22
1.8088679632656115 6.337231379460615e-22 3.042817211275751e-14 3.042817121294588e-14 8.998116240721507e-22
1.8639582606462262 6.3732715961979075e-22 3.153319978398962e-14 3.1533198451870127e-14 1.3321194940481343e-21
1.9207263702978936 6.400882051668459e-22 3.263433419210022e-14 3.263433224503154e-14 1.9470686757994684e-21
1.979223391128241 6.42146444770632e-22 3.373636839417346e-14 3.3736365583337896e-14 2.8108355524138465e-21
2.039501978296691 6.436695896128539e-22 3.484629068794195e-14 3.484628667869194e-14 4.0092500179357515e-21
2.1016163906111602 6.451271908396868e-22 3.598887134510354e-14 3.5988865692528533e-14 5.652575018378333e-21
2.1656225393682647 6.46791537773648e-22 3.7180611233648745e-14 3.718060335344453e-14 7.880204209837642e-21
2.231578038680979 6.486821702790351e-22 3.842496431935007e-14 3.842495345322201e-14 1.0866128063649744e-20
2.299542257339062 6.509621192938625e-22 3.973438950234968e-14 3.973437467735309e-14 1.4824996590166506e-20
2.369576372248914 6.539917923998258e-22 4.113508904222014e-14 4.11350690232825e-14 2.0018937641499907e-20
2.4417434235010123 6.581967418835925e-22 4.266042599800356e-14 4.266039923413667e-14 2.6763866892034885e-20
2.5161083711144245 6.643057284909751e-22 4.4367685442573856e-14 4.436765000511057e-14 3.543746327520684e-20
2.5927381535095444 6.735113187784908e-22 4.6352481619314244e-14 4.6352435133173374e-14 4.648614086802951e-20
2.6717017477616296 6.872372592120473e-22 4.8737596125246745e-14 4.8737535695929454e-14 6.042931729175176e-20
2.753070231689431 7.076270854313171e-22 5.1711980544825583e-14 5.171190267906679e-14 7.786575878189024e-20
2.836916847834745 7.395374015789857e-22 5.5689867238577083e-14 5.568976775636964e-14 9.948220743777251e-20
2.9233170693905177 7.936646946770868e-22 6.158605948118324e-14 6.158593344386878e-14 1.2603731446572053e-19
2.967498994190263 8.396202652783157e-22 6.61367615953209e-14 6.613662038941167e-14 1.4120590924160476e-19
3.0123486681368425 8.932884902170925e-22 7.142765786593629e-14 7.142749987546095e-14 1.5799047535154455e-19
3.0578761833420214 1.0133513017123253e-21 8.225254778121806e-14 8.225237119708407e-14 1.7658413399198372e-19
3.1040917844459814 1.1680620325866121e-21 9.624316465957309e-14 9.624296765850284e-14 1.9700107022955844e-19
3.127460860933648 1.3317148524040662e-21 1.1055351613589722e-13 1.1055330813012821e-13 2.0800576897933994e-19
3.1510058709225794 1.5497579554333827e-21 1.2962313468239405e-13 1.2962291515192138e-13 2.195304725942502e-19
3.162844764501044 1.7527177169857132e-21 1.4714966799131838e-13 1.4714944247590095e-13 2.255154174278236e-19
3.1747281389236908 1.9887436291176425e-21 1.6759257577252792e-13 1.6759234413582284e-13 2.3163670505135866e-19
3.1986289994194426 2.6470878296978964e-21 2.2475101136084116e-13 2.2475076703249483e-13 2.4432834636228366e-19
3.2227097969389145 4.1989519141231734e-21 3.591960345896971e-13 3.591957767549758e-13 2.57834721137614e-19
3.2348180950136065 5.670601681595141e-21 4.869097142908828e-13 4.869094492328718e-13 2.6505801097163153e-19
3.240889293275058 6.770848996600438e-21 5.824742855923987e-13 5.824740167235332e-13 2.688688653411626e-19
3.2469718861334385 8.043664659228478e-21 6.932692187683566e-13 6.932689459557289e-13 2.728126275533378e-19
3.2714166318528037 1.4833062460432418e-20 1.2880600657927745e-12 1.2880597766346284e-12 2.8915814630047732e-19
3.2744851364798273 1.5257484307574108e-20 1.3261583631574538e-12 1.3261580720602473e-12 2.9109720674882317e-19
3.2775565192852394 1.5694096470685833e-20 1.3653875561305898e-12 1.3653872630833782e-12 2.93047211996741e-19
3.283707930232385 1.527419449031183e-20 1.3313500874104313e-12 1.3313497908507686e-12 2.9655966246174015e-19
3.2898708863219004 1.3942584137331625e-20 1.2175633336220903e-12 1.217563033842546e-12 2.9977954392525574e-19
3.29141343181113 1.3628557395965324e-20 1.190698366083067e-12 1.1906980654943337e-12 3.005887328366338e-19
3.292184975758714 1.3474255808342215e-20 1.17749331409338e-12 1.1774930130994184e-12 3.0099396157225933e-19
3.295272960557952 1.2500292349395395e-20 1.0934048550412732e-12 1.0934045524666859e-12 3.0257458743213696e-19
3.3076538914384823 9.126190584408846e-21 8.012702647458274e-13 8.012699558099883e-13 3.0893583927905675e-19
3.310756385682612 8.439475812402678e-21 7.416724229323659e-13 7.416721123904463e-13 3.105419195596506e-19
3.313861789986515 7.805874829726862e-21 6.866341627237889e-13 6.866338505694536e-13 3.1215433529789867e-19
3.3200813396944477 6.917319340632521e-21 6.096154740643681e-13 6.096151584523125e-13 3.156120555759556e-19
3.345076488085796 5.3322165856206185e-21 4.734599710344429e-13 4.73459640036735e-13 3.3099770785099794e-19
3.3482140837626964 5.391652754833371e-21 4.791864907978246e-13 4.791861577164549e-13 3.3308136969656987e-19
3.3513546224236106 5.451746010223385e-21 4.849817903887809e-13 4.849814552129368e-13 3.351758441771169e-19
3.3576445397418455 5.890932969168187e-21 5.250349709360448e-13 5.25034631384867e-13 3.395511777480776e-19
3.3702598118196083 7.510845588439827e-21 6.719263126690249e-13 6.719259639362226e-13 3.487328024741925e-19
3.382922481734668 7.879782070153064e-21 7.075802228746204e-13 7.075798651707251e-13 3.5770389542359007e-19
3.389271646505754 8.070916325419417e-21 7.261037109465386e-13 7.261033486858119e-13 3.622607267205156e-19
3.395632727569191 8.276872346520697e-21 7.460301870454634e-13 7.460298200879282e-13 3.6695753515459097e-19
3.421196662673239 9.26579275049741e-21 8.414533713449226e-13 8.414529848888137e-13 3.864561086133835e-19
3.4276182099114902 9.066484912791555e-21 8.248990770456187e-13 8.248986861867637e-13 3.9085885495260913e-19
3.4340518103208963 8.193156542676432e-21 7.46839929048492e-13 7.468395340006244e-13 3.9504786764614586e-19
3.4469541582030403 6.949375378573223e-21 6.358441968200575e-13 6.35843793680872e-13 4.031391854254426e-19
3.472904465399547 6.6007766444911376e-21 6.084954107650948e-13 6.084949890517316e-13 4.2171336315816104e-19
3.4990501388274233 6.067623764194513e-21 5.635575109251681e-13 5.635570700807199e-13 4.408444482597489e-19
3.5253949054701885 4.170313178329586e-21 3.9025266371590294e-13 3.9025220409373385e-13 4.596221690360858e-19
3.5519380250092896 2.3870747211722494e-21 2.2506130161810177e-13 2.2506082296314155e-13 4.786549601959482e-19
3.578680990867387 1.6799968164690701e-21 1.5958823744683032e-13 1.595877378956563e-13 4.995511740369374e-19
3.605625307711299 1.3939793890809398e-21 1.3341552787490807e-13 1.3341500621047524e-13 5.216644328113064e-19
3.660119384959845 1.1852773538395843e-21 1.1515549623490555e-13 1.151549276536496e-13 5.685812559604652e-19
3.715437065384467 1.0374524883246684e-21 1.0231694373826834e-13 1.023163250184205e-13 6.187198478393351e-19
3.8285932144167436 9.622620441778363e-22 9.779170407012923e-14 9.779097516753174e-14 7.289025974344532e-19
3.94519561050918 9.476157407070277e-22 9.923622621002982e-14 9.923537339240311e-14 8.528176266779232e-19
4.06534921144712 9.578139571403942e-22 1.0335903632477088e-13 1.033580449365385e-13 9.9138823239329e-19
4.189162171576248 9.823824376307239e-22 1.0923886925709535e-13 1.0923772324702471e-13 1.146010070667434e-18
4.316745939156006 1.0174109565363937e-21 1.1657953868177324e-13 1.1657822119473404e-13 1.3174870391558476e-18
4.448215356677963 1.0615776420326306e-21 1.253449961646029e-13 1.2534349104955272e-13 1.5051150501566301e-18
4.58368876423945 1.1150251004978167e-21 1.3566543074361456e-13 1.3566372013888643e-13 1.7106047281745289e-18
4.723288106065518 1.1789781535173585e-21 1.47815381211279e-13 1.4781344442773004e-13 1.9367835489370336e-18
4.867139040275056 1.2559037783381774e-21 1.6225554705724483e-13 1.622533663766893e-13 2.1806805555825144e-18
4.940699165968905 1.3023471469923702e-21 1.70798718155186e-13 1.7079640768454495e-13 2.3104706410356144e-18
5.015371051989984 1.3504203230394912e-21 1.797800377133313e-13 1.797775922245264e-13 2.4454888049315063e-18
5.091171501069577 1.4091534108667848e-21 1.9043441500939852e-13 1.904318266811922e-13 2.5883282062898347e-18
5.129500256944802 1.4392875542289621e-21 1.9597111290021267e-13 1.9596845107813863e-13 2.6618220740229025e-18
5.168117569889187 1.4707042277337605e-21 2.0175632509148897e-13 2.0175358787351892e-13 2.7372179701323457e-18
5.20702561229733 1.5093232047134965e-21 2.0861301316479735e-13 2.0861019470026244e-13 2.818464534962693e-18
5.246226572918644 1.5489226027482071e-21 2.1569803723152088e-13 2.1569513581027067e-13 2.9014212502125077e-18
5.265937586045735 1.5690997318151204e-21 2.193288131791923e-13 2.1932586963212716e-13 2.943547065158491e-18
5.285722656980489 1.58953386421789e-21 2.2301988610711673e-13 2.2301689999929666e-13 2.9861078201538663e-18
5.305582063971359 1.6102291481691302e-21 2.2677237753730566e-13 2.2676934843129968e-13 3.029106006042164e-18
5.3255160863122235 1.6324738086794047e-21 2.3076894048473657e-13 2.307658677065691e-13 3.07277816746805e-18
5.365609099470188 1.6879651077737075e-21 2.4040966755859026e-13 2.4040650426992736e-13 3.163288662866744e-18
5.406003951863644 1.745568326427148e-21 2.50485531259771e-13 2.5048227553120147e-13 3.2557285695325736e-18
5.446702915881641 1.8053858317376287e-21 2.610196186141151e-13 2.610162684911575e-13 3.3501229576623162e-18
5.487708281020852 1.870039966653298e-21 2.7240265633374997e-13 2.723992095501059e-13 3.446783644054903e-18
5.529022354014368 1.960072845763893e-21 2.876669647351023e-13 2.8766341674349133e-13 3.5479916109787404e-18
5.570647458961463 2.0554242714503973e-21 3.039321123280085e-13 3.0392846092751705e-13 3.651400491374552e-18
5.612585937458331 2.1564781038927608e-21 3.2127541235339243e-13 3.212716553108383e-13 3.757042554061034e-18
5.654840148729818 2.2675943333162827e-21 3.403730206693432e-13 3.403691553456885e-13 3.865323654731241e-18
5.67608639626678 2.3433655734792105e-21 3.5306809613702624e-13 3.5306417417932076e-13 3.921957705520722e-18
5.686739436050992 2.3824248179937313e-21 3.5962673248714795e-13 3.596227819756201e-13 3.950511527840445e-18
5.6974124697621304 2.422291486129914e-21 3.6633085327431903e-13 3.663268740502451e-13 3.9792240738034414e-18
5.718818669136295 2.5045250023808215e-21 3.8019038630899855e-13 3.801863491810655e-13 4.037127932966077e-18
5.740305295436557 2.5951982952669682e-21 3.9543487701157935e-13 3.954307810023496e-13 4.096009229859934e-18
5.7835210386641895 2.8305975720169383e-21 4.3455012842795816e-13 4.3454591005618547e-13 4.21837177263833e-18
5.827062130521658 3.1018576660425898e-21 4.797786823676783e-13 4.797743379927186e-13 4.34437495971532e-18
5.8489554468988025 3.292277312075045e-21 5.111450453831547e-13 5.111406333702482e-13 4.4120129062540926e-18
5.870931020387893 3.496644341399284e-21 5.449138813000779e-13 5.44909400800402e-13 4.480499676047975e-18
5.892989160043636 3.71608212238869e-21 5.812866892456934e-13 5.812821394014859e-13 4.5498442075793575e-18
5.915130176081913 3.9656940780120146e-21 6.226628405451797e-13 6.226582188658218e-13 4.6216793580436865e-18
5.95966208400165 4.663885588773956e-21 7.378005197439047e-13 7.377957374578428e-13 4.782286061993583e-18
6.004529249263818 5.6705516361775175e-21 9.038028515946298e-13 9.037978897709568e-13 4.9618236729461834e-18
6.027089341400364 6.370457092190324e-21 1.0191724071093334e-12 1.0191673430252178e-12 5.064084115610477e-18
6.049734195844842 7.197647611333045e-21 1.1558362395581725e-12 1.1558310672919937e-12 5.172266179357858e-18
6.095279466722835 9.587407041529553e-21 1.5511872337100662e-12 1.5511818009242377e-12 5.432785828002137e-18
6.141167624020661 1.3265660309180946e-20 2.1624658460159963e-12 2.1624600815315168e-12 5.764484479387411e-18
6.164241091010745 1.5614652531276962e-20 2.554943929801916e-12 2.5549379604890077e-12 5.9693129084677805e-18
6.187401249150058 1.829066683619172e-20 3.004050663991085e-12 3.0040444828527866e-12 6.18113829799569e-18
6.1990139391386085 1.9597291232321437e-20 3.2246909042759367e-12 3.2246846150693193e-12 6.289206617331945e-18
6.204828454712694 2.028558839523792e-20 3.341079589236044e-12 3.341073245285758e-12 6.34395028542211e-18
6.210648424152782 2.078799931139386e-20 3.4270391988962873e-12 3.4270328074347117e-12 6.391461576001476e-18
6.233982942956859 2.249484695052582e-20 3.722357537555401e-12 3.722350976481477e-12 6.561073922906209e-18
6.239830258556775 2.2712985200837385e-20 3.761979518346328e-12 3.761972930856754e-12 6.587489574535411e-18
6.245683058788269 2.2731800596412973e-20 3.7686274984393255e-12 3.768620884441672e-12 6.613997653361931e-18
6.257405133728602 2.2684676880398208e-20 3.7678734228744945e-12 3.767866760768479e-12 6.662106016218752e-18
6.269149208991335 2.234866777890414e-20 3.719029977722899e-12 3.7190232897987e-12 6.687924199748689e-18
6.280915325867298 2.1506390838860348e-20 3.5855840370965383e-12 3.5855773510598666e-12 6.686036670830657e-18
6.304513850009849 1.9429427571074873e-20 3.2514796617776015e-12 3.251473004720127e-12 6.657057474483168e-18
6.32820103803542 1.6855092280439985e-20 2.831267053748433e-12 2.8312604526328364e-12 6.601115597113247e-18
6.3519772230701035 1.4494220661766297e-20 2.4438426168494204e-12 2.443836063257295e-12 6.553592124377049e-18
6.375842739491607 1.2508082973687435e-20 2.1168875230645953e-12 2.1168810083066474e-12 6.514757948139458e-18
6.399797922933955 1.0916105635877392e-20 1.854400022474035e-12 1.8543935142465104e-12 6.508227524770001e-18
6.42384311029221 9.592523854972359e-21 1.6356758687625737e-12 1.6356693604942388e-12 6.508268335190535e-18
6.447978639727206 8.62785333541484e-21 1.4767119083741957e-12 1.4767053743774965e-12 6.533996699360035e-18
6.472204850670314 7.82420966285615e-21 1.3441946645405235e-12 1.3441880994303045e-12 6.565110219312537e-18
6.496522083828205 7.301733235752754e-21 1.2591466500373294e-12 1.259140032605063e-12 6.617432265852704e-18
