Dust emission spectrum from A.P. Jones, M. Kohler, N. Ysard, M. Bocchio, and L. Verstraete (2017), A&A, 602A, 46J 
inside the DustPedia framework.

lambda    nu*dP/dnu     j_nu    j_nu(carb.) j_nu(sil)
 (um)   (erg s-1 H-1) (Jy cm2 sr-1 H-1)
0.9927057738263894 5.15631255598176e-23 1.358717645771829e-15 1.3587176442569523e-15 1.5148763879151337e-24
1.0001793341362166 5.241687702633777e-23 1.3916129201273448e-15 1.3916129183031797e-15 1.8241653306897847e-24
1.0077091589558085 5.326995778935876e-23 1.4249085471316457e-15 1.4249085449379115e-15 2.193734242021179e-24
1.0114953028030835 5.369614934375942e-23 1.4417051375754784e-15 1.4417051351709458e-15 2.4045329565664997e-24
1.0152956718711033 5.412205681060272e-23 1.458600172830081e-15 1.458600170195357e-15 2.6347239521955345e-24
1.0229392996569957 5.497244828914611e-23 1.492671965698771e-15 1.4926719625385164e-15 3.1602546268037276e-24
1.0267826658714554 5.539590871213099e-23 1.5098216626941432e-15 1.5098216592346123e-15 3.45953079942429e-24
1.0306404723013447 5.581891083202605e-23 1.5270666194772209e-15 1.527066615691315e-15 3.785905703192119e-24
1.03451277320114 5.624141712613184e-23 1.544406232280029e-15 1.544406228138318e-15 4.1417112623946536e-24
1.0383996230291617 5.6663390314854e-23 1.5618398902340907e-15 1.5618398857046216e-15 4.529468782945113e-24
1.0403485208654093 5.687416541328424e-23 1.5705917933564202e-15 1.5705917886202476e-15 4.7361727421291994e-24
1.0423010764483396 5.708479336976601e-23 1.5793669755798919e-15 1.5793669706279883e-15 4.9519033442282754e-24
1.0462171883269815 5.750558952152101e-23 1.5969868638775313e-15 1.596986858465572e-15 5.411959203053631e-24
1.0471985131304309 5.761068944723135e-23 1.6014062626176685e-15 1.6014062570844496e-15 5.533218716974566e-24
1.048180758391296 5.771574859104859e-23 1.605831412221244e-15 1.6058314065641649e-15 5.65707916329522e-24
1.0501480137395462 5.79257422676113e-23 1.6146989242184723e-15 1.614698918305656e-15 5.912816274567823e-24
1.0521189612883777 5.813556603133738e-23 1.623589320029842e-15 1.6235893138502344e-15 6.1796077394978265e-24
1.0531058218030118 5.824025430573593e-23 1.6280386441183562e-15 1.6280386378010571e-15 6.317299153654679e-24
1.0540936079674168 5.834437917821197e-23 1.6324791224643869e-15 1.6324791160064303e-15 6.4579564973485886e-24
1.058054026499678 5.87604044013279e-23 1.6502967840384143e-15 1.650296776987249e-15 7.051165480763981e-24
1.0590464539527713 5.886428937304817e-23 1.6547650851914395e-15 1.6547650779840139e-15 7.207425117232932e-24
1.06003981227728 5.89681247083214e-23 1.6592389200582715e-15 1.6592389126912746e-15 7.366996908837529e-24
1.0620293250338977 5.917564427340041e-23 1.6682031495854899e-15 1.6682031418891446e-15 7.696345274647522e-24
1.0660195594769086 5.959006367633002e-23 1.6861975572318389e-15 1.6861975488340266e-15 8.397811804694974e-24
1.070024785945596 6.000362780244233e-23 1.7042793399152074e-15 1.7042793307549897e-15 9.160218274994613e-24
1.0740450607676866 6.041630216121894e-23 1.7224478256032376e-15 1.7224478156146578e-15 9.988579745685563e-24
1.07808044048254 6.08280525858726e-23 1.740702337512514e-15 1.7407023266242142e-15 1.088829936045649e-23
1.0861967418109137 6.164793074137077e-23 1.777446069984407e-15 1.7774460570588694e-15 1.2925537356455322e-23
1.0902777775684922 6.205436389168603e-23 1.7958866471497654e-15 1.7958866330736974e-15 1.407606780616481e-23
1.0943741465085532 6.245971133829033e-23 1.81440916338548e-15 1.814409148061441e-15 1.5324038751484996e-23
1.1026131145906286 6.32670204544985e-23 1.8516971950886694e-15 1.851697176944573e-15 1.8144096775010394e-23
1.1109141095355224 6.406960444645288e-23 1.889304497901707e-15 1.8893044764462977e-15 2.1455409804653386e-23
1.1192775983109025 6.486648514725881e-23 1.9272036550321622e-15 1.9272036296937354e-15 2.5338427266947555e-23
1.1277040513999907 6.565406502598379e-23 1.9652879652912116e-15 1.96528793540533e-15 2.988588104742564e-23
1.1361939428280308 6.643609074365655e-23 2.003668969308355e-15 2.003668934103848e-15 3.5204507162679224e-23
1.1447477501889525 6.721233547659166e-23 2.0423408223979074e-15 2.0423407809809038e-15 4.141700345154895e-23
1.1533659546722406 6.798298276719241e-23 2.081310025207357e-15 2.081309976543062e-15 4.8664295196268504e-23
1.1707974979042381 6.95099528040663e-23 2.160221142668969e-15 2.160221075735448e-15 6.693352080862616e-23
1.1884924949847024 7.101171366030023e-23 2.2402468218112695e-15 2.2402467302076766e-15 9.160359212764277e-23
1.2064549276569216 7.249979081260757e-23 2.321759804148129e-15 2.3217596793961535e-15 1.2475197565903678e-22
1.2246888378427687 7.395885708878348e-23 2.4042818828125196e-15 2.4042817137436686e-15 1.6906885088445955e-22
1.2431983285522175 7.538581958871807e-23 2.4877086223310684e-15 2.4877083943053423e-15 2.2802572670871226e-22
1.2619875648066055 7.678053340420934e-23 2.5720276524857624e-15 2.5720273464062785e-15 3.0607948424225647e-22
1.3004222497298317 7.945227161903485e-23 2.7425852954478445e-15 2.742584751679026e-15 5.437688190299942e-22
1.3400274889804893 8.196663839703485e-23 2.9155484628262154e-15 2.9155475143937646e-15 9.484324502769604e-22
1.3808389325824078 8.431763097803676e-23 3.090514975758765e-15 3.0905133509131795e-15 1.6248455867051e-21
1.4228933163050095 8.651846161360376e-23 3.267763075282254e-15 3.267760339730858e-15 2.7355513961029577e-21
1.466228494730424 8.861943233088988e-23 3.449054462233256e-15 3.4490499340813485e-15 4.528151907497886e-21
1.5108834753276823 9.058831492658398e-23 3.6330601278849494e-15 3.63305275510627e-15 7.372778680055517e-21
1.5568984535646726 9.239957217094703e-23 3.8185605427152034e-15 3.8185487223955204e-15 1.1820319683733403e-20
1.6043148490894465 9.405922065341863e-23 4.005533905711923e-15 4.0055152111070816e-15 1.8694604840089138e-20
1.6531753430134553 9.557463220015343e-23 4.1940247366610415e-15 4.193995603446052e-15 2.913321499006457e-20
1.7035239163302658 9.696182434807327e-23 4.384483564121756e-15 4.384438818668849e-15 4.474545290887016e-20
1.755405889504358 9.829846817943373e-23 4.580297995822012e-15 4.580230229339504e-15 6.77664825091623e-20
1.8088679632656115 9.956933015850885e-23 4.780814418477102e-15 4.780713181239717e-15 1.0123723738405943e-19
1.8639582606462262 1.0076415626344e-22 4.9855340739217025e-15 4.985384829779985e-15 1.4924414171875672e-19
1.9207263702978936 1.0189397332338946e-22 5.194974615615163e-15 5.194757420735336e-15 2.1719487982999338e-19
1.979223391128241 1.0298135484779347e-22 5.410318710270544e-15 5.410006559371417e-15 3.121508991280408e-19
2.039501978296691 1.0405199105999805e-22 5.6330545758991715e-15 5.632611378562958e-15 4.431973362140631e-19
2.1016163906111602 1.0517724368676087e-22 5.86738606777475e-15 5.866764159298428e-15 6.219084763231728e-19
2.1656225393682647 1.063976409526738e-22 6.116235438168537e-15 6.115372654266475e-15 8.627839020608156e-19
2.231578038680979 1.0771339575321777e-22 6.380448820958121e-15 6.379265073767792e-15 1.1837471903274093e-18
2.299542257339062 1.0914642887514986e-22 6.662241302796803e-15 6.660634620070829e-15 1.606682725971225e-18
2.369576372248914 1.1074665430524786e-22 6.965796113828349e-15 6.9636380910062955e-15 2.1580228220526458e-18
2.4417434235010123 1.1257284790245943e-22 7.296307231154186e-15 7.293437986904152e-15 2.8692442500315387e-18
2.5161083711144245 1.1472817003146458e-22 7.662470969384845e-15 7.658693465820567e-15 3.777503564278218e-18
2.5927381535095444 1.173829258164336e-22 8.078542646017563e-15 8.073616530167052e-15 4.926115850510433e-18
2.6717017477616296 1.207355245160813e-22 8.562340229604718e-15 8.555975523031855e-15 6.3647065728626364e-18
2.753070231689431 1.250854754447952e-22 9.140997858637419e-15 9.132848332756104e-15 8.149525881314217e-18
2.836916847834745 1.311241171688449e-22 9.874124907431991e-15 9.863780951036032e-15 1.0343956395960115e-17
2.9233170693905177 1.403789280713941e-22 1.0892994323789483e-14 1.0879978145331055e-14 1.3016178458426482e-17
2.967498994190263 1.4772469835695083e-22 1.1636252197576243e-14 1.1621722942791961e-14 1.4529254784283213e-17
3.0123486681368425 1.5617449317198202e-22 1.2487766704531628e-14 1.2471570076567746e-14 1.619662796388106e-17
3.0578761833420214 1.7418066478275437e-22 1.4138042185764111e-14 1.412000573888418e-14 1.8036446879928598e-17
3.1040917844459814 1.9710864757567654e-22 1.6240884041443184e-14 1.6220837415020773e-14 2.0046626422406137e-17
3.127460860933648 2.209736039712134e-22 1.8344324123244498e-14 1.83231980021981e-14 2.1126121046396593e-17
3.1510058709225794 2.52607255786733e-22 2.1128295695334574e-14 2.1106042009422158e-14 2.2253685912414993e-17
3.162844764501044 2.819513046265733e-22 2.3671262327895736e-14 2.3648424221345628e-14 2.283810655011066e-17
3.1747281389236908 3.1598347215597483e-22 2.6628109940778128e-14 2.660467489681057e-14 2.3435043967559327e-17
3.1986289994194426 4.106301584794813e-22 3.4864556581055565e-14 3.483988632910664e-14 2.467025194891863e-17
3.2227097969389145 6.33308315481754e-22 5.417586108299831e-14 5.4149879504031995e-14 2.598157896634129e-17
3.2348180950136065 8.442546658193985e-22 7.249244810424285e-14 7.246576609314265e-14 2.6682011100183168e-17
3.240889293275058 1.0019512016804633e-21 8.619462798392006e-14 8.616757649893066e-14 2.7051484989405568e-17
3.2469718861334385 1.1844198350183185e-21 1.020830490210484e-13 1.020556152234927e-13 2.743379755568642e-17
3.2714166318528037 2.156310995212649e-21 1.8724778445261929e-13 1.8721876872469244e-13 2.901572792689437e-17
3.2744851364798273 2.2170922043274383e-21 1.927064324228371e-13 1.9267722970022155e-13 2.920272261554369e-17
3.2775565192852394 2.2796085889107038e-21 1.983261161903047e-13 1.98296725484887e-13 2.939070541765588e-17
3.283707930232385 2.2196071344191732e-21 1.9346841198729908e-13 1.934386839618173e-13 2.9728025481817884e-17
3.2898708863219004 2.0291058679244125e-21 1.771956246049964e-13 1.7716558854139199e-13 3.003606360447311e-17
3.29141343181113 1.984171057536481e-21 1.7335284781773164e-13 1.7332273437593798e-13 3.011344179367377e-17
3.292184975758714 1.9620902074956545e-21 1.7146387406003065e-13 1.7143372187374712e-13 3.015218628355155e-17
3.295272960557952 1.8228520678764247e-21 1.5944549497952413e-13 1.5941519188519272e-13 3.030309433143835e-17
3.3076538914384823 1.340123376050228e-21 1.1766147138701182e-13 1.176305616246849e-13 3.0909762326899055e-17
3.310756385682612 1.2417750142997324e-21 1.0912884923955416e-13 1.0909778644777382e-13 3.1062791780353044e-17
3.313861789986515 1.1509939536226212e-21 1.0124576513014186e-13 1.0121454876225666e-13 3.1216367885231705e-17
3.3200813396944477 1.0237408141021882e-21 9.022111181741117e-14 9.018956560842411e-14 3.1546208987059815e-17
3.345076488085796 7.972419587463693e-22 7.078897652308426e-14 7.075596162983902e-14 3.301489324521249e-17
3.3482140837626964 8.058237488807605e-22 7.161808669550582e-14 7.158487289149663e-14 3.321380400916469e-17
3.3513546224236106 8.144988505818564e-22 7.245699085834836e-14 7.242357718703607e-14 3.341367131227398e-17
3.3576445397418455 8.77563049638696e-22 7.821363656199581e-14 7.817980519993103e-14 3.383136206479667e-17
3.3702598118196083 1.1097269923299837e-21 9.927707303332575e-14 9.9242365418283e-14 3.470761504270473e-17
3.382922481734668 1.1629258399183571e-21 1.0442716786710605e-13 1.043916064290999e-13 3.556143800615547e-17
3.389271646505754 1.1904743573116116e-21 1.0710157481229202e-13 1.0706558017992402e-13 3.5994632368017313e-17
3.395632727569191 1.220220013379885e-21 1.0998369030073057e-13 1.09947249218002e-13 3.64410827286007e-17
3.421196662673239 1.3631920703519947e-21 1.237954046972153e-13 1.2375711312110424e-13 3.829157611110445e-17
3.4276182099114902 1.3347914998126042e-21 1.2144378850620483e-13 1.2140508164534391e-13 3.870686086089275e-17
3.4340518103208963 1.2097024017243098e-21 1.1026935115515874e-13 1.102302503827695e-13 3.910077238922289e-17
3.4469541582030403 1.0314348893103943e-21 9.437278216224395e-14 9.433292303134152e-14 3.9859130902437436e-17
3.472904465399547 9.816857382162277e-22 9.049711854992928e-14 9.045551572693659e-14 4.160282299270333e-17
3.4990501388274233 9.055604568737011e-22 8.410795014673244e-14 8.40645576487002e-14 4.339249803223934e-17
3.5253949054701885 6.3419246660329725e-22 5.93469336275674e-14 5.930179402180816e-14 4.51396057592279e-17
3.5519380250092896 3.787469954359201e-22 3.5709519698190664e-14 3.5662617201623664e-14 4.690249656699009e-17
3.578680990867387 2.7767309233741216e-22 2.637704962184041e-14 2.6328213748873435e-14 4.883587296697543e-17
3.605625307711299 2.370482604234137e-22 2.268750818264939e-14 2.2636631794682102e-14 5.0876387967279826e-17
3.660119384959845 2.0793114582223746e-22 2.0201528530252252e-14 2.0146346115531743e-14 5.518241472050858e-17
3.715437065384467 1.8745424934108985e-22 1.8487348673001936e-14 1.8427598904034244e-14 5.974976896769292e-17
3.8285932144167436 1.7816280014244688e-22 1.8106132246670857e-14 1.8036467620928098e-14 6.966462574276111e-17
3.94519561050918 1.7750536893472583e-22 1.858871923334506e-14 1.8508092580196733e-14 8.062665314832084e-17
4.06534921144712 1.8035699615600557e-22 1.9462574311164174e-14 1.9369912330301798e-14 9.266198086237853e-17
4.189162171576248 1.8521333430638746e-22 2.0595334806434643e-14 2.048950227387206e-14 1.0583253256257379e-16
4.316745939156006 1.9150655430659428e-22 2.194368520622483e-14 2.1823549160812196e-14 1.2013604541263313e-16
4.448215356677963 1.9904077548281753e-22 2.350159258414984e-14 2.336616316579627e-14 1.354294183535659e-16
4.58368876423945 2.0783116288138406e-22 2.5286878494180143e-14 2.5135102126464698e-14 1.517763677154503e-16
4.723288106065518 2.1804982172236716e-22 2.7338180461431747e-14 2.716885718844694e-14 1.6932327298479882e-16
4.867139040275056 2.3004203831501484e-22 2.972010867134739e-14 2.953240877293355e-14 1.8769989841383456e-16
4.940699165968905 2.3715448380083903e-22 3.110206209725389e-14 3.09047962590087e-14 1.9726583824518307e-16
5.015371051989984 2.444676346779247e-22 3.254571916036022e-14 3.233865452728637e-14 2.0706463307386035e-16
5.091171501069577 2.533000454183343e-22 3.423122393850892e-14 3.401392996933074e-14 2.1729396917817294e-16
5.129500256944802 2.5781064379090278e-22 3.5103088769699906e-14 3.488059604354078e-14 2.2249272615912534e-16
5.168117569889187 2.6249719209964835e-22 3.601027849526727e-14 3.578248800888656e-14 2.2779048638070376e-16
5.20702561229733 2.6822779825016884e-22 3.7073443933533614e-14 3.6839911459695895e-14 2.3353247383772525e-16
5.246226572918644 2.7408570713079556e-22 3.816830418539419e-14 3.7928955901218845e-14 2.393482841753472e-16
5.265937586045735 2.770636949333981e-22 3.87279725772995e-14 3.8485689012494296e-14 2.4228356480521635e-16
5.285722656980489 2.800750860540808e-22 3.929599437880226e-14 3.905075745285688e-14 2.45236925945393e-16
5.305582063971359 2.8312043168138823e-22 3.987251969372068e-14 3.9624311456825954e-14 2.4820823689472913e-16
5.3255160863122235 2.8638875082466344e-22 4.048434237852689e-14 4.0233125027480703e-14 2.512173510462004e-16
5.365609099470188 2.9452247574668864e-22 4.194757945925907e-14 4.1690135057037096e-14 2.5744440222196725e-16
5.406003951863644 3.0293974730761673e-22 4.3471242228234904e-14 4.320749101874319e-14 2.637512094917439e-16
5.446702915881641 3.116544714202973e-22 4.505847439337371e-14 4.478833756796091e-14 2.7013682541280906e-16
5.487708281020852 3.2105020443222687e-22 4.6766341930298454e-14 4.6489718224709894e-14 2.7662370558856643e-16
5.529022354014368 3.3412907904581846e-22 4.9037921323473014e-14 4.8754527083884414e-14 2.8339423958860394e-16
5.570647458961463 3.479369587509794e-22 5.1448849903648866e-14 5.115859786977384e-14 2.902520338750094e-16
5.612585937458331 3.6252659832878186e-22 5.4009768129296075e-14 5.371257191181163e-14 2.971962174844389e-16
5.654840148729818 3.785318747046835e-22 5.681882147960531e-14 5.651456607572693e-14 3.042554038783537e-16
5.67608639626678 3.894626924209145e-22 5.867921458165624e-14 5.83712690051867e-14 3.079455764695587e-16
5.686739436050992 3.9509057154498067e-22 5.963887305407303e-14 5.932907321806585e-14 3.097998360071651e-16
5.6974124697621304 4.0083021974142837e-22 6.061883025094157e-14 6.030717005508592e-14 3.116601958556705e-16
5.718818669136295 4.1265558894881556e-22 6.264169358496273e-14 6.232629441494919e-14 3.153991700135241e-16
5.740305295436557 4.256882640203048e-22 6.486286101341078e-14 6.454367376673409e-14 3.1918724667670524e-16
5.7835210386641895 4.595429392947677e-22 7.054851076778488e-14 7.022147995404134e-14 3.2703081374354343e-16
5.827062130521658 4.984532797058903e-22 7.709807589728916e-14 7.676303383280318e-14 3.3504206448595816e-16
5.8489554468988025 5.258231245490191e-22 8.163707348568397e-14 8.129772064834001e-14 3.393528373439468e-16
5.870931020387893 5.551426261752526e-22 8.651292312538112e-14 8.616922579381019e-14 3.4369733157090303e-16
5.892989160043636 5.865679484808943e-22 9.175366139942207e-14 9.140558586207152e-14 3.4807553735051327e-16
5.915130176081913 6.22294474489056e-22 9.77079011942261e-14 9.73552909658755e-14 3.5261022835058526e-16
5.95966208400165 7.223196974903655e-22 1.142669214511645e-13 1.139040711145145e-13 3.6285033665000623e-16
6.004529249263818 8.66435565838716e-22 1.3809713505332117e-13 1.377228083144815e-13 3.743267388396482e-16
6.027089341400364 9.666497071303934e-22 1.5464866878318223e-13 1.5426775774379746e-13 3.8091103938472495e-16
6.049734195844842 1.0849506014377934e-21 1.7422709348783806e-13 1.7383921614361987e-13 3.878773442182107e-16
6.095279466722835 1.426732885488368e-21 2.3083716257141454e-13 2.3043232507603603e-13 4.048374953784855e-16
6.141167624020661 1.9523380222844034e-21 3.182551184539647e-13 3.17828469798954e-13 4.266486550106647e-16
6.164241091010745 2.2880662694572807e-21 3.743843171934048e-13 3.7394407724963743e-13 4.4023994376747844e-16
6.187401249150058 2.6699786583045724e-21 4.38516060303019e-13 4.3806183586877353e-13 4.542244342452858e-16
6.1990139391386085 2.8564240362599134e-21 4.700182540172101e-13 4.695569078658925e-13 4.613461513175486e-16
6.204828454712694 2.9545901803943132e-21 4.866272919443657e-13 4.861623456996151e-13 4.649462447504941e-16
6.210648424152782 3.0262302623773624e-21 4.988940772366242e-13 4.984260403711469e-13 4.680368654772788e-16
6.233982942956859 3.2693963981939952e-21 5.410066737879907e-13 5.405277615881422e-13 4.789121998486401e-16
6.239830258556775 3.3003556449542488e-21 5.466419420340581e-13 5.461614459605049e-13 4.804960735531583e-16
6.245683058788269 3.3028463970127683e-21 5.475676113782077e-13 5.470855277804246e-13 4.820835977829377e-16
6.257405133728602 3.295721611718171e-21 5.474118910953605e-13 5.469269846899136e-13 4.849064054469327e-16
6.269149208991335 3.247347570878011e-21 5.40389390708154e-13 5.399032348437974e-13 4.861558643565364e-16
6.280915325867298 3.1266888587321465e-21 5.212871720242422e-13 5.208017158354299e-13 4.854561888122204e-16
6.304513850009849 2.8293905097504766e-21 4.734933988161385e-13 4.730111096510741e-13 4.822891650643961e-16
6.32820103803542 2.461328537089075e-21 4.1344646944461684e-13 4.129692281750286e-13 4.772412695881334e-16
6.3519772230701035 2.1238850914601136e-21 3.581041727543864e-13 3.5763138336127805e-13 4.727893931084417e-16
6.375842739491607 1.839838768072802e-21 3.113771903158128e-13 3.109082450266349e-13 4.689452891778871e-16
6.399797922933955 1.612401034764124e-21 2.739105515135867e-13 2.734432033717399e-13 4.673481418467909e-16
6.42384311029221 1.4231567124674003e-21 2.4267055544967533e-13 2.4220435772052797e-13 4.661977291474591e-16
6.447978639727206 1.2852973779317896e-21 2.19986811319938e-13 2.1952000222853348e-13 4.668090914045625e-16
6.472204850670314 1.1703603625368198e-21 2.0106722885764646e-13 2.0059945411548985e-13 4.677747421566248e-16
6.496522083828205 1.0956372351286913e-21 1.8893705230333992e-13 1.8846687560181392e-13 4.701767015259964e-16
