Dust emission spectrum from A.P. Jones, M. Kohler, N. Ysard, M. Bocchio, and L. Verstraete (2017), A&A, 602A, 46J 
inside the DustPedia framework.

lambda    nu*dP/dnu     j_nu    j_nu(carb.) j_nu(sil)
 (um)   (erg s-1 H-1) (Jy cm2 sr-1 H-1)
0.9927057738263894 6.695306513713667e-22 1.764251294945357e-14 1.764251294944979e-14 3.78214945683342e-27
1.0001793341362166 6.805892885190556e-22 1.8068929339828845e-14 1.8068929339824282e-14 4.556528185462844e-27
1.0077091589558085 6.91632080850294e-22 1.85003424889309e-14 1.8500342488925417e-14 5.482437334340714e-27
1.0114953028030835 6.971461751325748e-22 1.8717901276221363e-14 1.8717901276215355e-14 6.010829397976916e-27
1.0152956718711033 7.02654680429254e-22 1.8936683095776108e-14 1.8936683095769525e-14 6.588028064094605e-27
1.0229392996569957 7.136473659542612e-22 1.9377732840853317e-14 1.937773284084541e-14 7.90648207879463e-27
1.0267826658714554 7.191182117270119e-22 1.959964696572534e-14 1.959964696571668e-14 8.657695817274786e-27
1.0306404723013447 7.245810495719064e-22 1.9822736012114793e-14 1.9822736012105317e-14 9.47722561494779e-27
1.03451277320114 7.300353522953233e-22 2.0046990376168508e-14 2.004699037615814e-14 1.0370982274739542e-26
1.0383996230291617 7.35480595631679e-22 2.027240033411059e-14 2.027240033409925e-14 1.1345359843742213e-26
1.0403485208654093 7.381996570221308e-22 2.038553558988448e-14 2.038553558987261e-14 1.1864920804546072e-26
1.0423010764483396 7.409162583439435e-22 2.0498956044542835e-14 2.0498956044530437e-14 1.2407272638799382e-26
1.0462171883269815 7.463418223219394e-22 2.0726647550748035e-14 2.072664755073447e-14 1.3564194902643458e-26
1.0471985131304309 7.476965749786917e-22 2.078374671779251e-14 2.0783746717778642e-14 1.3869203305679557e-26
1.048180758391296 7.490506562548432e-22 2.0840916084826095e-14 2.084091608481192e-14 1.4180783779139755e-26
1.0501480137395462 7.517567726784108e-22 2.0955464782995115e-14 2.0955464782980293e-14 1.4824203261373266e-26
1.0521189612883777 7.544601077507143e-22 2.1070292369258712e-14 2.1070292369243212e-14 1.549556450435616e-26
1.0531058218030118 7.558086362439861e-22 2.112775230863673e-14 2.1127752308620894e-14 1.58421046965587e-26
1.0540936079674168 7.571496434557214e-22 2.118509105645606e-14 2.1185091056439864e-14 1.6196142500492178e-26
1.058054026499678 7.625060411964281e-22 2.1415122656437857e-14 2.141512265642016e-14 1.768963193637169e-26
1.0590464539527713 7.638431936807722e-22 2.1472798889215767e-14 2.147279888919768e-14 1.8083133753701743e-26
1.06003981227728 7.651795517650676e-22 2.1530542125959435e-14 2.153054212594095e-14 1.8485016083878854e-26
1.0620293250338977 7.678498536095887e-22 2.1646228949906908e-14 2.1646228949887594e-14 1.9314605159355113e-26
1.0660195594769086 7.731805829540436e-22 2.1878399347877497e-14 2.1878399347856416e-14 2.1082046814827092e-26
1.070024785945596 7.7849773525445085e-22 2.2111623162740425e-14 2.2111623162717425e-14 2.3003806248158372e-26
1.0740450607676866 7.8380082038250475e-22 2.2345889610577267e-14 2.234588961055217e-14 2.509266108163586e-26
1.07808044048254 7.890893521359225e-22 2.2581187813470277e-14 2.2581187813442916e-14 2.736238510727039e-26
1.0861967418109137 7.996114821881363e-22 2.3054565975495502e-14 2.3054565975462994e-14 3.2504960877383105e-26
1.0902777775684922 8.048228695653703e-22 2.329200646220555e-14 2.3292006462170143e-14 3.5411029351735574e-26
1.0943741465085532 8.100174279207061e-22 2.3530416843605857e-14 2.3530416843567295e-14 3.85645505839668e-26
1.1026131145906286 8.203542109342463e-22 2.4010101636738496e-14 2.4010101636692805e-14 4.569523673095947e-26
1.1109141095355224 8.306181826325108e-22 2.4493528281388128e-14 2.4493528281334053e-14 5.407533695491287e-26
1.1192775983109025 8.407962346633454e-22 2.4980320313362228e-14 2.498032031329832e-14 6.391090740552592e-26
1.1277040513999907 8.508410782105658e-22 2.5469066244730476e-14 2.5469066244655035e-14 7.543973865676198e-26
1.1361939428280308 8.608012496199613e-22 2.5961201709780852e-14 2.5961201709691915e-14 8.893583735833868e-26
1.1447477501889525 8.706734271942637e-22 2.645662988388854e-14 2.645662988378383e-14 1.0471455826705803e-25
1.1533659546722406 8.80459748592851e-22 2.695541776702084e-14 2.6955417766897706e-14 1.2313853075984867e-25
1.1707974979042381 8.99806444623011e-22 2.7964065972876234e-14 2.7964065972706572e-14 1.6964956766508677e-25
1.1884924949847024 9.187680361916353e-22 2.898489653279253e-14 2.898489653255995e-14 2.3257680223664032e-25
1.2064549276569216 9.374928519865956e-22 3.002261380373744e-14 3.0022613803420145e-14 3.1729592063141426e-25
1.2246888378427687 9.557763180172546e-22 3.1070730077285727e-14 3.107073007685494e-14 4.307856116052567e-25
1.2431983285522175 9.735756499036915e-22 3.2127693934622284e-14 3.212769393404021e-14 5.820747508146899e-25
1.2619875648066055 9.908841870619664e-22 3.319306882276142e-14 3.3193068821978635e-14 7.827849469311123e-25
1.3004222497298317 1.0237410747857717e-21 3.533816165151372e-14 3.533816165011769e-14 1.396032667015728e-24
1.3400274889804893 1.0542183625461836e-21 3.7498484584868417e-14 3.749848458242375e-14 2.4446680181515546e-24
1.3808389325824078 1.0822029937615318e-21 3.966625390485868e-14 3.96662539006532e-14 4.2054749824149654e-24
1.4228933163050095 1.1078312013568122e-21 4.1842282281983595e-14 4.184228227487321e-14 7.110392020772766e-24
1.466228494730424 1.1317199631810552e-21 4.404636417025983e-14 4.4046364158438356e-14 1.1821465205520491e-23
1.5108834753276823 1.1534046474142601e-21 4.625749401822946e-14 4.625749399889468e-14 1.9334784925953345e-23
1.5568984535646726 1.1725093088523736e-21 4.845582806884179e-14 4.845582803769969e-14 3.1142097875322985e-23
1.6043148490894465 1.1890688375921294e-21 5.06367744928538e-14 5.0636774443367053e-14 4.9486747175727117e-23
1.6531753430134553 1.2031335776807754e-21 5.279614339224809e-14 5.27961433147537e-14 7.749439423162672e-23
1.7035239163302658 1.214870710912886e-21 5.493482306406612e-14 5.493482294444762e-14 1.1961851388302619e-22
1.755405889504358 1.2252463483984623e-21 5.709136162441107e-14 5.709136144231844e-14 1.8209264361819142e-22
1.8088679632656115 1.2340218947268825e-21 5.925147490331439e-14 5.925147462984518e-14 2.7346921747341117e-22
1.8639582606462262 1.2410357407173279e-21 6.140304451242445e-14 6.140304410708278e-14 4.053416514650475e-22
1.9207263702978936 1.2464050204902605e-21 6.354686377448267e-14 6.354686318128775e-14 5.931949273864258e-22
1.979223391128241 1.2504024354352107e-21 6.569223819012445e-14 6.569223733267711e-14 8.57447357262109e-22
2.039501978296691 1.2533543497578634e-21 6.785274729683576e-14 6.78527460721919e-14 1.224643872823983e-21
2.1016163906111602 1.2561749468390785e-21 7.007659759293588e-14 7.007659586396568e-14 1.7289701982366312e-21
2.1656225393682647 1.2593942890390805e-21 7.239589066334765e-14 7.239588824958703e-14 2.4137606008331994e-21
2.231578038680979 1.2630502795547014e-21 7.481732063725115e-14 7.481731730398944e-14 3.3332617216204847e-21
2.299542257339062 1.2674602629402254e-21 7.736511583968644e-14 7.736511128508068e-14 4.554605748295847e-21
2.369576372248914 1.2733260128641591e-21 8.009026952271011e-14 8.009026336266246e-14 6.160047640734382e-21
2.4417434235010123 1.2814761920759811e-21 8.305771934363257e-14 8.305771109454896e-14 8.249083620997e-21
2.5161083711144245 1.293329986603451e-21 8.63789902119589e-14 8.6378979270832e-14 1.0941126902176272e-20
2.5927381535095444 1.311209870345628e-21 9.024025241994217e-14 9.024023804201273e-14 1.4377929435746056e-20
2.6717017477616296 1.3378886543302144e-21 9.4880590394731e-14 9.488057166951122e-14 1.8725219788707632e-20
2.753070231689431 1.3775410828718174e-21 1.0066796359800951e-13 1.0066793942295401e-13 2.4175055495980825e-20
2.836916847834745 1.439625757665103e-21 1.0840907727780793e-13 1.0840904632885368e-13 3.094895426151287e-20
2.9233170693905177 1.5449749575990896e-21 1.1988553891054548e-13 1.198854996169336e-13 3.929361193121549e-20
2.967498994190263 1.6344413715058029e-21 1.2874470019250544e-13 1.2874465611939717e-13 4.407310823042708e-20
3.0123486681368425 1.7389275308571617e-21 1.3904524919775588e-13 1.3904519982879692e-13 4.9368959002932117e-20
3.0578761833420214 1.9727211926755137e-21 1.6012348717111303e-13 1.601234319277433e-13 5.524336968315734e-20
3.1040917844459814 2.2739919550808168e-21 1.873669172199203e-13 1.8736685551563577e-13 6.170428452753888e-20
3.127460860933648 2.5926980345829537e-21 2.152351785251444e-13 2.1523511333420976e-13 6.519093465682173e-20
3.1510058709225794 3.017331983170229e-21 2.5237233250826954e-13 2.523722636627866e-13 6.884548294484437e-20
3.162844764501044 3.412600978391024e-21 2.8650540591367836e-13 2.8650533516904537e-13 7.074463305455552e-20
3.1747281389236908 3.872268208871297e-21 3.263182814039954e-13 3.263182087160856e-13 7.268790973880911e-20
3.1986289994194426 5.154418105296431e-21 4.376359065782169e-13 4.376358298584365e-13 7.671978037614139e-20
3.2227097969389145 8.176761963187317e-21 6.994746624942164e-13 6.994745814796039e-13 8.101461244958547e-20
3.2348180950136065 1.1042893597049869e-20 9.482048763424432e-13 9.482047930294175e-13 8.331302560127912e-20
3.240889293275058 1.3185698619176083e-20 1.1343230940606517e-12 1.1343230095346525e-12 8.452599931563218e-20
3.2469718861334385 1.56645924786614e-20 1.3501034976075062e-12 1.3501034118259577e-12 8.578154862763217e-20
3.2714166318528037 2.8887447160407963e-20 2.508502016308212e-12 2.508501925319048e-12 9.098916311350589e-20
3.2744851364798273 2.9714044051631885e-20 2.582701527193376e-12 2.5827014355859153e-12 9.16074598589637e-20
3.2775565192852394 3.0564383044379196e-20 2.659103590165484e-12 2.6591034979361543e-12 9.222933021835135e-20
3.283707930232385 2.9746601094897286e-20 2.5928136500405543e-12 2.5928135566906017e-12 9.33499517408282e-20
3.2898708863219004 2.7153197357592325e-20 2.3712058803136564e-12 2.3712057859359565e-12 9.437769979581149e-20
3.29141343181113 2.654160838805949e-20 2.318884444089071e-12 2.318884349453052e-12 9.463601931730325e-20
3.292184975758714 2.6241095282510513e-20 2.29316666457478e-12 2.2931665698093936e-12 9.476538698379336e-20
3.295272960557952 2.4344228356844697e-20 2.12939799595126e-12 2.129397900681221e-12 9.527003842918739e-20
3.3076538914384823 1.7772910994689852e-20 1.5604435351534608e-12 1.5604434378518597e-12 9.730160057565286e-20
3.310756385682612 1.6435482670990288e-20 1.4443722010248785e-12 1.4443721032102052e-12 9.781467324918705e-20
3.313861789986515 1.520149770199349e-20 1.3371810174313458e-12 1.3371809191015171e-12 9.832982906028266e-20
3.3200813396944477 1.3470968604209764e-20 1.187181118489556e-12 1.1871810190550133e-12 9.943454288877018e-20
3.345076488085796 1.0383846710355194e-20 9.220060145285061e-13 9.220059101764598e-13 1.0435204608118554e-19
3.3482140837626964 1.0499602368105552e-20 9.331586884995004e-13 9.331585834811707e-13 1.0501832982936238e-19
3.3513546224236106 1.061663781052166e-20 9.444453214806034e-13 9.444452157924443e-13 1.0568815880613424e-19
3.3576445397418455 1.1471988751294339e-20 1.0224518445785242e-12 1.0224517374908446e-12 1.0708767967844859e-19
3.3702598118196083 1.4626905960494358e-20 1.3085348210218096e-12 1.3085347109960717e-12 1.1002573765379813e-19
3.382922481734668 1.534544216344291e-20 1.3779735644272225e-12 1.3779734515294228e-12 1.1289779988854915e-19
3.389271646505754 1.5717693575312167e-20 1.414049554275568e-12 1.4140494399183171e-12 1.1435725076317605e-19
3.395632727569191 1.6118811246239936e-20 1.4528579474875956e-12 1.452857831625858e-12 1.1586173713702305e-19
3.421196662673239 1.8044823688559147e-20 1.6387024982020788e-12 1.6387023760907102e-12 1.2211136878701514e-19
3.4276182099114902 1.7656653917167497e-20 1.6064613419734737e-12 1.6064612184489684e-12 1.235245056412509e-19
3.4340518103208963 1.5955765044908973e-20 1.4544336327499892e-12 1.4544335078801734e-12 1.2486981623057393e-19
3.4469541582030403 1.3533384991780032e-20 1.2382586695326436e-12 1.2382585420624215e-12 1.2747022195953297e-19
3.472904465399547 1.2854451901702096e-20 1.1849931320755016e-12 1.1849929986336718e-12 1.3344182988833195e-19
3.4990501388274233 1.1816077678367195e-20 1.0974707042012933e-12 1.097470564601884e-12 1.3959940956814157e-19
3.5253949054701885 8.120855563918072e-21 7.599394529742615e-13 7.599393073234836e-13 1.4565077805044122e-19
3.5519380250092896 4.6477918337429994e-21 4.3820918988178665e-13 4.3820903808956213e-13 1.517922245497944e-19
3.578680990867387 3.270657114855851e-21 3.1069011508593545e-13 3.106899565447672e-13 1.5854116833733403e-19
3.605625307711299 2.7135812725719285e-21 2.5971250417865936e-13 2.597123384873055e-13 1.6569135388023447e-19
3.660119384959845 2.3070600783681124e-21 2.2414217845941905e-13 2.241419975683475e-13 1.8089107154650403e-19
3.715437065384467 2.019100927387552e-21 1.9913031036535171e-13 1.991301131884852e-13 1.9717686651611084e-19
3.8285932144167436 1.87255269232961e-21 1.9030171651473593e-13 1.9030148339353014e-13 2.3312120577361384e-19
3.94519561050918 1.8439187211475353e-21 1.930988769648122e-13 1.930986031735742e-13 2.737912379559478e-19
4.06534921144712 1.8636701628471812e-21 2.011112394250469e-13 2.011109198521262e-13 3.1957292070129666e-19
4.189162171576248 1.9114073468363567e-21 2.1254449312193004e-13 2.1254412210074082e-13 3.710211892249216e-19
4.316745939156006 1.979515059213487e-21 2.2682176846448821e-13 2.268213399439176e-13 4.285205706701132e-19
4.448215356677963 2.0654191742895813e-21 2.438728438024763e-13 2.4387235181945776e-13 4.91983018515191e-19
4.58368876423945 2.16939788107769e-21 2.639512759482187e-13 2.6395071381635456e-13 5.621318641737903e-19
4.723288106065518 2.2938370872776542e-21 2.875917611203846e-13 2.8759112102794295e-13 6.40092441584106e-19
4.867139040275056 2.443542144658915e-21 3.15691595389329e-13 3.1569087026907437e-13 7.251202546542653e-19
4.940699165968905 2.5339379999337547e-21 3.323179716505623e-13 3.3231720088852823e-13 7.707620341457402e-19
5.015371051989984 2.627508416886535e-21 3.4979743285908976e-13 3.497966143249573e-13 8.18534132598676e-19
5.091171501069577 2.7418405642645074e-21 3.7053510276328e-13 3.705342334145534e-13 8.693487266533279e-19
5.129500256944802 2.8005019056877173e-21 3.813119022145608e-13 3.81311006591652e-13 8.956229088435044e-19
5.168117569889187 2.8616612821916165e-21 3.9257265537425063e-13 3.925717327210638e-13 9.226531868441303e-19
5.20702561229733 2.9368478809204e-21 4.05920139392379e-13 4.0591918764693935e-13 9.517454397780463e-19
5.246226572918644 3.013944323055812e-21 4.1971230431705693e-13 4.197113227694504e-13 9.815476065804753e-19
5.265937586045735 3.053227775105329e-21 4.267802808843387e-13 4.267792841652686e-13 9.967190700063533e-19
5.285722656980489 3.0930118697206768e-21 4.339656866967566e-13 4.3396467462371075e-13 1.0120730457956542e-18
5.305582063971359 3.1333046890551496e-21 4.4127070652877814e-13 4.4126967891752467e-13 1.0276112534891675e-18
5.3255160863122235 3.1766150983842846e-21 4.490510639034224e-13 4.490500204890022e-13 1.0434144202432468e-18
5.365609099470188 3.2846632324371345e-21 4.678205681595171e-13 4.67819491952357e-13 1.076207160076424e-18
5.406003951863644 3.396825327485996e-21 4.8743757770486e-13 4.874364678893162e-13 1.1098155438337624e-18
5.446702915881641 3.513300808519737e-21 5.079470664915216e-13 5.079459222353099e-13 1.144256211485114e-18
5.487708281020852 3.6391967767136756e-21 5.301099904683568e-13 5.301088108219864e-13 1.1796463703100037e-18
5.529022354014368 3.8145197917401814e-21 5.598319127696607e-13 5.598306959745488e-13 1.2167951118142333e-18
5.570647458961463 4.00020306747194e-21 5.91503265250347e-13 5.91502010356395e-13 1.2548939518624921e-18
5.612585937458331 4.196994380419284e-21 6.252746539740104e-13 6.252733600099128e-13 1.293964097715645e-18
5.654840148729818 4.413385092263029e-21 6.624629428464397e-13 6.62461608684571e-13 1.3341618688251983e-18
5.67608639626678 4.560947210330444e-21 6.871846912652175e-13 6.871833360346177e-13 1.3552305999591906e-18
5.686739436050992 4.637014410847767e-21 6.999567535034751e-13 6.999553876342736e-13 1.3658692014384264e-18
5.6974124697621304 4.714654420212358e-21 7.130121979701755e-13 7.130108213923203e-13 1.3765778552158778e-18
5.718818669136295 4.874804633174524e-21 7.400021380923347e-13 7.400007398853107e-13 1.3982070241768511e-18
5.740305295436557 5.0513927983358164e-21 7.696895044937669e-13 7.696880842444321e-13 1.4202493345934834e-18
5.7835210386641895 5.509843278354213e-21 8.458648901195402e-13 8.458634238956413e-13 1.4662238988249437e-18
5.827062130521658 6.038143707600845e-21 9.33947635216749e-13 9.339461214377766e-13 1.5137789723311955e-18
5.8489554468988025 6.4090018054709965e-21 9.950345029269273e-13 9.950329635318114e-13 1.539395115947474e-18
5.870931020387893 6.807027994389242e-21 1.0608010659318485e-12 1.0607995005336817e-12 1.5653981667957011e-18
5.892989160043636 7.234410568888849e-21 1.1316398372623466e-12 1.1316382454682042e-12 1.5917941423381853e-18
5.915130176081913 7.720563903098785e-21 1.2122236753380515e-12 1.212222056146368e-12 1.619191683222808e-18
5.95966208400165 9.080389557390711e-21 1.4364666558386058e-12 1.436464975266976e-12 1.6805716299127685e-18
6.004529249263818 1.1041028872675407e-20 1.7597782402682421e-12 1.7597764906322803e-12 1.7496359620767084e-18
6.027089341400364 1.2404206741863877e-20 1.9844769473269597e-12 1.9844751581437043e-12 1.7891832546598035e-18
6.049734195844842 1.4015304511024408e-20 2.2506515652111685e-12 2.250649734025616e-12 1.831185552740234e-18
6.095279466722835 1.866978429329418e-20 3.020663556520739e-12 3.0206616235721436e-12 1.9329485951582566e-18
6.141167624020661 2.5833874410745264e-20 4.211239379078635e-12 4.2112373154594945e-12 2.0636191402682877e-18
6.164241091010745 3.0408969293950296e-20 4.975660608104317e-12 4.9756584635138546e-12 2.1445904632956442e-18
6.187401249150058 3.5621042336935757e-20 5.850383523064943e-12 5.8503812940927614e-12 2.228972180783127e-18
6.1990139391386085 3.8165953136726996e-20 6.2801231289578725e-12 6.280120856872903e-12 2.272084969999049e-18
6.204828454712694 3.9506552543671793e-20 6.506813298830864e-12 6.506811004836161e-12 2.2939947029642757e-18
6.210648424152782 4.048509789749886e-20 6.67423619693103e-12 6.674233883947852e-12 2.3129831779052712e-18
6.233982942956859 4.380953052100114e-20 7.2494263468549665e-12 7.249423965860821e-12 2.3809941450212504e-18
6.239830258556775 4.4234401918732676e-20 7.32659809149335e-12 7.326595699845745e-12 2.391647604421805e-18
6.245683058788269 4.427105200814541e-20 7.339546345002755e-12 7.3395439426561e-12 2.402346654021239e-18
6.257405133728602 4.4179275764696443e-20 7.338077587496185e-12 7.338075165698191e-12 2.4217979950849458e-18
6.269149208991335 4.352483664486656e-20 7.242945031853177e-12 7.242942599534268e-12 2.4323189088829024e-18
6.280915325867298 4.18843392033221e-20 6.983032121800995e-12 6.983029690072736e-12 2.4317282599304642e-18
6.304513850009849 3.783904898656757e-20 6.332296602705543e-12 6.332294182301446e-12 2.420404094829626e-18
6.32820103803542 3.282501467752739e-20 5.51384596708159e-12 5.513843569093025e-12 2.3979885654512686e-18
6.3519772230701035 2.8226740630186044e-20 4.759256347515651e-12 4.759253968732536e-12 2.378783114104159e-18
6.375842739491607 2.4358352385718303e-20 4.122445650241521e-12 4.122443287073165e-12 2.3631683565644937e-18
6.399797922933955 2.125764624684093e-20 3.6111944124401536e-12 3.611192052236052e-12 2.360204101859687e-18
6.42384311029221 1.867970939877705e-20 3.1851836243533754e-12 3.1851812643770238e-12 2.3599763516143636e-18
6.447978639727206 1.6800812518843433e-20 2.8755657928375594e-12 2.8755634228184984e-12 2.370019061261213e-18
6.472204850670314 1.523555565155588e-20 2.6174595902451558e-12 2.617457207953862e-12 2.3822912923294246e-18
6.496522083828205 1.421792038257091e-20 2.4518078437257533e-12 2.4518054405978867e-12 2.4031278662337713e-18
