Dust emission spectrum from A.P. Jones, M. Kohler, N. Ysard, M. Bocchio, and L. Verstraete (2017), A&A, 602A, 46J 
inside the DustPedia framework.

lambda    nu*dP/dnu     j_nu    j_nu(carb.) j_nu(sil)
 (um)   (erg s-1 H-1) (Jy cm2 sr-1 H-1)
0.9927057738263894 5.123928667078851e-20 1.3501843071090956e-12 1.3501842780132795e-12 2.909581588364435e-20
1.0001793341362166 5.2099229410650467e-20 1.3831797102316848e-12 1.3831796752234842e-12 3.500820082977053e-20
1.0077091589558085 5.2962808654680845e-20 1.4166926700142428e-12 1.416692627948619e-12 4.2065623285717476e-20
1.0114953028030835 5.3395926458832407e-20 1.433644357037082e-12 1.4336443109490994e-12 4.608798252464748e-20
1.0152956718711033 5.382991148470337e-20 1.4507267983140403e-12 1.4507267478360119e-12 5.0478028061691784e-20
1.0229392996569957 5.470000676029629e-20 1.485274335702973e-12 1.485274275210637e-12 6.049233569142993e-20
1.0267826658714554 5.51351304059601e-20 1.5027141209104436e-12 1.5027140547197915e-12 6.619065184635624e-20
1.0306404723013447 5.557104870681308e-20 1.5202857279835754e-12 1.5202856555821016e-12 7.240147416565799e-20
1.03451277320114 5.600774999933583e-20 1.5379896626887363e-12 1.537989583520193e-12 7.9168543002124e-20
1.0383996230291617 5.64452230441181e-20 1.5558264423220353e-12 1.55582635578292e-12 8.653911570286097e-20
1.0403485208654093 5.666424557976385e-20 1.5647948139125183e-12 1.5647947234460087e-12 9.04665102125679e-20
1.0423010764483396 5.688345703603345e-20 1.5737965961896784e-12 1.5737965016254475e-12 9.456423066037211e-20
1.0462171883269815 5.732244161432551e-20 1.5919006660944718e-12 1.5919005627954824e-12 1.0329898965691616e-19
1.0471985131304309 5.743230386698911e-20 1.5964476726736565e-12 1.5964475670732269e-12 1.0560042964093769e-19
1.048180758391296 5.754221225959509e-20 1.6010030924123087e-12 1.6010029844614187e-12 1.0795088990984908e-19
1.0501480137395462 5.776216687260038e-20 1.6101392068283602e-12 1.6101390940255003e-12 1.1280285965203678e-19
1.0521189612883777 5.79823042876591e-20 1.6193090808029452e-12 1.619308962939878e-12 1.1786306720958347e-19
1.0531058218030118 5.809229638692688e-20 1.6239026523992958e-12 1.623902531925221e-12 1.2047407459449437e-19
1.0540936079674168 5.820185937929936e-20 1.6284914102024734e-12 1.6284912870615282e-12 1.231409447498026e-19
1.058054026499678 5.864054235164931e-20 1.6469304362889706e-12 1.6469303019049775e-12 1.3438399303343703e-19
1.0590464539527713 5.875032019316838e-20 1.6515612374653961e-12 1.6515611001209191e-12 1.373444775965504e-19
1.06003981227728 5.886014061991859e-20 1.656200475082936e-12 1.656200334715675e-12 1.403672610046929e-19
1.0620293250338977 5.907990873644333e-20 1.6655042972748807e-12 1.665504150670154e-12 1.4660472714138853e-19
1.0660195594769086 5.951995068341423e-20 1.6842135963146804e-12 1.6842134364310673e-12 1.5988361269908902e-19
1.070024785945596 5.996066084982638e-20 1.7030589522099247e-12 1.7030587779025884e-12 1.7430733592766726e-19
1.0740450607676866 6.040203240971389e-20 1.722040999935785e-12 1.7220408099665339e-12 1.8996925103109565e-19
1.07808044048254 6.084405906297983e-20 1.7411603911724855e-12 1.7411601842026286e-12 2.0696985712886402e-19
1.0861967418109137 6.172938288043746e-20 1.7797945151428227e-12 1.7797942697148497e-12 2.4542797268589445e-19
1.0902777775684922 6.217114182175574e-20 1.7992662632177027e-12 1.7992659960906875e-12 2.671270153339491e-19
1.0943741465085532 6.2613509892208e-20 1.8188768994598953e-12 1.8188766088110129e-12 2.906488822010259e-19
1.1026131145906286 6.350006035045563e-20 1.858517799545583e-12 1.858517455795597e-12 3.4374998628564483e-19
1.1109141095355224 6.438901397738345e-20 1.898723345866722e-12 1.8987229398458445e-12 4.0602087799922563e-19
1.1192775983109025 6.527966917492165e-20 1.939479482318087e-12 1.9394790033704625e-12 4.7894762479211865e-19
1.1277040513999907 6.616884963691789e-20 1.9806975214273855e-12 1.98069695718709e-12 5.64240295142457e-19
1.1361939428280308 6.706032833984844e-20 2.022495566222244e-12 2.0224949023582017e-12 6.638640417006291e-19
1.1447477501889525 6.795412553338885e-20 2.064881150804936e-12 2.064880370730896e-12 7.800740397974915e-19
1.1533659546722406 6.885058202712279e-20 2.1078717170316086e-12 2.1078708015755222e-12 9.154560863438332e-19
1.1707974979042381 7.06541852242678e-20 2.195781446863306e-12 2.1957801908556103e-12 1.2560076956677118e-18
1.1884924949847024 7.246891273468854e-20 2.28621790780366e-12 2.286216193215501e-12 1.7145881587481478e-18
1.2064549276569216 7.430694727628178e-20 2.3796328433684798e-12 2.3796305143562114e-12 2.3290122690214293e-18
1.2246888378427687 7.615673250262135e-20 2.4757312297355782e-12 2.4757280816632954e-12 3.1480722830441784e-18
1.2431983285522175 7.801686902855243e-20 2.5745324363184243e-12 2.5745282018175372e-12 4.234500887193075e-18
1.2619875648066055 7.989019712376466e-20 2.676196518238779e-12 2.6761908496944394e-12 5.668544339985409e-18
1.3004222497298317 8.366554268526621e-20 2.888021732147706e-12 2.8880117174691014e-12 1.0014678604578253e-17
1.3400274889804893 8.749461310225805e-20 3.112178194989767e-12 3.1121608270334232e-12 1.736795634369898e-17
1.3808389325824078 9.139157272409832e-20 3.349797911608127e-12 3.349768330687754e-12 2.958092037187365e-17
1.4228933163050095 9.538822515115142e-20 3.6027700233244944e-12 3.6027205191480822e-12 4.950417641260434e-17
1.466228494730424 9.95514245088983e-20 3.874525890010797e-12 3.874444446400981e-12 8.144360981562207e-17
1.5108834753276823 1.0387173746140433e-19 4.165794099283086e-12 4.1656623194349336e-12 1.3177984815337604e-16
1.5568984535646726 1.0834318881099096e-19 4.477456076313704e-12 4.4772461446794446e-12 2.0993163425857766e-16
1.6043148490894465 1.129874390879164e-19 4.811596513794424e-12 4.811266631336612e-12 3.29882457809367e-16
1.6531753430134553 1.1782619941771438e-19 5.170472369171802e-12 5.169961659383407e-12 5.107097883958457e-16
1.7035239163302658 1.2288378402914528e-19 5.556639790921811e-12 5.555860636362786e-12 7.791545590247442e-16
1.755405889504358 1.2824189024084815e-19 5.975536381486339e-12 5.974364391525473e-12 1.171989960865211e-15
1.8088679632656115 1.3388853934376867e-19 6.428648845427906e-12 6.426910133710975e-12 1.738711716930514e-15
1.8639582606462262 1.3980640589228352e-19 6.917237499674293e-12 6.9146923927287444e-12 2.545106945548398e-15
1.9207263702978936 1.4599473797628324e-19 7.443413315457403e-12 7.439736083211835e-12 3.677232245566696e-15
1.979223391128241 1.524582425565588e-19 8.009679844063429e-12 8.004433720613294e-12 5.246123450135898e-15
2.039501978296691 1.5919461144019557e-19 8.618306341822933e-12 8.610913507658488e-12 7.392834164445479e-15
2.1016163906111602 1.662459025941899e-19 9.274143897617365e-12 9.26384915740701e-12 1.0294740210355684e-14
2.1656225393682647 1.7361390775254408e-19 9.980141717872817e-12 9.965970779185778e-12 1.4170938687040635e-14
2.231578038680979 1.812441186013493e-19 1.0736072470364272e-11 1.0716784204846688e-11 1.928826551758452e-14
2.299542257339062 1.891050529302277e-19 1.1542874166231018e-11 1.1516906729356511e-11 2.5967436874506956e-14
2.369576372248914 1.9717991288223362e-19 1.2402316616213926e-11 1.2367727167467225e-11 3.4589448746706336e-14
2.4417434235010123 2.054554261575689e-19 1.331640745956987e-11 1.3270807520239141e-11 4.5599939330727493e-14
2.5161083711144245 2.1395234659460059e-19 1.428946041903466e-11 1.4229945256858543e-11 5.951516217611362e-14
2.5927381535095444 2.227365620639584e-19 1.5329203995774923e-11 1.5252279245392735e-11 7.692475038218864e-14
2.6717017477616296 2.3185575653014043e-19 1.6442781687994714e-11 1.6344292713124288e-11 9.848897487041975e-14
2.753070231689431 2.414040637288782e-19 1.7641329033329154e-11 1.7516391191014207e-11 1.2493784231494207e-13
2.836916847834745 2.517236341357403e-19 1.8955708982264772e-11 1.879863608360168e-11 1.570728986630929e-13
2.9233170693905177 2.6362272665785503e-19 2.0456352705909382e-11 2.0260633011678385e-11 1.9571969423099273e-13
2.967498994190263 2.709855214675598e-19 2.134548863365385e-11 2.1128172735462132e-11 2.1731589819171763e-13
3.0123486681368425 2.78840642380315e-19 2.229619459019191e-11 2.2055210451695952e-11 2.409841384959605e-13
3.0578761833420214 2.922397677910232e-19 2.372076240804698e-11 2.345379449340983e-11 2.6696791463715205e-13
3.1040917844459814 3.0799000910851647e-19 2.5377019655791616e-11 2.5081857039768415e-11 2.951626160231919e-13
3.127460860933648 3.229933611892205e-19 2.6813586785157884e-11 2.6503360147020197e-11 3.1022663813768634e-13
3.1510058709225794 3.421525108049785e-19 2.8617940520647618e-11 2.8292035122321697e-11 3.25905398325928e-13
3.162844764501044 3.5969498013612903e-19 3.01982437857714e-11 2.986423354413331e-11 3.340102416380868e-13
3.1747281389236908 3.795486713028052e-19 3.198478603443707e-11 3.164251243452135e-11 3.422735999157263e-13
3.1986289994194426 4.3341481443300324e-19 3.6799087959883034e-11 3.6439761523915976e-11 3.5932643596704455e-13
3.2227097969389145 5.587941603954966e-19 4.780160637011134e-11 4.7424233825286954e-11 3.7737254482438477e-13
3.2348180950136065 6.766037523285939e-19 5.809699891348776e-11 5.7710001837668165e-11 3.869970758196034e-13
3.240889293275058 7.646783749831485e-19 6.578281252467728e-11 6.539073871744172e-11 3.920738072355634e-13
3.2469718861334385 8.667818497973902e-19 7.470639333058237e-11 7.430906662284873e-11 3.9732670773363845e-13
3.2714166318528037 1.4020678990326632e-18 1.2175150445778554e-10 1.2133248946337964e-10 4.1901499440593277e-13
3.2744851364798273 1.4354531245363002e-18 1.2476749952017383e-10 1.2434593408599184e-10 4.215654341819829e-13
3.2775565192852394 1.4697274397915496e-18 1.2786639619192796e-10 1.274422680692975e-10 4.2412812263046607e-13
3.283707930232385 1.4364697193089489e-18 1.2520752486014492e-10 1.247788249218476e-10 4.286999382972784e-13
3.2898708863219004 1.3312532909894119e-18 1.162542882228328e-10 1.1582143787542521e-10 4.3285034740755706e-13
3.29141343181113 1.306382456203442e-18 1.1413588473725935e-10 1.1370199245839611e-10 4.338922788632644e-13
3.292184975758714 1.2941530902350863e-18 1.1309393504475747e-10 1.126595211502465e-10 4.344138945109813e-13
3.295272960557952 1.2180170038700767e-18 1.0654036468345337e-10 1.0610392372997986e-10 4.3644095347349633e-13
3.3076538914384823 9.52116948548425e-19 8.359490111194114e-11 8.315032357530509e-11 4.4457753663605443e-13
3.310756385682612 8.973903350568682e-19 7.886386298300565e-11 7.841723559199177e-11 4.46627391013862e-13
3.313861789986515 8.466579884377535e-19 7.447522688814449e-11 7.402654335367821e-11 4.48683534466256e-13
3.3200813396944477 7.757691004685357e-19 6.836764715612663e-11 6.791453629296494e-11 4.53110863161694e-13
3.345076488085796 6.517167262264811e-19 5.786745106227489e-11 5.7394597349750296e-11 4.728537125246112e-13
3.3482140837626964 6.566515082688555e-19 5.83603110646127e-11 5.788478231361105e-11 4.755287510016584e-13
3.3513546224236106 6.616307344982991e-19 5.885799844517726e-11 5.837978315199501e-11 4.782152931822366e-13
3.3576445397418455 6.969738522348487e-19 6.211845359071839e-11 6.16346195364987e-11 4.838340542196901e-13
3.3702598118196083 8.251570951775158e-19 7.381922019388534e-11 7.332360143642622e-11 4.956187574591244e-13
3.382922481734668 8.555283571817454e-19 7.682381825547855e-11 7.631676188117338e-11 5.070563743051476e-13
3.389271646505754 8.711811969748277e-19 7.837621832826988e-11 7.786336791890728e-11 5.128504093625903e-13
3.395632727569191 8.884363781047606e-19 8.00786008997839e-11 7.955977937409519e-11 5.188215256886992e-13
3.421196662673239 9.723176588571985e-19 8.829897172259447e-11 8.775545075131762e-11 5.435209712768613e-13
3.4276182099114902 9.569056747339527e-19 8.706247410108058e-11 8.651345954943184e-11 5.490145516487427e-13
3.4340518103208963 8.875328048999619e-19 8.09022668597965e-11 8.034806534199868e-11 5.542015177978686e-13
3.4469541582030403 7.8785771434806635e-19 7.208629960222173e-11 7.152216060253746e-11 5.641389996842596e-13
3.472904465399547 7.595704377833759e-19 7.00213248284588e-11 6.943426632956827e-11 5.87058498890516e-13
3.4990501388274233 7.17227699490341e-19 6.66157086859223e-11 6.600523704941666e-11 6.104716365056492e-13
3.5253949054701885 5.691134343560904e-19 5.325691961650972e-11 5.262376778254099e-11 6.331518339687408e-13
3.5519380250092896 4.2807283388150427e-19 4.036012292627719e-11 3.970422818654474e-11 6.558947397324422e-13
3.578680990867387 3.728105071388802e-19 3.541445504700348e-11 3.473364008730578e-11 6.808149596977013e-13
3.605625307711299 3.5130295815482642e-19 3.362264175020848e-11 3.291561291554782e-11 7.070288346606555e-13
3.660119384959845 3.371450670009734e-19 3.275529340696577e-11 3.1993337313981364e-11 7.619560929844139e-13
3.715437065384467 3.2727261180778867e-19 3.227669101597877e-11 3.145704354424489e-11 8.196474717338833e-13
3.8285932144167436 3.2484543741059406e-19 3.301303327507905e-11 3.2070138103124356e-11 9.428951719546994e-13
3.94519561050918 3.265031684900527e-19 3.4192068466903704e-11 3.3115893916985827e-11 1.076174549917875e-12
4.06534921144712 3.2939865674395383e-19 3.554586720512637e-11 3.432680403167757e-11 1.219063173448795e-12
4.189162171576248 3.3270212807327583e-19 3.6995779726892506e-11 3.562422084497026e-11 1.3715588819222373e-12
4.316745939156006 3.3607258532300992e-19 3.8508713424835134e-11 3.6975932423790705e-11 1.532781001044426e-12
4.448215356677963 3.393676695782729e-19 4.007058698055296e-11 3.837045403219552e-11 1.700132948357444e-12
4.58368876423945 3.425747338072728e-19 4.168116825629591e-11 3.9807633408785214e-11 1.8735348475106952e-12
4.723288106065518 3.4576755400710594e-19 4.335089895734811e-11 4.129709143818747e-11 2.053807519160642e-12
4.867139040275056 3.490493210535357e-19 4.509516534176009e-11 4.285957938939775e-11 2.235585952362339e-12
4.940699165968905 3.509551970273183e-19 4.602666648489068e-11 4.369912364073049e-11 2.327542844160194e-12
5.015371051989984 3.52718923925107e-19 4.695709947754319e-11 4.4537226179221084e-11 2.4198732983221002e-12
5.091171501069577 3.5505820992546784e-19 4.798292505274483e-11 4.546824925758653e-11 2.514675795158284e-12
5.129500256944802 3.5616933802575393e-19 4.84954527319809e-11 4.5933365618756315e-11 2.5620871132245735e-12
5.168117569889187 3.573058085082758e-19 4.901645449782653e-11 4.6406437855797355e-11 2.6100166420291878e-12
5.20702561229733 3.589551752597709e-19 4.9613442944616465e-11 4.6950774443083985e-11 2.6626685015324696e-12
5.246226572918644 3.605829958752941e-19 5.021364161860963e-11 4.7498187821170827e-11 2.7154537974387975e-12
5.265937586045735 3.613891966880601e-19 5.05149940429109e-11 4.777310618470884e-11 2.741887858202069e-12
5.285722656980489 3.621904651718866e-19 5.0817210070238074e-11 4.8048865184509856e-11 2.768344885728208e-12
5.305582063971359 3.6298696308892636e-19 5.112031211726399e-11 4.832549074270294e-11 2.794821374561038e-12
5.3255160863122235 3.638798590511656e-19 5.143860139777823e-11 4.861705080323667e-11 2.821550594541554e-12
5.365609099470188 3.664337699595919e-19 5.2189598240224136e-11 4.931272030668974e-11 2.8768779335344075e-12
5.406003951863644 3.6901156963067387e-19 5.2952415359834404e-11 5.0020091740730196e-11 2.932323619104193e-12
5.446702915881641 3.716173724724679e-19 5.37278088306388e-11 5.073994932824641e-11 2.9878595023923766e-12
5.487708281020852 3.7444680960453403e-19 5.454445221003325e-11 5.1500728922931076e-11 3.043723287102167e-12
5.529022354014368 3.7901332628099193e-19 5.5625286274968095e-11 5.2523332048818656e-11 3.101954226149434e-12
5.570647458961463 3.8374448314838393e-19 5.674364800373176e-11 5.358335499541356e-11 3.160293008318209e-12
5.612585937458331 3.88656580885897e-19 5.7902652970403453e-11 5.4683941965548186e-11 3.2187110048552722e-12
5.654840148729818 3.9405349032726834e-19 5.914866466077133e-11 5.5871160860305513e-11 3.277503800465803e-12
5.67608639626678 3.981014878879629e-19 5.998079684563883e-11 5.6672476093920056e-11 3.3083207517187902e-12
5.686739436050992 4.0017240405541076e-19 6.040597504485566e-11 5.708223401736426e-11 3.3237410274913726e-12
5.6974124697621304 4.0227570578799914e-19 6.083743570774495e-11 5.749826714433937e-11 3.3391685634056e-12
5.718818669136295 4.0658291405410024e-19 6.171985307150967e-11 5.834980948267444e-11 3.3700435888352396e-12
5.740305295436557 4.1138641175287173e-19 6.268366291408852e-11 5.928246529857612e-11 3.401197615512397e-12
5.7835210386641895 4.2440933060096954e-19 6.515483901417388e-11 6.168928810787381e-11 3.465550906300065e-12
5.827062130521658 4.392675607642659e-19 6.794354680343022e-11 6.44128790262387e-11 3.5306677771915184e-12
5.8489554468988025 4.502129168312299e-19 6.989815255287215e-11 6.633214378810947e-11 3.5660087647626703e-12
5.870931020387893 4.618203753964873e-19 7.196966824485585e-11 6.836823959284386e-11 3.601428652011988e-12
5.892989160043636 4.741425793371124e-19 7.416756710320498e-11 7.053064336807406e-11 3.6369237351309228e-12
5.915130176081913 4.881942831911e-19 7.665251860831189e-11 7.29787431421936e-11 3.6737754661183165e-12
5.95966208400165 5.284370508183148e-19 8.359577509451319e-11 7.983701053353752e-11 3.758764560975666e-12
6.004529249263818 5.867360258822385e-19 9.351712626024782e-11 8.966214837729209e-11 3.854977882955741e-12
6.027089341400364 6.275638004800926e-19 1.0040028523762778e-10 9.648920834226462e-11 3.911076895363172e-12
6.049734195844842 6.754776371952705e-19 1.0847176386519751e-10 1.0450115280566992e-10 3.9706110595276125e-12
6.095279466722835 8.143193658834966e-19 1.31752182738226e-10 1.2763351910678232e-10 4.118663631443685e-12
6.141167624020661 1.026682072682113e-18 1.6736180975141077e-10 1.6304886847554878e-10 4.312941275861979e-12
6.164241091010745 1.162021378857947e-18 1.9013548090591857e-10 1.856995857693489e-10 4.435895136569629e-12
6.187401249150058 1.3142620147182379e-18 2.1585378561269642e-10 2.1129183553299983e-10 4.561950079696564e-12
6.1990139391386085 1.3881021126377932e-18 2.2840913082144698e-10 2.2378307692317424e-10 4.626053898272789e-12
6.204828454712694 1.4268377173935107e-18 2.350032092662745e-10 2.303447985185443e-10 4.658410747730155e-12
6.210648424152782 1.4547247773102574e-18 2.3982100252983157e-10 2.351352490094607e-10 4.685753520370898e-12
6.233982942956859 1.5478172148113579e-18 2.561266181976129e-10 2.5134648821539923e-10 4.780129982213656e-12
6.239830258556775 1.5587520928766431e-18 2.5817801560339194e-10 2.533855094986251e-10 4.7925061047669186e-12
6.245683058788269 1.5581264656776537e-18 2.5831645934486473e-10 2.535115648206435e-10 4.804894524221217e-12
6.257405133728602 1.55195333340661e-18 2.5777593171437734e-10 2.5294977368551413e-10 4.826158028863144e-12
6.269149208991335 1.5290895787650906e-18 2.544549875773356e-10 2.496230522777365e-10 4.83193529959918e-12
6.280915325867298 1.477108415670302e-18 2.4626616320570184e-10 2.4144757273818973e-10 4.818590467512063e-12
6.304513850009849 1.3511746945556533e-18 2.2611664820206652e-10 2.2134200577360585e-10 4.77464242846065e-12
6.32820103803542 1.1982043505721115e-18 2.0127071658751554e-10 1.965583798881012e-10 4.7123366994143454e-12
6.3519772230701035 1.0587487680143992e-18 1.7851358967065026e-10 1.7385767166273609e-10 4.655918007914157e-12
6.375842739491607 9.411999322415192e-19 1.5929014841544043e-10 1.5468458757590376e-10 4.6055608395366795e-12
6.399797922933955 8.476374885072629e-19 1.4399448211380043e-10 1.3941757536075293e-10 4.57690675304752e-12
6.42384311029221 7.695191625400469e-19 1.3121509456186454e-10 1.2666249388610644e-10 4.552600675758105e-12
6.447978639727206 7.124865184824066e-19 1.2194659383931832e-10 1.1740143415195405e-10 4.545159687364222e-12
6.472204850670314 6.646923547555827e-19 1.1419375953905315e-10 1.0965270958687938e-10 4.541049952173779e-12
6.496522083828205 6.331236389174057e-19 1.0917894193927093e-10 1.0462838965168794e-10 4.550552287583026e-12
