Dust emission spectrum from A.P. Jones, M. Kohler, N. Ysard, M. Bocchio, and L. Verstraete (2017), A&A, 602A, 46J 
inside the DustPedia framework.

lambda    nu*dP/dnu     j_nu    j_nu(carb.) j_nu(sil)
 (um)   (erg s-1 H-1) (Jy cm2 sr-1 H-1)
0.9927057738263894 3.2845151310734574e-21 8.65488392711364e-14 8.654883683130113e-14 2.4398352550017953e-21
1.0001793341362166 3.339689404282117e-21 8.86652389053271e-14 8.866523596946277e-14 2.9358643516551e-21
1.0077091589558085 3.39509083679009e-21 9.081467589593083e-14 9.081467236791042e-14 3.5280204046616155e-21
1.0114953028030835 3.422874343629371e-21 9.190185119036434e-14 9.190184732481945e-14 3.865544869068495e-21
1.0152956718711033 3.4507118116175815e-21 9.29973681973258e-14 9.299736396338317e-14 4.233942642123892e-21
1.0229392996569957 3.506517905397569e-21 9.521280455033246e-14 9.52127994759528e-14 5.0743796459148755e-21
1.0267826658714554 3.5344232084137854e-21 9.6331098257144e-14 9.633109270450215e-14 5.552641845426707e-21
1.0306404723013447 3.562377622481437e-21 9.745779471825235e-14 9.745778864430405e-14 6.073948276506148e-21
1.03451277320114 3.5903803500218595e-21 9.859292443491962e-14 9.859291779294401e-14 6.6419756363017256e-21
1.0383996230291617 3.6184306202675286e-21 9.973651861238562e-14 9.973651135168906e-14 7.260696545622431e-21
1.0403485208654093 3.63247335053346e-21 1.0031149982556383e-13 1.0031149223516897e-13 7.590394884933985e-21
1.0423010764483396 3.646527689921205e-21 1.0088860919043716e-13 1.0088860125603538e-13 7.934401793231097e-21
1.0462171883269815 3.674670843809999e-21 1.0204922887438846e-13 1.0204922020666431e-13 8.667724123494135e-21
1.0471985131304309 3.681713751865014e-21 1.0234072037625255e-13 1.0234071151530516e-13 8.860947374809514e-21
1.048180758391296 3.6887594867010186e-21 1.0263274756852609e-13 1.0263273851023692e-13 9.058289153162277e-21
1.0501480137395462 3.702859395533928e-21 1.0321841116646346e-13 1.032184017007998e-13 9.46566366458469e-21
1.0521189612883777 3.7169704891099415e-21 1.0380622398570932e-13 1.0380621409517481e-13 9.890534534980994e-21
1.0531058218030118 3.7240208953116165e-21 1.041006774668983e-13 1.0410066735713058e-13 1.0109767716964785e-20
1.0540936079674168 3.731043567674599e-21 1.0439481600497313e-13 1.043948056712785e-13 1.0333694617116386e-20
1.058054026499678 3.759160503949185e-21 1.0557671536738726e-13 1.0557670408962123e-13 1.1277766030031103e-20
1.0590464539527713 3.76619625382444e-21 1.0587352928549864e-13 1.0587351775913343e-13 1.1526365195491175e-20
1.06003981227728 3.7732345920925185e-21 1.0617087995722904e-13 1.0617086817702949e-13 1.1780199564015122e-20
1.0620293250338977 3.787318998938726e-21 1.0676719383610517e-13 1.067671815321105e-13 1.2303994681207237e-20
1.0660195594769086 3.815518496810116e-21 1.0796628786704376e-13 1.0796627444789543e-13 1.3419148361610835e-20
1.070024785945596 3.8437584739647866e-21 1.0917403488286341e-13 1.091740202523448e-13 1.463051862538967e-20
1.0740450607676866 3.8720384396428316e-21 1.1039047330665676e-13 1.1039045736069826e-13 1.594595850805405e-20
1.07808044048254 3.900357936518983e-21 1.116156425959775e-13 1.1161562522205477e-13 1.7373922739590133e-20
1.0861967418109137 3.957070672882716e-21 1.140910916486918e-13 1.1409107104417791e-13 2.0604513862677472e-20
1.0902777775684922 3.985364970799227e-21 1.1533860451086934e-13 1.153385820834049e-13 2.2427464408131518e-20
1.0943741465085532 4.013695627812737e-21 1.165949372820621e-13 1.1659491287838565e-13 2.4403676485593934e-20
1.1026131145906286 4.07046496274426e-21 1.1913424245481956e-13 1.191342135893713e-13 2.886544827577338e-20
1.1109141095355224 4.127376939019885e-21 1.2170937970973794e-13 1.2170934561136226e-13 3.409837569425265e-20
1.1192775983109025 4.184386047553943e-21 1.2431942422353256e-13 1.2431938399596962e-13 4.0227562932706746e-20
1.1277040513999907 4.2412877982953556e-21 1.2695865616283554e-13 1.2695860876584002e-13 4.739699551002529e-20
1.1361939428280308 4.2983241119298734e-21 1.2963463904483441e-13 1.296345832726716e-13 5.577216282732255e-20
1.1447477501889525 4.355495844079899e-21 1.323478331927158e-13 1.3234776764970626e-13 6.554300955162526e-20
1.1533659546722406 4.4128245833775145e-21 1.3509933914369792e-13 1.3509926221633426e-13 7.692736362109065e-20
1.1707974979042381 4.528126724064412e-21 1.4072452492639427e-13 1.4072441935583602e-13 1.0557055823688302e-19
1.1884924949847024 4.644082543469288e-21 1.4650950698085549e-13 1.465093628292293e-13 1.4415162621523832e-19
1.2064549276569216 4.761472936165634e-21 1.524831499211181e-13 1.5248295406253037e-13 1.958585876962501e-19
1.2246888378427687 4.8795504615437695e-21 1.5862623129608078e-13 1.5862596648971027e-13 2.6480637052209554e-19
1.2431983285522175 4.998223287406158e-21 1.64939815422224e-13 1.6493945913475497e-13 3.5628746908208866e-19
1.2619875648066055 5.117669532142027e-21 1.7143391650664864e-13 1.714334394323287e-13 4.77074319919385e-19
1.3004222497298317 5.358172897079284e-21 1.8495690429669468e-13 1.8495606098454903e-13 8.433121456912368e-19
1.3400274889804893 5.601805280623008e-21 1.9925588134846594e-13 1.992544180177861e-13 1.4633306798055292e-18
1.3808389325824078 5.849468840954576e-21 2.144020277077442e-13 2.1439953395688646e-13 2.4937508577357526e-18
1.4228933163050095 6.1032139726727464e-21 2.3051562508724535e-13 2.305114493250162e-13 4.17576222918069e-18
1.466228494730424 6.367362008875895e-21 2.478167346792277e-13 2.478098607003609e-13 6.873978866838159e-18
1.5108834753276823 6.6413460040131476e-21 2.663523367469935e-13 2.663412075970749e-13 1.1129149918584706e-17
1.5568984535646726 6.92484974425566e-21 2.8618052417736767e-13 2.861627840569183e-13 1.7740120449301598e-17
1.6043148490894465 7.219367138674617e-21 3.074384377295244e-13 3.074105440368431e-13 2.7893692681271074e-17
1.6531753430134553 7.526429885348096e-21 3.302762709229048e-13 3.3023306006603205e-13 4.321085687272209e-17
1.7035239163302658 7.847786288360657e-21 3.5486636341059227e-13 3.5480039771039137e-13 6.596570020095478e-17
1.755405889504358 8.188922940999692e-21 3.815696015337222e-13 3.814703131885566e-13 9.928834516574979e-17
1.8088679632656115 8.549355608547975e-21 4.104967111556026e-13 4.103493151316258e-13 1.4739602397682792e-16
1.8639582606462262 8.928324048000657e-21 4.4174898510485687e-13 4.4153308540994835e-13 2.1589969490842156e-16
1.9207263702978936 9.326194017893013e-21 4.75487799749338e-13 4.75175652913028e-13 3.1214683631015186e-16
1.979223391128241 9.743749256823184e-21 5.119061502957564e-13 5.114605223615159e-13 4.45627934240538e-16
2.039501978296691 1.0181396769835684e-20 5.511894878618675e-13 5.505610748936954e-13 6.284129681718212e-16
2.1016163906111602 1.064246120044888e-20 5.936971381406064e-13 5.928214404490426e-13 8.75697691563855e-16
2.1656225393682647 1.1127751325467277e-20 6.396753386122845e-13 6.384690629228116e-13 1.206275689472658e-15
2.231578038680979 1.1634523653876485e-20 6.891759582054396e-13 6.875328925647928e-13 1.6430656406468177e-15
2.299542257339062 1.2161556426720803e-20 7.423350847793092e-13 7.401214325552233e-13 2.2136522240860017e-15
2.369576372248914 1.2708635241206186e-20 7.993538272610475e-13 7.964029748857549e-13 2.950852375292781e-15
2.4417434235010123 1.327580259303754e-20 8.604591272567339e-13 8.565660161573725e-13 3.8931110993616534e-15
2.5161083711144245 1.3865338185262768e-20 9.260389257158175e-13 9.209538877405365e-13 5.085037975281299e-15
2.5927381535095444 1.4482470407471437e-20 9.96714419858716e-13 9.901367463281285e-13 6.577673530587657e-15
2.6717017477616296 1.51313060505373e-20 1.0730842562059703e-12 1.0646559702606575e-12 8.428285945313063e-15
2.753070231689431 1.5818986255178905e-20 1.1560200652410916e-12 1.1453197370774002e-12 1.0700328163691516e-14
2.836916847834745 1.6568870695955063e-20 1.247696475365266e-12 1.2342328491769423e-12 1.3463626188324018e-14
2.9233170693905177 1.7434889900051287e-20 1.3528964733265696e-12 1.3361060874944232e-12 1.679038583214629e-14
2.967498994190263 1.7964924301106233e-20 1.4150943762492522e-12 1.3964428072870337e-12 1.8651568962218415e-14
3.0123486681368425 1.8530964132054146e-20 1.481742326746677e-12 1.4610500988543056e-12 2.0692227892371135e-14
3.0578761833420214 1.9465521632662288e-20 1.5799937745887585e-12 1.5570603444802492e-12 2.2933430108509065e-14
3.1040917844459814 2.0559205206851128e-20 1.6939879191272365e-12 1.6686211874493432e-12 2.536673167789323e-14
3.127460860933648 2.1576682752416215e-20 1.7912078854735295e-12 1.7645405236583855e-12 2.6667361815143678e-14
3.1510058709225794 2.2869369026732234e-20 1.912814379213496e-12 1.8847929096786442e-12 2.8021469534852447e-14
3.162844764501044 2.4040084105298475e-20 2.0182887183121203e-12 1.989567114458501e-12 2.872160385361899e-14
3.1747281389236908 2.5364034682173018e-20 2.1374418714065696e-12 2.108006332315598e-12 2.943553909097238e-14
3.1986289994194426 2.894749488749732e-20 2.457787263171508e-12 2.426878070186342e-12 3.090919298516578e-14
3.2227097969389145 3.7246554029706186e-20 3.186227130775592e-12 3.1537580424908138e-12 3.2469088284776994e-14
3.2348180950136065 4.503168570257166e-20 3.866673494391535e-12 3.8333723673914994e-12 3.3301127000034394e-14
3.240889293275058 5.0847640529293276e-20 4.374258398943732e-12 4.340518390919116e-12 3.374000802461496e-14
3.2469718861334385 5.758834168221349e-20 4.963437231609146e-12 4.9292431126990265e-12 3.4194118910119095e-14
3.2714166318528037 9.293486705838215e-20 8.07019395333772e-12 8.034124558450013e-12 3.6069394887706325e-14
3.2744851364798273 9.514263612852741e-20 8.269659666768122e-12 8.233369651388622e-12 3.6290015379501184e-14
3.2775565192852394 9.740924604599029e-20 8.47461162556788e-12 8.438099921427032e-12 3.65117041408502e-14
3.283707930232385 9.522736526504876e-20 8.30033696047951e-12 8.26342956697252e-12 3.690739350698897e-14
3.2898708863219004 8.829901020603305e-20 7.710883159322582e-12 7.673616366543979e-12 3.726679277860298e-14
3.29141343181113 8.666149266419532e-20 7.571432156724477e-12 7.534075134717582e-12 3.7357022006896845e-14
3.292184975758714 8.585632959111708e-20 7.502845092457548e-12 7.465442898872935e-12 3.740219358461342e-14
3.295272960557952 8.083879898372467e-20 7.07099744661454e-12 7.033419676416797e-12 3.757777019774339e-14
3.3076538914384823 6.332064741517964e-20 5.559488534560852e-12 5.5212059132682255e-12 3.82826212926256e-14
3.310756385682612 5.97168150748887e-20 5.247993585254141e-12 5.2095333721959016e-12 3.8460213058240415e-14
3.313861789986515 5.637668726833445e-20 4.9591058406695246e-12 4.920467483650864e-12 3.8638357018659115e-14
3.3200813396944477 5.171222369224941e-20 4.557339369298318e-12 4.518317515810376e-12 3.902185348794138e-14
3.345076488085796 4.35698626535323e-20 3.868669919662516e-12 3.827938176385125e-12 4.0731743277390185e-14
3.3482140837626964 4.3900628980144586e-20 3.90169569543484e-12 3.860732283431494e-12 4.096341200334561e-14
3.3513546224236106 4.423436690254734e-20 3.935044372368442e-12 3.893848285751377e-12 4.119608661706662e-14
3.3576445397418455 4.6576658533468225e-20 4.151188731463462e-12 4.1095060519110846e-12 4.168267955237676e-14
3.3702598118196083 5.50577385347201e-20 4.92550975811159e-12 4.882806492812243e-12 4.270326529934743e-14
3.382922481734668 5.708341590462244e-20 5.125915385557461e-12 5.082221263757083e-12 4.369412180037629e-14
3.389271646505754 5.812737794787228e-20 5.229456375679713e-12 5.1852602455437335e-12 4.4196130135980744e-14
3.395632727569191 5.927672451677777e-20 5.342866728793224e-12 5.298153248417791e-12 4.471348037543517e-14
3.421196662673239 6.485417919236873e-20 5.8895951157872435e-12 5.8427412742025374e-12 4.6853841584704915e-14
3.4276182099114902 6.384776605241969e-20 5.809082990229034e-12 5.761752733645373e-12 4.733025658366069e-14
3.4340518103208963 5.92797063601145e-20 5.4035891370313076e-12 5.3558088790383375e-12 4.7780257992969896e-14
3.4469541582030403 5.272316050277403e-20 4.8239897569879275e-12 4.775347003468698e-12 4.864275351922922e-14
3.472904465399547 5.0902534106634985e-20 4.692471820880546e-12 4.641840397985958e-12 5.0631422894588875e-14
3.4990501388274233 4.815286262204911e-20 4.47241102247315e-12 4.4197473164429e-12 5.266370603024833e-14
3.5253949054701885 3.841271335102953e-20 3.5946134174506276e-12 3.53997977676855e-12 5.4633640682079574e-14
3.5519380250092896 2.914031610801807e-20 2.7474454044793346e-12 2.6908353642910003e-12 5.6610040188334063e-14
3.578680990867387 2.553383232510388e-20 2.4255398915520817e-12 2.36676412958189e-12 5.87757619701916e-14
3.605625307711299 2.415723163201241e-20 2.3120498304542904e-12 2.2509953248987614e-12 6.105450555552912e-14
3.660119384959845 2.3312085211105866e-20 2.264883178657796e-12 2.1990511664421157e-12 6.583201221568e-14
3.715437065384467 2.2752872318865994e-20 2.243962382019823e-12 2.1731084820752475e-12 7.085389994457524e-14
3.8285932144167436 2.278591420432354e-20 2.31566171846715e-12 2.2340656226801383e-12 8.15960957870127e-14
3.94519561050918 2.309820126759701e-20 2.4188900918064445e-12 2.3256568816328655e-12 9.323321017357874e-14
4.06534921144712 2.3500412052718172e-20 2.5359621509962466e-12 2.4302291575408605e-12 1.0573299345538554e-13
4.189162171576248 2.3936374156213458e-20 2.661674666381211e-12 2.5425749477583674e-12 1.1909971862284343e-13
4.316745939156006 2.4381981347203838e-20 2.7937974516032717e-12 2.6605360944179446e-12 1.3326135718532668e-13
4.448215356677963 2.4825872264489078e-20 2.9312965350485915e-12 2.7833007863719386e-12 1.4799574867665402e-13
4.58368876423945 2.5265749356249883e-20 3.0740911284826753e-12 2.9107909542886703e-12 1.6330017419400594e-13
4.723288106065518 2.5705175111385902e-20 3.2228080281694933e-12 3.0435571502458427e-12 1.7925087792365025e-13
4.867139040275056 2.6148722202767014e-20 3.3782645605796033e-12 3.1828815184322937e-12 1.953830421473078e-13
4.940699165968905 2.638725385528165e-20 3.4606050656507492e-12 3.2570427424447835e-12 2.0356232320596614e-13
5.015371051989984 2.6615272828570606e-20 3.543263287167738e-12 3.331475509060278e-12 2.1178777810745965e-13
5.091171501069577 2.6881202968200802e-20 3.6327529157023517e-12 3.4125087115263568e-12 2.2024420417599533e-13
5.129500256944802 2.7009747380136092e-20 3.677604407601819e-12 3.453125705930356e-12 2.2447870167146277e-13
5.168117569889187 2.7139719446171914e-20 3.723121179784157e-12 3.494359158194847e-12 2.2876202158931106e-13
5.20702561229733 2.73045588511521e-20 3.773934089985467e-12 3.5404731606779933e-12 2.334609293074734e-13
5.246226572918644 2.7467588526543525e-20 3.825049051609457e-12 3.5868735611760074e-12 2.3817549043344804e-13
5.265937586045735 2.754844078200819e-20 3.850721977159216e-12 3.610184076000846e-12 2.4053790115836896e-13
5.285722656980489 2.762886059839008e-20 3.8764731489090935e-12 3.633569815511798e-12 2.4290333339729474e-13
5.305582063971359 2.770885539295161e-20 3.9023036090494586e-12 3.657032123200389e-12 2.452714858490698e-13
5.3255160863122235 2.77952846944805e-20 3.929183038229411e-12 3.681520280372287e-12 2.4766275785712444e-13
5.365609099470188 2.8019949373172786e-20 3.990761824868289e-12 3.738149960536503e-12 2.526118643317867e-13
5.406003951863644 2.8245822591880074e-20 4.053218525268428e-12 3.795642909848186e-12 2.57575615420243e-13
5.446702915881641 2.847315613659689e-20 4.116600576377377e-12 3.854048983295982e-12 2.625515930813949e-13
5.487708281020852 2.8715194446317923e-20 4.18284923520426e-12 3.915288543405951e-12 2.6756069179830876e-13
5.529022354014368 2.9074615749420957e-20 4.26708960411914e-12 3.994307711809063e-12 2.727818923100765e-13
5.570647458961463 2.944475104799354e-20 4.3539455611634214e-12 4.075928389708968e-12 2.780171714544521e-13
5.612585937458331 2.9826680498457577e-20 4.4436245649686295e-12 4.1603604974614156e-12 2.8326406750721507e-13
5.654840148729818 3.024101751223399e-20 4.5392715652539504e-12 4.250722949558695e-12 2.885486156952548e-13
5.67608639626678 3.053965076748224e-20 4.601320628413801e-12 4.3100030524134515e-12 2.913175760003507e-13
5.686739436050992 3.06921040116761e-20 4.632969315761974e-12 4.340265754924779e-12 2.927035608371942e-13
5.6974124697621304 3.0846722905085036e-20 4.66504811136104e-12 4.3709576146727684e-12 2.9409049668827276e-13
5.718818669136295 3.1162689939667265e-20 4.730539769148667e-12 4.4336727047325854e-12 2.968670644160822e-13
5.740305295436557 3.151223794250256e-20 4.801574491582832e-12 4.501904959302674e-12 2.996695322801577e-13
5.7835210386641895 3.2442997682179915e-20 4.9806122031446674e-12 4.675153159278919e-12 3.0545904386574843e-13
5.827062130521658 3.349786352306685e-20 5.181269598270682e-12 4.869948334668512e-12 3.1132126360217016e-13
5.8489554468988025 3.426428112495995e-20 5.319727310455554e-12 5.005227221613805e-12 3.145000888417491e-13
5.870931020387893 3.507544238616634e-20 5.466125113918366e-12 5.148437771811177e-12 3.1768734210718887e-13
5.892989160043636 3.5934910382018325e-20 5.621104269589459e-12 5.3002215612920315e-12 3.2088270829743013e-13
5.915130176081913 3.691185282221288e-20 5.795615767615206e-12 5.4714165191060685e-12 3.2419924850913906e-13
5.95966208400165 3.969144336700714e-20 6.278963535480276e-12 5.9471303876563785e-12 3.318331478238968e-13
6.004529249263818 4.3698379987233507e-20 6.964881545307731e-12 6.624414796184398e-12 3.404667491233339e-13
6.027089341400364 4.649628704754175e-20 7.438670743106214e-12 7.093177226165948e-12 3.4549351694026704e-13
6.049734195844842 4.977544906108309e-20 7.9932043039304e-12 7.642377833518063e-12 3.5082647041233613e-13
6.095279466722835 5.926009952346557e-20 9.587942751466038e-12 9.22387781584177e-12 3.6406493562427187e-13
6.141167624020661 7.374479961995697e-20 1.2021309665911117e-11 1.1639902036379385e-11 3.8140762953173325e-13
6.164241091010745 8.297465404885729e-20 1.3576708688515715e-11 1.318433896642449e-11 3.923697220912274e-13
6.187401249150058 9.335047087523316e-20 1.5331838173430563e-11 1.4928227145335667e-11 4.0361102809489795e-13
6.1990139391386085 9.838479852733421e-20 1.618900087614473e-11 1.577967273977321e-11 4.093281363715189e-13
6.204828454712694 1.0102513547962476e-19 1.6639054858769435e-11 1.6226840678656695e-11 4.122141801127389e-13
6.210648424152782 1.0292852919728311e-19 1.6968448909390436e-11 1.6553792989892792e-11 4.1465591949764464e-13
6.233982942956859 1.0928726532301464e-19 1.8084420699934184e-11 1.766132442645903e-11 4.2309627347515964e-13
6.239830258556775 1.1003745533422938e-19 1.822563831032911e-11 1.7801425673657692e-11 4.2421263667142107e-13
6.245683058788269 1.1000230005732912e-19 1.823690521696027e-11 1.781157500148224e-11 4.2533021547803023e-13
6.257405133728602 1.0959707573069921e-19 1.8203825915073642e-11 1.7776571611613985e-11 4.272543034596575e-13
6.269149208991335 1.0805624444973056e-19 1.798158245334152e-11 1.7553776281478588e-11 4.2780617186293104e-13
6.280915325867298 1.0453457563159737e-19 1.74281918578384e-11 1.7001528570170057e-11 4.2666328766834423e-13
6.304513850009849 9.599349712862447e-20 1.6064338613932818e-11 1.5641491317640827e-11 4.228472962919908e-13
6.32820103803542 8.561294283651481e-20 1.4381001325561708e-11 1.396359780179097e-11 4.1740352377073336e-13
6.3519772230701035 7.614914148089937e-20 1.283936001322335e-11 1.2426879044955025e-11 4.1248096826832585e-13
6.375842739491607 6.816839248893468e-20 1.1536925349053261e-11 1.112883061763172e-11 4.080947314215425e-13
6.399797922933955 6.182448099650829e-20 1.050258423412148e-11 1.0096950564820556e-11 4.0563366930092224e-13
6.42384311029221 5.652627521498075e-20 9.638617085351244e-12 9.235059231745203e-12 4.0355785360604165e-13
6.447978639727206 5.266510200289543e-20 9.013966772498226e-12 8.61098787984711e-12 4.029788926511169e-13
6.472204850670314 4.942995542762082e-20 8.492037562555459e-12 8.089341860068159e-12 4.026957024872989e-13
6.496522083828205 4.730112006265945e-20 8.156836869673871e-12 7.753215484835255e-12 4.036213848386154e-13
