Dust emission spectrum from A.P. Jones, M. Kohler, N. Ysard, M. Bocchio, and L. Verstraete (2017), A&A, 602A, 46J 
inside the DustPedia framework.

lambda    nu*dP/dnu     j_nu    j_nu(carb.) j_nu(sil)
 (um)   (erg s-1 H-1) (Jy cm2 sr-1 H-1)
0.9927057738263894 5.001959384634837e-26 1.3180447084134035e-18 1.3180447079445191e-18 4.688845317962877e-28
1.0001793341362166 5.0843111171957844e-26 1.349831092966793e-18 1.3498310924020699e-18 5.647231872602296e-28
1.0077091589558085 5.166545295090119e-26 1.3819899349699336e-18 1.3819899342906643e-18 6.7926986812021015e-28
1.0114953028030835 5.207608287411445e-26 1.3982074532713736e-18 1.3982074525267548e-18 7.446188652026266e-28
1.0152956718711033 5.248629908214305e-26 1.4145161773938243e-18 1.4145161765778352e-18 8.159891010230422e-28
1.0229392996569957 5.330492810247077e-26 1.4473936360563468e-18 1.4473936350773845e-18 9.789623117570595e-28
1.0267826658714554 5.371234593084658e-26 1.4639359715522595e-18 1.46393597048047e-18 1.0717899831779476e-27
1.0306404723013447 5.411917186443441e-26 1.4805659873340251e-18 1.4805659861609888e-18 1.173037132885679e-27
1.03451277320114 5.45253671502785e-26 1.4972829837376216e-18 1.497282982454192e-18 1.2834298003026517e-27
1.0383996230291617 5.493089326054556e-26 1.5140862525838098e-18 1.5140862511800566e-18 1.4037531395955925e-27
1.0403485208654093 5.51333933982993e-26 1.5225200155822312e-18 1.5225200141143302e-18 1.4679014386361087e-27
1.0423010764483396 5.533571190003942e-26 1.5309750773559421e-18 1.5309750758210861e-18 1.5348559261360418e-27
1.0462171883269815 5.573978501355329e-26 1.5479487333781502e-18 1.5479487317004948e-18 1.677655381115734e-27
1.0471985131304309 5.584068236733685e-26 1.5522053165811354e-18 1.5522053148658379e-18 1.7152972675085657e-27
1.048180758391296 5.594153017321035e-26 1.5564671444597058e-18 1.5564671427059582e-18 1.7537479699021852e-27
1.0501480137395462 5.614307479305914e-26 1.5650064879938244e-18 1.5650064861606814e-18 1.8331423348054536e-27
1.0521189612883777 5.634441418687048e-26 1.5735666711807611e-18 1.5735666692647867e-18 1.915974737169648e-27
1.0531058218030118 5.644485059770049e-26 1.5778502194056015e-18 1.5778502174468749e-18 1.9587270184661472e-27
1.0540936079674168 5.65447265670121e-26 1.5821247377429628e-18 1.5821247357405615e-18 2.002401774236461e-27
1.058054026499678 5.694366739679598e-26 1.5992733905378265e-18 1.5992733883512136e-18 2.1866134592493287e-27
1.0590464539527713 5.704325896864697e-26 1.6035731390324002e-18 1.6035731367972582e-18 2.235141971444353e-27
1.06003981227728 5.714279194059045e-26 1.6078778977219196e-18 1.6078778954372193e-18 2.2847010042706673e-27
1.0620293250338977 5.734167980224509e-26 1.616502397619458e-18 1.6165023952324638e-18 2.3869943015846994e-27
1.0660195594769086 5.773872728165784e-26 1.6338109895103037e-18 1.6338109869054147e-18 2.604890164795129e-27
1.070024785945596 5.813477362109298e-26 1.6511983898587478e-18 1.6511983870169958e-18 2.8417523821100345e-27
1.0740450607676866 5.852978290047057e-26 1.6686638156192497e-18 1.6686638125201043e-18 3.099145468347208e-27
1.07808044048254 5.892371949950896e-26 1.6862064772323265e-18 1.6862064738535713e-18 3.378755351722394e-27
1.0861967418109137 5.970753628951893e-26 1.721500210144718e-18 1.721500206132688e-18 4.012030095078992e-27
1.0902777775684922 6.00957609293397e-26 1.739203624610282e-18 1.7392036202405244e-18 4.369757230767921e-27
1.0943741465085532 6.048274591541164e-26 1.7569797564588366e-18 1.756979751700993e-18 4.757843956276886e-27
1.1026131145906286 6.12528619179128e-26 1.792746865424544e-18 1.792746859789516e-18 5.635027888183479e-27
1.1109141095355224 6.201761768473485e-26 1.8287948716593796e-18 1.8287948649940203e-18 6.665359593594865e-27
1.1192775983109025 6.277604105181363e-26 1.8650959041306535e-18 1.865095896256667e-18 7.873986839844984e-27
1.1277040513999907 6.352461043503472e-26 1.901544898071077e-18 1.9015448887811675e-18 9.289909570378679e-27
1.1361939428280308 6.426695257860253e-26 1.9382491834237354e-18 1.9382491724772133e-18 1.0946521385054575e-26
1.1447477501889525 6.500282573377869e-26 1.9752017784525523e-18 1.9752017655703255e-18 1.28822269608563e-26
1.1533659546722406 6.573239443422024e-26 2.0124078989786413e-18 2.0124078838374854e-18 1.5141155956156905e-26
1.1707974979042381 6.717499298984722e-26 2.087655569618207e-18 2.0876555487795155e-18 2.083869122761488e-26
1.1884924949847024 6.858934331490451e-26 2.16382693010886e-18 2.163826901570803e-18 2.8538056851557546e-26
1.2064549276569216 6.998654784220355e-26 2.241274792517901e-18 2.2412747536267254e-18 3.889117558367449e-26
1.2246888378427687 7.13514173303791e-26 2.3195182666829323e-18 2.3195182139398825e-18 5.274304870232621e-26
1.2431983285522175 7.268080990180261e-26 2.3984441431711746e-18 2.3984440719860097e-18 7.11851649883028e-26
1.2619875648066055 7.397430081631255e-26 2.47802325455615e-18 2.4780231589359567e-18 9.562019352253269e-26
1.3004222497298317 7.643237630214912e-26 2.6383425806568133e-18 2.6383424105327453e-18 1.7012406655635308e-25
1.3400274889804893 7.871659617310956e-26 2.7999446538205694e-18 2.799944356643732e-18 2.9717683683780883e-25
1.3808389325824078 8.081912641476643e-26 2.9622834229965245e-18 2.9622829130812696e-18 5.099152546421908e-25
1.4228933163050095 8.275074502455955e-26 3.125458127665488e-18 3.1254572678050907e-18 8.598603963351408e-25
1.466228494730424 8.455808700136825e-26 3.2909875364696825e-18 3.290986110793765e-18 1.4256759186230803e-24
1.5108834753276823 8.62072785864527e-26 3.4573579033867307e-18 3.457355578148985e-18 2.3252377447787446e-24
1.5568984535646726 8.767108948180363e-26 3.623148410392017e-18 3.623144676000243e-18 3.734391772866034e-24
1.6043148490894465 8.895293430756227e-26 3.788081507653399e-18 3.7880755910017024e-18 5.916651695423452e-24
1.6531753430134553 9.005743834601541e-26 3.951918154940166e-18 3.951908917831272e-18 9.237108894499057e-24
1.7035239163302658 9.099791850412518e-26 4.11480374604313e-18 4.114789532433646e-18 1.421360948215034e-23
1.755405889504358 9.184727563463627e-26 4.2796993717451836e-18 4.279677804300117e-18 2.1567445066219283e-23
1.8088679632656115 9.258867210240144e-26 4.4456386105052266e-18 4.445606327533009e-18 3.228297221724098e-23
1.8639582606462262 9.321093489856191e-26 4.611821397917924e-18 4.61177371071447e-18 4.768720345326885e-23
1.9207263702978936 9.37236801885243e-26 4.778419405788869e-18 4.778349863612696e-18 6.954217617216023e-23
1.979223391128241 9.414811364673391e-26 4.946247809153932e-18 4.946147652200853e-18 1.0015695307714723e-22
2.039501978296691 9.450934314097006e-26 5.1164449850699126e-18 5.116302471483111e-18 1.4251358680109757e-22
2.1016163906111602 9.487637651512398e-26 5.292744991337527e-18 5.2925445652920365e-18 2.004260454899807e-22
2.1656225393682647 9.528950264757481e-26 5.4776875479578524e-18 5.477408855335755e-18 2.7869262209732414e-22
2.231578038680979 9.575205745297761e-26 5.671913858141589e-18 5.67153058651878e-18 3.8327162280919494e-22
2.299542257339062 9.628828738282973e-26 5.877387027579702e-18 5.876865554361506e-18 5.214732181933258e-22
2.369576372248914 9.69508840784695e-26 6.098063149470906e-18 6.0973609773876405e-18 7.021720832670322e-22
2.4417434235010123 9.780191795573835e-26 6.338942777920181e-18 6.338006782352917e-18 9.359955672627443e-22
2.5161083711144245 9.8947341842359e-26 6.608500197963067e-18 6.607264635333723e-18 1.2355626293437307e-21
2.5927381535095444 1.0056007918506639e-25 6.92075855609427e-18 6.9191428776756676e-18 1.6156784186033957e-21
2.6717017477616296 1.0284561657315457e-25 7.293621026225237e-18 7.291527599316107e-18 2.093426909129062e-21
2.753070231689431 1.0611277389947314e-25 7.754510550005837e-18 7.751822225509706e-18 2.6883244961303158e-21
2.836916847834745 1.1106158351911241e-25 8.363342852274831e-18 8.35992030929344e-18 3.422542981393059e-21
2.9233170693905177 1.1923286519153823e-25 9.252121679402164e-18 9.247801445736501e-18 4.32023366566717e-21
2.967498994190263 1.2604737766747581e-25 9.928732918024437e-18 9.923902317782759e-18 4.830600241677332e-21
3.0123486681368425 1.3397769031284437e-25 1.071290264023051e-17 1.0707508574591773e-17 5.394065638737553e-21
3.0578761833420214 1.5148031166436315e-25 1.2295480897920561e-17 1.2289463985160471e-17 6.016912760091153e-21
3.1040917844459814 1.7397219675281725e-25 1.433454243966062e-17 1.4327843455517478e-17 6.698984143146823e-21
3.127460860933648 1.9765190223480586e-25 1.6408251904347137e-17 1.640118602165819e-17 7.06588268894517e-21
3.1510058709225794 2.2916212757407105e-25 1.916732430538225e-17 1.9159874731457306e-17 7.449573924946047e-21
3.162844764501044 2.5845465810863017e-25 2.1698597990382862e-17 2.1690949372244243e-17 7.648618138617008e-21
3.1747281389236908 2.9250163196033867e-25 2.4649281687278422e-17 2.4641429638486938e-17 7.85204879149403e-21
3.1986289994194426 3.8740720107491983e-25 3.289281121435174e-17 3.2884537838485756e-17 8.273375865974696e-21
3.2227097969389145 6.1098113157115865e-25 5.2265899719243216e-17 5.2257178568611475e-17 8.721150631753243e-21
3.2348180950136065 8.229401167691817e-25 7.066226119092738e-17 7.065330073748561e-17 8.960453441765678e-21
3.240889293275058 9.81397611417835e-25 8.44264689523726e-17 8.441738226288478e-17 9.086689487805417e-21
3.2469718861334385 1.1647130855978926e-24 1.0038455917171238e-16 1.0037534185509749e-16 9.217316614864608e-21
3.2714166318528037 2.142276446048544e-24 1.8602906496243228e-16 1.8601930674093382e-16 9.758221498456596e-21
3.2744851364798273 2.2033916744976754e-24 1.9151560228025528e-16 1.9150578001331208e-16 9.822266943145681e-21
3.2775565192852394 2.2662601674983853e-24 1.9716480253810364e-16 1.9715491587690884e-16 9.88666119481754e-21
3.283707930232385 2.205829635215639e-24 1.922675188874661e-16 1.9225751646390217e-16 1.000242356393887e-20
3.2898708863219004 2.014136842930842e-24 1.7588842532308972e-16 1.7587831699038224e-16 1.0108332707466944e-20
3.29141343181113 1.9689294827231996e-24 1.72021223515949e-16 1.7201108857372492e-16 1.0134942224128303e-20
3.292184975758714 1.946715974224865e-24 1.7012034480370925e-16 1.7011019653685182e-16 1.0148266857415011e-20
3.295272960557952 1.8065245000151763e-24 1.580173170240407e-16 1.5800711682170895e-16 1.0200202331716198e-20
3.3076538914384823 1.3208024942106662e-24 1.1596511758379883e-16 1.1595470848921262e-16 1.0409094586225765e-20
3.310756385682612 1.2219299797852416e-24 1.0738484106194809e-16 1.0737437925297895e-16 1.0461808969157924e-20
3.313861789986515 1.1306984793798504e-24 9.946049874197269e-17 9.944998402135731e-17 1.0514720615364073e-20
3.3200813396944477 1.0027701934337498e-24 8.83729949052541e-17 8.836236663147287e-17 1.0628273781231301e-20
3.345076488085796 7.746784002301555e-25 6.878550543559521e-17 6.877437174213544e-17 1.1133693459769849e-20
3.3482140837626964 7.832550286775495e-25 6.961227765554494e-17 6.960107551622667e-17 1.1202139318252814e-20
3.3513546224236106 7.919261466033012e-25 7.044894602850729e-17 7.043767510240612e-17 1.1270926101163528e-20
3.3576445397418455 8.552042495422752e-25 7.62208873624668e-17 7.620947271507301e-17 1.1414647393764921e-20
3.3702598118196083 1.0885004932393858e-24 9.737813328055413e-17 9.736641709565052e-17 1.171618490362117e-20
3.382922481734668 1.141708058018957e-24 1.0252187623446689e-16 1.0250986585077033e-16 1.2010383696593568e-20
3.389271646505754 1.169270602047468e-24 1.0519396918704143e-16 1.0518180946107416e-16 1.2159725967260951e-20
3.395632727569191 1.1989800273682562e-24 1.0806923879372389e-16 1.0805692514981632e-16 1.2313643907534851e-20
3.421196662673239 1.3416468495030837e-24 1.2183882103428869e-16 1.2182586896600582e-16 1.2952068282892489e-20
3.4276182099114902 1.3129882100414023e-24 1.1946005238555592e-16 1.1944695663049668e-16 1.309575505922838e-20
3.4340518103208963 1.187257935083055e-24 1.0822344567458189e-16 1.0821021342887774e-16 1.3232245704112076e-20
3.4469541582030403 1.0081825320026857e-24 9.224527060169727e-17 9.223177517594332e-17 1.3495425753983039e-20
3.472904465399547 9.580821777869703e-25 8.832121426283202e-17 8.830711422896346e-17 1.4100033868586973e-20
3.4990501388274233 8.814217694471934e-25 8.186596232221391e-17 8.185124074358054e-17 1.47215786333338e-20
3.5253949054701885 6.083786183077991e-25 5.693130616092436e-17 5.691597628064252e-17 1.5329880281856337e-20
3.5519380250092896 3.5169366973940986e-25 3.3158842653877197e-17 3.314289770435872e-17 1.59449495184799e-20
3.578680990867387 2.499986097830353e-25 2.3748162560977708e-17 2.373154277890049e-17 1.6619782077211196e-20
3.605625307711299 2.0895338171530885e-25 1.9998592476446153e-17 1.99812596259193e-17 1.7332850526851706e-20
3.660119384959845 1.7919510352227041e-25 1.7409681372993733e-17 1.7390840105759645e-17 1.8841267234086714e-20
3.715437065384467 1.5819718279863388e-25 1.5601921470253323e-17 1.5581474823651323e-17 2.044664660199982e-20
3.8285932144167436 1.4797887454079538e-25 1.5038633598074067e-17 1.5014682697791037e-17 2.3950900283027225e-20
3.94519561050918 1.4650485096650177e-25 1.534228264352284e-17 1.531442754417871e-17 2.7855099344132344e-20
4.06534921144712 1.486355759214133e-25 1.603947173277905e-17 1.6007294622877252e-17 3.217710990179318e-20
4.189162171576248 1.5286489292538295e-25 1.699825588550763e-17 1.6961307591145354e-17 3.694829436227879e-20
4.316745939156006 1.586311013446215e-25 1.817666744841673e-17 1.813448865400609e-17 4.217879441063984e-20
4.448215356677963 1.6574556224913756e-25 1.9570284868320078e-17 1.9522455437348427e-17 4.782943097165513e-20
4.58368876423945 1.7423147254026095e-25 2.119879432374719e-17 2.1144858890747762e-17 5.393543299943429e-20
4.723288106065518 1.8426889089801546e-25 2.3102867743739494e-17 2.3042304155816454e-17 6.056358792304433e-20
4.867139040275056 1.9621585125052504e-25 2.5349959793961333e-17 2.528236313318973e-17 6.759666077160177e-20
4.940699165968905 2.0335722740768345e-25 2.666965858453137e-17 2.6598364534384966e-17 7.129405014639766e-20
5.015371051989984 2.1074326837979727e-25 2.805602973441232e-17 2.798092202877509e-17 7.510770563722761e-20
5.091171501069577 2.1968172095355195e-25 2.968800962012679e-17 2.960889710858429e-17 7.911251154251039e-20
5.129500256944802 2.242650756069042e-25 3.053557735714559e-17 3.045441825378537e-17 8.115910336021579e-20
5.168117569889187 2.2903636503465246e-25 3.1420005770235357e-17 3.1336754957390387e-17 8.325081284497237e-20
5.20702561229733 2.3485386791629886e-25 3.246062399784446e-17 3.237511292943288e-17 8.5511068411592e-20
5.246226572918644 2.4081480990272476e-25 3.353510481423547e-17 3.3447296199682026e-17 8.780861455343889e-20
5.265937586045735 2.438504854336001e-25 3.408542903863241e-17 3.399645766949674e-17 8.897136913568106e-20
5.285722656980489 2.469237433724992e-25 3.4644688209378714e-17 3.4554544767313505e-17 9.014344206520094e-20
5.305582063971359 2.5003518425462437e-25 3.521304608469545e-17 3.512172125417415e-17 9.1324830521309e-20
5.3255160863122235 2.533716186164433e-25 3.581699116160346e-17 3.572446841646239e-17 9.252274514106665e-20
5.365609099470188 2.6163997515551415e-25 3.726426521347714e-17 3.716926230283787e-17 9.500291063927856e-20
5.406003951863644 2.7021411411882944e-25 3.877517992520028e-17 3.86776557243464e-17 9.752420085388745e-20
5.446702915881641 2.7910872479380324e-25 4.035306559785722e-17 4.0252978930156535e-17 1.0008666770068658e-19
5.487708281020852 2.8870404319093356e-25 4.205458153937113e-17 4.195188258197373e-17 1.0269895739738843e-19
5.529022354014368 3.019774271054711e-25 4.431923541091214e-17 4.4213806818911127e-17 1.0542859200102612e-19
5.570647458961463 3.1601638353404414e-25 4.6728808408000733e-17 4.662060432147989e-17 1.0820408652084277e-19
5.612585937458331 3.308758424557941e-25 4.929439001994506e-17 4.918336444232629e-17 1.1102557761876364e-19
5.654840148729818 3.471872140016953e-25 5.2113889610363566e-17 5.199998544213556e-17 1.1390416822800517e-19
5.67608639626678 3.5826959046558434e-25 5.397944035751541e-17 5.3864031611909455e-17 1.1540874560596064e-19
5.686739436050992 3.6397933372773806e-25 5.494263554204631e-17 5.482646964648517e-17 1.161658955611168e-19
5.6974124697621304 3.6980502429498066e-25 5.592679116894888e-17 5.580986487728927e-17 1.1692629165960326e-19
5.718818669136295 3.8181539187103505e-25 5.796010868175712e-17 5.784165184369331e-17 1.1845683806383774e-19
5.740305295436557 3.950448611224376e-25 6.019367242838674e-17 6.007366254855332e-17 1.2000987983340843e-19
5.7835210386641895 4.293200492849008e-25 6.590872697616182e-17 6.578549725906712e-17 1.2322971709471156e-19
5.827062130521658 4.687560796148627e-25 7.250467250368323e-17 7.237814269095068e-17 1.2652981273256586e-19
5.8489554468988025 4.964007413082024e-25 7.70690787539677e-17 7.694077642753556e-17 1.2830232643217081e-19
5.870931020387893 5.260469494320632e-25 8.19786792632104e-17 8.184858697768591e-17 1.300922855244689e-19
5.892989160043636 5.578554907621337e-25 8.726232645639425e-17 8.713042668071507e-17 1.3189977567917407e-19
5.915130176081913 5.9401474793873695e-25 9.3267635627274e-17 9.313386424639115e-17 1.3377138088288862e-19
5.95966208400165 6.950719094849116e-25 1.099564743422807e-16 1.0981849987805013e-16 1.3797446423052235e-19
6.004529249263818 8.406287653682797e-25 1.3398390915358552e-16 1.3384123494534024e-16 1.4267420824523192e-19
6.027089341400364 9.417805593284389e-25 1.506699983579237e-16 1.5052463981622845e-16 1.4535854169530504e-19
6.049734195844842 1.0612629798364553e-24 1.704232101978784e-16 1.7027501334490926e-16 1.4819685296914133e-19
6.095279466722835 1.4063301667936009e-24 2.2753612021082535e-16 2.273810570341442e-16 1.5506317668109707e-19
6.141167624020661 1.9371741328796052e-24 3.1578321791027703e-16 3.1561937885750365e-16 1.6383905277345081e-19
6.164241091010745 2.2761879066571547e-24 3.7244072281169325e-16 3.72271442495275e-16 1.6928031641833126e-19
6.187401249150058 2.662212329353596e-24 4.3724052202708305e-16 4.3706563461587554e-16 1.748874112076037e-19
6.1990139391386085 2.85070491826976e-24 4.690771858081041e-16 4.688994410359646e-16 1.777447721395483e-19
6.204828454712694 2.949981273073564e-24 4.858681950979733e-16 4.8568900502201355e-16 1.7919007595985336e-19
6.210648424152782 3.0224643297828893e-24 4.9827323833681775e-16 4.980928005841573e-16 1.8043775266046637e-19
6.233982942956859 3.268702069004678e-24 5.408917789635411e-16 5.407069212309954e-16 1.8485773254576616e-19
6.239830258556775 3.3001737478919402e-24 5.466118142011555e-16 5.464262909993484e-16 1.855232018069416e-19
6.245683058788269 3.3029027815919163e-24 5.475769591847998e-16 5.473907686558872e-16 1.8619052891266717e-19
6.257405133728602 3.296138529430889e-24 5.474811401826435e-16 5.472937507619965e-16 1.873894206469871e-19
6.269149208991335 3.2477176469358293e-24 5.40450974869084e-16 5.402629968791003e-16 1.8797798998381088e-19
6.280915325867298 3.126290495523756e-24 5.212207561959575e-16 5.21032946809394e-16 1.8780938656363638e-19
6.304513850009849 2.8268439494569965e-24 4.730672365439124e-16 4.728804519016804e-16 1.867846422318358e-19
6.32820103803542 2.455730315024966e-24 4.1250609715676665e-16 4.123210687793217e-16 1.8502837744489035e-19
6.3519772230701035 2.1154159162571397e-24 3.5667620144267676e-16 3.564926974167192e-16 1.8350402595757659e-19
6.375842739491607 1.829070746275028e-24 3.095547934673312e-16 3.093725781982227e-16 1.8221526910846326e-19
6.399797922933955 1.5996764675185926e-24 2.717489346720886e-16 2.715671284570316e-16 1.8180621505688254e-19
6.42384311029221 1.4089249284935422e-24 2.4024381291898936e-16 2.400622404921335e-16 1.8157242685582446e-19
6.447978639727206 1.2699836904281162e-24 2.173657764206808e-16 2.1718374518233433e-16 1.820312383464181e-19
6.472204850670314 1.1542327005549505e-24 1.9829650591927007e-16 1.9811387463724039e-16 1.826312820296362e-19
6.496522083828205 1.0790640950206717e-24 1.860790988320418e-16 1.8589530021133234e-16 1.837986207095277e-19
6.520930681187647 1.015750978611622e-24 1.7581918640977765e-16 1.7563412722434858e-16 1.8505918542904353e-19
