Dust emission spectrum from A.P. Jones, M. Kohler, N. Ysard, M. Bocchio, and L. Verstraete (2017), A&A, 602A, 46J 
inside the DustPedia framework.

lambda    nu*dP/dnu     j_nu    j_nu(carb.) j_nu(sil)
 (um)   (erg s-1 H-1) (Jy cm2 sr-1 H-1)
0.9927057738263894 4.476222804250575e-24 1.1795101333579883e-16 1.1795101099320952e-16 2.342589288602401e-24
1.0001793341362166 4.5514797453825384e-24 1.2083699714101014e-16 1.2083699432092522e-16 2.820084896180252e-24
1.0077091589558085 4.6269235292561506e-24 1.2376474766192928e-16 1.2376474427149383e-16 3.3904354595151e-24
1.0114953028030835 4.6647102645521584e-24 1.2524430216870875e-16 1.252442984530403e-16 3.7156684264051315e-24
1.0152956718711033 4.702537490737672e-24 1.2673431870361165e-16 1.2673431463285812e-16 4.070753522561434e-24
1.0229392996569957 4.77826856264062e-24 1.2974476760646022e-16 1.2974476272527784e-16 4.88118240646233e-24
1.0267826658714554 4.816085004573046e-24 1.3126293328027773e-16 1.3126292793770877e-16 5.342568969146372e-24
1.0306404723013447 4.853932071444749e-24 1.3279151328872594e-16 1.327915074430929e-16 5.845633008877619e-24
1.03451277320114 4.891807848621795e-24 1.3433051502924444e-16 1.3433050863529404e-16 6.393950408194867e-24
1.0383996230291617 4.929710451266633e-24 1.3587994624588793e-16 1.358799392545015e-16 6.991386414597948e-24
1.0403485208654093 4.94867123148587e-24 1.3665857543072293e-16 1.3665856812090665e-16 7.309816265495132e-24
1.0423010764483396 4.967638025193681e-24 1.3743981506257262e-16 1.3743980742045512e-16 7.64211753442799e-24
1.0462171883269815 5.0055887477183435e-24 1.3901013001680016e-16 1.390101216661452e-16 8.35065495809928e-24
1.0471985131304309 5.015079834789623e-24 1.3940434200697883e-16 1.3940433346959475e-16 8.537384081449183e-24
1.048180758391296 5.024572228936794e-24 1.3979920758495735e-16 1.3979919885684896e-16 8.72810842665076e-24
1.0501480137395462 5.04356082849916e-24 1.4059090009385302e-16 1.4059089097198342e-16 9.121869614124775e-24
1.0521189612883777 5.062554327803377e-24 1.4138520874230036e-16 1.4138519920969237e-16 9.532607989877319e-24
1.0531058218030118 5.072039736944653e-24 1.4178297802241114e-16 1.4178296827783723e-16 9.744573956824398e-24
1.0540936079674168 5.081483337698291e-24 1.4218019930600163e-16 1.421801893449069e-16 9.961094731833884e-24
1.058054026499678 5.119266883266835e-24 1.4377555362601784e-16 1.4377554275189015e-16 1.0874127657458343e-23
1.0590464539527713 5.12871492452012e-24 1.441760102667943e-16 1.4417599915219266e-16 1.1114601616825861e-23
1.06003981227728 5.1381637758977e-24 1.4457711444569557e-16 1.4457710308553598e-16 1.1360159585402404e-23
1.0620293250338977 5.157063806518709e-24 1.4538126606447318e-16 1.4538125419753507e-16 1.1866938108923757e-23
1.0660195594769086 5.194872469710649e-24 1.4699734700965671e-16 1.4699733406352686e-16 1.294612984181149e-23
1.070024785945596 5.2326912720358086e-24 1.48623807487891e-16 1.4862379336907035e-16 1.4118820667844113e-23
1.0740450607676866 5.270518650412625e-24 1.5026065920055276e-16 1.50260643807873e-16 1.5392679736702454e-23
1.07808044048254 5.3083530802648615e-24 1.5190791456152684e-16 1.5190789778555953e-16 1.6775967305679606e-23
1.0861967418109137 5.3839769475803686e-24 1.5523195265889604e-16 1.552319327518119e-16 1.9907084131830377e-23
1.0902777775684922 5.4216265358720795e-24 1.569047862387323e-16 1.5690476456394091e-16 2.167479137393347e-23
1.0943741465085532 5.4592750789983284e-24 1.5858796841259448e-16 1.5858794482082287e-16 2.3591771585714022e-23
1.1026131145906286 5.534563841317308e-24 1.6198544308526446e-16 1.6198541516318064e-16 2.7922083873621823e-23
1.1109141095355224 5.609833295951176e-24 1.6542451557317357e-16 1.6542448256880207e-16 3.3004371535678334e-23
1.1192775983109025 5.685012470150173e-24 1.6890350674164484e-16 1.689034677803285e-16 3.8961316387273924e-23
1.1277040513999907 5.759809045318885e-24 1.7241405227019374e-16 1.724140063359498e-16 4.593424388154513e-23
1.1361939428280308 5.834551722194656e-24 1.759662572666091e-16 1.7596620318088248e-16 5.408572661312928e-23
1.1447477501889525 5.909233663610218e-24 1.7956033003022638e-16 1.7956026642769354e-16 6.360253282748368e-23
1.1533659546722406 5.983879115203339e-24 1.8319742802035313e-16 1.8319735332130982e-16 7.469904333957816e-23
1.1707974979042381 6.133288655214402e-24 1.9060953565071047e-16 1.906094330007315e-16 1.0264997898384892e-22
1.1884924949847024 6.2824810242547856e-24 1.981969934566551e-16 1.981968531011842e-16 1.4035547091745807e-22
1.2064549276569216 6.4325000814836656e-24 2.0599673408673094e-16 2.0599654312012768e-16 1.9096660325907356e-22
1.2246888378427687 6.582206931975931e-24 2.1397681763084987e-16 2.139765590723884e-16 2.5855846140533963e-22
1.2431983285522175 6.731422467036522e-24 2.2213484980543923e-16 2.221345014228234e-16 3.483826158438771e-22
1.2619875648066055 6.880296678912729e-24 2.304791661488944e-16 2.304786989766381e-16 4.671722562937224e-22
1.3004222497298317 7.175741528160844e-24 2.4769692292037e-16 2.476960946415079e-16 8.282788620864775e-22
1.3400274889804893 7.468976367211965e-24 2.6567104607644764e-16 2.656696044202218e-16 1.4416562258475408e-21
1.3808389325824078 7.760648355345873e-24 2.844529629875579e-16 2.8445049845148194e-16 2.4645360760355713e-21
1.4228933163050095 8.053057539118016e-24 3.041603327042456e-16 3.0415619260017404e-16 4.1401040715962265e-21
1.466228494730424 8.35172126154388e-24 3.250476867974202e-16 3.25040849151339e-16 6.83764608128106e-21
1.5108834753276823 8.655321156464446e-24 3.4712316056518357e-16 3.47112053169504e-16 1.110739567951601e-20
1.5568984535646726 8.963032794498543e-24 3.704117082794901e-16 3.70393942510318e-16 1.7765769172098147e-20
1.6043148490894465 9.276698220302952e-24 3.9505036291336086e-16 3.950223325802466e-16 2.803033311424451e-20
1.6531753430134553 9.598323049465623e-24 4.211954927079285e-16 4.2115191791531515e-16 4.357479261340817e-20
1.7035239163302658 9.930481207372059e-24 4.490430324541225e-16 4.489762738243515e-16 6.675862977090924e-20
1.755405889504358 1.0281105221491909e-23 4.790565561497431e-16 4.789557095724039e-16 1.0084657733905549e-19
1.8088679632656115 1.0650040469520084e-23 5.113609477234709e-16 5.112106855538936e-16 1.5026216957730834e-19
1.8639582606462262 1.1037158345092989e-23 5.460883219710475e-16 5.458673970914746e-16 2.209248795728934e-19
1.9207263702978936 1.1444111558912161e-23 5.834679629003118e-16 5.831473295039764e-16 3.2063339633514617e-19
1.979223391128241 1.1873403207612962e-23 6.23791516665127e-16 6.233319922296782e-16 4.595244354489199e-19
2.039501978296691 1.232741859737601e-23 6.673685052209396e-16 6.667179294447828e-16 6.505757761569431e-19
2.1016163906111602 1.2812705399273131e-23 7.147657279752462e-16 7.138554905830365e-16 9.102373922093957e-19
2.1656225393682647 1.3332710626583882e-23 7.664267411476787e-16 7.651677371709915e-16 1.2590039766870577e-18
2.231578038680979 1.3886507832903236e-23 8.225731990909432e-16 8.208511362185831e-16 1.722062872359917e-18
2.299542257339062 1.447526606929005e-23 8.835627190891439e-16 8.812327411124767e-16 2.3299779766670474e-18
2.369576372248914 1.510200325975735e-23 9.498930353948933e-16 9.467736110075431e-16 3.1194243873497815e-18
2.4417434235010123 1.5770266446715e-23 1.0221355438399726e-15 1.0180017758876508e-15 4.133767952321923e-18
2.5161083711144245 1.6487068779502606e-23 1.101139204595899e-15 1.0957153853072225e-15 5.4238192886764356e-18
2.5927381535095444 1.7264226202006936e-23 1.1881607708561738e-15 1.1811124395980647e-15 7.04833125810914e-18
2.6717017477616296 1.8113359008053788e-23 1.284565939888508e-15 1.2754919320406769e-15 9.074007847830915e-18
2.753070231689431 1.905192710381844e-23 1.3922769549353546e-15 1.3807012419588806e-15 1.157571297647429e-17
2.836916847834745 2.0124445900574536e-23 1.5154442737582413e-15 1.5008073379190018e-15 1.4636935839239818e-17
2.9233170693905177 2.1429504329952902e-23 1.6628668720784096e-15 1.6445208627125448e-15 1.834600936586488e-17
2.967498994190263 2.226555515604355e-23 1.75385441971746e-15 1.7334191059690105e-15 2.043531374844979e-17
3.0123486681368425 2.3176092208318348e-23 1.8531683807129835e-15 1.8304359264512317e-15 2.2732454261751394e-17
3.0578761833420214 2.4731761677612796e-23 2.0074483603703274e-15 1.982186577806529e-15 2.526178256379819e-17
3.1040917844459814 2.6593589795959e-23 2.191194619992787e-15 2.1631770419318493e-15 2.8017578060938025e-17
3.127460860933648 2.834828225325609e-23 2.353358358850384e-15 2.323863943063271e-15 2.949441578711335e-17
3.1510058709225794 3.0599933543293913e-23 2.5594056756078997e-15 2.528370902656367e-15 3.1034772951532814e-17
3.162844764501044 3.2633621566126876e-23 2.7397603916894956e-15 2.707928110661271e-15 3.1832281028224834e-17
3.1747281389236908 3.495349406401203e-23 2.9455511593701846e-15 2.912904895828583e-15 3.264626354160144e-17
3.1986289994194426 4.12820004967374e-23 3.5050485512977345e-15 3.470719819130245e-15 3.4328732167490175e-17
3.2227097969389145 5.595116512444461e-23 4.7862983559721496e-15 4.750185817090123e-15 3.611253888202618e-17
3.2348180950136065 6.974158491043446e-23 5.988404245205356e-15 5.951339511045847e-15 3.706473415950934e-17
3.240889293275058 8.003942964025971e-23 6.885533796772181e-15 6.847966799961512e-15 3.756699681066806e-17
3.2469718861334385 9.196539405047239e-23 7.926334523897269e-15 7.88824782687364e-15 3.8086697023626624e-17
3.2714166318528037 1.5491223359506237e-22 1.345212846833416e-14 1.3411893277988053e-14 4.023519034610401e-17
3.2744851364798273 1.588559987988449e-22 1.3807532558971e-14 1.3767043931892674e-14 4.048862707832436e-17
3.2775565192852394 1.629080117655057e-22 1.4173009097660843e-14 1.4132265744752528e-14 4.0743352908310766e-17
3.283707930232385 1.5906066972927882e-22 1.3864262150253256e-14 1.3823062772257932e-14 4.1199377995319344e-17
3.2898708863219004 1.4677079101286598e-22 1.2817045378660839e-14 1.2775430537845639e-14 4.1614840815201184e-17
3.29141343181113 1.4386854729835417e-22 1.2569492076219935e-14 1.2527772898708245e-14 4.171917751168714e-17
3.292184975758714 1.4244189176230124e-22 1.2447765396667078e-14 1.2405993980060841e-14 4.177141660623679e-17
3.295272960557952 1.3349833283702033e-22 1.1677144916612605e-14 1.1635170214088302e-14 4.1974702524304544e-17
3.3076538914384823 1.0236344996621339e-22 8.987406946645197e-15 8.944615519464308e-15 4.279142718088836e-17
3.310756385682612 9.598467445744978e-23 8.43526157923355e-15 8.392264242495859e-15 4.299733673768821e-17
3.313861789986515 9.008287390935758e-23 7.924029023236174e-15 7.880825084062323e-15 4.320393917385245e-17
3.3200813396944477 8.18347593535545e-23 7.212004124953244e-15 7.168356015978198e-15 4.364810897504774e-17
3.345076488085796 6.736966439638017e-23 5.9819099321146215e-15 5.93628297989506e-15 4.562695221956225e-17
3.3482140837626964 6.795696949632931e-23 6.0397179156258994e-15 5.9938229212501445e-15 4.589499437575698e-17
3.3513546224236106 6.85499817636193e-23 6.098136784893274e-15 6.051972515497439e-15 4.6164269395834324e-17
3.3576445397418455 7.27100031362332e-23 6.480347779068745e-15 6.433620601147973e-15 4.672717792077129e-17
3.3702598118196083 8.78396553967672e-23 7.858206517746793e-15 7.810298568914351e-15 4.790794883244122e-17
3.382922481734668 9.1436741481814e-23 8.210738487514321e-15 8.161681838121394e-15 4.9056649392926354e-17
3.389271646505754 9.329414083191057e-23 8.393250423656075e-15 8.343611341324796e-15 4.9639082331277945e-17
3.395632727569191 9.53215350692426e-23 8.591740896796726e-15 8.541501576255615e-15 5.0239320541110205e-17
3.421196662673239 1.0510816679444042e-22 9.545175862078119e-15 9.4924507172818e-15 5.2725144796321157e-17
3.4276182099114902 1.0332443928673688e-22 9.400802562814e-15 9.347521558528103e-15 5.3281004285897296e-17
3.4340518103208963 9.522074805602777e-23 8.679762964577424e-15 8.625955676812904e-15 5.3807287764520797e-17
3.4469541582030403 8.363503491714692e-23 7.652321065699704e-15 7.597502551185922e-15 5.4818514513783515e-17
3.472904465399547 8.050589971429919e-23 7.421470707776466e-15 7.364324372837999e-15 5.714633493846873e-17
3.4990501388274233 7.569435457636907e-23 7.030449433577989e-15 6.970918533959035e-15 5.953089961895182e-17
3.5253949054701885 5.83098390557763e-23 5.456561423398185e-15 5.3947099738687644e-15 6.185144952942127e-17
3.5519380250092896 4.182345989545223e-23 3.9432541590572745e-15 3.879067150292997e-15 6.4187008764278e-17
3.578680990867387 3.54193656418566e-23 3.364598122363633e-15 3.2978507926042677e-15 6.674732975936641e-17
3.605625307711299 3.2978808980710956e-23 3.156348826468794e-15 3.0869030763194132e-15 6.944575014938041e-17
3.660119384959845 3.150523116042137e-23 3.0608874087749976e-15 2.9857639753788736e-15 7.512343339612406e-17
3.715437065384467 3.056777954096638e-23 3.0146939881049015e-15 2.933572828050821e-15 8.112116005408038e-17
3.8285932144167436 3.0777360247228806e-23 3.1278075692243772e-15 3.0337528844861687e-15 9.405468473820799e-17
3.94519561050918 3.154202331941697e-23 3.303144119273792e-15 3.194921403067062e-15 1.0822271620672881e-16
4.06534921144712 3.252469352597301e-23 3.5097849165193685e-15 3.3861607639834127e-15 1.2362415253595477e-16
4.189162171576248 3.362500163709586e-23 3.7390297473793666e-15 3.598727376361384e-15 1.4030237101798245e-16
4.316745939156006 3.480104790867507e-23 3.987661116455162e-15 3.829448841156224e-15 1.582122752989371e-16
4.448215356677963 3.603400913310752e-23 4.2546890192001565e-15 4.077563855894859e-15 1.7712516330529674e-16
4.58368876423945 3.732048713610885e-23 4.540794606884858e-15 4.343716153803288e-15 1.9707845308157007e-16
4.723288106065518 3.866768122350704e-23 4.847993174052274e-15 4.629783184015008e-15 2.1820999003726688e-16
4.867139040275056 4.008812054139677e-23 5.179154678193535e-15 4.9391619485624714e-15 2.399927296310627e-16
4.940699165968905 4.085475449181726e-23 5.3579721150862235e-15 5.1067752806996705e-15 2.5119683438655385e-16
5.015371051989984 4.161941471723101e-23 5.540748920772689e-15 5.278170974423654e-15 2.625779463490367e-16
5.091171501069577 4.2472787291758235e-23 5.739815366695531e-15 5.465439706283985e-15 2.743756604115468e-16
5.129500256944802 4.2898480188962985e-23 5.840989091900003e-15 5.5606577644566495e-15 2.8033132744335325e-16
5.168117569889187 4.3331539259940284e-23 5.9443713812630426e-15 5.6579919194656894e-15 2.863794617973552e-16
5.20702561229733 4.383400704382557e-23 6.058572650272879e-15 5.765607141173137e-15 2.929655090997417e-16
5.246226572918644 4.433872036847572e-23 6.174469234207537e-15 5.874861791404355e-15 2.9960744280318234e-16
5.265937586045735 4.4591952101517785e-23 6.233064561457494e-15 5.9301159023051275e-15 3.0294865915236537e-16
5.285722656980489 4.484578614963132e-23 6.292097541687797e-15 5.985794551153539e-15 3.0630299053426016e-16
5.305582063971359 4.5100237576101456e-23 6.3515730753345025e-15 6.0419029311646175e-15 3.0967014416988693e-16
5.3255160863122235 4.5368394646172186e-23 6.413344158005195e-15 6.100268840770338e-15 3.130753172348582e-16
5.365609099470188 4.6008721275547076e-23 6.552825846760908e-15 6.232705490482917e-15 3.2012035627799223e-16
5.406003951863644 4.665873602644448e-23 6.6954344350502504e-15 6.3682106999296794e-15 3.2722373512057117e-16
5.446702915881641 4.731901912229348e-23 6.841303452906473e-15 6.5069203092692935e-15 3.3438314363718017e-16
5.487708281020852 4.801541149830753e-23 6.994249251530555e-15 6.652623685631237e-15 3.416255658993183e-16
5.529022354014368 4.894950133198908e-23 7.183995484607788e-15 6.834817982411668e-15 3.4917750219611884e-16
5.570647458961463 4.991579348802562e-23 7.380964000507275e-15 7.024172665059863e-15 3.5679133544741117e-16
5.612585937458331 5.0916809354379627e-23 7.585664278954747e-15 7.221199546063966e-15 3.644647328907799e-16
5.654840148729818 5.1993851615795537e-23 7.804440181688143e-15 7.43220844002235e-15 3.7223174166579356e-16
5.67608639626678 5.2719207470394667e-23 7.943050125034309e-15 7.566755480855382e-15 3.7629464417892556e-16
5.686739436050992 5.308981623255346e-23 8.01390121352681e-15 7.635568653472451e-15 3.7833256005435755e-16
5.6974124697621304 5.346588503544324e-23 8.085816012751366e-15 7.705441275173929e-15 3.8037473757743887e-16
5.718818669136295 5.423494131236352e-23 8.232939686923543e-15 7.848467954958422e-15 3.8447173196512267e-16
5.740305295436557 5.507592602916416e-23 8.39201461998532e-15 8.003399497784297e-15 3.8861512220102283e-16
5.7835210386641895 5.724072104728584e-23 8.787530565386263e-15 8.390347021000036e-15 3.971835443862273e-16
5.827062130521658 5.968450829595901e-23 9.2316791519746e-15 8.825779563956248e-15 4.058995880183515e-16
5.8489554468988025 6.140250243435337e-23 9.533092725310318e-15 9.122489229311966e-15 4.1060349599835314e-16
5.870931020387893 6.322340467747104e-23 9.852678015865792e-15 9.437345114207382e-15 4.1533290165840902e-16
5.892989160043636 6.515533126054992e-23 1.0191897150756777e-14 9.771809596251244e-15 4.2008755450553487e-16
5.915130176081913 6.734000599913723e-23 1.0573210790574048e-14 1.0148195278730421e-14 4.2501551184362727e-16
5.95966208400165 7.345063980647238e-23 1.161947890728247e-14 1.1183247146240221e-14 4.3623176104225074e-16
6.004529249263818 8.218460449737752e-23 1.3099021870820562e-14 1.2650174553340514e-14 4.488473174800539e-16
6.027089341400364 8.824318290582632e-23 1.4117513991794001e-14 1.3661383751552842e-14 4.561302402411577e-16
6.049734195844842 9.534639784046296e-23 1.531122776305627e-14 1.4847383960249437e-14 4.638438028068367e-16
6.095279466722835 1.1581921410730057e-22 1.873888169797736e-14 1.8256099250965957e-14 4.827824470114012e-16
6.141167624020661 1.4709031317894765e-22 2.3977530791221485e-14 2.3470194553068784e-14 5.073362381527065e-16
6.164241091010745 1.6704028862800108e-22 2.7331928815425874e-14 2.6809194481102725e-14 5.227343343231514e-16
6.187401249150058 1.8954974242870995e-22 3.113156205303572e-14 3.059301021407291e-14 5.385518389628189e-16
6.1990139391386085 2.005111399047527e-22 3.299366434838981e-14 3.2447062859903745e-14 5.4660148848605895e-16
6.204828454712694 2.0626665981055407e-22 3.3972557936486416e-14 3.342189001845994e-14 5.506679180264744e-16
6.210648424152782 2.1045122673405705e-22 3.469427685992476e-14 3.414014138555574e-14 5.541354743690248e-16
6.233982942956859 2.2455489780870224e-22 3.7158448701233186e-14 3.6592210948503095e-14 5.662377527300924e-16
6.239830258556775 2.2629525972330466e-22 3.748156064252393e-14 3.6913633932619243e-14 5.679267099046859e-16
6.245683058788269 2.2635149652840853e-22 3.752604068964342e-14 3.695642209593694e-14 5.696185937064812e-16
6.257405133728602 2.2574603553644844e-22 3.749590492743812e-14 3.6923319302962887e-14 5.72585624475242e-16
6.269149208991335 2.227016170395432e-22 3.7059658233374944e-14 3.6485955004511855e-14 5.737032288630945e-16
6.280915325867298 2.1539161543004504e-22 3.5910476276424413e-14 3.533794309591143e-14 5.725331805129919e-16
6.304513850009849 1.9749960136283551e-22 3.305120208463854e-14 3.248307985483258e-14 5.681222298059641e-16
6.32820103803542 1.7554746249423157e-22 2.9487927960254534e-14 2.892642008379316e-14 5.61507876461371e-16
6.3519772230701035 1.554818550008805e-22 2.6215495973527533e-14 2.565990223988627e-14 5.555937336412572e-16
6.375842739491607 1.3856004748250705e-22 2.3450119121210644e-14 2.2899722343616263e-14 5.50396777594378e-16
6.399797922933955 1.2510053587927838e-22 2.125175811633684e-14 2.070394151417714e-14 5.478166021597032e-16
6.42384311029221 1.1387160760966885e-22 1.9416896274674187e-14 1.8871139004044814e-14 5.457572706293698e-16
6.447978639727206 1.0572091739627447e-22 1.8094806623856073e-14 1.754906565793191e-14 5.457409659241616e-16
6.472204850670314 9.890946645635879e-23 1.699258874852978e-14 1.6446457844427992e-14 5.461309041017867e-16
6.496522083828205 9.448731276257354e-23 1.6293855101891924e-14 1.57456766710388e-14 5.481784308531296e-16
