Dust emission spectrum from A.P. Jones, M. Kohler, N. Ysard, M. Bocchio, and L. Verstraete (2017), A&A, 602A, 46J 
inside the DustPedia framework.

lambda    nu*dP/dnu     j_nu    j_nu(carb.) j_nu(sil)
 (um)   (erg s-1 H-1) (Jy cm2 sr-1 H-1)
0.9927057738263894 1.0025321150775064e-21 2.6417290659165775e-14 2.6417289646455878e-14 1.0127098994069647e-21
1.0001793341362166 1.019387829398821e-21 2.7063674039549742e-14 2.706367282084805e-14 1.2187016985036666e-21
1.0077091589558085 1.0363105017943966e-21 2.7720083753925877e-14 2.7720082289286207e-14 1.4646396648329548e-21
1.0114953028030835 1.0447961721438361e-21 2.8052067559925012e-14 2.8052065955091242e-14 1.6048337809152662e-21
1.0152956718711033 1.0532976650950151e-21 2.8386581125795903e-14 2.8386579367935975e-14 1.7578599267405377e-21
1.0229392996569957 1.0703386715914494e-21 2.9063004807142025e-14 2.9063002700149085e-14 2.106992946675683e-21
1.0267826658714554 1.078858828549913e-21 2.9404417550005466e-14 2.9404415244317063e-14 2.3056883993116734e-21
1.0306404723013447 1.0873932535241328e-21 2.9748375863126134e-14 2.974837334084694e-14 2.5222791978514943e-21
1.03451277320114 1.095941684384305e-21 3.009488832371825e-14 3.009488556542305e-14 2.758295202582815e-21
1.0383996230291617 1.1045038670524654e-21 3.044396371087129e-14 3.0443960695481756e-14 3.015389532468654e-21
1.0403485208654093 1.1087900381670086e-21 3.061946530284732e-14 3.061946215045368e-14 3.15239364245768e-21
1.0423010764483396 1.1130795557061941e-21 3.079561101479919e-14 3.079560771945135e-14 3.295347841844594e-21
1.0462171883269815 1.121668512980961e-21 3.114983944622049e-14 3.1149835846122245e-14 3.600098241734816e-21
1.0471985131304309 1.1238177985271231e-21 3.1238800956391355e-14 3.1238797275991384e-14 3.6803999715182215e-21
1.048180758391296 1.1259678955369883e-21 3.1327924525722465e-14 3.1327920763307914e-14 3.7624145588004676e-21
1.0501480137395462 1.1302705101709942e-21 3.15066584458673e-14 3.15066545141454e-14 3.9317219064627856e-21
1.0521189612883777 1.1345763296803883e-21 3.168604242426707e-14 3.168603831596087e-14 4.108306207141238e-21
1.0531058218030118 1.136727580883596e-21 3.177589884478586e-14 3.1775894645360176e-14 4.1994256851112605e-21
1.0540936079674168 1.1388702797572774e-21 3.186565665940312e-14 3.1865652366905746e-14 4.2924973685923126e-21
1.058054026499678 1.1474485461097964e-21 3.222630383142424e-14 3.2226299146523305e-14 4.684900927805761e-21
1.0590464539527713 1.1495949648783395e-21 3.2316870385316405e-14 3.231686559708124e-14 4.7882351703258975e-21
1.06003981227728 1.1517421184351275e-21 3.240759916023327e-14 3.2407594266486127e-14 4.893747135838771e-21
1.0620293250338977 1.1560386180447837e-21 3.258954401501351e-14 3.258953890353409e-14 5.111479424166348e-21
1.0660195594769086 1.1646403062868344e-21 3.295538749851436e-14 3.295538192346371e-14 5.575050650630264e-21
1.070024785945596 1.1732534312953853e-21 3.332384485192683e-14 3.3323838773276125e-14 6.078650711481753e-21
1.0740450607676866 1.1818778234534626e-21 3.369492693716745e-14 3.369492031161769e-14 6.625549764776333e-21
1.07808044048254 1.190513323254232e-21 3.406864491844235e-14 3.406863769917354e-14 7.219268807821971e-21
1.0861967418109137 1.2078038395160319e-21 3.482365364161634e-14 3.482364507900181e-14 8.562614526673724e-21
1.0902777775684922 1.2164285321019049e-21 3.5204095586684216e-14 3.520408626597742e-14 9.320706802176749e-21
1.0943741465085532 1.2250632803849804e-21 3.5587196835073074e-14 3.5587186692485325e-14 1.0142587749622204e-20
1.1026131145906286 1.2423625403665301e-21 3.636142835167078e-14 3.636141635330563e-14 1.1998365166913966e-20
1.1109141095355224 1.259700925744724e-21 3.714645416625815e-14 3.714643999108272e-14 1.417517542954107e-20
1.1192775983109025 1.2770643479568698e-21 3.7941983036485685e-14 3.79419663113306e-14 1.6725155082148062e-20
1.1277040513999907 1.2943900676742433e-21 3.874625617447895e-14 3.874623646615934e-14 1.970831960522318e-20
1.1361939428280308 1.3117519463682879e-21 3.956157927035967e-14 3.956155607670081e-14 2.3193658864392573e-20
1.1447477501889525 1.329150081315746e-21 4.038808428417227e-14 4.0388057023800844e-14 2.72603714199197e-20
1.1533659546722406 1.3465909676350927e-21 4.122610051386452e-14 4.1226068514566994e-14 3.1999297521313517e-20
1.1707974979042381 1.3816539215277206e-21 4.293885828909773e-14 4.293881436402021e-14 4.392507752297739e-20
1.1884924949847024 1.4168936451781208e-21 4.469954774840803e-14 4.4699487755278414e-14 5.999312962382647e-20
1.2064549276569216 1.4525484724130785e-21 4.6516943277014094e-14 4.6516861742994346e-14 8.153401974212908e-20
1.2246888378427687 1.488387811864571e-21 4.838506152642628e-14 4.838495126063431e-14 1.1026579198421137e-19
1.2431983285522175 1.5243828795580486e-21 5.0304161364824483e-14 5.0304012965867504e-14 1.4839895697002912e-19
1.2619875648066055 1.5605865817327371e-21 5.227720705173924e-14 5.2277008288554983e-14 1.9876318425238476e-19
1.3004222497298317 1.6333992470432097e-21 5.638273979145802e-14 5.638238824538908e-14 3.515460689438594e-19
1.3400274889804893 1.7070481300742254e-21 6.071960066851193e-14 6.071899030821155e-14 6.103603003856166e-19
1.3808389325824078 1.7818070617698436e-21 6.530901478656133e-14 6.530797402242261e-14 1.040764138745516e-18
1.4228933163050095 1.8583071704409462e-21 7.018741943447082e-14 7.018567563820228e-14 1.7437962685322438e-18
1.466228494730424 1.9378820492665934e-21 7.542206662245672e-14 7.541919429489442e-14 2.8723275622798406e-18
1.5108834753276823 2.0203750068542286e-21 8.10274910922683e-14 8.102283781993034e-14 4.653272337952973e-18
1.5568984535646726 2.105717824876846e-21 8.702216699976301e-14 8.701474487975124e-14 7.422120011758669e-18
1.6043148490894465 2.1944104831992817e-21 9.344948355347589e-14 9.343780591328402e-14 1.1677640191880845e-17
1.6531753430134553 2.2869791470274528e-21 1.0035766703003553e-13 1.0033956514537153e-13 1.810188466395259e-17
1.7035239163302658 2.384037002561939e-21 1.0780295362912725e-13 1.0777530107320849e-13 2.7652555918735423e-17
1.755405889504358 2.4873630217381295e-21 1.1590072637299335e-13 1.158590772435703e-13 4.1649129423077515e-17
1.8088679632656115 2.5969306210566547e-21 1.246914420049593e-13 1.2462957082618317e-13 6.187117877614388e-17
1.8639582606462262 2.7126582915365584e-21 1.342148919304616e-13 1.341242030463555e-13 9.068888410606276e-17
1.9207263702978936 2.8348367321890683e-21 1.4453165759269822e-13 1.444004482017423e-13 1.312093909559375e-16
1.979223391128241 2.9639153168223713e-21 1.5571485263485166e-13 1.5552740197942587e-13 1.874506554257878e-16
2.039501978296691 3.100262036177723e-21 1.6783864557966424e-13 1.6757411673935286e-13 2.6452884031140145e-16
2.1016163906111602 3.2451692584649657e-21 1.8103403575962885e-13 1.8066514283696737e-13 3.688929226614869e-16
2.1656225393682647 3.39919392288052e-21 1.9540160990577394e-13 1.9489308060202857e-13 5.085293037452882e-16
2.231578038680979 3.561838326209749e-21 2.1098700853305457e-13 2.1029381766255654e-13 6.931908704980312e-16
2.299542257339062 3.733093960089476e-21 2.2786611549681113e-13 2.2693148225571589e-13 9.346332410952115e-16
2.369576372248914 3.9132923732128616e-21 2.4614013828775824e-13 2.448932750186106e-13 1.24686326914771e-15
2.4417434235010123 4.102862259892061e-21 2.659233032926231e-13 2.642769861871689e-13 1.6463171054542413e-15
2.5161083711144245 4.3029432274986704e-21 2.873851954108327e-13 2.85233096136645e-13 2.1520992741877093e-15
2.5927381535095444 4.515600593979755e-21 3.1077323824672094e-13 3.0798712889588305e-13 2.7861093508379158e-15
2.6717017477616296 4.7425800444189235e-21 3.3633501050504797e-13 3.3276204015030617e-13 3.5729703547418075e-15
2.753070231689431 4.986576576909848e-21 3.64409102250897e-13 3.5986907561686164e-13 4.540026634035332e-15
2.836916847834745 5.2553558454808205e-21 3.9574748849946917e-13 3.9003004871195623e-13 5.7174397875131035e-15
2.9233170693905177 5.566261979417028e-21 4.319256527993856e-13 4.2478912282841e-13 7.136529970975684e-15
2.967498994190263 5.754094501818488e-21 4.532491556019907e-13 4.453177337621837e-13 7.931421839807016e-15
3.0123486681368425 5.954910382046698e-21 4.761567019494156e-13 4.673533210746403e-13 8.803380874775142e-15
3.0578761833420214 6.273455049000324e-21 5.092090574110787e-13 4.994476123839005e-13 9.761445027178328e-15
3.1040917844459814 6.6440584170290395e-21 5.47441137883688e-13 5.366388734921256e-13 1.0802264391562459e-14
3.127460860933648 6.978214593026552e-21 5.79302812623312e-13 5.679439656028625e-13 1.1358847020449445e-14
3.1510058709225794 7.399743607725719e-21 6.189211411476094e-13 6.069826436869134e-13 1.1938497460695938e-14
3.162844764501044 7.775734428356439e-21 6.528129021763294e-13 6.405746293685282e-13 1.2238272807801076e-14
3.1747281389236908 8.200426431104033e-21 6.910546778880697e-13 6.785106714465406e-13 1.2544006441529143e-14
3.1986289994194426 9.345856556935552e-21 7.935100186850756e-13 7.80334788918351e-13 1.31752297667246e-14
3.2227097969389145 1.1979465546636403e-20 1.0247739457036014e-12 1.0109303661034348e-12 1.3843579600166601e-14
3.2348180950136065 1.4443970675958276e-20 1.2402404594706736e-12 1.2260403400852725e-12 1.4200119385401272e-14
3.240889293275058 1.6283157133402195e-20 1.4007874526856643e-12 1.3863992672756814e-12 1.4388185409982733e-14
3.2469718861334385 1.8414018695453197e-20 1.5870716764325187e-12 1.5724888986112852e-12 1.4582777821233543e-14
3.2714166318528037 2.95899177782484e-20 2.5695025246419885e-12 2.5541160140177897e-12 1.5386510624199263e-14
3.2744851364798273 3.0289346124283947e-20 2.6327059472936554e-12 2.6172248358375903e-12 1.5481111456064713e-14
3.2775565192852394 3.100742492259565e-20 2.6976482664067305e-12 2.6820720920545854e-12 1.557617435214568e-14
3.283707930232385 3.032375220827708e-20 2.6431200793409402e-12 2.6273741383649328e-12 1.5745940976007358e-14
3.2898708863219004 2.8141687890552205e-20 2.457527742653506e-12 2.4416275220413157e-12 1.5900220612189304e-14
3.29141343181113 2.762604315895237e-20 2.4136292268500178e-12 2.3976902713804913e-12 1.593895546952672e-14
3.292184975758714 2.7372515079475134e-20 2.3920396016266282e-12 2.3760812539615437e-12 1.5958347665084776e-14
3.295272960557952 2.5790564593624654e-20 2.255909522171191e-12 2.2398757836113936e-12 1.6033738559797065e-14
3.3076538914384823 2.0269654761423714e-20 1.7796551021780517e-12 1.7633186665098998e-12 1.633643566815211e-14
3.310756385682612 1.913463080477033e-20 1.6815769493686134e-12 1.6651642388641626e-12 1.6412710504450543e-14
3.313861789986515 1.8082955252230023e-20 1.590644880942982e-12 1.574155655070634e-12 1.648922587234785e-14
3.3200813396944477 1.661557062155298e-20 1.4643113123040808e-12 1.4476574083976751e-12 1.6653903906405378e-14
3.345076488085796 1.4063560006944675e-20 1.2487363569374193e-12 1.2313483133399515e-12 1.738804359746774e-14
3.3482140837626964 1.4170373360098207e-20 1.25940074268197e-12 1.2419132371790062e-12 1.7487505502963663e-14
3.3513546224236106 1.4278141429658695e-20 1.2701689662347948e-12 1.2525815625521376e-12 1.758740368265703e-14
3.3576445397418455 1.5022538910058646e-20 1.3388979846331462e-12 1.3211016788633501e-12 1.7796305769796387e-14
3.3702598118196083 1.7711327833394708e-20 1.5844696929839589e-12 1.5662352269811402e-12 1.823446600281926e-14
3.382922481734668 1.8360868967684746e-20 1.6487496279289498e-12 1.6300896146329108e-12 1.8660013296039177e-14
3.389271646505754 1.8695587493640843e-20 1.6819571545679323e-12 1.6630815126526076e-12 1.887564191532462e-14
3.395632727569191 1.9063462401384273e-20 1.718272050796731e-12 1.6991741905816158e-12 1.9097860215114912e-14
3.421196662673239 2.0844296780329262e-20 1.8929307261033447e-12 1.8729133522180544e-12 2.0017373885289845e-14
3.4276182099114902 2.0531207446903967e-20 1.867997822363176e-12 1.847775612172246e-12 2.022221019092998e-14
3.4340518103208963 1.9092911984187452e-20 1.7403974838422414e-12 1.7199817134185892e-12 2.041577042365195e-14
3.4469541582030403 1.7031602073199075e-20 1.558333627246868e-12 1.5375467063003081e-12 2.0786920946560238e-14
3.472904465399547 1.6477361644086897e-20 1.5189726121564024e-12 1.4973301769875558e-12 2.1642435168846163e-14
3.4990501388274233 1.5629182896187932e-20 1.4516297900252471e-12 1.4291127181586985e-12 2.251707186654827e-14
3.5253949054701885 1.2569140123644503e-20 1.1762043290560374e-12 1.152838870362962e-12 2.3365458693075407e-14
3.5519380250092896 9.657426295072767e-21 9.105340997380197e-13 8.86317001864009e-13 2.4217097874010885e-14
3.578680990867387 8.537453049048539e-21 8.109998013248068e-13 7.858494295410035e-13 2.5150371783803352e-14
3.605625307711299 8.122752649619639e-21 7.774156067406448e-13 7.512829799995123e-13 2.6132626741132623e-14
3.660119384959845 7.89762933238701e-21 7.672933443841511e-13 7.391001015318189e-13 2.819324285233258e-14
3.715437065384467 7.764348866433337e-21 7.657453763632345e-13 7.353842766046227e-13 3.036109975861192e-14
3.8285932144167436 7.865636599102542e-21 7.993602275769053e-13 7.643555160382983e-13 3.500471153860713e-14
3.94519561050918 8.060001448907583e-21 8.440595619910107e-13 8.040148132972887e-13 4.0044748693722105e-14
4.06534921144712 8.287050756917056e-21 8.942671735194394e-13 8.487977264316879e-13 4.546944708775148e-14
4.189162171576248 8.528437741701555e-21 9.483444122636225e-13 8.970616092314889e-13 5.128280303213368e-14
4.316745939156006 8.775841171981038e-21 1.0055754843224603e-12 9.481195073265925e-13 5.745597699586776e-14
4.448215356677963 9.024780550015786e-21 1.0655942991246046e-12 1.0016993105937525e-12 6.389498853085234e-14
4.58368876423945 9.273867597111016e-21 1.1283541883134309e-12 1.0577534117165383e-12 7.060077659689294e-14
4.723288106065518 9.523624705397131e-21 1.1940324866424297e-12 1.1164238294984883e-12 7.760865714394131e-14
4.867139040275056 9.774426851576984e-21 1.2627997489363365e-12 1.1780805650967218e-12 8.471918383961432e-14
4.940699165968905 9.904970941319557e-21 1.299005679129927e-12 1.2106725447941788e-12 8.833313433574838e-14
5.015371051989984 1.0031810430320176e-20 1.3355243746899761e-12 1.2435507026447108e-12 9.197367204526544e-14
5.091171501069577 1.0170682585814141e-20 1.374476315736565e-12 1.2787547101063888e-12 9.57216056301767e-14
5.129500256944802 1.0238512524801144e-20 1.3940596429341873e-12 1.2964587059892949e-12 9.760093694489231e-14
5.168117569889187 1.0306708698614954e-20 1.413910174192737e-12 1.3144070044974425e-12 9.950316969529446e-14
5.20702561229733 1.038639119266949e-20 1.4355681777398971e-12 1.3339811498701308e-12 1.0158702786976607e-13
5.246226572918644 1.0465350873250941e-20 1.457371490540749e-12 1.3536918617832932e-12 1.0367962875745567e-13
5.265937586045735 1.050456064690339e-20 1.4683278398046611e-12 1.3635989449319088e-12 1.0472889487275214e-13
5.285722656980489 1.0543591152457504e-20 1.4793207939222285e-12 1.3735408245752358e-12 1.0577996934699244e-13
5.305582063971359 1.0582443131778932e-20 1.4903504832684696e-12 1.383517758785543e-12 1.068327244829265e-13
5.3255160863122235 1.0623359757666234e-20 1.5017340325037182e-12 1.3938380205132414e-12 1.0789601199047673e-13
5.365609099470188 1.0722027574574549e-20 1.5270926353194944e-12 1.4169962382574949e-12 1.1009639706199986e-13
5.406003951863644 1.0820925477014292e-20 1.5527809629658967e-12 1.4404757110091044e-12 1.1230525195679242e-13
5.446702915881641 1.0920122658634153e-20 1.5788127952863426e-12 1.4642912423689936e-12 1.1452155291734926e-13
5.487708281020852 1.1023938439956209e-20 1.6058213556141333e-12 1.4890669337813816e-12 1.1675442183275137e-13
5.529022354014368 1.1165958586999969e-20 1.6387541014213172e-12 1.519672270166473e-12 1.1908183125484414e-13
5.570647458961463 1.131128800678985e-20 1.6725810358501803e-12 1.5511633833109318e-12 1.2141765253924827e-13
5.612585937458331 1.1460266942540396e-20 1.7073681300070894e-12 1.5836072872462266e-12 1.2376084276086284e-13
5.654840148729818 1.1619633920848345e-20 1.7441434910128047e-12 1.6180206981472873e-12 1.2612279286551779e-13
5.67608639626678 1.172918735166573e-20 1.7672026483425026e-12 1.6398427002338384e-12 1.2735994810866442e-13
5.686739436050992 1.178496837002448e-20 1.7789395221903896e-12 1.6509601081701796e-12 1.279794140202099e-13
5.6974124697621304 1.1841443001585384e-20 1.7908191246217898e-12 1.6622196745360831e-12 1.285994500857069e-13
5.718818669136295 1.1956548150088437e-20 1.815020674891656e-12 1.6851795086676874e-12 1.2984116622396802e-13
5.740305295436557 1.2082591220801392e-20 1.841045434598394e-12 1.7099505696076342e-12 1.3109486499076e-13
5.7835210386641895 1.2410369038516188e-20 1.9052257773551475e-12 1.7715406079966422e-12 1.3368516935850488e-13
5.827062130521658 1.277851084291641e-20 1.9765114182874132e-12 1.840201441727483e-12 1.3630997655993022e-13
5.8489554468988025 1.3040891217119454e-20 2.0246735925200712e-12 1.886941585206766e-12 1.3773200731330544e-13
5.870931020387893 1.3317801801721477e-20 2.0754341481745042e-12 1.9362756894475376e-12 1.391584587269666e-13
5.892989160043636 1.361040190711155e-20 2.12900178287842e-12 1.9884125836685574e-12 1.4058919920986278e-13
5.915130176081913 1.3941447572825618e-20 2.188979073080433e-12 2.0469053080909673e-12 1.4207376498946523e-13
5.95966208400165 1.4874322107085595e-20 2.3530342613595136e-12 2.2075503463400235e-12 1.4548391501948985e-13
6.004529249263818 1.6209234814530624e-20 2.5835145480511257e-12 2.434177849691483e-12 1.4933669835964295e-13
6.027089341400364 1.7137209170389178e-20 2.7416824991621617e-12 2.590105989417857e-12 1.5157650974430492e-13
6.049734195844842 1.822259238456128e-20 2.9262800562240696e-12 2.7723280569042922e-12 1.5395199931977701e-13
6.095279466722835 2.1352931670291784e-20 3.4547813465897968e-12 3.2949437629625756e-12 1.5983758362722057e-13
6.141167624020661 2.6121732188188217e-20 4.258163738494023e-12 4.090629748529161e-12 1.6753398996486262e-13
6.164241091010745 2.915937500913854e-20 4.7711960305993155e-12 4.598803789159324e-12 1.7239224143999077e-13
6.187401249150058 3.257061427597264e-20 5.349382628780366e-12 5.172007042677111e-12 1.773755861032549e-13
6.1990139391386085 3.4226435509088566e-20 5.631884221321068e-12 5.45197396449334e-12 1.799102568277279e-13
6.204828454712694 3.5094537258063444e-20 5.78014498973691e-12 5.5989550655268705e-12 1.8118992421003887e-13
6.210648424152782 3.5721459710768456e-20 5.888918930428309e-12 5.706644928647444e-12 1.822740017808626e-13
6.233982942956859 3.78178144630427e-20 6.257941075571005e-12 6.0719137280052355e-12 1.8602734756576902e-13
6.239830258556775 3.806652666001683e-20 6.30500536865969e-12 6.1184769862554566e-12 1.8652838240423494e-13
6.245683058788269 3.8058254561222214e-20 6.309547898491526e-12 6.122517883160611e-12 1.8703001533091608e-13
6.257405133728602 3.7931858752531256e-20 6.300395779381404e-12 6.112499310534343e-12 1.878964688470621e-13
6.269149208991335 3.743307096576094e-20 6.229217529078146e-12 6.041058664220135e-12 1.8815886485801162e-13
6.280915325867298 3.628488571556353e-20 6.049481197677849e-12 5.861806153429519e-12 1.8767504424833053e-13
6.304513850009849 3.3496256261673454e-20 5.605538072704867e-12 5.419504747050777e-12 1.860333256540888e-13
6.32820103803542 3.0104949064605594e-20 5.056937631857781e-12 4.873263115685446e-12 1.8367451617233522e-13
6.3519772230701035 2.7013352064268745e-20 4.554669239496202e-12 4.373124274017678e-12 1.8154496547852455e-13
6.375842739491607 2.4404751274423382e-20 4.1302982707262475e-12 3.950647124618001e-12 1.7965114610824616e-13
6.399797922933955 2.2335487815810934e-20 3.794295373203326e-12 3.6156895219399556e-12 1.7860585126336969e-13
6.42384311029221 2.0606817319660278e-20 3.5137857701855153e-12 3.3360556125325724e-12 1.7773015765294205e-13
6.447978639727206 1.9350585238651356e-20 3.3119755917307135e-12 3.1344609707293425e-12 1.775146210013713e-13
6.472204850670314 1.829847769280415e-20 3.1436678135874937e-12 2.966238211556649e-12 1.774296020308437e-13
