Dust emission spectrum from A.P. Jones, M. Kohler, N. Ysard, M. Bocchio, and L. Verstraete (2017), A&A, 602A, 46J 
inside the DustPedia framework.

lambda    nu*dP/dnu     j_nu    j_nu(carb.) j_nu(sil)
 (um)   (erg s-1 H-1) (Jy cm2 sr-1 H-1)
0.9927057738263894 2.760828871599528e-25 7.274940888614113e-18 7.274940884518974e-18 4.09514030089388e-27
1.0001793341362166 2.8064135061685375e-25 7.450732504421547e-18 7.450732499489845e-18 4.931703721716674e-27
1.0077091589558085 2.8519397404899606e-25 7.628602463320013e-18 7.628602457388574e-18 5.9314384864849635e-27
1.0114953028030835 2.8746754645104263e-25 7.718308364189105e-18 7.718308357687372e-18 6.501732581209139e-27
1.0152956718711033 2.8973900151785403e-25 7.808523596367927e-18 7.808523589243396e-18 7.124531547589499e-27
1.0229392996569957 2.942724603074593e-25 7.99040729399123e-18 7.990407285444692e-18 8.546538927832975e-27
1.0267826658714554 2.9652897158708704e-25 8.081930152010636e-18 8.081930142654219e-18 9.356415913351542e-27
1.0306404723013447 2.987823870116742e-25 8.173943254934901e-18 8.173943244695216e-18 1.0239686398224354e-26
1.03451277320114 3.0103249399717417e-25 8.26644283883129e-18 8.266442827628618e-18 1.1202672642273235e-26
1.0383996230291617 3.032790811980569e-25 8.359425093639304e-18 8.359425081387094e-18 1.2252211001511095e-26
1.0403485208654093 3.0440098918276456e-25 8.406096019623666e-18 8.406096006811941e-18 1.2811723732274689e-26
1.0423010764483396 3.0552193854916876e-25 8.452886164168384e-18 8.452886150772695e-18 1.3395691056697814e-26
1.0462171883269815 3.077608573067116e-25 8.546822151098364e-18 8.546822136457267e-18 1.4641097498901514e-26
1.0471985131304309 3.083199472577541e-25 8.570379892446243e-18 8.570379877476872e-18 1.496937107302983e-26
1.048180758391296 3.088787748516501e-25 8.59396700785617e-18 8.593966992551473e-18 1.5304692023250124e-26
1.0501480137395462 3.0999563008833235e-25 8.641229111982149e-18 8.641229095985094e-18 1.599705494916004e-26
1.0521189612883777 3.1111139731312253e-25 8.688607964096687e-18 8.688607947377316e-18 1.671937220804457e-26
1.0531058218030118 3.1166801089285587e-25 8.712317140742582e-18 8.712317123650408e-18 1.7092171288885153e-26
1.0540936079674168 3.1222154484315226e-25 8.735976982172844e-18 8.735976964699836e-18 1.7473007392310666e-26
1.058054026499678 3.1443268551508086e-25 8.830899905964114e-18 8.830899886884893e-18 1.9079223085896853e-26
1.0590464539527713 3.1498470613891564e-25 8.854701205763872e-18 8.854701186261533e-18 1.9502342610878683e-26
1.06003981227728 3.155364146614375e-25 8.878530604315126e-18 8.878530584380686e-18 1.9934438908398994e-26
1.0620293250338977 3.166388828839345e-25 8.92627343891287e-18 8.926273418086582e-18 2.0826289833340927e-26
1.0660195594769086 3.188399367538424e-25 9.02209343863876e-18 9.022093415912839e-18 2.2725917923787045e-26
1.070024785945596 3.2103564851657004e-25 9.118355725831638e-18 9.118355701040904e-18 2.4790734034835437e-26
1.0740450607676866 3.2322582118568297e-25 9.2150560852675e-18 9.215056058233154e-18 2.703434812262042e-26
1.07808044048254 3.254102594298172e-25 9.312190266824247e-18 9.312190237352823e-18 2.947142481151002e-26
1.0861967418109137 3.2975731136043916e-25 9.507631968787216e-18 9.507631933796853e-18 3.499036433224823e-26
1.0902777775684922 3.3191079170357856e-25 9.605676724134869e-18 9.605676686027315e-18 3.81075523359449e-26
1.0943741465085532 3.3405762067406283e-25 9.70413079187889e-18 9.70413075038988e-18 4.14890116091601e-26
1.1026131145906286 3.3833058440833317e-25 9.902249065327615e-18 9.90224901619653e-18 4.913108426138046e-26
1.1109141095355224 3.4257474121589154e-25 1.0101950917890049e-17 1.0101950859784174e-17 5.810587806900111e-26
1.1192775983109025 3.467847356609239e-25 1.0303083457626461e-17 1.0303083388994527e-17 6.86319342158435e-26
1.1277040513999907 3.5094114001491616e-25 1.050506771703978e-17 1.0505067636078569e-17 8.09612139263811e-26
1.1361939428280308 3.550639808325625e-25 1.0708497031505892e-17 1.07084969361221e-17 9.538378945881131e-26
1.1447477501889525 3.5915193430127212e-25 1.0913333864467815e-17 1.091333375223463e-17 1.1223318553330334e-25
1.1533659546722406 3.6320591303870205e-25 1.111960783790219e-17 1.1119607706009632e-17 1.3189255817383038e-25
1.1707974979042381 3.7122504630147203e-25 1.1536883012554633e-17 1.153688283109055e-17 1.8146408348431281e-25
1.1884924949847024 3.7909170774962476e-25 1.1959421195265278e-17 1.1959420946837564e-17 2.484277088691784e-25
1.2064549276569216 3.8686722531095795e-25 1.238917744729689e-17 1.2389177108859231e-17 3.3843766115606364e-25
1.2246888378427687 3.94467916592223e-25 1.2823508941937355e-17 1.282350848311814e-17 4.588192141493975e-25
1.2431983285522175 4.018764773292713e-25 1.3261798879662018e-17 1.3261798260632299e-17 6.190297202147041e-25
1.2619875648066055 4.090907333060211e-25 1.3703899045602105e-17 1.370389821438534e-17 8.312167685537972e-25
1.3004222497298317 4.228196527027817e-25 1.459516434834315e-17 1.4595162870571914e-17 1.4777712336240102e-24
1.3400274889804893 4.356056348053084e-25 1.5494466575574464e-17 1.549446399615317e-17 2.579421288178079e-24
1.3808389325824078 4.474064622150469e-25 1.63988996807444e-17 1.6398895258317305e-17 4.422427094210813e-24
1.4228933163050095 4.582827732863607e-25 1.7309132601909884e-17 1.7309125150547505e-17 7.451362380729705e-24
1.466228494730424 4.684935151434187e-25 1.823369442155087e-17 1.823368207733781e-17 1.2344213059692235e-23
1.5108834753276823 4.778531024952113e-25 1.916438179767936e-17 1.916436168200457e-17 2.011567480024874e-23
1.5568984535646726 4.86212480734397e-25 2.0093510723979527e-17 2.009347844630254e-17 3.227767699135854e-23
1.6043148490894465 4.93591963836228e-25 2.101972919824618e-17 2.10196781047219e-17 5.1093524281018036e-23
1.6531753430134553 5.000186799288242e-25 2.1941917683997346e-17 2.194183799039094e-17 7.969360640214407e-23
1.7035239163302658 5.055676274855244e-25 2.2861089590321428e-17 2.2860967078239497e-17 1.225120819309445e-22
1.755405889504358 5.106434897601491e-25 2.3793853516196712e-17 2.379366780007255e-17 1.8571612415772414e-22
1.8088679632656115 5.151546164077385e-25 2.4735112849975214e-17 2.4734835141171163e-17 2.777088040552228e-22
1.8639582606462262 5.190400472243637e-25 2.568067790298047e-17 2.5680268103222034e-17 4.097997584374309e-22
1.9207263702978936 5.223537685903201e-25 2.663174748898253e-17 2.6631150508946522e-17 5.969800360045156e-22
1.979223391128241 5.252136431109336e-25 2.7593084247262898e-17 2.7592225388365085e-17 8.588588978078037e-22
2.039501978296691 5.277585641886894e-25 2.8571224487754924e-17 2.8570003776158406e-17 1.2207115965164606e-21
2.1016163906111602 5.3037070793134165e-25 2.958710072057054e-17 2.958538592115587e-17 1.7147994146637193e-21
2.1656225393682647 5.332726168037289e-25 3.065501121919256e-17 3.065262959840453e-17 2.381620788025032e-21
2.231578038680979 5.364808893079762e-25 3.177867370827351e-17 3.177540236079514e-17 3.2713474783759136e-21
2.299542257339062 5.401280174372141e-25 3.2969133517727454e-17 3.2964688136288936e-17 4.445381438520314e-21
2.369576372248914 5.445029924233953e-25 3.4248410052519874e-17 3.4242431983819975e-17 5.9780686998909476e-21
2.4417434235010123 5.4994617631605525e-25 3.5644263583676864e-17 3.5636305401491964e-17 7.958182184898064e-21
2.5161083711144245 5.570401789608494e-25 3.7203628358212724e-17 3.719313754711542e-17 1.0490811097293367e-20
2.5927381535095444 5.667367167585978e-25 3.9004026382492266e-17 3.899032754004861e-17 1.3698842443654598e-20
2.6717017477616296 5.801635493112988e-25 4.114412653548991e-17 4.1126402981892857e-17 1.772355359706017e-20
2.753070231689431 5.990160762125565e-25 4.377490392451642e-17 4.375217823824777e-17 2.2725686268647275e-20
2.836916847834745 6.2714519434419895e-25 4.722632356087789e-17 4.7197436480362626e-17 2.888708051525277e-20
2.9233170693905177 6.730297893628985e-25 5.2225143588094064e-17 5.21887390485493e-17 3.640453954476762e-20
2.967498994190263 7.109992765572312e-25 5.600530572296762e-17 5.596463624412824e-17 4.066947883936119e-20
3.0123486681368425 7.5510872345766705e-25 6.037875573389553e-17 6.033338218895819e-17 4.537354493733469e-20
3.0578761833420214 8.519418288631913e-25 6.915112840628785e-17 6.910055988403703e-17 5.0568522250814945e-20
3.1040917844459814 9.762051853306253e-25 8.043500582349231e-17 8.03787550890921e-17 5.625073440020989e-20
3.127460860933648 1.1068082966668971e-24 9.188269445521061e-17 9.182338983116544e-17 5.930462404517605e-20
3.1510058709225794 1.2804965994508331e-24 1.0710187522447452e-16 1.0703937890757145e-16 6.249631690310701e-20
3.162844764501044 1.4419100272070098e-24 1.2105576369808204e-16 1.2099161241597584e-16 6.415128210621963e-20
3.1747281389236908 1.6294597313733017e-24 1.3731551392555535e-16 1.3724967174164693e-16 6.584218390842936e-20
3.1986289994194426 2.152067451106356e-24 1.8272130252969423e-16 1.8265195994948175e-16 6.934258021245037e-20
3.2227097969389145 3.382968220887281e-24 2.893933521835583e-16 2.893202915769082e-16 7.306060665013258e-20
3.2348180950136065 4.5497872670525334e-24 3.9067029262081256e-16 3.9059524556069605e-16 7.504706011655266e-20
3.240889293275058 5.422082551186816e-24 4.664442615706328e-16 4.663681666491086e-16 7.609492152440395e-20
3.2469718861334385 6.431245657612571e-24 5.542976791859575e-16 5.542204999745226e-16 7.717921143494804e-20
3.2714166318528037 1.181194305314447e-23 1.0257148304174425e-15 1.0256331630638455e-15 8.166735359718476e-20
3.2744851364798273 1.2148364926276945e-23 1.0559182248460985e-15 1.0558360265377545e-15 8.219830834382208e-20
3.2775565192852394 1.2494431981269989e-23 1.0870165084056353e-15 1.086933776295712e-15 8.273210992329758e-20
3.283707930232385 1.2161918700858189e-23 1.0600736775832128e-15 1.0599899867612506e-15 8.369082196216366e-20
3.2898708863219004 1.1106915940381606e-23 9.699330816603923e-16 9.698485145673958e-16 8.456709299665478e-20
3.29141343181113 1.0858105225701752e-23 9.486497928847979e-16 9.485650056536309e-16 8.47872311669737e-20
3.292184975758714 1.0735846247367302e-23 9.381881535589473e-16 9.38103256097831e-16 8.489746111642273e-20
3.295272960557952 9.964336378483015e-24 8.715839173173155e-16 8.714985903690546e-16 8.532694826107829e-20
3.3076538914384823 7.291028020527656e-24 6.401448554293875e-16 6.400578014740064e-16 8.705395538127605e-20
3.310756385682612 6.746787246606837e-24 5.929166876509467e-16 5.928291979774971e-16 8.748967344979789e-20
3.313861789986515 6.244580040020867e-24 5.492967900295483e-16 5.492088630461339e-16 8.792698341439175e-20
3.3200813396944477 5.540403827837207e-24 4.882694783476886e-16 4.881806124870839e-16 8.886586060469704e-20
3.345076488085796 4.285206555921082e-24 3.804935038299572e-16 3.804004582409364e-16 9.304558902078201e-20
3.3482140837626964 4.332466414530686e-24 3.8505064626376385e-16 3.8495703461856844e-16 9.361164519555528e-20
3.3513546224236106 4.3802460360265214e-24 3.896622404843945e-16 3.895680600143477e-16 9.41804700467459e-20
3.3576445397418455 4.728687966377791e-24 4.2144878612383096e-16 4.2135341703021377e-16 9.536909361728653e-20
3.3702598118196083 6.013050641403838e-24 5.37932366974657e-16 5.378345042051054e-16 9.78627695516172e-20
3.382922481734668 6.306212618351236e-24 5.66278520174992e-16 5.661782260525024e-16 1.0029412248969104e-19
3.389271646505754 6.458069607653861e-24 5.810032118533755e-16 5.8090168385503e-16 1.0152799834567128e-19
3.395632727569191 6.621795118926752e-24 5.968509413131504e-16 5.967481416608501e-16 1.0279965230035993e-19
3.421196662673239 7.40811778308708e-24 6.727525481901441e-16 6.726444758849679e-16 1.0807230517624073e-19
3.4276182099114902 7.250463135911632e-24 6.596713507490168e-16 6.59562093524457e-16 1.0925722455974785e-19
3.4340518103208963 6.558323972090974e-24 5.978182138325682e-16 5.977078318817603e-16 1.1038195080812629e-19
3.4469541582030403 5.572445915572233e-24 5.09859836962454e-16 5.097472880686153e-16 1.1254889383863718e-19
3.472904465399547 5.296783339152494e-24 4.88286231648394e-16 4.881687024107279e-16 1.1752923766604864e-19
3.4990501388274233 4.874933379478018e-24 4.527810932307138e-16 4.526584484034943e-16 1.226448272194257e-19
3.5253949054701885 3.372027367025935e-24 3.155500812128199e-16 3.1542243638639934e-16 1.2764482642060879e-19
3.5519380250092896 1.9588613333688044e-24 1.8468792680308444e-16 1.8455523179730973e-16 1.3269500577468144e-19
3.578680990867387 1.3990929647995318e-24 1.3290428772710013e-16 1.3276605308162585e-16 1.3823464547424414e-19
3.605625307711299 1.173311824140924e-24 1.1229578974108024e-16 1.1215170519571548e-16 1.4408454536472248e-19
3.660119384959845 1.0099194098699767e-24 9.81186136933313e-17 9.796216999828475e-17 1.5644369504653498e-19
3.715437065384467 8.946912298848706e-25 8.82373634083998e-17 8.806778932019242e-17 1.695740882073608e-19
3.8285932144167436 8.392408089228595e-25 8.528943786812461e-17 8.509128500320567e-17 1.9815286491894964e-19
3.94519561050918 8.318892645967292e-25 8.711711688286451e-17 8.688725093342769e-17 2.29865949436829e-19
4.06534921144712 8.443287998265893e-25 9.111269515415398e-17 9.084787354724063e-17 2.648216069134028e-19
4.189162171576248 8.682589831121313e-25 9.654858017029999e-17 9.624534592872974e-17 3.0323424157023597e-19
4.316745939156006 9.005761207303758e-25 1.0319207595324595e-16 1.0284693738544736e-16 3.4513856779857214e-19
4.448215356677963 9.40229664393571e-25 1.1101692331387238e-16 1.1062675866049301e-16 3.901646533793739e-19
4.58368876423945 9.873358083974886e-25 1.2012943715351138e-16 1.1969089383633734e-16 4.385433171740384e-19
4.723288106065518 1.0428744429519713e-24 1.3075126360954765e-16 1.3026051151884777e-16 4.907520906998595e-19
4.867139040275056 1.1087999861083898e-24 1.432505829078238e-16 1.4270480971164893e-16 5.457731961748646e-19
4.940699165968905 1.1481450634158069e-24 1.5057560155178305e-16 1.5000105149209972e-16 5.745500596833665e-19
5.015371051989984 1.1887933300776468e-24 1.5826280608224088e-16 1.5765868100603108e-16 6.041250762097896e-19
5.091171501069577 1.2379597969185307e-24 1.672991371367592e-16 1.6666405044348753e-16 6.350866932716355e-19
5.129500256944802 1.263151787024401e-24 1.7198874591649898e-16 1.713378822129335e-16 6.508637035655247e-19
5.168117569889187 1.2893668054085313e-24 1.768798263094887e-16 1.762128626339835e-16 6.669636755052322e-19
5.20702561229733 1.3213431336418836e-24 1.8263111020410853e-16 1.8194672330206863e-16 6.843869020399688e-19
5.246226572918644 1.3540938276369226e-24 1.8856680142079463e-16 1.878647369735237e-16 7.020644472709716e-19
5.265937586045735 1.370767214955939e-24 1.9160588731568072e-16 1.9089488923858742e-16 7.109980770933275e-19
5.285722656980489 1.3876435130139736e-24 1.9469361754172357e-16 1.9397362288405874e-16 7.199946576648326e-19
5.305582063971359 1.4047259721845587e-24 1.9783087945147313e-16 1.971018254867175e-16 7.290539647556696e-19
5.3255160863122235 1.4230457061819603e-24 2.0116387052029998e-16 2.0042563657666955e-16 7.382339436305363e-19
5.365609099470188 1.4684755700367641e-24 2.0914870928586672e-16 2.0839147448463907e-16 7.572348012276709e-19
5.406003951863644 1.5155694785795874e-24 2.1748116086646123e-16 2.1670464758646337e-16 7.765132799978614e-19
5.446702915881641 1.5644076378960498e-24 2.2617940044850127e-16 2.2538333244450183e-16 7.96068003999477e-19
5.487708281020852 1.6170875630333359e-24 2.3555590016767744e-16 2.347399338993046e-16 8.15966268372792e-19
5.529022354014368 1.6900340599522868e-24 2.4803515306898907e-16 2.4719840783760165e-16 8.367452313874796e-19
5.570647458961463 1.7671679160812497e-24 2.6130813235646887e-16 2.6045030150728947e-16 8.578308491793931e-19
5.612585937458331 1.8487901672621265e-24 2.7543559207479643e-16 2.7455636991741113e-16 8.792221573852834e-19
5.654840148729818 1.938381727799832e-24 2.9095717616148445e-16 2.9005617093386406e-16 9.010052276203322e-19
5.67608639626678 1.9993036467101163e-24 3.0122928327214193e-16 3.0031689220751496e-16 9.123910646270277e-19
5.686739436050992 2.0306886911461243e-24 3.065322075138849e-16 3.0561409117066993e-16 9.181163432149054e-19
5.6974124697621304 2.062709421597855e-24 3.119501128570587e-16 3.1102624966866854e-16 9.238631883902626e-19
5.718818669136295 2.1287190938096197e-24 3.231425255685113e-16 3.222071040124808e-16 9.35421556030485e-19
5.740305295436557 2.2014367289427914e-24 3.354367424431109e-16 3.344896021471071e-16 9.471402960039118e-19
5.7835210386641895 2.389918883195196e-24 3.6689763599453123e-16 3.659262166438384e-16 9.714193506927753e-19
5.827062130521658 2.6067624359050638e-24 4.032000115400906e-16 4.0220375311971347e-16 9.96258420377101e-19
5.8489554468988025 2.758850667630041e-24 4.28327481569985e-16 4.273178700110002e-16 1.0096115589848888e-18
5.870931020387893 2.92193283529431e-24 4.553513616832985e-16 4.543282796567185e-16 1.0230820265798334e-18
5.892989160043636 3.0968920354230897e-24 4.844301226220724e-16 4.833934525181839e-16 1.0366701038885568e-18
5.915130176081913 3.2957907880050317e-24 5.1747976861861e-16 5.16429026969838e-16 1.0507416487718716e-18
5.95966208400165 3.8518300082708476e-24 6.093378853263154e-16 6.082554550681759e-16 1.0824302581395144e-18
6.004529249263818 4.6527991712178865e-24 7.415880197642576e-16 7.40470116541626e-16 1.117903222631541e-18
6.027089341400364 5.2094806650846995e-24 8.334345357623962e-16 8.322963257514165e-16 1.1382100109797855e-18
6.049734195844842 5.867011103269344e-24 9.421556065583696e-16 9.409959185463848e-16 1.1596880119846591e-18
6.095279466722835 7.766104950178846e-24 1.2565110464370221e-15 1.2552992306701305e-15 1.211815766891624e-18
6.141167624020661 1.0687584960972975e-23 1.7422078446033441e-15 1.740929193115868e-15 1.2786514874758023e-18
6.164241091010745 1.2553362991639776e-23 2.054041132829943e-15 2.0527209345795495e-15 1.3201982503933007e-18
6.187401249150058 1.467765824445926e-23 2.410651803457292e-15 2.4092888262915242e-15 1.3629771657685577e-18
6.1990139391386085 1.57148939953627e-23 2.585851030520392e-15 2.584466261115131e-15 1.384769405261211e-18
6.204828454712694 1.6261174009848214e-23 2.6782499734675455e-15 2.676854184718674e-15 1.3957887488707271e-18
6.210648424152782 1.6659982530387958e-23 2.746508325756657e-15 2.7451030518774075e-15 1.4052738792501667e-18
6.233982942956859 1.801463476747764e-23 2.9809898978423818e-15 2.9795511395781604e-15 1.4387582642215289e-18
6.239830258556775 1.8187670278197001e-23 3.0124460729402848e-15 3.011002358682446e-15 1.443714257838728e-18
6.245683058788269 1.8202505617334912e-23 3.017731169998444e-15 3.016282487174232e-15 1.4486828242110566e-18
6.257405133728602 1.816490267045255e-23 3.0171491691046124e-15 3.015691606754397e-15 1.4575623502158319e-18
6.269149208991335 1.7898024601150648e-23 2.9784008018828377e-15 2.97693909797961e-15 1.4617039032277454e-18
6.280915325867298 1.7229336865659715e-23 2.872505930825074e-15 2.871045958878834e-15 1.4599719462393684e-18
6.304513850009849 1.558053675458812e-23 2.6073747253645444e-15 2.605923547398939e-15 1.451177965605002e-18
6.32820103803542 1.3537435794077797e-23 2.2739772241108556e-15 2.2725405114547194e-15 1.436712656137113e-18
6.3519772230701035 1.1663945554476436e-23 1.96663538466974e-15 1.9652113404394196e-15 1.424044230320215e-18
6.375842739491607 1.0087497314272977e-23 1.7072238206648865e-15 1.7058106157909631e-15 1.4132048739236043e-18
6.399797922933955 8.824620061089345e-24 1.4991038182907435e-15 1.4976946576261085e-15 1.4091606646343536e-18
6.42384311029221 7.774403340124192e-24 1.3256577861807088e-15 1.3242513178496217e-15 1.4064683310872789e-18
6.447978639727206 7.009380400912052e-24 1.1996999839884085e-15 1.1982908699213837e-15 1.4091140670252893e-18
6.472204850670314 6.371976738285706e-24 1.0947018936419123e-15 1.0932890537599673e-15 1.412839881944914e-18
6.496522083828205 5.957933512474386e-24 1.0274152425405432e-15 1.0259943155004375e-15 1.4209270401056755e-18
