Dust emission spectrum from A.P. Jones, M. Kohler, N. Ysard, M. Bocchio, and L. Verstraete (2017), A&A, 602A, 46J 
inside the DustPedia framework.

lambda    nu*dP/dnu     j_nu    j_nu(carb.) j_nu(sil)
 (um)   (erg s-1 H-1) (Jy cm2 sr-1 H-1)
0.9927057738263894 9.525573653599625e-25 2.510042761901733e-17 2.510042761901709e-17 2.480136642423214e-31
1.0001793341362166 9.682974589214623e-25 2.570727847224686e-17 2.570727847224656e-17 2.988508279074298e-31
1.0077091589558085 9.840151885318333e-25 2.6321245798442477e-17 2.6321245798442113e-17 3.596525297194101e-31
1.0114953028030835 9.918637312197452e-25 2.6630867474680146e-17 2.6630867474679755e-17 3.9435773846851153e-31
1.0152956718711033 9.99704366272322e-25 2.694223108568435e-17 2.6942231085683915e-17 4.322741055517615e-31
1.0229392996569957 1.0153511589078227e-24 2.756992379654856e-17 2.7569923796548037e-17 5.189032749865074e-31
1.0267826658714554 1.0231383437512287e-24 2.788574952991664e-17 2.7885749529916076e-17 5.682727271123278e-31
1.0306404723013447 1.0309141781300975e-24 2.820324878257973e-17 2.82032487825791e-17 6.221401868391707e-31
1.03451277320114 1.038677911681179e-24 2.85224078997589e-17 2.8522407899758207e-17 6.80895746429274e-31
1.0383996230291617 1.0464287981984428e-24 2.8843213055813396e-17 2.884321305581265e-17 7.4496148412745135e-31
1.0403485208654093 1.0502991918020278e-24 2.900422853199084e-17 2.900422853199006e-17 7.791269171356552e-31
1.0423010764483396 1.0541660957761756e-24 2.916565025751105e-17 2.9165650257510234e-17 8.147939237951719e-31
1.0462171883269815 1.0618890669489275e-24 2.9489705347302925e-17 2.948970534730204e-17 8.908866700914176e-31
1.0471985131304309 1.0638174852534841e-24 2.9570970240297666e-17 2.9570970240296754e-17 9.109496309390792e-31
1.048180758391296 1.0657449509233428e-24 2.965233513187632e-17 2.96523351318754e-17 9.314457394570025e-31
1.0501480137395462 1.0695969788282876e-24 2.981536400660065e-17 2.981536400659967e-17 9.737732306649942e-31
1.0521189612883777 1.0734450597897954e-24 2.9978790157027994e-17 2.9978790157026977e-17 1.0179425626636847e-30
1.0531058218030118 1.0753646380029691e-24 3.006056906957488e-17 3.0060569069573843e-17 1.0407431035906836e-30
1.0540936079674168 1.0772735177916673e-24 3.0142175677402746e-17 3.0142175677401686e-17 1.0640378853077003e-30
1.058054026499678 1.0848982048734077e-24 3.046956597308872e-17 3.046956597308755e-17 1.1623161708723863e-30
1.0590464539527713 1.0868016128621124e-24 3.055165334786816e-17 3.055165334786697e-17 1.1882130755606515e-30
1.06003981227728 1.0887038931037585e-24 3.063383617491569e-17 3.063383617491448e-17 1.2146626450109952e-30
1.0620293250338977 1.0925050260412303e-24 3.079848724518552e-17 3.079848724518423e-17 1.2692649266257793e-30
1.0660195594769086 1.100093272764138e-24 3.112892443507976e-17 3.1128924435078373e-17 1.385610416754047e-30
1.070024785945596 1.1076622418611347e-24 3.146086234358076e-17 3.146086234357925e-17 1.5121362607051875e-30
1.0740450607676866 1.1152112356168736e-24 3.1794285634210826e-17 3.1794285634209174e-17 1.6496876670490252e-30
1.07808044048254 1.1227395618941365e-24 3.2129178836489684e-17 3.2129178836487885e-17 1.7991759561969927e-30
1.0861967418109137 1.1377181706032673e-24 3.2802928934831935e-17 3.2802928934829797e-17 2.137968626126879e-30
1.0902777775684922 1.1451368499209165e-24 3.3140875982900064e-17 3.314087598289774e-17 2.3294720969920606e-30
1.0943741465085532 1.1525316221321238e-24 3.348020494302362e-17 3.348020494302108e-17 2.5373206173793133e-30
1.1026131145906286 1.1672468162007327e-24 3.4162943663350504e-17 3.41629436633475e-17 3.0074378417191958e-30
1.1109141095355224 1.181858558220762e-24 3.485101413098755e-17 3.4851014130983996e-17 3.560137381941213e-30
1.1192775983109025 1.1963481936517293e-24 3.55438807307439e-17 3.554388073073969e-17 4.209081460348019e-30
1.1277040513999907 1.2106484334451836e-24 3.623953513779896e-17 3.623953513779399e-17 4.970044578832233e-30
1.1361939428280308 1.2248283336608142e-24 3.694002006161329e-17 3.694002006160744e-17 5.8612128705725585e-30
1.1447477501889525 1.2388831643705472e-24 3.764519775773418e-17 3.764519775772727e-17 6.903527884171452e-30
1.1533659546722406 1.2528159629452988e-24 3.8355163561258155e-17 3.835516356125003e-17 8.121083283110613e-30
1.1707974979042381 1.2803604386467122e-24 3.979087279195708e-17 3.979087279194589e-17 1.119676125870582e-29
1.1884924949847024 1.3073574384423218e-24 4.1243946885330673e-17 4.1243946885315315e-17 1.5361565226562527e-29
1.2064549276569216 1.334017986494248e-24 4.2721079665713446e-17 4.272107966569248e-17 2.0973567767461385e-29
1.2246888378427687 1.3600509678404737e-24 4.421303993049941e-17 4.421303993047091e-17 2.849814823477035e-29
1.2431983285522175 1.3853954630539183e-24 4.57176198067542e-17 4.571761980671567e-17 3.8538113760062187e-29
1.2619875648066055 1.4100419639443778e-24 4.723419806603543e-17 4.723419806598355e-17 5.187028845378627e-29
1.3004222497298317 1.4568312858179726e-24 5.028785182619658e-17 5.0287851826103916e-17 9.26669493518218e-29
1.3400274889804893 1.5002355903814812e-24 5.336329090656153e-17 5.336329090639896e-17 1.6256733471793544e-28
1.3808389325824078 1.5400936635937686e-24 5.64494338396146e-17 5.64494338393344e-17 2.8018374604285123e-28
1.4228933163050095 1.5765990303977778e-24 5.95474306867425e-17 5.954743068626785e-17 4.746419649148927e-28
1.466228494730424 1.6106293925267782e-24 6.26854443453953e-17 6.268544434460457e-17 7.907133771826938e-28
1.5108834753276823 1.641523246759939e-24 6.58335753527706e-17 6.583357535147467e-17 1.295965406815111e-27
1.5568984535646726 1.6687452371028413e-24 6.89635738405338e-17 6.896357383844191e-17 2.0918874143747732e-27
1.6043148490894465 1.6923446767199327e-24 7.206889378480507e-17 7.206889378147355e-17 3.3315190862373525e-27
1.6531753430134553 1.7123928846729617e-24 7.514356008360583e-17 7.514356007837683e-17 5.229011716322006e-27
1.7035239163302658 1.7291274770829066e-24 7.818882384396858e-17 7.818882383587801e-17 8.090572229937776e-27
1.755405889504358 1.7439231627181783e-24 8.12595345075465e-17 8.125953449520004e-17 1.234646741005635e-26
1.8088679632656115 1.756440126723505e-24 8.433534974739291e-17 8.433534972880337e-17 1.8589562051257854e-26
1.8639582606462262 1.7664480870498462e-24 8.739900629720378e-17 8.739900626957659e-17 2.7627184141303854e-26
1.9207263702978936 1.7741135193913993e-24 9.045161747895434e-17 9.045161743841129e-17 4.0543015135093807e-26
1.979223391128241 1.7798243282371267e-24 9.350641073122719e-17 9.350641067245353e-17 5.877366473743959e-26
2.039501978296691 1.7840448306961306e-24 9.65826967344366e-17 9.658269665023875e-17 8.419791440819043e-26
2.1016163906111602 1.7880760845900136e-24 9.974907441090572e-17 9.974907429165473e-17 1.1925096514896267e-25
2.1656225393682647 1.792672436017331e-24 1.0305121978290985e-16 1.0305121961586742e-16 1.6704237652750973e-25
2.231578038680979 1.7978877149866676e-24 1.0649864365601977e-16 1.0649864342452292e-16 2.3149687250225404e-25
2.299542257339062 1.80417353431906e-24 1.1012581503241436e-16 1.1012581471489759e-16 3.1751680012168337e-25
2.369576372248914 1.8125287446757238e-24 1.1400530124426563e-16 1.1400530081309317e-16 4.311725069917291e-25
2.4417434235010123 1.8241328422933673e-24 1.1822951889200767e-16 1.1822951831211067e-16 5.7989700099312995e-25
2.5161083711144245 1.8410059487558093e-24 1.2295720077237698e-16 1.2295719999964044e-16 7.727365198108043e-25
2.5927381535095444 1.866453973093757e-24 1.2845333265969657e-16 1.284533316390903e-16 1.0206062450157486e-24
2.6717017477616296 1.9044238220995434e-24 1.3505821730213783e-16 1.3505821596562013e-16 1.3365177184032767e-24
2.753070231689431 1.9608580347190303e-24 1.4329560672589228e-16 1.4329560498999802e-16 1.7358942870351642e-24
2.836916847834745 2.0492202203052517e-24 1.5431376664350978e-16 1.543137644065145e-16 2.2369952834711504e-24
2.9233170693905177 2.1991632143870993e-24 1.7064863466703497e-16 1.706486318061365e-16 2.8608984157294614e-24
2.967498994190263 2.3265034371534187e-24 1.832583246697918e-16 1.8325832144789449e-16 3.2218973464264254e-24
3.0123486681368425 2.4752221577530782e-24 1.9791962323751049e-16 1.9791961961322127e-16 3.624289226856939e-24
3.0578761833420214 2.8079957792550542e-24 2.279217548863447e-16 2.2792175081288566e-16 4.073459051319057e-24
3.1040917844459814 3.2368100233042127e-24 2.666988835813602e-16 2.666988790102649e-16 4.571095293286528e-24
3.127460860933648 3.690446488957409e-24 3.063657619565438e-16 3.063657571152733e-16 4.8412704901222976e-24
3.1510058709225794 4.2948541558658115e-24 3.592254240316848e-16 3.5922541890599065e-16 5.125694267884736e-24
3.162844764501044 4.8574710349769516e-24 4.0780967930395516e-16 4.0780967402973335e-16 5.274221814140978e-24
3.1747281389236908 5.511746283315974e-24 4.644780468940671e-16 4.644780414675129e-16 5.426554279870529e-24
3.1986289994194426 7.336704788315028e-24 6.229229732123831e-16 6.229229674683667e-16 5.744016487907554e-24
3.2227097969389145 1.163859499959543e-23 9.956144432111548e-16 9.95614437125144e-16 6.086010426152696e-24
3.2348180950136065 1.571813700631494e-23 1.3496475380681086e-15 1.3496475317967323e-15 6.271376543606904e-24
3.240889293275058 1.8768127579716677e-23 1.614561439694087e-15 1.614561433323754e-15 6.3703325437349014e-24
3.2469718861334385 2.2296498372027765e-23 1.9216957273214134e-15 1.9216957208478567e-15 6.473556667902081e-24
3.2714166318528037 4.1117444702838876e-23 3.570519484458872e-15 3.570519477552638e-15 6.906233226362428e-24
3.2744851364798273 4.2294006165303714e-23 3.6761335523515496e-15 3.676133545394377e-15 6.957173754897674e-24
3.2775565192852394 4.3504361830257287e-23 3.784882703594094e-15 3.78488269658562e-15 7.008473595180652e-24
3.283707930232385 4.234039447511543e-23 3.6905309750502105e-15 3.690530967951986e-15 7.098224103493157e-24
3.2898708863219004 3.8649068359393523e-23 3.375105220778484e-15 3.375105213600341e-15 7.178142905785503e-24
3.29141343181113 3.777856124806912e-23 3.3006333571564916e-15 3.300633349958256e-15 7.198235448272395e-24
3.292184975758714 3.735082484460778e-23 3.26402787329964e-15 3.2640278660913432e-15 7.208298696094196e-24
3.295272960557952 3.465090921819059e-23 3.0309269024893262e-15 3.0309268952423675e-15 7.24695831901014e-24
3.3076538914384823 2.5297561992425905e-23 2.221100250714093e-15 2.2211002433117518e-15 7.402341462257301e-24
3.310756385682612 2.3393914569671248e-23 2.055888503793367e-15 2.0558884963517603e-15 7.441606566850782e-24
3.313861789986515 2.1637502561400736e-23 1.9033162558668775e-15 1.903316248385837e-15 7.481040423190646e-24
3.3200813396944477 1.917432985892444e-23 1.6898118492453392e-15 1.6898118416780322e-15 7.567306884211577e-24
3.345076488085796 1.478025361449307e-23 1.3123732571311382e-15 1.3123732491698293e-15 7.961309082018171e-24
3.3482140837626964 1.4945023486969428e-23 1.328248254339457e-15 1.3282482463236476e-15 8.015809607953385e-24
3.3513546224236106 1.5111615074931619e-23 1.3443139355654115e-15 1.3443139274947657e-15 8.070645801527677e-24
3.3576445397418455 1.6329116377644076e-23 1.455347936841017e-15 1.4553479286543055e-15 8.186711734662828e-24
3.3702598118196083 2.081978568030325e-23 1.8625548425941527e-15 1.8625548341605954e-15 8.433557281116738e-24
3.382922481734668 2.1842579359055828e-23 1.9613965251119048e-15 1.961396516440381e-15 8.671524067359819e-24
3.389271646505754 2.2372457712653012e-23 2.0127484802424443e-15 2.012748471449642e-15 8.792802023006512e-24
3.395632727569191 2.2943428505286475e-23 2.0679901226769856e-15 2.0679901137586495e-15 8.918335916598881e-24
3.421196662673239 2.5685020937687033e-23 2.332530852249145e-15 2.3325308428061635e-15 9.442980518888318e-24
3.4276182099114902 2.5132526208847134e-23 2.2866411705216794e-15 2.2866411609619443e-15 9.559734387092345e-24
3.4340518103208963 2.2711507287911917e-23 2.070247334240189e-15 2.0702473245707967e-15 9.669391849052747e-24
3.4469541582030403 1.9263525414489673e-23 1.7625470172275696e-15 1.7625470073484046e-15 9.879165635345282e-24
3.472904465399547 1.829718066993536e-23 1.686733405361845e-15 1.6867333949836772e-15 1.0378168441262779e-23
3.4990501388274233 1.681920585720809e-23 1.5621584588945751e-15 1.5621584479999627e-15 1.0894612455070775e-23
3.5253949054701885 1.1559457040557235e-23 1.081719455658227e-15 1.0817194442635574e-15 1.1394669681838901e-23
3.5519380250092896 6.615876396968396e-24 6.237667133079832e-16 6.237667014066129e-16 1.1901370295781136e-23
3.578680990867387 4.655654865407888e-24 4.4225545361019057e-16 4.42255441138161e-16 1.2472029615599926e-23
3.605625307711299 3.862720297059891e-24 3.6969475409901063e-16 3.696947410136359e-16 1.3085374595350838e-23
3.660119384959845 3.284113610849118e-24 3.1906771130322395e-16 3.190676968950913e-16 1.4408132568660016e-23
3.715437065384467 2.8742679517046057e-24 2.8346966787671753e-16 2.834696520292602e-16 1.5847457294922667e-23
3.8285932144167436 2.6657959947267883e-24 2.709165706004704e-16 2.709165514859795e-16 1.9114490967377772e-23
3.94519561050918 2.6252225538840237e-24 2.7491858568593644e-16 2.7491856272707386e-16 2.29588625103029e-23
4.06534921144712 2.65359620181723e-24 2.8635325698714867e-16 2.8635322950728923e-16 2.747985936316662e-23
4.189162171576248 2.7219010037556076e-24 3.0266969002125423e-16 3.026696572122865e-16 3.2808967847477496e-23
4.316745939156006 2.8193234589401298e-24 3.230508047179504e-16 3.2305076562957323e-16 3.9088377123418314e-23
4.448215356677963 2.9422310020807996e-24 3.474017528902118e-16 3.474017064393056e-16 4.6450906100731767e-23
4.58368876423945 3.09105729031529e-24 3.7608984636901006e-16 3.7608979123962116e-16 5.512938893079888e-23
4.723288106065518 3.2692429743839827e-24 4.0988409758836896e-16 4.098840321538092e-16 6.543455961236422e-23
4.867139040275056 3.483680573876392e-24 4.500714999320645e-16 4.500714223508856e-16 7.758117893469423e-23
4.940699165968905 3.613152117153244e-24 4.738534971529262e-16 4.738534126611831e-16 8.449174330401787e-23
5.015371051989984 3.747236240596047e-24 4.988656206971333e-16 4.988655286749265e-16 9.202220674795924e-23
5.091171501069577 3.9109813583594414e-24 5.285339703600603e-16 5.285338700366481e-16 1.0032341218918582e-22
5.129500256944802 3.9950237290216906e-24 5.439561010159287e-16 5.439559962638254e-16 1.0475210323682632e-22
5.168117569889187 4.082651584266066e-24 5.600723549559145e-16 5.600722455624799e-16 1.0939343465522647e-22
5.20702561229733 4.190281351496077e-24 5.791650297391334e-16 5.791649153580775e-16 1.143810557467335e-22
5.246226572918644 4.300661763217636e-24 5.98896484225102e-16 5.988963646287159e-16 1.195963864370954e-22
5.265937586045735 4.35691097270955e-24 6.090091620029536e-16 6.090090397102041e-16 1.2229274933321795e-22
5.285722656980489 4.413881337500795e-24 6.192905576529564e-16 6.192904326028882e-16 1.2505006814431546e-22
5.305582063971359 4.471584532011765e-24 6.297438205216488e-16 6.297436926518988e-16 1.2786975014052356e-22
5.3255160863122235 4.533592940070618e-24 6.408754822324015e-16 6.408753514671235e-16 1.3076527801743556e-22
5.365609099470188 4.688145554794563e-24 6.67712566512093e-16 6.677124296615118e-16 1.3685058109279726e-22
5.406003951863644 4.848592750231546e-24 6.957632723491738e-16 6.957631291280105e-16 1.4322116312358668e-22
5.446702915881641 5.015219920645171e-24 7.25091981968627e-16 7.25091832078017e-16 1.4989061009447794e-22
5.487708281020852 5.195300501135923e-24 7.567825726710076e-16 7.567824157745413e-16 1.5689646645260023e-22
5.529022354014368 5.445801236279664e-24 7.992443319527245e-16 7.992441675091907e-16 1.6444353394214152e-22
5.570647458961463 5.711096848347263e-24 8.444902363652488e-16 8.44490064005025e-16 1.7236022387256588e-22
5.612585937458331 5.992253646642966e-24 8.927351303851097e-16 8.927349497202663e-16 1.8066484346787817e-22
5.654840148729818 6.301364438841167e-24 9.458545635232857e-16 9.45854374105541e-16 1.894177444090497e-22
5.67608639626678 6.511993602211264e-24 9.811431938788888e-16 9.811429997420096e-16 1.941368793590648e-22
5.686739436050992 6.620567966109793e-24 9.993739180681305e-16 9.993737215263867e-16 1.9654174408029838e-22
5.6974124697621304 6.73138491393755e-24 1.0180087711823662e-15 1.0180085722050384e-15 1.9897732745472752e-22
5.718818669136295 6.959962756697845e-24 1.0565320476536595e-15 1.056531843711419e-15 2.0394224050604048e-22
5.740305295436557 7.211960116387846e-24 1.0988989037320836e-15 1.098898694641113e-15 2.0909097019389255e-22
5.7835210386641895 7.865900541035546e-24 1.2075641285429917e-15 1.2075639082922178e-15 2.202507739326169e-22
5.827062130521658 8.619355283920646e-24 1.3331955770408816e-15 1.3331953448773208e-15 2.321635605615453e-22
5.8489554468988025 9.148056454433682e-24 1.4202885383983652e-15 1.420288299464711e-15 2.3893365449716985e-22
5.870931020387893 9.715455356423325e-24 1.514047746917173e-15 1.5140475009985507e-15 2.459186217228337e-22
5.892989160043636 1.0324667828193544e-23 1.6150321176310114e-15 1.6150318645054848e-15 2.5312552642374287e-22
5.915130176081913 1.1017582404154378e-23 1.7298962100350326e-15 1.7298959492573789e-15 2.6077765399310916e-22
5.95966208400165 1.2955285098489471e-23 2.0494533789815186e-15 2.049453100120482e-15 2.7886103681228976e-22
6.004529249263818 1.5748602011127452e-23 2.5100964279166165e-15 2.5100961270137574e-15 3.0090285919542715e-22
6.027089341400364 1.769048170670047e-23 2.8301973568026188e-15 2.8301970423018818e-15 3.145007368524545e-22
6.049734195844842 1.998540272737163e-23 3.2093614444376284e-15 3.209361114927789e-15 3.295098401861279e-22
6.095279466722835 2.6614900129191387e-23 4.3061375331242424e-15 4.306137164140515e-15 3.6898372928291917e-22
6.141167624020661 3.6818173518441787e-23 6.001815280255491e-15 6.001814855626141e-15 4.246293484641355e-22
6.164241091010745 4.333406175271589e-23 7.0905258895126035e-15 7.090525428788603e-15 4.607240021520616e-22
6.187401249150058 5.0756940989862756e-23 8.336296519329116e-15 8.336296019196848e-15 5.001322702111488e-22
6.1990139391386085 5.43813855675145e-23 8.948336651356368e-15 8.948336130955316e-15 5.204010508162066e-22
6.204828454712694 5.629063792208014e-23 9.27118788778582e-15 9.271187356888832e-15 5.308969904736311e-22
6.210648424152782 5.768435290949253e-23 9.509647158562606e-15 9.509646618852708e-15 5.397098954439024e-22
6.233982942956859 6.241944199093919e-23 1.0328920258759238e-14 1.032891968762669e-14 5.711325457522034e-22
6.239830258556775 6.302473876656732e-23 1.0438864565465077e-14 1.0438863989825126e-14 5.756399518101406e-22
6.245683058788269 6.307721283065923e-23 1.0457355447506565e-14 1.0457354867323313e-14 5.801832547917776e-22
6.257405133728602 6.294709604328184e-23 1.0455370005007822e-14 1.0455369416781792e-14 5.882260342263501e-22
6.269149208991335 6.201575516021397e-23 1.0320008996226114e-14 1.032000840487857e-14 5.913475423338575e-22
6.280915325867298 5.968025973605411e-23 9.949999897365876e-15 9.949999309019895e-15 5.88345984330472e-22
6.304513850009849 5.392085642840123e-23 9.023558073506197e-15 9.023557496848632e-15 5.766575680547102e-22
6.32820103803542 4.678195380045154e-23 7.858290082392963e-15 7.85828952439031e-15 5.580026544238363e-22
6.3519772230701035 4.02350533325322e-23 6.783954813426236e-15 6.783954272869049e-15 5.405571865708989e-22
6.375842739491607 3.4727372638474004e-23 5.877314853271095e-15 5.877314327873301e-15 5.253977935628713e-22
6.399797922933955 3.031301018801931e-23 5.1494964091560415e-15 5.14949589314794e-15 5.160081020548639e-22
6.42384311029221 2.66429799899027e-23 4.54304624103888e-15 4.543045732692059e-15 5.0834682063872215e-22
6.447978639727206 2.3968474621444174e-23 4.102356695583477e-15 4.102356189640736e-15 5.059427405464431e-22
6.472204850670314 2.1740557809670875e-23 3.735015173561523e-15 3.7350146687333e-15 5.048282233071987e-22
6.496522083828205 2.0292543393880978e-23 3.49934559510215e-15 3.499345086832947e-15 5.082692031945584e-22
