Dust emission spectrum from A.P. Jones, M. Kohler, N. Ysard, M. Bocchio, and L. Verstraete (2017), A&A, 602A, 46J 
inside the DustPedia framework.

lambda    nu*dP/dnu     j_nu    j_nu(carb.) j_nu(sil)
 (um)   (erg s-1 H-1) (Jy cm2 sr-1 H-1)
0.9927057738263894 5.637518440501926e-25 1.485518129537752e-17 1.485518129537752e-17 4.708797217432615e-38
1.0001793341362166 5.729955094527174e-25 1.5212427740185483e-17 1.5212427740185483e-17 6.289015500060131e-38
1.0077091589558085 5.822239549728943e-25 1.5573804151791393e-17 1.5573804151791393e-17 8.385123718732633e-38
1.0114953028030835 5.868313318498532e-25 1.575602266378382e-17 1.575602266378382e-17 9.676024861206988e-38
1.0152956718711033 5.914335415033272e-25 1.593925132729361e-17 1.593925132729361e-17 1.1160985397698378e-37
1.0229392996569957 6.006161121100658e-25 1.630858476555604e-17 1.630858476555604e-17 1.4831096715286928e-37
1.0267826658714554 6.051852636662728e-25 1.6494391774938287e-17 1.6494391774938287e-17 1.7085992581688394e-37
1.0306404723013447 6.097472260184351e-25 1.6681168107589667e-17 1.6681168107589667e-17 1.967573960472096e-37
1.03451277320114 6.143015587677861e-25 1.6868905591987466e-17 1.6868905591987466e-17 2.2648906869403975e-37
1.0383996230291617 6.18847824089987e-25 1.7057595958830893e-17 1.7057595958830893e-17 2.6060944737395137e-37
1.0403485208654093 6.211177953703701e-25 1.715229586276233e-17 1.715229586276233e-17 2.7950981770858834e-37
1.0423010764483396 6.23385586818791e-25 1.7247230843013657e-17 1.7247230843013657e-17 2.9975137141605094e-37
1.0462171883269815 6.2791441452786355e-25 1.7437801785599812e-17 1.7437801785599812e-17 3.4463682581526733e-37
1.0471985131304309 6.290451749507044e-25 1.7485589780316306e-17 1.7485589780316306e-17 3.568496882671237e-37
1.048180758391296 6.3017534338566445e-25 1.7533435610206355e-17 1.7533435610206355e-17 3.6948635885249933e-37
1.0501480137395462 6.324338776106622e-25 1.7629300235799368e-17 1.7629300235799368e-17 3.960892079628641e-37
1.0521189612883777 6.346899639554254e-25 1.7725394579502108e-17 1.7725394579502108e-17 4.2456642579401995e-37
1.0531058218030118 6.358153242995875e-25 1.77734786844917e-17 1.77734786844917e-17 4.3954778526979885e-37
1.0540936079674168 6.3693432498449435e-25 1.7821459454425534e-17 1.7821459454425534e-17 4.550462163889648e-37
1.058054026499678 6.414036425968065e-25 1.8013939479016137e-17 1.8013939479016137e-17 5.225757667778288e-37
1.0590464539527713 6.425192680685002e-25 1.806219802679419e-17 1.806219802679419e-17 5.4093718227716615e-37
1.06003981227728 6.436341989512987e-25 1.8110511712267807e-17 1.8110511712267807e-17 5.599304599062842e-37
1.0620293250338977 6.458619510179397e-25 1.8207303935850227e-17 1.8207303935850227e-17 5.998984827150757e-37
1.0660195594769086 6.503088355411302e-25 1.8401543852877258e-17 1.8401543852877258e-17 6.884022120633563e-37
1.070024785945596 6.547438847303557e-25 1.8596650178480546e-17 1.8596650178480546e-17 7.896669874228079e-37
1.0740450607676866 6.591666904875902e-25 1.87926137834571e-17 1.87926137834571e-17 9.054910245131175e-37
1.07808044048254 6.63576848118139e-25 1.898942546299275e-17 1.898942546299275e-17 1.0379201543646378e-36
1.0861967418109137 6.723497534274607e-25 1.9385329118316034e-17 1.9385329118316034e-17 1.3622167896442705e-36
1.0902777775684922 6.766938278496464e-25 1.9583883121661676e-17 1.9583883121661676e-17 1.5597290057184992e-36
1.0943741465085532 6.810233608161669e-25 1.9783233061260123e-17 1.9783233061260123e-17 1.7852382376877404e-36
1.1026131145906286 6.896372683834533e-25 2.0184282210866366e-17 2.0184282210866366e-17 2.336290052855062e-36
1.1109141095355224 6.981884466280112e-25 2.0588398882652025e-17 2.0588398882652025e-17 3.0531352482623e-36
1.1192775983109025 7.066659125295095e-25 2.099526629848636e-17 2.099526629848636e-17 3.984378596209016e-36
1.1277040513999907 7.150299475568059e-25 2.1403697550182878e-17 2.1403697550182878e-17 5.1924565156384404e-36
1.1361939428280308 7.233214152497086e-25 2.181489997905132e-17 2.181489997905132e-17 6.757642846101108e-36
1.1447477501889525 7.315375668977674e-25 2.2228792161422355e-17 2.2228792161422355e-17 8.782817271964442e-36
1.1533659546722406 7.3968025616937255e-25 2.2645430811491296e-17 2.2645430811491296e-17 1.1399747680891117e-35
1.1707974979042381 7.557721024459188e-25 2.3487785689411995e-17 2.3487785689411995e-17 1.9129938815529234e-35
1.1884924949847024 7.715355760147367e-25 2.434007057412608e-17 2.434007057412608e-17 3.1935737859403606e-35
1.2064549276569216 7.870958081068158e-25 2.520624389109417e-17 2.520624389109417e-17 5.304387656333136e-35
1.2246888378427687 8.022811454284739e-25 2.6080852230588246e-17 2.6080852230588246e-17 8.765653359250618e-35
1.2431983285522175 8.170561715926256e-25 2.6962599784535316e-17 2.6962599784535316e-17 1.4412410307230328e-34
1.2619875648066055 8.314156361447523e-25 2.7851122049591146e-17 2.7851122049591146e-17 2.357759473774136e-34
1.3004222497298317 8.58648206348387e-25 2.963937841809386e-17 2.963937841809386e-17 6.214951227894189e-34
1.3400274889804893 8.838747766883016e-25 3.143937334628651e-17 3.143937334628651e-17 1.60530534813356e-33
1.3808389325824078 9.070044923045988e-25 3.324465991315623e-17 3.324465991315623e-17 4.062476716873374e-33
1.4228933163050095 9.281558632505135e-25 3.505602621070944e-17 3.5056026210709436e-17 1.0070618163001755e-32
1.466228494730424 9.478502759900106e-25 3.689018466881823e-17 3.689018466881822e-17 2.4452196421908e-32
1.5108834753276823 9.657015522668632e-25 3.872962873656186e-17 3.8729628736561806e-17 5.813770553865551e-32
1.5568984535646726 9.813985659125617e-25 4.0557870046603106e-17 4.0557870046602964e-17 1.3532971475198585e-31
1.6043148490894465 9.94974563859641e-25 4.237122446023446e-17 4.237122446023416e-17 3.084016873887405e-31
1.6531753430134553 1.0064755405358868e-24 4.4166356873984663e-17 4.4166356873983967e-17 6.88074280132776e-31
1.7035239163302658 1.016045230737146e-24 4.5944201695085346e-17 4.594420169508385e-17 1.5031663294670372e-30
1.755405889504358 1.0244962633637943e-24 4.773724625338674e-17 4.773724625338352e-17 3.216595616176211e-30
1.8088679632656115 1.0316316307198237e-24 4.953372054276999e-17 4.953372054276327e-17 6.743222704299338e-30
1.8639582606462262 1.0373192132363453e-24 5.132370949053286e-17 5.1323709490519e-17 1.385206029842067e-29
1.9207263702978936 1.0416597715703705e-24 5.31081073287913e-17 5.3108107328763415e-17 2.789065688068673e-29
1.979223391128241 1.0448842350521564e-24 5.4894953900390783e-17 5.4894953900335723e-17 5.506368670742928e-29
2.039501978296691 1.0472681192940922e-24 5.669587301007304e-17 5.669587300996641e-17 1.0663587668016705e-28
2.1016163906111602 1.0495780622182276e-24 5.855144595385912e-17 5.855144595365645e-17 2.0267270454793957e-28
2.1656225393682647 1.052259334111956e-24 6.048880193031609e-17 6.048880192993787e-17 3.782184933505395e-28
2.231578038680979 1.055345511783135e-24 6.251384035637921e-17 6.251384035568597e-17 6.93238457920685e-28
2.299542257339062 1.05910358813384e-24 6.46471326778521e-17 6.464713267660362e-17 1.2484811853757054e-27
2.369576372248914 1.0641220313244294e-24 6.693165727614754e-17 6.69316572739373e-17 2.2102360647106805e-27
2.4417434235010123 1.0710956755911798e-24 6.942209661290061e-17 6.942209660905254e-17 3.8480950604454806e-27
2.5161083711144245 1.081213549107318e-24 7.221214658499525e-17 7.221214657840303e-17 6.592225102348575e-27
2.5927381535095444 1.0964218172606444e-24 7.54580817197874e-17 7.545808170866886e-17 1.1118541400150316e-26
2.6717017477616296 1.1190460980417752e-24 7.936068081411329e-17 7.936068079564291e-17 1.847037744410842e-26
2.753070231689431 1.1525875840893674e-24 8.422880914501395e-17 8.422880911478286e-17 3.023110126589794e-26
2.836916847834745 1.2049772788103353e-24 9.073918984918626e-17 9.073918980040543e-17 4.8780821080269954e-26
2.9233170693905177 1.2936833205094101e-24 1.003860426966871e-16 1.0038604261904225e-16 7.764483871627453e-26
2.967498994190263 1.3688965369764568e-24 1.0782777364796231e-16 1.0782777355047292e-16 9.748940295707323e-26
3.0123486681368425 1.4567262846555606e-24 1.1648033955906776e-16 1.1648033943705588e-16 1.2201189993434568e-25
3.0578761833420214 1.6529554368218748e-24 1.3416847229354258e-16 1.3416847214111892e-16 1.5242367929784479e-25
3.1040917844459814 1.905856517383084e-24 1.5703417926686144e-16 1.5703417907701035e-16 1.8985109965254206e-25
3.127460860933648 2.1732092438870547e-24 1.804109361527572e-16 1.8041093594075303e-16 2.1200420130572763e-25
3.1510058709225794 2.5294430323050225e-24 2.1156486643504822e-16 2.1156486619831057e-16 2.3673767129344805e-25
3.162844764501044 2.8609123186374942e-24 2.401883051446394e-16 2.4018830489395784e-16 2.5068154003392397e-25
3.1747281389236908 3.2464412364003404e-24 2.735794805003992e-16 2.735794802350064e-16 2.6539279723697843e-25
3.1986289994194426 4.321919837054826e-24 3.669526350810247e-16 3.6695263478309096e-16 2.9793366693855583e-25
3.2227097969389145 6.85678105660678e-24 5.865579353978427e-16 5.865579350584563e-16 3.393864234532448e-25
3.2348180950136065 9.260617570118553e-24 7.951686449532365e-16 7.951686445871207e-16 3.661158812534829e-25
3.240889293275058 1.1057742587846552e-23 9.512619048740322e-16 9.51261904491486e-16 3.825462617516855e-25
3.2469718861334385 1.3136712751600898e-23 1.132230018569695e-15 1.1322300181685114e-15 4.011837069477358e-25
3.2714166318528037 2.4226515321541964e-23 2.1037602317279865e-15 2.1037602312411196e-15 4.868660305643299e-25
3.2744851364798273 2.4919693967121782e-23 2.165983585211194e-15 2.165983584715307e-15 4.958871627858625e-25
3.2775565192852394 2.563278228993275e-23 2.23005395901898e-15 2.230053958513912e-15 5.050685059254593e-25
3.283707930232385 2.4946745899188864e-23 2.1744421517322745e-15 2.174442151216733e-15 5.155415874622392e-25
3.2898708863219004 2.2771563004210306e-23 1.988571120683086e-15 1.9885711201633503e-15 5.197360839474197e-25
3.29141343181113 2.2258608233964476e-23 1.944687738066157e-15 1.9446877375453682e-15 5.207884398105975e-25
3.292184975758714 2.2006561540889166e-23 1.923117643687486e-15 1.9231176431661713e-15 5.213151795941501e-25
3.295272960557952 2.041560412050257e-23 1.785759887850768e-15 1.785759887328714e-15 5.220540500037407e-25
3.3076538914384823 1.490431576396363e-23 1.3085837872429356e-15 1.3085837867186648e-15 5.242708358945677e-25
3.310756385682612 1.3782690798776822e-23 1.2112413029531754e-15 1.2112413024283494e-15 5.248262981785754e-25
3.313861789986515 1.2747839141836053e-23 1.1213479650426862e-15 1.1213479645173044e-15 5.253823380001496e-25
3.3200813396944477 1.1296559418372549e-23 9.955529137820284e-16 9.955529132517303e-16 5.302980342450462e-25
3.345076488085796 8.707539332856314e-24 7.731627652622036e-16 7.731627646889345e-16 5.732688916785994e-25
3.3482140837626964 8.804593170756326e-24 7.825136922282385e-16 7.825136916468355e-16 5.814031099946984e-25
3.3513546224236106 8.902719952254328e-24 7.919769287999735e-16 7.91976928210328e-16 5.896455658325235e-25
3.3576445397418455 9.61994648002871e-24 8.57386825988849e-16 8.573868253788313e-16 6.100176377533133e-25
3.3702598118196083 1.2265495128850452e-23 1.0972811007688841e-15 1.0972811001096347e-15 6.592496275879044e-25
3.382922481734668 1.2867800343112368e-23 1.1554889403824216e-15 1.155488939682855e-15 6.995663734069503e-25
3.389271646505754 1.3179832600717095e-23 1.1857297207870058e-15 1.1857297200664196e-15 7.205864739613914e-25
3.395632727569191 1.3516023725039057e-23 1.2182574873153019e-15 1.2182574865720135e-15 7.4328833019559e-25
3.421196662673239 1.5130120104091472e-23 1.374009856820714e-15 1.3740098559777515e-15 8.42962764797006e-25
3.4276182099114902 1.4804547910958846e-23 1.346967212243169e-15 1.3469672113825172e-15 8.606520723009952e-25
3.4340518103208963 1.3378400802959205e-23 1.219496277706961e-15 1.2194962768330054e-15 8.73955590075754e-25
3.4469541582030403 1.1347383129643259e-23 1.038246938613184e-15 1.0382469377189677e-15 8.94216475065272e-25
3.472904465399547 1.0778157778577609e-23 9.935890726192241e-16 9.935890716418763e-16 9.773477645714654e-25
3.4990501388274233 9.907568301711101e-24 9.202094177925054e-16 9.20209416728036e-16 1.0644694401203643e-24
3.5253949054701885 6.809460369434161e-24 6.372207395474267e-16 6.372207384164235e-16 1.1310033089141342e-24
3.5519380250092896 3.8980609116605554e-24 3.675220782926064e-16 3.6752207709881e-16 1.1937963603955348e-24
3.578680990867387 2.743849529315455e-24 2.6064698808364096e-16 2.6064698679336434e-16 1.290276688396724e-24
3.605625307711299 2.277082984076461e-24 2.179359542294439e-16 2.179359528212537e-16 1.408190133039964e-24
3.660119384959845 1.9367253464600227e-24 1.881623466607694e-16 1.8816234497270308e-16 1.6880662650264794e-24
3.715437065384467 1.6958939167943666e-24 1.6725458218421902e-16 1.6725458016552771e-16 2.0186912216086948e-24
3.8285932144167436 1.5741408476033648e-24 1.599750471973113e-16 1.5997504431639668e-16 2.8809145967672607e-24
3.94519561050918 1.5514070237896473e-24 1.6246646371845853e-16 1.6246645964309934e-16 4.075359214916508e-24
4.06534921144712 1.5694607412742053e-24 1.693626915314253e-16 1.693626858184896e-16 5.712935693999235e-24
4.189162171576248 1.61126265207382e-24 1.791690317807733e-16 1.7916902384331427e-16 7.937459016825958e-24
4.316745939156006 1.670501673984558e-24 1.9141362029678856e-16 1.9141360936250627e-16 1.093428229419661e-23
4.448215356677963 1.745107090071087e-24 2.06052230991747e-16 2.0605221605191635e-16 1.493983065557574e-23
4.58368876423945 1.835415056369218e-24 2.2331548778989403e-16 2.233154675353543e-16 2.0254539712278062e-23
4.723288106065518 1.943547554014489e-24 2.4367391519665736e-16 2.4367388793729357e-16 2.725936381876437e-23
4.867139040275056 2.073675089027556e-24 2.6790689843640784e-16 2.679068619986685e-16 3.643773928965775e-23
4.940699165968905 2.152122798346604e-24 2.82244112961001e-16 2.822440709266667e-16 4.2034334283109906e-23
5.015371051989984 2.2335044359392347e-24 2.9734409714915556e-16 2.9734404874302556e-16 4.840613002599987e-23
5.091171501069577 2.3325788991028656e-24 3.152270680313558e-16 3.152270123413845e-16 5.568997130294104e-23
5.129500256944802 2.3834894214673316e-24 3.2453214309982945e-16 3.2453208340546006e-16 5.969436939404385e-23
5.168117569889187 2.436578072153959e-24 3.3425826101948247e-16 3.3425819705530946e-16 6.396417299532735e-23
5.20702561229733 2.501511414087541e-24 3.457495597558202e-16 3.4574949120225566e-16 6.855356457735004e-23
5.246226572918644 2.568137408485338e-24 3.5763065072992593e-16 3.5763057728880414e-16 7.344112187662727e-23
5.265937586045735 2.602102254810202e-24 3.6372194051567563e-16 3.6372186451358366e-16 7.600209195446693e-23
5.285722656980489 2.6365110817828054e-24 3.699162467788427e-16 3.6991616813467454e-16 7.864416823952522e-23
5.305582063971359 2.671371138762132e-24 3.7621551262466595e-16 3.7621543125501066e-16 8.136965534314511e-23
5.3255160863122235 2.7087866735193003e-24 3.8291813769000253e-16 3.8291805349818167e-16 8.41918208659743e-23
5.365609099470188 2.8016625521623778e-24 3.990288422875422e-16 3.9902875209471637e-16 9.019282590518889e-23
5.406003951863644 2.8980944503743576e-24 4.1587070357128865e-16 4.1587060699000476e-16 9.658128384631395e-23
5.446702915881641 2.9982536651084375e-24 4.3348242487410327e-16 4.334823214945339e-16 1.0337956949261098e-22
5.487708281020852 3.1064290727096316e-24 4.525034470963129e-16 4.525033364558709e-16 1.1064044212758213e-22
5.529022354014368 3.256188012107178e-24 4.778892397158035e-16 4.778891210858443e-16 1.1862995933285186e-22
5.570647458961463 3.414756336969128e-24 5.049342469076344e-16 5.049341197649617e-16 1.2714267278499733e-22
5.612585937458331 3.582765332374464e-24 5.337658691948794e-16 5.33765732985646e-16 1.362092332927658e-22
5.654840148729818 3.767345485509223e-24 5.654903718746122e-16 5.65490225954587e-16 1.459200250901996e-22
5.67608639626678 3.892720841354378e-24 5.865049618397095e-16 5.865048105730317e-16 1.5126667777415273e-22
5.686739436050992 3.9573379582601975e-24 5.973596767997658e-16 5.973595227931017e-16 1.540066642013669e-22
5.6974124697621304 4.023282285747072e-24 6.084537889599513e-16 6.084536321679751e-16 1.5679197614166576e-22
5.718818669136295 4.159280040546572e-24 6.313845075930542e-16 6.313843450917684e-16 1.6250128565601196e-22
5.740305295436557 4.309106250927785e-24 6.565860125112979e-16 6.565858440231796e-16 1.6848811825054693e-22
5.7835210386641895 4.6972153705336576e-24 7.21111175498092e-16 7.211109937083641e-16 1.817897278755502e-22
5.827062130521658 5.1440531810837424e-24 7.956545151210478e-16 7.956543188774551e-16 1.9624359274252983e-22
5.8489554468988025 5.4571063946140485e-24 8.472472490410065e-16 8.472470443129529e-16 2.0472805340498324e-22
5.870931020387893 5.792969171808125e-24 9.027710591802513e-16 9.027708456281695e-16 2.1355208177757516e-22
5.892989160043636 6.153474955019843e-24 9.625549076026694e-16 9.625546848745522e-16 2.227281170407879e-22
5.915130176081913 6.563328480357559e-24 1.0305234530494043e-15 1.0305232204609368e-15 2.3258846761479705e-22
5.95966208400165 7.708398659939182e-24 1.2194253974380656e-15 1.219425140872332e-15 2.5656573366734913e-22
6.004529249263818 9.357788117533187e-24 1.4914943250470162e-15 1.4914940381646245e-15 2.8688239130344632e-22
6.027089341400364 1.0503872351658073e-23 1.6804534923769179e-15 1.6804531861971192e-15 3.0617979898228947e-22
6.049734195844842 1.1857953164029437e-23 1.9042127003256167e-15 1.9042123725405792e-15 3.277850373276789e-22
6.095279466722835 1.5768297448525327e-23 2.5512196982504735e-15 2.5512193119413762e-15 3.8630909674314383e-22
6.141167624020661 2.178473465905262e-23 3.551179780483225e-15 3.5511793092293006e-15 4.712539237469635e-22
6.164241091010745 2.5626843080203344e-23 4.1931863060418175e-15 4.1931857789397755e-15 5.271020415146256e-22
6.187401249150058 3.000305302958226e-23 4.927687556854671e-15 4.927686968100706e-15 5.887539638595343e-22
6.1990139391386085 3.214005344114469e-23 5.288574669118937e-15 5.28857404861409e-15 6.205048458640417e-22
6.204828454712694 3.326569383332085e-23 5.4789305847482705e-15 5.478929947731424e-15 6.370168464581909e-22
6.210648424152782 3.4087644924179376e-23 5.6195737551901944e-15 5.619573104434903e-15 6.507552919595945e-22
6.233982942956859 3.688067058128046e-23 6.102866244445287e-15 6.1028655448489226e-15 6.995963642574324e-22
6.239830258556775 3.723805942212847e-23 6.167785326776244e-15 6.167784620398519e-15 7.063777264011357e-22
6.245683058788269 3.726970189723734e-23 6.178816448474764e-15 6.17881573525517e-15 7.132195932873837e-22
6.257405133728602 3.719448148372473e-23 6.17791908604271e-15 6.1779183608393e-15 7.252034100393434e-22
6.269149208991335 3.6647145456463337e-23 6.0984320810035206e-15 6.0984313518566225e-15 7.291468986103354e-22
6.280915325867298 3.527235521685155e-23 5.880670297678065e-15 5.880669574586813e-15 7.230912534551822e-22
6.304513850009849 3.188121949458397e-23 5.335264582556747e-15 5.335263880885104e-15 7.016716422925866e-22
6.32820103803542 2.767715827149604e-23 4.6491247304771276e-15 4.649124061846346e-15 6.686307824844737e-22
6.3519772230701035 2.3821796532072683e-23 4.016547211024766e-15 4.016546573623205e-15 6.374015604116402e-22
6.375842739491607 2.0578326451978903e-23 3.482708149872626e-15 3.4827075398740057e-15 6.099986202558391e-22
6.399797922933955 1.797958001266398e-23 3.054324929760352e-15 3.0543243381120447e-15 5.916483073724174e-22
6.42384311029221 1.5819093612599232e-23 2.6974037363912597e-15 2.6974031602113396e-15 5.761799196272753e-22
6.447978639727206 1.424554226517447e-23 2.4382150560999988e-15 2.4382144869393094e-15 5.691606885136419e-22
6.472204850670314 1.2934998004526542e-23 2.222225125953474e-15 2.222224561698543e-15 5.642549315606299e-22
6.496522083828205 1.2084318500646836e-23 2.083879082786696e-15 2.08387851606843e-15 5.667182663373354e-22
