Dust emission spectrum from A.P. Jones, M. Kohler, N. Ysard, M. Bocchio, and L. Verstraete (2017), A&A, 602A, 46J 
inside the DustPedia framework.

lambda    nu*dP/dnu     j_nu    j_nu(carb.) j_nu(sil)
 (um)   (erg s-1 H-1) (Jy cm2 sr-1 H-1)
0.9927057738263894 8.195966078614844e-23 2.1596836138729834e-15 2.1596836138631656e-15 9.81801784512244e-27
1.0001793341362166 8.33129642335764e-23 2.211871519611833e-15 2.211871519600006e-15 1.1827071636938554e-26
1.0077091589558085 8.466431824616397e-23 2.264670664524756e-15 2.264670664510527e-15 1.42289329640884e-26
1.0114953028030835 8.533909778564893e-23 2.2912968102418543e-15 2.291296810226255e-15 1.5599471630898532e-26
1.0152956718711033 8.601319078094426e-23 2.318072562870044e-15 2.3180725628529476e-15 1.7096498266481634e-26
1.0229392996569957 8.735839205147347e-23 2.372050487871444e-15 2.3720504878509294e-15 2.0515674536138012e-26
1.0267826658714554 8.802786811515859e-23 2.3992093512123344e-15 2.399209351189871e-15 2.2463604815719982e-26
1.0306404723013447 8.869636164715473e-23 2.426511931557396e-15 2.4265119315328073e-15 2.458852220461334e-26
1.03451277320114 8.936380814146835e-23 2.453957053116894e-15 2.4539570530899886e-15 2.690572245988189e-26
1.0383996230291617 9.003014345113795e-23 2.4815435254431618e-15 2.4815435254137306e-15 2.943175010210697e-26
1.0403485208654093 9.036287446701083e-23 2.4953893921902587e-15 2.4953893921594805e-15 3.0778609182947325e-26
1.0423010764483396 9.069530380053323e-23 2.5092701437124392e-15 2.5092701436802545e-15 3.2184493928308516e-26
1.0462171883269815 9.135922579738317e-23 2.5371356890070742e-15 2.5371356889718914e-15 3.518328929604998e-26
1.0471985131304309 9.152500541268415e-23 2.544123638517438e-15 2.5441236384814646e-15 3.597384607280035e-26
1.048180758391296 9.16907027112422e-23 2.551120174592839e-15 2.5511201745560574e-15 3.678142094159945e-26
1.0501480137395462 9.20218464445309e-23 2.5651389285979507e-15 2.5651389285595012e-15 3.8449027617113247e-26
1.0521189612883777 9.235264918622521e-23 2.5791917948195923e-15 2.5791917947794034e-15 4.0188983103775325e-26
1.0531058218030118 9.251766611104046e-23 2.586223866772826e-15 2.5862238667317384e-15 4.1087078408519e-26
1.0540936079674168 9.268176222770317e-23 2.593241097103583e-15 2.593241097061577e-15 4.200458668375479e-26
1.058054026499678 9.333721129222937e-23 2.621392776241669e-15 2.621392776195794e-15 4.587484595136225e-26
1.0590464539527713 9.350083491502377e-23 2.628451285177182e-15 2.6284512851302868e-15 4.689452277939949e-26
1.06003981227728 9.366436116948832e-23 2.6355179894821797e-15 2.6355179894342446e-15 4.793589440281107e-26
1.0620293250338977 9.399111776559559e-23 2.649675903234864e-15 2.6496759031847794e-15 5.0085487641294895e-26
1.0660195594769086 9.464342075209155e-23 2.678089181898831e-15 2.678089181844166e-15 5.466491275172159e-26
1.070024785945596 9.529405981754727e-23 2.7066313040005773e-15 2.706631303940934e-15 5.964375453306248e-26
1.0740450607676866 9.594297499927018e-23 2.7353009495420023e-15 2.735300949476948e-15 6.505504230262802e-26
1.07808044048254 9.659010681570919e-23 2.7640967870429224e-15 2.7640967869719885e-15 7.093437635317872e-26
1.0861967418109137 9.787764055951052e-23 2.8220286627576764e-15 2.8220286626734225e-15 8.425358320783541e-26
1.0902777775684922 9.851532380966276e-23 2.8510864260605614e-15 2.8510864259687825e-15 9.177928396456083e-26
1.0943741465085532 9.915094529495395e-23 2.88026281016785e-15 2.8802628100679054e-15 9.994507389610749e-26
1.1026131145906286 1.0041577707486791e-22 2.938965853242756e-15 2.938965853124349e-15 1.1840688608981478e-25
1.1109141095355224 1.0167168957994351e-22 2.9981265233687286e-15 2.998126523228629e-15 1.4009955363130256e-25
1.1192775983109025 1.0291707858284451e-22 3.0576987416509027e-15 3.057698741485347e-15 1.6555512136835792e-25
1.1277040513999907 1.0414615606177909e-22 3.1175097392453923e-15 3.117509739050005e-15 1.9538742216439814e-25
1.1361939428280308 1.0536486342476363e-22 3.1777352480627342e-15 3.1777352478324314e-15 2.3030360848168055e-25
1.1447477501889525 1.065727944015926e-22 3.2383634197504784e-15 3.2383634194793607e-15 2.711173385222712e-25
1.1533659546722406 1.0777021098709303e-22 3.2994024594989407e-15 3.299402459180177e-15 3.187640099354801e-25
1.1707974979042381 1.10137372968783e-22 3.422834746497836e-15 3.4228347460588257e-15 4.390103664162183e-25
1.1884924949847024 1.1245737952834827e-22 3.547756758593069e-15 3.5477567579914375e-15 6.016317372846159e-25
1.2064549276569216 1.147483889650613e-22 3.674744355862397e-15 3.6747443550419195e-15 8.204780554470358e-25
1.2246888378427687 1.1698536388024606e-22 3.803003480622501e-15 3.803003479508981e-15 1.1135195297974179e-24
1.2431983285522175 1.1916307069244542e-22 3.932344306161893e-15 3.9323443046579005e-15 1.503992710483206e-24
1.2619875648066055 1.2128069723571654e-22 4.062713466196306e-15 4.0627134641745165e-15 2.0217901600909553e-24
1.3004222497298317 1.2530049739779012e-22 4.325204234854758e-15 4.325204231252027e-15 3.602730619574037e-24
1.3400274889804893 1.2902905044724764e-22 4.589555666162439e-15 4.589555659858891e-15 6.303546985909913e-24
1.3808389325824078 1.3245254922360285e-22 4.8548160355643426e-15 4.854816024730172e-15 1.0834171736540687e-23
1.4228933163050095 1.3558769924394037e-22 5.121085936902026e-15 5.12108591860095e-15 1.8301074899561443e-23
1.466228494730424 1.3851004345163056e-22 5.390789253165273e-15 5.390789222767376e-15 3.039789988666239e-23
1.5108834753276823 1.4116274740377193e-22 5.6613565397587174e-15 5.661356490089476e-15 4.9669242624198375e-23
1.5568984535646726 1.4349983553895995e-22 5.930360898873166e-15 5.930360818952453e-15 7.992071328375044e-23
1.6043148490894465 1.4552561478280056e-22 6.1972423342728786e-15 6.197242207404624e-15 1.2686825262767384e-22
1.6531753430134553 1.4724628446080634e-22 6.461490305468933e-15 6.46149010700869e-15 1.9846024091558252e-22
1.7035239163302658 1.486823427331537e-22 6.723215991156051e-15 6.723215685152382e-15 3.060036666408619e-22
1.755405889504358 1.4995206272946886e-22 6.987139729740595e-15 6.987139264442907e-15 4.652976898875603e-22
1.8088679632656115 1.5102628150793302e-22 7.251516335930736e-15 7.251515637952616e-15 6.979781213150953e-22
1.8639582606462262 1.5188525959652736e-22 7.51486605083274e-15 7.51486501751617e-15 1.0333165708785925e-21
1.9207263702978936 1.5254336998544713e-22 7.777289559017357e-15 7.77728804868864e-15 1.5103287177550536e-21
1.979223391128241 1.530340245609952e-22 8.03992963205897e-15 8.039927451711813e-15 2.1803471590206757e-21
2.039501978296691 1.5339720023078686e-22 8.30445234048337e-15 8.304449230533775e-15 3.1099495944908155e-21
2.1016163906111602 1.537448089945592e-22 8.576761651730902e-15 8.576757267064615e-15 4.384666286111449e-21
2.1656225393682647 1.5414175464246655e-22 8.860791026984154e-15 8.860784914360151e-15 6.112624001310695e-21
2.231578038680979 1.5459270959375928e-22 9.157364919736612e-15 9.157356490950573e-15 8.428786035806246e-21
2.299542257339062 1.5513654602076344e-22 9.469454155527433e-15 9.469442655872401e-15 1.1499655029659187e-20
2.369576372248914 1.5585917868074024e-22 9.803305282400142e-15 9.803289753838257e-15 1.5528561881100743e-20
2.4417434235010123 1.5686205340801454e-22 1.0166871993558098e-14 1.0166851232997739e-14 2.0760560358055452e-20
2.5161083711144245 1.5831888383464378e-22 1.0573809823303808e-14 1.0573782334690217e-14 2.7488613593436126e-20
2.5927381535095444 1.605139271399425e-22 1.1046909903299078e-14 1.1046873844296945e-14 3.6059002131377684e-20
2.6717017477616296 1.6378655001061788e-22 1.161543938161537e-14 1.161539250698047e-14 4.6874634898324743e-20
2.753070231689431 1.6864767774668976e-22 1.2324436995301126e-14 1.2324376595330094e-14 6.039997103327066e-20
2.836916847834745 1.7625483305111821e-22 1.3272632637398793e-14 1.3272555469686805e-14 7.716771199004576e-20
2.9233170693905177 1.8915731433500453e-22 1.4678054460613497e-14 1.467795669427484e-14 9.776633865682266e-20
2.967498994190263 2.0011109954923896e-22 1.5762721114262924e-14 1.576261158174232e-14 1.095325206013812e-19
3.0123486681368425 2.1290318835921116e-22 1.7023812870344927e-14 1.702369031814375e-14 1.2255220117350664e-19
3.0578761833420214 2.415184455353163e-22 1.960377161194847e-14 1.9603634636765224e-14 1.3697518325001657e-19
3.1040917844459814 2.783911826433437e-22 2.293820677621407e-14 2.293805396374398e-14 1.5281247009636856e-19
3.127460860933648 3.173937251604637e-22 2.634872792220929e-14 2.6348566573464766e-14 1.6134874452706561e-19
3.1510058709225794 3.6935842603783293e-22 3.089346748408231e-14 3.089329719569891e-14 1.7028838340552864e-19
3.162844764501044 4.17727761181604e-22 3.507039426425266e-14 3.507021933338583e-14 1.7493086683134516e-19
3.1747281389236908 4.739773035139447e-22 3.994234148162308e-14 3.9942161802512585e-14 1.796791104872437e-19
3.1986289994194426 6.308728568739447e-22 5.356426448407803e-14 5.3564074960142575e-14 1.8952393547240544e-19
3.2227097969389145 1.0007082664038092e-21 8.560480053709759e-14 8.560460053635362e-14 2.000007439946154e-19
3.2348180950136065 1.351426408264032e-21 1.160410628855688e-13 1.1604085728176508e-13 2.0560380371643297e-19
3.240889293275058 1.6136330438526856e-21 1.3881564260232256e-13 1.388154340424635e-13 2.0855985907545722e-19
3.2469718861334385 1.9169654219631813e-21 1.6521985646997844e-13 1.6521964485096818e-13 2.116190101979e-19
3.2714166318528037 3.534987026235264e-21 3.0696800702721905e-13 3.069677827290945e-13 2.242981245389862e-19
3.2744851364798273 3.636133666805046e-21 3.1604745412702884e-13 3.1604722832478756e-13 2.258022413259285e-19
3.2775565192852394 3.7401854518772944e-21 3.253964115202587e-13 3.2539618420541073e-13 2.2731484792389253e-19
3.283707930232385 3.6401168846630186e-21 3.172848123450442e-13 3.1728458230561096e-13 2.300394332828565e-19
3.2898708863219004 3.3227740094447284e-21 2.9016771639770353e-13 2.9016748386062874e-13 2.325370747387326e-19
3.29141343181113 3.247936698812599e-21 2.837653911603507e-13 2.8376515799559337e-13 2.331647574014622e-19
3.292184975758714 3.2111643036254244e-21 2.806184290811284e-13 2.8061819560203764e-13 2.334790907397167e-19
3.295272960557952 2.9790539639887368e-21 2.605788710063875e-13 2.6057863630121537e-13 2.347051721090445e-19
3.3076538914384823 2.1749542277005537e-21 1.9095877230713838e-13 1.9095853266758394e-13 2.3963955447813605e-19
3.310756385682612 2.0112997122664983e-21 1.7675570900358764e-13 1.7675546811820694e-13 2.40885380678799e-19
3.313861789986515 1.8603030382841987e-21 1.6363926490856726e-13 1.6363902277244602e-13 2.421361212534406e-19
3.3200813396944477 1.6485470743581025e-21 1.452845758253437e-13 1.452843310070909e-13 2.448182527564649e-19
3.345076488085796 1.270795258935512e-21 1.1283688065275504e-13 1.128366238999502e-13 2.567528048147524e-19
3.3482140837626964 1.2849602078626755e-21 1.1420163738634314e-13 1.1420137901725517e-13 2.583690879806071e-19
3.3513546224236106 1.2992817541747873e-21 1.1558278580431238e-13 1.1558252581055394e-13 2.5999375843825114e-19
3.3576445397418455 1.4039476522197384e-21 1.251281619799184e-13 1.251278985922417e-13 2.63387676703238e-19
3.3702598118196083 1.789999741985663e-21 1.6013482265726762e-13 1.601345521474633e-13 2.7050980427473074e-19
3.382922481734668 1.877924757253143e-21 1.686318741367343e-13 1.6863159666811058e-13 2.774686236936512e-19
3.389271646505754 1.9234759040149134e-21 1.7304639715105686e-13 1.7304611614772828e-13 2.8100332858375254e-19
3.395632727569191 1.9725593440985016e-21 1.7779527759114053e-13 1.777949929445277e-13 2.8464661284380346e-19
3.421196662673239 2.208238392990258e-21 2.0053649920188397e-13 2.0053619943035246e-13 2.997715315567908e-19
3.4276182099114902 2.1607411359083646e-21 1.9659144485318679e-13 1.96591141666473e-13 3.0318671373078e-19
3.4340518103208963 1.9526141936538097e-21 1.77988817649408e-13 1.779885112133039e-13 3.0643610408291606e-19
3.4469541582030403 1.6562034578719485e-21 1.5153697995479415e-13 1.515366672423066e-13 3.127124875297075e-19
3.472904465399547 1.5731309025733545e-21 1.4501974332785998e-13 1.450194162075016e-13 3.271203583907045e-19
3.4990501388274233 1.446076470227299e-21 1.3431077598743224e-13 1.343104340272135e-13 3.4196021873557903e-19
3.5253949054701885 9.939220696462457e-22 9.300997757699239e-14 9.300962105101576e-14 3.565259766335857e-19
3.5519380250092896 5.689530347952836e-22 5.3642774327446675e-14 5.364240303785567e-14 3.7128959099658277e-19
3.578680990867387 4.0045043342535824e-22 3.804005949814177e-14 3.803967199949135e-14 3.874986504142932e-19
3.605625307711299 3.322935864502901e-22 3.180328532327941e-14 3.180288067151561e-14 4.046517638022249e-19
3.660119384959845 2.825690740233449e-22 2.745296856840135e-14 2.745252752355793e-14 4.410448434242956e-19
3.715437065384467 2.4735436484159524e-22 2.4394893178946568e-14 2.439441324191813e-14 4.7993702844255865e-19
3.8285932144167436 2.294704712195343e-22 2.3320371566257675e-14 2.331980616117513e-14 5.6540508254003e-19
3.94519561050918 2.2602609371896827e-22 2.3669907117551312e-14 2.366924559237319e-14 6.615251781247557e-19
4.06534921144712 2.285165213045177e-22 2.4659535654335705e-14 2.4658766640825073e-14 7.690135106370627e-19
4.189162171576248 2.3444934733931564e-22 2.6070276320470998e-14 2.606938736778942e-14 8.889526815764904e-19
4.316745939156006 2.4289728436773755e-22 2.7832266968154492e-14 2.7831245001885283e-14 1.0219662692124217e-18
4.448215356677963 2.535508067964382e-22 2.9937824278758336e-14 2.993665677064112e-14 1.1675081172180588e-18
4.58368876423945 2.6645045916826762e-22 3.2419105452207445e-14 3.241777854706136e-14 1.3269051460800419e-18
4.723288106065518 2.81895848622097e-22 3.5342929978505977e-14 3.534142762789533e-14 1.5023506106347634e-18
4.867139040275056 3.0048390433640067e-22 3.882079273980112e-14 3.881910119984248e-14 1.6915399586478294e-18
4.940699165968905 3.1170228556302115e-22 4.087877102748985e-14 4.0876978810192114e-14 1.79221729775566e-18
5.015371051989984 3.2332581010494296e-22 4.304402513991208e-14 4.304212818988822e-14 1.896950023871134e-18
5.091171501069577 3.3750837997902977e-22 4.5611223310697735e-14 4.5609215561063886e-14 2.0077496338591298e-18
5.129500256944802 3.447899539289078e-22 4.694605382345455e-14 4.694398906509758e-14 2.0647583569698168e-18
5.168117569889187 3.523823982020937e-22 4.834104393494028e-14 4.833892069246896e-14 2.123242471326087e-18
5.20702561229733 3.616970417285556e-22 4.999241348184959e-14 4.9990227216937614e-14 2.1862649119864477e-18
5.246226572918644 3.7125099845724826e-22 5.169923374182197e-14 5.169698312791657e-14 2.250613905388533e-18
5.265937586045735 3.7612011952314196e-22 5.257408293123496e-14 5.257179964060436e-14 2.283290630592192e-18
5.285722656980489 3.8105199080216595e-22 5.346358042607891e-14 5.34612641213429e-14 2.3163047360101533e-18
5.305582063971359 3.8604763045818766e-22 5.436800041856598e-14 5.43656507604122e-14 2.349658153773807e-18
5.3255160863122235 3.9141416373589844e-22 5.533089191129028e-14 5.5328508376920246e-14 2.3835343700510107e-18
5.365609099470188 4.047747213995845e-22 5.765033634856449e-14 5.764788260578208e-14 2.4537427823982306e-18
5.406003951863644 4.1864530282265767e-22 6.007475588284723e-14 6.007223043502051e-14 2.5254478267242475e-18
5.446702915881641 4.330505640947498e-22 6.260971538247123e-14 6.26071167135214e-14 2.5986689498203433e-18
5.487708281020852 4.486159482734806e-22 6.534843006702259e-14 6.534575641899662e-14 2.6736480259829734e-18
5.529022354014368 4.702391176177561e-22 6.901389402805252e-14 6.901114187365396e-14 2.7521543985678605e-18
5.570647458961463 4.931378382091067e-22 7.291945848727345e-14 7.291662611926779e-14 2.832368005655223e-18
5.612585937458331 5.174038931194142e-22 7.708362483028334e-14 7.708071051640536e-14 2.914313877961326e-18
5.654840148729818 5.440770860426419e-22 8.166767685579593e-14 8.16646785489608e-14 2.998306835151288e-18
5.67608639626678 5.62236094336498e-22 8.471048207479603e-14 8.470743983728995e-14 3.042237506099516e-18
5.686739436050992 5.715961905990508e-22 8.628237448447303e-14 8.627931009794961e-14 3.064386523433712e-18
5.6974124697621304 5.811493153254934e-22 8.78890611563485e-14 8.788597449768681e-14 3.0866586616827492e-18
5.718818669136295 6.008532395679315e-22 9.12103592693982e-14 9.120722769508335e-14 3.1315743148639414e-18
5.740305295436557 6.225716416153646e-22 9.486232361590833e-14 9.48591463677481e-14 3.1772481602412436e-18
5.7835210386641895 6.789030584755176e-22 1.0422442743793334e-13 1.0422115527393137e-13 3.2721640020052024e-18
5.827062130521658 7.437933668409009e-22 1.1504596274787508e-13 1.1504259284400685e-13 3.3699038682648765e-18
5.8489554468988025 7.893065072965787e-22 1.2254438865571865e-13 1.2254096628552788e-13 3.4223701907614593e-18
5.870931020387893 8.381469047330406e-22 1.3061605309705556e-13 1.3061257760211556e-13 3.475494940027691e-18
5.892989160043636 8.905823450266627e-22 1.3930899420178815e-13 1.393054649167386e-13 3.529285049587188e-18
5.915130176081913 9.502146026575196e-22 1.4919540236316931e-13 1.4919181735605303e-13 3.585007116322189e-18
5.95966208400165 1.1169288817719984e-21 1.7669187929307477e-13 1.766881697043655e-13 3.7095887092852204e-18
6.004529249263818 1.3572043640554379e-21 2.1631849123886196e-13 2.1631464238397626e-13 3.848854885722219e-18
6.027089341400364 1.5242177277554512e-21 2.4385073599501004e-13 2.4384680781735306e-13 3.928177657007012e-18
6.049734195844842 1.7215804426771535e-21 2.7646047325625065e-13 2.764564611624587e-13 4.012093791889411e-18
6.095279466722835 2.2916605963735365e-21 3.7077748401552184e-13 3.7077326983830505e-13 4.214177216977306e-18
6.141167624020661 3.168975975025953e-21 5.165820737996849e-13 5.165776023259457e-13 4.4714737392081415e-18
6.164241091010745 3.729228900828431e-21 6.101942213525691e-13 6.101895909947276e-13 4.63035784149884e-18
6.187401249150058 4.3674394506279455e-21 7.173062359672525e-13 7.173014412978111e-13 4.794669441253938e-18
6.1990139391386085 4.679069732678435e-21 7.69930569922629e-13 7.699256914252837e-13 4.878497345324168e-18
6.204828454712694 4.8432248288696695e-21 7.976894387552665e-13 7.976845177936078e-13 4.920961658504019e-18
6.210648424152782 4.9630631047072056e-21 8.181937834250897e-13 8.181888256092272e-13 4.957815862709303e-18
6.233982942956859 5.370223240676148e-21 8.886431191219456e-13 8.8863802973887e-13 5.089383075309478e-18
6.239830258556775 5.422282754201662e-21 8.980993244004368e-13 8.980942145269092e-13 5.1098735273154466e-18
6.245683058788269 5.426817627680061e-21 8.996935396273696e-13 8.996884091916949e-13 5.130435674507183e-18
6.257405133728602 5.415679684757167e-21 8.99532122876755e-13 8.995269551237313e-13 5.167753023859025e-18
6.269149208991335 5.3356631395282856e-21 8.879048793086401e-13 8.878996915286167e-13 5.1877800236819895e-18
6.280915325867298 5.134934121860328e-21 8.561054226549333e-13 8.561002363390535e-13 5.186315879573501e-18
6.304513850009849 4.639903613780008e-21 7.764795013968324e-13 7.764743375599303e-13 5.1638369023267925e-18
6.32820103803542 4.026284610657709e-21 6.763230231850109e-13 6.763179027418649e-13 5.1204431458727566e-18
6.3519772230701035 3.4635574817672026e-21 5.839837530677459e-13 5.839786694882539e-13 5.08357949204634e-18
6.375842739491607 2.990155114688462e-21 5.060585277238316e-13 5.060534742677617e-13 5.053456069934427e-18
6.399797922933955 2.610761356142537e-21 4.4350944182814614e-13 4.43504393437684e-13 5.048390462297376e-18
6.42384311029221 2.295345450892879e-21 3.9139242406504816e-13 3.9138737564292947e-13 5.04842211867955e-18
6.447978639727206 2.0655234393359048e-21 3.5352745825815517e-13 3.5352238987870917e-13 5.068379446199133e-18
6.472204850670314 1.8740891478924924e-21 3.219674244453717e-13 3.21962331931367e-13 5.092514004614447e-18
6.496522083828205 1.7497108192291878e-21 3.017287054228263e-13 3.0172357232294475e-13 5.1330998814474194e-18
