Dust emission spectrum from A.P. Jones, M. Kohler, N. Ysard, M. Bocchio, and L. Verstraete (2017), A&A, 602A, 46J 
inside the DustPedia framework.

lambda    nu*dP/dnu     j_nu    j_nu(carb.) j_nu(sil)
 (um)   (erg s-1 H-1) (Jy cm2 sr-1 H-1)
0.9927057738263894 1.1392395041346687e-21 3.001960800906883e-14 3.0019608009068766e-14 6.587638125750688e-29
1.0001793341362166 1.1580668578163874e-21 3.0745456294521224e-14 3.074545629452115e-14 7.938706685384617e-29
1.0077091589558085 1.1768675339177892e-21 3.14798185977948e-14 3.147981859779471e-14 9.554822511776879e-29
1.0114953028030835 1.1862555526968985e-21 3.1850155843611173e-14 3.1850155843611066e-14 1.047738915887034e-28
1.0152956718711033 1.1956341311730914e-21 3.222257713659114e-14 3.222257713659102e-14 1.1485392468222693e-28
1.0229392996569957 1.214350104482393e-21 3.297336054545219e-14 3.297336054545205e-14 1.37886862852158e-28
1.0267826658714554 1.2236648077625798e-21 3.335112064389378e-14 3.3351120643893626e-14 1.510146766831171e-28
1.0306404723013447 1.2329659527396667e-21 3.3730882980618935e-14 3.373088298061877e-14 1.6533968623977327e-28
1.03451277320114 1.2422526418919139e-21 3.4112631228717325e-14 3.411263122871714e-14 1.8096584561295447e-28
1.0383996230291617 1.2515239826664117e-21 3.4496348856849664e-14 3.4496348856849475e-14 1.9800564571663755e-28
1.0403485208654093 1.2561536198900873e-21 3.468894096744873e-14 3.4688940967448516e-14 2.0709330964613497e-28
1.0423010764483396 1.260779087650259e-21 3.4882019133158283e-14 3.488201913315807e-14 2.1658077199332688e-28
1.0462171883269815 1.2700170747379733e-21 3.5269625129182854e-14 3.526962512918262e-14 2.368228091729902e-28
1.0471985131304309 1.2723237939855182e-21 3.536682708218829e-14 3.536682708218805e-14 2.4216019650512457e-28
1.048180758391296 1.2746293749044077e-21 3.546414867915062e-14 3.5464148679150377e-14 2.476129311107215e-28
1.0501480137395462 1.2792370672951024e-21 3.5659149723779166e-14 3.565914972377892e-14 2.5887399616810946e-28
1.0521189612883777 1.2838400432118277e-21 3.585462609346204e-14 3.585462609346178e-14 2.7062558152576525e-28
1.0531058218030118 1.2861361958573904e-21 3.5952443089675615e-14 3.595244308967534e-14 2.7669203244866673e-28
1.0540936079674168 1.288419554316327e-21 3.6050054058707576e-14 3.6050054058707286e-14 2.828901125395638e-28
1.058054026499678 1.2975400430150813e-21 3.6441651175914366e-14 3.644165117591405e-14 3.090406167304322e-28
1.0590464539527713 1.2998168622037496e-21 3.6539837372141496e-14 3.653983737214118e-14 3.1593180241105584e-28
1.06003981227728 1.3020923336021995e-21 3.6638137775430873e-14 3.6638137775430545e-14 3.2297020815013724e-28
1.0620293250338977 1.306639180032987e-21 3.6835080078420524e-14 3.683508007842018e-14 3.3750072251498433e-28
1.0660195594769086 1.3157161178531032e-21 3.723032275959291e-14 3.723032275959253e-14 3.684641526128756e-28
1.070024785945596 1.324770015354179e-21 3.762736104458306e-14 3.762736104458266e-14 4.0213995438927163e-28
1.0740450607676866 1.333800037949011e-21 3.8026176594261754e-14 3.8026176594261324e-14 4.387536334588337e-28
1.07808044048254 1.3428053577190025e-21 3.8426750909146585e-14 3.842675090914609e-14 4.785483648360766e-28
1.0861967418109137 1.360722702687974e-21 3.9232642379806844e-14 3.923264237980629e-14 5.687499611428064e-28
1.0902777775684922 1.3695969300850767e-21 3.963687135703022e-14 3.963687135702959e-14 6.19743817390245e-28
1.0943741465085532 1.378442579437317e-21 4.004275386073605e-14 4.0042753860735375e-14 6.750953814679496e-28
1.1026131145906286 1.396044999129027e-21 4.085940179471465e-14 4.085940179471384e-14 8.0030953601072785e-28
1.1109141095355224 1.4135237479039313e-21 4.168242956826353e-14 4.1682429568262576e-14 9.475483373377739e-28
1.1192775983109025 1.4308565135806598e-21 4.2511196599277365e-14 4.2511196599276235e-14 1.1204614392926134e-27
1.1277040513999907 1.4479628161815752e-21 4.334330091677639e-14 4.334330091677506e-14 1.3232639095084305e-27
1.1361939428280308 1.464925246298051e-21 4.418118564033759e-14 4.418118564033604e-14 1.5608165117532325e-27
1.1447477501889525 1.4817381456414785e-21 4.502468604147404e-14 4.50246860414722e-14 1.8387180377289904e-27
1.1533659546722406 1.4984051454843202e-21 4.587391615043724e-14 4.587391615043506e-14 2.1634118133284943e-27
1.1707974979042381 1.5313552308675232e-21 4.759125583039129e-14 4.759125583038831e-14 2.9839003683327993e-27
1.1884924949847024 1.5636507235486962e-21 4.932937656750597e-14 4.932937656750188e-14 4.095429964473004e-27
1.2064549276569216 1.5955440025341393e-21 5.1096284407336335e-14 5.109628440733073e-14 5.593887608281091e-27
1.2246888378427687 1.626686878297347e-21 5.2880938733331307e-14 5.2880938733323696e-14 7.603971307591483e-27
1.2431983285522175 1.6570064750732519e-21 5.4680698807644776e-14 5.4680698807634477e-14 1.0287304137667577e-26
1.2619875648066055 1.6864914107867717e-21 5.649482169376929e-14 5.6494821693755434e-14 1.385229740019584e-26
1.3004222497298317 1.7424672274425177e-21 6.01476194248765e-14 6.014761942485173e-14 2.4769995741450163e-26
1.3400274889804893 1.7943949320217838e-21 6.382652122950205e-14 6.382652122945854e-14 4.3496112085665775e-26
1.3808389325824078 1.842081590870456e-21 6.751827200455378e-14 6.751827200447876e-14 7.504027183858326e-26
1.4228933163050095 1.8857585576860696e-21 7.122424588667375e-14 7.12242458865465e-14 1.272537567721525e-25
1.466228494730424 1.926475528354231e-21 7.497812661046875e-14 7.497812661025654e-14 2.1222486861590647e-25
1.5108834753276823 1.963441202498777e-21 7.874415096500983e-14 7.874415096466162e-14 3.48228648561823e-25
1.5568984535646726 1.9960151386961753e-21 8.248852751380995e-14 8.248852751324717e-14 5.627630477487656e-25
1.6043148490894465 2.0242562113314933e-21 8.620342409823651e-14 8.620342409733917e-14 8.973632788983804e-25
1.6531753430134553 2.0482496227853886e-21 8.988169127168013e-14 8.988169127026983e-14 1.4103060116111009e-24
1.7035239163302658 2.0682794905230405e-21 9.352482271429735e-14 9.352482271211223e-14 2.185119832750123e-24
1.755405889504358 2.085990041169436e-21 9.719842213036698e-14 9.719842212702744e-14 3.3395064051770144e-24
1.8088679632656115 2.1009747548421067e-21 1.0087815580174596e-13 1.0087815579670975e-13 5.036192488033109e-24
1.8639582606462262 2.1129581107400827e-21 1.0454337185460078e-13 1.0454337184710317e-13 7.497640119128823e-24
1.9207263702978936 2.1221391742602395e-21 1.0819539940890533e-13 1.0819539939788146e-13 1.1023877255699948e-23
1.979223391128241 2.1289818750788343e-21 1.1185005761081892e-13 1.1185005759480397e-13 1.6014929109607774e-23
2.039501978296691 2.134041555932903e-21 1.1553044232354215e-13 1.1553044230054447e-13 2.2997663307672653e-23
2.1016163906111602 2.1388744585578748e-21 1.193186069435038e-13 1.1931860691084286e-13 3.2660938757427187e-23
2.1656225393682647 2.1443828881286196e-21 1.2326918619566315e-13 1.232691861497691e-13 4.5894067849968687e-23
2.231578038680979 2.1506312249295215e-21 1.27393555531902e-13 1.2739355546806712e-13 6.383493385206874e-23
2.299542257339062 2.158159681853043e-21 1.3173294553612035e-13 1.3173294544819114e-13 8.792926164156233e-23
2.369576372248914 2.168163080835724e-21 1.3637416008075208e-13 1.3637415996074682e-13 1.2000527449405173e-22
2.4417434235010123 2.182052353943486e-21 1.4142774803591906e-13 1.4142774787355838e-13 1.6236069581956265e-22
2.5161083711144245 2.2022440137623194e-21 1.4708358739032803e-13 1.4708358717244636e-13 2.1788162339864107e-22
2.5927381535095444 2.23269264055291e-21 1.5365865679956562e-13 1.5365865650937926e-13 2.9018636451273714e-22
2.6717017477616296 2.2781195856732906e-21 1.6156003011079603e-13 1.615600297270039e-13 3.837920834115408e-22
2.753070231689431 2.3456334175183446e-21 1.7141422671528675e-13 1.7141422621093818e-13 5.043485483123476e-22
2.836916847834745 2.451339235969329e-21 1.845947971209764e-13 1.8459479646200574e-13 6.589706680108633e-22
2.9233170693905177 2.6307071504337104e-21 2.041351821881185e-13 2.041351813315897e-13 8.565288209556782e-22
2.967498994190263 2.783033241838184e-21 2.192191084934008e-13 2.1921910751980886e-13 9.735918710678291e-22
3.0123486681368425 2.9609320986328996e-21 2.3675715876963927e-13 2.3675715766350497e-13 1.1061342562981377e-21
3.0578761833420214 3.358990234030492e-21 2.7264533459855464e-13 2.726453333418999e-13 1.2566547295966824e-21
3.1040917844459814 3.871926721917521e-21 3.1902970103574285e-13 3.190296996091429e-13 1.4266000602286167e-21
3.127460860933648 4.4145505574655206e-21 3.664779178564099e-13 3.664779163360081e-13 1.5204017703156335e-21
3.1510058709225794 5.1375181816447896e-21 4.2970659312173885e-13 4.2970659150140684e-13 1.620332035149268e-21
3.162844764501044 5.810497059851016e-21 4.878211162788046e-13 4.878211146054637e-13 1.6733407204506254e-21
3.1747281389236908 6.593111221884067e-21 5.556052956511806e-13 5.556052939231303e-13 1.7280504290821672e-21
3.1986289994194426 8.776035257457039e-21 7.451293371240256e-13 7.451293352804283e-13 1.8435972029790847e-21
3.2227097969389145 1.3921735602616128e-20 1.190923907998635e-12 1.1909239060255465e-12 1.9730888216097907e-21
3.2348180950136065 1.880146985102273e-20 1.6143998163586279e-12 1.6143998143120494e-12 2.04657933996132e-21
3.240889293275058 2.2449709354709634e-20 1.931276037127246e-12 1.931276035039772e-12 2.087473703062933e-21
3.2469718861334385 2.667016382943281e-20 2.2986542112048247e-12 2.298654209073539e-12 2.1312863262232767e-21
3.2714166318528037 4.918279459903749e-20 4.270891046006012e-12 4.270891043685118e-12 2.320893819878978e-21
3.2744851364798273 5.0590141707996996e-20 4.397221597408158e-12 4.397221595065727e-12 2.3424300634118118e-21
3.2775565192852394 5.2037911833825204e-20 4.527302186375609e-12 4.5273021840114126e-12 2.3641959580656876e-21
3.283707930232385 5.0645652708238267e-20 4.41444517436512e-12 4.414445171967087e-12 2.3980329062768644e-21
3.2898708863219004 4.6230300058119375e-20 4.037151054545187e-12 4.037151052120919e-12 2.424266240700727e-21
3.29141343181113 4.518904901260239e-20 3.948072071082335e-12 3.948072068651473e-12 2.430860861764896e-21
3.292184975758714 4.4677415028093317e-20 3.904286680826156e-12 3.904286678391992e-12 2.434163632791312e-21
3.295272960557952 4.144792813019492e-20 3.6254644757287505e-12 3.62546447328288e-12 2.4458708362452862e-21
3.3076538914384823 3.025996852274299e-20 2.6567945042525378e-12 2.6567945017601755e-12 2.4923620449574743e-21
3.310756385682612 2.798292729223235e-20 2.4591770800586707e-12 2.4591770775545607e-12 2.5041098115346826e-21
3.313861789986515 2.5882000163971343e-20 2.2766782583454884e-12 2.27667825582958e-12 2.515907944843689e-21
3.3200813396944477 2.293568569873055e-20 2.021295854897522e-12 2.021295852352984e-12 2.5445380433870637e-21
3.345076488085796 1.7679746486776525e-20 1.5698260048360815e-12 1.5698260021450622e-12 2.6910190061031505e-21
3.3482140837626964 1.787684034561605e-20 1.588815300482656e-12 1.5888152977696898e-12 2.7129668133537462e-21
3.3513546224236106 1.8076113303268332e-20 1.6080326883625903e-12 1.6080326856274926e-12 2.7350977862278065e-21
3.3576445397418455 1.9532438370004122e-20 1.740847038249912e-12 1.7408470354657217e-12 2.784190022281974e-21
3.3702598118196083 2.4903977011044557e-20 2.2279298977442156e-12 2.227929894851041e-12 2.8931743115082436e-21
3.382922481734668 2.6127419699654774e-20 2.346162024486213e-12 2.3461620214933824e-12 2.992830184316946e-21
3.389271646505754 2.6761248362508868e-20 2.4075880559410817e-12 2.4075880528970744e-12 3.0440066381909974e-21
3.395632727569191 2.7444232321945975e-20 2.473666974103708e-12 2.4736669710059957e-12 3.0977119747978406e-21
3.421196662673239 3.0723674501995126e-20 2.790105518863456e-12 2.7901055155374447e-12 3.3260108499786376e-21
3.4276182099114902 3.006281889162338e-20 2.735215664684121e-12 2.735215661310673e-12 3.3734486007868456e-21
3.4340518103208963 2.716691288912443e-20 2.4763758862530406e-12 2.4763758828375537e-12 3.4154883334527475e-21
3.4469541582030403 2.3042603259918698e-20 2.1083197790150664e-12 2.1083197755230826e-12 3.491983772604973e-21
3.472904465399547 2.1886739290951042e-20 2.0176383980922438e-12 2.017638394391398e-12 3.700845457870922e-21
3.4990501388274233 2.0118885801166554e-20 1.8686308916515835e-12 1.8686308877334867e-12 3.918097154558606e-21
3.5253949054701885 1.382742854902416e-20 1.2939533778034963e-12 1.293953373688523e-12 4.114973326166335e-21
3.5519380250092896 7.914135103634277e-21 7.461708390639498e-13 7.461708347528281e-13 4.311121758176677e-21
3.578680990867387 5.5694188464286616e-21 5.290567985555899e-13 5.290567940035047e-13 4.55208513921422e-21
3.605625307711299 4.6209708339998035e-21 4.422656948458232e-13 4.422656900234879e-13 4.822335317502029e-21
3.660119384959845 3.928934284124576e-21 3.8171519577006267e-13 3.8171519034405825e-13 5.4260044960950645e-21
3.715437065384467 3.438769898934859e-21 3.3914268868962395e-13 3.39142682585013e-13 6.104610906464482e-21
3.8285932144167436 3.1896074489952215e-21 3.2414990245045434e-13 3.2414989471316526e-13 7.737289032603811e-21
3.94519561050918 3.1413502908419246e-21 3.2896852033540763e-13 3.2896851052814597e-13 9.807261577100767e-21
4.06534921144712 3.1756574383938047e-21 3.426896111536433e-13 3.4268959871984904e-13 1.2433794227375119e-20
4.189162171576248 3.257847167378864e-21 3.6226578076375817e-13 3.6226576499159383e-13 1.5772164410889157e-20
4.316745939156006 3.3750165587433602e-21 3.867246277758877e-13 3.8672460776157743e-13 2.0014310176485525e-20
4.448215356677963 3.522858793898783e-21 4.159589506465015e-13 4.1595892525625303e-13 2.53902484377761e-20
4.58368876423945 3.701938365112862e-21 4.5041592576267934e-13 4.504158935519816e-13 3.2210697583021315e-20
4.723288106065518 3.916424835933816e-21 4.91025069787567e-13 4.910250289137692e-13 4.087379783069484e-20
4.867139040275056 4.174626237423633e-21 5.393377069133297e-13 5.393376550832365e-13 5.183009319493665e-20
4.940699165968905 4.330500386967715e-21 5.679314588070857e-13 5.679314004416739e-13 5.836541178183012e-20
5.015371051989984 4.4920071311729184e-21 5.980161862738823e-13 5.980161205676417e-13 6.570624041754557e-20
5.091171501069577 4.689123490387452e-21 6.336928839064358e-13 6.336928098993805e-13 7.400705516467922e-20
5.129500256944802 4.7903278884159565e-21 6.522434552369246e-13 6.522433767067495e-13 7.85301750389343e-20
5.168117569889187 4.895857333968629e-21 6.716307502534357e-13 6.716306669246915e-13 8.332874410399856e-20
5.20702561229733 5.0253536268724036e-21 6.945855990596104e-13 6.94585510573618e-13 8.848599232326763e-20
5.246226572918644 5.158179358110242e-21 7.183116582187232e-13 7.183115642694689e-13 9.394925432641641e-20
5.265937586045735 5.225874171901906e-21 7.304728671523912e-13 7.30472770351514e-13 9.680087716767103e-20
5.285722656980489 5.29444201504995e-21 7.428378103653392e-13 7.42837710629949e-13 9.973539020180075e-20
5.305582063971359 5.3638970592918245e-21 7.554103031758102e-13 7.554102004207792e-13 1.0275503128252078e-19
5.3255160863122235 5.438513589311665e-21 7.687964193634223e-13 7.687963134889451e-13 1.0587447719390285e-19
5.365609099470188 5.624313193943166e-21 8.010469286208376e-13 8.010468161345391e-13 1.1248629858163352e-19
5.406003951863644 5.817210489402369e-21 8.347579626804594e-13 8.347578431883537e-13 1.194921055779854e-19
5.446702915881641 6.017548689459115e-21 8.70006973746292e-13 8.700068468327077e-13 1.2691358427706357e-19
5.487708281020852 6.234032070384171e-21 9.08091231163121e-13 9.080910963590569e-13 1.3480406403748091e-19
5.529022354014368 6.534821798361125e-21 9.590726976714472e-13 9.59072554232321e-13 1.4343912602127814e-19
5.570647458961463 6.853365400075201e-21 1.0133955561061449e-12 1.0133954035049517e-12 1.5260119267141152e-19
5.612585937458331 7.190940540204177e-21 1.0713173405713885e-12 1.0713171782515138e-12 1.623198743277845e-19
5.654840148729818 7.562018389932791e-21 1.1350826750278089e-12 1.1350825023422395e-12 1.7268556956816978e-19
5.67608639626678 7.814672028010909e-21 1.1774139750498318e-12 1.1774137966849654e-12 1.7836486594770525e-19
5.686739436050992 7.944904541629568e-21 1.199282360832115e-12 1.1992821795609642e-12 1.8127115045821412e-19
5.6974124697621304 8.077823916682814e-21 1.2216350282128723e-12 1.221634843990158e-12 1.8422271428090102e-19
5.718818669136295 8.351982026906136e-21 1.2678425131459053e-12 1.2678423228816108e-12 1.9026429471142468e-19
5.740305295436557 8.654177359268343e-21 1.318652052885475e-12 1.3186518563026367e-12 1.9658283801441593e-19
5.7835210386641895 9.438029889958486e-21 1.4489156428781906e-12 1.448915432334061e-12 2.105441299303528e-19
5.827062130521658 1.0341013422911148e-20 1.5994924102112755e-12 1.5994921845591606e-12 2.2565211553987997e-19
5.8489554468988025 1.0974377742880765e-20 1.703835454219722e-12 1.7038352197571974e-12 2.3446252485998966e-19
5.870931020387893 1.1654057240511736e-20 1.8161577054414422e-12 1.8161574618320977e-12 2.436093446753142e-19
5.892989160043636 1.2383779674567837e-20 1.937127881003462e-12 1.937127627898795e-12 2.5310466670456203e-19
5.915130176081913 1.3213670628735912e-20 2.074709124270525e-12 2.074708860986394e-12 2.632841313436574e-19
5.95966208400165 1.5533854823579347e-20 2.457368634867402e-12 2.457368346955161e-12 2.8791224195945743e-19
6.004529249263818 1.8877887875493033e-20 3.0088587475513413e-12 3.0088584287039493e-12 3.1884739181605805e-19
6.027089341400364 2.1202326025206767e-20 3.3920369195983696e-12 3.3920365811640508e-12 3.3843431859564995e-19
6.049734195844842 2.3949194261454403e-20 3.84588800819062e-12 3.845887647877845e-12 3.6031277493302214e-19
6.095279466722835 3.188357131144977e-20 5.158578181688954e-12 5.158577762384185e-12 4.1930476864518726e-19
6.141167624020661 4.409422481672417e-20 7.187901163632634e-12 7.1879006590677595e-12 5.045648776651801e-19
6.164241091010745 5.189194846568392e-20 8.490808135014614e-12 8.490807574500132e-12 5.605144836412514e-19
6.187401249150058 6.077482165871049e-20 9.9816286083423e-12 9.981627986149197e-12 6.221930993205051e-19
6.1990139391386085 6.511222209412498e-20 1.0714072054908554e-11 1.0714071400954761e-11 6.539537926515905e-19
6.204828454712694 6.739701192573519e-20 1.1100431327564212e-11 1.110043065710207e-11 6.704621399855888e-19
6.210648424152782 6.906497429713693e-20 1.1385817877015438e-11 1.1385817192801265e-11 6.842141735748933e-19
6.233982942956859 7.473203439241882e-20 1.2366358932305035e-11 1.2366358199182067e-11 7.331229653548112e-19
6.239830258556775 7.545663424478323e-20 1.2497974618578936e-11 1.2497973878635198e-11 7.399437390304132e-19
6.245683058788269 7.551976376366857e-20 1.2520163424287352e-11 1.2520162677463123e-11 7.4682422557302015e-19
6.257405133728602 7.536476258701995e-20 1.2517916277584365e-11 1.2517915518691874e-11 7.588924876301489e-19
6.269149208991335 7.425107348317713e-20 1.2356081843173837e-11 1.235608108021556e-11 7.629582764873645e-19
6.280915325867298 7.14572465945018e-20 1.1913480260070166e-11 1.1913479502999423e-11 7.570707440943827e-19
6.304513850009849 6.456719673717205e-20 1.0805203922808815e-11 1.0805203186780324e-11 7.36028490885039e-19
6.32820103803542 5.602652199314959e-20 9.411164484658383e-12 9.411163781225875e-12 7.034325097400085e-19
6.3519772230701035 4.8194159950669783e-20 8.125924443898427e-12 8.125923771251459e-12 6.726469686374508e-19
6.375842739491607 4.160509391192138e-20 7.041311157221462e-12 7.041310511565241e-12 6.456562175744315e-19
6.399797922933955 3.632441443542887e-20 6.17069834172609e-12 6.170697714029105e-12 6.276969855105202e-19
6.42384311029221 3.193424151162739e-20 5.445289375092775e-12 5.445288762496811e-12 6.125959619286867e-19
6.447978639727206 2.873537477129985e-20 4.918241938837226e-12 4.918241332934549e-12 6.05902675235846e-19
6.472204850670314 2.6070823737102215e-20 4.478952338656614e-12 4.4789517373510394e-12 6.013055734329953e-19
6.496522083828205 2.433957146184844e-20 4.197234941351723e-12 4.197234337316373e-12 6.0403535017418e-19
