Dust emission spectrum from A.P. Jones, M. Kohler, N. Ysard, M. Bocchio, and L. Verstraete (2017), A&A, 602A, 46J 
inside the DustPedia framework.

lambda    nu*dP/dnu     j_nu    j_nu(carb.) j_nu(sil)
 (um)   (erg s-1 H-1) (Jy cm2 sr-1 H-1)
0.9927057738263894 1.1880575356588393e-21 3.130599086781908e-14 3.130598920588185e-14 1.661937228826364e-21
1.0001793341362166 1.2080482868581379e-21 3.2072410633788305e-14 3.2072408633629454e-14 2.0001588574475947e-21
1.0077091589558085 1.2281146369813738e-21 3.2850618166658455e-14 3.285061576264533e-14 2.4040131260852356e-21
1.0114953028030835 1.2381751772394802e-21 3.324416249695287e-14 3.324415986270821e-14 2.6342446578527204e-21
1.0152956718711033 1.2482534512335473e-21 3.3640678255751615e-14 3.364067537018795e-14 2.885563657095249e-21
1.0229392996569957 1.2684519038281036e-21 3.444239169997596e-14 3.444238824097151e-14 3.459004448904444e-21
1.0267826658714554 1.278549103551025e-21 3.484699823936251e-14 3.484699445397881e-14 3.785383702366526e-21
1.0306404723013447 1.2886620851815968e-21 3.525459068860337e-14 3.525458654742431e-14 4.1411790499911205e-21
1.03451277320114 1.2987905104593888e-21 3.566517810675227e-14 3.5665173577844834e-14 4.528907442647399e-21
1.0383996230291617 1.3089340504846967e-21 3.607876977309576e-14 3.607876482180693e-14 4.951288831251969e-21
1.0403485208654093 1.3140113883663909e-21 3.6286695162002127e-14 3.6286689985618484e-14 5.1763836346264046e-21
1.0423010764483396 1.3190923859634919e-21 3.649537519799492e-14 3.6495369786733464e-14 5.411261464385704e-21
1.0462171883269815 1.329265207451035e-21 3.6915004133890255e-14 3.6914998221892014e-14 5.911998250578435e-21
1.0471985131304309 1.3318106409561444e-21 3.7020384958273e-14 3.702037891432558e-14 6.0439474182431064e-21
1.048180758391296 1.334356956499398e-21 3.712595553503741e-14 3.712594935632423e-14 6.178713180699378e-21
1.0501480137395462 1.3394522155940347e-21 3.733766658646781e-14 3.7337660129543545e-14 6.4569242525774434e-21
1.0521189612883777 1.3445509489320479e-21 3.755013858032002e-14 3.7550131833217945e-14 6.7471020654597705e-21
1.0531058218030118 1.3470982124817204e-21 3.765656543719807e-14 3.7656558540357536e-14 6.8968405331277e-21
1.0540936079674168 1.3496352090896055e-21 3.776287163930296e-14 3.776286458951354e-14 7.049789397273134e-21
1.058054026499678 1.3597912135478794e-21 3.8189986769918236e-14 3.8189979075248946e-14 7.694669293742347e-21
1.0590464539527713 1.3623321985150761e-21 3.8297238963476236e-14 3.8297231098979815e-14 7.864496428457094e-21
1.06003981227728 1.3648739689133526e-21 3.84046808576203e-14 3.840467281971497e-14 8.03790533554412e-21
1.0620293250338977 1.3699598501331724e-21 3.862013442961539e-14 3.862012603385851e-14 8.395756870673652e-21
1.0660195594769086 1.3801408656558114e-21 3.9053325550129516e-14 3.905331639243857e-14 9.157690950777689e-21
1.070024785945596 1.3903340183206275e-21 3.948957137736079e-14 3.948956139189062e-14 9.985470161819618e-21
1.0740450607676866 1.4005390779568329e-21 3.992888348349785e-14 3.9928872599018936e-14 1.088447891784446e-20
1.07808044048254 1.410755826245712e-21 4.037127377928996e-14 4.0371261918774826e-14 1.1860515124764327e-20
1.0861967418109137 1.4312078578607547e-21 4.1264885158233554e-14 4.126487108912383e-14 1.4069109714902278e-20
1.0902777775684922 1.4414070269396986e-21 4.171509416013309e-14 4.1715078844522016e-14 1.5315611083489055e-20
1.0943741465085532 1.4516165154354808e-21 4.216840345391083e-14 4.216838678682314e-14 1.6667087688048633e-20
1.1026131145906286 1.4720658530748785e-21 4.308437779340291e-14 4.30843580744185e-14 1.971898441440216e-20
1.1109141095355224 1.4925548095199173e-21 4.401292218601991e-14 4.401289888670259e-14 2.3299317325327082e-20
1.1192775983109025 1.513066400527807e-21 4.49536781711499e-14 4.495365067715005e-14 2.749399984758677e-20
1.1277040513999907 1.533525811220199e-21 4.590454254525938e-14 4.5904510143313264e-14 3.2401946117966995e-20
1.1361939428280308 1.5540205935705496e-21 4.6868242940690604e-14 4.68682048038102e-14 3.8136880408824604e-20
1.1447477501889525 1.574550623093136e-21 4.784492298434032e-14 4.784487815496187e-14 4.4829378453646376e-20
1.1533659546722406 1.5951234604699249e-21 4.883496302433001e-14 4.8834910395093725e-14 5.262923629101417e-20
1.1707974979042381 1.6364601871957436e-21 5.08576937964697e-14 5.085762153408124e-14 7.226238846061939e-20
1.1884924949847024 1.6779719540775438e-21 5.2935933291132594e-14 5.2935834568508545e-14 9.872262406123005e-20
1.2064549276569216 1.7199411629301547e-21 5.508002454672736e-14 5.5079890340847206e-14 1.3420588014881903e-19
1.2246888378427687 1.7620909889195753e-21 5.728270564593464e-14 5.728252409729938e-14 1.8154863527156796e-19
1.2431983285522175 1.8043862666402765e-21 5.954418613508787e-14 5.954394173327232e-14 2.4440181556527987e-19
1.2619875648066055 1.846887551137991e-21 6.186784126063657e-14 6.186751381991092e-14 3.274407256561247e-19
1.3004222497298317 1.932240884174759e-21 6.669835019457445e-14 6.669777072531746e-14 5.794692569851986e-19
1.3400274889804893 2.018407615506865e-21 7.179463908526774e-14 7.179363240363692e-14 1.006681630829178e-18
1.3808389325824078 2.1057107601697214e-21 7.718113712914977e-14 7.717941952997544e-14 1.717599174299929e-18
1.4228933163050095 2.19490713428965e-21 8.29006474842075e-14 8.289776786851568e-14 2.879615691804754e-18
1.466228494730424 2.2876000575875773e-21 8.903303687353078e-14 8.902829065766247e-14 4.746215868341116e-18
1.5108834753276823 2.383630847116765e-21 9.559592975401757e-14 9.55882357566549e-14 7.693997362690669e-18
1.5568984535646726 2.482964745246157e-21 1.0261250114457868e-13 1.0260022092351675e-13 1.2280221061947186e-17
1.6043148490894465 2.58626517731287e-21 1.1013670733101315e-13 1.1011737336096626e-13 1.9333970046884248e-17
1.6531753430134553 2.694250610126898e-21 1.1822963317266295e-13 1.1819964278612859e-13 2.999038653431586e-17
1.7035239163302658 2.807776700855508e-21 1.2696389408301817e-13 1.2691804922285542e-13 4.584486016272211e-17
1.755405889504358 2.929120383669823e-21 1.3648477408980908e-13 1.3641567644855543e-13 6.909764125360875e-17
1.8088679632656115 3.0584499694274992e-21 1.4685126121419734e-13 1.4674854180988003e-13 1.0271940431727002e-16
1.8639582606462262 3.1959182710095867e-21 1.5812527021940921e-13 1.5797459913929465e-13 1.5067108011454782e-16
1.9207263702978936 3.3421681758916717e-21 1.7039750505919832e-13 1.70179353879449e-13 2.1815117974934427e-16
1.979223391128241 3.498084832614817e-21 1.837784504581614e-13 1.8346656036930147e-13 3.118900888599284e-16
2.039501978296691 3.664516022575401e-21 1.9838561991112156e-13 1.9794515133736736e-13 4.404685737542096e-16
2.1016163906111602 3.843464366910698e-21 2.144103466483895e-13 2.1379562996113581e-13 6.147166872536472e-16
2.1656225393682647 4.036121334416926e-21 2.320151848976547e-13 2.311671199222399e-13 8.480649754148328e-16
2.231578038680979 4.242485519769212e-21 2.5130543460500574e-13 2.501484959881215e-13 1.1569386168841902e-15
2.299542257339062 4.463183937476779e-21 2.7243042833998747e-13 2.708692621726432e-13 1.5611661673441917e-15
2.369576372248914 4.699307564817709e-21 2.955792983367823e-13 2.934948866858144e-13 2.084411650967915e-15
2.4417434235010123 4.952102385445839e-21 3.2096603326275957e-13 3.1821154142576283e-13 2.754491836996815e-15
2.5161083711144245 5.223710593539663e-21 3.488814540011258e-13 3.4527765551652776e-13 3.603798484598034e-15
2.5927381535095444 5.5174188746111816e-21 3.797205033395792e-13 3.7505096732854066e-13 4.6695360110387315e-15
2.6717017477616296 5.836179990674636e-21 4.138910972694835e-13 4.0789746899234197e-13 5.993628277141554e-15
2.753070231689431 6.184111700013492e-21 4.5192258818527843e-13 4.442998432833663e-13 7.622744901912168e-15
2.836916847834745 6.571522167614191e-21 4.948596193896675e-13 4.852511269244845e-13 9.608492465183256e-15
2.9233170693905177 7.020422544176385e-21 5.44764260384038e-13 5.327595662278063e-13 1.2004694156231725e-14
2.967498994190263 7.287895599268591e-21 5.740664365939803e-13 5.607177997595162e-13 1.3348636834464049e-14
3.0123486681368425 7.574209029129942e-21 6.056363840603162e-13 5.908127511579921e-13 1.482363290232419e-14
3.0578761833420214 8.00829282736603e-21 6.500238242313974e-13 6.33578783465016e-13 1.6445040766381375e-14
3.1040917844459814 8.50975709104055e-21 7.011664878040246e-13 6.8295883490095e-13 1.8207652903074647e-14
3.127460860933648 8.944691232929947e-21 7.425516541812203e-13 7.234009819082762e-13 1.9150672272944104e-14
3.1510058709225794 9.48826101024484e-21 7.936065954820277e-13 7.734734887157277e-13 2.0133106766300008e-14
3.162844764501044 9.963419716136252e-21 8.364803351272087e-13 8.15839019859573e-13 2.064131526763579e-14
3.1747281389236908 1.0499185384381311e-20 8.847724243181753e-13 8.636127103770631e-13 2.11597139411123e-14
3.1986289994194426 1.193707404624671e-20 1.0135173583905538e-12 9.912870770772953e-13 2.223028131325864e-14
3.2227097969389145 1.5210095471536408e-20 1.3011356383316563e-12 1.277771484225029e-12 2.336415410662726e-14
3.2348180950136065 1.82623823752131e-20 1.5681107374278678e-12 1.544141620073021e-12 2.3969117354846847e-14
3.240889293275058 2.0536817851410595e-20 1.7667161551450442e-12 1.7424279347660096e-12 2.4288220379035367e-14
3.2469718861334385 2.317062550879952e-20 1.997035197934314e-12 1.97241680018183e-12 2.4618397752484287e-14
3.2714166318528037 3.698657738023604e-20 3.2118069630543133e-12 3.185824542972795e-12 2.5982420081518018e-14
3.2744851364798273 3.7853482051004086e-20 3.2901696495043767e-12 3.264026601801934e-12 2.6143047702443124e-14
3.2775565192852394 3.8743506311885463e-20 3.3706879206410066e-12 3.344383453490993e-12 2.6304467150013415e-14
3.283707930232385 3.790871977269528e-20 3.3042513250049e-12 3.2776584270786434e-12 2.6592897926256963e-14
3.2898708863219004 3.5225657464465935e-20 3.0761491922166266e-12 3.0492940262478166e-12 2.6855165968809937e-14
3.29141343181113 3.4591771027760084e-20 3.022210205085032e-12 2.995289187917684e-12 2.6921017167348454e-14
3.292184975758714 3.4280129422896314e-20 2.995684791491455e-12 2.968730806050467e-12 2.6953985440987376e-14
3.295272960557952 3.233221820233067e-20 2.8281102048298945e-12 2.8010280206013022e-12 2.708218422859326e-14
3.3076538914384823 2.5538026544139328e-20 2.2422127941385723e-12 2.2146158129688403e-12 2.7596981169731705e-14
3.310756385682612 2.4142477596821197e-20 2.1216732238879466e-12 2.0939465068946602e-12 2.772671699328648e-14
3.313861789986515 2.2849906808635268e-20 2.0099639018184054e-12 1.982107033747935e-12 2.7856868070470102e-14
3.3200813396944477 2.1048647380221912e-20 1.854993317387365e-12 1.826856405540569e-12 2.8136911846796054e-14
3.345076488085796 1.7932762140747108e-20 1.5922918560025958e-12 1.5629066908073685e-12 2.938516519522724e-14
3.3482140837626964 1.8068669573272334e-20 1.6058642423587198e-12 1.5763099710369225e-12 2.9554271321797295e-14
3.3513546224236106 1.8205781712460663e-20 1.6195678584033504e-12 1.5898437311462405e-12 2.9724127257109756e-14
3.3576445397418455 1.9132558194620747e-20 1.7052073395198214e-12 1.675128045152294e-12 3.0079294367527586e-14
3.3702598118196083 2.24685483899522e-20 2.010054486264864e-12 1.9792302362723476e-12 3.082424999251628e-14
3.382922481734668 2.328707729249526e-20 2.0911080019757754e-12 2.0595599679159293e-12 3.1548034059846216e-14
3.389271646505754 2.370880648564564e-20 2.1329737141644886e-12 2.101058879363177e-12 3.1914834801311743e-14
3.395632727569191 2.4171270500200296e-20 2.1786608150325213e-12 2.146367969812247e-12 3.229284522027485e-14
3.421196662673239 2.640258823878451e-20 2.397695209032642e-12 2.363837905958177e-12 3.385730307446502e-14
3.4276182099114902 2.6024403410431088e-20 2.367787136957541e-12 2.3335810268683038e-12 3.4206110089236375e-14
3.4340518103208963 2.4257083004393866e-20 2.2111329199633414e-12 2.1765970587147526e-12 3.4535861248588566e-14
3.4469541582030403 2.1729548397377665e-20 1.9881797277196236e-12 1.9530112752447117e-12 3.5168452474911024e-14
3.472904465399547 2.1081436769080153e-20 1.943401241583554e-12 1.9067750967384936e-12 3.6626144845060856e-14
3.4990501388274233 2.0069914405334544e-20 1.8640824557211164e-12 1.8259653779781595e-12 3.811707774295719e-14
3.5253949054701885 1.6322704581585827e-20 1.5274581715139028e-12 1.4878938458354886e-12 3.956432567841434e-14
3.5519380250092896 1.2759823512074186e-20 1.2030383726883985e-12 1.1620203966206117e-12 4.1017976067786366e-14
3.578680990867387 1.1411802411479834e-20 1.0840433833483305e-12 1.0414323069837155e-12 4.261107636461486e-14
3.605625307711299 1.0935793079161698e-20 1.0466471870499144e-12 1.002358889260475e-12 4.428829778943964e-14
3.660119384959845 1.0732348209438803e-20 1.0427001577480496e-12 9.948909893830399e-13 4.780916836500986e-14
3.715437065384467 1.0645125628052695e-20 1.049856964275178e-12 9.983403123861348e-13 5.151665188904342e-14
3.8285932144167436 1.093242635816241e-20 1.111028549504253e-12 1.0515585632896655e-12 5.946998621458777e-14
3.94519561050918 1.13440344701703e-20 1.1879701048193516e-12 1.119850112526864e-12 6.811999229248829e-14
4.06534921144712 1.1804498669643552e-20 1.273839870149812e-12 1.196389227084781e-12 7.745064306503071e-14
4.189162171576248 1.2290220551649368e-20 1.3666467808814407e-12 1.279173880889774e-12 8.747289999166665e-14
4.316745939156006 1.2789776865799685e-20 1.4655103498528205e-12 1.367368546607023e-12 9.81418032457974e-14
4.448215356677963 1.3296139393988661e-20 1.569931840456288e-12 1.4606314132442372e-12 1.0930042721205126e-13
4.58368876423945 1.380648596380707e-20 1.6798391933054265e-12 1.5588846224133575e-12 1.2095457089206865e-13
4.723288106065518 1.4320435888171527e-20 1.7954367378280591e-12 1.6622673144660534e-12 1.3316942336200538e-13
4.867139040275056 1.4836567623528762e-20 1.9167992307442908e-12 1.7711927246717014e-12 1.4560650607258952e-13
4.940699165968905 1.5101203697978703e-20 1.980475205993774e-12 1.828530841771606e-12 1.5194436422216747e-13
5.015371051989984 1.5360936957369593e-20 2.0449853859517577e-12 1.8866447832720126e-12 1.5834060267974495e-13
5.091171501069577 1.5635910581275642e-20 2.1130527462250746e-12 1.9481173217389508e-12 1.6493542448612476e-13
5.129500256944802 1.5771172501342402e-20 2.1473778590998875e-12 1.9791306717877126e-12 1.6824718731217465e-13
5.168117569889187 1.5906816276043945e-20 2.1821524241521974e-12 2.0105507334427653e-12 1.7160169070943254e-13
5.20702561229733 1.6057509224506517e-20 2.219408919696362e-12 2.0441377544332904e-12 1.7527116526307181e-13
5.246226572918644 1.6207123874501938e-20 2.256952544107509e-12 2.0779930642428314e-12 1.789594798646772e-13
5.265937586045735 1.6281520618569834e-20 2.2758314985450685e-12 2.095021316261937e-12 1.8081018228313136e-13
5.285722656980489 1.6355640662553366e-20 2.2947816337126936e-12 2.1121166664427336e-12 1.8266496726995918e-13
5.305582063971359 1.6429481989080402e-20 2.3138027880108718e-12 2.1292791659489355e-12 1.8452362206193626e-13
5.3255160863122235 1.650593791024369e-20 2.3333040830438404e-12 2.146902709581069e-12 1.86401373462772e-13
5.365609099470188 1.6680436463075457e-20 2.375723388091365e-12 2.1854365435361e-12 1.9028684455526483e-13
5.406003951863644 1.685502090910132e-20 2.4186614771203557e-12 2.2244704433436412e-12 1.9419103377671435e-13
5.446702915881641 1.7029756921418082e-20 2.4621333448935742e-12 2.26402110660782e-12 1.981122382857545e-13
5.487708281020852 1.721019261311395e-20 2.506952935459313e-12 2.30488667217397e-12 2.0206626328534292e-13
5.529022354014368 1.7439643762256415e-20 2.5595014991366696e-12 2.353313675942801e-12 2.0618782319386869e-13
5.570647458961463 1.7673088702968038e-20 2.6132897501804e-12 2.4029613515603713e-12 2.1032839862002864e-13
5.612585937458331 1.791094195674376e-20 2.668399578184025e-12 2.4539133234522723e-12 2.1448625473175147e-13
5.654840148729818 1.8161883941008523e-20 2.7261557357159222e-12 2.5074745614279685e-12 2.1868117428795378e-13
5.67608639626678 1.8325809149492436e-20 2.7610965270669895e-12 2.540218886168759e-12 2.2087764089822975e-13
5.686739436050992 1.840903351135207e-20 2.7788413384263913e-12 2.556863469218729e-12 2.2197786920766232e-13
5.6974124697621304 1.849312947633586e-20 2.796774847110715e-12 2.573695456154965e-12 2.2307939095575031e-13
5.718818669136295 1.8664031132790336e-20 2.8332259409322443e-12 2.60793973649814e-12 2.252862044341043e-13
5.740305295436557 1.8848966047502115e-20 2.8720497329174953e-12 2.644534633345456e-12 2.2751509957203927e-13
5.7835210386641895 1.9316300537993963e-20 2.9654165475586307e-12 2.7332955194028245e-12 2.3212102815580623e-13
5.827062130521658 1.9835292293929735e-20 3.0680164681124036e-12 2.83122430089e-12 2.367921672224038e-13
5.8489554468988025 2.019598494817978e-20 3.1355431709938383e-12 2.8962226967174055e-12 2.3932047427643285e-13
5.870931020387893 2.057521742455941e-20 3.2064232134409666e-12 2.9645653070216837e-12 2.418579064192838e-13
5.892989160043636 2.097447134463208e-20 3.280923457838639e-12 3.0365192087726834e-12 2.4440424906595464e-13
5.915130176081913 2.1423307940901547e-20 3.363723351813081e-12 3.1166777321605757e-12 2.470456196525064e-13
5.95966208400165 2.2671165195662364e-20 3.586451070931344e-12 3.3333510381100646e-12 2.531000328212792e-13
6.004529249263818 2.4438045377686234e-20 3.895066391572549e-12 3.635133364764092e-12 2.599330268084568e-13
6.027089341400364 2.565829860378313e-20 4.104922075749607e-12 3.841023079681509e-12 2.6389899606809707e-13
6.049734195844842 2.7081285479030138e-20 4.348855745757511e-12 4.0807519162678435e-12 2.681038294896676e-13
6.095279466722835 3.116755154097639e-20 5.042730307260423e-12 4.764229802102999e-12 2.7850050515742433e-13
6.141167624020661 3.736923075319111e-20 6.0916443895174465e-12 5.79957463908293e-12 2.9206975043451917e-13
6.164241091010745 4.131677650121658e-20 6.760448054115803e-12 6.459825343673611e-12 3.006227104421919e-13
6.187401249150058 4.574284278120435e-20 7.512783347943126e-12 7.203384795608548e-12 3.093985523345782e-13
6.1990139391386085 4.789231337468787e-20 7.880574182077637e-12 7.566711501535056e-12 3.138626805425816e-13
6.204828454712694 4.9018592048635197e-20 8.073466452924271e-12 7.757349705160889e-12 3.161167477633827e-13
6.210648424152782 4.983393388928718e-20 8.215453652636382e-12 7.897424635760958e-12 3.180290168754253e-13
6.233982942956859 5.25636468596221e-20 8.698022596892619e-12 8.373361237545937e-12 3.2466135934668217e-13
6.239830258556775 5.2889921193467706e-20 8.760222335258745e-12 8.434666795485477e-12 3.2555553977326476e-13
6.245683058788269 5.2884994509957904e-20 8.767622420394178e-12 8.441171529565062e-12 3.264508908291168e-13
6.257405133728602 5.273310990106531e-20 8.758850053245985e-12 8.430847294112114e-12 3.2800275913387447e-13
6.269149208991335 5.209994747693294e-20 8.669924687296202e-12 8.34142564142981e-12 3.284990458663909e-13
6.280915325867298 5.062782455333726e-20 8.440761674588342e-12 8.113070695148544e-12 3.2769097943979864e-13
6.304513850009849 4.70456443155452e-20 7.873003726313887e-12 7.548107704401288e-12 3.248960219125972e-13
6.32820103803542 4.268614859859364e-20 7.170289202086362e-12 6.849442249803609e-12 3.2084695228275333e-13
6.3519772230701035 3.8712878775981494e-20 6.527303894526181e-12 6.2101056890527824e-12 3.171982054734e-13
6.375842739491607 3.535808757289234e-20 5.98405803510714e-12 5.6700972834668635e-12 3.1396075164027667e-13
6.399797922933955 3.2705415517976087e-20 5.555912089401726e-12 5.243703885726327e-12 3.122082036753995e-13
6.42384311029221 3.0488872791196234e-20 5.198831323675161e-12 4.888079208952662e-12 3.1075211472249867e-13
6.447978639727206 2.88852089788791e-20 4.9438870153136506e-12 4.6334349005081635e-12 3.104521148054873e-13
6.472204850670314 2.7543321041540045e-20 4.731926518217788e-12 4.421545646187277e-12 3.10380872030511e-13
6.496522083828205 2.667366994560153e-20 4.59973831853405e-12 4.28849363771105e-12 3.112446808229985e-13
6.520930681187647 2.593781686945507e-20 4.489649486202541e-12 4.1774011128828834e-12 3.1224837331965597e-13
