Dust emission spectrum from A.P. Jones, M. Kohler, N. Ysard, M. Bocchio, and L. Verstraete (2017), A&A, 602A, 46J 
inside the DustPedia framework.

lambda    nu*dP/dnu     j_nu    j_nu(carb.) j_nu(sil)
 (um)   (erg s-1 H-1) (Jy cm2 sr-1 H-1)
0.9927057738263894 2.2375421142417367e-21 5.896050560881879e-14 5.896050424723166e-14 1.3615871272312378e-21
1.0001793341362166 2.2751903958767472e-21 6.040391053936362e-14 6.040390890067924e-14 1.6386843651377878e-21
1.0077091589558085 2.312980775632168e-21 6.186950794257676e-14 6.186950597302384e-14 1.9695529225758555e-21
1.0114953028030835 2.331927389599038e-21 6.261066648401363e-14 6.261066432583726e-14 2.1581763461925895e-21
1.0152956718711033 2.3509073212723368e-21 6.335741890067214e-14 6.335741653659589e-14 2.364076249186469e-21
1.0229392996569957 2.3889458460284204e-21 6.486726720234537e-14 6.48672643684622e-14 2.833883162957857e-21
1.0267826658714554 2.4079611531697334e-21 6.562924946089901e-14 6.562924635962079e-14 3.1012782139870335e-21
1.0306404723013447 2.4270060846811486e-21 6.63968522843025e-14 6.63968488915293e-14 3.3927731975830854e-21
1.03451277320114 2.4460799985840025e-21 6.717009256712662e-14 6.717008885669643e-14 3.710430193976182e-21
1.0383996230291617 2.465182270272389e-21 6.794898760937608e-14 6.794898355289848e-14 4.056477596688361e-21
1.0403485208654093 2.4747438499574347e-21 6.834056118728676e-14 6.834055694639413e-14 4.240892616320428e-21
1.0423010764483396 2.4843122929609494e-21 6.873355513638016e-14 6.873355070305752e-14 4.433322645520817e-21
1.0462171883269815 2.503469478129485e-21 6.952381331896273e-14 6.95238084753979e-14 4.843564831799201e-21
1.0471985131304309 2.508262951366765e-21 6.972226920300552e-14 6.972226425133776e-14 4.9516677643437485e-21
1.048180758391296 2.513058077834223e-21 6.992108221131913e-14 6.992107714924087e-14 5.0620782685247894e-21
1.0501480137395462 2.522653255964193e-21 7.031978079388677e-14 7.031977550387654e-14 5.290010231027305e-21
1.0521189612883777 2.5322549442873368e-21 7.071991147246263e-14 7.071990594471635e-14 5.5277462704971604e-21
1.0531058218030118 2.537051814534648e-21 7.092033586443682e-14 7.092033021401324e-14 5.6504235693094395e-21
1.0540936079674168 2.5418293387761076e-21 7.112053272081144e-14 7.112052694508034e-14 5.775731072464736e-21
1.058054026499678 2.5609544486165876e-21 7.192487753752278e-14 7.192487123345638e-14 6.304066409331079e-21
1.0590464539527713 2.565739439848172e-21 7.212685463426911e-14 7.21268481910672e-14 6.443201893193762e-21
1.06003981227728 2.570525901090149e-21 7.232918871345341e-14 7.232918212818159e-14 6.585271841168679e-21
1.0620293250338977 2.5801032032564764e-21 7.273492908741822e-14 7.273492220896684e-14 6.878451412118173e-21
1.0660195594769086 2.5992751184641907e-21 7.355070770076657e-14 7.355070019808e-14 7.502686562082927e-21
1.070024785945596 2.6184697310833177e-21 7.437223428509078e-14 7.437222610422364e-14 8.180867120526916e-21
1.0740450607676866 2.6376865994461284e-21 7.519953034720983e-14 7.519952142980541e-14 8.91740441461956e-21
1.07808044048254 2.6569253037821082e-21 7.603261801552078e-14 7.603260829847225e-14 9.717048535951494e-21
1.0861967418109137 2.695437048978872e-21 7.771540637263786e-14 7.771539484613833e-14 1.1526499525462105e-20
1.0902777775684922 2.7146420517233527e-21 7.856320018025974e-14 7.856318763253018e-14 1.2547729562376575e-20
1.0943741465085532 2.733866272523818e-21 7.941682582347804e-14 7.941681216851462e-14 1.3654963407075987e-20
1.1026131145906286 2.772371197988595e-21 8.114167435389445e-14 8.114165819858189e-14 1.615531253228129e-20
1.1109141095355224 2.8109497312029754e-21 8.289016322827316e-14 8.289014413967585e-14 1.9088597326773995e-20
1.1192775983109025 2.8495697782455774e-21 8.466161345781102e-14 8.466159093260633e-14 2.2525204694408433e-20
1.1277040513999907 2.8880903143980278e-21 8.645205952311105e-14 8.645203297693836e-14 2.654617272315368e-20
1.1361939428280308 2.9266761089573708e-21 8.826663394992003e-14 8.826660270524693e-14 3.124467310602497e-20
1.1447477501889525 2.9653267859720608e-21 9.01056019523372e-14 9.010556522465366e-14 3.672768355238499e-20
1.1533659546722406 3.004056430875356e-21 9.196967404741195e-14 9.196963092948343e-14 4.3117928527577866e-20
1.1707974979042381 3.0818698864579168e-21 9.577794573458182e-14 9.577788653166117e-14 5.920292066653158e-20
1.1884924949847024 3.1600040880991892e-21 9.969044190567834e-14 9.969036102449237e-14 8.088118597787521e-20
1.2064549276569216 3.2389890025725257e-21 1.037265678695309e-13 1.0372645791772552e-13 1.0995180542312886e-19
1.2246888378427687 3.3183009391554354e-21 1.0787255433320016e-13 1.0787240559455921e-13 1.4873864094538094e-19
1.2431983285522175 3.397870915065473e-21 1.1212868440102978e-13 1.1212848416821705e-13 2.0023281275227758e-19
1.2619875648066055 3.477809671484548e-21 1.165011787304188e-13 1.165009104657279e-13 2.682646908989937e-19
1.3004222497298317 3.6382737471664906e-21 1.2558830448092805e-13 1.2558782973503076e-13 4.747458972890785e-19
1.3400274889804893 3.800135696012049e-21 1.3517060115813852e-13 1.3516977640692284e-13 8.247512156190859e-19
1.3808389325824078 3.963947428885806e-21 1.4529154519631973e-13 1.4529013800663478e-13 1.4071896849686174e-18
1.4228933163050095 4.13105723799222e-21 1.5602815922082804e-13 1.5602580001761067e-13 2.3592032173822106e-18
1.466228494730424 4.304380981404639e-21 1.675258353679476e-13 1.6752194690193496e-13 3.8884660126168235e-18
1.5108834753276823 4.483482139302782e-21 1.7981083109434416e-13 1.7980452757843257e-13 6.30351591160201e-18
1.5568984535646726 4.668115310910617e-21 1.9291735357940136e-13 1.929072926753988e-13 1.0060904002559177e-17
1.6043148490894465 4.859296640190904e-21 2.0693428368831858e-13 2.0691844380924409e-13 1.5839879074555868e-17
1.6531753430134553 5.058083727288293e-21 2.2195982117852957e-13 2.2193525074136895e-13 2.457043716064455e-17
1.7035239163302658 5.265715856878205e-21 2.3810860390723017e-13 2.380710442627595e-13 3.755964447066438e-17
1.755405889504358 5.486017833982956e-21 2.5562551436883135e-13 2.555689042531056e-13 5.661011572584922e-17
1.8088679632656115 5.718741608959365e-21 2.745849780864622e-13 2.7450082242991315e-13 8.415565654909102e-17
1.8639582606462262 5.963493537226727e-21 2.950573034296622e-13 2.9493386206282136e-13 1.2344136684083928e-16
1.9207263702978936 6.220672900090295e-21 3.1715553681913547e-13 3.16976810551389e-13 1.7872626774646083e-16
1.979223391128241 6.490989793800152e-21 3.4101632845554433e-13 3.4076080404539395e-13 2.555244101503232e-16
2.039501978296691 6.774933580022559e-21 3.667740541586878e-13 3.664131883392265e-13 3.608658194613199e-16
2.1016163906111602 7.075001006790015e-21 3.9468387724974523e-13 3.9418025393970594e-13 5.036233100392099e-16
2.1656225393682647 7.391992673082509e-21 4.2492640946710047e-13 4.242316092462786e-13 6.948002208219367e-16
2.231578038680979 7.724314908623247e-21 4.575530796963304e-13 4.566052263716541e-13 9.478533246764745e-16
2.299542257339062 8.071398770185314e-21 4.926739867923882e-13 4.913949590890212e-13 1.2790277033668193e-15
2.369576372248914 8.433400926173761e-21 5.304480913344744e-13 5.287403805842829e-13 1.707710750191464e-15
2.4417434235010123 8.810655017072439e-21 5.710546291586363e-13 5.687979370512156e-13 2.2566921074206303e-15
2.5161083711144245 9.205057604374655e-21 6.147878646167889e-13 6.11835355014947e-13 2.9525096018420368e-15
2.5927381535095444 9.620601942899235e-21 6.621102901934145e-13 6.582846462325588e-13 3.825643960855574e-15
2.6717017477616296 1.0060643207028606e-20 7.134822200218852e-13 7.085717775779547e-13 4.910442443930842e-15
2.753070231689431 1.0530795981916942e-20 7.695696337096646e-13 7.633244933080853e-13 6.2451404015791925e-15
2.836916847834745 1.1048348561476023e-20 8.319809968778289e-13 8.24108978954526e-13 7.872017923303128e-15
2.9233170693905177 1.1652981811591037e-20 9.042373130554609e-13 8.944021419394795e-13 9.835171115981647e-15
2.967498994190263 1.2027470644073928e-20 9.474020476603923e-13 9.364658150730793e-13 1.0936232587313006e-14
3.0123486681368425 1.2429178312497575e-20 9.93841413812504e-13 9.81696750711753e-13 1.2144663100751113e-14
3.0578761833420214 1.309948527953872e-20 1.0632700002890974e-12 1.0497969548418768e-12 1.3473045447220681e-14
3.1040917844459814 1.3888577002256324e-20 1.1443575478224442e-12 1.129440434600567e-12 1.4917113221877082e-14
3.127460860933648 1.462660594286363e-20 1.2142409564620147e-12 1.1985512490575845e-12 1.568970740443029e-14
3.1510058709225794 1.5567050606971355e-20 1.3020419674960205e-12 1.2855473740006376e-12 1.6494593495383176e-14
3.162844764501044 1.6419125451487648e-20 1.3784700385463767e-12 1.3615590814595311e-12 1.6910957086845027e-14
3.1747281389236908 1.7384850889654706e-20 1.465031438623005e-12 1.447695769369932e-12 1.733566925307311e-14
3.1986289994194426 2.0004439648012895e-20 1.6984770932632498e-12 1.6802643326691271e-12 1.821276059412277e-14
3.2227097969389145 2.6075813750769948e-20 2.2306349511820837e-12 2.2114932345644598e-12 1.914171661762346e-14
3.2348180950136065 3.1775379407611096e-20 2.72841257023225e-12 2.7087752210739057e-12 1.9637349158345086e-14
3.240889293275058 3.6033289892574875e-20 3.0998276284494607e-12 3.0799288454881586e-12 1.9898782961301842e-14
3.2469718861334385 4.0967650546382807e-20 3.5309292831446842e-12 3.5107599934195846e-12 2.016928972509942e-14
3.2714166318528037 6.688502271287581e-20 5.808101124492029e-12 5.786814322497323e-12 2.128680199470647e-14
3.2744851364798273 6.850548394043873e-20 5.954397108877396e-12 5.932978708349879e-12 2.1418400527516522e-14
3.2775565192852394 7.016946698374945e-20 6.104748828254204e-12 6.0831981804684364e-12 2.1550647785770884e-14
3.283707930232385 6.857436573667266e-20 5.977172012281359e-12 5.9553850597632415e-12 2.178695251811956e-14
3.2898708863219004 6.349964385928304e-20 5.545230159602316e-12 5.523228336880658e-12 2.2001822721658773e-14
3.29141343181113 6.230043492513372e-20 5.443057831900985e-12 5.421002058799799e-12 2.205577310118477e-14
3.292184975758714 6.171081734377959e-20 5.392808023174854e-12 5.370725239921773e-12 2.208278325308195e-14
3.295272960557952 5.803112559851122e-20 5.076002440534206e-12 5.0538146269491094e-12 2.218781358509673e-14
3.3076538914384823 4.519163077340132e-20 3.967779285254158e-12 3.945169710319694e-12 2.2609574934464148e-14
3.310756385682612 4.255259885684795e-20 3.739579305369493e-12 3.716863440844646e-12 2.271586452484662e-14
3.313861789986515 4.0107570875594196e-20 3.5280130603903467e-12 3.5051905660673245e-12 2.282249432302139e-14
3.3200813396944477 3.669236378751137e-20 3.233656224814488e-12 3.2106042970361607e-12 2.305192777832673e-14
3.345076488085796 3.0723203569757706e-20 2.727985039364214e-12 2.703910446191973e-12 2.4074593172240886e-14
3.3482140837626964 3.096549989163514e-20 2.75207805539243e-12 2.7278649174417907e-12 2.421313795063919e-14
3.3513546224236106 3.1210021319466874e-20 2.7764118117760337e-12 2.752059514745857e-12 2.435229703017588e-14
3.3576445397418455 3.292677761532658e-20 2.9346301882504125e-12 2.909986910936994e-12 2.4643277313418656e-14
3.3702598118196083 3.915013928487168e-20 3.5024030810393634e-12 3.4771494786355704e-12 2.5253602403792317e-14
3.382922481734668 4.063521330688443e-20 3.64891732185742e-12 3.623070739735798e-12 2.5846582121622398e-14
3.389271646505754 4.1400977317407917e-20 3.724658025793766e-12 3.698510932221295e-12 2.614709357247081e-14
3.395632727569191 4.224240838011215e-20 3.8074903786952006e-12 3.781033589839713e-12 2.645678885548666e-14
3.421196662673239 4.632139499712891e-20 4.206579516214795e-12 4.1788410028522175e-12 2.7738513362577603e-14
3.4276182099114902 4.558424122912102e-20 4.14740650642621e-12 4.119382223461161e-12 2.802428296504864e-14
3.4340518103208963 4.223576319971319e-20 3.8499635918195876e-12 3.8216691512781945e-12 2.8294440541391195e-14
3.4469541582030403 3.7433687027617634e-20 3.4250549675985012e-12 3.3962422595463793e-12 2.8812708052122076e-14
3.472904465399547 3.6108459569836316e-20 3.3286737487746344e-12 3.2986667867324736e-12 3.000696204216077e-14
3.4990501388274233 3.4098310720435784e-20 3.167032080953814e-12 3.135803631718157e-12 3.12284492356562e-14
3.5253949054701885 2.6944378243585357e-20 2.5214210377216385e-12 2.489006891382205e-12 3.2414146339433395e-14
3.5519380250092896 2.0137633337189706e-20 1.898642690225596e-12 1.8650376013984568e-12 3.360508882713919e-14
3.578680990867387 1.7488495573310908e-20 1.6612877814895344e-12 1.6263775020577222e-12 3.4910279431812103e-14
3.605625307711299 1.6475526111135083e-20 1.5768461358550896e-12 1.5405617473040918e-12 3.628438855099743e-14
3.660119384959845 1.585122870156824e-20 1.5400244517867607e-12 1.5008554945713182e-12 3.916895721544303e-14
3.715437065384467 1.543884398191237e-20 1.5226290831227745e-12 1.48042266952605e-12 4.220641359672447e-14
3.8285932144167436 1.5462586112457816e-20 1.5714146208066686e-12 1.522692222460925e-12 4.872239834574342e-14
3.94519561050918 1.569627644576025e-20 1.6437456377249e-12 1.5879364874111928e-12 5.580915031370789e-14
4.06534921144712 1.6001035218611433e-20 1.7266939660516761e-12 1.663240427152509e-12 6.345353889916661e-14
4.189162171576248 1.6335709911384692e-20 1.8164967235523585e-12 1.744832178977371e-12 7.166454457498774e-14
4.316745939156006 1.6682880569331625e-20 1.9115997406562517e-12 1.831194407871729e-12 8.040533278452269e-14
4.448215356677963 1.7034631754667586e-20 2.0113515652664805e-12 1.9218042273030043e-12 8.954733796347634e-14
4.58368876423945 1.738950453345189e-20 2.1157861127032162e-12 2.0166908016019375e-12 9.9095311101279e-14
4.723288106065518 1.7750355520308493e-20 2.2254658070146328e-12 2.116363146898718e-12 1.0910266011591521e-13
4.867139040275056 1.8121449233300843e-20 2.341187047553879e-12 2.2218949702733926e-12 1.1929207728048677e-13
4.940699165968905 1.8322303151986294e-20 2.4029122336828963e-12 2.2784276943014642e-12 1.2448453938143266e-13
5.015371051989984 1.8517256265828897e-20 2.4651828567902762e-12 2.3354580256576234e-12 1.297248311326521e-13
5.091171501069577 1.8742525997866094e-20 2.5328838909076673e-12 2.397756073231598e-12 1.3512781767606872e-13
5.129500256944802 1.8852666417553388e-20 2.5669491882486393e-12 2.429108119098839e-12 1.378410691498e-13
5.168117569889187 1.8964386520245593e-20 2.6016005528420707e-12 2.4610112158468286e-12 1.405893369952418e-13
5.20702561229733 1.9102521727476313e-20 2.640279168947975e-12 2.4966835154489084e-12 1.4359565349906659e-13
5.246226572918644 1.9239922667736223e-20 2.679290461998363e-12 2.5326730567753177e-12 1.466174052230449e-13
5.265937586045735 1.9308360500676034e-20 2.6989232788602926e-12 2.5507896355101424e-12 1.481336433501502e-13
5.285722656980489 1.9376630544498277e-20 2.718642260132006e-12 2.5689890338999026e-12 1.496532262321038e-13
5.305582063971359 1.9444738609934628e-20 2.7384485060278916e-12 2.5872725264710248e-12 1.5117597955686743e-13
5.3255160863122235 1.951785028772984e-20 2.7590725238543004e-12 2.6063581455581394e-12 1.527143782961609e-13
5.365609099470188 1.970364403311994e-20 2.806305941917735e-12 2.6504082860973356e-12 1.5589765582039969e-13
5.406003951863644 1.9891140011426233e-20 2.854338439631702e-12 2.6952421709523243e-12 1.5909626867937818e-13
5.446702915881641 2.008053721484444e-20 2.903209980517318e-12 2.7409011587431614e-12 1.6230882177415593e-13
5.487708281020852 2.0281881759523286e-20 2.954395930172903e-12 2.788847666227169e-12 1.6554826394573379e-13
5.529022354014368 2.0573174038436975e-20 3.0193890718881316e-12 2.850464108254737e-12 1.6892496363339442e-13
5.570647458961463 2.087373992669359e-20 3.0865646359370487e-12 2.9142473936374577e-12 1.723172422995914e-13
5.612585937458331 2.1184433325516415e-20 3.1560893383718255e-12 2.9803656597356913e-12 1.7572367863613508e-13
5.654840148729818 2.1520999944527336e-20 3.230369582124824e-12 3.0512091019202353e-12 1.7916048020458832e-13
5.67608639626678 2.1759528141052507e-20 3.2784450111192223e-12 3.0974850160990066e-12 1.8095999502021567e-13
5.686739436050992 2.1881346257366483e-20 3.302986519248599e-12 3.1211251323591893e-12 1.8186138688940897e-13
5.6974124697621304 2.2004925910588117e-20 3.3278750023363523e-12 3.1451111638930493e-12 1.8276383844330403e-13
5.718818669136295 2.225755319866137e-20 3.3787275993843154e-12 3.1941557691730617e-12 1.8457183021125377e-13
5.740305295436557 2.2536295058907347e-20 3.433894466241143e-12 3.2474965532636036e-12 1.8639791297753916e-13
5.7835210386641895 2.3272646266372473e-20 3.572790255982768e-12 3.3826188111475158e-12 1.9017144483525169e-13
5.827062130521658 2.4106641076821743e-20 3.7286857545929966e-12 3.534687352443701e-12 1.9399840214929495e-13
5.8489554468988025 2.4707965199612217e-20 3.8360541340064725e-12 3.639984347760915e-12 1.9606978624555704e-13
5.870931020387893 2.534466926629232e-20 3.949690260644413e-12 3.751541614326056e-12 1.9814864631835616e-13
5.892989160043636 2.6019555772555087e-20 4.070098811742625e-12 3.869864005179508e-12 2.0023480656311812e-13
5.915130176081913 2.6785795640957204e-20 4.205700004076455e-12 4.0033011830524595e-12 2.023988210239959e-13
5.95966208400165 2.8957353341346773e-20 4.580890748494952e-12 4.373531685345996e-12 2.0735906314895606e-13
6.004529249263818 3.208204729058277e-20 5.113408304270092e-12 4.9004511255517085e-12 2.1295717871838243e-13
6.027089341400364 3.4260851417680196e-20 5.4811945051444904e-12 5.264988098590215e-12 2.1620640655427437e-13
6.049734195844842 3.681475842860584e-20 5.911908201140939e-12 5.692256870809827e-12 2.1965133033111231e-13
6.095279466722835 4.419673319253737e-20 7.150776847481839e-12 6.9226077587458105e-12 2.281690887360304e-13
6.141167624020661 5.547305818426758e-20 9.042791003363429e-12 8.803504942554586e-12 2.392860608088442e-13
6.164241091010745 6.266228459903034e-20 1.0253101908167779e-11 1.0006808602989918e-11 2.4629330517786335e-13
6.187401249150058 7.075215487641579e-20 1.1620301202728063e-11 1.1366818051152489e-11 2.534831515755742e-13
6.1990139391386085 7.468169081282539e-20 1.228870695572851e-11 1.2031566446088564e-11 2.5714050963995e-13
6.204828454712694 7.674323384910568e-20 1.2639773973004759e-11 1.2380786757682424e-11 2.5898721532233787e-13
6.210648424152782 7.823311711071708e-20 1.289724686700956e-11 1.2636692973372313e-11 2.60553893637247e-13
6.233982942956859 8.322325578388908e-20 1.3771452375221399e-11 1.3505464755199957e-11 2.659876200214438e-13
6.239830258556775 8.381991053846072e-20 1.3883194299958653e-11 1.361647409837983e-11 2.6672020157882557e-13
6.245683058788269 8.380593119383171e-20 1.38938987912478e-11 1.3626445049041802e-11 2.674537422059977e-13
6.257405133728602 8.35177055858709e-20 1.3872101633873291e-11 1.3603376481484473e-11 2.6872515238881444e-13
6.269149208991335 8.234652064534121e-20 1.3703240921156083e-11 1.3434109172406348e-11 2.6913174874973674e-13
6.280915325867298 7.963374472360584e-20 1.3276680686898209e-11 1.3008210968476688e-11 2.684697184215206e-13
6.304513850009849 7.303768266141269e-20 1.222272446515582e-11 1.1956544591465267e-11 2.6617987369055503e-13
6.32820103803542 6.499938203857207e-20 1.0918398180078835e-11 1.0655535616461674e-11 2.628625636171617e-13
6.3519772230701035 5.766507996245787e-20 9.722798017559007e-12 9.462924788691608e-12 2.5987322886739634e-13
6.375842739491607 5.1479595035190905e-20 8.712487169429685e-12 8.45526631239002e-12 2.5722085703966454e-13
6.399797922933955 4.6561217030808486e-20 7.90970010628793e-12 7.653915071685852e-12 2.557850346020779e-13
6.42384311029221 4.2454225988611337e-20 7.239111836096091e-12 6.984519741848182e-12 2.5459209424790843e-13
6.447978639727206 3.946387723071917e-20 6.754493289542947e-12 6.500146978362946e-12 2.5434631118000035e-13
6.472204850670314 3.695969335088083e-20 6.34965379840963e-12 6.0953658548067156e-12 2.542879436029141e-13
6.496522083828205 3.531719856619465e-20 6.09027073812875e-12 5.835275095755138e-12 2.549956423736116e-13
