Dust emission spectrum from A.P. Jones, M. Kohler, N. Ysard, M. Bocchio, and L. Verstraete (2017), A&A, 602A, 46J 
inside the DustPedia framework.

lambda    nu*dP/dnu     j_nu    j_nu(carb.) j_nu(sil)
 (um)   (erg s-1 H-1) (Jy cm2 sr-1 H-1)
0.9927057738263894 1.1983156574908648e-22 3.1576298204589834e-15 3.157629778375409e-15 4.2083574098112566e-23
1.0001793341362166 1.218462328435035e-22 3.234889247763932e-15 3.234889197102361e-15 5.06615701987497e-23
1.0077091589558085 1.238658997172184e-22 3.3132667366309254e-15 3.3132666757232605e-15 6.090766425833716e-23
1.0114953028030835 1.2487746816735948e-22 3.3528751991454363e-15 3.3528751323951062e-15 6.675032977715348e-23
1.0152956718711033 1.2589011994228674e-22 3.392763718274773e-15 3.3927636451454988e-15 7.312927551379364e-23
1.0229392996569957 1.2791747254496045e-22 3.473354946583379e-15 3.4733548588951102e-15 8.768826976550974e-23
1.0267826658714554 1.2892983341811335e-22 3.5139969717580705e-15 3.513996875781196e-15 9.597687404328797e-23
1.0306404723013447 1.299430133133446e-22 3.5549177708290685e-15 3.554917665814874e-15 1.0501419564939684e-22
1.03451277320114 1.3095696092147196e-22 3.596117540103738e-15 3.596117425239264e-15 1.1486447372234855e-22
1.0383996230291617 1.3197162572784549e-22 3.63759648505818e-15 3.637596359461034e-15 1.2559714571341044e-22
1.0403485208654093 1.3247921151740015e-22 3.658440715350848e-15 3.658440584033253e-15 1.3131759628085818e-22
1.0423010764483396 1.3298695803508368e-22 3.6793548212207725e-15 3.679354683933531e-15 1.3728724070042084e-22
1.0462171883269815 1.3400290898562556e-22 3.7213927750681045e-15 3.721392625052304e-15 1.5001580021165552e-22
1.0471985131304309 1.3425698774255674e-22 3.731945981449217e-15 3.731945828078911e-15 1.5337030581663052e-22
1.048180758391296 1.3451110141929273e-22 3.742516682614397e-15 3.742516525817813e-15 1.5679658380426417e-22
1.0501480137395462 1.3501943058409003e-22 3.763710584933196e-15 3.763710421062868e-15 1.6387032831024613e-22
1.0521189612883777 1.3552789061894646e-22 3.784974513819697e-15 3.784974342570638e-15 1.7124906044866252e-22
1.0531058218030118 1.3578181692755986e-22 3.795622937465436e-15 3.795622762408501e-15 1.7505693471825652e-22
1.0540936079674168 1.3603462391723872e-22 3.80625668839266e-15 3.806256509446026e-15 1.7894663408776433e-22
1.058054026499678 1.3704609582093456e-22 3.8489648514603764e-15 3.8489646561115114e-15 1.95348864289396e-22
1.0590464539527713 1.372990212759382e-22 3.859685202322423e-15 3.859685002653551e-15 1.9966887195653057e-22
1.06003981227728 1.3755196833278524e-22 3.87042288553858e-15 3.8704226814583685e-15 2.0408021158667899e-22
1.0620293250338977 1.3805792450263016e-22 3.8919502661679965e-15 3.891950052983735e-15 2.1318426224110116e-22
1.0660195594769086 1.3907006603536778e-22 3.935213207802864e-15 3.9352129752314034e-15 2.325714614731726e-22
1.070024785945596 1.4008247747626831e-22 3.978753968559615e-15 3.9787537149212854e-15 2.536383303057214e-22
1.0740450607676866 1.410951168874065e-22 4.022572858521415e-15 4.022572581998772e-15 2.7652264159992855e-22
1.07808044048254 1.4210794335643916e-22 4.066670206652334e-15 4.066669905279547e-15 3.013727872021815e-22
1.0861967418109137 1.4413238624890254e-22 4.155655192553994e-15 4.155654834932087e-15 3.5762190761106766e-22
1.0902777775684922 1.4514025858312353e-22 4.200437100737373e-15 4.2004367113593926e-15 3.8937798157109076e-22
1.0943741465085532 1.4614810077072019e-22 4.245495977616178e-15 4.245495553800501e-15 4.238156780036621e-22
1.1026131145906286 1.4816355528570757e-22 4.33644634702253e-15 4.336445845414718e-15 5.016078112311031e-22
1.1109141095355224 1.5017848261423153e-22 4.4285099797713746e-15 4.4285093868625266e-15 5.929088474198587e-22
1.1192775983109025 1.5219098152308093e-22 4.52164188006121e-15 4.521641180138497e-15 6.999227107889923e-22
1.1277040513999907 1.541932250484242e-22 4.6156180793554235e-15 4.615617254167175e-15 8.251882502131051e-22
1.1361939428280308 1.561940112263147e-22 4.710709043575834e-15 4.7107080719498235e-15 9.716260100087063e-22
1.1447477501889525 1.5819315533137208e-22 4.806920287269535e-15 4.8069191446783354e-15 1.1425911985920203e-21
1.1533659546722406 1.6019130456306963e-22 4.904282727339519e-15 4.904281385404447e-15 1.3419350719027437e-21
1.1707974979042381 1.6419071644370362e-22 5.102697423654487e-15 5.102695579593293e-15 1.8440611923542775e-21
1.1884924949847024 1.6818421472181782e-22 5.30580284700291e-15 5.3058003255793334e-15 2.521423575685463e-21
1.2064549276569216 1.7219972072433592e-22 5.5145868061424995e-15 5.514583375512454e-15 3.430630045829643e-21
1.2246888378427687 1.7620671733760716e-22 5.728193144143731e-15 5.728188499256033e-15 4.644887698490791e-21
1.2431983285522175 1.8020037563736982e-22 5.946556403659118e-15 5.946550145120459e-15 6.2585386604866674e-21
1.2619875648066055 1.841846703516015e-22 6.169898075783915e-15 6.169889683242228e-15 8.392541688794581e-21
1.3004222497298317 1.9209070892635453e-22 6.6307122874930785e-15 6.630697407831912e-15 1.4879661166431968e-20
1.3400274889804893 1.9993596578478049e-22 7.111710436188619e-15 7.111684537476068e-15 2.5898712548393973e-20
1.3808389325824078 2.0773705617853705e-22 7.614237683065861e-15 7.614193408771995e-15 4.4274293867019354e-20
1.4228933163050095 2.1555457850828653e-22 8.141398716764223e-15 8.141324341636958e-15 7.437512726563516e-20
1.466228494730424 2.2353491447180034e-22 8.699943950725939e-15 8.699821115456897e-15 1.2283526904109386e-19
1.5108834753276823 2.3164100955540446e-22 9.290002981960657e-15 9.289803442540159e-15 1.9953942049946089e-19
1.5568984535646726 2.3984847777241763e-22 9.912123096821386e-15 9.911803942684122e-15 3.191541372623647e-19
1.6043148490894465 2.4820361287047894e-22 1.0569808892380663e-14 1.0569305339919997e-14 5.035524606670816e-19
1.6531753430134553 2.567562600409992e-22 1.1267028510759961e-14 1.1266245709001805e-14 7.828017581563745e-19
1.7035239163302658 2.655704515588716e-22 1.2008739396201381e-14 1.2007540107125688e-14 1.199289075691389e-18
1.755405889504358 2.748524428668191e-22 1.2806975698865138e-14 1.2805164034980807e-14 1.8116638843342277e-18
1.8088679632656115 2.8459060583270334e-22 1.3664598019913983e-14 1.3661898626905437e-14 2.699393008546742e-18
1.8639582606462262 2.947724036421387e-22 1.4584530024421933e-14 1.4580561207273802e-14 3.968817148126409e-18
1.9207263702978936 3.0543117446621425e-22 1.5572139807853445e-14 1.55663797715728e-14 5.760036280644752e-18
1.979223391128241 3.1662097168285767e-22 1.6634276852267583e-14 1.6626021700276923e-14 8.255151990661305e-18
2.039501978296691 3.283905342503578e-22 1.7778052902171792e-14 1.7766365597864737e-14 1.1687304307052461e-17
2.1016163906111602 3.408975971862122e-22 1.9017210778266877e-14 1.9000858768579012e-14 1.6352009687865688e-17
2.1656225393682647 3.5421437824482705e-22 2.0361903831058598e-14 2.033928638488461e-14 2.2617446173989072e-17
2.231578038680979 3.6829371411878064e-22 2.1816034835623144e-14 2.1785098742453436e-14 3.093609316970939e-17
2.299542257339062 3.83142025193615e-22 2.3386790125785603e-14 2.3344933108294263e-14 4.185701749133217e-17
2.369576372248914 3.988127737808084e-22 2.5084716889870128e-14 2.502867781892107e-14 5.603907094905828e-17
2.4417434235010123 4.153714962762891e-22 2.692192751952053e-14 2.6847666217818037e-14 7.426130170249785e-17
2.5161083711144245 4.329742088213715e-22 2.8917503910994603e-14 2.8820067411118027e-14 9.743649987658064e-17
2.5927381535095444 4.519039869385003e-22 3.1100993649597174e-14 3.097437351511102e-14 1.2662013448616216e-16
2.6717017477616296 4.724377331740416e-22 3.3504410776801333e-14 3.3341400263823675e-14 1.630105129776592e-16
2.753070231689431 4.950086853475114e-22 3.6174250580879946e-14 3.5966298048545693e-14 2.0795253233424163e-16
2.836916847834745 5.207735933882587e-22 3.9216153524118075e-14 3.895320748532377e-14 2.629460387943041e-16
2.9233170693905177 5.523402688532506e-22 4.285998971554239e-14 4.25304118214107e-14 3.2957789413169366e-16
2.967498994190263 5.728988236917127e-22 4.512715389043043e-14 4.476004257282336e-14 3.671113176070823e-16
3.0123486681368425 5.953282550856264e-22 4.760265400021755e-14 4.719427557553556e-14 4.083784246819975e-16
3.0578761833420214 6.348840068263613e-22 5.1532797183736323e-14 5.107898050168008e-14 4.538166820562314e-16
3.1040917844459814 6.825110236204062e-22 5.623590100160352e-14 5.573257767979298e-14 5.03323321810535e-16
3.127460860933648 7.283236547160948e-22 6.046244867544707e-14 5.99325946210908e-14 5.298540543562585e-16
3.1510058709225794 7.874053815489532e-22 6.585928690627016e-14 6.53017610209268e-14 5.575258853433623e-16
3.162844764501044 8.412308783531888e-22 7.062565937120945e-14 7.005380660816601e-14 5.71852763043437e-16
3.1747281389236908 9.02709198548814e-22 7.607182622401289e-14 7.54853506273456e-14 5.864755966672898e-16
3.1986289994194426 1.0708426354563796e-21 9.09199017225647e-14 9.030320132574579e-14 6.167003968189117e-16
3.2227097969389145 1.4621769956420675e-21 1.2508077954795574e-13 1.2443203385731892e-13 6.487456906367937e-16
3.2348180950136065 1.830619878881691e-21 1.5718730608332174e-13 1.565214546282598e-13 6.658514550619962e-16
3.240889293275058 2.105907799523187e-21 1.8116445096716952e-13 1.8048957658709048e-13 6.748743800790241e-16
3.2469718861334385 2.4247721113635426e-21 2.0898681615321584e-13 2.0830260559008185e-13 6.842105631339268e-16
3.2714166318528037 4.10826970856592e-21 3.5675021022972323e-13 3.560274029401482e-13 7.228072895749155e-16
3.2744851364798273 4.213660822668238e-21 3.662452752264289e-13 3.655179150587412e-13 7.2736016768781e-16
3.2775565192852394 4.3219491721423754e-21 3.760098983012193e-13 3.7527796209735083e-13 7.319362038684124e-16
3.283707930232385 4.218629564562151e-21 3.67709920355832e-13 3.669697918642103e-13 7.401284916215818e-16
3.2898708863219004 3.8893357029466895e-21 3.396438205006583e-13 3.38896228404362e-13 7.475920962963646e-16
3.29141343181113 3.811569083442993e-21 3.330087659323272e-13 3.322592994737091e-13 7.494664586180405e-16
3.292184975758714 3.7733407208476744e-21 3.297461124230415e-13 3.2899570751233674e-13 7.504049107047956e-16
3.295272960557952 3.5337751778876e-21 3.0910052566198775e-13 3.083464688102288e-13 7.540568517589661e-16
3.3076538914384823 2.6997099095253718e-21 2.3703178822913555e-13 2.3626305928237026e-13 7.687289467652598e-16
3.310756385682612 2.528804066189378e-21 2.2223468383375065e-13 2.214622558134289e-13 7.724280203217114e-16
3.313861789986515 2.3706668173498697e-21 2.0853278597666876e-13 2.077566464355211e-13 7.761395411476074e-16
3.3200813396944477 2.1495459617257198e-21 1.8943703708794648e-13 1.886529182339796e-13 7.841188539668412e-16
3.345076488085796 1.760871742579587e-21 1.5635191685299206e-13 1.5553224896073912e-13 8.196678922529166e-16
3.3482140837626964 1.7763944808668683e-21 1.5787816394446657e-13 1.570536807941586e-13 8.244831503079759e-16
3.3513546224236106 1.792069299956165e-21 1.5942066559294793e-13 1.5859134503673387e-13 8.29320556214052e-16
3.3576445397418455 1.9030099789165788e-21 1.6960756372560641e-13 1.6876813076824086e-13 8.394329573655901e-16
3.3702598118196083 2.307142373775059e-21 2.0639882018066555e-13 2.0553817519932466e-13 8.606449813409085e-16
3.382922481734668 2.4026065084408345e-21 2.1574668354876932e-13 2.148654026730406e-13 8.812808757287634e-16
3.389271646505754 2.4519100468654705e-21 2.2058721861964068e-13 2.196954745953619e-13 8.917440242787696e-16
3.395632727569191 2.5057491505835507e-21 2.258539734860925e-13 2.2495144644948506e-13 9.025270366074327e-16
3.421196662673239 2.765921911823965e-21 2.511813484557086e-13 2.502341646925687e-13 9.471837631399218e-16
3.4276182099114902 2.717806375081104e-21 2.4727510076480333e-13 2.4631793123329525e-13 9.57169531508082e-16
3.4340518103208963 2.5005842498349516e-21 2.279385428557245e-13 2.2697191887572354e-13 9.666239800010478e-16
3.4469541582030403 2.189827152034563e-21 2.00361731926768e-13 1.9937694170822074e-13 9.847902185472763e-16
3.472904465399547 2.1045165518339787e-21 1.94005756086128e-13 1.9297914760955056e-13 1.0266084765773838e-15
3.4990501388274233 1.97415834375651e-21 1.8335872585654038e-13 1.822892797366291e-13 1.069446119911236e-15
3.5253949054701885 1.50735606065031e-21 1.4105648489275248e-13 1.3994535112636354e-13 1.1111337663888956e-15
3.5519380250092896 1.0645906785267755e-21 1.0037313104387108e-13 9.922003999517117e-14 1.1530910486998994e-15
3.578680990867387 8.915125102683439e-22 8.468760701258366e-14 8.348852093657104e-14 1.1990860760126208e-15
3.605625307711299 8.244390489762317e-22 7.890573690072292e-14 7.765817490322313e-14 1.2475619974998065e-15
3.660119384959845 7.813706278241395e-22 7.591398089146844e-14 7.456442184105696e-14 1.349559050411501e-15
3.715437065384467 7.525266470781076e-22 7.421662917303898e-14 7.275932363225533e-14 1.4573055407836645e-15
3.8285932144167436 7.50245922601178e-22 7.624516386856083e-14 7.455551331235241e-14 1.6896505562084448e-15
3.94519561050918 7.62346846326897e-22 7.983449497805256e-14 7.789032204140346e-14 1.94417293664911e-15
4.06534921144712 7.798374641927096e-22 8.415334542582453e-14 8.193249253928755e-14 2.2208528865369673e-15
4.189162171576248 8.000638273279497e-22 8.896542169625189e-14 8.644495203663061e-14 2.5204696596212763e-15
4.316745939156006 8.219488033578216e-22 9.418260310632183e-14 9.134038998634887e-14 2.8422131199729333e-15
4.448215356677963 8.450509049899157e-22 9.9778761581717e-14 9.659678684510157e-14 3.181974736615425e-15
4.58368876423945 8.693230180037175e-22 1.0577078636181272e-13 1.0223035965374567e-13 3.5404267080670167e-15
4.723288106065518 8.949993641639468e-22 1.1221130078030602e-13 1.082912554145388e-13 3.920045365767199e-15
4.867139040275056 9.225042171168646e-22 1.1918224070395898e-13 1.1487087811488872e-13 4.311362589070268e-15
4.940699165968905 9.377237844265116e-22 1.2297951489628172e-13 1.1846687555119846e-13 4.512639345083281e-15
5.015371051989984 9.528815687234426e-22 1.2685612134143595e-13 1.221390253846357e-13 4.7170959568002295e-15
5.091171501069577 9.703783965855287e-22 1.3113791647273867e-13 1.262088798328859e-13 4.929036639852783e-15
5.129500256944802 9.791029210440236e-22 1.3331310238671234e-13 1.2827707483895427e-13 5.036027547758045e-15
5.168117569889187 9.880225604458097e-22 1.355403738861872e-13 1.303956942962294e-13 5.1446795899578234e-15
5.20702561229733 9.987581844973344e-22 1.3804462400122036e-13 1.3278162900232076e-13 5.262994998899617e-15
5.246226572918644 1.0095578980910073e-21 1.4058782324142312e-13 1.3520550885925672e-13 5.382314382166437e-15
5.265937586045735 1.014983024399075e-21 1.4187436121791776e-13 1.3643202337090718e-13 5.442337847010569e-15
5.285722656980489 1.020425691754485e-21 1.4317104320884448e-13 1.376684462912634e-13 5.502596917581069e-15
5.305582063971359 1.0258864440342698e-21 1.4447801312096724e-13 1.3891492678673335e-13 5.563086334233859e-15
5.3255160863122235 1.0317112353662234e-21 1.4584424411945902e-13 1.4021998536644316e-13 5.6242587530158585e-15
5.365609099470188 1.046115913615555e-21 1.4899382567911626e-13 1.4324300593479125e-13 5.750819744325057e-15
5.406003951863644 1.0607872107660073e-21 1.522208234530449e-13 1.4634239466887533e-13 5.8784287841695896e-15
5.446702915881641 1.0757417809599765e-21 1.555289204431113e-13 1.4952187607093694e-13 6.007044372174402e-15
5.487708281020852 1.0916647579648435e-21 1.5901926439986935e-13 1.528821131346935e-13 6.137151265175838e-15
5.529022354014368 1.1138942398262233e-21 1.634789113574212e-13 1.572060929173475e-13 6.272818440073682e-15
5.570647458961463 1.1369956667351605e-21 1.6812562715081723e-13 1.6171602958460295e-13 6.409597566214308e-15
5.612585937458331 1.1610376499867356e-21 1.7297316818749927e-13 1.6642572145094027e-13 6.547446736559033e-15
5.654840148729818 1.1871157418922756e-21 1.7818979568584232e-13 1.7150281809302337e-13 6.686977592818937e-15
5.67608639626678 1.2051126608314544e-21 1.8157083026472227e-13 1.748108644362802e-13 6.7599658284421015e-15
5.686739436050992 1.2143244759711053e-21 1.833021299032681e-13 1.7650555382301332e-13 6.796576080254792e-15
5.6974124697621304 1.2236831778790563e-21 1.8506150281941046e-13 1.782282399287394e-13 6.833262890671045e-15
5.718818669136295 1.2428557287480406e-21 1.8866723198605974e-13 1.8176036841441038e-13 6.906863571649357e-15
5.740305295436557 1.2639430760993401e-21 1.9258920436195983e-13 1.8560790662856552e-13 6.9812977333943435e-15
5.7835210386641895 1.318946079416318e-21 2.0248310599359303e-13 1.9534788036866025e-13 7.135225624932723e-15
5.827062130521658 1.3814009571101944e-21 2.1366767994527264e-13 2.063758744752004e-13 7.291805470072255e-15
5.8489554468988025 1.4257928331403119e-21 2.213625625428084e-13 2.1398625345915347e-13 7.376309083654985e-15
5.870931020387893 1.4729410794531238e-21 2.295418012716541e-13 2.2208053051994084e-13 7.46127075171321e-15
5.892989160043636 1.5230631180511733e-21 2.3824455118206503e-13 2.3069786520781314e-13 7.546685974251943e-15
5.915130176081913 1.5799101652125777e-21 2.4806536558932407e-13 2.4043015105447515e-13 7.635214534848957e-15
5.95966208400165 1.7398473712305666e-21 2.7523408761543564e-13 2.6739737815505724e-13 7.836709460378464e-15
6.004529249263818 1.9695545543937403e-21 3.139181400404634e-13 3.0585479772270685e-13 8.063342317756527e-15
6.027089341400364 2.1293658716188275e-21 3.4066487060319544e-13 3.324706938189966e-13 8.194176784198827e-15
6.049734195844842 2.317012899225167e-21 3.7207815956860925e-13 3.637454120655171e-13 8.332747503092044e-15
6.095279466722835 2.8589331357329376e-21 4.625589132671384e-13 4.538859414487649e-13 8.672971818373567e-15
6.141167624020661 3.6882682865633985e-21 6.012331097546197e-13 5.921190400050329e-13 9.114069749586758e-15
6.164241091010745 4.217632671291785e-21 6.90109175984971e-13 6.807184862899626e-13 9.39068969500851e-15
6.187401249150058 4.815474552571219e-21 7.908913139492556e-13 7.812164698223157e-13 9.674844126939605e-15
6.1990139391386085 5.106612685041079e-21 8.402818165988658e-13 8.30462364100402e-13 9.819452498463927e-15
6.204828454712694 5.259530565304815e-21 8.66255879707596e-13 8.563633756120335e-13 9.892504095562678e-15
6.210648424152782 5.370643018691024e-21 8.853860283824841e-13 8.75431231180319e-13 9.954797202165313e-15
6.233982942956859 5.745120163455959e-21 9.506795663751747e-13 9.405073571278671e-13 1.0172209247307817e-14
6.239830258556775 5.7912893125302564e-21 9.592183319766164e-13 9.490157813652674e-13 1.0202550611349462e-14
6.245683058788269 5.792620393188993e-21 9.60338729402598e-13 9.501057848516517e-13 1.0232944550946418e-14
6.257405133728602 5.7761918676619975e-21 9.594123794813065e-13 9.491261335429525e-13 1.0286245938353946e-14
6.269149208991335 5.6948873438352595e-21 9.47683189038689e-13 9.373768658348505e-13 1.0306323203838507e-14
6.280915325867298 5.500087219144878e-21 9.169844016770232e-13 9.06699097871113e-13 1.0285303805910117e-14
6.304513850009849 5.023457833039575e-21 8.406666082248323e-13 8.304605451854647e-13 1.0206063039367948e-14
6.32820103803542 4.438549117418229e-21 7.45573959103971e-13 7.354867199789966e-13 1.0087239124974336e-14
6.3519772230701035 3.903732474808773e-21 6.582008104707686e-13 6.48219816289715e-13 9.980994181053516e-15
6.375842739491607 3.452786164512665e-21 5.843549300754398e-13 5.744672968970801e-13 9.887633178359802e-15
6.399797922933955 3.0935418021777494e-21 5.255229455299876e-13 5.156816640551123e-13 9.8412814748753e-15
6.42384311029221 2.7938259532240548e-21 4.763911731991568e-13 4.665868866988045e-13 9.804286500352442e-15
6.447978639727206 2.5758354555372725e-21 4.408706016815329e-13 4.310666080879538e-13 9.803993593579108e-15
6.472204850670314 2.3935685790228674e-21 4.112136882538362e-13 4.0140268959442164e-13 9.81099865941442e-15
6.496522083828205 2.274758896198044e-21 3.922705680023514e-13 3.8242278643601535e-13 9.847781566335939e-15
