Dust emission spectrum from A.P. Jones, M. Kohler, N. Ysard, M. Bocchio, and L. Verstraete (2017), A&A, 602A, 46J 
inside the DustPedia framework.

lambda    nu*dP/dnu     j_nu    j_nu(carb.) j_nu(sil)
 (um)   (erg s-1 H-1) (Jy cm2 sr-1 H-1)
0.9927057738263894 2.889846077109796e-22 7.614908553164648e-15 7.614908553162334e-15 2.3126537173089308e-27
1.0001793341362166 2.9375776621573717e-22 7.798959534505664e-15 7.79895953450288e-15 2.78615955461373e-27
1.0077091589558085 2.985240857389871e-22 7.98516723020785e-15 7.985167230204498e-15 3.352321008433049e-27
1.0114953028030835 3.0090409384241417e-22 8.079070535074048e-15 8.079070535070372e-15 3.67541449908212e-27
1.0152956718711033 3.0328168961307985e-22 8.17350172839654e-15 8.173501728392513e-15 4.02835154085107e-27
1.0229392996569957 3.080263819038507e-22 8.363868797422317e-15 8.363868797417483e-15 4.834540617458783e-27
1.0267826658714554 3.103877229706357e-22 8.45965196474429e-15 8.459651964738999e-15 5.293881863651686e-27
1.0306404723013447 3.127456076343571e-22 8.555942254834069e-15 8.555942254828276e-15 5.794996019679969e-27
1.03451277320114 3.1509980834629975e-22 8.65273552245105e-15 8.65273552244471e-15 6.341497337311015e-27
1.0383996230291617 3.174500988215561e-22 8.750027570593273e-15 8.750027570586335e-15 6.937295555423506e-27
1.0403485208654093 3.1862370736266176e-22 8.798859311889052e-15 8.798859311881796e-15 7.254989131810525e-27
1.0423010764483396 3.1979625408241113e-22 8.847814151490318e-15 8.847814151482734e-15 7.586618539873467e-27
1.0462171883269815 3.2213805050077074e-22 8.946090967597485e-15 8.94609096758919e-15 8.294036531852178e-27
1.0471985131304309 3.227227924616726e-22 8.970736262598596e-15 8.970736262590115e-15 8.480538632084481e-27
1.048180758391296 3.2330724463949656e-22 8.995411857506836e-15 8.995411857498161e-15 8.671059326312118e-27
1.0501480137395462 3.2447526583962677e-22 9.044853672590728e-15 9.044853672581664e-15 9.06448810916676e-27
1.0521189612883777 3.256420865455384e-22 9.094415862100226e-15 9.094415862090752e-15 9.475002313314966e-27
1.0531058218030118 3.2622414201643954e-22 9.119216874621564e-15 9.119216874611875e-15 9.686899667674183e-27
1.0540936079674168 3.2680295113172937e-22 9.143965578119073e-15 9.14396557810917e-15 9.903381552559862e-27
1.058054026499678 3.2911489383454393e-22 9.243252431768795e-15 9.24325243175798e-15 1.0816598741639473e-26
1.0590464539527713 3.296920391621572e-22 9.268146801427283e-15 9.268146801416227e-15 1.1057211507211695e-26
1.06003981227728 3.302688416087111e-22 9.293070091516795e-15 9.293070091505492e-15 1.130294866683812e-26
1.0620293250338977 3.3142140442484983e-22 9.343003147497645e-15 9.343003147485834e-15 1.1810213723688976e-26
1.0660195594769086 3.3372226806628363e-22 9.443213154859523e-15 9.443213154846633e-15 1.2890943229834972e-26
1.070024785945596 3.3601727154789397e-22 9.543877840840222e-15 9.543877840826157e-15 1.4066032725369635e-26
1.0740450607676866 3.3830620331919795e-22 9.644992550856289e-15 9.644992550840946e-15 1.5343295284846858e-26
1.07808044048254 3.405888535242737e-22 9.746552589752052e-15 9.74655258973532e-15 1.673115310618844e-26
1.0861967418109137 3.4513044341065536e-22 9.950873336622308e-15 9.950873336602431e-15 1.987566051051807e-26
1.0902777775684922 3.4737979635469376e-22 1.0053358033802718e-14 1.0053358033781069e-14 2.165262097616621e-26
1.0943741465085532 3.496218855115798e-22 1.0156261359527495e-14 1.0156261359503911e-14 2.358089025361517e-26
1.1026131145906286 3.540834754159308e-22 1.0363304191422652e-14 1.0363304191394712e-14 2.7941058462994375e-26
1.1109141095355224 3.5851363830691115e-22 1.0571962091297928e-14 1.0571962091264862e-14 3.3065200212425187e-26
1.1192775983109025 3.629067163226218e-22 1.078207256867582e-14 1.0782072568636741e-14 3.9079311718084296e-26
1.1277040513999907 3.6724229853800147e-22 1.0993026393369187e-14 1.0993026393323064e-14 4.61287937001425e-26
1.1361939428280308 3.7154133434031613e-22 1.1205443217686516e-14 1.1205443217632136e-14 5.438119175780715e-26
1.1447477501889525 3.7580239000980306e-22 1.1419281249928099e-14 1.1419281249864068e-14 6.402933442916567e-26
1.1533659546722406 3.8002638820880166e-22 1.1634569408802463e-14 1.163456940872717e-14 7.529495704914626e-26
1.1707974979042381 3.883768608642886e-22 1.2069924842667434e-14 1.2069924842563702e-14 1.0373484913232398e-25
1.1884924949847024 3.965611137104039e-22 1.2510538456986076e-14 1.2510538456843866e-14 1.4221267889892383e-25
1.2064549276569216 4.0464316877263565e-22 1.2958440758922281e-14 1.2958440758728265e-14 1.9401549270069438e-25
1.2246888378427687 4.1253472728012525e-22 1.3410831506494867e-14 1.3410831506231455e-14 2.634105175939315e-25
1.2431983285522175 4.2021732252609794e-22 1.386704107223763e-14 1.3867041071881714e-14 3.5591859908949956e-25
1.2619875648066055 4.276880796534133e-22 1.4326881030065963e-14 1.4326881029587317e-14 4.7864594935637e-25
1.3004222497298317 4.418698575172838e-22 1.5252751734265118e-14 1.5252751733411492e-14 8.536257421095407e-25
1.3400274889804893 4.550245461730499e-22 1.6185196100356646e-14 1.6185196098861818e-14 1.4948300283452968e-24
1.3808389325824078 4.671033478695927e-22 1.7120854500692293e-14 1.7120854498120793e-14 2.5715026500498344e-24
1.4228933163050095 4.781650638711084e-22 1.806007770441336e-14 1.80600777000656e-14 4.3477590523700314e-24
1.466228494730424 4.884759958668993e-22 1.9011409449655236e-14 1.901140944242682e-14 7.228417534423539e-24
1.5108834753276823 4.978355983139393e-22 1.9965783268426272e-14 1.9965783256603718e-14 1.1822552953740692e-23
1.5568984535646726 5.06081604851519e-22 2.0914634151170127e-14 2.091463413212782e-14 1.9042316872496966e-23
1.6043148490894465 5.132290749859076e-22 2.185598016836748e-14 2.1855980138108042e-14 3.0259436100997315e-23
1.6531753430134553 5.192997385446094e-22 2.2788012876017194e-14 2.2788012828632042e-14 4.7385144594583046e-23
1.7035239163302658 5.243657552346903e-22 2.371111569808738e-14 2.371111562494479e-14 7.314258834767527e-23
1.755405889504358 5.288441208436108e-22 2.4641926895347465e-14 2.4641926784004106e-14 1.1134336016186903e-22
1.8088679632656115 5.326318526033284e-22 2.5574281122634976e-14 2.5574280955418003e-14 1.6721697795860104e-22
1.8639582606462262 5.356591968637336e-22 2.6502947843792196e-14 2.6502947595939784e-14 2.478524150723615e-22
1.9207263702978936 5.379767120518455e-22 2.7428269521215277e-14 2.742826915849707e-14 3.627182028543091e-22
1.979223391128241 5.397021031513312e-22 2.835426268150885e-14 2.8354262157209426e-14 5.242994336424694e-22
2.039501978296691 5.4097623749412975e-22 2.928678864311087e-14 2.928678789428344e-14 7.488274160474907e-22
2.1016163906111602 5.421936988640212e-22 3.024665453512408e-14 3.024665347791855e-14 1.0572055392586285e-21
2.1656225393682647 5.435832762279624e-22 3.124771628292074e-14 3.1247714806989535e-14 1.475931210525031e-21
2.231578038680979 5.451613322524838e-22 3.229286343893218e-14 3.22928614007578e-14 2.0381743765681914e-21
2.299542257339062 5.470648439750913e-22 3.3392553805017355e-14 3.339255102003331e-14 2.784984050707476e-21
2.369576372248914 5.495967184848989e-22 3.456879767440079e-14 3.45687939077445e-14 3.766656298948031e-21
2.4417434235010123 5.531146336803582e-22 3.5849624279524214e-14 3.584961923549459e-14 5.044029623425631e-21
2.5161083711144245 5.582311546589915e-22 3.728317130489925e-14 3.728316461477818e-14 6.6901210781478506e-21
2.5927381535095444 5.659487319359234e-22 3.8949795590832294e-14 3.8949786799225195e-14 8.79160708382554e-21
2.6717017477616296 5.774642004139494e-22 4.095269370120066e-14 4.095268225137573e-14 1.144982493315805e-20
2.753070231689431 5.94579513790107e-22 4.345068876317084e-14 4.345067398095965e-14 1.4782211173045187e-20
2.836916847834745 6.213772766427533e-22 4.6791978292672766e-14 4.6791959368456535e-14 1.8924216225880426e-20
2.9233170693905177 6.668492560411294e-22 5.174555227537381e-14 5.174552824868772e-14 2.4026686077948517e-20
2.967498994190263 7.054655609566669e-22 5.556941578016172e-14 5.5569388830978776e-14 2.6949182930436808e-20
3.0123486681368425 7.505648435172237e-22 6.001542551602715e-14 6.001539532861444e-14 3.0187412702985574e-20
3.0578761833420214 8.514763155632287e-22 6.911334323259412e-14 6.911330945318226e-14 3.377941186951152e-20
3.1040917844459814 9.815125988566773e-22 8.08723133120108e-14 8.087227558197278e-14 3.7730038068346436e-20
3.127460860933648 1.1190739381771692e-21 9.290093780826405e-14 9.290089794625987e-14 3.9862004156538187e-20
3.1510058709225794 1.3023562022672763e-21 1.0893023185916405e-13 1.0893018976252987e-13 4.2096634167816656e-20
3.162844764501044 1.4729635996402844e-21 1.23662870837593e-13 1.2366282757969412e-13 4.325789884312337e-20
3.1747281389236908 1.671366751026892e-21 1.4084704270778013e-13 1.4084699826163474e-13 4.444614539416304e-20
3.1986289994194426 2.2247724748199595e-21 1.888943230949058e-13 1.8889427618341082e-13 4.6911494985329645e-20
3.2227097969389145 3.529285465666162e-21 3.019099456553458e-13 3.019098961177094e-13 4.9537636409202377e-20
3.2348180950136065 4.766373341285195e-21 4.0926758960012424e-13 4.0926753865708757e-13 5.094303663990253e-20
3.240889293275058 5.691256832152149e-21 4.896004561754526e-13 4.896004044907245e-13 5.168472815725605e-20
3.2469718861334385 6.761203899059893e-21 5.827361959523074e-13 5.82736143499854e-13 5.2452453181558125e-20
3.2714166318528037 1.246848895062883e-20 1.082727369410353e-12 1.0827273137736233e-12 5.563672951344874e-20
3.2744851364798273 1.2825267051567683e-20 1.1147535738720018e-12 1.114753517857205e-12 5.601479661077076e-20
3.2775565192852394 1.3192292783497403e-20 1.1477304499219502e-12 1.1477303935269012e-12 5.639504884954034e-20
3.283707930232385 1.2839319807295109e-20 1.1191182329500276e-12 1.1191181758697575e-12 5.70802701923855e-20
3.2898708863219004 1.171994818519276e-20 1.0234673172266372e-12 1.0234672595179344e-12 5.770870261869266e-20
3.29141343181113 1.1455972577726577e-20 1.0008842046796306e-12 1.0008841468129743e-12 5.786665608098963e-20
3.292184975758714 1.1326264337092141e-20 9.897838307569683e-13 9.897837728112082e-13 5.794575993931741e-20
3.295272960557952 1.0507533679068496e-20 9.19097571326712e-13 9.19097513072375e-13 5.82543368621641e-20
3.3076538914384823 7.671204578280777e-21 6.735239710925452e-13 6.735239115959785e-13 5.949656692303033e-20
3.310756385682612 7.093940308110134e-21 6.234249630434958e-13 6.234249032332026e-13 5.981029313592618e-20
3.313861789986515 6.561324535972272e-21 5.771588293933759e-13 5.771587692680826e-13 6.012529311546718e-20
3.3200813396944477 5.814389202185794e-21 5.124154972959688e-13 5.124154364951813e-13 6.080078745305832e-20
3.345076488085796 4.481918620172872e-21 3.9796002769433583e-13 3.9795996388666503e-13 6.380767075251932e-20
3.3482140837626964 4.531881558825969e-21 4.0277379119759435e-13 4.0277372698251407e-13 6.421508024402413e-20
3.3513546224236106 4.582396883496167e-21 4.0764537464922715e-13 4.0764531002456953e-13 6.462465752032501e-20
3.3576445397418455 4.951586113883982e-21 4.413147942773979e-13 4.413147287969817e-13 6.548041617945508e-20
3.3702598118196083 6.3133207113493764e-21 5.647947699528129e-13 5.647947026758758e-13 6.727693711970633e-20
3.382922481734668 6.623458013052056e-21 5.947661820278016e-13 5.947661129946977e-13 6.903310394477424e-20
3.389271646505754 6.78413056861711e-21 6.103374366432607e-13 6.103373667177532e-13 6.992550772970072e-20
3.395632727569191 6.957262473739072e-21 6.270880602368806e-13 6.270879893914315e-13 7.084544916639662e-20
3.421196662673239 7.788574950266417e-21 7.073029611548853e-13 7.073028864880025e-13 7.466688299182417e-20
3.4276182099114902 7.62103250098222e-21 6.933869891875515e-13 6.933869136565841e-13 7.553096735345876e-20
3.4340518103208963 6.886890666877551e-21 6.277684199276111e-13 6.277683435740328e-13 7.635357829753762e-20
3.4469541582030403 5.841337295637425e-21 5.344624831393382e-13 5.344624051957019e-13 7.794363655520986e-20
3.472904465399547 5.548296275038875e-21 5.114720589347399e-13 5.114719773396712e-13 8.159506848101507e-20
3.4990501388274233 5.1001124547141544e-21 4.73695600142194e-13 4.736955147819783e-13 8.536021570712715e-20
3.5253949054701885 3.5051728731182984e-21 3.2800967026343386e-13 3.280095812030155e-13 8.906041845562283e-20
3.5519380250092896 2.006122012295102e-21 1.891438199597445e-13 1.8914372714404374e-13 9.28157007992969e-20
3.578680990867387 1.4117219822548721e-21 1.341039582363687e-13 1.3410386129392193e-13 9.694244674529932e-20
3.605625307711299 1.1712782387540058e-21 1.121011585506913e-13 1.1210105723615315e-13 1.0131453816156024e-19
3.660119384959845 9.958208919462108e-22 9.674887367220566e-14 9.674876306356531e-14 1.1060864035507192e-19
3.715437065384467 8.715387000273154e-22 8.595398549809235e-14 8.595386493125106e-14 1.2056684129494853e-19
3.8285932144167436 8.083041718278408e-22 8.214544348735702e-14 8.214530094179415e-14 1.4254556285231264e-19
3.94519561050918 7.9597075152743335e-22 8.335565795499456e-14 8.335549054111221e-14 1.6741388235767029e-19
4.06534921144712 8.04530167433312e-22 8.681796937724614e-14 8.681777396944655e-14 1.9540779957170183e-19
4.189162171576248 8.251798740305822e-22 9.175827347872165e-14 9.175804661208345e-14 2.2686663820519306e-19
4.316745939156006 8.546359135504724e-22 9.79280396996845e-14 9.792777767416116e-14 2.6202552332062165e-19
4.448215356677963 8.917907749997402e-22 1.0529753721822895e-13 1.0529723638761142e-13 3.0083061751204017e-19
4.58368876423945 9.367687538338623e-22 1.139769288057196e-13 1.1397658508150666e-13 3.4372421294735033e-19
4.723288106065518 9.90604632108424e-22 1.241978919523801e-13 1.2419750055796764e-13 3.9139441244879155e-19
4.867139040275056 1.0553783335841151e-21 1.3634881256161328e-13 1.3634836917563089e-13 4.433859823789731e-19
4.940699165968905 1.0944883539934509e-21 1.4353869345018504e-13 1.4353822215583145e-13 4.712943535870027e-19
5.015371051989984 1.1349792747390509e-21 1.5109859747754176e-13 1.5109809697220053e-13 5.005053412361604e-19
5.091171501069577 1.184443321520802e-21 1.6006686660670915e-13 1.6006633502999929e-13 5.315767098257097e-19
5.129500256944802 1.2098254445747374e-21 1.6472791562164052e-13 1.6472736797917606e-13 5.476424644461623e-19
5.168117569889187 1.236289118799149e-21 1.695984445110777e-13 1.6959788034053218e-13 5.641705455311384e-19
5.20702561229733 1.2688109457271532e-21 1.7537030749809603e-13 1.7536972553864302e-13 5.819594530453441e-19
5.246226572918644 1.3021607332136191e-21 1.8133476380019907e-13 1.8133416361775077e-13 6.00182448362193e-19
5.265937586045735 1.3191543763714437e-21 1.8439144300598e-13 1.8439083354670596e-13 6.094592740639063e-19
5.285722656980489 1.3363650713907506e-21 1.8749898490884876e-13 1.8749836606114893e-13 6.188476997699404e-19
5.305582063971359 1.3537963258724112e-21 1.9065833696305047e-13 1.9065770861427357e-13 6.283487769200773e-19
5.3255160863122235 1.3725310989678748e-21 1.9402305005272555e-13 1.940224120408582e-13 6.380118673812546e-19
5.365609099470188 1.4192527053008292e-21 2.0213810670116326e-13 2.0213744863766847e-13 6.580634947803042e-19
5.406003951863644 1.467754302851951e-21 2.1061977966866477e-13 2.106191010548045e-13 6.786138602579891e-19
5.446702915881641 1.5181221366878717e-21 2.1948752126105143e-13 2.1948682158791288e-13 6.996731385809525e-19
5.487708281020852 1.5725608652382406e-21 2.290698405254009e-13 2.290691192124029e-13 7.213129979510418e-19
5.529022354014368 1.6483395863489238e-21 2.4191593015662184e-13 2.419151861284519e-13 7.440281698694551e-19
5.570647458961463 1.7285952085191158e-21 2.5560445129635503e-13 2.5560368397206075e-13 7.673242942210646e-19
5.612585937458331 1.813650685554183e-21 2.7020045824467553e-13 2.7019966703033706e-13 7.912143385131658e-19
5.654840148729818 1.9071715602178408e-21 2.8627243213147847e-13 2.8627161633759164e-13 8.15793886689423e-19
5.67608639626678 1.970926975406708e-21 2.969538524878083e-13 2.969530238111205e-13 8.286766878404922e-19
5.686739436050992 2.0037920117189278e-21 3.0247215707111687e-13 3.024713218892918e-13 8.351818250749478e-19
5.6974124697621304 2.0373362982775422e-21 3.0811285463715095e-13 3.0811201290735413e-13 8.417297968694132e-19
5.718818669136295 2.106528143059571e-21 3.1977390831366073e-13 3.1977305335837424e-13 8.549552863882164e-19
5.740305295436557 2.182816998529831e-21 3.325996217424438e-13 3.325987533090462e-13 8.684333976328689e-19
5.7835210386641895 2.380841739096001e-21 3.6550412312888794e-13 3.655032265836327e-13 8.965452552114854e-19
5.827062130521658 2.6090234602459573e-21 4.035497346402027e-13 4.0354880901666313e-13 9.25623539604089e-19
5.8489554468988025 2.7691787347145127e-21 4.2993097356601165e-13 4.2993003227908527e-13 9.412869263722324e-19
5.870931020387893 2.941062547890739e-21 4.583325187359781e-13 4.583315615490845e-13 9.571868935448346e-19
5.892989160043636 3.1256194625207944e-21 4.889237991443335e-13 4.88922825817213e-13 9.733271205921895e-19
5.915130176081913 3.3355469092624195e-21 5.237219695812201e-13 5.237209795014499e-13 9.900797702415754e-19
5.95966208400165 3.922684642715747e-21 6.205466907578942e-13 6.205456631464073e-13 1.0276114869283106e-18
6.004529249263818 4.769177159232474e-21 7.601369660007003e-13 7.601358961587605e-13 1.069841939832232e-18
6.027089341400364 5.35769244248149e-21 8.571460766684039e-13 8.571449826446609e-13 1.0940237428639847e-18
6.049734195844842 6.053225394858904e-21 9.72058880261846e-13 9.72057760555149e-13 1.1197066969354386e-18
6.095279466722835 8.06256319602832e-21 1.3044762829496485e-12 1.3044751010183673e-12 1.1819312813995718e-18
6.141167624020661 1.1155212580824555e-20 1.818436900150842e-12 1.8184356383190366e-12 1.2618318049882156e-18
6.164241091010745 1.3130215352549989e-20 2.1484284677352377e-12 2.148427156392266e-12 1.3113429714114013e-18
6.187401249150058 1.538016729294475e-20 2.5260315647564703e-12 2.5260302018169935e-12 1.3629394762157685e-18
6.1990139391386085 1.647876265322842e-20 2.711543927762154e-12 2.711542538460697e-12 1.3893014572484363e-18
6.204828454712694 1.705747443849635e-20 2.8094023490959864e-12 2.809400946397485e-12 1.402698501962185e-18
6.210648424152782 1.7479904511818785e-20 2.8816778881714512e-12 2.8816764738621528e-12 1.4143092983253428e-18
6.233982942956859 1.891505555999118e-20 3.129987938653949e-12 3.1299864827582926e-12 1.4558956548968337e-18
6.239830258556775 1.909848692926486e-20 3.1633057488476047e-12 3.1633042864377273e-12 1.4624098772368255e-18
6.245683058788269 1.9114338553242824e-20 3.1689008347889867e-12 3.1688993658370098e-12 1.468951976408263e-18
6.257405133728602 1.9074785101167123e-20 3.1682785789130598e-12 3.1682770980672592e-12 1.4808457994131552e-18
6.269149208991335 1.8792352709255288e-20 3.1272254690561055e-12 3.127223981777131e-12 1.487278974696689e-18
6.280915325867298 1.8084276237647794e-20 3.0150429556496546e-12 3.0150414687318415e-12 1.4869178132695506e-18
6.304513850009849 1.6338200780735975e-20 2.734168433643826e-12 2.734166953650348e-12 1.4799934775671211e-18
6.32820103803542 1.4173956810269077e-20 2.380898085306746e-12 2.3808966190195893e-12 1.4662871558223145e-18
6.3519772230701035 1.2189177135444137e-20 2.055193669467347e-12 2.0551922149236613e-12 1.4545436858834842e-18
6.375842739491607 1.0519445348293385e-20 1.7803273814386374e-12 1.7803259364428361e-12 1.444995801147268e-18
6.399797922933955 9.181109754642757e-21 1.5596633729330594e-12 1.5596619297497976e-12 1.4431832618120668e-18
6.42384311029221 8.068422818841531e-21 1.3757927218405048e-12 1.3757912787965048e-12 1.4430440004059597e-18
6.447978639727206 7.257495539594422e-21 1.2421664661707405e-12 1.2421650169859704e-12 1.4491847703733331e-18
6.472204850670314 6.581950400055715e-21 1.1307752464797312e-12 1.1307737897909155e-12 1.45668881565856e-18
6.496522083828205 6.14280276471847e-21 1.0592950020637008e-12 1.05929353263404e-12 1.4694296606848734e-18
