Dust emission spectrum from A.P. Jones, M. Kohler, N. Ysard, M. Bocchio, and L. Verstraete (2017), A&A, 602A, 46J 
inside the DustPedia framework.

lambda    nu*dP/dnu     j_nu    j_nu(carb.) j_nu(sil)
 (um)   (erg s-1 H-1) (Jy cm2 sr-1 H-1)
0.9927057738263894 8.973827842424916e-25 2.3646546068035528e-17 2.364654606414347e-17 3.89204814103286e-27
1.0001793341362166 9.121489328352548e-25 2.4216594196867148e-17 2.421659419217912e-17 4.688022515710161e-27
1.0077091589558085 9.268935916427527e-25 2.4793310447810032e-17 2.4793310442170537e-17 5.639498238159934e-27
1.0114953028030835 9.34256064359171e-25 2.5084140748617828e-17 2.5084140742435448e-17 6.1823699750571316e-27
1.0152956718711033 9.416110130422903e-25 2.5376603686154273e-17 2.537660367937897e-17 6.775302377066036e-27
1.0229392996569957 9.562882499366146e-25 2.5966183174151214e-17 2.5966183166021815e-17 8.129400944724464e-27
1.0267826658714554 9.635926888434807e-25 2.626282607240614e-17 2.626282606350538e-17 8.900759715585132e-27
1.0306404723013447 9.708864051012132e-25 2.6561038157764553e-17 2.6561038148022414e-17 9.742141491421838e-27
1.03451277320114 9.781687029403055e-25 2.686080682594247e-17 2.686080681528288e-17 1.0659591146121207e-26
1.0383996230291617 9.854388906418978e-25 2.7162119319730844e-17 2.716211930807119e-17 1.1659646388830018e-26
1.0403485208654093 9.890692281698023e-25 2.7313350473570613e-17 2.7313350461377772e-17 1.2192838106473104e-26
1.0423010764483396 9.92696280672512e-25 2.7464962732185837e-17 2.7464962719436455e-17 1.2749375395504982e-26
1.0462171883269815 9.999401898158758e-25 2.776932400982577e-17 2.776932399588936e-17 1.3936417102664375e-26
1.0471985131304309 1.0017489810701992e-24 2.784564995227253e-17 2.784564993802319e-17 1.4249335632071697e-26
1.048180758391296 1.0035568767620194e-24 2.7922069729596055e-17 2.7922069715027076e-17 1.4568984006402778e-26
1.0501480137395462 1.0071699393018087e-24 2.807518995583305e-17 2.807518994060402e-17 1.522902433523347e-26
1.0521189612883777 1.0107792933043417e-24 2.822868301706443e-17 2.822868300114675e-17 1.5917673182216566e-26
1.0531058218030118 1.0125797743637659e-24 2.830549115158135e-17 2.8305491135308237e-17 1.6273115672687377e-26
1.0540936079674168 1.0143701920126118e-24 2.8382136963918037e-17 2.8382136947281804e-17 1.6636234384261972e-26
1.058054026499678 1.0215216943201962e-24 2.868962499727104e-17 2.8689624979103164e-17 1.8167874584554084e-26
1.0590464539527713 1.0233069762353177e-24 2.87667221288557e-17 2.876672211028431e-17 1.8571387698031288e-26
1.06003981227728 1.0250912001185271e-24 2.884390887889099e-17 2.884390885990751e-17 1.8983477690721864e-26
1.0620293250338977 1.0286564328135453e-24 2.89985503686739e-17 2.8998550348839813e-17 1.9834085498052262e-26
1.0660195594769086 1.03577375221391e-24 2.9308899220419726e-17 2.9308899198773654e-17 2.16460817236005e-26
1.070024785945596 1.0428730024161807e-24 2.962065757132264e-17 2.9620657547706684e-17 2.3615957981640777e-26
1.0740450607676866 1.0499535385982337e-24 2.993381131994896e-17 2.9933811294192214e-17 2.5756753583454795e-26
1.07808044048254 1.0570147213273332e-24 3.024834624784549e-17 3.024834621976297e-17 2.808252125633631e-26
1.0861967418109137 1.0710639831316473e-24 3.088114142072274e-17 3.0881141387372035e-17 3.3350700783907916e-26
1.0902777775684922 1.0780223578083453e-24 3.119854650506373e-17 3.119854646873674e-17 3.6326982350582354e-26
1.0943741465085532 1.0849583822493922e-24 3.151725149645988e-17 3.151725145690375e-17 3.955612780494608e-26
1.1026131145906286 1.0987609570057859e-24 3.2158501657649826e-17 3.2158501610793985e-17 4.685584189883505e-26
1.1109141095355224 1.1124669217426225e-24 3.280477189104241e-17 3.2804771835610913e-17 5.543149755640911e-26
1.1192775983109025 1.1260588324122304e-24 3.345556172312209e-17 3.3455561657629184e-17 6.549290738115999e-26
1.1277040513999907 1.1394735058925817e-24 3.410898574235418e-17 3.41089856650721e-17 7.728207938058182e-26
1.1361939428280308 1.152776009624347e-24 3.476696917583093e-17 3.476696908475319e-17 9.107774924793559e-26
1.1447477501889525 1.1659620046893932e-24 3.542938632702908e-17 3.5429386219828514e-17 1.0720055556973253e-25
1.1533659546722406 1.1790344462072787e-24 3.609633047963654e-17 3.609633035361752e-17 1.2601902117242885e-25
1.1707974979042381 1.2048813028848324e-24 3.744514216885046e-17 3.744514199535324e-17 1.7349721432636015e-25
1.1884924949847024 1.2302195463978943e-24 3.88104340381346e-17 3.8810433800453157e-17 2.3768145036598667e-25
1.2064549276569216 1.255248399538276e-24 4.0198533617871275e-17 4.019853329384933e-17 3.24021952665032e-25
1.2246888378427687 1.2796952976640079e-24 4.160080808172149e-17 4.160080764213483e-17 4.395866744701778e-25
1.2431983285522175 1.3035039146656408e-24 4.301522415551626e-17 4.301522356200626e-17 5.935100090453629e-25
1.2619875648066055 1.3266665847084652e-24 4.444125340384716e-17 4.444125260631058e-17 7.975365814864492e-25
1.3004222497298317 1.3706737889066904e-24 4.7313811193922623e-17 4.731380977388175e-17 1.4200408767233546e-24
1.3400274889804893 1.411554679620763e-24 5.020891617427052e-17 5.02089136917326e-17 2.482537928558474e-24
1.3808389325824078 1.4491688401047042e-24 5.311674380312185e-17 5.311673953991745e-17 4.2632043863119184e-24
1.4228933163050095 1.4837098503164504e-24 5.603904846285794e-17 5.603904126779718e-17 7.195060769813891e-24
1.466228494730424 1.516014551529696e-24 5.900304951447368e-17 5.900303757440572e-17 1.1940067956674236e-23
1.5108834753276823 1.5454755266881511e-24 6.198156483187873e-17 6.19815453404377e-17 1.9491441016551082e-23
1.5568984535646726 1.571604785802252e-24 6.494908886270604e-17 6.494905753002997e-17 3.1332676058480055e-23
1.6043148490894465 1.594464169421e-24 6.790062949374954e-17 6.790057980440938e-17 4.968934016473223e-23
1.6531753430134553 1.6141373000187213e-24 7.08318892660611e-17 7.083181161563626e-17 7.765042481916007e-23
1.7035239163302658 1.6308639185829523e-24 7.374547760856199e-17 7.374535800496689e-17 1.1960359507446455e-22
1.755405889504358 1.645952595081919e-24 7.669451530730033e-17 7.669433363757703e-17 1.816697232907679e-22
1.8088679632656115 1.6591023224165122e-24 7.966168188648682e-17 7.966140967042587e-17 2.722160609606423e-22
1.8639582606462262 1.670114011223327e-24 8.26326604523855e-17 8.263225791030019e-17 4.0254208532189455e-22
1.9207263702978936 1.6791614012012157e-24 8.561056724204435e-17 8.560997956282797e-17 5.876792163575426e-22
1.979223391128241 1.6866261657479555e-24 8.86100703886161e-17 8.860922302510037e-17 8.473635157279432e-22
2.039501978296691 1.6929600608584184e-24 9.165164760887789e-17 9.165044047286035e-17 1.2071360175166652e-21
2.1016163906111602 1.6994020256104178e-24 9.480233003928638e-17 9.480063030601768e-17 1.69973326870796e-21
2.1656225393682647 1.706675978771128e-24 9.810774007173725e-17 9.810537363465644e-17 2.3664370808116097e-21
2.231578038680979 1.71484311661457e-24 1.0157946154255119e-16 1.0157620290508994e-16 3.258637461283723e-21
2.299542257339062 1.7243391907753992e-24 1.0525276818681722e-16 1.0524832863445681e-16 4.439552360383221e-21
2.369576372248914 1.7361101605379042e-24 1.0919868853211745e-16 1.091927023847921e-16 5.9861473253302094e-21
2.4417434235010123 1.751270011052254e-24 1.13506980443593e-16 1.1349898957090104e-16 7.990872691940417e-21
2.5161083711144245 1.771719917628e-24 1.1832972173252885e-16 1.1831915786909985e-16 1.0563863428997527e-20
2.5927381535095444 1.8005632407541662e-24 1.2391859230047995e-16 1.2390475750411776e-16 1.383479636224731e-20
2.6717017477616296 1.8414886290017734e-24 1.3059496973785362e-16 1.305770158330439e-16 1.795390480967998e-20
2.753070231689431 1.900040309885328e-24 1.3885116830892015e-16 1.3882807475071271e-16 2.309355820744105e-20
2.836916847834745 1.988787116675015e-24 1.49762933229544e-16 1.497334827571361e-16 2.945047240790103e-20
2.9233170693905177 2.1353991107685145e-24 1.6570072668453831e-16 1.6566348629772505e-16 3.7240386813275726e-20
2.967498994190263 2.2577174406691087e-24 1.7784006210668962e-16 1.7779838289127207e-16 4.167921541754182e-20
3.0123486681368425 2.4000752339401383e-24 1.9191084911518431e-16 1.9186426400743302e-16 4.658510775129343e-20
3.0578761833420214 2.714337367099913e-24 2.203196103902687e-16 2.202675968229841e-16 5.2013567284629877e-20
3.1040917844459814 3.118224733600551e-24 2.569279782315141e-16 2.568700123645389e-16 5.796586697527915e-20
3.127460860933648 3.543481044090789e-24 2.9416529227555287e-16 2.9410412150702487e-16 6.117076852800202e-20
3.1510058709225794 4.109391691989769e-24 3.437131784908576e-16 3.436486538799633e-16 6.452461089424393e-20
3.162844764501044 4.635487334086112e-24 3.8917300577175206e-16 3.891067404434934e-16 6.626532825871344e-20
3.1747281389236908 5.2469854368129204e-24 4.4216649724055625e-16 4.420984522206773e-16 6.804501987896317e-20
3.1986289994194426 6.951579414223836e-24 5.902239005346186e-16 5.901521676886313e-16 7.173284598760031e-20
3.2227097969389145 1.0967260739553291e-23 9.381856826482466e-16 9.38110028061601e-16 7.565458664553893e-20
3.2348180950136065 1.477437324949754e-23 1.268610680430669e-15 1.2685329293082792e-15 7.775112238959614e-20
3.240889293275058 1.7620530854805545e-23 1.5158373974319709e-15 1.5157585403203618e-15 7.885711160878318e-20
3.2469718861334385 2.091320496271303e-23 1.8024721169608304e-15 1.8023921153609773e-15 8.000159985360014e-20
3.2714166318528037 3.8472025424492646e-23 3.3407989571702143e-15 3.3407142144513763e-15 8.474271883797033e-20
3.2744851364798273 3.9569797264312696e-23 3.439349273619323e-15 3.439263969005959e-15 8.530461336488789e-20
3.2775565192852394 4.0699062136216645e-23 3.540821422295454e-15 3.5407355526754762e-15 8.586961997726033e-20
3.283707930232385 3.961370308543968e-23 3.452863396423485e-15 3.452776510049624e-15 8.688637386197208e-20
3.2898708863219004 3.6170625976758176e-23 3.158670409278089e-15 3.1585825917368134e-15 8.781754127510234e-20
3.29141343181113 3.535863403517223e-23 3.0892094114871354e-15 3.0891213599639894e-15 8.805152314619132e-20
3.292184975758714 3.4959645674638796e-23 3.0550666122484267e-15 3.0549784435554514e-15 8.816869297613712e-20
3.295272960557952 3.244159169006838e-23 2.8376771412792643e-15 2.837588515715011e-15 8.86255642532137e-20
3.3076538914384823 2.3717191937660803e-23 2.082345364930603e-15 2.0822549012357882e-15 9.046369481435375e-20
3.310756385682612 2.1941248838075788e-23 1.92822629623305e-15 1.928135368571061e-15 9.092766198858497e-20
3.313861789986515 2.0302543516937692e-23 1.785888228162069e-15 1.7857968347517866e-15 9.139341028302203e-20
3.3200813396944477 1.8004690140719044e-23 1.5867328332007946e-15 1.5866404406707168e-15 9.239253007828888e-20
3.345076488085796 1.3907735977959966e-23 1.2349003772721292e-15 1.2348035386073675e-15 9.683866476145941e-20
3.3482140837626964 1.4061799638233298e-23 1.2497511856464834e-15 1.2496537448883344e-15 9.744075814861661e-20
3.3513546224236106 1.4217560878307383e-23 1.2647797818887149e-15 1.2646817359791061e-15 9.804590960885875e-20
3.3576445397418455 1.535420739628946e-23 1.3684582520712573e-15 1.368358941925446e-15 9.931014581162239e-20
3.3702598118196083 1.9544810360545975e-23 1.7484945207221293e-15 1.7483925579432437e-15 1.0196277888515712e-19
3.382922481734668 2.0500618910142583e-23 1.8408925993589793e-15 1.840788046624346e-15 1.0455273463335064e-19
3.389271646505754 2.099574810095676e-23 1.8888921648448893e-15 1.8887862969953944e-15 1.058678494951301e-19
3.395632727569191 2.1529451962424167e-23 1.9405423210695464e-15 1.9404350977763495e-15 1.0722329319740405e-19
3.421196662673239 2.4092382032820898e-23 2.1878987185590463e-15 2.1877858708484617e-15 1.1284771058457167e-19
3.4276182099114902 2.357765211461837e-23 2.145173532557394e-15 2.1450594169510028e-15 1.1411560639108735e-19
3.4340518103208963 2.1319214163040834e-23 1.9433340874131307e-15 1.943218766430931e-15 1.1532098219964521e-19
3.4469541582030403 1.8102525979699358e-23 1.6563195200917983e-15 1.6562018728998764e-15 1.1764719192147944e-19
3.472904465399547 1.7202672297466338e-23 1.5858356841448723e-15 1.5857126953462328e-15 1.2298879863961655e-19
3.4990501388274233 1.5825692395238592e-23 1.4698814826914363e-15 1.4697529976493001e-15 1.2848504213537467e-19
3.5253949054701885 1.092094205524425e-23 1.0219680261646934e-15 1.021834154296928e-15 1.3387186776535132e-19
3.5519380250092896 6.309841942204037e-24 5.949127724914894e-16 5.947734474786784e-16 1.393250128107903e-19
3.578680990867387 4.482914538789873e-24 4.258463009316171e-16 4.2570099135866886e-16 1.4530957294812453e-19
3.605625307711299 3.745493182048233e-24 3.584751352488033e-16 3.58323497718144e-16 1.5163753065931088e-19
3.660119384959845 3.210728173500061e-24 3.1193795688163567e-16 3.1177291469186053e-16 1.6504218977509175e-19
3.715437065384467 2.8332849921178453e-24 2.794277949066717e-16 2.7924845874287544e-16 1.7933616379622183e-19
3.8285932144167436 2.649206861053243e-24 2.6923066844855797e-16 2.69020032386128e-16 2.1063606242996118e-19
3.94519561050918 2.6221164150611503e-24 2.74593304581344e-16 2.7434764263358935e-16 2.4566194775460784e-19
4.06534921144712 2.6596737876395176e-24 2.87009097726459e-16 2.867244775871056e-16 2.846201393533651e-19
4.189162171576248 2.73480592898621e-24 3.0410469067480665e-16 3.0377684754115714e-16 3.278431336495273e-19
4.316745939156006 2.837403504829554e-24 3.251224979659864e-16 3.24747015041922e-16 3.754829240645334e-19
4.448215356677963 2.964060994554085e-24 3.499793131312112e-16 3.495520579086053e-16 4.2725522260586923e-19
4.58368876423945 3.1151694326191892e-24 3.7902357778936053e-16 3.7854002868581944e-16 4.835491035410964e-19
4.723288106065518 3.293937564683718e-24 4.1298020269271006e-16 4.1243515236966794e-16 5.450503230420827e-19
4.867139040275056 3.506784971053849e-24 4.530564552034124e-16 4.5244565887524e-16 6.107963281723715e-19
4.940699165968905 3.6341078949235236e-24 4.766017812716225e-16 4.75956227053004e-16 6.455542186185805e-19
5.015371051989984 3.765746873832318e-24 5.013299218369624e-16 5.006483759233033e-16 6.81545913659215e-19
5.091171501069577 3.925235210858327e-24 5.3046025038132905e-16 5.297407807516422e-16 7.194696296868932e-19
5.129500256944802 4.0069955604892744e-24 5.455861666197497e-16 5.448472561157131e-16 7.389105040365406e-19
5.168117569889187 4.0921123242732526e-24 5.613702122004248e-16 5.606113984941473e-16 7.588137062775216e-19
5.20702561229733 4.196035652646152e-24 5.799603677408455e-16 5.79180077635009e-16 7.802901058367623e-19
5.246226572918644 4.3025113573372975e-24 5.991540528218663e-16 5.9835188740556665e-16 8.021654162993926e-19
5.265937586045735 4.3567314496560554e-24 6.089840682645105e-16 6.081708149152668e-16 8.132533492437442e-19
5.285722656980489 4.411620196511355e-24 6.189733077866345e-16 6.181488659595033e-16 8.244418271311459e-19
5.305582063971359 4.467188254095559e-24 6.291246823098571e-16 6.282889511936831e-16 8.357311161737881e-19
5.3255160863122235 4.5268013147477816e-24 6.399154079135442e-16 6.39068221157855e-16 8.471867556890413e-19
5.365609099470188 4.674745081175757e-24 6.658039942359316e-16 6.649330807126831e-16 8.709135232484597e-19
5.406003951863644 4.828157169462007e-24 6.928308077597543e-16 6.919357230392624e-16 8.950847204916137e-19
5.446702915881641 4.987300374470428e-24 7.210554213806907e-16 7.201357179466207e-16 9.197034340703016e-19
5.487708281020852 5.159026706292482e-24 7.514986866328163e-16 7.505538352902575e-16 9.44851342558775e-19
5.529022354014368 5.396996501335257e-24 7.920815828760762e-16 7.911104337240838e-16 9.711491519924972e-19
5.570647458961463 5.64870042093401e-24 8.352637821247092e-16 8.342658347697606e-16 9.979473549487165e-19
5.612585937458331 5.915124315674477e-24 8.812442844698595e-16 8.802190342298977e-16 1.0252502399617892e-18
5.654840148729818 6.207647098760145e-24 9.31787296876953e-16 9.307341337384456e-16 1.0531631385073766e-18
5.67608639626678 6.406638646977127e-24 9.652696682608215e-16 9.642019146353404e-16 1.0677536254813152e-18
5.686739436050992 6.509162447954982e-24 9.825572688406467e-16 9.814821666538535e-16 1.0751021867928085e-18
5.6974124697621304 6.613769197724728e-24 1.0002213719674387e-15 9.991388855524804e-16 1.0824864149580849e-18
5.718818669136295 6.829431751415304e-24 1.0367172591103244e-15 1.0356198968726212e-15 1.0973622377030912e-18
5.740305295436557 7.067044968696372e-24 1.0768179306869787e-15 1.075705460469152e-15 1.1124702178268647e-18
5.7835210386641895 7.683089622702013e-24 1.1794992037281e-15 1.1783553858063286e-15 1.143817921771432e-18
5.827062130521658 8.391986986237895e-24 1.298027470048536e-15 1.2968514589237905e-15 1.1760111247454353e-18
5.8489554468988025 8.889288866213573e-24 1.3801133775334708e-15 1.3789200892536093e-15 1.1932882798612788e-18
5.870931020387893 9.422587923232075e-24 1.46840755187727e-15 1.4671967964923253e-15 1.2107553849449107e-18
5.892989160043636 9.994774405062595e-24 1.5634286682399485e-15 1.5622002544134714e-15 1.2284138264769663e-18
5.915130176081913 1.064530760583697e-23 1.67144447905837e-15 1.6701977811928372e-15 1.246697865532996e-18
5.95966208400165 1.246416987244464e-23 1.971761707062682e-15 1.970474062552142e-15 1.2876445105395887e-18
6.004529249263818 1.508461406328678e-23 2.4042664771135593e-15 2.4029330959068994e-15 1.3333812066592322e-18
6.027089341400364 1.6906029555422085e-23 2.7046974161059617e-15 2.7033379714060746e-15 1.3594446998867154e-18
6.049734195844842 1.9057538392390653e-23 3.060360092652093e-15 3.0589730966515433e-15 1.3869960005495441e-18
6.095279466722835 2.527215392283257e-23 4.0888889314539285e-15 4.087435508573555e-15 1.45342288037306e-18
6.141167624020661 3.4833558704844805e-23 5.678298647696259e-15 5.6767606037609285e-15 1.5380439353316753e-18
6.164241091010745 4.094056127028852e-23 6.6988899234668294e-15 6.6972995550559455e-15 1.5903684108843541e-18
6.187401249150058 4.7894191094763116e-23 7.866119800227877e-15 7.864475464612829e-15 1.6443356150486176e-18
6.1990139391386085 5.128979896822038e-23 8.439622917996992e-15 8.437951069517739e-15 1.6718484792559794e-18
6.204828454712694 5.307819475358522e-23 8.742091659827316e-15 8.740405889842247e-15 1.6857699850703212e-18
6.210648424152782 5.438403148287116e-23 8.965567339789974e-15 8.963869514237847e-15 1.697825552126317e-18
6.233982942956859 5.882036447576486e-23 9.733359268888078e-15 9.731618574237805e-15 1.7406946502736833e-18
6.239830258556775 5.938745185026627e-23 9.8364162848679e-15 9.834669018810902e-15 1.747266056999647e-18
6.245683058788269 5.943674932517892e-23 9.853815450064265e-15 9.852061592423327e-15 1.7538576409378927e-18
6.257405133728602 5.93151650450538e-23 9.852114496715246e-15 9.850348732522607e-15 1.7657641926388386e-18
6.269149208991335 5.84431276791683e-23 9.725489947811631e-15 9.72371803969946e-15 1.7719081121735487e-18
6.280915325867298 5.625580325417205e-23 9.37906837337527e-15 9.377297476768022e-15 1.770896607247715e-18
6.304513850009849 5.0861363953554536e-23 8.51155752583513e-15 8.509795153274814e-15 1.7623725603159523e-18
6.32820103803542 4.4175436432683113e-23 7.420455235475521e-15 7.41870830306692e-15 1.746932408602794e-18
6.3519772230701035 3.8043976412664554e-23 6.41452155595607e-15 6.412787867378687e-15 1.7336885773813868e-18
6.375842739491607 3.288433180940183e-23 5.565395741144248e-15 5.56367307034824e-15 1.7226707960060929e-18
6.399797922933955 2.875072636414234e-23 4.884099640862911e-15 4.882379632375277e-15 1.7200084876350885e-18
6.42384311029221 2.5312938477228127e-23 4.3162532885661515e-15 4.3145342736370956e-15 1.719014929056414e-18
6.447978639727206 2.28086382980572e-23 3.903843340763202e-15 3.902118724227698e-15 1.7246165355052453e-18
6.472204850670314 2.072193805248314e-23 3.560016892353975e-15 3.558285316146445e-15 1.7315762075298489e-18
6.496522083828205 1.936649828981632e-23 3.3396538407037486e-15 3.337909887104497e-15 1.743953599250754e-18
6.520930681187647 1.8224553924127744e-23 3.1545391647084145e-15 3.152781921608701e-15 1.7572430997128966e-18
6.57002334288761 1.7057421111808553e-23 2.9747448206186987e-15 2.9729532087966275e-15 1.7916118220706876e-18
