Dust emission spectrum from A.P. Jones, M. Kohler, N. Ysard, M. Bocchio, and L. Verstraete (2017), A&A, 602A, 46J 
inside the DustPedia framework.

lambda    nu*dP/dnu     j_nu    j_nu(carb.) j_nu(sil)
 (um)   (erg s-1 H-1) (Jy cm2 sr-1 H-1)
0.9927057738263894 5.989548541917493e-20 1.5782800607518124e-12 1.5782799981758426e-12 6.257597016540291e-20
1.0001793341362166 6.089980192507487e-20 1.6168256485319941e-12 1.6168255732465063e-12 7.528548767330699e-20
1.0077091589558085 6.190845731806187e-20 1.655978221741012e-12 1.6559781312861426e-12 9.045486924651532e-20
1.0114953028030835 6.241437251720879e-20 1.6757835080602017e-12 1.6757834089602521e-12 9.909994979164078e-20
1.0152956718711033 6.292132578472782e-20 1.6957422181028845e-12 1.695742109568103e-12 1.085347820082458e-19
1.0229392996569957 6.39377926846236e-20 1.7361087901162502e-12 1.7361086600610527e-12 1.300551976162578e-19
1.0267826658714554 6.444615444953176e-20 1.7564871184056902e-12 1.756486976105971e-12 1.4229971885868547e-19
1.0306404723013447 6.495547275614364e-20 1.7770202377606768e-12 1.7770200821158993e-12 1.5564477752435507e-19
1.03451277320114 6.546573480961394e-20 1.7977087706380346e-12 1.7977086004538106e-12 1.7018422423210541e-19
1.0383996230291617 6.597692832151337e-20 1.818553353674676e-12 1.8185531676552278e-12 1.8601944845245076e-19
1.0403485208654093 6.623287067567551e-20 1.8290343669703454e-12 1.8290341725134845e-12 1.9445686108026847e-19
1.0423010764483396 6.648904152185897e-20 1.8395546382620587e-12 1.8395544350021148e-12 2.0325994385145803e-19
1.0462171883269815 6.700206317104477e-20 1.8607132911281013e-12 1.8607130691041884e-12 2.220239127448055e-19
1.0471985131304309 6.713045926278902e-20 1.866027622778206e-12 1.8660273958105253e-12 2.269676805722507e-19
1.048180758391296 6.725891129951304e-20 1.871351843356522e-12 1.871351611339845e-12 2.3201667733421803e-19
1.0501480137395462 6.751598257166571e-20 1.882029994926422e-12 1.88202975248751e-12 2.424389121159135e-19
1.0521189612883777 6.777327573696719e-20 1.892747833755739e-12 1.892747580447602e-12 2.5330813660282645e-19
1.0531058218030118 6.79018363123496e-20 1.8981169440432327e-12 1.8981166851268246e-12 2.589164077345565e-19
1.0540936079674168 6.802989879399324e-20 1.9034805245820878e-12 1.9034802599374987e-12 2.6464458850901303e-19
1.058054026499678 6.854267388801955e-20 1.9250336249257706e-12 1.925033336133083e-12 2.887926876860795e-19
1.0590464539527713 6.867099826245571e-20 1.9304466511063115e-12 1.9304463559552517e-12 2.9515106039382765e-19
1.06003981227728 6.879937460896472e-20 1.9358696005937926e-12 1.9358692989506522e-12 3.0164314011007957e-19
1.0620293250338977 6.905628270021935e-20 1.9467453158081542e-12 1.9467450007690056e-12 3.1503914848445937e-19
1.0660195594769086 6.957071698155028e-20 1.968616339568618e-12 1.968615996012099e-12 3.4355651945488716e-19
1.070024785945596 7.008596908804247e-20 1.990647457649633e-12 1.9906470831189576e-12 3.745306745027648e-19
1.0740450607676866 7.060203199176389e-20 2.0128394512275197e-12 2.01283904306575e-12 4.0816177004116977e-19
1.07808044048254 7.111889929162765e-20 2.0351931218492655e-12 2.0351926771840006e-12 4.446652652554556e-19
1.0861967418109137 7.215424042081363e-20 2.0803661943939165e-12 2.0803656671594606e-12 5.272344554800551e-19
1.0902777775684922 7.267092177736574e-20 2.1031355390869077e-12 2.1031349652690378e-12 5.73817869957723e-19
1.0943741465085532 7.318835793269439e-20 2.1260685398782687e-12 2.126067915566861e-12 6.243114072106368e-19
1.1026131145906286 7.42254834810083e-20 2.1724291515313607e-12 2.1724284132404884e-12 7.382908723967536e-19
1.1109141095355224 7.526560173462032e-20 2.219455561230164e-12 2.219454689293961e-12 8.719362032449743e-19
1.1192775983109025 7.630790265241109e-20 2.2671317640490307e-12 2.2671307356177726e-12 1.0284312578696232e-18
1.1277040513999907 7.734868913657169e-20 2.315354697854485e-12 2.315353486415264e-12 1.2114392203912138e-18
1.1361939428280308 7.839237256808249e-20 2.3642625956302825e-12 2.3642611704612306e-12 1.4251690522368745e-18
1.1447477501889525 7.943898589672544e-20 2.413864696656443e-12 2.413863022206346e-12 1.6744500975499182e-18
1.1533659546722406 8.048893426044668e-20 2.464181755134278e-12 2.4641797903154643e-12 1.9648188139011213e-18
1.1707974979042381 8.260202288949106e-20 2.5670947695229355e-12 2.5670920744348887e-12 2.695088046785732e-18
1.1884924949847024 8.472914726914697e-20 2.6729984829334274e-12 2.6729948047429194e-12 3.678190508351617e-18
1.2064549276569216 8.688458292045769e-20 2.78242364514263e-12 2.782418650112585e-12 4.995030046086802e-18
1.2246888378427687 8.905496503092318e-20 2.8950317436804102e-12 2.895024993719316e-12 6.749961094319027e-18
1.2431983285522175 9.123874124445076e-20 3.010850111105268e-12 3.0108410339985714e-12 9.07710669604442e-18
1.2619875648066055 9.343935111358885e-20 3.130071962762652e-12 3.1300598147873963e-12 1.214797525675219e-17
1.3004222497298317 9.787882684580443e-20 3.3786451384314728e-12 3.3786236878341605e-12 2.1450597312856512e-17
1.3400274889804893 1.0238820393277348e-19 3.641942336853644e-12 3.641905156298796e-12 3.7180554847248573e-17
1.3808389325824078 1.0698516134431916e-19 3.921353570817375e-12 3.92129028028885e-12 6.329052852577084e-17
1.4228933163050095 1.1170810773496758e-19 4.219164590515356e-12 4.21905873239718e-12 1.0585811817476e-16
1.466228494730424 1.1663653965350912e-19 4.539475902410602e-12 4.539301845912525e-12 1.7405649807668516e-16
1.5108834753276823 1.217613839070869e-19 4.883261481874777e-12 4.882980013958212e-12 2.814679165664925e-16
1.5568984535646726 1.2707794808286885e-19 5.251700056583504e-12 5.251251929808545e-12 4.481267749579661e-16
1.6043148490894465 1.3261423298721644e-19 5.647408121395797e-12 5.646704363633813e-12 7.037577619834182e-16
1.6531753430134553 1.383989078323515e-19 6.073247990744789e-12 6.072159121649296e-12 1.0888690954921572e-15
1.7035239163302658 1.444643284257191e-19 6.532483045189725e-12 6.530822850504796e-12 1.6601946849295532e-15
1.755405889504358 1.509106519042482e-19 7.031805980979056e-12 7.029310296830428e-12 2.495684148628177e-15
1.8088679632656115 1.5772987779427411e-19 7.573389042419466e-12 7.569688886421374e-12 3.7001559980910415e-15
1.8639582606462262 1.6490883807009366e-19 8.1592369923668e-12 8.153824196908978e-12 5.412795457821288e-15
1.9207263702978936 1.7245507801998607e-19 8.7924704810987e-12 8.7846549930549e-12 7.815488043801158e-15
1.979223391128241 1.8038405353513582e-19 9.476814723578088e-12 9.465672052518421e-12 1.1142671059669225e-14
2.039501978296691 1.8870453103606903e-19 1.0215882571941395e-11 1.020019073693067e-11 1.5691835010721978e-14
2.1016163906111602 1.9747887047430366e-19 1.1016496845568818e-11 1.0994660184371294e-11 2.183666119752216e-14
2.1656225393682647 2.0672423448711427e-19 1.1883478595740207e-11 1.1853440421510341e-11 3.0038174229866796e-14
2.231578038680979 2.1639355960654942e-19 1.281816456160972e-11 1.277730741441345e-11 4.0857147196271564e-14
2.299542257339062 2.264685204814157e-19 1.3823520810382531e-11 1.3768554111566066e-11 5.4966698816467086e-14
2.369576372248914 2.3694921953174986e-19 1.4903745516677976e-11 1.4830580155209124e-11 7.316536146884654e-14
2.4417434235010123 2.478409901840884e-19 1.606358942276586e-11 1.596720365741154e-11 9.638576535432437e-14
2.5161083711144245 2.591897519794991e-19 1.7310778595704034e-11 1.7185071937860415e-11 1.2570665784361887e-13
2.5927381535095444 2.7109371563279045e-19 1.8657246167400014e-11 1.8494888111610643e-11 1.6235805578937113e-13
2.6717017477616296 2.836286321819783e-19 2.011441833158265e-11 1.990670357391843e-11 2.077147576642141e-13
2.753070231689431 2.9692174963719313e-19 2.1698451142829264e-11 2.143515746933101e-11 2.632936734982588e-13
2.836916847834745 3.1138420569530524e-19 2.3448367909907858e-11 2.3117611031826337e-11 3.307568780815199e-13
2.9233170693905177 3.2795398269002244e-19 2.5448270057239018e-11 2.5036460406668113e-11 4.1180965057090426e-13
2.967498994190263 3.379355762530959e-19 2.6619134346191444e-11 2.6162081570890422e-11 4.570527753010224e-13
3.0123486681368425 3.4856457313318035e-19 2.7871344304338097e-11 2.73647281346579e-11 5.066161696801973e-13
3.0578761833420214 3.6563920540865646e-19 2.967850947913409e-11 2.911750127604762e-11 5.610082030864652e-13
3.1040917844459814 3.854689161480024e-19 3.176094020094646e-11 3.1140943728381743e-11 6.199964725647049e-13
3.127460860933648 4.035641520997787e-19 3.350224405809618e-11 3.285074359378754e-11 6.515004643086415e-13
3.1510058709225794 4.2641958893446348e-19 3.566611393338902e-11 3.49818329773611e-11 6.842809560279358e-13
3.162844764501044 4.469618807630371e-19 3.752474897792811e-11 3.682352624733602e-11 7.01222730592084e-13
3.1747281389236908 4.701376427822454e-19 3.9618771051178203e-11 3.890027764466719e-11 7.184934065110139e-13
3.1986289994194426 5.326476282835772e-19 4.5224450738889845e-11 4.4470323819942415e-11 7.541269189474372e-13
3.2227097969389145 6.76829201200533e-19 5.789882097673675e-11 5.710699419929124e-11 7.918267774454832e-13
3.2348180950136065 8.118422636395349e-19 6.970933718038774e-11 6.889740618271417e-11 8.119309976735751e-13
3.240889293275058 9.12653030725684e-19 7.851259455536356e-11 7.769005897617435e-11 8.225355791892194e-13
3.2469718861334385 1.0294804523035945e-18 8.872909788537399e-11 8.789558972826946e-11 8.33508157104544e-13
3.2714166318528037 1.6412845137938401e-18 1.4252438054928307e-10 1.4164557613096606e-10 8.788044183170408e-13
3.2744851364798273 1.6794917415178342e-18 1.4597898146040314e-10 1.4509485262422045e-10 8.841288361826797e-13
3.2775565192852394 1.718710694118625e-18 1.4952795777198303e-10 1.4863847914449736e-10 8.894786274857345e-13
3.283707930232385 1.6809838619366259e-18 1.465201986883409e-10 1.456211806033502e-10 8.990180849907204e-13
3.2898708863219004 1.561148632799003e-18 1.3633034700797605e-10 1.354226729261592e-10 9.07674081816839e-13
3.29141343181113 1.5328243162483924e-18 1.3391963329806844e-10 1.3300978629053218e-10 9.09847007536248e-13
3.292184975758714 1.5188971400531539e-18 1.32733952260343e-10 1.3182301744994817e-10 9.109348103948488e-13
3.295272960557952 1.4321651271464313e-18 1.2527197440453866e-10 1.243568130557519e-10 9.151613487867212e-13
3.3076538914384823 1.1292726002591148e-18 9.91489874127412e-11 9.821686282450552e-11 9.321245882357005e-13
3.310756385682612 1.0669386928946291e-18 9.376399945557356e-11 9.282760171859e-11 9.363977369835415e-13
3.313861789986515 1.0091572569817808e-18 8.876927484994873e-11 8.782859101933731e-11 9.406838306114256e-13
3.3200813396944477 9.28511627473026e-19 8.182867207407087e-11 8.087875735942423e-11 9.499147146466335e-13
3.345076488085796 7.881136366631942e-19 6.997845147413034e-11 6.898736775383924e-11 9.910837202911136e-13
3.3482140837626964 7.938961507051935e-19 7.055801399177451e-11 6.95613518524858e-11 9.96662139288673e-13
3.3513546224236106 7.997294751078828e-19 7.114312221023825e-11 7.014085787967149e-11 1.0022643305667626e-12
3.3576445397418455 8.403675646161868e-19 7.489855378988567e-11 7.388457199776192e-11 1.0139817921237598e-12
3.3702598118196083 9.872097801925053e-19 8.831658428133627e-11 8.727802673978595e-11 1.0385575415503068e-12
3.382922481734668 1.0224741205605798e-18 9.181503494242364e-11 9.075263292783118e-11 1.0624020145924613e-12
3.389271646505754 1.0406386063211276e-18 9.36215323437563e-11 9.254705268658692e-11 1.0744796571694083e-12
3.395632727569191 1.0606522011599961e-18 9.560115547199418e-11 9.451422901828224e-11 1.086926453711945e-12
3.421196662673239 1.1577401477688192e-18 1.0513772288174102e-10 1.0399931824289769e-10 1.1384046388433366e-12
3.4276182099114902 1.1404237312824443e-18 1.0375955978800151e-10 1.0260971372635879e-10 1.1498460616427074e-12
3.4340518103208963 1.0615069864864506e-18 9.676072931630398e-11 9.560008442118454e-11 1.1606448951193985e-12
3.4469541582030403 9.482381339898188e-19 8.676056218806447e-11 8.557923637763745e-11 1.181325810427039e-12
3.472904465399547 9.170511655358544e-19 8.45387528952462e-11 8.330971632374118e-11 1.2290365715050276e-12
3.4990501388274233 8.6986340633116e-19 8.079242800281865e-11 7.951467064159904e-11 1.2777573612195986e-12
3.5253949054701885 7.020743178472078e-19 6.569923191623303e-11 6.437430760834673e-11 1.3249243078863075e-12
3.5519380250092896 5.423414855148454e-19 5.1133749425122504e-11 4.976155063921348e-11 1.372198785909029e-12
3.578680990867387 4.805667010514146e-19 4.565055840857008e-11 4.4226561532583615e-11 1.4239968759864712e-12
3.605625307711299 4.573431667491029e-19 4.377157975918309e-11 4.229310908727226e-11 1.47847067191083e-12
3.660119384959845 4.438670048948682e-19 4.3123852021125795e-11 4.153130085840726e-11 1.5925511627185366e-12
3.715437065384467 4.353294456930883e-19 4.293360795203189e-11 4.122132364227784e-11 1.7122843097540525e-12
3.8285932144167436 4.381579794989958e-19 4.4528635132586325e-11 4.256086825223899e-11 1.967766880347329e-12
3.94519561050918 4.458077374312319e-19 4.668588287157312e-11 4.444229377300433e-11 2.243589098568792e-12
4.06534921144712 4.549881819077082e-19 4.9098407546223666e-11 4.6559631181543506e-11 2.53877636468014e-12
4.189162171576248 4.647087785963631e-19 5.1674642749257697e-11 4.882141408899388e-11 2.853228660263806e-12
4.316745939156006 4.745260789075175e-19 5.4373339520381195e-11 5.1188319640489275e-11 3.1850198798919086e-12
4.448215356677963 4.8420825149354385e-19 5.7172531733163376e-11 5.364385096151528e-11 3.5286807716480932e-12
4.58368876423945 4.936921865487755e-19 6.00676730174001e-11 5.618371514129293e-11 3.8839578761071796e-12
4.723288106065518 5.030179785315128e-19 6.306630367232483e-11 5.881384778921245e-11 4.252455883112374e-12
4.867139040275056 5.122145266753582e-19 6.617517175268742e-11 6.155217219104359e-11 4.6229995616438416e-12
4.940699165968905 5.170188446274763e-19 6.780538977520838e-11 6.299533462976841e-11 4.810055145439956e-12
5.015371051989984 5.21584402903452e-19 6.943798314113924e-11 6.444038690100148e-11 4.997596240137751e-12
5.091171501069577 5.267424113625887e-19 7.118450141406029e-11 6.599456871132719e-11 5.189932702733113e-12
5.129500256944802 5.292207242341925e-19 7.205785528631947e-11 6.67718475330249e-11 5.286007753294543e-12
5.168117569889187 5.317082380389948e-19 7.294158682940712e-11 6.755850665474173e-11 5.383080174665395e-12
5.20702561229733 5.347905267849531e-19 7.391674815320668e-11 6.842688982132131e-11 5.489858331885358e-12
5.246226572918644 5.378232809018973e-19 7.489556021852069e-11 6.929873176224092e-11 5.596828456279773e-12
5.265937586045735 5.393212523623338e-19 7.53863427572644e-11 6.973597533790405e-11 5.650367419360392e-12
5.285722656980489 5.408070574281114e-19 7.587804894794574e-11 7.017411635446518e-11 5.703932593480546e-12
5.305582063971359 5.422807826452318e-19 7.637068457807689e-11 7.061316793582055e-11 5.757516642256371e-12
5.3255160863122235 5.438596675083531e-19 7.688081644924658e-11 7.106921474372642e-11 5.811601705520171e-12
5.365609099470188 5.478871354581588e-19 7.80332268057656e-11 7.210965784603162e-11 5.9235689597339934e-12
5.406003951863644 5.519128926995204e-19 7.919838601787678e-11 7.31626950489539e-11 6.035690968922868e-12
5.446702915881641 5.559408070498613e-19 8.037697808258128e-11 7.42290692772588e-11 6.1479088053224855e-12
5.487708281020852 5.601953698487516e-19 8.160184249204283e-11 7.53411308691479e-11 6.2607116228949465e-12
5.529022354014368 5.664167882690014e-19 8.3129256450082e-11 7.675095617141623e-11 6.378300278665752e-12
5.570647458961463 5.727907224304892e-19 8.469759582401904e-11 7.820158065595286e-11 6.496015168066151e-12
5.612585937458331 5.793346635893768e-19 8.631016591325741e-11 7.969636948203801e-11 6.6137964312193645e-12
5.654840148729818 5.863961956327592e-19 8.80199079191711e-11 8.128765674486034e-11 6.732251174310749e-12
5.67608639626678 5.914598848797353e-19 8.911354585868907e-11 8.231918279042718e-11 6.794363068261887e-12
5.686739436050992 5.940409404190307e-19 8.967040670202198e-11 8.284497308505433e-11 6.825433616967635e-12
5.6974124697621304 5.966560233573239e-19 9.023418998056446e-11 8.337767734954528e-11 6.856512631019156e-12
5.718818669136295 6.019920727089562e-19 9.138323572757532e-11 8.446454349232862e-11 6.918692235246727e-12
5.740305295436557 6.078838347843596e-19 9.262431694860245e-11 8.564289968717161e-11 6.981417261430841e-12
5.7835210386641895 6.2353286404398065e-19 9.57240579968048e-11 8.861308323799584e-11 7.110974758808986e-12
5.827062130521658 6.412147101776657e-19 9.917964712942732e-11 9.193765954414099e-11 7.241987585286338e-12
5.8489554468988025 6.540532196746193e-19 1.015455354952679e-10 9.423238286057025e-11 7.313152634697625e-12
5.870931020387893 6.676216629705093e-19 1.0404155415580217e-10 9.665710493417405e-11 7.384449221628152e-12
5.892989160043636 6.819786327796781e-19 1.0667824028872172e-10 9.922237075003735e-11 7.455869538684367e-12
5.915130176081913 6.982868491897879e-19 1.0963964049637911e-10 1.0210959984056622e-10 7.53004065581288e-12
5.95966208400165 7.44685611613182e-19 1.1780508351587746e-10 1.1010366965094031e-10 7.70141386493714e-12
6.004529249263818 8.115019325305601e-19 1.2934151873627569e-10 1.2144591642666302e-10 7.895602309612678e-12
6.027089341400364 8.581407940304669e-19 1.3728895839561151e-10 1.2927997732418826e-10 8.008981071423244e-12
6.049734195844842 9.127573096245515e-19 1.465753859253308e-10 1.3844604836597636e-10 8.129337559354462e-12
6.095279466722835 1.0706628043498997e-18 1.7322707448653627e-10 1.6479792470433225e-10 8.429149782204068e-12
6.141167624020661 1.3115519270295652e-18 2.1379910093996757e-10 2.0497591540813846e-10 8.823185531829093e-12
6.164241091010745 1.46496011616143e-18 2.397037621356831e-10 2.306309110635998e-10 9.072851072083301e-12
6.187401249150058 1.637197273797327e-18 2.6889252324598524e-10 2.595637657219902e-10 9.328757523995073e-12
6.1990139391386085 1.7206959187480824e-18 2.831367056004292e-10 2.7367781904550516e-10 9.458886554924045e-12
6.204828454712694 1.764470427716015e-18 2.906120353519786e-10 2.8108747129162915e-10 9.524564060349473e-12
6.210648424152782 1.795974754597705e-18 2.9607831865094394e-10 2.864983156509238e-10 9.580003000020112e-12
6.233982942956859 1.9010082765270464e-18 3.14571266150368e-10 3.0480016924284995e-10 9.771096907517982e-12
6.239830258556775 1.913268402815363e-18 3.168969856161939e-10 3.0710102868625727e-10 9.795956929936615e-12
6.245683058788269 1.912486032739142e-18 3.1706452037500193e-10 3.07243680880623e-10 9.820839494378954e-12
6.257405133728602 1.9053488541998607e-18 3.164741268696441e-10 3.0661070150171136e-10 9.863425367932751e-12
6.269149208991335 1.8793261348087118e-18 3.1273766751632405e-10 3.028632795127193e-10 9.874388003604713e-12
6.280915325867298 1.8203977299191708e-18 3.0349997312291195e-10 2.9365366276080353e-10 9.846310362108462e-12
6.304513850009849 1.677726991789324e-18 2.8076458618572244e-10 2.7100965234222055e-10 9.754933843501907e-12
6.32820103803542 1.5047125758445012e-18 2.5275703451908173e-10 2.4313093996509987e-10 9.626094553981782e-12
6.3519772230701035 1.3470918286809069e-18 2.2713055752104433e-10 2.176212708800842e-10 9.50928664096007e-12
6.375842739491607 1.2141417938507156e-18 2.0548325591064887e-10 1.9607838200328568e-10 9.404873907363275e-12
6.399797922933955 1.1085717185297977e-18 1.8832131973872248e-10 1.7897658250056317e-10 9.34473723815932e-12
6.42384311029221 1.020372572681567e-18 1.7398953805231208e-10 1.6469605714224519e-10 9.293480910066913e-12
6.447978639727206 9.56106458994419e-19 1.6364369429822455e-10 1.5436708063488314e-10 9.276613663341384e-12
6.472204850670314 9.022363051658069e-19 1.5500367191284076e-10 1.4573713419090221e-10 9.266537721938575e-12
6.496522083828205 8.667560628332639e-19 1.4946766167410344e-10 1.4018345894850107e-10 9.284202725602349e-12
6.520930681187647 8.365814860185662e-19 1.4480623630637587e-10 1.3550027835352742e-10 9.305957952848464e-12
