Dust emission spectrum from A.P. Jones, M. Kohler, N. Ysard, M. Bocchio, and L. Verstraete (2017), A&A, 602A, 46J 
inside the DustPedia framework.

lambda    nu*dP/dnu     j_nu    j_nu(carb.) j_nu(sil)
 (um)   (erg s-1 H-1) (Jy cm2 sr-1 H-1)
0.9927057738263894 9.778684041011043e-25 2.576738786622941e-17 2.576738736355728e-17 5.02672129796025e-25
1.0001793341362166 9.941542936715409e-25 2.6393750222437678e-17 2.639374961719296e-17 6.052447266838558e-25
1.0077091589558085 1.0104446403319258e-24 2.702820246461574e-17 2.7028201736822368e-17 7.277933707455896e-25
1.0114953028030835 1.0185898584681838e-24 2.7348445837979443e-17 2.7348445040292013e-17 7.976874331521061e-25
1.0152956718711033 1.0267342468977248e-24 2.767069173324912e-17 2.7670690859242706e-17 8.740064186469258e-25
1.0229392996569957 1.0430100217480345e-24 2.83209474538457e-17 2.832094640561888e-17 1.0482268162629903e-24
1.0267826658714554 1.0511220910625769e-24 2.864844968009542e-17 2.864844853266424e-17 1.1474311923527543e-24
1.0306404723013447 1.0592303826190082e-24 2.897790973566477e-17 2.897790848005382e-17 1.2556109600543353e-24
1.03451277320114 1.0673342758535238e-24 2.930932028006042e-17 2.930931890652272e-17 1.3735376984847703e-24
1.0383996230291617 1.0754331554015906e-24 2.964267390379233e-17 2.9642672401746763e-17 1.502045571680263e-24
1.0403485208654093 1.079480524204562e-24 2.981007703732858e-17 2.981007546678219e-17 1.5705463850795895e-24
1.0423010764483396 1.0835264112647683e-24 2.9977963133462517e-17 2.997796149142644e-17 1.642036077533343e-24
1.0462171883269815 1.0916134389753382e-24 3.031518043691003e-17 3.03151786424269e-17 1.7944831300776124e-24
1.0471985131304309 1.0936341524578478e-24 3.03997851364497e-17 3.0399783301787014e-17 1.8346626905457303e-24
1.048180758391296 1.0956544299295556e-24 3.048450974771068e-17 3.048450787200734e-17 1.8757033411479263e-24
1.0501480137395462 1.0996936397587159e-24 3.065431822841134e-17 3.065431626797284e-17 1.960438496428663e-24
1.0521189612883777 1.1037309945318282e-24 3.0824604923289653e-17 3.082460287445646e-17 2.0488331851606126e-24
1.0531058218030118 1.1057459906024266e-24 3.0909844483669894e-17 3.0909842389217314e-17 2.0944525744641046e-24
1.0540936079674168 1.1077507887548633e-24 3.09949314913799e-17 3.099492935032608e-17 2.1410538141213893e-24
1.058054026499678 1.1157644851345788e-24 3.133645114124267e-17 3.1336448803661585e-17 2.3375810836780407e-24
1.0590464539527713 1.1177664901154675e-24 3.1422123344054866e-17 3.142212095470806e-17 2.3893468063359714e-24
1.06003981227728 1.1197679095156649e-24 3.15079122168267e-17 3.150790977461789e-17 2.4422088102576063e-24
1.0620293250338977 1.1237689559060912e-24 3.167983947902042e-17 3.167983692771004e-17 2.5513103757715126e-24
1.0660195594769086 1.1317636308067872e-24 3.2025088612017624e-17 3.202508582834896e-17 2.7836686565641197e-24
1.070024785945596 1.139747946171599e-24 3.237219062431393e-17 3.2372187588119674e-17 3.0361942568760963e-24
1.0740450607676866 1.1477213450799764e-24 3.2721137582306206e-17 3.2721134271761235e-17 3.3105449741552705e-24
1.07808044048254 1.1556832775005246e-24 3.307192154030108e-17 3.3071917931794357e-17 3.60850671720561e-24
1.0861967418109137 1.171557124208745e-24 3.3778580743013025e-17 3.377857645990908e-17 4.2831039336796205e-24
1.0902777775684922 1.1794373792783882e-24 3.413355174009214e-17 3.413354707605292e-17 4.664039213648475e-24
1.0943741465085532 1.1873035032160742e-24 3.4490302785537876e-17 3.449029770833354e-17 5.077204336577954e-24
1.1026131145906286 1.2029913251779621e-24 3.5209112844979027e-17 3.5209106834251313e-17 6.010727722908477e-24
1.1109141095355224 1.2186166039205189e-24 3.593494685813071e-17 3.593493975143423e-17 7.106696482161247e-24
1.1192775983109025 1.2341617340331378e-24 3.666733289664003e-17 3.6667324504961254e-17 8.391678770729669e-24
1.1277040513999907 1.2495598195954999e-24 3.7404308086492244e-17 3.7404298190199697e-17 9.896292542821953e-24
1.1361939428280308 1.2648821947703867e-24 3.8148018270236066e-17 3.814800661446359e-17 1.165577248136215e-23
1.1447477501889525 1.280125442711662e-24 3.8898402070119524e-17 3.8898388359505755e-17 1.371061377079084e-23
1.1533659546722406 1.2952936279711831e-24 3.9655624153999865e-17 3.96556080466824e-17 1.6107317465490186e-23
1.1707974979042381 1.3254526679839859e-24 4.11922431462002e-17 4.119222099878509e-17 2.2147415112653644e-23
1.1884924949847024 1.3552700469382391e-24 4.275547313043907e-17 4.2755442829554136e-17 3.030088493819379e-23
1.2064549276569216 1.3849677420076014e-24 4.435271326156525e-17 4.435267200902798e-17 4.125253726289474e-23
1.2246888378427687 1.414268289141095e-24 4.597555666573272e-17 4.5975500776978595e-17 5.588875412164241e-23
1.2431983285522175 1.4431195550097217e-24 4.762249690510142e-17 4.7622421552275795e-17 7.535282560273413e-23
1.2619875648066055 1.4715304693861143e-24 4.9293966724760285e-17 4.9293865612878193e-17 1.0111188208906595e-22
1.3004222497298317 1.5266736714855285e-24 5.269871681504537e-17 5.269853730887554e-17 1.7950616983853636e-22
1.3400274889804893 1.5796390792956646e-24 5.618766829441303e-17 5.618735542784438e-17 3.128665686524816e-22
1.3808389325824078 1.630405350761011e-24 5.975965043890576e-17 5.975911483531103e-17 5.356035947267542e-22
1.4228933163050095 1.679320733093208e-24 6.342718283256047e-17 6.342628178833455e-17 9.01044225906376e-22
1.466228494730424 1.727445297554411e-24 6.723190112014642e-17 6.72304107868784e-17 1.4903332680004423e-21
1.5108834753276823 1.774304036843372e-24 7.115877203616334e-17 7.115634740227201e-17 2.4246338913188853e-21
1.5568984535646726 1.8195547400162353e-24 7.519601846945655e-17 7.519213438314873e-17 3.884086307823302e-21
1.6043148490894465 1.863464460098024e-24 7.935606977347952e-17 7.934993194908206e-17 6.137824397450192e-21
1.6531753430134553 1.9063467102886044e-24 8.365467986169214e-17 8.364512296340176e-17 9.5568982904018e-21
1.7035239163302658 1.948688548734742e-24 8.811708083016834e-17 8.810241524893602e-17 1.4665581232302692e-20
1.755405889504358 1.992174833306062e-24 9.282702533738887e-17 9.280483426128762e-17 2.219107610124405e-20
1.8088679632656115 2.0367526411749354e-24 9.779453550906843e-17 9.776141418388663e-17 3.312132518175517e-20
1.8639582606462262 2.0824689226675484e-24 1.0303485045514181e-16 1.0298606847653724e-16 4.8781978604557635e-20
1.9207263702978936 2.1298078844613417e-24 1.0858638185398869e-16 1.0851545728025808e-16 7.092457373057866e-20
1.979223391128241 2.179504948264542e-24 1.1450438206169652e-16 1.1440254947736415e-16 1.0183258433241898e-19
2.039501978296691 2.2323731817367717e-24 1.2085381392890333e-16 1.207093751212531e-16 1.4443880765021094e-19
2.1016163906111602 2.2901588933425435e-24 1.277581148999048e-16 1.27555641995909e-16 2.024729039958262e-19
2.1656225393682647 2.3540458734807503e-24 1.3532159797472984e-16 1.3504099985601138e-16 2.80598118718468e-19
2.231578038680979 2.4244399174721245e-24 1.436127299185692e-16 1.4322816287902903e-16 3.8456703954019696e-19
2.299542257339062 2.5022281202987705e-24 1.5273470423061684e-16 1.522133161046304e-16 5.213881259864614e-19
2.369576372248914 2.588845003526852e-24 1.6283441317483443e-16 1.621349064642598e-16 6.995067105745856e-19
2.4417434235010123 2.6859257823068923e-24 1.740858481680207e-16 1.7315689357095432e-16 9.289545970663749e-19
2.5161083711144245 2.7959797145226844e-24 1.867380381613632e-16 1.855164957498297e-16 1.2215424115334822e-18
2.5927381535095444 2.9227666229924608e-24 2.0115101616333787e-16 1.9956001756212305e-16 1.5909986012149248e-18
2.6717017477616296 3.0704296288684417e-24 2.177491938582571e-16 2.15696192910092e-16 2.0530009481650767e-18
2.753070231689431 3.2448495189975236e-24 2.3712715164797514e-16 2.34501893977399e-16 2.625257670576161e-18
2.836916847834745 3.458924381638001e-24 2.604696384394079e-16 2.571419893958912e-16 3.327649043516692e-18
2.9233170693905177 3.7401629567762345e-24 2.9022570850156953e-16 2.860442720619963e-16 4.1814364395732275e-18
2.967498994190263 3.932086061322246e-24 3.0972982568941576e-16 3.0506584271482966e-16 4.663982974586017e-18
3.0123486681368425 4.14622881955648e-24 3.315338961606812e-16 3.2633859497507796e-16 5.19530118560323e-18
3.0578761833420214 4.532799415955671e-24 3.6792206208603956e-16 3.62140945054437e-16 5.781117031602584e-18
3.1040917844459814 5.0074748674162564e-24 4.1259386466504365e-16 4.0617333195845847e-16 6.420532706585226e-18
3.127460860933648 5.464847193231561e-24 4.536692455344228e-16 4.469055931765528e-16 6.763652357869987e-18
3.1510058709225794 6.0587031846133174e-24 5.067553266278685e-16 4.996334630591774e-16 7.121863568691283e-18
3.162844764501044 6.595489328483044e-24 5.537252550830888e-16 5.464178018088847e-16 7.307453274204094e-18
3.1747281389236908 7.213345991889835e-24 6.078728384189062e-16 6.003758713646147e-16 7.496967054291372e-18
3.1986289994194426 8.913262168027402e-24 7.5678058896032465e-16 7.488916279081386e-16 7.888961052186106e-18
3.2227097969389145 1.2862641526998847e-23 1.1003245393943848e-15 1.0920196251578274e-15 8.304914236557192e-18
3.2348180950136065 1.6584667428231335e-23 1.424052707722166e-15 1.4155256678297491e-15 8.527039892417048e-18
3.240889293275058 1.9363088399314307e-23 1.6657439987091522e-15 1.6570997903765991e-15 8.644208332552779e-18
3.2469718861334385 2.2577765036450863e-23 1.9459376032537304e-15 1.9371721565391287e-15 8.76544671460191e-18
3.2714166318528037 3.964778271352169e-23 3.442898305507951e-15 3.433631361031331e-15 9.266944476620856e-18
3.2744851364798273 4.071782138308152e-23 3.5391338616628423e-15 3.5298076810384045e-15 9.326180624437522e-18
3.2775565192852394 4.1817995661554914e-23 3.638168721930566e-15 3.628782996367144e-15 9.385725563422258e-18
3.283707930232385 4.0776452604307907e-23 3.554212549373157e-15 3.5447200634572655e-15 9.492485915891074e-18
3.2898708863219004 3.744730572669453e-23 3.270158956665676e-15 3.2605690593542016e-15 9.589897311473844e-18
3.29141343181113 3.666186658090256e-23 3.203070095178189e-15 3.1934557306543376e-15 9.614364523851471e-18
3.292184975758714 3.627587853349136e-23 3.170090062384305e-15 3.160463447072032e-15 9.626615312271879e-18
3.295272960557952 3.3843918198160824e-23 2.960339121450915e-15 2.9506648051108997e-15 9.67431634001471e-18
3.3076538914384823 2.540420871731171e-23 2.2304637248485814e-15 2.2205976877038107e-15 9.866037144771233e-18
3.310756385682612 2.3682594573419187e-23 2.0812580886575368e-15 2.0713436997043463e-15 9.91438895319076e-18
3.313861789986515 2.209262486216962e-23 1.9433505283529383e-15 1.9333876184834694e-15 9.96290986946876e-18
3.3200813396944477 1.986811372706621e-23 1.7509542312647848e-15 1.7408870745959181e-15 1.0067156668866105e-17
3.345076488085796 1.594319800111327e-23 1.415633806803612e-15 1.4051023823232165e-15 1.0531424480395513e-17
3.3482140837626964 1.6100222204853886e-23 1.4309172586259365e-15 1.4203229533169148e-15 1.0594305309022069e-17
3.3513546224236106 1.6258875474006932e-23 1.4463730559540544e-15 1.4357155721821863e-15 1.0657483771867849e-17
3.3576445397418455 1.7379153750926778e-23 1.5489335105775811e-15 1.538143980194582e-15 1.0789530382999159e-17
3.3702598118196083 2.1475486004484032e-23 1.92121432318856e-15 1.9101477901613892e-15 1.106653302717088e-17
3.382922481734668 2.2437428342415364e-23 2.014812136416255e-15 2.003475846608275e-15 1.1336289807979892e-17
3.389271646505754 2.2934965921054333e-23 2.063354790739271e-15 2.051881668918301e-15 1.147312182096995e-17
3.395632727569191 2.3473446975380143e-23 2.115762972351023e-15 2.104148833157609e-15 1.1614139193413895e-17
3.421196662673239 2.605927115879394e-23 2.366517594534103e-15 2.3543191314024575e-15 1.219846313164611e-17
3.4276182099114902 2.557353923395342e-23 2.3267660084135953e-15 2.3144365808684645e-15 1.2329427545131535e-17
3.4340518103208963 2.338628830347154e-23 2.131756400148893e-15 2.1193028298247828e-15 1.245357032411007e-17
3.4469541582030403 2.027064823919005e-23 1.854695328217533e-15 1.8420029245223556e-15 1.2692403695177248e-17
3.472904465399547 1.9438783184204167e-23 1.791972520130289e-15 1.7787307447436426e-15 1.3241775386645928e-17
3.4990501388274233 1.8146468064961476e-23 1.6854338324535743e-15 1.6716285937052625e-15 1.3805238748312274e-17
3.5253949054701885 1.3432252993388654e-23 1.256973346178164e-15 1.2426186653797572e-15 1.4354680798406927e-17
3.5519380250092896 8.986641245996719e-24 8.472902662241366e-16 8.323816873359956e-16 1.4908578888140467e-17
3.578680990867387 7.259347683494222e-24 6.895885102076932e-16 6.740725675207637e-16 1.5515942686929815e-17
3.605625307711299 6.598192625307385e-24 6.315024160479868e-16 6.153457791855289e-16 1.6156636862457844e-17
3.660119384959845 6.196078373113683e-24 6.019793404935326e-16 5.844721047130787e-16 1.750723578045379e-17
3.715437065384467 5.9468734948511216e-24 5.865000350752096e-16 5.675623501501559e-16 1.893768492505371e-17
3.8285932144167436 6.016854919000617e-24 6.114742852343734e-16 5.894388474573609e-16 2.2035437777012733e-17
3.94519561050918 6.251086001975424e-24 6.54626298300559e-16 6.291773865903331e-16 2.5448911710226187e-17
4.06534921144712 6.5591114954675206e-24 7.078028444503844e-16 6.786197263314672e-16 2.918311811891733e-17
4.189162171576248 6.914142439169485e-24 7.688381561044185e-16 7.355841425717508e-16 3.325401353266776e-17
4.316745939156006 7.305454475500986e-24 8.370919412092411e-16 7.994349044511434e-16 3.7657036758097996e-17
4.448215356677963 7.728460452524043e-24 9.125322608764352e-16 8.701886888789266e-16 4.234357199750868e-17
4.58368876423945 8.182742680016572e-24 9.955966998886237e-16 9.482674579084333e-16 4.732924198019012e-17
4.723288106065518 8.67072455895317e-24 1.087099410821094e-15 1.0344446417166215e-15 5.265476910447259e-17
4.867139040275056 9.196600746940556e-24 1.1881479385597496e-15 1.1299477583230213e-15 5.820018023672849e-17
4.940699165968905 9.481743041895222e-24 1.2435006758163889e-15 1.1824263207590627e-15 6.107435505732597e-17
5.015371051989984 9.771421910258837e-24 1.30085912479846e-15 1.2368495506722354e-15 6.400957412622439e-17
5.091171501069577 1.0089979325212049e-23 1.3635699955988188e-15 1.2965040951256836e-15 6.706590047313478e-17
5.129500256944802 1.0251103964648782e-23 1.395774073433296e-15 1.3271586578810637e-15 6.861541555223232e-17
5.168117569889187 1.0415596981314216e-23 1.428847847824626e-15 1.3586554090988912e-15 7.019243872573528e-17
5.20702561229733 1.060005325142944e-23 1.4650997490678346e-15 1.3931953851629192e-15 7.190436390491515e-17
5.246226572918644 1.0786763184818516e-23 1.5021303471964435e-15 1.4284947697782234e-15 7.36355774182196e-17
5.265937586045735 1.0880977111104264e-23 1.520943345804896e-15 1.4464350559069133e-15 7.450828989798278e-17
5.285722656980489 1.0975771446374268e-23 1.5399579417658715e-15 1.4645722719561122e-15 7.538566980975857e-17
5.305582063971359 1.1071152270437108e-23 1.559176546579853e-15 1.4829088827965366e-15 7.626766378331654e-17
5.3255160863122235 1.1170631390851164e-23 1.5790971695267879e-15 1.5019367602812539e-15 7.716040924553406e-17
5.365609099470188 1.1399001344347089e-23 1.6235111206231143e-15 1.5445035103065954e-15 7.900761031651964e-17
5.406003951863644 1.163214589612269e-23 1.669189455588498e-15 1.588314027589236e-15 8.087542799926167e-17
5.446702915881641 1.1870268731060335e-23 1.7161833014089492e-15 1.6334198457922195e-15 8.276345561672968e-17
5.487708281020852 1.2120410212923481e-23 1.7655408422975086e-15 1.6808623568171749e-15 8.46784854803336e-17
5.529022354014368 1.2437718019638755e-23 1.825401845994227e-15 1.73872539723169e-15 8.667644876253693e-17
5.570647458961463 1.2767166141096013e-23 1.8878592744104326e-15 1.799162523993392e-15 8.869675041704088e-17
5.612585937458331 1.3109597888784879e-23 1.9530879816973888e-15 1.862348988008406e-15 9.073899368898295e-17
5.654840148729818 1.347652350463106e-23 2.022868440795702e-15 1.93005663754213e-15 9.281180325357147e-17
5.67608639626678 1.371299005853706e-23 2.066096449955635e-15 1.9722009020822676e-15 9.38955478733669e-17
5.686739436050992 1.3833933833105687e-23 2.0882306061740726e-15 1.9937908447836035e-15 9.44397613904697e-17
5.6974124697621304 1.3956741189952248e-23 2.1107224041036943e-15 2.0157368760958127e-15 9.498552800788098e-17
5.718818669136295 1.4208122981564414e-23 2.156812872681146e-15 2.0607311755667844e-15 9.608169711436137e-17
5.740305295436557 1.4480855461344124e-23 2.2064731272451817e-15 2.1092815971890744e-15 9.719153005610716e-17
5.7835210386641895 1.516568334349202e-23 2.3282185040229252e-15 2.228730103282556e-15 9.948840074036897e-17
5.827062130521658 1.593736524264618e-23 2.465106049267777e-15 2.3632751767846725e-15 1.0183087248310516e-16
5.8489554468988025 1.6465478925017564e-23 2.556360590134771e-15 2.453268030346535e-15 1.0309255978823497e-16
5.870931020387893 1.7026392906543573e-23 2.653377620765384e-15 2.549014610832485e-15 1.0436300993289835e-16
5.892989160043636 1.762270314027867e-23 2.7566244304061693e-15 2.650982235328698e-15 1.0564219507747164e-16
5.915130176081913 1.8294402284071304e-23 2.872446605358536e-15 2.765479241327786e-15 1.0696736403075005e-16
5.95966208400165 2.0145639921314105e-23 3.1869271493914187e-15 3.0769592242539103e-15 1.0996792513750875e-16
6.004529249263818 2.2772462425151962e-23 3.629596871382688e-15 3.516262100798317e-15 1.1333477058437124e-16
6.027089341400364 2.4583312599914528e-23 3.9329413124673724e-15 3.817670738493984e-15 1.1527057397338908e-16
6.049734195844842 2.6708097303947534e-23 4.288927219073894e-15 4.1716078277130516e-15 1.1731939136084143e-16
6.095279466722835 3.2809067356937996e-23 5.308318110784677e-15 5.1859958244942575e-15 1.2232228629042048e-16
6.141167624020661 4.212533483244088e-23 6.86694787172383e-15 6.738173271342007e-15 1.2877460038182315e-16
6.164241091010745 4.806666079530423e-23 7.864896319583175e-15 7.732091898727359e-15 1.3280442085581649e-16
6.187401249150058 5.479361684627844e-23 8.99927829552045e-15 8.862330030991529e-15 1.3694826452892262e-16
6.1990139391386085 5.807609201879304e-23 9.556292421680253e-15 9.417234429401048e-15 1.3905799227920456e-16
6.204828454712694 5.980158532287183e-23 9.84944839820908e-15 9.709324188147496e-15 1.4012421006158258e-16
6.210648424152782 6.106248102097493e-23 1.006655392402504e-14 9.925516618611133e-15 1.4103730541391205e-16
6.233982942956859 6.533733070297055e-23 1.0811760842865717e-14 1.0667520041809728e-14 1.4424080105598812e-16
6.239830258556775 6.588012863669249e-23 1.0911806281990674e-14 1.0767105955775729e-14 1.447003262149441e-16
6.245683058788269 6.592434886533686e-23 1.092937239603535e-14 1.0784211582032266e-14 1.4516081400308295e-16
6.257405133728602 6.580017434914177e-23 1.0929259846097803e-14 1.0783284187643368e-14 1.4597565845443273e-16
6.269149208991335 6.495268403461786e-23 1.0808741775933827e-14 1.066242414067665e-14 1.4631763525717695e-16
6.280915325867298 6.28385952371584e-23 1.0476563254342184e-14 1.0330489112656963e-14 1.4607414168522188e-16
6.304513850009849 5.763058390339813e-23 9.644374275711104e-15 9.499317750650361e-15 1.450565250607408e-16
6.32820103803542 5.1197575666480723e-23 8.600012791654409e-15 8.456538497335977e-15 1.4347429431843291e-16
6.3519772230701035 4.5309077513827595e-23 7.639476253491234e-15 7.497405162512242e-15 1.4207109097899523e-16
6.375842739491607 4.0348361599803905e-23 6.828619815394735e-15 6.687769068390467e-15 1.4085074700426844e-16
6.399797922933955 3.6400764064015836e-23 6.183668420771701e-15 6.043365132361198e-15 1.4030328841050198e-16
6.42384311029221 3.3114880280738747e-23 5.646606814961322e-15 5.506717204932634e-15 1.3988961002868753e-16
6.447978639727206 3.073831057748379e-23 5.261057126082023e-15 5.121054463939745e-15 1.4000266214227852e-16
6.472204850670314 2.875956258679311e-23 4.940876107552398e-15 4.800654972804874e-15 1.4022113474752584e-16
6.496522083828205 2.749050442819157e-23 4.740597258347424e-15 4.5997290222284465e-15 1.4086823611897783e-16
