Dust emission spectrum from A.P. Jones, M. Kohler, N. Ysard, M. Bocchio, and L. Verstraete (2017), A&A, 602A, 46J 
inside the DustPedia framework.

lambda    nu*dP/dnu     j_nu    j_nu(carb.) j_nu(sil)
 (um)   (erg s-1 H-1) (Jy cm2 sr-1 H-1)
0.9927057738263894 1.0632855727634974e-24 2.8018178776466713e-17 2.801817877499835e-17 1.4683605847084598e-27
1.0001793341362166 1.080836111971031e-24 2.86950612720275e-17 2.8695061270258834e-17 1.768659387772044e-27
1.0077091589558085 1.0983613018147419e-24 2.937986947508161e-17 2.937986947295399e-17 2.1276244872601883e-27
1.0114953028030835 1.1071122338637043e-24 2.9725211489852755e-17 2.972521148752032e-17 2.3324347650705922e-27
1.0152956718711033 1.1158542472259016e-24 3.007249343003589e-17 3.0072493427479755e-17 2.55613152753682e-27
1.0229392996569957 1.1332995203502051e-24 3.077258654860779e-17 3.077258654554079e-17 3.066994932234288e-27
1.0267826658714554 1.1419816072393833e-24 3.1124835914655204e-17 3.11248359112972e-17 3.3580069584910424e-27
1.0306404723013447 1.1506509395178005e-24 3.1478948876221874e-17 3.1478948872546436e-17 3.675436700255414e-27
1.03451277320114 1.1593066813220482e-24 3.183491020047117e-17 3.18349101964496e-17 4.0215647188754174e-27
1.0383996230291617 1.1679480014586499e-24 3.219270446511056e-17 3.21927044607117e-17 4.398857508617833e-27
1.0403485208654093 1.1722629949698888e-24 3.237228407970774e-17 3.2372284075107715e-17 4.600015786706944e-27
1.0423010764483396 1.1765740735635978e-24 3.2552316062057244e-17 3.255231605724726e-17 4.809981693996306e-27
1.0462171883269815 1.1851840762583739e-24 3.291372920110857e-17 3.2913729195850756e-17 5.257819231473533e-27
1.0471985131304309 1.1873339703185014e-24 3.3004362109367645e-17 3.300436210399177e-17 5.375874614696959e-27
1.048180758391296 1.1894827962969797e-24 3.309510636559083e-17 3.309510636009437e-17 5.496468979626029e-27
1.0501480137395462 1.1937771933024351e-24 3.32769279136158e-17 3.327692790787031e-17 5.7454836803875326e-27
1.0521189612883777 1.1980671660719213e-24 3.345919182182329e-17 3.345919181581798e-17 6.005291572528271e-27
1.0531058218030118 1.2002071651411232e-24 3.3550396870520663e-17 3.3550396864381273e-17 6.1393900533884275e-27
1.0540936079674168 1.20233521937138e-24 3.364140936065348e-17 3.36414093543771e-17 6.2763845571394315e-27
1.058054026499678 1.2108353009988507e-24 3.400653252130156e-17 3.4006532514447327e-17 6.854229439476823e-27
1.0590464539527713 1.2129572254880256e-24 3.4098080312293216e-17 3.4098080305286757e-17 7.006463617931142e-27
1.06003981227728 1.2150778868520588e-24 3.418973438174455e-17 3.418973437458262e-17 7.16193361231602e-27
1.0620293250338977 1.2193153708726063e-24 3.437336030732493e-17 3.437336029984209e-17 7.482844076960033e-27
1.0660195594769086 1.227774640064057e-24 3.474187593005631e-17 3.474187592188985e-17 8.166459423143738e-27
1.070024785945596 1.2362123256441963e-24 3.511206244530066e-17 3.5112062436391024e-17 8.909638476772612e-27
1.0740450607676866 1.2446276508125373e-24 3.5483902757024817e-17 3.548390274730751e-17 9.71730060421776e-27
1.07808044048254 1.2530198450225096e-24 3.5857379621040554e-17 3.585737961044579e-17 1.05947475052836e-26
1.0861967418109137 1.2697169463622184e-24 3.6608745324676323e-17 3.660874531209404e-17 1.2582283859255494e-26
1.0902777775684922 1.2779865896390523e-24 3.698561886115375e-17 3.6985618847448583e-17 1.370515140438902e-26
1.0943741465085532 1.2862294951539243e-24 3.7364030864377025e-17 3.73640308494536e-17 1.4923417401071378e-26
1.1026131145906286 1.3026321670380249e-24 3.8125397918357e-17 3.81253979006796e-17 1.767739475880154e-26
1.1109141095355224 1.3189191814169757e-24 3.889270057695646e-17 3.88927005560437e-17 2.0912749076117384e-26
1.1192775983109025 1.3350697379104509e-24 3.9665341397530344e-17 3.9665341372821705e-17 2.4708636762714935e-26
1.1277040513999907 1.3510087661251487e-24 4.044107958917504e-17 4.044107956001867e-17 2.9156360651087504e-26
1.1361939428280308 1.3668133459452415e-24 4.1222195006537136e-17 4.1222194972176056e-17 3.4361079899298735e-26
1.1447477501889525 1.3824782171321675e-24 4.2008534280262486e-17 4.2008534239818733e-17 4.044376245159472e-26
1.1533659546722406 1.3980067869186119e-24 4.280020414646772e-17 4.2800204098924285e-17 4.754344163272774e-26
1.1707974979042381 1.4287052777302907e-24 4.440111412958931e-17 4.440111406413367e-17 6.545563206414539e-26
1.1884924949847024 1.4587925609811142e-24 4.6021356618054693e-17 4.602135652838415e-17 8.96705438440447e-26
1.2064549276569216 1.4885042433392332e-24 4.766840402921514e-17 4.766840390697074e-17 1.2224439336438774e-25
1.2246888378427687 1.5175156604470856e-24 4.9331960402218485e-17 4.9331960236374766e-17 1.6584372111911003e-25
1.2431983285522175 1.5457590111588316e-24 5.1009567065597823e-17 5.100956684168314e-17 2.2391467745520725e-25
1.2619875648066055 1.5732238727163972e-24 5.2700536513275665e-17 5.2700536212387476e-17 3.008881799713322e-25
1.3004222497298317 1.6253618224890868e-24 5.610529873223818e-17 5.610529819649659e-17 5.357415884102081e-25
1.3400274889804893 1.673726582012545e-24 5.95343551816879e-17 5.953435424509599e-17 9.365919217045987e-25
1.3808389325824078 1.718140048210564e-24 6.297541199691413e-17 6.297541038852671e-17 1.6083874269245874e-24
1.4228933163050095 1.758819945478131e-24 6.642983204638589e-17 6.642982933189131e-17 2.714494600824506e-24
1.466228494730424 1.7967471801132164e-24 6.992911956302846e-17 6.992911505837573e-17 4.504652717364722e-24
1.5108834753276823 1.831185861199034e-24 7.344002749648832e-17 7.344002014291434e-17 7.353573970546581e-24
1.5568984535646726 1.861541048923987e-24 7.693117003739643e-17 7.693115821645659e-17 1.1820939850178652e-23
1.6043148490894465 1.887870056271228e-24 8.039538779335861e-17 8.03953690469642e-17 1.874639443649054e-23
1.6531753430134553 1.9102548749167024e-24 8.382617870765015e-17 8.382614941232245e-17 2.9295327677527186e-23
1.7035239163302658 1.9289629968372142e-24 8.722511784711356e-17 8.722507272403083e-17 4.512308275807902e-23
1.755405889504358 1.945530166419732e-24 9.065357870884881e-17 9.065351016995519e-17 6.853889362492362e-23
1.8088679632656115 1.9595800576771766e-24 9.408909931390804e-17 9.408899661441743e-17 1.0269949058179861e-22
1.8639582606462262 1.970858594796481e-24 9.751267755917653e-17 9.751252569132505e-17 1.5186785146987252e-22
1.9207263702978936 1.9795542686386898e-24 1.0092583339715574e-16 1.0092561168224239e-16 2.2171491336454897e-22
1.979223391128241 1.986102639271761e-24 1.043436288603068e-16 1.0434330917376057e-16 3.1968654622625417e-22
2.039501978296691 1.9910244350511176e-24 1.0778793553431087e-16 1.0778748011563119e-16 4.5541867968075975e-22
2.1016163906111602 1.9957736417089845e-24 1.113356278347629e-16 1.1133498657284307e-16 6.412619198556777e-22
2.1656225393682647 2.0011946561872953e-24 1.150380550287816e-16 1.1503716223800052e-16 8.92790781050363e-22
2.231578038680979 2.007350548173691e-24 1.1890626368969388e-16 1.1890503429634453e-16 1.229393349362783e-21
2.299542257339062 2.01474829566717e-24 1.2297918904417158e-16 1.2297751412405495e-16 1.674920116615188e-21
2.369576372248914 2.0245049832282023e-24 1.2733828424041957e-16 1.273360258321734e-16 2.258408246201625e-21
2.4417434235010123 2.0379393169383256e-24 1.320871919995698e-16 1.320841772625504e-16 3.0147370194056935e-21
2.5161083711144245 2.057307466169545e-24 1.374035577338982e-16 1.3739957227604279e-16 3.9854578554235896e-21
2.5927381535095444 2.086299227729207e-24 1.4358355072799105e-16 1.4357833123288062e-16 5.219495110436101e-21
2.6717017477616296 2.1293182485777276e-24 1.5100731433025862e-16 1.5100054080121391e-16 6.773529044704164e-21
2.753070231689431 2.192992145995286e-24 1.6025950606390493e-16 1.6025079347188593e-16 8.712592019007442e-21
2.836916847834745 2.292331852542778e-24 1.7262096043053773e-16 1.726098495277901e-16 1.1110902747593793e-20
2.9233170693905177 2.460390432026287e-24 1.909191028780174e-16 1.9090505301938233e-16 1.4049858635091596e-20
2.967498994190263 2.6028149184061605e-24 2.0502333835202472e-16 2.0500761382043785e-16 1.5724531586839744e-20
3.0123486681368425 2.7690905284429466e-24 2.2141744020160775e-16 2.2139986478044498e-16 1.757542116281272e-20
3.0578761833420214 3.1405132403839252e-24 2.5491181086532855e-16 2.548921873963398e-16 1.9623468988750334e-20
3.1040917844459814 3.6189956085491446e-24 2.9818929178321727e-16 2.9816742262628134e-16 2.1869156935922512e-20
3.127460860933648 4.1248525397199436e-24 3.4242837420105723e-16 3.424052958936765e-16 2.3078307380854522e-20
3.1510058709225794 4.798742113872362e-24 4.013710613013799e-16 4.0134671764870186e-16 2.4343652677945042e-20
3.162844764501044 5.425905820756143e-24 4.555327034917719e-16 4.555077030957052e-16 2.5000396066819962e-20
3.1747281389236908 6.155213452239353e-24 5.187033973545342e-16 5.186777255100929e-16 2.5671844441248036e-20
3.1986289994194426 8.18933021780177e-24 6.953151414809316e-16 6.952880782774206e-16 2.706320351089785e-20
3.2227097969389145 1.2983810234437422e-23 1.1106898210452424e-15 1.1106612782206475e-15 2.854282459500883e-20
3.2348180950136065 1.7530322267928083e-23 1.5052519443585522e-15 1.5052226105321606e-15 2.933382639119892e-20
3.240889293275058 2.0929392286273235e-23 1.800488066703442e-15 1.80045831559517e-15 2.9751108271700807e-20
3.2469718861334385 2.486159070156656e-23 2.1427764946962467e-15 2.1427463117783657e-15 3.0182917880940704e-20
3.2714166318528037 4.5836102345223274e-23 3.980274010169003e-15 3.980242038438827e-15 3.197173017540565e-20
3.2744851364798273 4.714728538573024e-23 4.097973529189138e-15 4.09794134545915e-15 3.2183729989246553e-20
3.2775565192852394 4.849612482479822e-23 4.219166454087792e-15 4.219134057183656e-15 3.239690413561021e-20
3.283707930232385 4.7199004622713024e-23 4.114023752283087e-15 4.113990971771385e-15 3.2780511702694706e-20
3.2898708863219004 4.3085375355797093e-23 3.7625143755168456e-15 3.762481243695833e-15 3.313182101264293e-20
3.29141343181113 4.2115278171981e-23 3.679523184262871e-15 3.6794899641655644e-15 3.3220097305562484e-20
3.292184975758714 4.1638606660454334e-23 3.638730156844285e-15 3.63869689254134e-15 3.3264302944628373e-20
3.295272960557952 3.862984200078119e-23 3.3789655163684538e-15 3.3789320796997377e-15 3.343666871614051e-20
3.3076538914384823 2.820651131763628e-23 2.4765030471366808e-15 2.4764689169897044e-15 3.4130146976574385e-20
3.310756385682612 2.6085082237015912e-23 2.2923919180721875e-15 2.2923576128826205e-15 3.430518956664439e-20
3.313861789986515 2.4127727249567158e-23 2.1223658026571496e-15 2.1223313217530265e-15 3.4480904123375084e-20
3.3200813396944477 2.1382786305567067e-23 1.88444060026487e-15 1.8844057424139126e-15 3.4857850958852084e-20
3.345076488085796 1.648634183280823e-23 1.4638608168457978e-15 1.4638242815320631e-15 3.653531373477408e-20
3.3482140837626964 1.667000730072333e-23 1.4815572632801342e-15 1.4815205008019193e-15 3.676247821460077e-20
3.3513546224236106 1.6855702654676105e-23 1.4994661960399705e-15 1.4994292052433953e-15 3.6990796575111797e-20
3.3576445397418455 1.821258169104878e-23 1.6232135637727935e-15 1.6231760959864552e-15 3.7467786338168537e-20
3.3702598118196083 2.3217115229852853e-23 2.0770218803615957e-15 2.0769834117412928e-15 3.8468620303087187e-20
3.382922481734668 2.4357083432665418e-23 2.187191266258757e-15 2.1871518204635182e-15 3.9445795238414455e-20
3.389271646505754 2.4947659901079066e-23 2.2444277332616642e-15 2.244387791280597e-15 3.9941981067129295e-20
3.395632727569191 2.5584044442564145e-23 2.306000221072498e-15 2.3059597676882634e-15 4.0453384234910756e-20
3.421196662673239 2.8639700379584613e-23 2.600853816573464e-15 2.6008112411124674e-15 4.257546099722731e-20
3.4276182099114902 2.8024090250850094e-23 2.549725324128032e-15 2.549682270300306e-15 4.305382772639229e-20
3.4340518103208963 2.532621271528315e-23 2.3085884919721438e-15 2.3085449833709755e-15 4.3508601167395503e-20
3.4469541582030403 2.148394896087459e-23 1.9657082151108433e-15 1.965663828867126e-15 4.4386243717385586e-20
3.472904465399547 2.0407390580232788e-23 1.8812640061266285e-15 1.881217604525967e-15 4.6401600661253156e-20
3.4990501388274233 1.8760724337952436e-23 1.7424856124798383e-15 1.7424371371763204e-15 4.8475303517652895e-20
3.5253949054701885 1.2899865687559176e-23 1.2071532114918505e-15 1.2071027037952019e-15 5.0507696648918246e-20
3.5519380250092896 7.391326388350861e-24 6.968787038344372e-16 6.968261387295929e-16 5.256510484464726e-20
3.578680990867387 5.207417677387961e-24 4.946691568918885e-16 4.946143338425573e-16 5.482304933106058e-20
3.605625307711299 4.324328733661053e-24 4.1387455598349816e-16 4.138173454045835e-16 5.721057891463478e-20
3.660119384959845 3.680655031420429e-24 3.5759365117346614e-16 3.575313829917916e-16 6.22681816745167e-20
3.715437065384467 3.2251088050506326e-24 3.1807073564306864e-16 3.1800307427159545e-16 6.76613714731832e-20
3.8285932144167436 2.9953564774787577e-24 3.044087792950632e-16 3.0432930810965905e-16 7.947118540422932e-20
3.94519561050918 2.953055680184512e-24 3.0924993000955795e-16 3.0915724281715086e-16 9.268719240704975e-20
4.06534921144712 2.988012565265322e-24 3.2244059190177513e-16 3.2233320450832205e-16 1.0738739345305038e-19
4.189162171576248 3.067982928055132e-24 3.411532750616974e-16 3.4102957762094092e-16 1.2369744075640926e-19
4.316745939156006 3.1810220120343445e-24 3.6449585717260233e-16 3.6435418222394457e-16 1.4167494865755997e-19
4.448215356677963 3.3232070452593275e-24 3.9238521785805285e-16 3.922240048486257e-16 1.6121300942724854e-19
4.58368876423945 3.495171750500396e-24 4.2525857116835195e-16 4.2507611231896456e-16 1.8245884938749593e-19
4.723288106065518 3.7009275244348204e-24 4.640069124500478e-16 4.638012407083169e-16 2.056717417311249e-19
4.867139040275056 3.948356622936524e-24 5.1010497371014e-16 5.098744844624656e-16 2.3048924767432437e-19
4.940699165968905 4.097424349268434e-24 5.37364272044584e-16 5.371206614575539e-16 2.436105870300467e-19
5.015371051989984 4.252038576943951e-24 5.660694249631555e-16 5.658122264259059e-16 2.571985372494779e-19
5.091171501069577 4.440163707550832e-24 6.000482074363302e-16 5.997766907204524e-16 2.715167158776574e-19
5.129500256944802 4.536820006420645e-24 6.177262236957882e-16 6.174473666428471e-16 2.7885705294111114e-19
5.168117569889187 4.637597370842032e-24 6.362017495773609e-16 6.359153773772182e-16 2.8637220014276526e-19
5.20702561229733 4.7608111985153114e-24 6.580215331808372e-16 6.577270518433501e-16 2.9448133748690756e-19
5.246226572918644 4.887223534173794e-24 6.805792116162623e-16 6.802764702092832e-16 3.027414069789492e-19
5.265937586045735 4.951661365762615e-24 6.921433919064207e-16 6.918364635985153e-16 3.069283079056155e-19
5.285722656980489 5.016938042960954e-24 7.039025566769807e-16 7.035914034173197e-16 3.111532596611255e-19
5.305582063971359 5.083067223259936e-24 7.158603734824036e-16 7.155449571163995e-16 3.154163660038572e-19
5.3255160863122235 5.154034564886202e-24 7.285820387664666e-16 7.2826229639368175e-16 3.1974237278476985e-19
5.365609099470188 5.3301402890673735e-24 7.591491370490613e-16 7.588204344794068e-16 3.2870256965433216e-19
5.406003951863644 5.512969254476668e-24 7.91099959606196e-16 7.907621286049201e-16 3.3783100127588523e-19
5.446702915881641 5.7028449887263544e-24 8.245076469554891e-16 8.241605180910705e-16 3.4712886441853863e-19
5.487708281020852 5.9078879066192466e-24 8.605828686994508e-16 8.60226241647677e-16 3.566270517740823e-19
5.529022354014368 6.191657957396538e-24 9.087088039261364e-16 9.083422437906988e-16 3.6656013543758624e-19
5.570647458961463 6.492092622758546e-24 9.599747612553684e-16 9.595980784898897e-16 3.7668276547872783e-19
5.612585937458331 6.810385776105525e-24 1.0146217086806035e-15 1.0142347120765078e-15 3.8699660409539397e-19
5.654840148729818 7.16003523010061e-24 1.0747437421066873e-15 1.0743462005830963e-15 3.9754152359090267e-19
5.67608639626678 7.397489450278292e-24 1.1145582857247964e-15 1.1141552318104717e-15 4.030539143245093e-19
5.686739436050992 7.51986762822281e-24 1.1351230911668434e-15 1.1347172608445246e-15 4.0583032231866725e-19
5.6974124697621304 7.64475727760035e-24 1.156140981634197e-15 1.155732361381624e-15 4.0862025257323454e-19
5.718818669136295 7.902312188787878e-24 1.1995820049444824e-15 1.1991677641226622e-15 4.142408218203673e-19
5.740305295436557 8.18603913939193e-24 1.2473210182825081e-15 1.2469010688964154e-15 4.1994938609261947e-19
5.7835210386641895 8.920920867265098e-24 1.3695296522859105e-15 1.3690978568278074e-15 4.317954581034298e-19
5.827062130521658 9.766954151332104e-24 1.5107000056034489e-15 1.5102560433948208e-15 4.439622086281627e-19
5.8489554468988025 1.0359618791381292e-23 1.6083905805417376e-15 1.6079400876939336e-15 4.504928478038135e-19
5.870931020387893 1.0995458141742547e-23 1.7135222195036776e-15 1.7130651238527532e-15 4.570956509241896e-19
5.892989160043636 1.1677942999181001e-23 1.826717655752555e-15 1.8262538845930532e-15 4.637711595022264e-19
5.915130176081913 1.2453828558088045e-23 1.955404555443948e-15 1.954933871737348e-15 4.706837066007039e-19
5.95966208400165 1.4621404321703665e-23 2.31302408744864e-15 2.3125379203723304e-15 4.861670763093983e-19
6.004529249263818 1.774349721181895e-23 2.828053495711312e-15 2.827550028624199e-15 5.034670871133088e-19
6.027089341400364 1.991281543030248e-23 3.1857356137450217e-15 3.1852222850069105e-15 5.133287381113616e-19
6.049734195844842 2.2475819852040937e-23 3.609285769681989e-15 3.6087620145200495e-15 5.23755161940228e-19
6.095279466722835 2.987708973656556e-23 4.8339410206554405e-15 4.8333921173040046e-15 5.489033514373179e-19
6.141167624020661 4.1264349608448935e-23 6.726596686979679e-15 6.7260157315336185e-15 5.809554460597521e-19
6.164241091010745 4.8535995721719746e-23 7.941691138993177e-15 7.941090359402944e-15 6.007795902335833e-19
6.187401249150058 5.681847366756805e-23 9.331839843601682e-15 9.33121861131536e-15 6.21232286321121e-19
6.1990139391386085 6.086287255689909e-23 1.0014850992194455e-14 1.001421933249053e-14 6.31659703926376e-19
6.204828454712694 6.299321343345151e-23 1.0375116341821353e-14 1.0374479405165612e-14 6.36936655742579e-19
6.210648424152782 6.454872353567768e-23 1.0641284064034074e-14 1.0640642558575292e-14 6.41505458780641e-19
6.233982942956859 6.983419768128254e-23 1.1555884451660145e-14 1.1555226699785598e-14 6.577518745450618e-19
6.239830258556775 7.051039125988285e-23 1.1678722343397012e-14 1.1678062102213353e-14 6.602411836614128e-19
6.245683058788269 7.057005300180882e-23 1.1699567800665294e-14 1.1698905062469674e-14 6.627381956219307e-19
6.257405133728602 7.042722783201047e-23 1.1697802943988898e-14 1.1697135695963869e-14 6.672480250299035e-19
6.269149208991335 6.939085521448715e-23 1.154729549320641e-14 1.1546625921552972e-14 6.695716534410095e-19
6.280915325867298 6.678844176473776e-23 1.1135088748665446e-14 1.1134419567998931e-14 6.691806665147341e-19
6.304513850009849 6.036952845171997e-23 1.010273170600736e-14 1.0102065774018878e-14 6.65931988479649e-19
6.32820103803542 5.24122840382599e-23 8.804055803446273e-15 8.803395746974502e-15 6.600564717717762e-19
6.3519772230701035 4.5115217030757237e-23 7.606789810990739e-15 7.60613479874511e-15 6.550122456267058e-19
6.375842739491607 3.8976444484950587e-23 6.596434417422786e-15 6.595783603801608e-15 6.508136211796367e-19
6.399797922933955 3.405791733550959e-23 5.7856716286083765e-15 5.785021847787319e-15 6.4978082105712835e-19
6.42384311029221 2.996899742899276e-23 5.1101844151475735e-15 5.109535033210221e-15 6.493819373516773e-19
6.447978639727206 2.6990881862968846e-23 4.6196608953657834e-15 4.619009411468746e-15 6.514838970369649e-19
6.472204850670314 2.4510611547424832e-23 4.2109087928820685e-15 4.2102546914955005e-15 6.541013865687849e-19
6.496522083828205 2.2900599739435328e-23 3.949091608080781e-15 3.948432834193612e-15 6.587738871690639e-19
