Dust emission spectrum from A.P. Jones, M. Kohler, N. Ysard, M. Bocchio, and L. Verstraete (2017), A&A, 602A, 46J 
inside the DustPedia framework.

lambda    nu*dP/dnu     j_nu    j_nu(carb.) j_nu(sil)
 (um)   (erg s-1 H-1) (Jy cm2 sr-1 H-1)
0.9927057738263894 4.6282854131341815e-25 1.2195794944971942e-17 1.2195794944971931e-17 1.1648354943990771e-32
1.0001793341362166 4.704773601573539e-25 1.2490678769233108e-17 1.2490678769233096e-17 1.4037333487721726e-32
1.0077091589558085 4.78115340938914e-25 1.2789021506503064e-17 1.2789021506503049e-17 1.689497235875076e-32
1.0114953028030835 4.819293264894311e-25 1.2939475072970997e-17 1.293947507297098e-17 1.8526267757753495e-32
1.0152956718711033 4.85739476812628e-25 1.3090775306427273e-17 1.3090775306427253e-17 2.0308633471825799e-32
1.0229392996569957 4.933430461501473e-25 1.3395789297711816e-17 1.3395789297711792e-17 2.4381350188877964e-32
1.0267826658714554 4.971272464722484e-25 1.3549258479352742e-17 1.3549258479352711e-17 2.670262880532014e-32
1.0306404723013447 5.0090593858425575e-25 1.3703541092225207e-17 1.370354109222518e-17 2.923559726392042e-32
1.03451277320114 5.046787578581094e-25 1.3858630503342281e-17 1.3858630503342247e-17 3.199863687410607e-32
1.0383996230291617 5.08445341684391e-25 1.4014519996665505e-17 1.401451999666547e-17 3.501163843845251e-32
1.0403485208654093 5.103261825583669e-25 1.4092762653073938e-17 1.40927626530739e-17 3.661853203281528e-32
1.0423010764483396 5.122053295418678e-25 1.417120277469365e-17 1.417120277469361e-17 3.829611854907896e-32
1.0462171883269815 5.159583630655026e-25 1.4328671960053447e-17 1.4328671960053404e-17 4.1875344204120676e-32
1.0471985131304309 5.168954930465422e-25 1.4368161319120622e-17 1.4368161319120582e-17 4.281910858418331e-32
1.048180758391296 5.178321605690304e-25 1.440769928485538e-17 1.4407699284855337e-17 4.3783268832347154e-32
1.0501480137395462 5.197040861129256e-25 1.4486920597091733e-17 1.4486920597091684e-17 4.577446628933982e-32
1.0521189612883777 5.215740955373383e-25 1.4566335015335988e-17 1.4566335015335942e-17 4.785239823987453e-32
1.0531058218030118 5.225069327201333e-25 1.4606074242439348e-17 1.46060742424393e-17 4.89250766756258e-32
1.0540936079674168 5.234345721242574e-25 1.4645729768738905e-17 1.464572976873886e-17 5.002102996710726e-32
1.058054026499678 5.271398706363596e-25 1.4804820390751954e-17 1.48048203907519e-17 5.46449991190989e-32
1.0590464539527713 5.280648533899593e-25 1.484470960939746e-17 1.4844709609397403e-17 5.586350832164719e-32
1.06003981227728 5.289892885889486e-25 1.4884645225912356e-17 1.48846452259123e-17 5.710804918323709e-32
1.0620293250338977 5.308364947931098e-25 1.496465519559778e-17 1.4964655195597717e-17 5.967735529279525e-32
1.0660195594769086 5.345241002814453e-25 1.512522686788357e-17 1.5125226867883502e-17 6.515235281358854e-32
1.070024785945596 5.382023453866237e-25 1.5286528023877197e-17 1.5286528023877126e-17 7.110695573237341e-32
1.0740450607676866 5.418708910484299e-25 1.544855121310566e-17 1.5448551213105582e-17 7.758103827100748e-32
1.07808044048254 5.455294009158435e-25 1.5611288919950682e-17 1.5611288919950596e-17 8.461759897963123e-32
1.0861967418109137 5.5280851870536045e-25 1.5938691164654912e-17 1.593869116465481e-17 1.0056717286694346e-31
1.0902777775684922 5.5641377085595355e-25 1.6102913618043475e-17 1.6102913618043364e-17 1.0958397868101992e-31
1.0943741465085532 5.600074128614814e-25 1.6267807834660413e-17 1.626780783466029e-17 1.193713205594671e-31
1.1026131145906286 5.671585887960468e-25 1.6599580010242366e-17 1.6599580010242224e-17 1.415118645341681e-31
1.1109141095355224 5.742595220605331e-25 1.6933944065451724e-17 1.6933944065451554e-17 1.6754683771645304e-31
1.1192775983109025 5.8130114808649975e-25 1.7270639756777956e-17 1.727063975677776e-17 1.9812157706291516e-31
1.1277040513999907 5.882507710004445e-25 1.760869125716602e-17 1.7608691257165787e-17 2.3398139679645223e-31
1.1361939428280308 5.951419441356571e-25 1.794909111072767e-17 1.7949091110727397e-17 2.75985784044132e-31
1.1447477501889525 6.019723687502446e-25 1.8291772394702324e-17 1.8291772394702e-17 3.2512472507655874e-31
1.1533659546722406 6.087435200883737e-25 1.863678143512374e-17 1.863678143512336e-17 3.8253753789490882e-31
1.1707974979042381 6.2212985335565075e-25 1.9334469503852147e-17 1.9334469503851617e-17 5.276174851192891e-31
1.1884924949847024 6.35250251140575e-25 2.0040600104093683e-17 2.004060010409296e-17 7.241597210381211e-31
1.2064549276569216 6.482072451810273e-25 2.075842577958428e-17 2.0758425779583294e-17 9.891191218191657e-31
1.2246888378427687 6.6085937966290515e-25 2.148346115872054e-17 2.14834611587192e-17 1.3445449656458458e-30
1.2431983285522175 6.731770480068004e-25 2.2214633412734256e-17 2.221463341273244e-17 1.819015673370517e-30
1.2619875648066055 6.851556261188303e-25 2.2951640715447503e-17 2.2951640715445056e-17 2.449382826243427e-30
1.3004222497298317 7.078964146890667e-25 2.4435629819819464e-17 2.4435629819815085e-17 4.379865694651712e-30
1.3400274889804893 7.28992613236468e-25 2.593022398500775e-17 2.5930223985000055e-17 7.691044082657561e-30
1.3808389325824078 7.483658403399319e-25 2.743003817931395e-17 2.7430038179300694e-17 1.3268727042740625e-29
1.4228933163050095 7.661100859659292e-25 2.893563065997863e-17 2.8935630659956115e-17 2.2501189326779976e-29
1.466228494730424 7.826518005647258e-25 3.04606858124923e-17 3.046068581245478e-17 3.752590155061352e-29
1.5108834753276823 7.976695096687289e-25 3.1990674439144e-17 3.199067443908243e-17 6.157428235559168e-29
1.5568984535646726 8.109030269121687e-25 3.351186839703519e-17 3.351186839693568e-17 9.950855836958485e-29
1.6043148490894465 8.223762706386922e-25 3.5021085784176965e-17 3.5021085784018293e-17 1.5867304467518213e-28
1.6531753430134553 8.321238552202249e-25 3.651542205729538e-17 3.6515422057046e-17 2.4937230444816014e-28
1.7035239163302658 8.402612064475344e-25 3.7995484037234284e-17 3.799548403684791e-17 3.863759806042275e-28
1.755405889504358 8.474563093355274e-25 3.9487923943135817e-17 3.9487923942545323e-17 5.904962477094131e-28
1.8088679632656115 8.53544010595562e-25 4.098285592726084e-17 4.098285592637032e-17 8.905066815609992e-28
1.8639582606462262 8.584123766474787e-25 4.247188992545445e-17 4.247188992412872e-17 1.3257433344513835e-27
1.9207263702978936 8.621422795532597e-25 4.39555658813403e-17 4.3955565879391046e-17 1.9492575742955988e-27
1.979223391128241 8.649221950147328e-25 4.544031044777755e-17 4.544031044494577e-17 2.8317824250600226e-27
2.039501978296691 8.669777356044114e-25 4.6935506480919635e-17 4.693550647685316e-17 4.066479365996402e-27
2.1016163906111602 8.6894113884639e-25 4.847448890149414e-17 4.847448889571897e-17 5.775153403817296e-27
2.1656225393682647 8.711789712193712e-25 5.007945335112455e-17 5.0079453343009493e-17 8.115054013825507e-27
2.231578038680979 8.737173793671544e-25 5.1755020664337786e-17 5.175502065305041e-17 1.1287383325269337e-26
2.299542257339062 8.767758160033756e-25 5.3517940209961234e-17 5.351794019441349e-17 1.5547776456637643e-26
2.369576372248914 8.8083966590047e-25 5.5403475257352356e-17 5.5403475236132866e-17 2.1219502434318445e-26
2.4417434235010123 8.864820948796515e-25 5.745653449900687e-17 5.745653447029802e-17 2.870884796277529e-26
2.5161083711144245 8.946847716502183e-25 5.975425292358767e-17 5.975425288506152e-17 3.852613693517181e-26
2.5927381535095444 9.070541830167104e-25 6.242539831736958e-17 6.242539826605841e-17 5.131116356464196e-26
2.6717017477616296 9.25508266761892e-25 6.563533555752749e-17 6.563533548966483e-17 6.786265922525766e-26
2.753070231689431 9.529347079033568e-25 6.963857389030145e-17 6.963857380112183e-17 8.91796239271908e-26
2.836916847834745 9.958760062316416e-25 7.499310035531866e-17 7.499310023879855e-17 1.1652012591074952e-25
2.9233170693905177 1.0687417316180267e-24 8.293123317048914e-17 8.29312330190365e-17 1.514526380441203e-25
2.967498994190263 1.130622807182222e-24 8.905898790813077e-17 8.905898773597891e-17 1.721518922002087e-25
3.0123486681368425 1.2028923734135354e-24 9.61836918741059e-17 9.618369167851768e-17 1.9558822429396441e-25
3.0578761833420214 1.3646031714918983e-24 1.107632539435005e-16 1.10763253721297e-16 2.2220346735756444e-25
3.1040917844459814 1.5729834929637485e-24 1.296069087913573e-16 1.2960690853910384e-16 2.5225344117954113e-25
3.127460860933648 1.7934270196812195e-24 1.488829704053816e-16 1.4888297013654198e-16 2.6883959227936927e-25
3.1510058709225794 2.0871368278134663e-24 1.7456998183732117e-16 1.7456998155081174e-16 2.865094031009302e-25
3.162844764501044 2.360539852835047e-24 1.9817946281864623e-16 1.981794625227637e-16 2.9588247383914957e-25
3.1747281389236908 2.6784833103180237e-24 2.257173376032828e-16 2.257173372977264e-16 3.0555632192942993e-25
3.1986289994194426 3.5653155274598686e-24 3.0271314069264065e-16 3.0271314036665315e-16 3.25987465979726e-25
3.2227097969389145 5.655807447329542e-24 4.838215938245332e-16 4.838215934756487e-16 3.488843572067386e-25
3.2348180950136065 7.638250013235427e-24 6.558630530685765e-16 6.558630527066976e-16 3.6187905464511577e-25
3.240889293275058 9.120385686567556e-24 7.845973436681076e-16 7.845973432989978e-16 3.6911005379113737e-25
3.2469718861334385 1.0834989871824391e-23 9.338485978756893e-16 9.338485974988321e-16 3.7685706380985834e-25
3.2714166318528037 1.9980985518383162e-23 1.7350907535154279e-15 1.7350907531050441e-15 4.103837291181536e-25
3.2744851364798273 2.055273481900258e-23 1.7864138423165333e-15 1.786413841902341e-15 4.14191798171766e-25
3.2775565192852394 2.114090640189152e-23 1.8392604238403017e-15 1.8392604234222614e-15 4.180404744615398e-25
3.283707930232385 2.0575284284495175e-23 1.793410876628027e-15 1.7934108762040032e-15 4.240235715209323e-25
3.2898708863219004 1.8781497446517565e-23 1.6401308692961701e-15 1.6401308688675085e-15 4.286621868319204e-25
3.29141343181113 1.8358477435301464e-23 1.603941521533136e-15 1.603941521103308e-15 4.298282570593709e-25
3.292184975758714 1.8150620340054085e-23 1.5861532095768116e-15 1.5861532091463996e-15 4.304122577054301e-25
3.295272960557952 1.683860518573224e-23 1.472878565363577e-15 1.472878564931095e-15 4.324823419849589e-25
3.3076538914384823 1.2293371105246214e-23 1.07934549788469e-15 1.079345497443987e-15 4.407029832909506e-25
3.310756385682612 1.1368297417217522e-23 9.990611831190325e-16 9.990611826762521e-16 4.427802399993232e-25
3.313861789986515 1.0514772007512083e-23 9.249189656634837e-16 9.249189652186175e-16 4.448664026244776e-25
3.3200813396944477 9.317797833579256e-24 8.21166909294946e-16 8.211669088450171e-16 4.499288171583157e-25
3.345076488085796 7.182507239043637e-24 6.377516019365662e-16 6.377516014607364e-16 4.758297882451272e-25
3.3482140837626964 7.262577690080206e-24 6.454661076487776e-16 6.454661071690672e-16 4.797106305776454e-25
3.3513546224236106 7.343533410840363e-24 6.532732769814527e-16 6.532732764978288e-16 4.836238605148696e-25
3.3576445397418455 7.935179077039547e-24 7.072303381978648e-16 7.072303377055605e-16 4.923044191557249e-25
3.3702598118196083 1.0117420436604919e-23 9.051126038529453e-16 9.0511260334137e-16 5.115751753811431e-25
3.382922481734668 1.061445243311448e-23 9.531452204450765e-16 9.531452199158802e-16 5.291964678166122e-25
3.389271646505754 1.0871949679989598e-23 9.780999690210824e-16 9.780999684828367e-16 5.3824556080138795e-25
3.395632727569191 1.1149416689817494e-23 1.0049449925428494e-15 1.0049449919951075e-15 5.477418144091516e-25
3.421196662673239 1.2481714230979118e-23 1.133500478872405e-15 1.1335004782842957e-15 5.881099445440583e-25
3.4276182099114902 1.2213231651679982e-23 1.1112006046578396e-15 1.1112006040613416e-15 5.964979547627529e-25
3.4340518103208963 1.103673572288168e-23 1.006043871036706e-15 1.0060438704327746e-15 6.039314797757424e-25
3.4469541582030403 9.361184664528584e-24 8.565165385444287e-16 8.565165379269712e-16 6.174575115618317e-25
3.472904465399547 8.891589968426243e-24 8.196750142587843e-16 8.196750136043955e-16 6.543887302738585e-25
3.4990501388274233 8.173366840056185e-24 7.591377533066019e-16 7.591377526137986e-16 6.928034826767011e-25
3.5253949054701885 5.617379870330857e-24 5.256673452948665e-16 5.25667344567251e-16 7.276154059050966e-25
3.5519380250092896 3.2150252265272706e-24 3.031232142837674e-16 3.031232135214688e-16 7.622986491881869e-25
3.578680990867387 2.2624418526668982e-24 2.1491654273006715e-16 2.1491654192516098e-16 8.0490613516799e-25
3.605625307711299 1.8771058429876136e-24 1.79654784626608e-16 1.7965478377391587e-16 8.526921540761625e-25
3.660119384959845 1.5959158687915759e-24 1.5505103782209525e-16 1.5505103686266141e-16 9.59433792380676e-25
3.715437065384467 1.3967311754620477e-24 1.3775017815805038e-16 1.3775017707862444e-16 1.0794259380383377e-24
3.8285932144167436 1.2953785072618277e-24 1.316452960058176e-16 1.3164529463769922e-16 1.3681183944169047e-24
3.94519561050918 1.2755998394893768e-24 1.3358338067558726e-16 1.335833789414534e-16 1.734133868587606e-24
4.06534921144712 1.2893041254927134e-24 1.3913060145660957e-16 1.3913059925804848e-16 2.198561088151826e-24
4.189162171576248 1.3223845854014853e-24 1.470463958829156e-16 1.4704639309405918e-16 2.7888564275391256e-24
4.316745939156006 1.3695786056322773e-24 1.5693249714607902e-16 1.5693249360712042e-16 3.5389586441235104e-24
4.448215356677963 1.4291116063564381e-24 1.6874129759793025e-16 1.6874129310839065e-16 4.4895396540261654e-24
4.58368876423945 1.5011832274548084e-24 1.826494032168605e-16 1.8264939752131934e-16 5.69554112230204e-24
4.723288106065518 1.5874524409162016e-24 1.9902818980042185e-16 1.9902818257305913e-16 7.227362765719595e-24
4.867139040275056 1.691253471256046e-24 2.1850022424028586e-16 2.1850021507561546e-16 9.164670414344364e-24
4.940699165968905 1.753930587567675e-24 2.3002246120134216e-16 2.300224508810875e-16 1.0320254693854562e-23
5.015371051989984 1.818821017133568e-24 2.4213772962043183e-16 2.421377180021614e-16 1.1618270399932547e-23
5.091171501069577 1.8980947948462193e-24 2.565104474086925e-16 2.5651043432266023e-16 1.3086032208538378e-23
5.129500256944802 1.9387736853030943e-24 2.639803530949262e-16 2.6398033920910944e-16 1.388581666457266e-23
5.168117569889187 1.9811862058759362e-24 2.717860197052749e-16 2.7178600497096844e-16 1.4734306436265347e-23
5.20702561229733 2.0333096633037562e-24 2.8103646338586183e-16 2.810364477396436e-16 1.5646218363508086e-23
5.246226572918644 2.086760255343105e-24 2.9059559880631745e-16 2.9059558219407746e-16 1.6612240081002514e-23
5.265937586045735 2.1139964738018935e-24 2.9549449806329947e-16 2.9549448094683127e-16 1.7116468066621264e-23
5.285722656980489 2.1415806041634043e-24 3.004749210956491e-16 3.004749034602964e-16 1.7635352813427468e-23
5.305582063971359 2.1695182688636444e-24 3.055383865707743e-16 3.055383684014843e-16 1.8169290021881436e-23
5.3255160863122235 2.199545411644358e-24 3.1093103086526486e-16 3.1093101214439005e-16 1.8720874861709276e-23
5.365609099470188 2.2744303745923384e-24 3.2393741299669613e-16 3.239373931067096e-16 1.988998647470911e-23
5.406003951863644 2.3521685522176938e-24 3.375314391850392e-16 3.375314180562761e-16 2.112876318048484e-23
5.446702915881641 2.43289819010884e-24 3.51744290082292e-16 3.517442676412524e-16 2.244103954488029e-23
5.487708281020852 2.5201532654664205e-24 3.6710255188278667e-16 3.6710252804654145e-16 2.3836245340542345e-23
5.529022354014368 2.6416154858870727e-24 3.8769248319759314e-16 3.8769245783448387e-16 2.536310921846929e-23
5.570647458961463 2.7702540188182926e-24 4.096327786527829e-16 4.096327516696241e-16 2.6983158807169077e-23
5.612585937458331 2.9065865448089603e-24 4.3302771729453095e-16 4.3302768859290114e-16 2.8701629848839793e-23
5.654840148729818 3.0564887772495594e-24 4.587885506985314e-16 4.587885201640246e-16 3.0534506747910264e-23
5.67608639626678 3.158682181498233e-24 4.759094853765136e-16 4.759094538377856e-16 3.1538727969509505e-23
5.686739436050992 3.2113615494206714e-24 4.847546298756108e-16 4.847545978229895e-16 3.205262130882787e-23
5.6974124697621304 3.265129740079777e-24 4.937959657554729e-16 4.937959331809518e-16 3.2574521000192307e-23
5.718818669136295 3.3760376175858606e-24 5.124872160603461e-16 5.124871824175444e-16 3.3642801800291496e-23
5.740305295436557 3.498321747333538e-24 5.33045367834393e-16 5.330453330743376e-16 3.476005556738166e-23
5.7835210386641895 3.815739944911042e-24 5.857880680393874e-16 5.857880308106765e-16 3.72287109581173e-23
5.827062130521658 4.1814990655457376e-24 6.467718148230678e-16 6.467717749229416e-16 3.9900126350237435e-23
5.8489554468988025 4.438218117056844e-24 6.890589661274708e-16 6.890589246694753e-16 4.1457995392274225e-23
5.870931020387893 4.713737922490315e-24 7.345846405836264e-16 7.345845975082772e-16 4.3075349014070004e-23
5.892989160043636 5.009572606042707e-24 7.836204310874216e-16 7.83620386333096e-16 4.475432529043567e-23
5.915130176081913 5.3460755810294064e-24 8.393997473253676e-16 8.393997007710951e-16 4.655427263108399e-23
5.95966208400165 6.287230791661402e-24 9.946046183043468e-16 9.946045673952967e-16 5.090904999706167e-23
6.004529249263818 7.644125288546784e-24 1.2183615769686159e-15 1.2183615205895693e-15 5.637904696557557e-23
6.027089341400364 8.587494417667003e-24 1.3738633240966446e-15 1.3738632642542093e-15 5.984243507274552e-23
6.049734195844842 9.702411423817209e-24 1.558064431647574e-15 1.5580643679365595e-15 6.371101467866119e-23
6.095279466722835 1.2923322248411565e-23 2.090919098565686e-15 2.0909190244236234e-15 7.414206247600307e-23
6.141167624020661 1.7880766719730044e-23 2.914784973442688e-15 2.9147848842248123e-15 8.921787558944807e-23
6.164241091010745 2.104665553425219e-23 3.443754172061105e-15 3.4437540729501403e-15 9.911096408254807e-23
6.187401249150058 2.4653292977135804e-23 4.0490454394472726e-15 4.0490453294302096e-15 1.1001706417747503e-22
6.1990139391386085 2.6414327196873473e-23 4.3464190864216925e-15 4.346418970788658e-15 1.1563303491122817e-22
6.204828454712694 2.734199567820299e-23 4.50328488923048e-15 4.503284770678416e-15 1.1855206424487394e-22
6.210648424152782 2.8019148223249255e-23 4.619141930995284e-15 4.6191418100115655e-15 1.2098371828220995e-22
6.233982942956859 3.031969396782921e-23 5.017182007316744e-15 5.017181877684902e-15 1.2963184004693273e-22
6.239830258556775 3.0613738746319515e-23 5.070590991245545e-15 5.070590860407648e-15 1.3083789889912545e-22
6.245683058788269 3.0639156637299313e-23 5.0795610203679364e-15 5.07956088831342e-15 1.3205451626495117e-22
6.257405133728602 3.057576929089032e-23 5.078565989830639e-15 5.078565855642197e-15 1.3418844343756003e-22
6.269149208991335 3.012305108312688e-23 5.012760989018579e-15 5.0127608541112145e-15 1.34907361976073e-22
6.280915325867298 2.898803198726828e-23 4.8329366623703036e-15 4.832936528503983e-15 1.3386632016793812e-22
6.304513850009849 2.6189129206781925e-23 4.382703538949723e-15 4.382703408804123e-15 1.301455991822839e-22
6.32820103803542 2.2719899319567552e-23 3.816419473574895e-15 3.816419349192964e-15 1.2438193167540068e-22
6.3519772230701035 1.953834005448542e-23 3.294321868136147e-15 3.2943217491977576e-15 1.1893838873846151e-22
6.375842739491607 1.686179486255793e-23 2.8537165316309604e-15 2.8537164174651146e-15 1.141658459456511e-22
6.399797922933955 1.4716464941256487e-23 2.4999953122577953e-15 2.4999952012675264e-15 1.109902691211713e-22
6.42384311029221 1.2932845846220325e-23 2.205253193519405e-15 2.2052530851993202e-15 1.083200847646387e-22
6.447978639727206 1.1632940062770761e-23 1.9910515921247834e-15 1.9910514849882156e-15 1.0713656834112213e-22
6.472204850670314 1.0550049730559508e-23 1.8124924010891767e-15 1.8124922947654744e-15 1.063237022957948e-22
6.496522083828205 9.846100277387022e-24 1.6979097674369332e-15 1.697909660630548e-15 1.0680638528159627e-22
