Dust emission spectrum from A.P. Jones, M. Kohler, N. Ysard, M. Bocchio, and L. Verstraete (2017), A&A, 602A, 46J 
inside the DustPedia framework.

lambda    nu*dP/dnu     j_nu    j_nu(carb.) j_nu(sil)
 (um)   (erg s-1 H-1) (Jy cm2 sr-1 H-1)
0.9927057738263894 9.649526473921134e-23 2.5427050340944145e-15 2.5427050338197796e-15 2.746350688260858e-25
1.0001793341362166 9.808765140633862e-23 2.6041239147731207e-15 2.60412391444235e-15 3.307696903686535e-25
1.0077091589558085 9.967777480224383e-23 2.666262921333739e-15 2.6662629209358765e-15 3.978619773785889e-25
1.0114953028030835 1.0047179279192652e-22 2.6975993925041853e-15 2.6975993920680466e-15 4.361381948573373e-25
1.0152956718711033 1.0126501161533603e-22 2.7291121614364296e-15 2.729112160958489e-15 4.779411725576186e-25
1.0229392996569957 1.0284796411897469e-22 2.7926402688507802e-15 2.792640268277382e-15 5.733978488000902e-25
1.0267826658714554 1.0363577676398419e-22 2.8246046400558897e-15 2.8246046394281206e-15 6.277688766350224e-25
1.0306404723013447 1.0442244338073864e-22 2.8567384285020118e-15 2.8567384278149403e-15 6.870713616667488e-25
1.03451277320114 1.0520788843042401e-22 2.8890402639138486e-15 2.889040263162118e-15 7.517305597380619e-25
1.0383996230291617 1.05992036800251e-22 2.9215087590407667e-15 2.921508758218561e-15 8.222063513824344e-25
1.0403485208654093 1.063836013775365e-22 2.937805065922481e-15 2.937805065062701e-15 8.597792959506877e-25
1.0423010764483396 1.0677481381795348e-22 2.9541425099925605e-15 2.9541425090935648e-15 8.989958813482526e-25
1.0462171883269815 1.075561452659698e-22 2.9869400965757484e-15 2.9869400955931117e-15 9.826363844727535e-25
1.0471985131304309 1.0775124360475963e-22 2.995164924584957e-15 2.995164923580273e-15 1.0046839918456234e-24
1.048180758391296 1.0794624583610913e-22 3.0033998800435777e-15 3.003399879016373e-15 1.0272053389624634e-24
1.0501480137395462 1.0833595739530576e-22 3.0199000826302583e-15 3.01990008155655e-15 1.0737082099062307e-24
1.0521189612883777 1.0872527080037128e-22 3.0364405223762893e-15 3.0364405212540644e-15 1.1222248083045896e-24
1.0531058218030118 1.0891947629617164e-22 3.044717414460816e-15 3.0447174133135506e-15 1.1472656764078271e-24
1.0540936079674168 1.091125990597123e-22 3.0529768672099602e-15 3.0529768660371122e-15 1.172846856300913e-24
1.058054026499678 1.0988399749210363e-22 3.0861123153605417e-15 3.0861123140797973e-15 1.2807433326431187e-24
1.0590464539527713 1.1007656833555038e-22 3.09442046985381e-15 3.094420468544642e-15 1.3091674549652606e-24
1.06003981227728 1.1026902543671463e-22 3.1027382944004885e-15 3.1027382930622933e-15 1.3381951738774146e-24
1.0620293250338977 1.106535939561271e-22 3.1194028593540807e-15 3.119402857955969e-15 1.3981104085317283e-24
1.0660195594769086 1.1142131718977083e-22 3.152846989548918e-15 3.1528469880231813e-15 1.5257363832266346e-24
1.070024785945596 1.1218709647789865e-22 3.1864431824332872e-15 3.186443180768816e-15 1.6644713316915564e-24
1.0740450607676866 1.1295086166398854e-22 3.22018990096404e-15 3.220189899148809e-15 1.8152316216151916e-24
1.07808044048254 1.137125431615516e-22 3.2540855949048957e-15 3.2540855929258906e-15 1.9790047349470922e-24
1.0861967418109137 1.1522803297300252e-22 3.3222788161233733e-15 3.322278813773447e-15 2.349926445803971e-24
1.0902777775684922 1.1597864272287116e-22 3.356484262478489e-15 3.356484259919035e-15 2.5594543996371395e-24
1.0943741465085532 1.1672684289146442e-22 3.390829845630334e-15 3.39082984284357e-15 2.7867645737706614e-24
1.1026131145906286 1.1821575037751334e-22 3.4599349205448356e-15 3.459934917244287e-15 3.3005487853987115e-24
1.1109141095355224 1.1969423369859915e-22 3.529580930824387e-15 3.5295809269203524e-15 3.904034717739085e-24
1.1192775983109025 1.2116040850746608e-22 3.599713805838083e-15 3.599713801226131e-15 4.611951922193889e-24
1.1277040513999907 1.2260746689944072e-22 3.6701303880718964e-15 3.670130382630609e-15 5.44128624692843e-24
1.1361939428280308 1.2404240477995694e-22 3.7410376582056374e-15 3.74103765179404e-15 6.411596992738348e-24
1.1447477501889525 1.2546474782286349e-22 3.812421848363468e-15 3.812421840818089e-15 7.545378548736117e-24
1.1533659546722406 1.2687480736873475e-22 3.884292771134987e-15 3.884292762266508e-15 8.868478540388636e-24
1.1707974979042381 1.2966264121343108e-22 4.02963845700049e-15 4.029638444794851e-15 1.2205639153145254e-23
1.1884924949847024 1.3239539176569665e-22 4.1767525431705766e-15 4.176752526455265e-15 1.6715311929071515e-23
1.2064549276569216 1.3509445167211876e-22 4.326314105739641e-15 4.3263140829603e-15 2.2779341093669587e-23
1.2246888378427687 1.3773040155063995e-22 4.477390838573649e-15 4.477390807680988e-15 3.0892660833355157e-23
1.2431983285522175 1.4029711145278653e-22 4.6297610844237966e-15 4.629761042729218e-15 4.169457800547452e-23
1.2619875648066055 1.4279367270495094e-22 4.783364461192981e-15 4.783364405186316e-15 5.600666400668399e-23
1.3004222497298317 1.4753507295504096e-22 5.092711805515972e-15 5.0927117058708965e-15 9.964507583935431e-23
1.3400274889804893 1.5193645126154424e-22 5.4043705535066845e-15 5.404370379444254e-15 1.7406243011403111e-22
1.3808389325824078 1.5598193589453865e-22 5.7172444628512476e-15 5.717244164183662e-15 2.9866758568998584e-22
1.4228933163050095 1.5969157961875996e-22 6.031478572078876e-15 6.031478068441407e-15 5.036374697434572e-22
1.466228494730424 1.6315469411497697e-22 6.349955207007277e-15 6.349954371960312e-15 8.350469628674955e-22
1.5108834753276823 1.6630489382617875e-22 6.669686695482653e-15 6.669685333544298e-15 1.3619383562954128e-21
1.5568984535646726 1.6908858403439415e-22 6.987856978631545e-15 6.9878547913234294e-15 2.1873081177540597e-21
1.6043148490894465 1.7151135599816873e-22 7.303851200263196e-15 7.303847734761696e-15 3.465501500071077e-21
1.6531753430134553 1.7358106802421045e-22 7.617118437714618e-15 7.617113027354772e-15 5.4103598462305405e-21
1.7035239163302658 1.753223910204163e-22 7.927843220978114e-15 7.927834895782104e-15 8.325196009278613e-21
1.755405889504358 1.768750939119064e-22 8.24164051749725e-15 8.241627885012296e-15 1.2632484952840147e-20
1.8088679632656115 1.7820546249463847e-22 8.556522808674751e-15 8.556503899890678e-15 1.89087840735872e-20
1.8639582606462262 1.792908061516697e-22 8.870817325886321e-15 8.870789394535074e-15 2.793135124710337e-20
1.9207263702978936 1.8014858687780671e-22 9.184717263884766e-15 9.184676531637584e-15 4.0732247182677825e-20
1.979223391128241 1.8081866051318375e-22 9.499647616662687e-15 9.499588952726332e-15 5.86639363529213e-20
2.039501978296691 1.8134853071896768e-22 9.81765135287063e-15 9.817567879803566e-15 8.347306706108025e-20
2.1016163906111602 1.8187042940253471e-22 1.0145769048623251e-14 1.0145651655065803e-14 1.1739355744766954e-19
2.1656225393682647 1.824611788182091e-22 1.0488724355028964e-14 1.0488561119164121e-14 1.6323586484814363e-19
2.231578038680979 1.8312649211720906e-22 1.0847575666377026e-14 1.0847351176486705e-14 2.244898903167906e-19
2.299542257339062 1.8391238100211895e-22 1.1225916170006588e-14 1.1225610732656427e-14 3.054373501608206e-19
2.369576372248914 1.8492006360470015e-22 1.1631190743479393e-14 1.1630779467155164e-14 4.1127632423225363e-19
2.4417434235010123 1.86268961205452e-22 1.207285410208784e-14 1.2072305870615964e-14 5.482314718738259e-19
2.5161083711144245 1.8816344529393043e-22 1.2567069941660866e-14 1.2566346247677764e-14 7.236939831028297e-19
2.5927381535095444 1.9093772442763328e-22 1.3140740348680549e-14 1.3139794013129913e-14 9.463355506329441e-19
2.6717017477616296 1.9499011212245012e-22 1.3828338329526302e-14 1.3827112166894443e-14 1.2261626318560635e-18
2.753070231689431 2.0091999890633786e-22 1.46828340639024e-14 1.4681259457483853e-14 1.5746064185517948e-18
2.836916847834745 2.1008594249773855e-22 1.582023873493141e-14 1.5818234081479456e-14 2.0046534519537257e-18
2.9233170693905177 2.2547969659393597e-22 1.749656511038728e-14 1.749403466064621e-14 2.5304497410696266e-18
2.967498994190263 2.384654548582958e-22 1.878388789419586e-14 1.8781058511925805e-14 2.8293822700499614e-18
3.0123486681368425 2.536112182079671e-22 2.0278841072629973e-14 2.027568165664431e-14 3.1594159856566296e-18
3.0578761833420214 2.873338939403973e-22 2.3322558327561388e-14 2.3319034096613725e-14 3.524230947650853e-18
3.1040917844459814 3.307454858305978e-22 2.7251970670354244e-14 2.7248046935392057e-14 3.9237349621825806e-18
3.127460860933648 3.7659187141093264e-22 3.12631157169402e-14 3.125897708147294e-14 4.138635467250519e-18
3.1510058709225794 4.376482598145804e-22 3.6605289959357966e-14 3.660092658749096e-14 4.3633718670117925e-18
3.162844764501044 4.944569595076712e-22 4.151220514429458e-14 4.1507725187817505e-14 4.479956477074377e-18
3.1747281389236908 5.605079044725882e-22 4.723432526750603e-14 4.722972615716983e-14 4.599110336200589e-18
3.1986289994194426 7.4469980857938675e-22 6.322874264339903e-14 6.322389675235775e-14 4.845891041273803e-18
3.2227097969389145 1.17879073693557e-21 1.0083872522906506e-13 1.0083361706610197e-13 5.108162963069393e-18
3.2348180950136065 1.5904044250449093e-21 1.3656105783605986e-13 1.3655580950782681e-13 5.248328233068077e-18
3.240889293275058 1.898133330802507e-21 1.6329028403578723e-13 1.6328496176806877e-13 5.322267718439477e-18
3.2469718861334385 2.254132122784931e-21 1.9427965759000908e-13 1.9427425881079323e-13 5.398779215831838e-18
3.2714166318528037 4.1528914712926254e-21 3.606250345141127e-13 3.6061931891343637e-13 5.715600676277425e-18
3.2744851364798273 4.2715923252825475e-21 3.7128059724502065e-13 3.712748441313666e-13 5.753113654123097e-18
3.2775565192852394 4.393701044709593e-21 3.8225231653251653e-13 3.822465257015764e-13 5.7908309402008786e-18
3.283707930232385 4.2762910283736195e-21 3.7273588718729416e-13 3.7273002855169194e-13 5.858635602355468e-18
3.2898708863219004 3.903913060331711e-21 3.4091681664529584e-13 3.4091089597645585e-13 5.920668839993792e-18
3.29141343181113 3.816095932668195e-21 3.3340426721829225e-13 3.333983309636926e-13 5.936254599731618e-18
3.292184975758714 3.772945539809942e-21 3.2971157819447966e-13 3.297056341353588e-13 5.944059120777258e-18
3.295272960557952 3.500593063496509e-21 3.0619807474630904e-13 3.061921002675171e-13 5.974478791932734e-18
3.3076538914384823 2.557037503015276e-21 2.245052958357407e-13 2.244991990044998e-13 6.096831240955337e-18
3.310756385682612 2.3649877778204344e-21 2.078382892932476e-13 2.0783216158611877e-13 6.12770712876866e-18
3.313861789986515 2.187787227100123e-21 1.9244600812414736e-13 1.9243984942558968e-13 6.158698557634613e-18
3.3200813396944477 1.9392927146521905e-21 1.7090765792000683e-13 1.7090143271093286e-13 6.225209074022747e-18
3.345076488085796 1.4960857141393287e-21 1.3284094663214187e-13 1.328344253873104e-13 6.5212448314779005e-18
3.3482140837626964 1.5127212707691697e-21 1.344440434605671e-13 1.344374821253741e-13 6.561335193029463e-18
3.3513546224236106 1.5295405116581782e-21 1.3606637110846623e-13 1.36059769483222e-13 6.6016252442256414e-18
3.3576445397418455 1.6523974072015449e-21 1.4727148130958291e-13 1.4726479550326955e-13 6.6858063133848735e-18
3.3702598118196083 2.1054755416116e-21 1.883575424939299e-13 1.8835068006953563e-13 6.8624243942321916e-18
3.382922481734668 2.208718657454771e-21 1.9833615016193228e-13 1.9832911541816496e-13 7.034743767297216e-18
3.389271646505754 2.2622038540118197e-21 2.0352021345360485e-13 2.0351309123642779e-13 7.122217177109297e-18
3.395632727569191 2.319843995553214e-21 2.0909754040683897e-13 2.0909032803613863e-13 7.212370700382386e-18
3.421196662673239 2.5966223250559927e-21 2.3580676455455617e-13 2.357991782428242e-13 7.586311731949144e-18
3.4276182099114902 2.5409094559739944e-21 2.3118042827516047e-13 2.311727578026566e-13 7.67047250388545e-18
3.4340518103208963 2.296673608867617e-21 2.0935124895513354e-13 2.0934349853691182e-13 7.750418221810321e-18
3.4469541582030403 1.9488258922018055e-21 1.7831093683467116e-13 1.7830303226599248e-13 7.904568678644562e-18
3.472904465399547 1.8513937764418516e-21 1.7067152505821126e-13 1.7066326635586834e-13 8.258702342907788e-18
3.4990501388274233 1.702355479182296e-21 1.5811382739634242e-13 1.5810520464007414e-13 8.62275626828758e-18
3.5253949054701885 1.1718206320553762e-21 1.0965750136780783e-13 1.096485223150117e-13 8.979052796140932e-18
3.5519380250092896 6.731346141926455e-22 6.346535828589325e-14 6.345601897277437e-14 9.339313118896934e-18
3.578680990867387 4.754524561677858e-22 4.516474003150602e-14 4.5155005452440965e-14 9.734579065061359e-18
3.605625307711299 3.955484231261798e-22 3.785730412144753e-14 3.784715188023975e-14 1.015224120777116e-17
3.660119384959845 3.373692216341556e-22 3.277707112669848e-14 3.27660353668928e-14 1.1035759805685987e-17
3.715437065384467 2.962103548871046e-22 2.9213230058003164e-14 2.920125398503202e-14 1.1976072971141639e-17
3.8285932144167436 2.755747304593918e-22 2.800580429556049e-14 2.799177568406451e-14 1.402861149598149e-17
3.94519561050918 2.718889392257644e-22 2.8472756538301036e-14 2.8456441121782955e-14 1.6315416518092097e-17
4.06534921144712 2.7516958793884615e-22 2.969393296393004e-14 2.967508600782922e-14 1.8846956100829404e-17
4.189162171576248 2.824894187816312e-22 3.141223163478342e-14 3.1390590030382366e-14 2.164160440104837e-17
4.316745939156006 2.9275677492421287e-22 3.354539239759761e-14 3.35206870901051e-14 2.4705307492511272e-17
4.448215356677963 3.056044944106243e-22 3.6084025004934745e-14 3.605600988002561e-14 2.801512490914767e-17
4.58368876423945 3.2107589720015014e-22 3.906539850592016e-14 3.9033806805438143e-14 3.159170048200318e-17
4.723288106065518 3.395180318211638e-22 4.256735983785944e-14 4.2531885672848734e-14 3.5474165010703544e-17
4.867139040275056 3.616253038128597e-22 4.671991000579529e-14 4.6680316138884904e-14 3.959386691039235e-17
4.940699165968905 3.7492797098585344e-22 4.917062013211729e-14 4.9128860453172486e-14 4.175967894480922e-17
5.015371051989984 3.886962890704338e-22 5.1746728271113977e-14 5.1702734656226556e-14 4.3993614887413775e-17
5.091171501069577 4.0546192406245613e-22 5.4794533882527324e-14 5.4748194342218e-14 4.6339540309315776e-17
5.129500256944802 4.1406327704818797e-22 5.6378199739045334e-14 5.6330661342271e-14 4.7538396774322524e-17
5.168117569889187 4.2302660880594887e-22 5.80322626393195e-14 5.798349895137559e-14 4.87636879439124e-17
5.20702561229733 4.340120273302692e-22 5.998752055780954e-14 5.993743284775731e-14 5.0087710052225553e-17
5.246226572918644 4.452743230958818e-22 6.200748659162589e-14 6.195605300821726e-14 5.143358340863941e-17
5.265937586045735 4.510120569988585e-22 6.304248046530233e-14 6.299036575226672e-14 5.211471303559785e-17
5.285722656980489 4.568223669117576e-22 6.409455912408175e-14 6.404175782091841e-14 5.280130316333434e-17
5.305582063971359 4.627064229700089e-22 6.516403939029298e-14 6.511054603808125e-14 5.3493352211711684e-17
5.3255160863122235 4.690255321044238e-22 6.630215108417943e-14 6.624795600015672e-14 5.419508402270961e-17
5.365609099470188 4.847503274917512e-22 6.9040920659145e-14 6.898527270274101e-14 5.564795640399314e-17
5.406003951863644 5.010683467241925e-22 7.190229630458566e-14 7.184517137601028e-14 5.712492857538955e-17
5.446702915881641 5.180082536314162e-22 7.489275390607241e-14 7.483412787442861e-14 5.862603164378613e-17
5.487708281020852 5.363055685041568e-22 7.812189261845827e-14 7.806173628690273e-14 6.015633155553774e-17
5.529022354014368 5.617206772404724e-22 8.24400392056538e-14 8.237828381970841e-14 6.175538594536898e-17
5.570647458961463 5.886249225360592e-22 8.703897222594035e-14 8.697559090802276e-14 6.338131791757216e-17
5.612585937458331 6.171255105483093e-22 9.194030420123635e-14 9.18752699927601e-14 6.503420847627715e-17
5.654840148729818 6.484447598537771e-22 9.733359199476003e-14 9.726687143102972e-14 6.672056373030795e-17
5.67608639626678 6.697710279106283e-22 1.0091245870828805e-13 1.0084485671416512e-13 6.760199412289698e-17
5.686739436050992 6.807623263902448e-22 1.027609892203185e-13 1.026929436615497e-13 6.804555876880505e-17
5.6974124697621304 6.9197938137948535e-22 1.0465024489434496e-13 1.045817538681655e-13 6.849102617948012e-17
5.718818669136295 7.151125069766474e-22 1.0855507532302441e-13 1.0848568764440304e-13 6.938767862133614e-17
5.740305295436557 7.406098110232501e-22 1.1284800474386143e-13 1.1277770722795627e-13 7.029751590517893e-17
5.7835210386641895 8.067504218903482e-22 1.2385140964844378e-13 1.2377922578746283e-13 7.218386098096651e-17
5.827062130521658 8.829228182281977e-22 1.3656575896415275e-13 1.364916417124096e-13 7.41172517431129e-17
5.8489554468988025 9.363636873317155e-22 1.4537586420830582e-13 1.4530070848982317e-13 7.515571848260351e-17
5.870931020387893 9.937019343519285e-22 1.5485760776185055e-13 1.5478140334765042e-13 7.620441420016855e-17
5.892989160043636 1.055251123132246e-21 1.6506724326480937e-13 1.6498997987533563e-13 7.726338947373436e-17
5.915130176081913 1.1252461477205074e-21 1.766775118980949e-13 1.7659915195780483e-13 7.835994029008616e-17
5.95966208400165 1.3209620297525327e-21 2.0896877797758908e-13 2.0888795544084637e-13 8.082253674265235e-17
6.004529249263818 1.6030337998186946e-21 2.5550010165419384e-13 2.554165254111266e-13 8.35762430672796e-17
6.027089341400364 1.7991105491079234e-21 2.87829240893557e-13 2.877440917619568e-13 8.514913160015763e-17
6.049734195844842 2.030797465797616e-21 3.261161747451895e-13 3.260293624620251e-13 8.68122831643664e-17
6.095279466722835 2.7000485936306115e-21 4.368523095654895e-13 4.3676147364840065e-13 9.083591708875427e-17
6.141167624020661 3.729934776335471e-21 6.080252602360488e-13 6.079292813598368e-13 9.597887621196997e-17
6.164241091010745 4.387643631898291e-21 7.179271803197663e-13 7.178280125738652e-13 9.916774590127261e-17
6.187401249150058 5.136781834453843e-21 8.436626733605363e-13 8.435602194235501e-13 1.0245393698631248e-16
6.1990139391386085 5.502573408423812e-21 9.054362773866372e-13 9.053321488042227e-13 1.0412858241440892e-16
6.204828454712694 5.6952509275147415e-21 9.38019950851614e-13 9.379149751889185e-13 1.0497566269578922e-16
6.210648424152782 5.835908477326024e-21 9.620881169649421e-13 9.619824100668404e-13 1.0570689810203196e-16
6.233982942956859 6.313766550058937e-21 1.0447769020018905e-12 1.0446686046477946e-12 1.0829735409599837e-16
6.239830258556775 6.374844078988848e-21 1.0558732216724748e-12 1.0557645343206985e-12 1.0868735177589947e-16
6.245683058788269 6.380131272298898e-21 1.0577401492881497e-12 1.0576310708485546e-12 1.0907843959537467e-16
6.257405133728602 6.366982697995968e-21 1.057541397577078e-12 1.0574316165362359e-12 1.0978104084198543e-16
6.269149208991335 6.272976237546018e-21 1.0438826559048255e-12 1.0437725300036855e-12 1.1012590113969399e-16
6.280915325867298 6.037263842440838e-21 1.0065434513577867e-12 1.0064334244145346e-12 1.1002694325214649e-16
6.304513850009849 5.455996854747367e-21 9.130512333952517e-13 9.129418073768666e-13 1.094260183847494e-16
6.32820103803542 4.735551549312393e-21 7.954635228224059e-13 7.953551265764929e-13 1.0839624591262312e-16
6.3519772230701035 4.074864155479715e-21 6.870549933948573e-13 6.869474910270224e-13 1.0750236783484576e-16
6.375842739491607 3.5190120714377616e-21 5.955631061299391e-13 5.954563595224104e-13 1.0674660752856395e-16
6.399797922933955 3.0735676466488798e-21 5.221297872281938e-13 5.220232808278301e-13 1.0650640036354292e-16
6.42384311029221 2.7032015810117196e-21 4.609382954174002e-13 4.608319264732672e-13 1.0636894413285792e-16
6.447978639727206 2.4333360503459536e-21 4.1648092322947764e-13 4.1637428579724893e-13 1.0663743222872846e-16
6.472204850670314 2.2085196441842544e-21 3.7942238899075246e-13 3.793154002791637e-13 1.0698871158858622e-16
6.496522083828205 2.062431495258233e-21 3.55655790801862e-13 3.555481182950896e-13 1.0767250677240312e-16
