Dust emission spectrum from A.P. Jones, M. Kohler, N. Ysard, M. Bocchio, and L. Verstraete (2017), A&A, 602A, 46J 
inside the DustPedia framework.

lambda    nu*dP/dnu     j_nu    j_nu(carb.) j_nu(sil)
 (um)   (erg s-1 H-1) (Jy cm2 sr-1 H-1)
0.9927057738263894 7.695970055158788e-23 2.027931821771595e-15 2.0279317945445786e-15 2.722701636459185e-23
1.0001793341362166 7.824913130055786e-23 2.077432084553271e-15 2.0774320517735e-15 3.27797713804246e-23
1.0077091589558085 7.954052841750652e-23 2.1276153293313304e-15 2.1276152899182106e-15 3.9413119985698906e-23
1.0114953028030835 8.018685742830046e-23 2.1529626562290714e-15 2.1529626130330535e-15 4.3196018113972434e-23
1.0152956718711033 8.083355043056383e-23 2.178480227406871e-15 2.1784801800804786e-15 4.7326392838679506e-23
1.0229392996569957 8.212723187843986e-23 2.2300083125385166e-15 2.230008255784257e-15 5.675425973965927e-23
1.0267826658714554 8.277270941095383e-23 2.2559794153386317e-15 2.2559793532164783e-15 6.212215368334103e-23
1.0306404723013447 8.341835321889158e-23 2.282118743514469e-15 2.282118675539156e-15 6.797531348502651e-23
1.03451277320114 8.406412321547752e-23 2.308426110849478e-15 2.308426036494063e-15 7.43554144680949e-23
1.0383996230291617 8.470997977572499e-23 2.334901331874025e-15 2.3349012505665172e-15 8.130750831100208e-23
1.0403485208654093 8.503292826411614e-23 2.348201829885523e-15 2.3482017448724063e-15 8.501311702050083e-23
1.0423010764483396 8.535588375037201e-23 2.3615442223562957e-15 2.3615441334760167e-15 8.888027887117095e-23
1.0462171883269815 8.600179647967706e-23 2.3883545997996134e-15 2.388354502673298e-15 9.712631593376401e-23
1.0471985131304309 8.616327154719617e-23 2.3950833428176897e-15 2.3950832435181083e-15 9.929958135463902e-23
1.048180758391296 8.632474418337328e-23 2.4018225396997374e-15 2.401822438180354e-15 1.0151938338853334e-22
1.0501480137395462 8.664767980707153e-23 2.41533228394614e-15 2.4153321778437313e-15 1.0610240802849573e-22
1.0521189612883777 8.697059866203739e-23 2.42888381044008e-15 2.4288836995568845e-15 1.1088319583666407e-22
1.0531058218030118 8.713182143497333e-23 2.43566883626375e-15 2.435668722913314e-15 1.1335043589843153e-22
1.0540936079674168 8.729228829738701e-23 2.442443303104725e-15 2.44244318723399e-15 1.1587073474136333e-22
1.058054026499678 8.793405397880944e-23 2.4696441075788463e-15 2.4696439810799554e-15 1.264988905623041e-22
1.0590464539527713 8.809446712195199e-23 2.476470028680865e-15 2.4764698993826187e-15 1.2929824711734035e-22
1.06003981227728 8.825486782782619e-23 2.4833062321187104e-15 2.4833060999618736e-15 1.3215683654343465e-22
1.0620293250338977 8.857562969274001e-23 2.4970094748316303e-15 2.4970093367751268e-15 1.3805650225182817e-22
1.0660195594769086 8.921697971582134e-23 2.524539226498196e-15 2.524539075877608e-15 1.5062058830591738e-22
1.070024785945596 8.985806890299864e-23 2.5522331893043366e-15 2.5522330250301663e-15 1.6427417015947864e-22
1.0740450607676866 9.049886270011816e-23 2.580091195608512e-15 2.5800910165018037e-15 1.7910670821890535e-22
1.07808044048254 9.113932715635867e-23 2.608113083949644e-15 2.6081128887350773e-15 1.9521456704720365e-22
1.0861967418109137 9.241808894662929e-23 2.664617725496799e-15 2.6646174938175353e-15 2.316792635520219e-22
1.0902777775684922 9.305394194903863e-23 2.693031099353798e-15 2.693030847085744e-15 2.5226805424232252e-22
1.0943741465085532 9.368929434520534e-23 2.7216058244388458e-15 2.72160554984174e-15 2.745971060149685e-22
1.1026131145906286 9.495837594444638e-23 2.7792388059900228e-15 2.7792384809475612e-15 3.2504246080347597e-22
1.1109141095355224 9.62250978805018e-23 2.8375157269560622e-15 2.8375153426992774e-15 3.8425678556151916e-22
1.1192775983109025 9.748816445700121e-23 2.8964039971857316e-15 2.8964035435132777e-15 4.536724540875869e-22
1.1277040513999907 9.87424400650212e-23 2.955754971858532e-15 2.9557544369186903e-15 5.349398408900599e-22
1.1361939428280308 9.999355964573031e-23 3.015740245251625e-15 3.0157396152938247e-15 6.299578007892061e-22
1.1447477501889525 1.0124133645161632e-22 3.0763596129057256e-15 3.076358871997493e-15 7.409082332777754e-22
1.1533659546722406 1.0248614241070119e-22 3.1376298444374732e-15 3.137628974141354e-15 8.7029611969459e-22
1.1707974979042381 1.0497068760909867e-22 3.26226518053986e-15 3.2622639842481074e-15 1.196291752022709e-21
1.1884924949847024 1.074411934383932e-22 3.389508289905315e-15 3.3895066537043977e-15 1.6362009175592694e-21
1.2064549276569216 1.0991538349703956e-22 3.519970421991547e-15 3.519968195113601e-15 2.2268779466199835e-21
1.2246888378427687 1.1237264211925191e-22 3.6530514154208985e-15 3.6530483994166476e-15 3.0160042507804084e-21
1.2431983285522175 1.1480940715038562e-22 3.788674762056659e-15 3.7886706970030574e-15 4.0650536015194985e-21
1.2619875648066055 1.1722739579880624e-22 3.926934214381132e-15 3.9269287615038895e-15 5.452877241154035e-21
1.3004222497298317 1.2198216423154842e-22 4.210659847870221e-15 4.210650173793536e-15 9.67407668422008e-21
1.3400274889804893 1.2663873191452473e-22 4.504532177825782e-15 4.504515328321315e-15 1.6849504466448623e-20
1.3808389325824078 1.312021417062881e-22 4.808984539669147e-15 4.8089557152285795e-15 2.8824440568786936e-20
1.4228933163050095 1.3570606552917336e-22 5.125556577838408e-15 5.125508122146387e-15 4.84556920197673e-20
1.466228494730424 1.4023971620288697e-22 5.45810784643553e-15 5.458027760660648e-15 8.008577488221564e-20
1.5108834753276823 1.4477303513318703e-22 5.8061477571531496e-15 5.806017565384479e-15 1.301917686692947e-19
1.5568984535646726 1.4928507067521832e-22 6.169445021262554e-15 6.169236627653653e-15 2.0839360890083785e-19
1.6043148490894465 1.5380136476924348e-22 6.549667082592192e-15 6.549338032020421e-15 3.2905057177203574e-19
1.6531753430134553 1.5835024909498398e-22 6.9487566572056815e-15 6.948244727376839e-15 5.119298288436023e-19
1.7035239163302658 1.6297105522747472e-22 7.369332393204302e-15 7.368547464387612e-15 7.849288166913457e-19
1.755405889504358 1.6779568097662593e-22 7.818577802066183e-15 7.817391107516801e-15 1.1866945493832862e-18
1.8088679632656115 1.7281707534924993e-22 8.297799777034388e-15 8.296030117488887e-15 1.7696595455005056e-18
1.8639582606462262 1.7803101880246025e-22 8.808486503218004e-15 8.805882422148168e-15 2.6040810698343183e-18
1.9207263702978936 1.8346459153298517e-22 9.353780844850838e-15 9.349998194317633e-15 3.782650533208471e-18
1.979223391128241 1.8916057660038369e-22 9.937905831004404e-15 9.932479807277958e-15 5.426023726448113e-18
2.039501978296691 1.9516202191549637e-22 1.056547125522003e-14 1.055778234267041e-14 7.688912549618582e-18
2.1016163906111602 2.0158300520429152e-22 1.1245448870654373e-14 1.123468113645673e-14 1.0767734197646968e-17
2.1656225393682647 2.0848658517396832e-22 1.1984786779163294e-14 1.1969879155806885e-14 1.4907623356410668e-17
2.231578038680979 2.158650743330643e-22 1.2786859511606216e-14 1.2766449118225778e-14 2.0410393380439692e-17
2.299542257339062 2.2374591551439754e-22 1.365733441794255e-14 1.3629691425317558e-14 2.764299262499268e-17
2.369576372248914 2.3219164262298863e-22 1.460450116523288e-14 1.456745452454801e-14 3.704664068486962e-17
2.4417434235010123 2.412752196771512e-22 1.5638034950968424e-14 1.558889074445298e-14 4.9144206515446816e-17
2.5161083711144245 2.511316418895806e-22 1.6772593121158648e-14 1.67080433731411e-14 6.454974801754295e-17
2.5927381535095444 2.619843691622729e-22 1.8030321566334022e-14 1.7946346458913972e-14 8.397510742005006e-17
2.6717017477616296 2.740671101776438e-22 1.9436332864673866e-14 1.93281021130072e-14 1.0823075166666355e-16
2.753070231689431 2.8772970398236103e-22 2.1026714721405963e-14 2.0888485619082427e-14 1.3822910232354473e-16
2.836916847834745 3.0382599935996827e-22 2.2879207369172537e-14 2.270421638835203e-14 1.7499098082050109e-16
2.9233170693905177 3.2424142981418516e-22 2.5160186810281216e-14 2.4940584690903725e-14 2.1960211937748873e-16
2.967498994190263 3.3791923760472833e-22 2.6617847353325076e-14 2.637307521240437e-14 2.4477214092070756e-16
3.0123486681368425 3.530110828857018e-22 2.8226888768169114e-14 2.7954423540621984e-14 2.724652275471317e-16
3.0578761833420214 3.802366274983961e-22 3.086336526990484e-14 3.0560388049008196e-14 3.029772208966434e-16
3.1040917844459814 4.1339898655546303e-22 3.406225493439952e-14 3.3726005029053607e-14 3.3624990534591024e-16
3.127460860933648 4.455517795585599e-22 3.6987885028002534e-14 3.663379281530465e-14 3.5409221269789527e-16
3.1510058709225794 4.8722403310976835e-22 4.075185176037735e-14 4.037914148960215e-14 3.72710270775207e-16
3.162844764501044 5.2515853800748765e-22 4.408976058250107e-14 4.3707407742922566e-14 3.823528395784986e-16
3.1747281389236908 5.6866538346684565e-22 4.792176074005331e-14 4.752956388696523e-14 3.921968530880844e-16
3.1986289994194426 6.880947067820753e-22 5.842268606514749e-14 5.801013513178163e-14 4.1255093336586295e-16
3.2227097969389145 9.662174810095198e-22 8.265431346392042e-14 8.222017380200444e-14 4.341396619159682e-16
3.2348180950136065 1.2283304853619269e-21 1.0547135546895184e-13 1.050256895207734e-13 4.45665948178438e-16
3.240889293275058 1.4241266402374027e-21 1.2251301834996985e-13 1.2206127249184928e-13 4.51745858120521e-16
3.2469718861334385 1.6508131528841488e-21 1.4228066351814993e-13 1.4182262662032916e-13 4.580368978207161e-16
3.2714166318528037 2.851070892050665e-21 2.475787161680694e-13 2.4709466435237574e-13 4.840518156936927e-16
3.2744851364798273 2.9262480977646558e-21 2.5434523210341764e-13 2.53858109577465e-13 4.871225259526473e-16
3.2775565192852394 3.003517530258908e-21 2.6130624774070755e-13 2.6081603869901923e-13 4.902090416882767e-16
3.283707930232385 2.9299887258865405e-21 2.5538765718839465e-13 2.5489191848987834e-13 4.957386985163473e-16
3.2898708863219004 2.6954311149378507e-21 2.3538377545559715e-13 2.3488299526643614e-13 5.007801891610324e-16
3.29141343181113 2.64006217515899e-21 2.306566738494378e-13 2.301546274745764e-13 5.020463748614004e-16
3.292184975758714 2.6128477040577203e-21 2.2833251394614353e-13 2.278298336051732e-13 5.026803409703804e-16
3.295272960557952 2.441877171890893e-21 2.1359183293733887e-13 2.1308668485468865e-13 5.05148082650126e-16
3.3076538914384823 1.8475144963800217e-21 1.6220989644520608e-13 1.6169483202417093e-13 5.150644210351892e-16
3.310756385682612 1.7259755043827326e-21 1.5168103596863235e-13 1.5116347108326988e-13 5.175648853624274e-16
3.313861789986515 1.6136142761978595e-21 1.419395918669937e-13 1.414195179442849e-13 5.20073922708783e-16
3.3200813396944477 1.4564320805426727e-21 1.2835370025599962e-13 1.2782823389935818e-13 5.254663566414444e-16
3.345076488085796 1.1794470998467302e-21 1.047258641436253e-13 1.0417637793726502e-13 5.494862063603178e-16
3.3482140837626964 1.1904620611075935e-21 1.0580305584010536e-13 1.0525031620943777e-13 5.527396306676003e-16
3.3513546224236106 1.2015883435330255e-21 1.0689207917319282e-13 1.0633607094514814e-13 5.560082280447133e-16
3.3576445397418455 1.2804697067987225e-21 1.1412307334206215e-13 1.135602328838504e-13 5.628404582117009e-16
3.3702598118196083 1.5684828879288576e-21 1.4031774597957362e-13 1.397405736248759e-13 5.771723546977401e-16
3.382922481734668 1.6362002843145654e-21 1.4692575905469535e-13 1.463346371468731e-13 5.911219078222699e-16
3.389271646505754 1.6712012323928115e-21 1.5035038992499895e-13 1.497521937092595e-13 5.981962157394523e-16
3.395632727569191 1.7092663053558237e-21 1.5406354092571542e-13 1.5345805408580254e-13 6.054868399128912e-16
3.421196662673239 1.892737680677174e-21 1.7188496930193913e-13 1.712492813001974e-13 6.356880017417169e-16
3.4276182099114902 1.8584167646226088e-21 1.6908496386956258e-13 1.684425149891757e-13 6.424488803869476e-16
3.4340518103208963 1.7039190139152813e-21 1.5531922877689377e-13 1.5467037509250312e-13 6.488536843906622e-16
3.4469541582030403 1.4832948786540853e-21 1.3571643340393973e-13 1.3505526576255907e-13 6.61167641380638e-16
3.472904465399547 1.423214102429852e-21 1.3119959915436454e-13 1.305100955863219e-13 6.895035680426612e-16
3.4990501388274233 1.3308621495050373e-21 1.2360973414098025e-13 1.2289118659711386e-13 7.185475438664137e-16
3.5253949054701885 9.981382933716515e-22 9.34045264919784e-14 9.265768726196932e-14 7.468392300090848e-16
3.5519380250092896 6.833491071135056e-22 6.442841446999491e-14 6.365307823635719e-14 7.753362336377176e-16
3.578680990867387 5.603687246246617e-22 5.323120627760096e-14 5.242462679286137e-14 8.065794847395988e-16
3.605625307711299 5.127046700776008e-22 4.9070140303460376e-14 4.823061835418407e-14 8.395219492763016e-16
3.660119384959845 4.822113025126786e-22 4.684918820987025e-14 4.594029048033283e-14 9.08897729537406e-16
3.715437065384467 4.621086241118254e-22 4.557465775668522e-14 4.4592382186805086e-14 9.822755698801257e-16
3.8285932144167436 4.615336247136836e-22 4.6904229382732835e-14 4.5763399364934337e-14 1.1408300177984882e-15
3.94519561050918 4.716657385640602e-22 4.9393784755771445e-14 4.8078775979873635e-14 1.3150087758978102e-15
4.06534921144712 4.861112294042407e-22 5.2456938890176647e-14 5.0952013483936274e-14 1.5049254062403858e-15
4.189162171576248 5.029786809607754e-22 5.5930175727789334e-14 5.421893085412213e-14 1.7112448736672026e-15
4.316745939156006 5.215069962453466e-22 5.97566250402622e-14 5.782306215635279e-14 1.933562883909381e-15
4.448215356677963 5.413832491455428e-22 6.392342736024057e-14 6.175420633669558e-14 2.1692210235449886e-15
4.58368876423945 5.625762746134757e-22 6.844882019920468e-14 6.602998596005904e-14 2.4188342391456415e-15
4.723288106065518 5.852550669224467e-22 7.337684804835558e-14 7.06925755933143e-14 2.684272455041281e-15
4.867139040275056 6.097330465944637e-22 7.87740038213546e-14 7.581478607136554e-14 2.9592177499890688e-15
4.940699165968905 6.232070434658503e-22 8.173163692573753e-14 7.863048141885488e-14 3.1011555068826687e-15
5.015371051989984 6.36772007534698e-22 8.477278783224734e-14 8.152708302964835e-14 3.245704802598985e-15
5.091171501069577 6.521395345049483e-22 8.81307952705879e-14 8.473492926961377e-14 3.395866000974138e-15
5.129500256944802 6.598624737618823e-22 8.984582890628689e-14 8.637400324123411e-14 3.471825665052759e-15
5.168117569889187 6.677614165578141e-22 9.160583542361355e-14 8.805679036511893e-14 3.549045058494617e-15
5.20702561229733 6.76992570345805e-22 9.357138321929394e-14 8.993838194031386e-14 3.633001278980086e-15
5.246226572918644 6.863140766067523e-22 9.557391633757763e-14 9.18561348808204e-14 3.7177814567571995e-15
5.265937586045735 6.910096663378999e-22 9.658935435411741e-14 9.28288815663979e-14 3.760472787719503e-15
5.285722656980489 6.95729015946344e-22 9.7614407211208e-14 9.381104648339246e-14 3.803360727815531e-15
5.305582063971359 7.004725441027422e-22 9.864920431132294e-14 9.48027622533102e-14 3.84644205801278e-15
5.3255160863122235 7.054873551962492e-22 9.972874824602473e-14 9.58387201639061e-14 3.890028082118629e-15
5.365609099470188 7.175265370464931e-22 1.0219424290311796e-13 9.821403652780155e-14 3.980206375316427e-15
5.406003951863644 7.298166788952629e-22 1.0472722022259449e-13 1.0065596477415188e-13 4.0712554484426e-15
5.446702915881641 7.42370921988817e-22 1.0733072760476308e-13 1.0316757739474782e-13 4.163150210015253e-15
5.487708281020852 7.556820720231441e-22 1.1007775632265983e-13 1.0582152728285222e-13 4.256229039807611e-15
5.529022354014368 7.735991394757473e-22 1.1353604375246872e-13 1.0918273526211534e-13 4.3533084903534105e-15
5.570647458961463 7.922412472540753e-22 1.171473739489302e-13 1.1269605202121769e-13 4.451321927712529e-15
5.612585937458331 8.11662422164129e-22 1.2092271138844884e-13 1.1637246709624265e-13 4.550244292206228e-15
5.654840148729818 8.326593318738474e-22 1.249847769569673e-13 1.2033427311327998e-13 4.6505038436873365e-15
5.67608639626678 8.467903729930288e-22 1.2758345014684212e-13 1.2288051485513857e-13 4.7029352917035884e-15
5.686739436050992 8.540259702108006e-22 1.2891511488900409e-13 1.2418586620161818e-13 4.729248687385878e-15
5.6974124697621304 8.613785920334143e-22 1.3026902683623125e-13 1.2551340014527703e-13 4.755626690954221e-15
5.718818669136295 8.764462520128236e-22 1.3304576269554946e-13 1.2823718770994225e-13 4.808574985607233e-15
5.740305295436557 8.929457848768017e-22 1.3605970197527533e-13 1.3119755048641215e-13 4.862151488863212e-15
5.7835210386641895 9.35423308966752e-22 1.4360512531506377e-13 1.3863214019295914e-13 4.972985122104601e-15
5.827062130521658 9.83599727733721e-22 1.521379225473501e-13 1.4705205615211672e-13 5.085866395233416e-15
5.8489554468988025 1.0173920180810707e-21 1.579559799981559e-13 1.528092539611573e-13 5.14672603699859e-15
5.870931020387893 1.05331697995883e-21 1.6414796237439257e-13 1.589400025937978e-13 5.207959780594765e-15
5.892989160043636 1.0915432150033455e-21 1.7074421950880886e-13 1.6547465425059953e-13 5.269565258209333e-15
5.915130176081913 1.1348172795489621e-21 1.7818029754275192e-13 1.7284689752144452e-13 5.333400021307403e-15
5.95966208400165 1.255728992448687e-21 1.9864927765727715e-13 1.9317095645793676e-13 5.478321199340385e-15
6.004529249263818 1.4288167543866713e-21 2.277324570650344e-13 2.2209132852799874e-13 5.641128537035658e-15
6.027089341400364 1.5489038388112378e-21 2.4780012343500047e-13 2.420651929437255e-13 5.734930491274967e-15
6.049734195844842 1.6899676710601578e-21 2.713839275511973e-13 2.655496838446404e-13 5.8342437065568304e-15
6.095279466722835 2.0967050874938696e-21 3.392348056661376e-13 3.3315737069511043e-13 6.077434971027137e-15
6.141167624020661 2.7191814534272417e-21 4.432600326790367e-13 4.3686810109787087e-13 6.391931581165719e-15
6.164241091010745 3.116507219588905e-21 5.0993777715663e-13 5.033490080836561e-13 6.588769072973881e-15
6.187401249150058 3.565979810111689e-21 5.856748751854274e-13 5.788838095301049e-13 6.79106565532271e-15
6.1990139391386085 3.7850964133737755e-21 6.228292385573752e-13 6.159352024362014e-13 6.8940361211737e-15
6.204828454712694 3.9002482022653174e-21 6.423791811038759e-13 6.354331172205175e-13 6.94606388335844e-15
6.210648424152782 3.984131142738888e-21 6.568103738692173e-13 6.498198536670363e-13 6.990520202180865e-15
6.233982942956859 4.2676592702818695e-21 7.061952316186158e-13 6.990491651912722e-13 7.146066427343623e-15
6.239830258556775 4.30311089284505e-21 7.127295201803432e-13 7.055614563132466e-13 7.168063867096559e-15
6.245683058788269 4.305003006425772e-21 7.137117291729292e-13 7.065216259661495e-13 7.190103206779908e-15
6.257405133728602 4.294493783292851e-21 7.133056854228743e-13 7.060767626160405e-13 7.228922806833632e-15
6.269149208991335 4.2353763368885974e-21 7.048067347752783e-13 6.975623742113272e-13 7.244360563950902e-15
6.280915325867298 4.091171203474172e-21 6.820873976539044e-13 6.748565343864806e-13 7.230863267423836e-15
6.304513850009849 3.7372243393275646e-21 6.25417752858252e-13 6.182400927166963e-13 7.177660141555483e-15
6.32820103803542 3.3014412709746275e-21 5.545660471549679e-13 5.474694769224054e-13 7.096570232562509e-15
6.3519772230701035 2.9026657925592494e-21 4.894128861332544e-13 4.823885547827814e-13 7.0243313504730405e-15
6.375842739491607 2.5665364954270417e-21 4.343646501297349e-13 4.274035038565644e-13 6.961146273170596e-15
6.399797922933955 2.298669294377446e-21 3.9049204298134267e-13 3.8356091174958704e-13 6.931131231755592e-15
6.42384311029221 2.075377712527188e-21 3.5388447235278436e-13 3.4697675868499243e-13 6.907713667792004e-15
6.447978639727206 1.9132046251396235e-21 3.2745712557530735e-13 3.2054690068246895e-13 6.910224892838367e-15
6.472204850670314 1.777800586269212e-21 3.0542510562117905e-13 2.9850719916193453e-13 6.917906459244551e-15
6.496522083828205 1.6899847079704253e-21 2.914292422018209e-13 2.8448258814958795e-13 6.946654052232921e-15
