Dust emission spectrum from A.P. Jones, M. Kohler, N. Ysard, M. Bocchio, and L. Verstraete (2017), A&A, 602A, 46J 
inside the DustPedia framework.

lambda    nu*dP/dnu     j_nu    j_nu(carb.) j_nu(sil)
 (um)   (erg s-1 H-1) (Jy cm2 sr-1 H-1)
0.9927057738263894 8.744876795848142e-20 2.3043247056145897e-12 2.304324630113473e-12 7.55011170590782e-20
1.0001793341362166 8.89150838091727e-20 2.360601898523589e-12 2.360601807687787e-12 9.08358017086692e-20
1.0077091589558085 9.038773308277433e-20 2.4177652615153192e-12 2.417765152376881e-12 1.0913843850112034e-19
1.0114953028030835 9.11263749043619e-20 2.446681269958074e-12 2.446681150388903e-12 1.1956917152047908e-19
1.0152956718711033 9.186653189034983e-20 2.4758212675005715e-12 2.4758211365477916e-12 1.3095278043194742e-19
1.0229392996569957 9.335058261870614e-20 2.5347569917874943e-12 2.5347568348692286e-12 1.5691826548452847e-19
1.0267826658714554 9.409279454342361e-20 2.564509596608173e-12 2.5645094249162645e-12 1.716919082936339e-19
1.0306404723013447 9.483640247611456e-20 2.594488182838031e-12 2.5944879950446257e-12 1.877934059422321e-19
1.03451277320114 9.558138769988042e-20 2.6246936581027384e-12 2.6246934527667444e-12 2.0533599401484994e-19
1.0383996230291617 9.632773223508902e-20 2.6551269506567278e-12 2.6551267262147244e-12 2.2444200410717233e-19
1.0403485208654093 9.670140883174361e-20 2.670429324342506e-12 2.670429089720331e-12 2.3462217513456144e-19
1.0423010764483396 9.707541885682761e-20 2.685789010217582e-12 2.685788764974035e-12 2.4524354594242153e-19
1.0462171883269815 9.782443111220515e-20 2.716680808811087e-12 2.71668054092785e-12 2.6788323667617863e-19
1.0471985131304309 9.801188945312932e-20 2.7244397712857946e-12 2.7244394974376483e-12 2.738481460889489e-19
1.048180758391296 9.819942942630161e-20 2.7322131703133695e-12 2.732212890373351e-12 2.799400196076269e-19
1.0501480137395462 9.85747533374932e-20 2.747803341626738e-12 2.7478030491117573e-12 2.925149803503858e-19
1.0521189612883777 9.895040101390429e-20 2.763451450911234e-12 2.7634511452819772e-12 3.0562925709525563e-19
1.0531058218030118 9.913809920098187e-20 2.7712903820157544e-12 2.77129006961983e-12 3.123959238220609e-19
1.0540936079674168 9.932507010595384e-20 2.779121237883234e-12 2.7791209185759652e-12 3.193072676820866e-19
1.058054026499678 1.0007371993274325e-19 2.810588862591881e-12 2.8105885141486937e-12 3.4844318771501247e-19
1.0590464539527713 1.0026107292821082e-19 2.8184919014991016e-12 2.818491545384211e-12 3.5611489046039554e-19
1.06003981227728 1.0044850174575261e-19 2.826409426830125e-12 2.826409062882207e-12 3.6394791756837324e-19
1.0620293250338977 1.0082358608727612e-19 2.8422880042710664e-12 2.8422876241601773e-12 3.801108886533607e-19
1.0660195594769086 1.0157465646927626e-19 2.8742197448463127e-12 2.874219330327754e-12 4.145185591723202e-19
1.070024785945596 1.0232691985872228e-19 2.906385194017905e-12 2.9063847421274405e-12 4.51890465670844e-19
1.0740450607676866 1.0308036593169801e-19 2.938785490175341e-12 2.938784997707233e-12 4.924681071258387e-19
1.07808044048254 1.0383498527600465e-19 2.9714218013202886e-12 2.9714212648088422e-12 5.365114460937265e-19
1.0861967418109137 1.0534656575255824e-19 3.0373742805544007e-12 3.0373736444189923e-12 6.361354084572774e-19
1.0902777775684922 1.0610090967880524e-19 3.070617358598669e-12 3.0706166662579827e-12 6.923406869402708e-19
1.0943741465085532 1.0685635415840515e-19 3.1040993305410528e-12 3.1040985772773236e-12 7.532637290726152e-19
1.1026131145906286 1.0837052813424986e-19 3.1717852608657175e-12 3.1717843700799186e-12 8.907857989758316e-19
1.1109141095355224 1.0988906454540112e-19 3.2404430417446042e-12 3.2404419897088604e-12 1.0520357443158644e-18
1.1192775983109025 1.114107798785885e-19 3.310049275902117e-12 3.3100480350470642e-12 1.2408550531839687e-18
1.1277040513999907 1.1293027535348341e-19 3.3804534567872792e-12 3.380451995123735e-12 1.461663545078918e-18
1.1361939428280308 1.1445399067591444e-19 3.4518573709536686e-12 3.4518556514141215e-12 1.7195395478087666e-18
1.1447477501889525 1.1598197282440992e-19 3.5242744666123753e-12 3.524272446302463e-12 2.0203099127434405e-18
1.1533659546722406 1.1751481205959152e-19 3.597734999177166e-12 3.597732628522506e-12 2.3706546598656718e-18
1.1707974979042381 1.205997089044825e-19 3.747981842392299e-12 3.747978590630361e-12 3.2517619394000773e-18
1.1884924949847024 1.237050312797151e-19 3.902592810140525e-12 3.90258837221505e-12 4.4379254752679025e-18
1.2064549276569216 1.2685160620371773e-19 4.062342209188872e-12 4.0623361824289645e-12 6.0267599084180164e-18
1.2246888378427687 1.3001990221938352e-19 4.2267350742839995e-12 4.226726930109787e-12 8.144174215427011e-18
1.2431983285522175 1.3320763046309998e-19 4.39581041462787e-12 4.395799462633144e-12 1.0951994725839653e-17
1.2619875648066055 1.3641978614292924e-19 4.569849241065211e-12 4.569834583910084e-12 1.4657155126264862e-17
1.3004222497298317 1.428993688396832e-19 4.932693549501988e-12 4.932667668256289e-12 2.5881245699016645e-17
1.3400274889804893 1.4947994552850186e-19 5.316992790383064e-12 5.316947930136928e-12 4.4860246136393505e-17
1.3808389325824078 1.5618687168926572e-19 5.7247560252057204e-12 5.724679661937355e-12 7.63632683652278e-17
1.4228933163050095 1.6307560294055707e-19 6.159291598924512e-12 6.159163875676259e-12 1.277232482507341e-16
1.466228494730424 1.7026137087591432e-19 6.6265459563413414e-12 6.626335948250356e-12 2.1000809098836305e-16
1.5108834753276823 1.7772982564117057e-19 7.127885573279312e-12 7.127545967803583e-12 3.39605475726383e-16
1.5568984535646726 1.8547267970024492e-19 7.664956014565835e-12 7.66441532663077e-12 5.406879350648057e-16
1.6043148490894465 1.9352895923269806e-19 8.241475982456355e-12 8.240626862626037e-12 8.4911983031662245e-16
1.6531753430134553 2.0193818385189522e-19 8.861490950627947e-12 8.860177174224266e-12 1.3137764036812134e-15
1.7035239163302658 2.1074466303680396e-19 9.529590821169468e-12 9.527587711143105e-12 2.0031100263632415e-15
1.755405889504358 2.200909989701061e-19 1.0255321167783521e-11 1.0252309996873189e-11 3.0111709103351572e-15
1.8088679632656115 2.2996111324624285e-19 1.1041566757017422e-11 1.1037102329052334e-11 4.464427965084561e-15
1.8639582606462262 2.403305094990871e-19 1.1890894426566973e-11 1.1884363611265228e-11 6.5308153017459566e-15
1.9207263702978936 2.512039707036905e-19 1.2807413516063657e-11 1.2797983728940755e-11 9.429787122902654e-15
1.979223391128241 2.625967654111303e-19 1.3796013805219467e-11 1.3782569601161533e-11 1.3444204057934348e-14
2.039501978296691 2.7451331670135817e-19 1.486130615125082e-11 1.484237314759327e-11 1.8933003657549167e-14
2.1016163906111602 2.870351092279789e-19 1.6012454232611143e-11 1.598610718103694e-11 2.6347051574201257e-14
2.1656225393682647 3.0017647659690596e-19 1.725555179069435e-11 1.7219309193052227e-11 3.624259764212245e-14
2.231578038680979 3.138570112706378e-19 1.859145358390911e-11 1.8542157340558642e-11 4.9296243350473694e-14
2.299542257339062 3.280372463977427e-19 2.0023223062173427e-11 1.995690292121958e-11 6.632014095384579e-14
2.369576372248914 3.427037176149829e-19 2.1555542597044894e-11 2.1467264836327364e-11 8.827776071753643e-14
2.4417434235010123 3.5784999138613497e-19 2.3193723250933905e-11 2.307742888212732e-11 1.1629436880659205e-13
2.5161083711144245 3.7352824207185806e-19 2.4947223601108714e-11 2.479555207186403e-11 1.5167152924468612e-13
2.5927381535095444 3.8986688404072623e-19 2.683146826582213e-11 2.663557494537921e-11 1.958933204429154e-13
2.6717017477616296 4.06961837386542e-19 2.8860981274028586e-11 2.861036276676693e-11 2.506185072616651e-13
2.753070231689431 4.249850909775835e-19 3.1057065520716024e-11 3.073938820127277e-11 3.176773194432593e-13
2.836916847834745 4.445236237336814e-19 3.34742523329916e-11 3.307517719753433e-11 3.9907513545726245e-13
2.9233170693905177 4.66936768269715e-19 3.623292780625732e-11 3.573605834419979e-11 4.968694620575242e-13
2.967498994190263 4.805618260951943e-19 3.785378252362052e-11 3.730232491139388e-11 5.514576122266378e-13
3.0123486681368425 4.950744015157794e-19 3.9586321056323443e-11 3.8975062667041726e-11 6.112583892817273e-13
3.0578761833420214 5.189286491701787e-19 4.212083552741137e-11 4.14439503604635e-11 6.768851669478643e-13
3.1040917844459814 5.467499190765896e-19 4.504978419063083e-11 4.430172665148934e-11 7.480575391414821e-13
3.127460860933648 5.725798310601481e-19 4.7533233918600764e-11 4.67471651978156e-11 7.860687207851688e-13
3.1510058709225794 6.053444554728754e-19 5.0631549014412484e-11 4.98059289493012e-11 8.256200651112816e-13
3.162844764501044 6.350252589778109e-19 5.3313636941713837e-11 5.2467575756773736e-11 8.460611849401102e-13
3.1747281389236908 6.685473213653645e-19 5.633886941131596e-11 5.547197027019557e-11 8.668991411203778e-13
3.1986289994194426 7.591686703279016e-19 6.445722145499555e-11 6.35473286537437e-11 9.098928012518477e-13
3.2227097969389145 9.689920470556268e-19 8.289166153121233e-11 8.19362819173382e-11 9.553796138741323e-13
3.2348180950136065 1.1657462021435233e-18 1.0009751735228826e-10 9.911788096571348e-11 9.796363865747448e-13
3.240889293275058 1.3127359012018258e-18 1.1293043259537187e-10 1.1193800123736866e-10 9.924313580032144e-13
3.2469718861334385 1.4831060806587715e-18 1.2782628782382957e-10 1.2682061748786988e-10 1.0056703359596864e-12
3.2714166318528037 2.375542488595796e-18 2.06285210644561e-10 2.0522488804654118e-10 1.0603225980197572e-12
3.2744851364798273 2.431233822380984e-18 2.1131931066389824e-10 2.102525638826739e-10 1.066746781224307e-12
3.2775565192852394 2.4884020317188286e-18 2.1649116118950998e-10 2.1541795961072772e-10 1.073201578782313e-12
3.283707930232385 2.433160873499888e-18 2.1208247306739537e-10 2.1099776164392572e-10 1.0847114234696623e-12
3.2898708863219004 2.258059148858212e-18 1.9718941608810259e-10 1.960942607605607e-10 1.0951553275418534e-12
3.29141343181113 2.2166700156151295e-18 1.9366579228111406e-10 1.925680152072586e-10 1.0977770738554645e-12
3.292184975758714 2.1963185138561664e-18 1.919327050391904e-10 1.9083361547540068e-10 1.0990895637896568e-12
3.295272960557952 2.0696193109809964e-18 1.810303102889628e-10 1.7992612118985578e-10 1.104189099107063e-12
3.3076538914384823 1.6271145478329294e-18 1.4285900480110677e-10 1.4173434868368653e-10 1.124656117420215e-12
3.310756385682612 1.536036509862514e-18 1.3498894307014673e-10 1.3385913117962438e-10 1.129811890522395e-12
3.313861789986515 1.4516050190094604e-18 1.2768864715040367e-10 1.2655366386811744e-10 1.134983282286193e-12
3.3200813396944477 1.3337074419357666e-18 1.1753811764956088e-10 1.1639199683230299e-10 1.146120817257825e-12
3.345076488085796 1.1280214129399286e-18 1.0015965723091664e-10 9.896386389709767e-11 1.19579333381895e-12
3.3482140837626964 1.1363658659217578e-18 1.0099522285913735e-10 9.979269887672236e-11 1.2025239824149844e-12
3.3513546224236106 1.1447842053869877e-18 1.0183884071199234e-10 1.0062955739850578e-10 1.209283313486582e-12
3.3576445397418455 1.2039072132833479e-18 1.0729936871530384e-10 1.0607594768354763e-10 1.2234210317562552e-12
3.3702598118196083 1.4178580810472636e-18 1.268427290999553e-10 1.2558965616620913e-10 1.2530729337461636e-12
3.382922481734668 1.468939386713568e-18 1.3190624428270577e-10 1.3062440176942917e-10 1.281842513276596e-12
3.389271646505754 1.4952555482321115e-18 1.3452135527229825e-10 1.332249404638804e-10 1.296414808417835e-12
3.395632727569191 1.5242637739365744e-18 1.3738846520383303e-10 1.3607703269708333e-10 1.31143250674971e-12
3.421196662673239 1.6651283589910726e-18 1.5121511015016611e-10 1.4984156657312342e-10 1.373543577042669e-12
3.4276182099114902 1.6396734562188055e-18 1.4918296712575015e-10 1.4779561888535484e-10 1.3873482403952989e-12
3.4340518103208963 1.5243239160186019e-18 1.389483966718358e-10 1.3754801908505935e-10 1.4003775867765051e-12
3.4469541582030403 1.358671576741712e-18 1.2431382540065678e-10 1.228884952289918e-10 1.42533017166498e-12
3.472904465399547 1.3124078995731627e-18 1.209848820757503e-10 1.1950198642411581e-10 1.4828956516344457e-12
3.4990501388274233 1.2427836353975075e-18 1.1542905087756834e-10 1.1388737109461754e-10 1.5416797829507789e-12
3.5253949054701885 9.971588199610832e-19 9.331286860175098e-11 9.171427947880616e-11 1.5985891229448539e-12
3.5519380250092896 7.632968536082371e-19 7.196615249216383e-11 7.03105242871294e-11 1.6556282050344404e-12
3.578680990867387 6.723458866173997e-19 6.386827281340427e-11 6.215014755635394e-11 1.7181252570503479e-12
3.605625307711299 6.376339592630149e-19 6.102692187015057e-11 5.924307118476304e-11 1.7838506853875404e-12
3.660119384959845 6.162932776299042e-19 5.987590835327228e-11 5.7954413705388244e-11 1.921494647884026e-12
3.715437065384467 6.02123266228969e-19 5.93833578381393e-11 5.7317399008137376e-11 2.0659588300019106e-12
3.8285932144167436 6.027252767109639e-19 6.125309862560921e-11 5.887888697239214e-11 2.3742116532170447e-12
3.94519561050918 6.102448822529704e-19 6.39060713930157e-11 6.119906608865141e-11 2.707005304364287e-12
4.06534921144712 6.199063588630296e-19 6.689495740380891e-11 6.383179352492948e-11 3.063163878879418e-12
4.189162171576248 6.302915666735274e-19 7.008710193532667e-11 6.664453523591425e-11 3.4425666994124284e-12
4.316745939156006 6.407864489850801e-19 7.342420300890488e-11 6.958131318791589e-11 3.8428898209889866e-12
4.448215356677963 6.510942728628142e-19 7.687747546992498e-11 7.261994115923011e-11 4.25753431069487e-12
4.58368876423945 6.611525843866639e-19 8.044262869779797e-11 7.575643434106245e-11 4.686194356735525e-12
4.723288106065518 6.710465163834568e-19 8.413302344389967e-11 7.900221734420035e-11 5.130806099699306e-12
4.867139040275056 6.808693635617488e-19 8.796440695911506e-11 8.238652090884855e-11 5.577886050266527e-12
4.940699165968905 6.861300808221924e-19 8.9983794691594e-11 8.418021648679314e-11 5.803578204800881e-12
5.015371051989984 6.910838665212815e-19 9.20032685131898e-11 8.597341236005354e-11 6.029856153136263e-12
5.091171501069577 6.969320696524477e-19 9.41841037051572e-11 8.792218374639862e-11 6.261919958758586e-12
5.129500256944802 6.997277891072138e-19 9.527382707898542e-11 8.889598764475255e-11 6.3778394342328784e-12
5.168117569889187 7.025472900413934e-19 9.637788262848157e-11 8.988292033974516e-11 6.49496228873642e-12
5.20702561229733 7.062250285822898e-19 9.761178435795186e-11 9.098798874667521e-11 6.623795611276635e-12
5.246226572918644 7.0984392073558795e-19 9.885060762347431e-11 9.209774707141696e-11 6.752860552057359e-12
5.265937586045735 7.116317023680122e-19 9.947190324257515e-11 9.265444518594745e-11 6.81745805662772e-12
5.285722656980489 7.134052741169816e-19 1.0009447836461825e-10 9.321239117845681e-11 6.882087186161438e-12
5.305582063971359 7.151648223684446e-19 1.0071835259220048e-10 9.377161350326528e-11 6.946739088935155e-12
5.3255160863122235 7.170795629975726e-19 1.0136744008779725e-10 9.435544459641537e-11 7.0119954913818995e-12
5.365609099470188 7.221746970077222e-19 1.0285626049216167e-10 9.570917076660655e-11 7.147089725555118e-12
5.406003951863644 7.272823439630994e-19 1.0436354827560603e-10 9.70811775960641e-11 7.282370679541917e-12
5.446702915881641 7.324086089134057e-19 1.0589039329298025e-10 9.847262603900756e-11 7.417767253972705e-12
5.487708281020852 7.378785298007613e-19 1.0748437207419029e-10 9.993050243600248e-11 7.553869638187792e-12
5.529022354014368 7.462090702465501e-19 1.0951618393140338e-10 1.0182043754978436e-10 7.695746381619029e-12
5.570647458961463 7.547785915137086e-19 1.116078343751603e-10 1.0377005894276242e-10 7.837775432397896e-12
5.612585937458331 7.636130552882873e-19 1.1376424308381396e-10 1.0578435851730069e-10 7.979884566513292e-12
5.654840148729818 7.732159528762255e-19 1.1606213935334304e-10 1.0793933306463125e-10 8.122806288711778e-12
5.67608639626678 7.802430839061185e-19 1.1755696306053084e-10 1.0935921558651211e-10 8.197747474018763e-12
5.686739436050992 7.838301059599686e-19 1.1831905783655252e-10 1.1008382215214402e-10 8.235235684408527e-12
5.6974124697621304 7.874678889562982e-19 1.1909127590106047e-10 1.1081854179238842e-10 8.272734108672083e-12
5.718818669136295 7.949013129217454e-19 1.2066712727960854e-10 1.1231937028970861e-10 8.347756989899906e-12
5.740305295436557 8.0314533163038175e-19 1.223766507610986e-10 1.139532128104097e-10 8.423437950688889e-12
5.7835210386641895 8.252509670217453e-19 1.2669159235131642e-10 1.1811183663600508e-10 8.579755715311375e-12
5.827062130521658 8.503318169437289e-19 1.3152475794580005e-10 1.2278692853667512e-10 8.737829409124902e-12
5.8489554468988025 8.686707744244718e-19 1.3486614896858837e-10 1.260424552778254e-10 8.823693690763005e-12
5.870931020387893 8.880796578486173e-19 1.3839752803348533e-10 1.2948781135432175e-10 8.90971667916361e-12
5.892989160043636 9.086440691381225e-19 1.421342923155098e-10 1.3313840336120375e-10 8.995888954306014e-12
5.915130176081913 9.32045545254788e-19 1.4634263644883927e-10 1.372572562380357e-10 9.085380210803581e-12
5.95966208400165 9.988438674042652e-19 1.580114928821845e-10 1.4871934210612208e-10 9.292150776062397e-12
6.004529249263818 1.0953032791691533e-18 1.745752954189375e-10 1.650488463259012e-10 9.526449093036308e-12
6.027089341400364 1.162739206068721e-18 1.860198881085329e-10 1.7635664172502367e-10 9.66324638350925e-12
6.049734195844842 1.24178154727981e-18 1.9941183445834184e-10 1.8960337179995987e-10 9.808462658382004e-12
6.095279466722835 1.4705444204510932e-18 2.379256165641407e-10 2.2775541508376547e-10 1.0170201480375202e-11
6.141167624020661 1.819906353191815e-18 2.9666712700317976e-10 2.860215011837382e-10 1.0645625819441591e-11
6.164241091010745 2.0424441447203843e-18 3.3419445351475e-10 3.2324759341751543e-10 1.0946860097234603e-11
6.187401249150058 2.2924693410586834e-18 3.765141045902082e-10 3.652584802352167e-10 1.1255624354991619e-11
6.1990139391386085 2.4136848277405176e-18 3.9716649701907196e-10 3.8575386531492114e-10 1.1412631704150853e-11
6.204828454712694 2.4772475227336614e-18 4.080079401410882e-10 3.965160651585345e-10 1.1491874982553958e-11
6.210648424152782 2.5229836970139173e-18 4.1593055196533104e-10 4.043717870590165e-10 1.1558764906314582e-11
6.233982942956859 2.6754948295448876e-18 4.4273021138355055e-10 4.309408818780645e-10 1.1789329505485892e-11
6.239830258556775 2.6933115312128886e-18 4.460964830186796e-10 4.3427715862126124e-10 1.1819324397418266e-11
6.245683058788269 2.6921661285747247e-18 4.463250176545464e-10 4.3447567116708813e-10 1.184934648745824e-11
6.257405133728602 2.6817852083746894e-18 4.454384457741305e-10 4.3353771724631927e-10 1.1900728527811256e-11
6.269149208991335 2.643980876879889e-18 4.39983458473718e-10 4.2806950296377717e-10 1.1913955509940825e-11
6.280915325867298 2.558375926784747e-18 4.265370211442486e-10 4.14656942748665e-10 1.1880078395583568e-11
6.304513850009849 2.3511310676316693e-18 3.9345754374970066e-10 3.816877158098331e-10 1.1769827939867387e-11
6.32820103803542 2.099721515037431e-18 3.52704823483591e-10 3.4109044675373165e-10 1.1614376729859305e-11
6.3519772230701035 1.870639417510162e-18 3.1540490764907476e-10 3.039314656564789e-10 1.1473441992595874e-11
6.375842739491607 1.677473416596082e-18 2.838982243190163e-10 2.725507616440518e-10 1.1347462674964449e-11
6.399797922933955 1.5239389157282934e-18 2.588828336625438e-10 2.4760792896293287e-10 1.1274904699610916e-11
6.42384311029221 1.395701548312587e-18 2.379890190615573e-10 2.267759577503427e-10 1.121306131121458e-11
6.447978639727206 1.3021726774996198e-18 2.228751260444023e-10 2.116824159313565e-10 1.1192710113045806e-11
6.472204850670314 1.2237784339451253e-18 2.1024442242365797e-10 1.9906386945063392e-10 1.1180552973024036e-11
6.496522083828205 1.172061845719673e-18 2.0211608655439353e-10 1.9091421984854312e-10 1.120186670585035e-11
6.520930681187647 1.1280691725891882e-18 1.9526065769552863e-10 1.8403254219234303e-10 1.122811550318565e-11
