Dust emission spectrum from A.P. Jones, M. Kohler, N. Ysard, M. Bocchio, and L. Verstraete (2017), A&A, 602A, 46J 
inside the DustPedia framework.

lambda    nu*dP/dnu     j_nu    j_nu(carb.) j_nu(sil)
 (um)   (erg s-1 H-1) (Jy cm2 sr-1 H-1)
0.9927057738263894 3.1294779066055693e-21 8.246352034702204e-14 8.246351050146654e-14 9.845555473291165e-21
1.0001793341362166 3.1820522540183475e-21 8.448013846737291e-14 8.448012662017327e-14 1.1847199632442816e-20
1.0077091589558085 3.2348437579255636e-21 8.652825552312259e-14 8.65282412863742e-14 1.4236748376264253e-20
1.0114953028030835 3.2613186924399972e-21 8.756419169018379e-14 8.756417609141073e-14 1.559877305850386e-20
1.0152956718711033 3.287845258406929e-21 8.860808226363307e-14 8.860806517825113e-14 1.7085381920072745e-20
1.0229392996569957 3.341024067042864e-21 9.071913507233095e-14 9.071911459550316e-14 2.047682776694598e-20
1.0267826658714554 3.367616007774385e-21 9.178474942247664e-14 9.178472701570013e-14 2.240677652328876e-20
1.0306404723013447 3.394255020496694e-21 9.285837832614217e-14 9.28583538157189e-14 2.4510423224537963e-20
1.03451277320114 3.420940363022226e-21 9.394005142261971e-14 9.394002462001511e-14 2.6802604579713272e-20
1.0383996230291617 3.447671319746028e-21 9.502979905852522e-14 9.502976975917372e-14 2.929935144928733e-20
1.0403485208654093 3.461053687242554e-21 9.557771051317187e-14 9.55776798833768e-14 3.062979508579486e-20
1.0423010764483396 3.474447202328821e-21 9.612765231905715e-14 9.612762030107854e-14 3.2017978608387715e-20
1.0462171883269815 3.501267350377775e-21 9.72336430597591e-14 9.723360808257834e-14 3.497718073796043e-20
1.0471985131304309 3.507979229195154e-21 9.75114160352371e-14 9.751138027833561e-14 3.575690151445763e-20
1.048180758391296 3.5146938253878854e-21 9.778970015860227e-14 9.778966360536031e-14 3.6553241932109554e-20
1.0501480137395462 3.528131132124758e-21 9.834780393878361e-14 9.834776574164857e-14 3.8197135036118055e-20
1.0521189612883777 3.5415791962008e-21 9.890795861335516e-14 9.89079187017233e-14 3.991163183048021e-20
1.0531058218030118 3.548298369090043e-21 9.918855840524358e-14 9.918851760893218e-14 4.079631142119543e-20
1.0540936079674168 3.554991143972223e-21 9.946885895132933e-14 9.94688172513976e-14 4.1699931742643345e-20
1.058054026499678 3.581787522398881e-21 1.0059516250011056e-13 1.005951169905333e-13 4.5509577269957167e-20
1.0590464539527713 3.588492895048771e-21 1.0087801644137578e-13 1.0087796992861727e-13 4.651275847620189e-20
1.06003981227728 3.595200762672903e-21 1.0116138270220855e-13 1.0116133516514306e-13 4.7537065486770313e-20
1.0620293250338977 3.608623951348848e-21 1.0172965440810165e-13 1.0172960475734683e-13 4.9650754873126107e-20
1.0660195594769086 3.6354999289687255e-21 1.0287237034751776e-13 1.0287231619674293e-13 5.415077486388175e-20
1.070024785945596 3.662414985674438e-21 1.0402334696881009e-13 1.0402328792974897e-13 5.903906111447168e-20
1.0740450607676866 3.6893686848056205e-21 1.0518262193595837e-13 1.0518255758865513e-13 6.434730326319914e-20
1.07808044048254 3.7163606232757275e-21 1.0635023396224881e-13 1.0635016385262982e-13 7.010961898785402e-20
1.0861967418109137 3.770416624780027e-21 1.0870944298251582e-13 1.0870935983637562e-13 8.314614022373352e-20
1.0902777775684922 3.797386492978764e-21 1.0989840631854625e-13 1.0989831581618776e-13 9.050235851082476e-20
1.0943741465085532 3.8243917278721415e-21 1.110957967423866e-13 1.1109569826534797e-13 9.847703860275163e-20
1.1026131145906286 3.878507463989295e-21 1.1351603632677147e-13 1.1351591984498373e-13 1.1648178772641534e-19
1.1109141095355224 3.932762545678751e-21 1.159705297219389e-13 1.159703921235298e-13 1.3759840905595915e-19
1.1192775983109025 3.987114022611274e-21 1.184584103788326e-13 1.1845824804709252e-13 1.6233174006209048e-19
1.1277040513999907 4.041367516806433e-21 1.2097424494515518e-13 1.2097405368234445e-13 1.9126281071831754e-19
1.1361939428280308 4.095754026375945e-21 1.2352525798416001e-13 1.235250329247336e-13 2.2505942639206084e-19
1.1447477501889525 4.150274922165259e-21 1.261119084407426e-13 1.2611164395266492e-13 2.6448807767002465e-19
1.1533659546722406 4.2049513888769585e-21 1.2873526763528106e-13 1.2873495720750753e-13 3.104277735116716e-19
1.1707974979042381 4.3149392748873e-21 1.3409911350707992e-13 1.3409868749438692e-13 4.26012693003234e-19
1.1884924949847024 4.4255829617721854e-21 1.3961637670370688e-13 1.3961579500343443e-13 5.817002724088506e-19
1.2064549276569216 4.537634155676718e-21 1.4531485498779914e-13 1.453140646325544e-13 7.903552447365853e-19
1.2246888378427687 4.650389845833019e-21 1.511765932365565e-13 1.5117552465382932e-13 1.0685827271785475e-18
1.2431983285522175 4.7637735910235125e-21 1.5720304829047427e-13 1.5720161055076045e-13 1.4377397138167159e-18
1.2619875648066055 4.877968262552723e-21 1.6340429927966238e-13 1.6340237412439953e-13 1.9251552628480653e-18
1.3004222497298317 5.108180327899853e-21 1.7632749785895008e-13 1.7632409481093907e-13 3.4030480110007123e-18
1.3400274889804893 5.341899236617288e-21 1.9001103878935552e-13 1.9000513375812272e-13 5.9050312328500256e-18
1.3808389325824078 5.580211057238823e-21 2.045328555872667e-13 2.0452279246421114e-13 1.0063123055571517e-17
1.4228933163050095 5.8253787496683695e-21 2.200219146604321e-13 2.2000506405603721e-13 1.6850604394861984e-17
1.466228494730424 6.081935967516688e-21 2.3670799773864584e-13 2.3668025892303653e-13 2.773881560935e-17
1.5108834753276823 6.349893443557072e-21 2.5466358111199715e-13 2.546186712506983e-13 4.490986129877814e-17
1.5568984535646726 6.6296691143354715e-21 2.739817111319814e-13 2.7391012378212716e-13 7.158734985421683e-17
1.6043148490894465 6.923617483670635e-21 2.948438695150364e-13 2.947313090878168e-13 1.1256042721957801e-16
1.6531753430134553 7.234374262650048e-21 3.1746022886363343e-13 3.1728585852960494e-13 1.7437033402835926e-16
1.7035239163302658 7.56508343297463e-21 3.420829197068028e-13 3.418167259302633e-13 2.6619377653943963e-16
1.755405889504358 7.922808110679437e-21 3.691697620799738e-13 3.6876910022865545e-13 4.006618513182977e-16
1.8088679632656115 8.309317406529685e-21 3.989712936865136e-13 3.983765011784411e-13 5.947925080725772e-16
1.8639582606462262 8.7265685441662e-21 4.3176667615425965e-13 4.308954483045391e-13 8.712278497205083e-16
1.9207263702978936 9.17809169742332e-21 4.679369331940425e-13 4.666773157725778e-13 1.2596174214646619e-15
1.979223391128241 9.66837116592168e-21 5.079460208514348e-13 5.061477623263895e-13 1.7982585250454278e-15
2.039501978296691 1.0202101189640288e-20 5.523103614322196e-13 5.497745038469227e-13 2.5358575852969503e-15
2.1016163906111602 1.0787384990729075e-20 6.017818130966413e-13 5.982480785207309e-13 3.533734575910374e-15
2.1656225393682647 1.1430552915603561e-20 6.570817942417763e-13 6.522140663111964e-13 4.867727930579832e-15
2.231578038680979 1.2135084495095233e-20 7.188268925840131e-13 7.121965703611975e-13 6.630322222815423e-15
2.299542257339062 1.2906475165073514e-20 7.878045374863473e-13 7.788717065805994e-13 8.932830905747796e-15
2.369576372248914 1.3751695438916154e-20 8.649607272371929e-13 8.530530458907256e-13 1.1907681346467264e-14
2.4417434235010123 1.467833351989616e-20 9.513628996515015e-13 9.356528875865993e-13 1.5710012064901702e-14
2.5161083711144245 1.5696511230320342e-20 1.0483394060061035e-12 1.0278195682970662e-12 2.0519837709037195e-14
2.5927381535095444 1.6819292676696433e-20 1.1575394992030473e-12 1.1309963752368546e-12 2.6543123966192576e-14
2.6717017477616296 1.8058605560916317e-20 1.280682926624485e-12 1.2466719594293744e-12 3.4010967195110464e-14
2.753070231689431 1.9428904612560647e-20 1.4198257217918858e-12 1.376646300434616e-12 4.317942135726991e-14
2.836916847834745 2.0959930245394034e-20 1.5783592962352189e-12 1.524029038388075e-12 5.433025784714397e-14
2.9233170693905177 2.2709055855146085e-20 1.762156328782601e-12 1.6944014773886546e-12 6.775485139394658e-14
2.967498994190263 2.3708219424974478e-20 1.8674928664797535e-12 1.7922275154668215e-12 7.526535101293223e-14
3.0123486681368425 2.4772468346810195e-20 1.980815171077235e-12 1.897315075256146e-12 8.350009582108971e-14
3.0578761833420214 2.6224479371469402e-20 2.128610521242219e-12 2.036066421035746e-12 9.254410020647304e-14
3.1040917844459814 2.785806314394253e-20 2.2953816522243973e-12 2.1930183621625823e-12 1.0236329006181455e-13
3.127460860933648 2.9136332802288936e-20 2.41877908982078e-12 2.311167319911696e-12 1.0761176990908366e-13
3.1510058709225794 3.0685094033272586e-20 2.5665285747828465e-12 2.4534525250032785e-12 1.1307604977956808e-13
3.162844764501044 3.196389237350581e-20 2.6835331810079224e-12 2.567631853882255e-12 1.1590132712566732e-13
3.1747281389236908 3.33906837043562e-20 2.8138522265444805e-12 2.6950699307266486e-12 1.1878229581783212e-13
3.1986289994194426 3.714345360263058e-20 3.153665197266398e-12 3.0289362125752214e-12 1.2472898469117655e-13
3.2227097969389145 4.5410490729588584e-20 3.884604666220985e-12 3.7535809795931255e-12 1.3102368662786006e-13
3.2348180950136065 5.3021305480270755e-20 4.5527071292134975e-12 4.418325886656319e-12 1.3438124255717891e-13
3.240889293275058 5.866571054861525e-20 5.046821729111385e-12 4.910669454077802e-12 1.3615227503358264e-13
3.2469718861334385 6.519345568787066e-20 5.61890854583123e-12 5.4809237807124715e-12 1.3798476511875974e-13
3.2714166318528037 9.92974151151081e-20 8.622699148432626e-12 8.47714701431745e-12 1.455521341151766e-13
3.2744851364798273 1.0144941278030403e-19 8.817835528051347e-12 8.671393116083985e-12 1.4644241196736277e-13
3.2775565192852394 1.036576170382233e-19 9.01822036499533e-12 8.870883364349e-12 1.4733700064632883e-13
3.283707930232385 1.0166273119873805e-19 8.861265067278836e-12 8.712331327018008e-12 1.4893374026082704e-13
3.2898708863219004 9.513533896371629e-20 8.307878891961165e-12 8.157494854817185e-12 1.5038403714398013e-13
3.29141343181113 9.359364697134288e-20 8.177079883563112e-12 8.026331741149868e-12 1.5074814241324296e-13
3.292184975758714 9.283576225461552e-20 8.112766368580737e-12 7.961835943665709e-12 1.509304249150279e-13
3.295272960557952 8.809142126549579e-20 7.705386802720488e-12 7.553747867146458e-12 1.5163893557403237e-13
3.3076538914384823 7.154591864923875e-20 6.281658995320268e-12 6.127175748622833e-12 1.5448324669743556e-13
3.310756385682612 6.814882952559282e-20 5.989010293740211e-12 5.833810404566045e-12 1.551998891741666e-13
3.313861789986515 6.500307650454605e-20 5.717915542303302e-12 5.561996782360735e-12 1.559187599425673e-13
3.3200813396944477 6.063980472293665e-20 5.344116916245111e-12 5.186650619125849e-12 1.5746629711926364e-13
3.345076488085796 5.3252574337984196e-20 4.728420516819078e-12 4.564054239571764e-12 1.6436627724731533e-13
3.3482140837626964 5.3619495835292707e-20 4.765466029804906e-12 4.6001648913663925e-12 1.6530113843851457e-13
3.3513546224236106 5.398941106424346e-20 4.802843197550168e-12 4.636603138825163e-12 1.6624005872500546e-13
3.3576445397418455 5.633156223867272e-20 5.020603747752324e-12 4.8524001229514184e-12 1.68203624800906e-13
3.3702598118196083 6.46451845984408e-20 5.783210426518908e-12 5.610888395130325e-12 1.7232203138858464e-13
3.382922481734668 6.678946540722541e-20 5.997488813494981e-12 5.821168343020418e-12 1.7632047047456449e-13
3.389271646505754 6.789218746254337e-20 6.107951968919592e-12 5.9296057260466195e-12 1.7834624287297365e-13
3.395632727569191 6.909934456329859e-20 6.228221819918057e-12 6.047787894907025e-12 1.8043392501103069e-13
3.421196662673239 7.488178213132726e-20 6.800230668157217e-12 6.6111596661240605e-12 1.8907100203315536e-13
3.4276182099114902 7.40146640659889e-20 6.734101326274322e-12 6.5431078295600584e-12 1.90993496714266e-13
3.4340518103208963 6.973161354728093e-20 6.3563234808004644e-12 6.163514077118984e-12 1.9280940368148035e-13
3.4469541582030403 6.36330808653928e-20 5.82221034120457e-12 5.625920478122463e-12 1.9628986308210716e-13
3.472904465399547 6.228672903365542e-20 5.741928686555361e-12 5.537613873996441e-12 2.0431481255892106e-13
3.4990501388274233 6.005529790722751e-20 5.577902573028031e-12 5.365386814807494e-12 2.1251575822053888e-13
3.5253949054701885 5.11224966731451e-20 4.7839789601829106e-12 4.5635138533932e-12 2.204651067897105e-13
3.5519380250092896 4.2635507856725465e-20 4.019816727258211e-12 3.791376184038388e-12 2.2844054321982296e-13
3.578680990867387 3.9604666094566036e-20 3.762173115295543e-12 3.5249931566175323e-12 2.371799586780104e-13
3.605625307711299 3.872334125898116e-20 3.7061487821232085e-12 3.4597733270145053e-12 2.4637545510870296e-13
3.660119384959845 3.880935895884938e-20 3.770519174257105e-12 3.504864873681232e-12 2.656543005758732e-13
3.715437065384467 3.9191309628372327e-20 3.865174615129292e-12 3.5792553093182837e-12 2.8591930581100813e-13
3.8285932144167436 4.11226478925154e-20 4.179167034194878e-12 3.849899356867859e-12 3.2926767732701773e-13
3.94519561050918 4.3396143136163766e-20 4.544531387469429e-12 4.168304041448763e-12 3.7622734602066736e-13
4.06534921144712 4.581747299111983e-20 4.944227237340436e-12 4.51755906362337e-12 4.2666817371706695e-13
4.189162171576248 4.831923542544891e-20 5.372997764468936e-12 4.892390361099928e-12 4.806074033690079e-13
4.316745939156006 5.0861677077643173e-20 5.827960483616889e-12 5.290206107814479e-12 5.377543758024091e-13
4.448215356677963 5.34126734818048e-20 6.306661978956994e-12 5.709449380106263e-12 5.972125988507296e-13
4.58368876423945 5.595470618986124e-20 6.8080255000454895e-12 6.149054399218434e-12 6.589711008270569e-13
4.723288106065518 5.847721005631698e-20 7.331629573337351e-12 6.60829202068274e-12 7.233375526546125e-13
4.867139040275056 6.095776291500365e-20 7.87539247811425e-12 7.086956219535683e-12 7.88436258578569e-13
4.940699165968905 6.21944067382137e-20 8.156600159827739e-12 7.335157752481717e-12 8.214424073460199e-13
5.015371051989984 6.340288076261622e-20 8.440758851274822e-12 7.586123968182872e-12 8.546348830919489e-13
5.091171501069577 6.463577599760369e-20 8.734944042189744e-12 7.846184637045386e-12 8.887594051443576e-13
5.129500256944802 6.523956038296684e-20 8.882915172722174e-12 7.977068146637973e-12 9.058470260842012e-13
5.168117569889187 6.584012580520585e-20 9.03217762995672e-12 8.109045968045338e-12 9.231316619113843e-13
5.20702561229733 6.648000377090144e-20 9.18861769205186e-12 8.246524357827477e-12 9.42093334224382e-13
5.246226572918644 6.711192764731778e-20 9.345793677919157e-12 8.38467550461892e-12 9.611181733002365e-13
5.265937586045735 6.742483493455788e-20 9.424645690234525e-12 8.453994395468313e-12 9.706512947662138e-13
5.285722656980489 6.77356687408175e-20 9.503667375717989e-12 8.523470766661019e-12 9.801966090569684e-13
5.305582063971359 6.804440210737863e-20 9.582854006549111e-12 8.593101106228062e-12 9.89752900321046e-13
5.3255160863122235 6.835861944382844e-20 9.663276738763044e-12 8.663874251996045e-12 9.994024867670014e-13
5.365609099470188 6.90393599731417e-20 9.832981442070172e-12 8.813607646896333e-12 1.0193737951738376e-12
5.406003951863644 6.97141553538744e-20 1.0003840569153588e-11 8.964436369633057e-12 1.0394041995205317e-12
5.446702915881641 7.038298278935877e-20 1.0175852165030231e-11 9.116368222831875e-12 1.05948394219836e-12
5.487708281020852 7.105993404408454e-20 1.0351070104213683e-11 9.271372764742916e-12 1.079697339470763e-12
5.529022354014368 7.185581484858589e-20 1.0545804050463408e-11 9.445037411674008e-12 1.1007666387893959e-12
5.570647458961463 7.265407160645997e-20 1.074323474685827e-11 9.62134199673474e-12 1.12189275012353e-12
5.612585937458331 7.345548538594633e-20 1.0943510770820267e-11 9.800445031231906e-12 1.1430657395883589e-12
5.654840148729818 7.428187600828942e-20 1.1149942538862637e-11 9.985551870785784e-12 1.1643906680768552e-12
5.67608639626678 7.478947168018649e-20 1.1268312838620674e-11 1.009274848484874e-11 1.1755643537719339e-12
5.686739436050992 7.504547915428106e-20 1.1328105824096348e-11 1.01469485555699e-11 1.181157268526448e-12
5.6974124697621304 7.530302572518012e-20 1.1388316321962142e-11 1.0201562301019028e-11 1.1867540209431107e-12
5.718818669136295 7.582294250927102e-20 1.1510028359182444e-11 1.0312069954036154e-11 1.1979584051462882e-12
5.740305295436557 7.637558009300484e-20 1.1637479947426737e-11 1.0428212642320376e-11 1.2092673051063602e-12
5.7835210386641895 7.77170483116946e-20 1.193103310013248e-11 1.0698403169470832e-11 1.2326299306616471e-12
5.827062130521658 7.917396897571169e-20 1.2246204243616903e-11 1.0989918285568473e-11 1.2562859580484306e-12
5.8489554468988025 8.015175773492581e-20 1.2444022772533812e-11 1.1174909185992018e-11 1.2691135865417933e-12
5.870931020387893 8.117016991682859e-20 1.264948562582881e-11 1.1367510400875982e-11 1.2819752249528237e-12
5.892989160043636 8.223256746178717e-20 1.2863197129053007e-11 1.1568327527310193e-11 1.2948696017428153e-12
5.915130176081913 8.341375759350448e-20 1.30969878719831e-11 1.178873491553761e-11 1.3082529564454908e-12
5.95966208400165 8.663447557083096e-20 1.3705087718651081e-11 1.2366029412120214e-11 1.3390583065308642e-12
6.004529249263818 9.110936502867983e-20 1.4521497942906494e-11 1.3147600152704084e-11 1.3738977902024057e-12
6.027089341400364 9.416638100123e-20 1.5065132031334455e-11 1.36709495431011e-11 1.3941824882333528e-12
6.049734195844842 9.770543851561704e-20 1.5690054964688315e-11 1.4274352216372609e-11 1.4157027483157079e-12
6.095279466722835 1.0778876886707886e-19 1.743960191527061e-11 1.5970477509341685e-11 1.4691244059289192e-12
6.141167624020661 1.229520281883923e-19 2.0042693349518647e-11 1.850358534343796e-11 1.5391080060806818e-12
6.164241091010745 1.3258022698791294e-19 2.1693409153743542e-11 2.0110065418969052e-11 1.583343734774492e-12
6.187401249150058 1.433030861600125e-19 2.3536032610858537e-11 2.1907326427277528e-11 1.6287061835810195e-12
6.1990139391386085 1.4850266523924992e-19 2.4435784934804854e-11 2.278400829736066e-11 1.651776637444201e-12
6.204828454712694 1.5122095143857123e-19 2.4906412595597746e-11 2.3242989801432805e-11 1.6634227941649367e-12
6.210648424152782 1.5318755620145894e-19 2.525398197400302e-11 2.3580705940560502e-11 1.6732760334425168e-12
6.233982942956859 1.597449785149185e-19 2.6433961794424782e-11 2.4726626095220213e-11 1.7073356992045707e-12
6.239830258556775 1.6051374524093612e-19 2.6586087943525778e-11 2.487424734352735e-11 1.711840599998426e-12
6.245683058788269 1.6048842761920588e-19 2.660682768801289e-11 2.489047728182419e-11 1.716350406188696e-12
6.257405133728602 1.6009303841920527e-19 2.6591090886032495e-11 2.486697613800155e-11 1.7241147480309443e-12
6.269149208991335 1.5853196875397708e-19 2.6381221022042555e-11 2.4654879299478287e-11 1.7263417225642646e-12
6.280915325867298 1.5494731694080465e-19 2.5833094468366315e-11 2.411136466773992e-11 1.7217298006263866e-12
6.304513850009849 1.4624174550969532e-19 2.447329235450679e-11 2.2766961361937003e-11 1.70633099256979e-12
6.32820103803542 1.3570578930342587e-19 2.2795445071730365e-11 2.111108153136135e-11 1.684363540369015e-12
6.3519772230701035 1.261260151359078e-19 2.1265864379697157e-11 1.9601365005636087e-11 1.6644993740610844e-12
6.375842739491607 1.1801729328508543e-19 1.9973431275328495e-11 1.8326631841501277e-11 1.6467994338272239e-12
6.399797922933955 1.1166154678671886e-19 1.896877712416292e-11 1.7331908903347765e-11 1.6368682208151526e-12
6.42384311029221 1.0633848269521841e-19 1.8132380246855956e-11 1.650388864021357e-11 1.6284916066423809e-12
6.447978639727206 1.0251659192102422e-19 1.7546365962702742e-11 1.5920210658147518e-11 1.6261553045552236e-12
6.472204850670314 9.931577994644739e-20 1.7062393169556573e-11 1.5437380632514706e-11 1.6250125370418661e-12
6.496522083828205 9.726610682324521e-20 1.677304396290181e-11 1.5144295986378178e-11 1.6287479765236305e-12
