Dust emission spectrum from A.P. Jones, M. Kohler, N. Ysard, M. Bocchio, and L. Verstraete (2017), A&A, 602A, 46J 
inside the DustPedia framework.

lambda    nu*dP/dnu     j_nu    j_nu(carb.) j_nu(sil)
 (um)   (erg s-1 H-1) (Jy cm2 sr-1 H-1)
0.9927057738263894 1.92940723611904e-21 5.0840976553168965e-14 5.084097524528903e-14 1.3078799274948959e-21
1.0001793341362166 1.9618462500874158e-21 5.2084953240408215e-14 5.208495166649697e-14 1.5739112355969533e-21
1.0077091589558085 1.9944140649419242e-21 5.334822413212066e-14 5.334822224058901e-14 1.891531641756063e-21
1.0114953028030835 2.010744778346011e-21 5.3987131530343555e-14 5.398712945775605e-14 2.0725875102573157e-21
1.0152956718711033 2.0271059240886112e-21 5.46309069806322e-14 5.46309047104167e-14 2.2702155028581386e-21
1.0229392996569957 2.0599013261161707e-21 5.593269096232732e-14 5.593268824121856e-14 2.7211087636688073e-21
1.0267826658714554 2.0762983272320897e-21 5.65897421948804e-14 5.658973921716332e-14 2.977717091818165e-21
1.0306404723013447 2.0927227634889996e-21 5.725169173509972e-14 5.725168847766305e-14 3.2574366423589535e-21
1.03451277320114 2.1091741288719846e-21 5.791855604008553e-14 5.791855247784237e-14 3.562243177119199e-21
1.0383996230291617 2.1256519327721574e-21 5.859035195228067e-14 5.859034805800903e-14 3.894271642257482e-21
1.0403485208654093 2.133900600158851e-21 5.892810463404208e-14 5.892810056283434e-14 4.0712077278471256e-21
1.0423010764483396 2.142155700373903e-21 5.92670967170854e-14 5.926709246125724e-14 4.255828148797622e-21
1.0462171883269815 2.158684973039289e-21 5.994880800071458e-14 5.99488033513118e-14 4.649402785666352e-21
1.0471985131304309 2.1628212241964463e-21 6.012001395197765e-14 6.012000919886795e-14 4.753109701722307e-21
1.048180758391296 2.1669590349639897e-21 6.029153172729532e-14 6.029152686826661e-14 4.8590287141967035e-21
1.0501480137395462 2.175239308689395e-21 6.063550390829268e-14 6.063549883060935e-14 5.077683317765421e-21
1.0521189612883777 2.183525741605015e-21 6.09807268784339e-14 6.098072157269802e-14 5.3057358553216476e-21
1.0531058218030118 2.1876657627667332e-21 6.115365471280451e-14 6.115364928939099e-14 5.423413520278408e-21
1.0540936079674168 2.1917893223655256e-21 6.132639270482231e-14 6.132638716120994e-14 5.54361239136114e-21
1.058054026499678 2.2082979152250686e-21 6.202045382132035e-14 6.202044777093229e-14 6.0503880621365136e-21
1.0590464539527713 2.212428621982428e-21 6.219474788751962e-14 6.219474170367894e-14 6.183840674473095e-21
1.06003981227728 2.2165607403751945e-21 6.236935407553668e-14 6.236934775543095e-14 6.320105740989804e-21
1.0620293250338977 2.224829189075535e-21 6.271950404727324e-14 6.271949744597376e-14 6.601299486244914e-21
1.0660195594769086 2.2413827772444058e-21 6.342356310171668e-14 6.342355590173093e-14 7.199985746161388e-21
1.070024785945596 2.25795833165897e-21 6.413265124078313e-14 6.413264339041526e-14 7.850367865916087e-21
1.0740450607676866 2.2745555232027108e-21 6.484678927716916e-14 6.484678072050002e-14 8.556669141917047e-21
1.07808044048254 2.2911740420671637e-21 6.556599859980696e-14 6.556598927637014e-14 9.323436820820541e-21
1.0861967418109137 2.3244484789411383e-21 6.701898610527946e-14 6.701897504695795e-14 1.1058321512281793e-20
1.0902777775684922 2.341046030986846e-21 6.775113052082245e-14 6.77511184834509e-14 1.2037371555043246e-20
1.0943741465085532 2.357662872857842e-21 6.848839082073311e-14 6.848837772193063e-14 1.3098802468855649e-20
1.1026131145906286 2.3909536341927474e-21 6.997835691038892e-14 6.997834141491389e-14 1.549547503559517e-20
1.1109141095355224 2.42431939582451e-21 7.148908719593596e-14 7.148906888918552e-14 1.830675045624828e-20
1.1192775983109025 2.457733008184373e-21 7.302001990262419e-14 7.30199983026629e-14 2.1599961281103526e-20
1.1277040513999907 2.4910736873823213e-21 7.456776875169152e-14 7.45677432990761e-14 2.5452615434508752e-20
1.1361939428280308 2.524483539193817e-21 7.61367695539093e-14 7.613673960009835e-14 2.995381094987495e-20
1.1447477501889525 2.557962702559116e-21 7.772727450346111e-14 7.772723929763106e-14 3.5205830037848754e-20
1.1533659546722406 2.5915236241020194e-21 7.933991537082405e-14 7.933987404483429e-14 4.1325989749454296e-20
1.1707974979042381 2.658992358809315e-21 8.263581372132787e-14 8.263575699360433e-14 5.672772354610227e-20
1.1884924949847024 2.7267984304776384e-21 8.602385723036865e-14 8.602377975130968e-14 7.747905897685986e-20
1.2064549276569216 2.7953998532849726e-21 8.95209067934302e-14 8.952080149505412e-14 1.0529837606124797e-19
1.2246888378427687 2.864352049954064e-21 9.311541593232498e-14 9.311527352785546e-14 1.424044695424904e-19
1.2431983285522175 2.933598661945304e-21 9.680784430806136e-14 9.680765265592368e-14 1.9165213769109634e-19
1.2619875648066055 3.0032403624580574e-21 1.0060384991907355e-13 1.0060359322327236e-13 2.566958011972562e-19
1.3004222497298317 3.1432786548419007e-21 1.0850174126675522e-13 1.0850128725712481e-13 4.540096304288662e-19
1.3400274889804893 3.2848805182548425e-21 1.1684300506719504e-13 1.168422168079059e-13 7.882592891424961e-19
1.3808389325824078 3.428553167280438e-21 1.256676069495526e-13 1.2566626283854204e-13 1.3441110105854387e-18
1.4228933163050095 3.575484180661787e-21 1.3504441669343437e-13 1.350421646406613e-13 2.2520527730491895e-18
1.466228494730424 3.728203661073727e-21 1.4510110407081157e-13 1.4509739455877255e-13 3.709512039031138e-18
1.5108834753276823 3.8863617643229655e-21 1.558632145872371e-13 1.558572050464085e-13 6.009540828562859e-18
1.5568984535646726 4.049764085716782e-21 1.6736299727030127e-13 1.6735341185814275e-13 9.585412158528153e-18
1.6043148490894465 4.219291042623062e-21 1.7967949566121588e-13 1.796644143914303e-13 1.5081269785564778e-17
1.6531753430134553 4.3958517509349494e-21 1.9289962783750413e-13 1.9287624987742327e-13 2.3377960080843718e-17
1.7035239163302658 4.580496054351168e-21 2.071238840735192e-13 2.0708817175071945e-13 3.571232279967135e-17
1.755405889504358 4.776485668473208e-21 2.2256427937864564e-13 2.2251049096361988e-13 5.3788415025841626e-17
1.8088679632656115 4.983572276728196e-21 2.3928587405555495e-13 2.392059695608333e-13 7.990449472168978e-17
1.8639582606462262 5.201361579287112e-21 2.5734910454196675e-13 2.57231982974143e-13 1.1712156782380384e-16
1.9207263702978936 5.4301308105201675e-21 2.768504436527522e-13 2.766809912470528e-13 1.6945240569939344e-16
1.979223391128241 5.670412639933141e-21 2.979057679531218e-13 2.97663681892967e-13 2.420860601547547e-16
2.039501978296691 5.922531737157369e-21 3.206276416533476e-13 3.202860117742586e-13 3.4162987908914793e-16
2.1016163906111602 6.188534784059625e-21 3.452317392921131e-13 3.447553267980449e-13 4.764124940680593e-16
2.1656225393682647 6.4689961611144296e-21 3.7186824083424373e-13 3.712114927672003e-13 6.56748067043575e-16
2.231578038680979 6.7624112314044816e-21 4.0057430616246945e-13 3.9967907404715376e-13 8.952321153155437e-16
2.299542257339062 7.068164245468167e-21 4.31437072714258e-13 4.302300260997105e-13 1.2070466145475084e-15
2.369576372248914 7.386245387143482e-21 4.645836006181593e-13 4.629733196847903e-13 1.6102809333688842e-15
2.4417434235010123 7.71679544005936e-21 5.001571108819097e-13 4.980309490879193e-13 2.1261617939905482e-15
2.5161083711144245 8.06128399763547e-21 5.383974536585736e-13 5.356180916277148e-13 2.779362030858687e-15
2.5927381535095444 8.422946290467081e-21 5.796850805973642e-13 5.76086916406513e-13 3.598164190851282e-15
2.6717017477616296 8.804403927750671e-21 6.24392052384121e-13 6.197776843294217e-13 4.614368054699188e-15
2.753070231689431 9.210133136674956e-21 6.730582186360027e-13 6.671949307305283e-13 5.863287905474374e-15
2.836916847834745 9.654378663754754e-21 7.270099725957269e-13 7.196260961873618e-13 7.383876408365288e-15
2.9233170693905177 1.016994582509048e-20 7.891580571808893e-13 7.799414747158908e-13 9.216582464998698e-15
2.967498994190263 1.0487080392761585e-20 8.260657400129929e-13 8.158225820989121e-13 1.0243157914080614e-14
3.0123486681368425 1.0826401998630475e-20 8.656828632028308e-13 8.543136002510681e-13 1.1369262951762628e-14
3.0578761833420214 1.1388973678032207e-20 9.24429760980673e-13 9.1182319120006e-13 1.2606569780612928e-14
3.1040917844459814 1.2048989635734552e-20 9.927836545851452e-13 9.78832902471938e-13 1.3950752113207038e-14
3.127460860933648 1.2664278744637126e-20 1.0513365845678282e-12 1.0366670251745304e-12 1.466955939329772e-14
3.1510058709225794 1.3446960669378564e-20 1.1247157582283745e-12 1.109297600271751e-12 1.5418157956623618e-14
3.162844764501044 1.415584794039326e-20 1.1884562496160557e-12 1.172650942131748e-12 1.5805307484307922e-14
3.1747281389236908 1.4958279072488768e-20 1.2605428282352017e-12 1.2443426763014147e-12 1.6200151933786667e-14
3.1986289994194426 1.7132178687277874e-20 1.4546077555801355e-12 1.4375924004798018e-12 1.701535510033334e-14
3.2227097969389145 2.2168199523076374e-20 1.8963611695336663e-12 1.878482663661117e-12 1.787850587254879e-14
3.2348180950136065 2.6893795982786595e-20 2.309252395680934e-12 2.2909134309654973e-12 1.833896471543641e-14
3.240889293275058 3.0424082150846e-20 2.6172855907015645e-12 2.59870374519792e-12 1.858184550364426e-14
3.2469718861334385 3.451550089834662e-20 2.9748299260265793e-12 2.955996771131306e-12 1.8833154895274376e-14
3.2714166318528037 5.598543950758499e-20 4.861612973581119e-12 4.84174182547507e-12 1.9871148106048398e-14
3.2744851364798273 5.732713667753239e-20 4.982791409658524e-12 4.962798087838964e-12 1.9993321819560636e-14
3.2775565192852394 5.870471403798204e-20 5.107314472252807e-12 5.087198379979728e-12 2.0116092273080078e-14
3.283707930232385 5.738136987737862e-20 5.001552903521964e-12 4.9812175635059355e-12 2.0335340016029257e-14
3.2898708863219004 5.3175228412016416e-20 4.643630458581673e-12 4.623095871733455e-12 2.0534586848218554e-14
3.29141343181113 5.2181176934925845e-20 4.558959566410274e-12 4.538374954828974e-12 2.0584611581299218e-14
3.292184975758714 5.16924150154428e-20 4.517316127569712e-12 4.496706471636289e-12 2.0609655933423442e-14
3.295272960557952 4.864461067107439e-20 4.25496076353109e-12 4.23425374285583e-12 2.070702067525902e-14
3.3076538914384823 3.8006251404911376e-20 3.3369102741768397e-12 3.3158123306199543e-12 2.1097943556885972e-14
3.310756385682612 3.581854588308387e-20 3.1477817226491724e-12 3.126585272770361e-12 2.1196449878811037e-14
3.313861789986515 3.3791239869726114e-20 2.9724047850457245e-12 2.9511095182067187e-12 2.129526683900504e-14
3.3200813396944477 3.095988122843871e-20 2.728459066677322e-12 2.706951123833698e-12 2.1507942843623225e-14
3.345076488085796 2.6014916764020628e-20 2.309925251493336e-12 2.2874691925441236e-12 2.2456058949212825e-14
3.3482140837626964 2.6215802519865466e-20 2.3299457483944244e-12 2.3073612378226645e-12 2.2584510571760104e-14
3.3513546224236106 2.641851069185312e-20 2.350163890744992e-12 2.327450365117597e-12 2.271352562739523e-14
3.3576445397418455 2.7841147492734654e-20 2.4813685949541724e-12 2.458385279481984e-12 2.2983315472188238e-14
3.3702598118196083 3.2994761680800856e-20 2.9517380290304943e-12 2.9281888447205145e-12 2.3549184309979485e-14
3.382922481734668 3.422543804128519e-20 3.0733391941084076e-12 3.0492404301376304e-12 2.409876397077675e-14
3.389271646505754 3.4859835443322936e-20 3.1361811791633333e-12 3.111803938263357e-12 2.4377240899976335e-14
3.395632727569191 3.555768062955799e-20 3.2049670479843827e-12 3.1803028198099773e-12 2.466422817440503e-14
3.421196662673239 3.8942570605781674e-20 3.5364871854395395e-12 3.5106354370552655e-12 2.5851748384272826e-14
3.4276182099114902 3.8331684046419203e-20 3.4875446323066553e-12 3.4614283448942507e-12 2.6116287412405e-14
3.4340518103208963 3.5557311925788753e-20 3.2411952801693122e-12 3.214829016388267e-12 2.636626378104379e-14
3.4469541582030403 3.157672016827007e-20 2.889162432570678e-12 2.8623168406826663e-12 2.6845591888012263e-14
3.472904465399547 3.0474794963440157e-20 2.809331973796869e-12 2.781381514779909e-12 2.795045901695945e-14
3.4990501388274233 2.8807135778610325e-20 2.67559070357622e-12 2.6465106814124554e-12 2.9080022163764757e-14
3.5253949054701885 2.2886305401147516e-20 2.141671683513936e-12 2.111495999007168e-12 3.0175684506767134e-14
3.5519380250092896 1.725090306691307e-20 1.6264722104805037e-12 1.5951966633271229e-12 3.12755471533809e-14
3.578680990867387 1.505855632306314e-20 1.4304601285747214e-12 1.3979792903363151e-12 3.248083823840636e-14
3.605625307711299 1.422126120439532e-20 1.3610940631498719e-12 1.3273446764918981e-12 3.374938665797409e-14
3.660119384959845 1.370676016167097e-20 1.3316788370898686e-12 1.2952682357526573e-12 3.641060133721167e-14
3.715437065384467 1.3366755566480981e-20 1.3182729740880605e-12 1.2790626602813014e-12 3.921031380675922e-14
3.8285932144167436 1.3387883926097737e-20 1.3605690788155323e-12 1.3153617004578181e-12 4.5207378357714085e-14
3.94519561050918 1.3580614899509645e-20 1.42218930558658e-12 1.3704728929705226e-12 5.171641261605742e-14
4.06534921144712 1.3829914922164347e-20 1.4924053550818645e-12 1.4336831314764809e-12 5.872222360538368e-14
4.189162171576248 1.4101672580023855e-20 1.5680764519679308e-12 1.5018464795437658e-12 6.622997242416482e-14
4.316745939156006 1.4381337402123668e-20 1.6478785383579032e-12 1.5736761245457064e-12 7.420241381219693e-14
4.448215356677963 1.4662163140651788e-20 1.7312240856079458e-12 1.6487059103477314e-12 8.251817526021472e-14
4.58368876423945 1.494283446356062e-20 1.8180990482854605e-12 1.7269205788830188e-12 9.117846940244158e-14
4.723288106065518 1.5225602520102793e-20 1.9089227683872164e-12 1.8086938628162983e-12 1.0022890557091767e-13
4.867139040275056 1.5513587701319203e-20 2.004266332114095e-12 1.8948544264119128e-12 1.0941190570218246e-13
4.940699165968905 1.5668897695745174e-20 2.0549264821737295e-12 1.940847283976804e-12 1.1407919819692534e-13
5.015371051989984 1.5818490283697577e-20 2.1058989791935706e-12 1.9871181520322655e-12 1.1878082716130482e-13
5.091171501069577 1.5992066989372947e-20 2.1611840828878015e-12 2.0375629286909265e-12 1.236211541968753e-13
5.129500256944802 1.6076444413002968e-20 2.188943198902568e-12 2.062894953092321e-12 1.2604824581024702e-13
5.168117569889187 1.6161886352926642e-20 2.2171438251301866e-12 2.08863891129178e-12 1.2850491383840715e-13
5.20702561229733 1.6268835533325358e-20 2.2486176523959052e-12 2.117421507554687e-12 1.3119614484121812e-13
5.246226572918644 1.6374902307078842e-20 2.2803168352169596e-12 2.146418168460167e-12 1.3389866675679326e-13
5.265937586045735 1.6427614805166074e-20 2.2962525488510715e-12 2.1609987910740357e-12 1.3525375777703552e-13
5.285722656980489 1.6480119150453334e-20 2.3122466143709667e-12 2.175635430140447e-12 1.366111842305205e-13
5.305582063971359 1.6532419948995093e-20 2.328299784252206e-12 2.1903290030515543e-12 1.3797078120065148e-13
5.3255160863122235 1.6588738419034453e-20 2.3450088868720246e-12 2.205664906506346e-12 1.3934398036567924e-13
5.365609099470188 1.6733459581389167e-20 2.383275244577031e-12 2.2410895427376202e-12 1.4218570183941006e-13
5.406003951863644 1.687921278147236e-20 2.422132961972187e-12 2.2770946001742437e-12 1.4503836179794284e-13
5.446702915881641 1.7026155876928584e-20 2.4616127119946468e-12 2.313712073900898e-12 1.4790063809374813e-13
5.487708281020852 1.718246609241339e-20 2.5029141031218194e-12 2.3521297917896725e-12 1.5078431133214732e-13
5.529022354014368 1.7411582107771076e-20 2.5553830751767187e-12 2.4015929948005444e-12 1.5379008037617478e-13
5.570647458961463 1.7647724557170562e-20 2.6095391968193736e-12 2.452732483768949e-12 1.5680671305042482e-13
5.612585937458331 1.789157180474087e-20 2.665513783257175e-12 2.505680920804097e-12 1.5983286245307863e-13
5.654840148729818 1.8155890690380593e-20 2.7252561300016694e-12 2.562372890403634e-12 1.6288323959803564e-13
5.67608639626678 1.834483692140403e-20 2.7639633862880114e-12 2.599482403337557e-12 1.644809829504548e-13
5.686739436050992 1.8441308605334557e-20 2.783713259883041e-12 2.6184322580604957e-12 1.6528100182254448e-13
5.6974124697621304 1.8539159489061784e-20 2.80373611248058e-12 2.6376543554517704e-12 1.6608175702880967e-13
5.718818669136295 1.8739144717427412e-20 2.8446282877776835e-12 2.676942897157626e-12 1.6768539062005747e-13
5.740305295436557 1.8960094151251993e-20 2.8889825153253003e-12 2.7196780159622824e-12 1.6930449936301783e-13
5.7835210386641895 1.954616294919764e-20 3.000704764187088e-12 2.8280549760195872e-12 1.7264978816750144e-13
5.827062130521658 2.0210098280036322e-20 3.1259894447987127e-12 2.9499498086063234e-12 1.7603963619238857e-13
5.8489554468988025 2.0690726320139507e-20 3.212354623083789e-12 3.0344784831900846e-12 1.7787613989370425e-13
5.870931020387893 2.1199485222676192e-20 3.3037085406373662e-12 3.123990187911966e-12 1.7971835272540123e-13
5.892989160043636 2.1738609259263713e-20 3.400453431583626e-12 3.2188873268414514e-12 1.8156610474217336e-13
5.915130176081913 2.2351062907400358e-20 3.509392314523296e-12 3.325908944248985e-12 1.8348337027431133e-13
5.95966208400165 2.4090355023350893e-20 3.8109589351474385e-12 3.623071473655468e-12 1.8788746149197106e-13
6.004529249263818 2.6595348921904234e-20 4.2389089698818724e-12 4.046045771509554e-12 1.9286319837231921e-13
6.027089341400364 2.83433124695176e-20 4.534481839681971e-12 4.338726002111506e-12 1.9575583757046415e-13
6.049734195844842 3.039198010638387e-20 4.880504561459572e-12 4.681680860984288e-12 1.9882370047528286e-13
6.095279466722835 3.631558484671816e-20 5.875652442305903e-12 5.669227712570621e-12 2.0642472973528326e-13
6.141167624020661 4.536263875330989e-20 7.39466824137689e-12 7.17830386814771e-12 2.1636437322918127e-13
6.164241091010745 5.1128928659229574e-20 8.365959194641827e-12 8.143320557093947e-12 2.2263863754788044e-13
6.187401249150058 5.761389205466689e-20 9.462478991715567e-12 9.233404536308404e-12 2.2907445540715935e-13
6.1990139391386085 6.076197666546275e-20 9.998248796537078e-12 9.765900901258054e-12 2.323478952790204e-13
6.204828454712694 6.241325520453033e-20 1.027959598700074e-11 1.0045595445406943e-11 2.340005415937988e-13
6.210648424152782 6.360502922229037e-20 1.0485709813943482e-11 1.025030922353456e-11 2.354005904089216e-13
6.233982942956859 6.759110938071994e-20 1.1184707147748487e-11 1.0944459240634261e-11 2.4024790711423003e-13
6.239830258556775 6.806428120944198e-20 1.1273570143982892e-11 1.1032675167645197e-11 2.408949763376957e-13
6.245683058788269 6.80472260957982e-20 1.1281316953730865e-11 1.1039774135759388e-11 2.4154281797147553e-13
6.257405133728602 6.780411029302241e-20 1.1262109065149945e-11 1.1019447252328573e-11 2.4266181282137116e-13
6.269149208991335 6.685215192676105e-20 1.112483122262876e-11 1.0881830534403903e-11 2.4300068822485696e-13
6.280915325867298 6.466322148142747e-20 1.0780768212958351e-11 1.0538392362373852e-11 2.423758505845014e-13
6.304513850009849 5.934827922936806e-20 9.931827490536453e-12 9.69157186292722e-12 2.402556276092335e-13
6.32820103803542 5.288080261852968e-20 8.882756127260352e-12 8.645546820789852e-12 2.372093064704979e-13
6.3519772230701035 4.698237074097592e-20 7.92160700025001e-12 7.687147935096053e-12 2.344590651539582e-13
6.375842739491607 4.2008039001650506e-20 7.1095062143474884e-12 6.8774929516312665e-12 2.32013262716223e-13
6.399797922933955 3.8053488974240646e-20 6.464429088806218e-12 6.233765788351378e-12 2.3066330045484057e-13
6.42384311029221 3.475100576125509e-20 5.925591887837732e-12 5.69605951549605e-12 2.2953237234168147e-13
6.447978639727206 3.234531675908765e-20 5.536106442864513e-12 5.3068524286788974e-12 2.292540141856154e-13
6.472204850670314 3.033015334049919e-20 5.210702684584299e-12 4.98155846946856e-12 2.2914421511573915e-13
6.496522083828205 2.900612742623607e-20 5.001958713099411e-12 4.772235277209977e-12 2.297234358894346e-13
