Dust emission spectrum from A.P. Jones, M. Kohler, N. Ysard, M. Bocchio, and L. Verstraete (2017), A&A, 602A, 46J 
inside the DustPedia framework.

lambda    nu*dP/dnu     j_nu    j_nu(carb.) j_nu(sil)
 (um)   (erg s-1 H-1) (Jy cm2 sr-1 H-1)
0.9927057738263894 3.2908991983455136e-25 8.671706306983288e-18 8.671706306963871e-18 1.9416374476534277e-29
1.0001793341362166 3.345254979220509e-25 8.881299906258166e-18 8.881299906234773e-18 2.3391793098494262e-29
1.0077091589558085 3.3995328792541255e-25 9.093349529313694e-18 9.09334952928555e-18 2.814512158829795e-29
1.0114953028030835 3.426635938861012e-25 9.200284746732675e-18 9.200284746701815e-18 3.0857721472327626e-29
1.0152956718711033 3.453711527334444e-25 9.307821113125878e-18 9.307821113092053e-18 3.382087921545928e-29
1.0229392996569957 3.50774314100435e-25 9.524607348592718e-18 9.524607348552124e-18 4.0589410488926947e-29
1.0267826658714554 3.5346336242452704e-25 9.633683316407007e-18 9.63368331636256e-18 4.444590728386321e-29
1.0306404723013447 3.561484746691175e-25 9.743336785656114e-18 9.743336785607462e-18 4.8653117397558665e-29
1.03451277320114 3.5882939170634853e-25 9.853563035826217e-18 9.853563035772977e-18 5.324138504680759e-29
1.0383996230291617 3.6150585584756385e-25 9.96435728745884e-18 9.964357287400597e-18 5.824353527307887e-29
1.0403485208654093 3.628423379601732e-25 1.0019965904403357e-17 1.0019965904342446e-17 6.091079903234916e-29
1.0423010764483396 3.641776108927161e-25 1.0075714703281537e-17 1.0075714703217841e-17 6.369506402031029e-29
1.0462171883269815 3.6684440217868244e-25 1.0187630389340043e-17 1.0187630389270409e-17 6.963434171713711e-29
1.0471985131304309 3.675102947196369e-25 1.0215695961763484e-17 1.0215695961692285e-17 7.120015963084717e-29
1.048180758391296 3.681758572616414e-25 1.0243796039126917e-17 1.0243796039054117e-17 7.279971650223114e-29
1.0501480137395462 3.6950597662648532e-25 1.0300099396131323e-17 1.030009939605522e-17 7.610283124032592e-29
1.0521189612883777 3.7083472889343327e-25 1.035653983317189e-17 1.0356539833092344e-17 7.954939025433729e-29
1.0531058218030118 3.7149756211457936e-25 1.0384782733662072e-17 1.0384782733580745e-17 8.132841940687851e-29
1.0540936079674168 3.721566984508315e-25 1.0412966065686321e-17 1.0412966065603176e-17 8.314593895719731e-29
1.058054026499678 3.7478949293204234e-25 1.0526031962829037e-17 1.052603196273822e-17 9.081304743473034e-29
1.0590464539527713 3.7544673458133665e-25 1.0554381176625453e-17 1.0554381176532623e-17 9.283316290866354e-29
1.06003981227728 3.761035857647772e-25 1.0582763324442792e-17 1.0582763324347896e-17 9.489630131905147e-29
1.0620293250338977 3.774161014359713e-25 1.0639626097028802e-17 1.0639626096929649e-17 9.91551526243552e-29
1.0660195594769086 3.8003627931136494e-25 1.0753743263557566e-17 1.0753743263449338e-17 1.0822864626593165e-28
1.070024785945596 3.826497837579619e-25 1.0868378209211742e-17 1.086837820909365e-17 1.1809435919907758e-28
1.0740450607676866 3.8525637386641425e-25 1.0983525633449739e-17 1.0983525633320922e-17 1.2881788774727898e-28
1.07808044048254 3.878558106571121e-25 1.1099180189527365e-17 1.1099180189386893e-17 1.404699422583675e-28
1.0861967418109137 3.930276831810424e-25 1.1331856600280223e-17 1.1331856600113351e-17 1.6687032068499343e-28
1.0902777775684922 3.95589201728941e-25 1.144856413936785e-17 1.1448564139186059e-17 1.817891689210227e-28
1.0943741465085532 3.9814244842604643e-25 1.1565748404509401e-17 1.1565748404311424e-17 1.979783623581238e-28
1.1026131145906286 4.0322321860620245e-25 1.1801524673107023e-17 1.1801524672872439e-17 2.3458507874647166e-28
1.1109141095355224 4.082682003529281e-25 1.2039140149861293e-17 1.2039140149583686e-17 2.776058969230746e-28
1.1192775983109025 4.132709506072459e-25 1.2278409793914325e-17 1.2278409793586226e-17 3.2809864482715342e-28
1.1277040513999907 4.182082258155063e-25 1.2518639826120775e-17 1.2518639825733492e-17 3.87284065024214e-28
1.1361939428280308 4.231038827249791e-25 1.2760535894277737e-17 1.2760535893821165e-17 4.565688221055686e-28
1.1447477501889525 4.279562886461823e-25 1.3004050406913822e-17 1.3004050406376252e-17 5.375718489348993e-28
1.1533659546722406 4.327664942908464e-25 1.324921629617075e-17 1.3249216295538594e-17 6.321547715158847e-28
1.1707974979042381 4.422758475930415e-25 1.3744990441231252e-17 1.3744990440360325e-17 8.709279136539804e-28
1.1884924949847024 4.515959132504877e-25 1.4246752503988018e-17 1.424675250279404e-17 1.1939766892666075e-27
1.2064549276569216 4.607995982992871e-25 1.475681478673787e-17 1.4756814785108973e-17 1.6288981927261742e-27
1.2246888378427687 4.697863498883506e-25 1.527198843099055e-17 1.5271988428779034e-17 2.2115188332703983e-27
1.2431983285522175 4.785351385375767e-25 1.5791510879938495e-17 1.5791510876950305e-17 2.9881900395908048e-27
1.2619875648066055 4.870426904634088e-25 1.6315167559701733e-17 1.631516755568316e-17 4.018573522193285e-27
1.3004222497298317 5.031926227918168e-25 1.7369530913651614e-17 1.736953090648482e-17 7.166795853421006e-27
1.3400274889804893 5.181729284133868e-25 1.8431380308606878e-17 1.8431380296056715e-17 1.2550162348946037e-26
1.3808389325824078 5.319280382241185e-25 1.9496889904151057e-17 1.949688988256146e-17 2.1589595557292064e-26
1.4228933163050095 5.445249150511778e-25 2.0566459201762596e-17 2.056645916526006e-17 3.650253268041754e-26
1.466228494730424 5.562668194999345e-25 2.1649817715203187e-17 2.1649817654515477e-17 6.068771155433891e-26
1.5108834753276823 5.669253763676596e-25 2.2736640835374254e-17 2.2736640736115497e-17 9.925874924569245e-26
1.5568984535646726 5.7631580272103515e-25 2.3817175044299e-17 2.3817174884425192e-17 1.5987380753546602e-25
1.6043148490894465 5.844552517158582e-25 2.4889163559470538e-17 2.4889163305421024e-17 2.5404950961244167e-25
1.6531753430134553 5.913684736681632e-25 2.5950547231525512e-17 2.595054683369349e-17 3.978320252561382e-25
1.7035239163302658 5.971376488940692e-25 2.7001763061880547e-17 2.700176244779645e-17 6.140841038640228e-25
1.755405889504358 6.02237652044044e-25 2.806175886312555e-17 2.8061757928318775e-17 9.348067807116873e-25
1.8088679632656115 6.065512187605762e-25 2.912351431489081e-17 2.912351291098523e-17 1.4039055819634698e-24
1.8639582606462262 6.099989282023982e-25 3.018107384989035e-17 3.018107176899287e-17 2.080897485836409e-24
1.9207263702978936 6.126383722048587e-25 3.1234828600264916e-17 3.123482555498735e-17 3.0452775542504663e-24
1.979223391128241 6.146036126148509e-25 3.22893540257326e-17 3.2289349623865577e-17 4.401867026284745e-24
2.039501978296691 6.160550945219767e-25 3.335132690735349e-17 3.3351320620414196e-17 6.28693929378766e-24
2.1016163906111602 6.174421993833891e-25 3.44444447423213e-17 3.4444435866328114e-17 8.875993191405156e-24
2.1656225393682647 6.190255177447244e-25 3.5584490171591196e-17 3.5584477780097876e-17 1.2391493318119806e-23
2.231578038680979 6.208237518624092e-25 3.6774759052891283e-17 3.677474194096628e-17 1.7111924992373772e-23
2.299542257339062 6.229929855147052e-25 3.8027168110066675e-17 3.802714472814277e-17 2.338192390628808e-23
2.369576372248914 6.258783030232493e-25 3.9366793320114234e-17 3.93667616963529e-17 3.1623761342823665e-23
2.4417434235010123 6.298872249007012e-25 4.082557028171463e-17 4.0825527933494783e-17 4.23482198420636e-23
2.5161083711144245 6.357176299529921e-25 4.245834203495973e-17 4.2458285866630176e-17 5.61683295577112e-23
2.5927381535095444 6.445115361755188e-25 4.435665489363087e-17 4.435658108183012e-17 7.381180075188294e-23
2.6717017477616296 6.57632536644097e-25 4.6638083922472627e-17 4.663798779304049e-17 9.612943214501076e-23
2.753070231689431 6.771336326874755e-25 4.948357964342008e-17 4.9483455536232914e-17 1.2410718715858398e-22
2.836916847834745 7.076654357242495e-25 5.328979180859473e-17 5.3289632926326204e-17 1.5888226852404164e-22
2.9233170693905177 7.594696445464885e-25 5.893262358384639e-17 5.89324218627107e-17 2.0172113569273426e-22
2.967498994190263 8.034592478554128e-25 6.32883637097005e-17 6.328813745212301e-17 2.2625757747375223e-22
3.0123486681368425 8.548343746973152e-25 6.835285343605237e-17 6.835259999123047e-17 2.5344482190826794e-22
3.0578761833420214 9.697707654027111e-25 7.871516628372503e-17 7.871488268151273e-17 2.836022122753057e-22
3.1040917844459814 1.1178779800836531e-24 9.21082198590547e-17 9.210790308852279e-17 3.1677053190711145e-22
3.127460860933648 1.274544164116985e-24 1.0580743960259406e-16 1.05807104932689e-16 3.3466990509462494e-22
3.1510058709225794 1.4832777852948129e-24 1.2406267408442247e-16 1.2406232065320749e-16 3.534312150091818e-22
3.162844764501044 1.67757043607421e-24 1.4084066721531483e-16 1.4084030403445608e-16 3.6318085873377836e-22
3.1747281389236908 1.9035167266136536e-24 1.6041045540938451e-16 1.6041008225235e-16 3.7315703451520195e-22
3.1986289994194426 2.533742940952719e-24 2.151274627606544e-16 2.1512706890525482e-16 3.938553995663095e-22
3.2227097969389145 4.019317685394052e-24 3.438293659648307e-16 3.438289500611042e-16 4.1590372653053225e-22
3.2348180950136065 5.42810072561729e-24 4.660872199912609e-16 4.660867922881988e-16 4.277030620577007e-22
3.240889293275058 6.481346173978996e-24 5.575692921612834e-16 5.575688582311931e-16 4.339300904014695e-22
3.2469718861334385 7.699787494466384e-24 6.636310546395995e-16 6.636306142639108e-16 4.403756885709182e-22
3.2714166318528037 1.4199159793853845e-23 1.2330137992111123e-15 1.2330133321011563e-15 4.671099554583523e-22
3.2744851364798273 1.4605455131270292e-23 1.2694849347110148e-15 1.2694844644269165e-15 4.702840979094765e-22
3.2775565192852394 1.5023420309559933e-23 1.3070386804049192e-15 1.3070382069283328e-15 4.734765861787889e-22
3.283707930232385 1.4621467944226877e-23 1.2744562495889665e-15 1.2744557703594592e-15 4.792295072029867e-22
3.2898708863219004 1.334675536104471e-23 1.1655314244739554e-15 1.1655309399683107e-15 4.845056448413424e-22
3.29141343181113 1.3046146594357829e-23 1.1398143605559319e-15 1.1398138747241548e-15 4.858317766140626e-22
3.292184975758714 1.289843813449681e-23 1.1271735435076096e-15 1.1271730570117e-15 4.864959098236026e-22
3.295272960557952 1.1966086669058721e-23 1.046677701136029e-15 1.0466772120493961e-15 4.890866327856982e-22
3.3076538914384823 8.736142582530256e-24 7.670244463138991e-16 7.670239467978604e-16 4.995160385662804e-22
3.310756385682612 8.078768345011531e-24 7.099729682201866e-16 7.099724660701931e-16 5.021499934844336e-22
3.313861789986515 7.472238953934941e-24 6.572862939421138e-16 6.572857891474717e-16 5.047946425804449e-22
3.3200813396944477 6.6216501960797e-24 5.835584891476804e-16 5.83557978681782e-16 5.104658984702847e-22
3.345076488085796 5.104289167610864e-24 4.532217629654259e-16 4.532212272546013e-16 5.3571082455351495e-22
3.3482140837626964 5.161190224759361e-24 4.587039901494745e-16 4.58703451018157e-16 5.3913131729445e-22
3.3513546224236106 5.2187203760274134e-24 4.642520665412436e-16 4.642515239712336e-16 5.42570010132127e-22
3.3576445397418455 5.639154930531804e-24 5.025950151786711e-16 5.025944654239577e-16 5.497547133424892e-22
3.3702598118196083 7.189891087789687e-24 6.432134638137238e-16 6.432128989759382e-16 5.648377856891107e-22
3.382922481734668 7.54308869146522e-24 6.773461918048088e-16 6.773456122227522e-16 5.795820565082039e-22
3.389271646505754 7.726069444253557e-24 6.950794021782454e-16 6.950788151038238e-16 5.870744216395353e-22
3.395632727569191 7.923239093944521e-24 7.141556974412108e-16 7.141551026432256e-16 5.9479798496321035e-22
3.421196662673239 8.869966665775396e-24 8.055072626390354e-16 8.055066357573927e-16 6.268816426403033e-22
3.4276182099114902 8.679183121627434e-24 7.896610665991831e-16 7.896604324629371e-16 6.341362460507688e-22
3.4340518103208963 7.843165971540176e-24 7.149368484770986e-16 7.149362074344483e-16 6.410426505933889e-22
3.4469541582030403 6.652529752825653e-24 6.086838322979494e-16 6.086831779056279e-16 6.543923217263396e-22
3.472904465399547 6.318867173249998e-24 5.825074659003624e-16 5.825067808516702e-16 6.850486924213458e-22
3.4990501388274233 5.808534566880556e-24 5.394934507888955e-16 5.394927341291115e-16 7.166597840233104e-22
3.5253949054701885 3.992299829377403e-24 3.735943983447146e-16 3.735936506190942e-16 7.477256204977367e-22
3.5519380250092896 2.2852643597546024e-24 2.1546228393523148e-16 2.1546150468134208e-16 7.792538893882204e-22
3.578680990867387 1.6084359812292767e-24 1.5279044625211593e-16 1.527896323512562e-16 8.139008596879246e-22
3.605625307711299 1.3346929913061995e-24 1.2774132198859744e-16 1.2774047138091758e-16 8.506076798869054e-22
3.660119384959845 1.1350439781497002e-24 1.1027507792067364e-16 1.1027414928238881e-16 9.286382848416267e-22
3.715437065384467 9.936990867339188e-25 9.80018407535063e-17 9.800082850903472e-17 1.0122444715846253e-21
3.8285932144167436 9.221579675346555e-25 9.371605126970463e-17 9.371485449821756e-17 1.1967714870557666e-21
3.94519561050918 9.087458109128134e-25 9.516568898684203e-17 9.516428342810742e-17 1.4055587345819487e-21
4.06534921144712 9.193380717954647e-25 9.920705002164022e-17 9.920540943404004e-17 1.6405876001767584e-21
4.189162171576248 9.439701678525124e-25 1.0496750532036784e-16 1.0496560061341985e-16 1.904706947977558e-21
4.316745939156006 9.789749630288124e-25 1.1217536909513565e-16 1.1217316920431535e-16 2.1998908202837706e-21
4.448215356677963 1.0231785905452721e-24 1.20811056515882e-16 1.2080853082866826e-16 2.5256872137423238e-21
4.58368876423945 1.0768267864160976e-24 1.3101783067500387e-16 1.3101494486551786e-16 2.885809485997618e-21
4.723288106065518 1.1412205724871615e-24 1.4308149261720831e-16 1.4307820658245818e-16 3.286034750144865e-21
4.867139040275056 1.2188722480133357e-24 1.5747128626047047e-16 1.5746756371947475e-16 3.722540995689482e-21
4.940699165968905 1.2657075624717041e-24 1.6599355227885227e-16 1.659895954272106e-16 3.956851641658467e-21
5.015371051989984 1.3143791186776603e-24 1.7498191007199077e-16 1.7497770797331066e-16 4.2020986800630926e-21
5.091171501069577 1.3735625227963657e-24 1.856246264533135e-16 1.8562016348837252e-16 4.462964940981361e-21
5.129500256944802 1.4040107137682175e-24 1.9116787419757635e-16 1.9116327634918707e-16 4.5978483892140684e-21
5.168117569889187 1.4357730275081866e-24 1.9696434145831036e-16 1.969596048449131e-16 4.736613397274959e-21
5.20702561229733 1.4745251815721173e-24 2.0380336044294746e-16 2.037984744790066e-16 4.885963940868732e-21
5.246226572918644 1.5143097372488479e-24 2.1087795962536812e-16 2.1087292066640746e-16 5.0389589606193715e-21
5.265937586045735 1.5345997176396779e-24 2.1450640003977263e-16 2.1450128319525553e-16 5.116844517125254e-21
5.285722656980489 1.5551606374646617e-24 2.1819714323374556e-16 2.1819194756671046e-16 5.195667035122283e-21
5.305582063971359 1.5759969638624338e-24 2.2195137809610724e-16 2.2194610266076507e-16 5.275435342196011e-21
5.3255160863122235 1.5983438248795098e-24 2.2594427490150475e-16 2.259389183376384e-16 5.356563866363119e-21
5.365609099470188 1.6536610779073589e-24 2.3552389096397454e-16 2.355183660524202e-16 5.5249115543589324e-21
5.406003951863644 1.711111751480122e-24 2.4554108230848665e-16 2.4553538486198305e-16 5.697446503607051e-21
5.446702915881641 1.7707982226969265e-24 2.5601900081714877e-16 2.5601312656301027e-16 5.874254138517486e-21
5.487708281020852 1.835238953514928e-24 2.673333056294636e-16 2.673272496932989e-16 6.055936164669725e-21
5.529022354014368 1.924133198098596e-24 2.823923396721263e-16 2.82386093025921e-16 6.246646205245961e-21
5.570647458961463 2.018253400031238e-24 2.984357184085546e-16 2.984292761747995e-16 6.442233755114473e-21
5.612585937458331 2.117972181307912e-24 3.155387410029327e-16 3.155320981952471e-16 6.642807685731366e-21
5.654840148729818 2.2274755968352017e-24 3.3435107251006533e-16 3.34344223339573e-16 6.84917049235577e-21
5.67608639626678 2.3016645115578058e-24 3.467851180536609e-16 3.4677816072288085e-16 6.95733078007362e-21
5.686739436050992 2.3398975861003155e-24 3.5320725207708755e-16 3.53200240131049e-16 7.01194603856221e-21
5.6974124697621304 2.3789138071910135e-24 3.597707087872759e-16 3.597636418663522e-16 7.066920923678633e-21
5.718818669136295 2.4593706619301085e-24 3.7333589448992487e-16 3.7332871653160064e-16 7.177958324224433e-21
5.740305295436557 2.547959239072499e-24 3.8823697987575325e-16 3.882296887590892e-16 7.291116664015605e-21
5.7835210386641895 2.777095850332092e-24 4.2633660480343924e-16 4.263290776677163e-16 7.527135722940069e-21
5.827062130521658 3.040775941676953e-24 4.703308893390962e-16 4.703231180704731e-16 7.771268623026353e-21
5.8489554468988025 3.2252427908924606e-24 5.007375492568596e-16 5.00729646482953e-16 7.902773906668625e-21
5.870931020387893 3.423119524117974e-24 5.334558404915568e-16 5.334478042261057e-16 8.036265451242394e-21
5.892989160043636 3.6354829062479914e-24 5.686789884567483e-16 5.686708166825996e-16 8.171774148520427e-21
5.915130176081913 3.8768300210952736e-24 6.087100885139679e-16 6.087017760893984e-16 8.31242456956364e-21
5.95966208400165 4.5505373208376816e-24 7.198694600290719e-16 7.198608324990197e-16 8.627530052275001e-21
6.004529249263818 5.520332553514213e-24 8.798601306768206e-16 8.798511485920498e-16 8.982084770847529e-21
6.027089341400364 6.19389766126889e-24 9.909256898634629e-16 9.90916504755239e-16 9.185108223804705e-21
6.049734195844842 6.989574651188131e-24 1.1224227854972986e-15 1.1224133847623898e-15 9.400734908501469e-21
6.095279466722835 9.286621619349546e-24 1.5025218849926629e-15 1.5025119618380665e-15 9.923154596567962e-21
6.141167624020661 1.2819959095775657e-23 2.0898110644933767e-15 2.0898004705169986e-15 1.0593976378167634e-20
6.164241091010745 1.507616141399853e-23 2.4668334445646064e-15 2.4668224349067366e-15 1.100965787031995e-20
6.187401249150058 1.7645839349589355e-23 2.898144495744961e-15 2.8981330528976966e-15 1.144284726286231e-20
6.1990139391386085 1.8900701675989484e-23 3.1100686343056615e-15 3.1100569701307987e-15 1.166417486233932e-20
6.204828454712694 1.9561668682846354e-23 3.2218484716469242e-15 3.221836694994334e-15 1.177665259088733e-20
6.210648424152782 2.0044394401924625e-23 3.3044510106310498e-15 3.3044391364975557e-15 1.1874133492792603e-20
6.233982942956859 2.168489809667487e-23 3.588330432245578e-15 3.588318208965015e-15 1.2223280564082779e-20
6.239830258556775 2.1894951717432504e-23 3.626487631979176e-15 3.626475354007078e-15 1.2277972098500592e-20
6.245683058788269 2.19138079477391e-23 3.6330152940194065e-15 3.6330029611217286e-15 1.2332897678765615e-20
6.257405133728602 2.1870227301143752e-23 3.632595193428084e-15 3.6325827606732934e-15 1.2432754790832236e-20
6.269149208991335 2.1549545605856624e-23 3.586048479817592e-15 3.586035993051714e-15 1.2486765877508724e-20
6.280915325867298 2.0743187778775012e-23 3.4583414546563215e-15 3.458328970922651e-15 1.2483733670194973e-20
6.304513850009849 1.8753891443325573e-23 3.138429909172288e-15 3.138417483573346e-15 1.2425598942114694e-20
6.32820103803542 1.6287490039121037e-23 2.7359229584007596e-15 2.7359106478761464e-15 1.2310524612697702e-20
6.3519772230701035 1.4025773374161692e-23 2.364858622338042e-15 2.364846410408221e-15 1.2211929821666216e-20
6.375842739491607 1.2123138558637546e-23 2.051738928271394e-15 2.051726796502862e-15 1.2131768531582173e-20
6.399797922933955 1.0599055552670177e-23 1.8005403676633938e-15 1.80052825111242e-15 1.2116550973405471e-20
6.42384311029221 9.33217313260955e-24 1.5912819844812217e-15 1.5912698690994468e-15 1.2115381774752481e-20
6.447978639727206 8.409870116028277e-24 1.4394026955978741e-15 1.4393905286599636e-15 1.2166937910618567e-20
6.472204850670314 7.641934971374756e-24 1.312879978670945e-15 1.3128677487312318e-15 1.2229939713377165e-20
6.496522083828205 7.143984470263183e-24 1.2319436801121699e-15 1.2319313432039917e-15 1.2336908178360435e-20
