Dust emission spectrum from A.P. Jones, M. Kohler, N. Ysard, M. Bocchio, and L. Verstraete (2017), A&A, 602A, 46J 
inside the DustPedia framework.

lambda    nu*dP/dnu     j_nu    j_nu(carb.) j_nu(sil)
 (um)   (erg s-1 H-1) (Jy cm2 sr-1 H-1)
0.9927057738263894 3.0350977802271267e-25 7.997655041010847e-18 7.997655040281238e-18 7.2960797489311555e-28
1.0001793341362166 3.0851949573803813e-25 8.190867917684184e-18 8.190867916805363e-18 8.78822278142443e-28
1.0077091589558085 3.1352197763916868e-25 8.386343150827677e-18 8.38634314977049e-18 1.057187049045669e-27
1.0114953028030835 3.1601988949519887e-25 8.484919381173727e-18 8.484919380014772e-18 1.1589544307002335e-27
1.0152956718711033 3.185152555668323e-25 8.584049354306589e-18 8.584049353036481e-18 1.2701062441940125e-27
1.0229392996569957 3.234949257196007e-25 8.783887596339666e-18 8.78388759481572e-18 1.5239471726620881e-27
1.0267826658714554 3.2597318610713637e-25 8.884435498649147e-18 8.8844354969806e-18 1.6685470055354888e-27
1.0306404723013447 3.284478057673536e-25 8.985515355847698e-18 8.985515354021423e-18 1.8262734342284323e-27
1.03451277320114 3.309185461079718e-25 9.087122819825508e-18 9.087122817827248e-18 1.998259637991351e-27
1.0383996230291617 3.3338516986977513e-25 9.189253488395417e-18 9.189253486209683e-18 2.1857311835588816e-27
1.0403485208654093 3.346168642658539e-25 9.240513634189631e-18 9.240513631903947e-18 2.285683937288458e-27
1.0423010764483396 3.3584744117215395e-25 9.291902906339359e-18 9.291902903949349e-18 2.390013079604957e-27
1.0462171883269815 3.3830512555764438e-25 9.395066566456216e-18 9.395066563843678e-18 2.6125373302574324e-27
1.0471985131304309 3.389188026118062e-25 9.420937298772616e-18 9.42093729610142e-18 2.671197410060634e-27
1.048180758391296 3.3953217478847326e-25 9.446839814873104e-18 9.446839812141985e-18 2.731119074599791e-27
1.0501480137395462 3.4075799003545673e-25 9.498739910610565e-18 9.498739907755714e-18 2.8548510198952912e-27
1.0521189612883777 3.419825424108905e-25 9.550766276115357e-18 9.550766273131412e-18 2.983945952039422e-27
1.0531058218030118 3.425933949953501e-25 9.57680032343544e-18 9.576800320384863e-18 3.0505776241746723e-27
1.0540936079674168 3.4320083798414167e-25 9.602779405880104e-18 9.602779402761454e-18 3.1186482898505037e-27
1.058054026499678 3.45627145992456e-25 9.707002075956364e-18 9.707002072550593e-18 3.405771383997194e-27
1.0590464539527713 3.462328392834075e-25 9.733133957703184e-18 9.73313395422177e-18 3.48141443231126e-27
1.06003981227728 3.468381720228815e-25 9.759296176176684e-18 9.75929617261802e-18 3.5586653126066584e-27
1.0620293250338977 3.480477417658778e-25 9.811711323960053e-18 9.81171132024193e-18 3.7181212641414875e-27
1.0660195594769086 3.5046240010997847e-25 9.916902357696017e-18 9.916902353638217e-18 4.057800232324892e-27
1.070024785945596 3.52870897542965e-25 1.0022570340577521e-17 1.0022570336150443e-17 4.4270755792307756e-27
1.0740450607676866 3.552730123324889e-25 1.0128710392679576e-17 1.0128710387851185e-17 4.828391669665146e-27
1.07808044048254 3.5766852453144494e-25 1.023531759179048e-17 1.0235317586526094e-17 5.264382844605322e-27
1.0861967418109137 3.6243463334986064e-25 1.0449791370558253e-17 1.0449791364306292e-17 6.251962046437274e-27
1.0902777775684922 3.647951640753047e-25 1.0557368136931641e-17 1.0557368130121743e-17 6.809899329833327e-27
1.0943741465085532 3.6714806267328745e-25 1.066538405253977e-17 1.0665384045124531e-17 7.415238778451826e-27
1.1026131145906286 3.7183012832339067e-25 1.0882712679049939e-17 1.0882712670266287e-17 8.783651867035208e-27
1.1109141095355224 3.7647918027592653e-25 1.1101735601569409e-17 1.1101735591178155e-17 1.039125447916007e-26
1.1192775983109025 3.8108928118379126e-25 1.1322282283735218e-17 1.1322282271457841e-17 1.2277378335099743e-26
1.1277040513999907 3.8563900258702106e-25 1.1543713103388641e-17 1.1543713088901248e-17 1.4487390543867626e-26
1.1361939428280308 3.9015034659641754e-25 1.1766678835099624e-17 1.1766678818026081e-17 1.7073543230149776e-26
1.1447477501889525 3.9462181173198806e-25 1.1991135701415305e-17 1.1991135681319357e-17 2.0095943684857914e-26
1.1533659546722406 3.990543706052156e-25 1.2217114170875446e-17 1.221711414725177e-17 2.3623675635498462e-26
1.1707974979042381 4.0781711489104647e-25 1.2674086492522576e-17 1.2674086459998585e-17 3.252399421028592e-26
1.1884924949847024 4.164053946782299e-25 1.3136577248022263e-17 1.3136577203466214e-17 4.4556047460649904e-26
1.2064549276569216 4.248864631834828e-25 1.3606719419313508e-17 1.3606719358571965e-17 6.074154074514126e-26
1.2246888378427687 4.331676470251551e-25 1.408157409345709e-17 1.4081574011051653e-17 8.240544098946718e-26
1.2431983285522175 4.412295933054169e-25 1.4560439478962516e-17 1.4560439367702424e-17 1.112600924243521e-25
1.2619875648066055 4.490693276360946e-25 1.5043119360511025e-17 1.5043119211003866e-17 1.4950715644668867e-25
1.3004222497298317 4.639519138457801e-25 1.6014994546782456e-17 1.6014994280579905e-17 2.6620255232715987e-25
1.3400274889804893 4.777574902640605e-25 1.6993805572408115e-17 1.6993805107028603e-17 4.65379514005288e-25
1.3808389325824078 4.904352314044204e-25 1.7976043796698808e-17 1.7976042997513442e-17 7.991853674245771e-25
1.4228933163050095 5.020473039812814e-25 1.896209908726672e-17 1.8962097738472065e-17 1.3487946552032335e-24
1.466228494730424 5.128737281317113e-25 1.9960965377999747e-17 1.9960963139700387e-17 2.238299352992915e-24
1.5108834753276823 5.227044812259888e-25 2.0963154143533396e-17 2.0963150489644647e-17 3.653888744189134e-24
1.5568984535646726 5.313697857272924e-25 2.1959708791890554e-17 2.1959702918229768e-17 5.873660785531494e-24
1.6043148490894465 5.388860610775042e-25 2.2948588920538068e-17 2.294857960571511e-17 9.314822955473894e-24
1.6531753430134553 5.452767887220866e-25 2.3927942881728996e-17 2.392792832528767e-17 1.4556441328663582e-23
1.7035239163302658 5.5061842249362715e-25 2.4898226077714372e-17 2.489820365668144e-17 2.2421032936261453e-23
1.755405889504358 5.553494600765641e-25 2.5876964983079108e-17 2.5876930927055068e-17 3.405602404468238e-23
1.8088679632656115 5.593626395734884e-25 2.6857757988058684e-17 2.6857706958108592e-17 5.102995008601239e-23
1.8639582606462262 5.625856327640377e-25 2.783519403775891e-17 2.7835118576733386e-17 7.546102552480464e-23
1.9207263702978936 5.650724844412455e-25 2.880972364614838e-17 2.8809613479088176e-17 1.101670602085994e-22
1.979223391128241 5.66947816412914e-25 2.978566735133163e-17 2.978550850352815e-17 1.588478034767068e-22
2.039501978296691 5.683606198906372e-25 3.0769294830598157e-17 3.0769068539383266e-17 2.262912148900732e-22
2.1016163906111602 5.697263489595998e-25 3.178258266859778e-17 3.178226403445873e-17 3.18634139048936e-22
2.1656225393682647 5.71286530761029e-25 3.2840229289887815e-17 3.2839785674552085e-17 4.436153357349413e-22
2.231578038680979 5.730597472540432e-25 3.3945437920114874e-17 3.39448270516393e-17 6.108684755752535e-22
2.299542257339062 5.751913881328482e-25 3.5109383445014947e-17 3.510855120047834e-17 8.322445366060963e-22
2.369576372248914 5.780011039966948e-25 3.635539032096868e-17 3.635426814928676e-17 1.1221716819102974e-21
2.4417434235010123 5.818662169749274e-25 3.7713132123627655e-17 3.771163414268587e-17 1.497980941786596e-21
2.5161083711144245 5.8743179265631505e-25 3.923342502968756e-17 3.923144471104839e-17 1.9803186391677806e-21
2.5927381535095444 5.9575228327305295e-25 4.100093939053869e-17 4.099834589593175e-17 2.593494606943505e-21
2.6717017477616296 6.0808610053278645e-25 4.312434225571977e-17 4.3120976583240806e-17 3.3656724789895764e-21
2.753070231689431 6.263267072727996e-25 4.577071054516517e-17 4.576638137923327e-17 4.3291659318954465e-21
2.836916847834745 6.547608676170606e-25 4.9305884614836736e-17 4.9300363761623074e-17 5.520853213664687e-21
2.9233170693905177 7.02825721819708e-25 5.4537220817797466e-17 5.453023963823364e-17 6.981179563818805e-21
2.967498994190263 7.435327822156894e-25 5.856796505430263e-17 5.856015175301498e-17 7.813301287636284e-21
3.0123486681368425 7.910530391761266e-25 6.325287570015568e-17 6.324414271755178e-17 8.732982603887729e-21
3.0578761833420214 8.971373994256592e-25 7.281960035763106e-17 7.280984972851559e-17 9.750629115465317e-21
3.1040917844459814 1.0337873197505162e-24 8.517951997583661e-17 8.516865349557913e-17 1.0866480257508527e-20
3.127460860933648 1.1782190366528583e-24 9.781092179386534e-17 9.779945450355023e-17 1.1467290315102871e-20
3.1510058709225794 1.3706166420929723e-24 1.1463959579821302e-16 1.14627499775399e-16 1.2096022814030612e-20
3.162844764501044 1.5496579413538015e-24 1.3010175532571545e-16 1.300893329762355e-16 1.2422349479954163e-20
3.1747281389236908 1.757856204593129e-24 1.4813555897910822e-16 1.4812280299625935e-16 1.2755982848905568e-20
3.1986289994194426 2.338528557451359e-24 1.9855278411498162e-16 1.9853933678514087e-16 1.3447329840733139e-20
3.2227097969389145 3.7071370764078916e-24 3.171241216283898e-16 3.171099390953884e-16 1.4182533001339434e-20
3.2348180950136065 5.004942844080844e-24 4.297525072450664e-16 4.297379316742618e-16 1.457557080463192e-20
3.240889293275058 5.9752048771561674e-24 5.140275900167355e-16 5.140128071043616e-16 1.478291237383715e-20
3.2469718861334385 7.097646340663523e-24 6.117335744523506e-16 6.11718576979781e-16 1.499747256962139e-20
3.2714166318528037 1.3084779283374405e-23 1.136244232071806e-15 1.136228345763259e-15 1.5886308547119118e-20
3.2744851364798273 1.345905703089288e-23 1.1698416778230744e-15 1.1698256861747653e-15 1.599164830934441e-20
3.2775565192852394 1.3844083659741686e-23 1.2044363044632217e-15 1.2044202068916406e-15 1.609757158108548e-20
3.283707930232385 1.3473838832415352e-23 1.1744250420975243e-15 1.174408753916672e-15 1.628818085178432e-20
3.2898708863219004 1.22996335992905e-23 1.0740894758084988e-15 1.0740730130669314e-15 1.6462741567225554e-20
3.29141343181113 1.2022726654827947e-23 1.0504003151503766e-15 1.0503838085455456e-15 1.650660483077188e-20
3.292184975758714 1.1886664382425683e-23 1.0387562798468342e-15 1.0387397512768357e-15 1.6528569998683363e-20
3.295272960557952 1.1027832092374867e-23 9.646082518194744e-16 9.645916376033186e-16 1.6614216155903546e-20
3.3076538914384823 8.052563125125827e-24 7.070068641975449e-16 7.069899054016757e-16 1.6958795869154303e-20
3.310756385682612 7.447016630937913e-24 6.544537825641217e-16 6.544367367920213e-16 1.7045772100327372e-20
3.313861789986515 6.888304326011018e-24 6.059212037919302e-16 6.059040707097077e-16 1.7133082222398628e-20
3.3200813396944477 6.104785803424689e-24 5.380078189762834e-16 5.379904985944153e-16 1.732038186809795e-20
3.345076488085796 4.70717342882613e-24 4.1796092853319915e-16 4.1794277464338245e-16 1.8153889816788928e-20
3.3482140837626964 4.759607452037644e-24 4.230130715433249e-16 4.2299480477863406e-16 1.8266764690862794e-20
3.3513546224236106 4.812620943550752e-24 4.2812587330533974e-16 4.281074930924274e-16 1.8380212912218072e-20
3.3576445397418455 5.199951819462943e-24 4.634506226245625e-16 4.634320054020638e-16 1.8617222498754795e-20
3.3702598118196083 6.628506524958766e-24 5.9299154740622e-16 5.929724328832287e-16 1.9114522991530915e-20
3.382922481734668 6.95393773594028e-24 6.244422458954222e-16 6.2442264582778095e-16 1.9600067641193377e-20
3.389271646505754 7.122531643995956e-24 6.407818455199831e-16 6.40761998904497e-16 1.9846615486068393e-20
3.395632727569191 7.304201878945928e-24 6.583592045198677e-16 6.583391037952524e-16 2.010072461531409e-20
3.421196662673239 8.176497580349365e-24 7.425313343436514e-16 7.425101791885744e-16 2.115515507690873e-20
3.4276182099114902 8.000790259828676e-24 7.279386183786379e-16 7.27917225529779e-16 2.139284885877472e-20
3.4340518103208963 7.230706783324555e-24 6.591086735497062e-16 6.590870547302426e-16 2.161881946353009e-20
3.4469541582030403 6.1339781759393824e-24 5.612381277628866e-16 5.612160728550329e-16 2.2054907853702615e-20
3.472904465399547 5.826747284398728e-24 5.371411840156176e-16 5.371181277048974e-16 2.3056310720147672e-20
3.4990501388274233 5.356784193884735e-24 4.975351281144774e-16 4.975110414096174e-16 2.4086704859941535e-20
3.5253949054701885 3.6838970667464164e-24 3.4473445558562097e-16 3.447093590128497e-16 2.5096572771224104e-20
3.5519380250092896 2.1115798409964514e-24 1.990867329246511e-16 1.9906061405433067e-16 2.6118870320509234e-20
3.578680990867387 1.4882729899246765e-24 1.4137578177141513e-16 1.4134854095984846e-16 2.724081156662365e-20
3.605625307711299 1.2362855083692098e-24 1.1832289989016481e-16 1.1829447274831761e-16 2.8427141847216714e-20
3.660119384959845 1.0527387303008123e-24 1.022787202512447e-16 1.0224778005685041e-16 3.094019439430885e-20
3.715437065384467 9.229107380127437e-25 9.102046322061755e-17 9.098684322513881e-17 3.3619995478727446e-20
3.8285932144167436 8.57805945316258e-25 8.717615504167373e-17 8.713666691372411e-17 3.9488127949612224e-20
3.94519561050918 8.463114594562047e-25 8.862743813444293e-17 8.858138315622102e-17 4.605497822189432e-20
4.06534921144712 8.569966836272432e-25 9.247970411466118e-17 9.242634481076653e-17 5.3359303894612965e-20
4.189162171576248 8.806866488577426e-25 9.793051056884202e-17 9.786904702903469e-17 6.146353980733144e-20
4.316745939156006 9.140065769553863e-25 1.0473099823527807e-16 1.0466060192155268e-16 7.039631372538634e-20
4.448215356677963 9.5587798952775e-25 1.128645877486381e-16 1.1278448324395474e-16 8.010450468335965e-20
4.58368876423945 1.0065312352954193e-24 1.2246495036953915e-16 1.2237428910214388e-16 9.066126739527699e-20
4.723288106065518 1.0671693528657042e-24 1.337972584481104e-16 1.336950630170018e-16 1.0219543110861967e-19
4.867139040275056 1.1401089731294777e-24 1.472955240128158e-16 1.471809971077888e-16 1.145269050270038e-19
4.940699165968905 1.1839928712413889e-24 1.5527692841338266e-16 1.5515588169712202e-16 1.210467162606421e-19
5.015371051989984 1.229590865728579e-24 1.6369413910707796e-16 1.6356634072712803e-16 1.277983799499232e-19
5.091171501069577 1.284900205728848e-24 1.7364271138719955e-16 1.7350779850320892e-16 1.349128839905898e-19
5.129500256944802 1.3133523354639293e-24 1.7882397305161142e-16 1.786854128561119e-16 1.385601954995423e-19
5.168117569889187 1.3430213400673422e-24 1.842403421311752e-16 1.840980477634377e-16 1.4229436773756321e-19
5.20702561229733 1.379140346571509e-24 1.9061962499280507e-16 1.9047330130737986e-16 1.4632368542519679e-19
5.246226572918644 1.4162160600327319e-24 1.9721774600152567e-16 1.970673180023254e-16 1.504279992002506e-19
5.265937586045735 1.4351224064352245e-24 2.0060145814070625e-16 2.0044894972860335e-16 1.5250841210290938e-19
5.285722656980489 1.4542797616459681e-24 2.0404303054578387e-16 2.0388842281385005e-16 1.5460773193378787e-19
5.305582063971359 1.4736922421901944e-24 2.0754356229344039e-16 2.0738683628319138e-16 1.567260102489825e-19
5.3255160863122235 1.4944985722425834e-24 2.1126455459114996e-16 2.1110567904823198e-16 1.5887554291804565e-19
5.365609099470188 1.5459086787014734e-24 2.20177176536984e-16 2.2001384879672376e-16 1.6332774026025573e-19
5.406003951863644 1.5992894611722183e-24 2.2949480937238757e-16 2.2932694584127413e-16 1.6786353111347726e-19
5.446702915881641 1.654735187975885e-24 2.3923880429321493e-16 2.3906632078307927e-16 1.7248351013565417e-19
5.487708281020852 1.7145677374297442e-24 2.4975552098807127e-16 2.495783179605952e-16 1.7720302747615106e-19
5.529022354014368 1.796948034027994e-24 2.637262119378444e-16 2.635440732990942e-16 1.8213863875014335e-19
5.570647458961463 1.8841466958467985e-24 2.786055867679651e-16 2.7841841833497923e-16 1.8716843298585277e-19
5.612585937458331 1.976506741754481e-24 2.9446300304656786e-16 2.9427070981046144e-16 1.9229323610631675e-19
5.654840148729818 2.0778870138165694e-24 3.118973570850334e-16 3.116998242249283e-16 1.9753286010511578e-19
5.67608639626678 2.1464962382162375e-24 3.234063642349652e-16 3.232060923444871e-16 2.0027189047807067e-19
5.686739436050992 2.1818498728344937e-24 3.293499692492848e-16 3.291483178002465e-16 2.0165144903827059e-19
5.6974124697621304 2.2179250113149323e-24 3.3542386064840287e-16 3.35220822921781e-16 2.0303772662180565e-19
5.718818669136295 2.2923088140586527e-24 3.4797567312285294e-16 3.4776984261345773e-16 2.058305093952287e-19
5.740305295436557 2.3741876386005517e-24 3.617590989423192e-16 3.6155043192664514e-16 2.086670156741357e-19
5.7835210386641895 2.5858388283083256e-24 3.9697504373068104e-16 3.967604905663998e-16 2.145531642811288e-19
5.827062130521658 2.8293149791331745e-24 4.3762324350088695e-16 4.3740264484730033e-16 2.205986535865658e-19
5.8489554468988025 2.9995636105097524e-24 4.656995545910799e-16 4.654757109536159e-16 2.2384363746404453e-19
5.870931020387893 3.1821619139738505e-24 4.959052251722186e-16 4.956781006936155e-16 2.2712447860309763e-19
5.892989160043636 3.378101126923325e-24 5.284181445226454e-16 5.281877030765713e-16 2.3044144607397938e-19
5.915130176081913 3.6007466976043254e-24 5.653616044780527e-16 5.651277282833604e-16 2.3387619469253814e-19
5.95966208400165 4.222075260402977e-24 6.679086058674272e-16 6.67667036201434e-16 2.415696659933392e-19
6.004529249263818 5.116235502944352e-24 8.154529812390255e-16 8.152028154380096e-16 2.5016580101611106e-19
6.027089341400364 5.73717600889331e-24 9.178574470208557e-16 9.176023811024646e-16 2.5506591839104087e-19
6.049734195844842 6.470612321638432e-24 1.0390850757552154e-15 1.038824829091676e-15 2.6024666353932265e-19
6.095279466722835 8.587757405468723e-24 1.3894496808009648e-15 1.3891769383514436e-15 2.7274244952151247e-19
6.141167624020661 1.1843996750944853e-23 1.9307171944178956e-15 1.93042852572785e-15 2.886686900458725e-19
6.164241091010745 1.3923229064037755e-23 2.2781851539219432e-15 2.2778866348900705e-15 2.98519031872863e-19
6.187401249150058 1.629117375805019e-23 2.6756548453568826e-15 2.675346163664469e-15 3.0868169241342475e-19
6.1990139391386085 1.7447530918191284e-23 2.8709526019173148e-15 2.8706387389859602e-15 3.138629313553877e-19
6.204828454712694 1.8056596945080805e-23 2.9739599526939836e-15 2.973643467718583e-15 3.164849754011918e-19
6.210648424152782 1.8501442142845522e-23 3.05008512410769e-15 3.049766368957534e-15 3.1875515015731116e-19
6.233982942956859 2.0013225443385735e-23 3.3117087101693327e-15 3.3113818824008905e-15 3.2682776844235203e-19
6.239830258556775 2.0206815839920024e-23 3.3468796218813494e-15 3.3465515572097903e-15 3.280646715587786e-19
6.245683058788269 2.0224239204929953e-23 3.352907468964015e-15 3.352578163561904e-15 3.2930540211145765e-19
6.257405133728602 2.0184182086142772e-23 3.352546904053667e-15 3.3522153577799777e-15 3.3154627369009496e-19
6.269149208991335 1.988880666537514e-23 3.3096857916285212e-15 3.3093530907761554e-15 3.3270085236585517e-19
6.280915325867298 1.9145930998413576e-23 3.1920439406885306e-15 3.1917114341121363e-15 3.325065763940944e-19
6.304513850009849 1.7313191171204512e-23 2.8973313170298786e-15 2.8970004246764667e-15 3.3089235341171365e-19
6.32820103803542 1.504090141480156e-23 2.5265247989074914e-15 2.526196826016704e-15 3.279728907869847e-19
6.3519772230701035 1.295722258941194e-23 2.184692333513162e-15 2.184366867028268e-15 3.254664848939536e-19
6.375842739491607 1.1204332715650996e-23 1.8962387905421597e-15 1.8959154102954228e-15 3.233802467368792e-19
6.399797922933955 9.800346778223933e-24 1.6648577699780628e-15 1.6645349029153589e-15 3.228670627044965e-19
6.42384311029221 8.633287712642967e-24 1.472111051601365e-15 1.471788382738432e-15 3.226688629328717e-19
6.447978639727206 7.783774743408126e-24 1.332242495188452e-15 1.331918781890954e-15 3.237132974983732e-19
6.472204850670314 7.076467988794332e-24 1.2157330802989804e-15 1.2154080664072976e-15 3.2501389168246066e-19
6.496522083828205 6.61796091557393e-24 1.1412336013757181e-15 1.1409062657834015e-15 3.2733559231659567e-19
