Dust emission spectrum from A.P. Jones, M. Kohler, N. Ysard, M. Bocchio, and L. Verstraete (2017), A&A, 602A, 46J 
inside the DustPedia framework.

lambda    nu*dP/dnu     j_nu    j_nu(carb.) j_nu(sil)
 (um)   (erg s-1 H-1) (Jy cm2 sr-1 H-1)
0.9927057738263894 3.8607035945964225e-21 1.0173173255348029e-13 1.0173173058638738e-13 1.9670929034056788e-21
1.0001793341362166 3.925663822423246e-21 1.0422224301183963e-13 1.0422224064442273e-13 2.367416907164213e-21
1.0077091589558085 3.990869483430344e-21 1.0675105206414708e-13 1.0675104921872246e-13 2.845424651420717e-21
1.0114953028030835 4.023561139717074e-21 1.0802988365781803e-13 1.0802988053988803e-13 3.1179300171016213e-21
1.0152956718711033 4.0563103492921616e-21 1.093183689828085e-13 1.0931836556741368e-13 3.415394813801622e-21
1.0229392996569957 4.1219446937960874e-21 1.119235449770759e-13 1.1192354088294828e-13 4.094127615814719e-21
1.0267826658714554 4.154755142335143e-21 1.1323831421712548e-13 1.1323830973669067e-13 4.480434813323911e-21
1.0306404723013447 4.187616774673405e-21 1.145627834088376e-13 1.145627785072783e-13 4.901559324669831e-21
1.03451277320114 4.220528483805684e-21 1.1589698174366016e-13 1.1589697638317996e-13 5.360480249247509e-21
1.0383996230291617 4.253489192657756e-21 1.1724093911180926e-13 1.1724093325139227e-13 5.860416960239552e-21
1.0403485208654093 4.269987593766831e-21 1.179165869735555e-13 1.1791658084671311e-13 6.126842420017017e-21
1.0423010764483396 4.286497854856214e-21 1.1859468613649293e-13 1.1859467973164574e-13 6.404847211096352e-21
1.0462171883269815 4.319553455492733e-21 1.1995825420861165e-13 1.1995824721108514e-13 6.997526502172514e-21
1.0471985131304309 4.327824573905614e-21 1.203006845198615e-13 1.2030067736615803e-13 7.153703442445257e-21
1.048180758391296 4.336098549356884e-21 1.2064373116567671e-13 1.2064372385246263e-13 7.313214144986646e-21
1.0501480137395462 4.3526550118823295e-21 1.2133167552192618e-13 1.2133166787941742e-13 7.64250878719567e-21
1.0521189612883777 4.369222725391703e-21 1.220220914328726e-13 1.2202208344690516e-13 7.985967436864227e-21
1.0531058218030118 4.377499733074385e-21 1.223679191483371e-13 1.2236791098513707e-13 8.163200049508949e-21
1.0540936079674168 4.3857433678598015e-21 1.2271335448867805e-13 1.2271334614444554e-13 8.344232533784487e-21
1.058054026499678 4.41874385632797e-21 1.241012353451869e-13 1.2410122623766523e-13 9.107521691696547e-21
1.0590464539527713 4.4270003977368774e-21 1.2444974310108203e-13 1.2444973379255046e-13 9.30853154075024e-21
1.06003981227728 4.43525948013002e-21 1.2479886695380432e-13 1.2479885744002356e-13 9.513780827306699e-21
1.0620293250338977 4.451785215519269e-21 1.2549896514004808e-13 1.25498955202709e-13 9.937339071876033e-21
1.0660195594769086 4.484866610160853e-21 1.2690657898336405e-13 1.2690656814418878e-13 1.083917525187064e-20
1.070024785945596 4.517987241272721e-21 1.2832411297951876e-13 1.2832410116057203e-13 1.1818946679686372e-20
1.0740450607676866 4.551146346877184e-21 1.2975160426505925e-13 1.297515913820328e-13 1.288302642554108e-20
1.07808044048254 4.584343202699578e-21 1.3118909104698384e-13 1.3118907700870686e-13 1.403827697459756e-20
1.0861967418109137 4.650796383109391e-21 1.3409273683711756e-13 1.3409272018471616e-13 1.6652401424910626e-20
1.0902777775684922 4.683935318078914e-21 1.3555560586413675e-13 1.3555558773635826e-13 1.812777844499463e-20
1.0943741465085532 4.717107485489677e-21 1.370285398853555e-13 1.3702852015794978e-13 1.9727405670281197e-20
1.1026131145906286 4.783549496404261e-21 1.4000477849956624e-13 1.400047551598915e-13 2.333967470680584e-20
1.1109141095355224 4.850118797482571e-21 1.4302181726593688e-13 1.4302178968852843e-13 2.7577408442323496e-20
1.1192775983109025 4.9167600082153175e-21 1.460784847095874e-13 1.4607845216729215e-13 3.254229524939252e-20
1.1277040513999907 4.983229801413381e-21 1.4916793884921345e-13 1.4916790049780211e-13 3.835141132869179e-20
1.1361939428280308 5.049812451029838e-21 1.522990349928372e-13 1.522989898534748e-13 4.5139362371229334e-20
1.1447477501889525 5.116507294292225e-21 1.5547223052335414e-13 1.5547217746265442e-13 5.306069970075176e-20
1.1533659546722406 5.183338611735408e-21 1.586887508833385e-13 1.586886885906144e-13 6.229272407166878e-20
1.1707974979042381 5.317612863255885e-21 1.6526007100182982e-13 1.6525998547102328e-13 8.553080649406407e-20
1.1884924949847024 5.4524411466254684e-21 1.7201125448504008e-13 1.7201113763551658e-13 1.1684952345256213e-19
1.2064549276569216 5.5887375187946385e-21 1.789757733316865e-13 1.789756144836688e-13 1.5884801775725593e-19
1.2246888378427687 5.72559813461556e-21 1.8612986199605668e-13 1.861296471124703e-13 2.1488358637821853e-19
1.2431983285522175 5.8629034850021444e-21 1.9347399326699722e-13 1.9347370398947904e-13 2.8927751821134186e-19
1.2619875648066055 6.000844134083579e-21 2.0101888287056092e-13 2.0101849530698964e-13 3.8756357132635333e-19
1.3004222497298317 6.277731601112553e-21 2.166988309728165e-13 2.166981451046361e-13 6.858681804500551e-19
1.3400274889804893 6.5570165728384464e-21 2.332326903180248e-13 2.3323149879510947e-13 1.1915229153337784e-18
1.3808389325824078 6.839640502764393e-21 2.5069503444784455e-13 2.506930014726587e-13 2.032975185859946e-18
1.4228933163050095 7.127914401034505e-21 2.692180957573892e-13 2.692146874026731e-13 3.4083547161916134e-18
1.466228494730424 7.42684813370235e-21 2.8905176914506187e-13 2.8904615145542193e-13 5.617689639962116e-18
1.5108834753276823 7.735660331015255e-21 3.102400031863866e-13 3.1023089646000226e-13 9.106726384400668e-18
1.5568984535646726 8.053890028696427e-21 3.32839925081575e-13 3.3282539003459234e-13 1.45350469826517e-17
1.6043148490894465 8.383241188720842e-21 3.570022863033533e-13 3.569794023372118e-13 2.2883966141573955e-17
1.6531753430134553 8.725475767541588e-21 3.828930372608556e-13 3.8285754020627454e-13 3.549705458112044e-17
1.7035239163302658 9.082652210526269e-21 4.1070534309184425e-13 4.106510804533286e-13 5.426263851577591e-17
1.755405889504358 9.461270129685534e-21 4.4085566556159297e-13 4.4077388059559403e-13 8.178496599900395e-17
1.8088679632656115 9.86077957429119e-21 4.734646410812193e-13 4.733430609109398e-13 1.2158017027950374e-16
1.8639582606462262 1.0280353448324923e-20 5.086436914589478e-13 5.084653549927437e-13 1.7833646620401424e-16
1.9207263702978936 1.0720504310751492e-20 5.465754837549635e-13 5.463172768683788e-13 2.5820688658471997e-16
1.979223391128241 1.1182249071262526e-20 5.874804372361912e-13 5.871112796231374e-13 3.691576130538641e-16
2.039501978296691 1.1666190474832034e-20 6.315716495965067e-13 6.310503046319817e-13 5.213449645248771e-16
2.1016163906111602 1.217635851730052e-20 6.792666722985477e-13 6.785390847506381e-13 7.275875479096656e-16
2.1656225393682647 1.271381935143921e-20 7.308499678703759e-13 7.2984618591891e-13 1.0037819514659078e-15
2.231578038680979 1.3275474721983507e-20 7.863783928194339e-13 7.850090235656052e-13 1.3693692538288827e-15
2.299542257339062 1.3859960095311578e-20 8.460047621688486e-13 8.44156943349008e-13 1.8478188198405163e-15
2.369576372248914 1.4467129848906193e-20 9.099604634736628e-13 9.074933237434283e-13 2.467139730234648e-15
2.4417434235010123 1.5097118341300454e-20 9.78506058749309e-13 9.75245802434533e-13 3.2602563147761214e-15
2.5161083711144245 1.575272884262464e-20 1.0520940708118932e-12 1.0478285628845218e-12 4.2655079273713535e-15
2.5927381535095444 1.6440368100398158e-20 1.131461103832013e-12 1.1259341735784615e-12 5.526930253551496e-15
2.6717017477616296 1.7165336547379686e-20 1.2173339393142479e-12 1.2102397943338564e-12 7.0941449803914095e-15
2.753070231689431 1.7936843472195852e-20 1.3107888600736754e-12 1.3017664691307929e-12 9.022390942882745e-15
2.836916847834745 1.8784234218554258e-20 1.4145214394513574e-12 1.4031486890172132e-12 1.1372750434144331e-14
2.9233170693905177 1.9775542944620385e-20 1.5345243050726892e-12 1.5203153757144472e-12 1.4208929358241909e-14
2.967498994190263 2.0393721313738482e-20 1.606410350423173e-12 1.5906107111036485e-12 1.5799639319524987e-14
3.0123486681368425 2.1057031694473358e-20 1.6837275661970023e-12 1.6661821002317435e-12 1.7545465965258907e-14
3.0578761833420214 2.2181426229832972e-20 1.8004405952229598e-12 1.7809760074957167e-12 1.9464587727243066e-14
3.1040917844459814 2.3508844175714357e-20 1.9370251731829596e-12 1.9154743322775696e-12 2.1550840905390508e-14
3.127460860933648 2.4764121251492697e-20 2.0558159829980834e-12 2.0331489707487613e-12 2.2667012249322182e-14
3.1510058709225794 2.6367940430869737e-20 2.2054380051962194e-12 2.18160816929363e-12 2.38298359025893e-14
3.162844764501044 2.782809587326605e-20 2.3363117910532613e-12 2.311880432229663e-12 2.4431358823599084e-14
3.1747281389236908 2.948408096127892e-20 2.4846405540863135e-12 2.4595956111068065e-12 2.504494297950649e-14
3.1986289994194426 3.3982162973474555e-20 2.8852557934917407e-12 2.8589437115109425e-12 2.6312081980798218e-14
3.2227097969389145 4.443139790207385e-20 3.800848941380315e-12 3.773194791187502e-12 2.7654150192813078e-14
3.2348180950136065 5.424888288374614e-20 4.658113820841325e-12 4.6297436274119004e-12 2.837019342942566e-14
3.240889293275058 6.158548781464881e-20 5.298000743438205e-12 5.269252855061318e-12 2.8747888376886835e-14
3.2469718861334385 7.008847942499962e-20 6.040801976979995e-12 6.011663285895944e-12 2.913869108405193e-14
3.2714166318528037 1.1475610775156372e-19 9.965087121752252e-12 9.934333954142294e-12 3.075316760995871e-14
3.2744851364798273 1.1754765540991713e-19 1.0217071382732925e-11 1.0186128093951287e-11 3.094328878164082e-14
3.2775565192852394 1.2041423639195188e-19 1.04760474907004e-11 1.0444913143529624e-11 3.1134347170774555e-14
3.283707930232385 1.1765880586933054e-19 1.0255536655507272e-11 1.0224060917504628e-11 3.14757380026449e-14
3.2898708863219004 1.0890366641488544e-19 9.510224920841173e-12 9.478438758596056e-12 3.178616224511615e-14
3.29141343181113 1.0683466946741182e-19 9.333920141359284e-12 9.302056036684646e-12 3.186410467463658e-14
3.292184975758714 1.0581739111177041e-19 9.247209814123592e-12 9.215306687724192e-12 3.190312639939696e-14
3.295272960557952 9.947009545862636e-20 8.700683333309515e-12 8.668628468973842e-12 3.2054864335674087e-14
3.3076538914384823 7.732124482764505e-20 6.788726768359208e-12 6.756062582930026e-12 3.266418542918012e-14
3.310756385682612 7.276831599846141e-20 6.3949769439438486e-12 6.362159201320446e-12 3.2817742623402166e-14
3.313861789986515 6.854990276161847e-20 6.0299077443915474e-12 5.996935953073728e-12 3.2971791317815786e-14
3.3200813396944477 6.265595426795375e-20 5.521797879078592e-12 5.4884946239031185e-12 3.330325517547266e-14
3.345076488085796 5.234147503418223e-20 4.647521880565097e-12 4.6127411747009135e-12 3.478070586418253e-14
3.3482140837626964 5.275634421374163e-20 4.688752892782735e-12 4.653772030465155e-12 3.4980862317581045e-14
3.3513546224236106 5.317503993429951e-20 4.730397568590105e-12 4.695215662334669e-12 3.5181906255434706e-14
3.3576445397418455 5.612916021912754e-20 5.0025644763830026e-12 4.96696218920686e-12 3.5602287176142227e-14
3.3702598118196083 6.684744518087699e-20 5.98022643693593e-12 5.943742409524467e-12 3.648402741146309e-14
3.382922481734668 6.939612300266359e-20 6.231558657802508e-12 6.1942179491170964e-12 3.7340708685412754e-14
3.389271646505754 7.071045296289794e-20 6.361498524940135e-12 6.323723665600309e-12 3.777485933982466e-14
3.395632727569191 7.215508033865545e-20 6.503648458944246e-12 6.465426181013848e-12 3.8222277930396436e-14
3.421196662673239 7.916258754323971e-20 7.188982957671997e-12 7.148908964833714e-12 4.007399283828143e-14
3.4276182099114902 7.788614611796784e-20 7.086341693097237e-12 7.0458548472392975e-12 4.048684585793931e-14
3.4340518103208963 7.210789242920727e-20 6.5729310779253616e-12 6.532053933833415e-12 4.08771440919469e-14
3.4469541582030403 6.381830704209316e-20 5.839157906005461e-12 5.797532017803053e-12 4.162588820240921e-14
3.472904465399547 6.151046257450078e-20 5.670368231874522e-12 5.627016997932888e-12 4.335123394163346e-14
3.4990501388274233 5.802153522132627e-20 5.389007829118157e-12 5.343891905468647e-12 4.5115923649509904e-14
3.5253949054701885 4.566505589113701e-20 4.273278513675069e-12 4.226449606470055e-12 4.68289072050148e-14
3.5519380250092896 3.390701039423179e-20 3.196865110932426e-12 3.148315642134997e-12 4.854946879743011e-14
3.578680990867387 2.931518168652497e-20 2.7847422863686425e-12 2.734307201054606e-12 5.043508531403714e-14
3.605625307711299 2.754338558045077e-20 2.63613318493951e-12 2.5837129161270195e-12 5.242026881249112e-14
3.660119384959845 2.6414941992876014e-20 2.5663409018591303e-12 2.509753279790034e-12 5.6587622069096517e-14
3.715437065384467 2.565033415828094e-20 2.529719506653006e-12 2.468743653546721e-12 6.097585310628486e-14
3.8285932144167436 2.557965926576664e-20 2.5995813554818855e-12 2.5291918210173397e-12 7.03895344645464e-14
3.94519561050918 2.5865694953743463e-20 2.7087075965983654e-12 2.6280797900292482e-12 8.062780656911694e-14
4.06534921144712 2.6269660293231428e-20 2.8347955803378513e-12 2.7431238807748507e-12 9.167169956300011e-14
4.189162171576248 2.672130714117352e-20 2.9713533806786072e-12 2.8678191930907733e-12 1.0353418758783394e-13
4.316745939156006 2.719148094349377e-20 3.1157225938065072e-12 2.999560538262974e-12 1.1616205554353334e-13
4.448215356677963 2.766768174732991e-20 3.266841091210473e-12 3.137471527204925e-12 1.2936956400554774e-13
4.58368876423945 2.814822663315982e-20 3.424802983494798e-12 3.281639406738962e-12 1.4316357675583657e-13
4.723288106065518 2.863881316581075e-20 3.590615375622891e-12 3.43299412309674e-12 1.5762125252615083e-13
4.867139040275056 2.9148289779142514e-20 3.7657914447521964e-12 3.593449481534654e-12 1.7234196321754152e-13
4.940699165968905 2.943001953618291e-20 3.859654181813609e-12 3.679810638170061e-12 1.7984354364354613e-13
5.015371051989984 2.970226635167422e-20 3.954231489094116e-12 3.7668172652492886e-12 1.8741422384482763e-13
5.091171501069577 3.0027112069487976e-20 4.05789424861646e-12 3.862674298451419e-12 1.9521995016503974e-13
5.129500256944802 3.018558775522623e-20 4.110021801104019e-12 3.9108820006358744e-12 1.9913980046814455e-13
5.168117569889187 3.0346965503287897e-20 4.163102357471387e-12 3.9599921183429655e-12 2.0311023912842153e-13
5.20702561229733 3.055346977007009e-20 4.222986416341336e-12 4.015532934143705e-12 2.074534821976323e-13
5.246226572918644 3.0758977754812675e-20 4.2833974513571185e-12 4.071578426737563e-12 2.1181902461955495e-13
5.265937586045735 3.086138530537291e-20 4.313805473832519e-12 4.099795931106284e-12 2.1400954272623596e-13
5.285722656980489 3.096357725750423e-20 4.344351277369776e-12 4.128146384350009e-12 2.1620489301976542e-13
5.305582063971359 3.106556569260203e-20 4.37503705585186e-12 4.156632232181342e-12 2.1840482367051759e-13
5.3255160863122235 3.1176196842020105e-20 4.407113838718544e-12 4.186486481375302e-12 2.2062735734324174e-13
5.365609099470188 3.146544933513318e-20 4.481489682104947e-12 4.256263425070567e-12 2.252262570343795e-13
5.406003951863644 3.175795487424761e-20 4.557202418241603e-12 4.327355106468509e-12 2.2984731177309256e-13
5.446702915881641 3.2054072442274647e-20 4.634323376659611e-12 4.399834870607869e-12 2.3448850605174074e-13
5.487708281020852 3.237103739944057e-20 4.7153840201970456e-12 4.476215473060287e-12 2.391685471367595e-13
5.529022354014368 3.284256947953251e-20 4.820087323130479e-12 4.576040438171477e-12 2.440468849590018e-13
5.570647458961463 3.3330443685714914e-20 4.928516362746245e-12 4.67956863292395e-12 2.489477298222969e-13
5.612585937458331 3.383614670778031e-20 5.04096098465769e-12 4.78709195630335e-12 2.5386902835434027e-13
5.654840148729818 3.438669602051558e-20 5.161550910309521e-12 4.9027167145952974e-12 2.5883419571422363e-13
5.67608639626678 3.4782604401680214e-20 5.240594149616805e-12 4.979160184306562e-12 2.614339653102439e-13
5.686739436050992 3.498499605244665e-20 5.280980839937785e-12 5.018244628513665e-12 2.627362114241188e-13
5.6974124697621304 3.519044773938307e-20 5.3219634471283165e-12 5.057923458657672e-12 2.6403998847064566e-13
5.718818669136295 3.561084811182253e-20 5.405776379774484e-12 5.139124375005496e-12 2.6665200476898923e-13
5.740305295436557 3.607619395264737e-20 5.49699240506147e-12 5.227702247823099e-12 2.692901572383713e-13
5.7835210386641895 3.73142194586454e-20 5.7284366447009524e-12 5.4536948438839275e-12 2.747418008170238e-13
5.827062130521658 3.8720587516461553e-20 5.9890924920651146e-12 5.708821863600756e-12 2.802706284643603e-13
5.8489554468988025 3.974018479437936e-20 6.16989294484892e-12 5.886629775648624e-12 2.832631692002944e-13
5.870931020387893 4.082084190092472e-20 6.361482960908807e-12 6.075216450385815e-12 2.8626651052299043e-13
5.892989160043636 4.196738993917632e-20 6.564732519513244e-12 6.275452121066708e-12 2.892803984465366e-13
5.915130176081913 4.3270957216054706e-20 6.794073522374193e-12 6.501666759562488e-12 2.924067628117053e-13
5.95966208400165 4.697531076221753e-20 7.431230469915226e-12 7.131657616257451e-12 2.995728536577772e-13
6.004529249263818 5.231729431149021e-20 8.338610212941213e-12 8.030949728940125e-12 3.0766048400108685e-13
6.027089341400364 5.604702014099462e-20 8.966637024905062e-12 8.654282362425212e-12 3.123546624798514e-13
6.049734195844842 6.04217933616853e-20 9.702850458609345e-12 9.385518894580273e-12 3.1733156402907216e-13
6.095279466722835 7.307790903104534e-20 1.1823584736118417e-11 1.1493947516658773e-11 3.296372194596473e-13
6.141167624020661 9.242695202362195e-20 1.5066730365778678e-11 1.4721032391695873e-11 3.4569797408280773e-13
6.164241091010745 1.0476549845899772e-19 1.714223059426595e-11 1.6786409213231102e-11 3.5582138103485113e-13
6.187401249150058 1.186560032290155e-19 1.9488007106517726e-11 1.9121798512315917e-11 3.6620859420181046e-13
6.1990139391386085 1.2540321792264668e-19 2.0634821996988273e-11 2.0263329596187802e-11 3.714924008004683e-13
6.204828454712694 1.2894353475570874e-19 2.1237274647521713e-11 2.0863114300215397e-11 3.7416034730631814e-13
6.210648424152782 1.315015180185371e-19 2.167889512661696e-11 2.1302471389980954e-11 3.7642373663600916e-13
6.233982942956859 1.4006932263540975e-19 2.3178112749062706e-11 2.279383887612275e-11 3.842738729399571e-13
6.239830258556775 1.4109364902409964e-19 2.3369513655027563e-11 2.298418141722498e-11 3.8533223780257984e-13
6.245683058788269 1.4106829396484673e-19 2.3387230128955742e-11 2.300083814071685e-11 3.8639198823888556e-13
6.257405133728602 1.4057053659053627e-19 2.3348447573276203e-11 2.296021877130681e-11 3.88228801969389e-13
6.269149208991335 1.3855594722897644e-19 2.3057021851779602e-11 2.266820563766855e-11 3.888162141110541e-13
6.280915325867298 1.3389254433390684e-19 2.23228050325592e-11 2.1934945257537143e-11 3.878597750220567e-13
6.304513850009849 1.2255498731281414e-19 2.050935609087438e-11 2.012480446793361e-11 3.8455162294077763e-13
6.32820103803542 1.0873646714394163e-19 1.8265220494990044e-11 1.7885461409320603e-11 3.797590856694449e-13
6.3519772230701035 9.612649287854303e-20 1.6207702737997928e-11 1.583226236172933e-11 3.754403762686029e-13
6.375842739491607 8.549323466637415e-20 1.4469008732385104e-11 1.4097400253212933e-11 3.716084791721752e-13
6.399797922933955 7.703225280682898e-20 1.3086041496952553e-11 1.2716507358851932e-11 3.695341381006211e-13
6.42384311029221 6.996763123274436e-20 1.1930579244017771e-11 1.1562768553822263e-11 3.6781069019550663e-13
6.447978639727206 6.48196195252483e-20 1.1094289660246794e-11 1.0726834054282365e-11 3.674556059644244e-13
6.472204850670314 6.050808639963558e-20 1.0395254013458629e-11 1.0027882731469454e-11 3.673712819891785e-13
6.496522083828205 5.767580778300416e-20 9.94589884530064e-12 9.577505146751768e-12 3.6839369854886573e-13
6.520930681187647 5.527087582159484e-20 9.566990949288825e-12 9.197409265808577e-12 3.6958168348025063e-13
6.57002334288761 5.267642636619185e-20 9.186554372691869e-12 8.813071534921616e-12 3.7348283777025326e-13
