Dust emission spectrum from A.P. Jones, M. Kohler, N. Ysard, M. Bocchio, and L. Verstraete (2017), A&A, 602A, 46J 
inside the DustPedia framework.

lambda    nu*dP/dnu     j_nu    j_nu(carb.) j_nu(sil)
 (um)   (erg s-1 H-1) (Jy cm2 sr-1 H-1)
0.9927057738263894 9.880136494251793e-25 2.6034720842903096e-17 2.6034720842576695e-17 3.26395634495171e-28
1.0001793341362166 1.0042475788940846e-24 2.6661716322653156e-17 2.6661716322259937e-17 3.9322372770504502e-28
1.0077091589558085 1.0204559589888983e-24 2.7295993431876998e-17 2.7295993431403866e-17 4.731287413817306e-28
1.0114953028030835 1.02854857115856e-24 2.761583050940975e-17 2.761583050889102e-17 5.187284366876286e-28
1.0152956718711033 1.036632406383839e-24 2.7937449095920475e-17 2.7937449095351947e-17 5.685400919271197e-28
1.0229392996569957 1.0527626149886152e-24 2.858576051886525e-17 2.858576051818292e-17 6.82321326502201e-28
1.0267826658714554 1.0607893317597102e-24 2.891193140216372e-17 2.891193140141657e-17 7.471503047117572e-28
1.0306404723013447 1.0688037230422222e-24 2.923981252773421e-17 2.9239812526916327e-17 8.178748890367232e-28
1.03451277320114 1.076805015884719e-24 2.956938965021301e-17 2.9569389649318e-17 8.950051757304892e-28
1.0383996230291617 1.0847924417875908e-24 2.990064835150108e-17 2.990064835052198e-17 9.79092964524164e-28
1.0403485208654093 1.0887807157342168e-24 3.0066903742159786e-17 3.006690374113585e-17 1.0239305446631997e-27
1.0423010764483396 1.0927652368506232e-24 3.023357404421639e-17 3.023357404314565e-17 1.0707349538967236e-27
1.0462171883269815 1.1007226419172969e-24 3.056815197515081e-17 3.056815197398023e-17 1.1705761633591233e-27
1.0471985131304309 1.1027094999964929e-24 3.0652052875705455e-17 3.0652052874508556e-17 1.1968980769447562e-27
1.048180758391296 1.104695337297458e-24 3.073605587508105e-17 3.073605587385727e-17 1.2237871534935498e-27
1.0501480137395462 1.1086639027157839e-24 3.0904367228730034e-17 3.090436722745072e-17 1.2793135974912034e-27
1.0521189612883777 1.1126282446741243e-24 3.1073084146849283e-17 3.107308414551202e-17 1.3372513868942564e-27
1.0531058218030118 1.1146057400117228e-24 3.115750848492611e-17 3.115750848355895e-17 1.3671574514532017e-27
1.0540936079674168 1.1165721103121673e-24 3.124175258156336e-17 3.124175258016564e-17 1.3977105522443876e-27
1.058054026499678 1.1244260399933795e-24 3.157971250531742e-17 3.157971250379082e-17 1.5265971647924287e-27
1.0590464539527713 1.1263865771916077e-24 3.16644471583204e-17 3.1664447156759835e-17 1.5605559696198429e-27
1.06003981227728 1.128345913439713e-24 3.1749279193266845e-17 3.17492791916716e-17 1.5952380041436139e-27
1.0620293250338977 1.1322609375373008e-24 3.1919234430733244e-17 3.191923442906641e-17 1.6668306938313524e-27
1.0660195594769086 1.1400760745361571e-24 3.2260302697158096e-17 3.226030269533874e-17 1.819359103033049e-27
1.070024785945596 1.1478707282629843e-24 3.260290150310546e-17 3.2602901501120247e-17 1.9852049787942856e-27
1.0740450607676866 1.155644181790691e-24 3.294701490972959e-17 3.2947014907564113e-17 2.165471016860731e-27
1.07808044048254 1.16339572410781e-24 3.3292626844293666e-17 3.3292626841932315e-17 2.3613458814067955e-27
1.0861967418109137 1.1788164778076795e-24 3.398788394864997e-17 3.3987883945844825e-17 2.8051449163733897e-27
1.0902777775684922 1.1864529562000807e-24 3.433658630729375e-17 3.433658630423781e-17 3.0559356566332892e-27
1.0943741465085532 1.1940641963336231e-24 3.468669600094804e-17 3.468669599761996e-17 3.328081317043295e-27
1.1026131145906286 1.2092082653367659e-24 3.53910700569892e-17 3.539107005304574e-17 3.943452246014741e-27
1.1109141095355224 1.2242433589146635e-24 3.6100870366023024e-17 3.610087036135638e-17 4.6666463330419716e-27
1.1192775983109025 1.239150209334486e-24 3.6815542065241827e-17 3.681554205972638e-17 5.5154460131859334e-27
1.1277040513999907 1.2538591764335914e-24 3.753300498056955e-17 3.753300497405917e-17 6.510372369847935e-27
1.1361939428280308 1.2684418674365069e-24 3.825537566562406e-17 3.825537565794899e-17 7.675071896696459e-27
1.1447477501889525 1.2828934462993282e-24 3.898251173069818e-17 3.898251172166142e-17 9.036759386704615e-27
1.1533659546722406 1.2972171310193351e-24 3.9714512511272246e-17 3.97145125006455e-17 1.062672938413992e-26
1.1707974979042381 1.325527713527052e-24 4.119457540168672e-17 4.119457538704614e-17 1.464058433130581e-26
1.1884924949847024 1.3532660228320932e-24 4.269225104490959e-17 4.269225102483845e-17 2.0071140347419162e-26
1.2064549276569216 1.3806511543507479e-24 4.421447728046194e-17 4.421447725307963e-17 2.7382313641283037e-26
1.2246888378427687 1.407382183423672e-24 4.5751700593975715e-17 4.575170055679936e-17 3.717635789762915e-26
1.2431983285522175 1.4333967508751263e-24 4.730164738975717e-17 4.730164733952473e-17 5.023245581813366e-26
1.2619875648066055 1.458685617719977e-24 4.886368430534208e-17 4.8863684237788557e-17 6.755354028467525e-26
1.3004222497298317 1.5066652687928846e-24 5.200805373025198e-17 5.20080536097758e-17 1.2047619010175145e-25
1.3400274889804893 1.5511374905448548e-24 5.5173868474198196e-17 5.517386826322585e-17 2.109723440909195e-25
1.3808389325824078 1.5919419889664895e-24 5.83498433289911e-17 5.834984296606295e-17 3.62928171013798e-25
1.4228933163050095 1.6292857241428586e-24 6.153738322597961e-17 6.153738261236011e-17 6.136195030700491e-25
1.466228494730424 1.6640827621096374e-24 6.476584113910054e-17 6.476584011892035e-17 1.0201802009190356e-24
1.5108834753276823 1.6956560741224146e-24 6.800458181049837e-17 6.800458014192662e-17 1.668571753595918e-24
1.5568984535646726 1.72346013195421e-24 7.122475464115164e-17 7.122475195362149e-17 2.6875301573311728e-24
1.6043148490894465 1.7475539059184576e-24 7.441999171998527e-17 7.44199874493321e-17 4.270653133907869e-24
1.6531753430134553 1.768019288281166e-24 7.75845688259228e-17 7.758456213824182e-17 6.68768097146368e-24
1.7035239163302658 1.7851099724711038e-24 8.072027715106544e-17 8.072026682812377e-17 1.0322941643029092e-23
1.755405889504358 1.800253747287331e-24 8.388430443920609e-17 8.388428872482795e-17 1.5714378136705843e-23
1.8088679632656115 1.8131077485564036e-24 8.705624164340389e-17 8.705621804335718e-17 2.360004673296201e-23
1.8639582606462262 1.8234427307885555e-24 9.021894494331798e-17 9.021890996289052e-17 3.498042744468705e-23
1.9207263702978936 1.831438822450035e-24 9.337429763862278e-17 9.337424644680306e-17 5.119181970984997e-23
1.979223391128241 1.8375048336120935e-24 9.653676431231267e-17 9.653669031608292e-17 7.399622973764908e-23
2.039501978296691 1.842128000028609e-24 9.972714077109501e-17 9.972703508677265e-17 1.0568432237007709e-22
2.1016163906111602 1.8466584766746385e-24 1.0301713410790566e-16 1.0301698490186092e-16 1.4920604473522324e-22
2.1656225393682647 1.8518822567674276e-24 1.064548779910879e-16 1.0645466969042454e-16 2.083006633385271e-22
2.231578038680979 1.857862077194912e-24 1.1005125051576478e-16 1.1005096286691484e-16 2.8764884995598835e-22
2.299542257339062 1.8650710335670325e-24 1.1384296674235227e-16 1.1384257369959879e-16 3.93042753419e-22
2.369576372248914 1.874545925005993e-24 1.1790608756097435e-16 1.1790555598223723e-16 5.315787371304165e-22
2.4417434235010123 1.887509832918088e-24 1.2233724116784998e-16 1.223365293281599e-16 7.118396901093901e-22
2.5161083711144245 1.906052493505564e-24 1.2730153277616552e-16 1.2730058865100904e-16 9.44125156508197e-22
2.5927381535095444 1.9335899608105335e-24 1.3307377414281866e-16 1.330725334836623e-16 1.2406591563742117e-21
2.6717017477616296 1.9741983745370184e-24 1.4000649958883531e-16 1.4000488385899306e-16 1.6157298422452814e-21
2.753070231689431 2.034010255053548e-24 1.4864142555141624e-16 1.4863933966132454e-16 2.085890091695424e-21
2.836916847834745 2.1269148133808357e-24 1.6016445325421585e-16 1.601617830300857e-16 2.670224130114301e-21
2.9233170693905177 2.2834953715474104e-24 1.7719256345948874e-16 1.7718917348640906e-16 3.389973079678937e-21
2.967498994190263 2.4158524689833425e-24 1.9029633442405805e-16 1.9029253225240387e-16 3.8021716541655565e-21
3.0123486681368425 2.5703073327078268e-24 2.0552266684455381e-16 2.0551840797752346e-16 4.2588670303335356e-21
3.0578761833420214 2.914599361238406e-24 2.365746437768194e-16 2.365698783661222e-16 4.76541069725604e-21
3.1040917844459814 3.358035060338649e-24 2.766872924797575e-16 2.766819700072908e-16 5.322472466668303e-21
3.127460860933648 3.8264650039268284e-24 3.176574623249121e-16 3.176518392597883e-16 5.623065123823783e-21
3.1510058709225794 4.45043552993447e-24 3.7223838862674907e-16 3.722324505151681e-16 5.9381115808613345e-21
3.162844764501044 5.030961092446195e-24 4.223750620287319e-16 4.2236896021281454e-16 6.1018159173140465e-21
3.1747281389236908 5.706045815984255e-24 4.808517808809477e-16 4.808455115632466e-16 6.26931770088128e-21
3.1986289994194426 7.588913399528359e-24 6.443367471749111e-16 6.443301303560313e-16 6.616818879810243e-21
3.2227097969389145 1.2026378023413323e-23 1.028787036583345e-15 1.0287800496928003e-15 6.986890544755295e-21
3.2348180950136065 1.6234222834872274e-23 1.3939615663568561e-15 1.393954381482313e-15 7.184874543162821e-21
3.240889293275058 1.9380036968101446e-23 1.6672020293787267e-15 1.6671947400513672e-15 7.289327359252807e-21
3.2469718861334385 2.3019251780228816e-23 1.9839885642176957e-15 1.983981166793723e-15 7.39742397227615e-21
3.2714166318528037 4.2430491089852063e-23 3.6845406193497084e-15 3.684532773692754e-15 7.845656953989802e-21
3.2744851364798273 4.364388651170584e-23 3.79346319035448e-15 3.793455291463467e-15 7.898891013576921e-21
3.2775565192852394 4.48921243762632e-23 3.905618147951775e-15 3.905610195520542e-15 7.95243123366081e-21
3.283707930232385 4.369155905500258e-23 3.808303017476384e-15 3.808294968481192e-15 8.048995191563936e-21
3.2898708863219004 3.9884450107730096e-23 3.4829873396873558e-15 3.4829792020566253e-15 8.137630730273422e-21
3.29141343181113 3.8986640581111403e-23 3.406180704990827e-15 3.4061725450819538e-15 8.159908874373978e-21
3.292184975758714 3.854548900548599e-23 3.3684276325167813e-15 3.3684194614509003e-15 8.171065881017022e-21
3.295272960557952 3.5760979899688966e-23 3.1280251653669932e-15 3.1280169507604714e-15 8.214606521731501e-21
3.3076538914384823 2.6114627425875657e-23 2.2928377659587796e-15 2.292829376061291e-15 8.38989748923874e-21
3.310756385682612 2.4151344379294783e-23 2.1224524485918245e-15 2.122444014424377e-15 8.434167447244326e-21
3.313861789986515 2.2339905321484073e-23 1.9651022493122244e-15 1.965093770695046e-15 8.478617178215213e-21
3.3200813396944477 1.9799606746323295e-23 1.744916789087294e-15 1.7449082152022226e-15 8.573885071216987e-21
3.345076488085796 1.526839624602332e-23 1.3557165820831366e-15 1.3557075844151915e-15 8.997667945207872e-21
3.3482140837626964 1.5438379249007378e-23 1.3720955544301239e-15 1.3720864993748528e-15 9.055055271168856e-21
3.3513546224236106 1.5610240095585425e-23 1.388671111192421e-15 1.3886619984453873e-15 9.112747033137023e-21
3.3576445397418455 1.6865940194642305e-23 1.5031928671144708e-15 1.5031836338716136e-15 9.233242857171607e-21
3.3702598118196083 2.1497178134650574e-23 1.9231549186734645e-15 1.923145432559806e-15 9.486113659038041e-21
3.382922481734668 2.2552055941731404e-23 2.025105342693983e-15 2.025095609281907e-15 9.733412075106378e-21
3.389271646505754 2.3098541085090066e-23 2.0780709058414634e-15 2.078061046771154e-15 9.859070309227266e-21
3.395632727569191 2.36874087739665e-23 2.1350482716690752e-15 2.1350382830773665e-15 9.988591709553947e-21
3.421196662673239 2.65148317564236e-23 2.407888366690302e-15 2.40787784014264e-15 1.0526547662575602e-20
3.4276182099114902 2.594515422907381e-23 2.3605767817661913e-15 2.3605661335116395e-15 1.0648254551633082e-20
3.4340518103208963 2.3448676521574133e-23 2.137443342921011e-15 2.1374325787520974e-15 1.0764168913318422e-20
3.4469541582030403 1.9893255887129765e-23 1.8201652123568078e-15 1.820154224056607e-15 1.0988300200728645e-20
3.472904465399547 1.8897185711734342e-23 1.7420451260932692e-15 1.742033623603582e-15 1.1502489687475539e-20
3.4990501388274233 1.7373606660282303e-23 1.6136508962601096e-15 1.6136388635881588e-15 1.2032671950758171e-20
3.5253949054701885 1.1950658716845202e-23 1.118327616650744e-15 1.1183150626759123e-15 1.2553974831915539e-20
3.5519380250092896 6.853910648606086e-24 6.462093700158391e-16 6.461962869120002e-16 1.3083103838990252e-20
3.578680990867387 4.833537752174184e-24 4.591531144228176e-16 4.591394502335867e-16 1.366418923097651e-20
3.605625307711299 4.016797152644451e-24 3.8444120241965104e-16 3.8442692281833484e-16 1.427960131618735e-20
3.660119384959845 3.421895623582725e-24 3.324539082107959e-16 3.3243832079170025e-16 1.5587419095570162e-20
3.715437065384467 3.001094205002188e-24 2.959776860936667e-16 2.9596069784457474e-16 1.698824909200422e-20
3.8285932144167436 2.7897280125890477e-24 2.8351139681119884e-16 2.8349131867414487e-16 2.007813705405053e-20
3.94519561050918 2.751612803792831e-24 2.8815442685224565e-16 2.88130855704174e-16 2.35711480716126e-20
4.06534921144712 2.784718148441097e-24 3.0050280862297263e-16 3.0047530961348203e-16 2.749900949065323e-20
4.189162171576248 2.8591194992125735e-24 3.1792809928295706e-16 3.1789619172136697e-16 3.190756159001856e-20
4.316745939156006 2.9636507052787675e-24 3.3958847191061455e-16 3.395516445641226e-16 3.682734649191362e-20
4.448215356677963 3.0945480870159825e-24 3.6538648021590004e-16 3.6534423281881687e-16 4.224739708308838e-20
4.58368876423945 3.2522359746297845e-24 3.957005041241156e-16 3.9565227826523276e-16 4.822585888301837e-20
4.723288106065518 3.44023930026109e-24 4.3132290628880554e-16 4.312680518585159e-16 5.485443028969156e-20
4.867139040275056 3.6656373833822424e-24 4.735792735182134e-16 4.735172115208854e-16 6.206199732785804e-20
4.940699165968905 3.801285154624247e-24 4.985265512743993e-16 4.98460629877375e-16 6.592139702424924e-20
5.015371051989984 3.941674246385016e-24 5.247509479669183e-16 5.246809943322771e-16 6.995363464127914e-20
5.091171501069577 4.112657127833426e-24 5.557886375135282e-16 5.557144020305369e-16 7.423548299135366e-20
5.129500256944802 4.200374169277455e-24 5.719162915930155e-16 5.71839845515833e-16 7.644607718246266e-20
5.168117569889187 4.291783177793776e-24 5.887617548876023e-16 5.886830367299303e-16 7.871815767188771e-20
5.20702561229733 4.403839889102225e-24 6.086822927600401e-16 6.086011291194285e-16 8.116364061165183e-20
5.246226572918644 4.51872037783619e-24 6.292626336319182e-16 6.291789674693037e-16 8.366616261451438e-20
5.265937586045735 4.577247526362997e-24 6.398078128681226e-16 6.397228737712507e-16 8.493909687195002e-20
5.285722656980489 4.636514694717971e-24 6.505271780785614e-16 6.504409514454707e-16 8.62266330907197e-20
5.305582063971359 4.6965337622901466e-24 6.614239524043799e-16 6.613364235170552e-16 8.752888732472754e-20
5.3255160863122235 4.7609966471265435e-24 6.730216105565363e-16 6.729327579220766e-16 8.885263445957881e-20
5.365609099470188 4.921458494536472e-24 7.009423329463347e-16 7.008507355153334e-16 9.15974310012652e-20
5.406003951863644 5.0879772324984556e-24 7.30114462335935e-16 7.300200552063887e-16 9.440712954623233e-20
5.446702915881641 5.260845257953929e-24 7.606040762474376e-16 7.605067933952185e-16 9.72828522191605e-20
5.487708281020852 5.447580612755038e-24 7.935313982419441e-16 7.934311642837822e-16 1.0023395816199104e-19
5.529022354014368 5.7070686261474426e-24 8.375888236842222e-16 8.374854972782541e-16 1.0332640596827237e-19
5.570647458961463 5.981772777828417e-24 8.845146284804118e-16 8.844081350483166e-16 1.0649343209494337e-19
5.612585937458331 6.2727884621495265e-24 9.345296370711075e-16 9.3441990063496e-16 1.097364361474459e-19
5.654840148729818 6.5926131826943626e-24 9.895719133397695e-16 9.894588457325117e-16 1.13067607258088e-19
5.67608639626678 6.81046274713149e-24 1.0261126745033613e-15 1.0259978646826897e-15 1.1480982067211394e-19
5.686739436050992 6.922741813498413e-24 1.0449870230688377e-15 1.0448713340928809e-15 1.1568897595670212e-19
5.6974124697621304 7.037328415164101e-24 1.064277580902339e-15 1.0641610073694091e-15 1.1657353292948348e-19
5.718818669136295 7.273646496748429e-24 1.1041496766233498e-15 1.1040313176625555e-15 1.1835896079421014e-19
5.740305295436557 7.5341379042619e-24 1.1479896935018622e-15 1.147869517435402e-15 1.201760664603558e-19
5.7835210386641895 8.210000925622853e-24 1.2603900292618906e-15 1.2602660750397357e-15 1.2395422215493413e-19
5.827062130521658 8.988431326864688e-24 1.3902822768968056e-15 1.390154424621473e-15 1.2785227533222424e-19
5.8489554468988025 9.534683937232725e-24 1.4803146855023395e-15 1.4801847437706357e-15 1.2994173170375445e-19
5.870931020387893 1.0120781192180239e-23 1.5772133573678802e-15 1.5770812976669389e-15 1.3205970094107485e-19
5.892989160043636 1.0749928255959092e-23 1.6815533133370267e-15 1.6814191068140456e-15 1.3420652298126478e-19
5.915130176081913 1.1465444478776037e-23 1.8002160748734653e-15 1.8000796450028994e-15 1.364298705661912e-19
5.95966208400165 1.3466410171101628e-23 2.1303104963034136e-15 2.1301691134191616e-15 1.4138288425242108e-19
6.004529249263818 1.6350555846566434e-23 2.6060390500641886e-15 2.6058921433660157e-15 1.4690669817299918e-19
6.027089341400364 1.8355582437102383e-23 2.9366029573057417e-15 2.9364529163110987e-15 1.500409946432812e-19
6.049734195844842 2.072478024743613e-23 3.3280945887304376e-15 3.327941235296792e-15 1.5335343364547614e-19
6.095279466722835 2.7568927692347984e-23 4.460493697430784e-15 4.460332410528593e-15 1.6128690219209067e-19
6.141167624020661 3.810173272812926e-23 6.211051223856989e-15 6.210879895710818e-15 1.7132814617152733e-19
6.164241091010745 4.482869034542068e-23 7.335084149300355e-15 7.334906646934154e-15 1.7750236620028098e-19
6.187401249150058 5.249079234083959e-23 8.621063463520435e-15 8.62087957823614e-15 1.8388528429411115e-19
6.1990139391386085 5.623223631213931e-23 9.252890045527512e-15 9.252702902787184e-15 1.871427403330671e-19
6.204828454712694 5.820300832225737e-23 9.586159363426683e-15 9.585970570861122e-15 1.8879256556210598e-19
6.210648424152782 5.964180465831544e-23 9.83234602788032e-15 9.832155796882989e-15 1.90230997332043e-19
6.233982942956859 6.453011320972197e-23 1.0678185712212507e-14 1.0677990323453736e-14 1.953887587716572e-19
6.239830258556775 6.515505459689034e-23 1.0791711381963188e-14 1.0791515172130987e-14 1.9620983220120382e-19
6.245683058788269 6.52093873649195e-23 1.081084137341044e-14 1.0810644339451596e-14 1.9703395884610767e-19
6.257405133728602 6.50754218524026e-23 1.0808880098789822e-14 1.0808681559634432e-14 1.9853915539416345e-19
6.269149208991335 6.411443899906065e-23 1.0669249863182886e-14 1.0669050471538153e-14 1.9939164473387426e-19
6.280915325867298 6.170403382885874e-23 1.0287407142320153e-14 1.0287207710382983e-14 1.9943193717088003e-19
6.304513850009849 5.575952733188624e-23 9.33125633304134e-15 9.331057559135764e-15 1.9877390557550443e-19
6.32820103803542 4.839112536479724e-23 8.128593819575582e-15 8.1283964897056e-15 1.9732986998068534e-19
6.3519772230701035 4.1633593369652786e-23 7.019759954236683e-15 7.019563817463956e-15 1.9613677272666844e-19
6.375842739491607 3.5948003205423813e-23 6.0838962792884135e-15 6.083701081954394e-15 1.951973340193587e-19
6.399797922933955 3.139162177718428e-23 5.332728178974612e-15 5.332532961121972e-15 1.9521785263925752e-19
6.42384311029221 2.760292478213962e-23 4.706731894131349e-15 4.706536461882249e-15 1.9543224910148626e-19
6.447978639727206 2.4842206158268277e-23 4.251901398650477e-15 4.251704989013746e-15 1.9640963673065307e-19
6.472204850670314 2.25421381558885e-23 3.87272621033261e-15 3.872528661753398e-15 1.9754857921070382e-19
6.496522083828205 2.104742485884407e-23 3.629521053050876e-15 3.62932173405288e-15 1.9931899799568263e-19
6.520930681187647 1.9788173921096195e-23 3.4251905364617733e-15 3.4249893339532066e-15 2.0120250856696173e-19
6.57002334288761 1.8500191195532893e-23 3.2263580513509458e-15 3.226152154005753e-15 2.0589734519274715e-19
