Dust emission spectrum from A.P. Jones, M. Kohler, N. Ysard, M. Bocchio, and L. Verstraete (2017), A&A, 602A, 46J 
inside the DustPedia framework.

lambda    nu*dP/dnu     j_nu    j_nu(carb.) j_nu(sil)
 (um)   (erg s-1 H-1) (Jy cm2 sr-1 H-1)
0.9927057738263894 7.046938725292075e-20 1.8569083799273573e-12 1.8569083190860135e-12 6.08413437994383e-20
1.0001793341362166 7.165099764200183e-20 1.9022585799707686e-12 1.9022585067722185e-12 7.319854932385051e-20
1.0077091589558085 7.283771171070728e-20 1.948322887367299e-12 1.9483227994198676e-12 8.794743067688307e-20
1.0114953028030835 7.343293600794971e-20 1.971624453592528e-12 1.9716243572396613e-12 9.635286676088673e-20
1.0152956718711033 7.402938127368653e-20 1.995106518182981e-12 1.995106412656819e-12 1.0552616234165343e-19
1.0229392996569957 7.522528300074283e-20 2.0425990571923512e-12 2.042598930742326e-12 1.2645002498817717e-19
1.0267826658714554 7.582338419228416e-20 2.066574782394023e-12 2.066574644038899e-12 1.3835512409572483e-19
1.0306404723013447 7.64226103312508e-20 2.0907326114147352e-12 2.090732460084482e-12 1.5133025336907933e-19
1.03451277320114 7.702294633475971e-20 2.1150732756465754e-12 2.115073110179914e-12 1.6546666185722015e-19
1.0383996230291617 7.762437771404296e-20 2.1395975231049463e-12 2.1395973422420176e-12 1.8086292848136735e-19
1.0403485208654093 7.79254998077768e-20 2.1519287290096184e-12 2.1519285399431656e-12 1.8906645327067368e-19
1.0423010764483396 7.822689058851196e-20 2.1643061191009383e-12 2.1643059214754264e-12 1.9762551170734134e-19
1.0462171883269815 7.883047169970037e-20 2.1891998469223097e-12 2.189199631052972e-12 2.158693372439576e-19
1.0471985131304309 7.898153239611289e-20 2.195452299284259e-12 2.1954520786081965e-12 2.206760622097737e-19
1.048180758391296 7.913265887430731e-20 2.2017163851299203e-12 2.201716159544821e-12 2.2558509912961897e-19
1.0501480137395462 7.943510842507674e-20 2.2142795085228755e-12 2.214279272804449e-12 2.3571842615332343e-19
1.0521189612883777 7.973781887580048e-20 2.2268893203764247e-12 2.2268890740900725e-12 2.462863521813751e-19
1.0531058218030118 7.988907284618678e-20 2.2332062142724705e-12 2.23320596253331e-12 2.5173916020247545e-19
1.0540936079674168 8.003974074562644e-20 2.2395166008295093e-12 2.239516343520956e-12 2.573085539317753e-19
1.058054026499678 8.064302977607646e-20 2.264874349495892e-12 2.2648740687086324e-12 2.8078725989912015e-19
1.0590464539527713 8.07940055755754e-20 2.271242903688884e-12 2.271242616719507e-12 2.8696937643514066e-19
1.06003981227728 8.094504247478137e-20 2.2776231315521917e-12 2.277622838270698e-12 2.9328149357764435e-19
1.0620293250338977 8.124729896004576e-20 2.290418662689346e-12 2.290418356383186e-12 3.063061602171145e-19
1.0660195594769086 8.185253854655863e-20 2.3161504122583326e-12 2.316150078225312e-12 3.34033020334214e-19
1.070024785945596 8.245873949397962e-20 2.342070492433117e-12 2.342070128284556e-12 3.641485616703503e-19
1.0740450607676866 8.306589348278634e-20 2.368179820562669e-12 2.3681794237152776e-12 3.968473922373455e-19
1.07808044048254 8.367399292815043e-20 2.394479337858414e-12 2.394478905519416e-12 4.32338998621443e-19
1.0861967418109137 8.489207889170703e-20 2.447626224988777e-12 2.447625712369432e-12 5.126193438788552e-19
1.0902777775684922 8.549995636971288e-20 2.474414696189112e-12 2.47441413827766e-12 5.579114508665069e-19
1.0943741465085532 8.610872070492396e-20 2.501395676458014e-12 2.5013950694527235e-12 6.070052907467998e-19
1.1026131145906286 8.732889653452554e-20 2.555939438928828e-12 2.55593872110362e-12 7.178252078672966e-19
1.1109141095355224 8.855258773658787e-20 2.611266352540022e-12 2.611265504774176e-12 8.477658464196629e-19
1.1192775983109025 8.977884059187575e-20 2.6673575628526946e-12 2.6673565629298876e-12 9.99922806929631e-19
1.1277040513999907 9.100330456553257e-20 2.7240917861459096e-12 2.724090608288181e-12 1.1778577288554092e-18
1.1361939428280308 9.223116900569096e-20 2.78163162930207e-12 2.7816302436391704e-12 1.3856628998363208e-18
1.1447477501889525 9.34624717681327e-20 2.8399879293102196e-12 2.8399863012764267e-12 1.6280337930160099e-18
1.1533659546722406 9.469768850547932e-20 2.8991850670243446e-12 2.8991831566709515e-12 1.9103533935500258e-18
1.1707974979042381 9.718360871690804e-20 3.020259370091987e-12 3.0202567497126634e-12 2.6203793243768965e-18
1.1884924949847024 9.968598837829744e-20 3.144850435688694e-12 3.1448468594588294e-12 3.576229864066551e-18
1.2064549276569216 1.0222161065238168e-19 3.273582227863589e-12 3.2735773712974103e-12 4.856566178985332e-18
1.2246888378427687 1.0477473636478827e-19 3.4060558847727586e-12 3.4060493219227957e-12 6.562849964399786e-18
1.2431983285522175 1.0734352105796014e-19 3.5423028408280134e-12 3.5422940153416846e-12 8.825486328673145e-18
1.2619875648066055 1.0993199003670917e-19 3.6825495438887424e-12 3.682537732659333e-12 1.1811229408182052e-17
1.3004222497298317 1.1515346690803397e-19 3.974942422994882e-12 3.974921567015145e-12 2.0855979737352374e-17
1.3400274889804893 1.2045632734170763e-19 4.284624414114214e-12 4.284588264216512e-12 3.614989770252101e-17
1.3808389325824078 1.2586100360105445e-19 4.613214484102475e-12 4.6131529480081055e-12 6.153609436827476e-17
1.4228933163050095 1.3141218373840207e-19 4.963378609069452e-12 4.963275685372946e-12 1.0292369650535597e-16
1.466228494730424 1.3720272546065192e-19 5.339908641184973e-12 5.339739409589968e-12 1.6923159500393634e-16
1.5108834753276823 1.432210650180396e-19 5.7439057257213825e-12 5.7436320601875506e-12 2.7366553383141334e-16
1.5568984535646726 1.4946052391072853e-19 6.176695907673276e-12 6.176260203119134e-12 4.3570455414249787e-16
1.6043148490894465 1.559525507617978e-19 6.641275841104224e-12 6.64059159173765e-12 6.842493665728164e-16
1.6531753430134553 1.6272899182499995e-19 7.140905503634957e-12 7.1398468183470375e-12 1.0586852879198212e-15
1.7035239163302658 1.698255532280114e-19 7.679283593336149e-12 7.677669419791054e-12 1.6141735450974244e-15
1.755405889504358 1.7735714893633112e-19 8.264102267951164e-12 8.26167576498365e-12 2.4265029675152417e-15
1.8088679632656115 1.8531082235048268e-19 8.89768616483283e-12 8.894088578369585e-12 3.597586463243948e-15
1.8639582606462262 1.9366683342050587e-19 9.582103724286054e-12 9.576840973289228e-12 5.262750996826237e-15
1.9207263702978936 2.024290364685617e-19 1.0320666390935798e-11 1.0313067550777564e-11 7.598840158233828e-15
1.979223391128241 2.1160973549892527e-19 1.111731451715084e-11 1.1106480724578493e-11 1.0833792572347589e-14
2.039501978296691 2.212124948875932e-19 1.1975763691577092e-11 1.1960506839366766e-11 1.5256852210327235e-14
2.1016163906111602 2.313029780178909e-19 1.2903398331095568e-11 1.2882166989290742e-11 2.123134180482658e-14
2.1656225393682647 2.418927355689017e-19 1.3905128988528273e-11 1.387592348231565e-11 2.9205506212625666e-14
2.231578038680979 2.529169724510357e-19 1.4981644459271454e-11 1.49419198855627e-11 3.972457370875841e-14
2.299542257339062 2.6434388505157154e-19 1.6135413382574882e-11 1.6081970378633057e-11 5.3443003941820214e-14
2.369576372248914 2.7616262356644056e-19 1.7370208988178854e-11 1.7299071794467436e-11 7.113719371141936e-14
2.4417434235010123 2.8836800391103603e-19 1.8690311130732468e-11 1.8596597210328296e-11 9.37139204041724e-14
2.5161083711144245 3.0100207041464106e-19 2.0103341887562374e-11 1.9981119859401632e-11 1.222220281607475e-13
2.5927381535095444 3.14168304473747e-19 2.1621730997634344e-11 2.1463873560270143e-11 1.5785743736420594e-13
2.6717017477616296 3.2794400265381894e-19 2.32571824923524e-11 2.3055225655728676e-11 2.019568366237265e-13
2.753070231689431 3.4246776076778896e-19 2.5026863084613793e-11 2.4770867997886698e-11 2.5599508672709803e-13
2.836916847834745 3.5821258935023636e-19 2.6974716223288918e-11 2.6653128034081543e-11 3.21588189207375e-13
2.9233170693905177 3.7627389134646288e-19 2.919775367242193e-11 2.879735952009661e-11 4.0039415232531855e-13
2.967498994190263 3.8725345172337923e-19 3.050389595480349e-11 3.005951283196776e-11 4.4438312283572515e-13
3.0123486681368425 3.989482086781253e-19 3.190003729787679e-11 3.140746469416973e-11 4.92572603707054e-13
3.0578761833420214 4.181708428387361e-19 3.394244145459217e-11 3.339698458244031e-11 5.454568721518591e-13
3.1040917844459814 4.405902596440633e-19 3.630269602413721e-11 3.569988605663625e-11 6.028099675009702e-13
3.127460860933648 4.614049789285721e-19 3.8303952750153663e-11 3.767051209186706e-11 6.334406582866042e-13
3.1510058709225794 4.87807958365411e-19 4.0800691788454804e-11 4.013537932440415e-11 6.653124640506464e-13
3.162844764501044 5.117258812279537e-19 4.296201995079851e-11 4.228023534371747e-11 6.817846070810365e-13
3.1747281389236908 5.3873924134763095e-19 4.5399867436531256e-11 4.470129090231821e-11 6.985765342130463e-13
3.1986289994194426 6.117654038804521e-19 5.194194604921623e-11 5.120872377518972e-11 7.332222740265161e-13
3.2227097969389145 7.808491551278048e-19 6.679712601405013e-11 6.602724893393741e-11 7.69877080112734e-13
3.2348180950136065 9.394012353257802e-19 8.066226703623984e-11 7.987284303146123e-11 7.894240047786055e-13
3.240889293275058 1.0578511996699446e-18 9.100352438818011e-11 9.020378976435497e-11 7.997346238251353e-13
3.2469718861334385 1.1951420545869242e-18 1.0300717814610605e-10 1.0219677510781529e-10 8.104030382907488e-13
3.2714166318528037 1.914301776637443e-18 1.6623240675620858e-10 1.6537796308388575e-10 8.544436723228577e-13
3.2744851364798273 1.959180004558416e-18 1.702890788284288e-10 1.6942945833284552e-10 8.596204955832716e-13
3.2775565192852394 2.0052483564522088e-18 1.7445675563198034e-10 1.7359193364305925e-10 8.648219889211143e-13
3.283707930232385 1.960732897964324e-18 1.7090406415533459e-10 1.7002996714579158e-10 8.740970095430381e-13
3.2898708863219004 1.8196291663293124e-18 1.5890266337212253e-10 1.5802015031281738e-10 8.82513059305154e-13
3.29141343181113 1.7862762049095314e-18 1.5606319119208498e-10 1.5517856544127226e-10 8.846257508127052e-13
3.292184975758714 1.7698761791811587e-18 1.546666025494847e-10 1.5378091915006455e-10 8.856833994201691e-13
3.295272960557952 1.6677770619908375e-18 1.4588103107808138e-10 1.449912383012963e-10 8.897927767850222e-13
3.3076538914384823 1.3111896299438732e-18 1.151211178640058e-10 1.142148320743192e-10 9.062857896866128e-13
3.310756385682612 1.2377954336665696e-18 1.0877911837047403e-10 1.0786867788512091e-10 9.104404853531177e-13
3.313861789986515 1.1697572833963292e-18 1.0289625831765957e-10 1.0198165055059621e-10 9.146077670633551e-13
3.3200813396944477 1.0747508682073639e-18 9.471656978083261e-11 9.379298701285956e-11 9.235827679730393e-13
3.345076488085796 9.090011095577926e-19 8.071233268395404e-11 7.974872212864223e-11 9.63610555311791e-13
3.3482140837626964 9.157253893774904e-19 8.138566332501734e-11 8.04166289863077e-11 9.690343387096467e-13
3.3513546224236106 9.22509209840216e-19 8.206548276450529e-11 8.109100152909265e-11 9.744812354126392e-13
3.3576445397418455 9.701528058950068e-19 8.646578613481158e-11 8.547991224970992e-11 9.858738851016742e-13
3.3702598118196083 1.1425626723549686e-18 1.0221457948894057e-10 1.012048111022269e-10 1.0097683867136694e-12
3.382922481734668 1.1837259482289848e-18 1.0629495369458445e-10 1.0526200181142253e-10 1.0329518831618996e-12
3.389271646505754 1.2049325215063123e-18 1.084023102247238e-10 1.073576154951886e-10 1.0446947295351714e-12
3.395632727569191 1.2283084603805428e-18 1.1071273689903224e-10 1.0965594040222687e-10 1.0567964968053306e-12
3.421196662673239 1.3418225288150324e-18 1.218547749794389e-10 1.2074792728963615e-10 1.1068476898027625e-12
3.4276182099114902 1.3213099814352304e-18 1.2021719493949855e-10 1.1909922298687976e-10 1.117971952618845e-12
3.4340518103208963 1.2283568701709988e-18 1.1196978270661197e-10 1.1084131126771347e-10 1.1284714388985077e-12
3.4469541582030403 1.0948678288000773e-18 1.0017668024869815e-10 9.902810117623048e-11 1.1485790724676455e-12
3.472904465399547 1.0575867732609443e-18 9.749408784377382e-11 9.629912056813476e-11 1.1949672756390228e-12
3.4990501388274233 1.00148085017405e-18 9.301698277566702e-11 9.177464526654428e-11 1.242337509122726e-12
3.5253949054701885 8.035468700018388e-19 7.519490576110657e-11 7.390670878851034e-11 1.288196972596224e-12
3.5519380250092896 6.150918639827745e-19 5.799289577943564e-11 5.665873479281427e-11 1.334160986621365e-12
3.578680990867387 5.4180005281039805e-19 5.146730912165564e-11 5.008278590496056e-11 1.3845232166950803e-12
3.605625307711299 5.138278271046174e-19 4.917763585814331e-11 4.774014887696908e-11 1.4374869811742234e-12
3.660119384959845 4.966306517256507e-19 4.8250098561042714e-11 4.6701693437589684e-11 1.5484051234530281e-12
3.715437065384467 4.852118834606926e-19 4.785317644893488e-11 4.618835722045525e-11 1.6648192284796256e-12
3.8285932144167436 4.856969551106425e-19 4.93598736324726e-11 4.744665389384277e-11 1.913219738629826e-12
3.94519561050918 4.917564971193653e-19 5.1497729398182953e-11 4.93163333234615e-11 2.1813960747214374e-12
4.06534921144712 4.995420470864891e-19 5.390627710700055e-11 5.143787645376079e-11 2.468400653239764e-12
4.189162171576248 5.079108133490428e-19 5.647861851797197e-11 5.370448228966147e-11 2.774136228310496e-12
4.316745939156006 5.163679658009075e-19 5.916777174097804e-11 5.607104165419965e-11 3.096730086778376e-12
4.448215356677963 5.246743861921296e-19 6.195054070561933e-11 5.851967611943978e-11 3.4308645861795483e-12
4.58368876423945 5.32779747144048e-19 6.482346796991486e-11 6.104717467684785e-11 3.776293293067021e-12
4.723288106065518 5.407526523514417e-19 6.77973202555714e-11 6.366274384081488e-11 4.134576414756542e-12
4.867139040275056 5.48668283432188e-19 7.088478752651502e-11 6.63899390252267e-11 4.494848501288344e-12
4.940699165968905 5.529075767509512e-19 7.251208372932065e-11 6.783536488621801e-11 4.6767188431026575e-12
5.015371051989984 5.568995353412944e-19 7.413944959066406e-11 6.928038835336642e-11 4.859061237297612e-12
5.091171501069577 5.616122525298714e-19 7.589684696349024e-11 7.085078089326714e-11 5.04606607022311e-12
5.129500256944802 5.638651569951415e-19 7.677498635857201e-11 7.16355084696219e-11 5.1394778889501016e-12
5.168117569889187 5.661372262098489e-19 7.766467526485245e-11 7.24308158338111e-11 5.233859431041373e-12
5.20702561229733 5.691008968584525e-19 7.865899929032526e-11 7.332132162751665e-11 5.337677662808589e-12
5.246226572918644 5.720171477429883e-19 7.96572894036285e-11 7.421560686327111e-11 5.441682540357374e-12
5.265937586045735 5.734578154916881e-19 8.015795269726279e-11 7.466421531139778e-11 5.493737385865058e-12
5.285722656980489 5.748870326047184e-19 8.065964709663317e-11 7.51138293807995e-11 5.545817715833683e-12
5.305582063971359 5.763049492808576e-19 8.116238839890224e-11 7.556447200165589e-11 5.59791639724635e-12
5.3255160863122235 5.778479262054081e-19 8.16854475598587e-11 7.603494535499724e-11 5.650502204861468e-12
5.365609099470188 5.819537927929418e-19 8.288519544360637e-11 7.712582975345022e-11 5.759365690156157e-12
5.406003951863644 5.860697441031577e-19 8.409982524570305e-11 7.823144560513571e-11 5.868379640567358e-12
5.446702915881641 5.90200699857175e-19 8.533021522287644e-11 7.93527284610488e-11 5.977486761827671e-12
5.487708281020852 5.946085882737159e-19 8.661470439826742e-11 8.05275417498761e-11 6.087162648391326e-12
5.529022354014368 6.013216767075345e-19 8.825201672566603e-11 8.205052501751333e-11 6.201491708152684e-12
5.570647458961463 6.082273473822738e-19 8.993754965008303e-11 8.36216061477769e-11 6.315943502306125e-12
5.612585937458331 6.153465213476865e-19 9.16752676641296e-11 8.524480783381937e-11 6.430459830310239e-12
5.654840148729818 6.230849316783111e-19 9.352700225649979e-11 8.698137128733149e-11 6.545630969168291e-12
5.67608639626678 6.28747679636268e-19 9.473158977502556e-11 8.812556867392758e-11 6.606021101097957e-12
5.686739436050992 6.3163824812835565e-19 9.534571566442802e-11 8.870948530039979e-11 6.63623036402823e-12
5.6974124697621304 6.345697220204136e-19 9.59679993348736e-11 8.930155147723146e-11 6.6664478576421215e-12
5.718818669136295 6.4055987869478675e-19 9.723788243419816e-11 9.051097861130098e-11 6.726903822897203e-12
5.740305295436557 6.472032453784392e-19 9.861548391291269e-11 9.182759382207892e-11 6.78789009083375e-12
5.7835210386641895 6.650168633869196e-19 1.020926345194415e-10 9.517877830744426e-11 6.913856211997246e-12
5.827062130521658 6.852280326864189e-19 1.0598739144053697e-10 9.894615412047583e-11 7.04123732006118e-12
5.8489554468988025 7.000063056046158e-19 1.0868001718277182e-10 1.0156958753175205e-10 7.110429651019718e-12
5.870931020387893 7.156467699114597e-19 1.1152574324338094e-10 1.0434599337014651e-10 7.1797498732344265e-12
5.892989160043636 7.322184072459147e-19 1.1453697731500597e-10 1.0728778691927072e-10 7.24919039573526e-12
5.915130176081913 7.510762665036952e-19 1.1792822955261815e-10 1.1060692408738773e-10 7.321305465230406e-12
5.95966208400165 8.049050563417387e-19 1.2733146163423484e-10 1.1984353348130526e-10 7.487928152929568e-12
6.004529249263818 8.82635950858325e-19 1.4067923907372007e-10 1.33002505443334e-10 7.676733630386069e-12
6.027089341400364 9.36978545122973e-19 1.499017520129703e-10 1.4211478251714517e-10 7.786969495825118e-12
6.049734195844842 1.0006740613312086e-18 1.6069352190170038e-10 1.5278953223916652e-10 7.903989662533853e-12
6.095279466722835 1.1850204363023581e-18 1.9172948061090042e-10 1.835339896184239e-10 8.195490992476504e-12
6.141167624020661 1.4665504292490116e-18 2.390657638441289e-10 2.3048715990192364e-10 8.57860394220525e-12
6.164241091010745 1.6458803972721043e-18 2.6930680152934754e-10 2.6048545285734694e-10 8.82134867200054e-12
6.187401249150058 1.8473608534917328e-18 3.034096924001731e-10 2.943395310868327e-10 9.070161313340404e-12
6.1990139391386085 1.9450412209543806e-18 3.200522286115137e-10 3.10855545486556e-10 9.196683124957712e-12
6.204828454712694 1.996262626889602e-18 3.287887039560211e-10 3.195281639275761e-10 9.260540028445036e-12
6.210648424152782 2.033118701715276e-18 3.3517306703817644e-10 3.2585862485560634e-10 9.314442182570051e-12
6.233982942956859 2.1560184136539583e-18 3.567693263627852e-10 3.4726908745835327e-10 9.500238904431885e-12
6.239830258556775 2.1703758531056394e-18 3.59482007067738e-10 3.499575972688423e-10 9.524409798895621e-12
6.245683058788269 2.1694528612459574e-18 3.5966617227627455e-10 3.501175696657637e-10 9.548602610510785e-12
6.257405133728602 2.1610875355863747e-18 3.5895174230483903e-10 3.4936173431512226e-10 9.590007989716858e-12
6.269149208991335 2.130623314497704e-18 3.545558981968468e-10 3.449552314593055e-10 9.600666737541343e-12
6.280915325867298 2.061639417325024e-18 3.4372021974289265e-10 3.341468523254391e-10 9.573367417453531e-12
6.304513850009849 1.8946331854095122e-18 3.1706344648357224e-10 3.075789225977338e-10 9.484523885838404e-12
6.32820103803542 1.6920372341624867e-18 2.842232599556445e-10 2.748640038920684e-10 9.359256063576127e-12
6.3519772230701035 1.5074336363980961e-18 2.5416548075741996e-10 2.449197946533006e-10 9.245686104119419e-12
6.375842739491607 1.3517726814935972e-18 2.287761225675472e-10 2.1963195484188863e-10 9.144167725658642e-12
6.399797922933955 1.2280483792891529e-18 2.0861770837654305e-10 1.995320103119431e-10 9.085698064599933e-12
6.42384311029221 1.1247095329466818e-18 1.917806273116027e-10 1.8274476473291091e-10 9.035862578691784e-12
6.447978639727206 1.0493401944807368e-18 1.7960124041108224e-10 1.7058177751351828e-10 9.019462897563942e-12
6.472204850670314 9.861669526188956e-19 1.6942290827781954e-10 1.6041324201326616e-10 9.009666264553363e-12
6.496522083828205 9.444916459262537e-19 1.6287276644579887e-10 1.5384592485726273e-10 9.02684158853612e-12
