Dust emission spectrum from A.P. Jones, M. Kohler, N. Ysard, M. Bocchio, and L. Verstraete (2017), A&A, 602A, 46J 
inside the DustPedia framework.

lambda    nu*dP/dnu     j_nu    j_nu(carb.) j_nu(sil)
 (um)   (erg s-1 H-1) (Jy cm2 sr-1 H-1)
0.9927057738263894 7.2086983954221635e-25 1.8995329717832198e-17 1.8995329717787097e-17 4.510456393910966e-29
1.0001793341362166 7.3270790881769085e-25 1.9452623857729042e-17 1.9452623857674684e-17 5.434997423249028e-29
1.0077091589558085 7.445270216456391e-25 1.9915219773747632e-17 1.9915219773682225e-17 6.540756749707273e-29
1.0114953028030835 7.504280109644663e-25 2.014848237741943e-17 2.0148482377347707e-17 7.171916849432031e-29
1.0152956718711033 7.563225159132345e-25 2.0383041913702904e-17 2.0383041913624283e-17 7.861476107492104e-29
1.0229392996569957 7.680839497680765e-25 2.085585442896051e-17 2.085585442886614e-17 9.436942067323092e-29
1.0267826658714554 7.739365375194222e-25 2.1093726541603505e-17 2.1093726541500146e-17 1.0334790812606143e-28
1.0306404723013447 7.797800497808117e-25 2.1332843418208656e-17 2.133284341809551e-17 1.131444176987755e-28
1.03451277320114 7.856139220528934e-25 2.1573194620316528e-17 2.1573194620192698e-17 1.238298928206387e-28
1.0383996230291617 7.914375930910074e-25 2.181476958318103e-17 2.1814769583045545e-17 1.3548109399364151e-28
1.0403485208654093 7.9434542867483845e-25 2.1936012639501265e-17 2.193601263935957e-17 1.4169452954815867e-28
1.0423010764483396 7.972505050127282e-25 2.205755761828477e-17 2.205755761813659e-17 1.4818104610928936e-28
1.0462171883269815 8.030521034030091e-25 2.230154791585737e-17 2.2301547915695353e-17 1.620195176908626e-28
1.0471985131304309 8.045006706292613e-25 2.2362732065650146e-17 2.236273206548447e-17 1.6566823227375747e-28
1.048180758391296 8.059484877425987e-25 2.242399050248131e-17 2.242399050231191e-17 1.6939572048234133e-28
1.0501480137395462 8.088418374169037e-25 2.2546729547395476e-17 2.2546729547218376e-17 1.770935341461484e-28
1.0521189612883777 8.117320841445952e-25 2.266976366639863e-17 2.2669763666213508e-17 1.8512631088692414e-28
1.0531058218030118 8.131737877010453e-25 2.2731328469336928e-17 2.2731328469147654e-17 1.8927289056872235e-28
1.0540936079674168 8.1460736781794e-25 2.2792761525604916e-17 2.2792761525411417e-17 1.9350935446637257e-28
1.058054026499678 8.203332062407571e-25 2.303920924118843e-17 2.3039209240977042e-17 2.113825594146151e-28
1.0590464539527713 8.217625034594015e-25 2.3100999154620583e-17 2.3100999154404493e-17 2.160922537421263e-28
1.06003981227728 8.231909190280205e-25 2.3162859905176562e-17 2.3162859904955665e-17 2.20902457455452e-28
1.0620293250338977 8.260450719521492e-25 2.32867932009921e-17 2.3286793200761264e-17 2.30832603876697e-28
1.0660195594769086 8.317424330096533e-25 2.353550193207846e-17 2.3535501931826466e-17 2.5199156857470954e-28
1.070024785945596 8.374247616208845e-25 2.3785323858465097e-17 2.3785323858190083e-17 2.750019650396295e-28
1.0740450607676866 8.43091534230189e-25 2.4036247303653053e-17 2.4036247303353042e-17 3.000175055941203e-28
1.07808044048254 8.487422316028748e-25 2.4288260493150184e-17 2.428826049282299e-17 3.2720392586820677e-28
1.0861967418109137 8.599832889079462e-25 2.4795218570019195e-17 2.4795218569630376e-17 3.8881784820899205e-28
1.0902777775684922 8.655497650799395e-25 2.5049475460966578e-17 2.504947546054292e-17 4.23645283777306e-28
1.0943741465085532 8.710977369639549e-25 2.5304755374090666e-17 2.5304755373629217e-17 4.614452822523483e-28
1.1026131145906286 8.821361987020723e-25 2.581833494114965e-17 2.5818334940602706e-17 5.469423074161699e-28
1.1109141095355224 8.93094784757865e-25 2.6335857829523517e-17 2.6335857828876068e-17 6.474580156714606e-28
1.1192775983109025 9.039594337944092e-25 2.6856918805674016e-17 2.6856918804908544e-17 7.654770617361606e-28
1.1277040513999907 9.1467933326891e-25 2.7379999777051765e-17 2.737999977614788e-17 9.038682459427671e-28
1.1361939428280308 9.253067251826106e-25 2.790664459012823e-17 2.7906644589062294e-17 1.0659389551827173e-27
1.1447477501889525 9.358380777412147e-25 2.843674893563141e-17 2.84367489343759e-17 1.255497684444866e-27
1.1533659546722406 9.462757383496002e-25 2.897038495033444e-17 2.897038494885751e-17 1.4769261816532517e-27
1.1707974979042381 9.66904208827508e-25 3.004932143649226e-17 3.0049321434455994e-17 2.0362787282241462e-27
1.1884924949847024 9.871135756779818e-25 3.114103204519127e-17 3.1141032042397564e-17 2.7937031093590926e-27
1.2064549276569216 1.0070636823485169e-24 3.225057550769629e-17 3.225057550388197e-17 3.814319461509945e-27
1.2246888378427687 1.0265349173748305e-24 3.337097679803191e-17 3.337097679284915e-17 5.1827630068690616e-27
1.2431983285522175 1.0454817829084352e-24 3.4500573980900334e-17 3.450057397389166e-17 7.00866190880857e-27
1.2619875648066055 1.0638974737511197e-24 3.563889960873351e-17 3.56388995993002e-17 9.43329142345111e-27
1.3004222497298317 1.098828091911286e-24 3.793006424726203e-17 3.7930064230409335e-17 1.6852690954659105e-26
1.3400274889804893 1.1311924850839735e-24 4.0236449554901504e-17 4.023644952533655e-17 2.956496427314864e-26
1.3808389325824078 1.1608733260005473e-24 4.254977704364239e-17 4.2549776992687434e-17 5.0954964898362215e-26
1.4228933163050095 1.1880211378106435e-24 4.487101983077812e-17 4.487101974445863e-17 8.63194998563933e-26
1.466228494730424 1.2133020947771995e-24 4.722152798726052e-17 4.722152784345994e-17 1.4380058567419037e-25
1.5108834753276823 1.2362215406566373e-24 4.957887992763764e-17 4.957887969195199e-17 2.3568564536149064e-25
1.5568984535646726 1.25638075260874e-24 5.192195002442937e-17 5.192194964399892e-17 3.8043044475068772e-25
1.6043148490894465 1.2738218265987176e-24 5.424600034777778e-17 5.424599974191373e-17 6.058640607623656e-25
1.6531753430134553 1.2886034037806048e-24 5.654674704772548e-17 5.654674609679984e-17 9.509256506301393e-25
1.7035239163302658 1.3009093702942203e-24 5.88253757684205e-17 5.88253742971327e-17 1.4712877829268454e-24
1.755405889504358 1.3117796606935298e-24 6.112345250250539e-17 6.112345025733707e-17 2.2451683392622636e-24
1.8088679632656115 1.3209627109527887e-24 6.342593210921597e-17 6.342592872889317e-17 3.380322799800734e-24
1.8639582606462262 1.328289951812473e-24 6.572014355477344e-17 6.572013853132778e-17 5.02344564757342e-24
1.9207263702978936 1.333891204086043e-24 6.800726990227876e-17 6.80072625309098e-17 7.371368974134666e-24
1.979223391128241 1.3380629987267077e-24 7.029765036818151e-17 7.029763968329531e-17 1.0684886178099559e-23
2.039501978296691 1.3411591285693382e-24 7.260622780240912e-17 7.260621249760657e-17 1.5304802529511575e-23
2.1016163906111602 1.344162258720682e-24 7.498503129759338e-17 7.498500962519012e-17 2.1672403245204347e-23
2.1656225393682647 1.3476438265089844e-24 7.746888799338707e-17 7.746885764300316e-17 3.035038392156936e-23
2.231578038680979 1.3516484241601118e-24 8.006546942444394e-17 8.006542737683126e-17 4.2047612654321195e-23
2.299542257339062 1.3565196817007584e-24 8.280125648289706e-17 8.280119883558469e-17 5.764731233467525e-23
2.369576372248914 1.3630125632798722e-24 8.573141713360313e-17 8.573133889406898e-17 7.82395341408692e-23
2.4417434235010123 1.3720180617021513e-24 8.892610866117076e-17 8.892600350792173e-17 1.051532490475599e-22
2.5161083711144245 1.3850592751277687e-24 9.250541069061855e-17 9.250527069375943e-17 1.3999685909990475e-22
2.5927381535095444 1.4046270672066128e-24 9.666942262049641e-17 9.666923792337366e-17 1.8469712275464133e-22
2.6717017477616296 1.4336957923638777e-24 1.0167505553294861e-16 1.0167481400335363e-16 2.415295949797908e-22
2.753070231689431 1.476741458998973e-24 1.0791732986159746e-16 1.079170167011875e-16 3.1316041000572506e-22
2.836916847834745 1.5439007327762783e-24 1.1626136373127012e-16 1.1626096103107553e-16 4.0270019459821115e-22
2.9233170693905177 1.657495320591806e-24 1.2861679004794575e-16 1.286162763788336e-16 5.136691121093293e-22
2.967498994190263 1.753738639320444e-24 1.3814172797602928e-16 1.381411503793994e-16 5.775966298528107e-22
3.0123486681368425 1.866103505415297e-24 1.492142842843917e-16 1.4921363564613898e-16 6.486382527177722e-22
3.0578761833420214 2.1170012834243553e-24 1.7183453450301504e-16 1.7183380683805373e-16 7.276649613232618e-22
3.1040917844459814 2.440274375206053e-24 2.0106785594889034e-16 2.0106704106691186e-16 8.148819784710515e-22
3.127460860933648 2.781961924042737e-24 2.309470919423165e-16 2.309462298738776e-16 8.620684389815114e-22
3.1510058709225794 3.2371858797477416e-24 2.707611080887418e-16 2.7076019647273197e-16 9.116160098836217e-22
3.162844764501044 3.660767749076874e-24 3.0734028283596036e-16 3.073393454378249e-16 9.373981355975944e-22
3.1747281389236908 4.1533894420690886e-24 3.50008530305947e-16 3.500075665023731e-16 9.638035736286483e-22
3.1986289994194426 5.527491622954097e-24 4.693117162981674e-16 4.693106976348593e-16 1.018663307905047e-21
3.2227097969389145 8.76613990096794e-24 7.498925340143431e-16 7.498914568231148e-16 1.0771912285266985e-21
3.2348180950136065 1.1837312368292325e-23 1.016418134591287e-15 1.0164170260572093e-15 1.1085340780574765e-21
3.240889293275058 1.4133348550343087e-23 1.2158463590050225e-15 1.2158452339314006e-15 1.125073621916557e-21
3.2469718861334385 1.678948391498509e-23 1.4470558993171693e-15 1.4470547571243494e-15 1.1421928195030368e-21
3.2714166318528037 3.095764461173021e-23 2.6882719507008724e-15 2.6882707374337263e-15 1.213267145066535e-21
3.2744851364798273 3.184326301386673e-23 2.7677701451148404e-15 2.76776892338641e-15 1.2217284303278661e-21
3.2775565192852394 3.275431591014176e-23 2.8496279117955114e-15 2.8496266815549087e-15 1.2302406019550127e-21
3.283707930232385 3.1877917173794354e-23 2.7785863171189166e-15 2.778585071489487e-15 1.2456294290419515e-21
3.2898708863219004 2.9099005769481797e-23 2.541127392225254e-15 2.541126132436564e-15 1.2597886889966406e-21
3.29141343181113 2.844367529115611e-23 2.4850640247957054e-15 2.4850627614469994e-15 1.263348705609102e-21
3.292184975758714 2.812166999895736e-23 2.4575070323669848e-15 2.4575057672352314e-15 1.2651317531557746e-21
3.295272960557952 2.6089156229882913e-23 2.282027434907471e-15 2.282026162811234e-15 1.2720962364676007e-21
3.3076538914384823 1.9048116956471196e-23 1.6724053234978339e-15 1.6724040233418197e-15 1.300156014215201e-21
3.310756385682612 1.7615130660275492e-23 1.5480412442058154e-15 1.548039936958579e-15 1.3072472369961198e-21
3.313861789986515 1.629299270644082e-23 1.4331930307987339e-15 1.4331917164295824e-15 1.3143691516971895e-21
3.3200813396944477 1.4438841247830758e-23 1.2724786320811424e-15 1.2724773024610575e-15 1.3296200852264858e-21
3.345076488085796 1.113126465621875e-23 9.883710005182853e-16 9.883696030712065e-16 1.3974470787864305e-21
3.3482140837626964 1.12552871880328e-23 1.0003206467108308e-15 1.0003192400772863e-15 1.4066335441739921e-21
3.3513546224236106 1.1380680434868112e-23 1.0124137776768418e-15 1.0124123618055622e-15 1.4158712794622514e-21
3.3576445397418455 1.2297082730578059e-23 1.0959891256340074e-15 1.0959876904720389e-15 1.4351619680550214e-21
3.3702598118196083 1.5677164764301327e-23 1.4024918218788573e-15 1.402490346220498e-15 1.4756583589112629e-21
3.382922481734668 1.6446852600720167e-23 1.476876838115087e-15 1.4768753227807687e-15 1.5153343181073269e-21
3.389271646505754 1.6845597815924908e-23 1.5155219796706725e-15 1.5155204441590646e-15 1.5355116065015094e-21
3.395632727569191 1.7275239997184832e-23 1.5570918562943242e-15 1.5570902999822492e-15 1.5563120754232722e-21
3.421196662673239 1.933808341095467e-23 1.7561471446275976e-15 1.7561455018204762e-15 1.642807121218575e-21
3.4276182099114902 1.8922188187707817e-23 1.721603876459519e-15 1.7216022140039505e-15 1.6624555685455511e-21
3.4340518103208963 1.7100076637264867e-23 1.5587423425851938e-15 1.5587406613789999e-15 1.6812061943150453e-21
3.4469541582030403 1.450511662822954e-23 1.3271688072419885e-15 1.3271670897009367e-15 1.7175410521001243e-21
3.472904465399547 1.3777919618616937e-23 1.2701233974968244e-15 1.2701215966598343e-15 1.8008369906695645e-21
3.4990501388274233 1.2665701708713986e-23 1.1763833102514498e-15 1.1763814233108275e-15 1.8869406221897345e-21
3.5253949054701885 8.707506893633793e-24 8.148375467873834e-16 8.148355748726148e-16 1.9719147684375966e-21
3.5519380250092896 4.987646537456371e-24 4.702518156531341e-16 4.702497572170223e-16 2.0584361117443135e-21
3.578680990867387 3.512959124806318e-24 3.33707153165264e-16 3.3370499961169324e-16 2.1535535707406818e-21
3.605625307711299 2.9166614260280745e-24 2.7914897941387245e-16 2.7914672491785415e-16 2.2544960183020926e-21
3.660119384959845 2.482007737989255e-24 2.411391998684137e-16 2.411367300146041e-16 2.469853809569188e-21
3.715437065384467 2.174464581704095e-24 2.1445278002692405e-16 2.144500782348253e-16 2.7017920987981708e-21
3.8285932144167436 2.0192830679590183e-24 2.052134690445886e-16 2.0521025106466215e-16 3.217979926419436e-21
3.94519561050918 1.9905618840953923e-24 2.0845564391719536e-16 2.0845183510344679e-16 3.8088137484968285e-21
4.06534921144712 2.0138563625177325e-24 2.1731804112333587e-16 2.173135589795294e-16 4.482143806433368e-21
4.189162171576248 2.067347423124273e-24 2.298847029557306e-16 2.298794543125777e-16 5.248643152938548e-21
4.316745939156006 2.142912301717446e-24 2.455445618751605e-16 2.455384447675777e-16 6.1171075828025336e-21
4.448215356677963 2.237834659256536e-24 2.642306748703209e-16 2.6422358493369065e-16 7.089936630361858e-21
4.58368876423945 2.3524598246379692e-24 2.86224476268804e-16 2.862162944161965e-16 8.181852607498678e-21
4.723288106065518 2.4894003227230845e-24 3.121106668456821e-16 3.121012524590703e-16 9.414386611728948e-21
4.867139040275056 2.653869260353525e-24 3.4286464941354603e-16 3.428538671475852e-16 1.078226596085363e-20
4.940699165968905 2.7529513614973758e-24 3.610408828193031e-16 3.610293567986085e-16 1.1526020694832699e-20
5.015371051989984 2.8555814241235894e-24 3.801605525062987e-16 3.8014824107096146e-16 1.2311435337181758e-20
5.091171501069577 2.9806112203422278e-24 4.028028103534719e-16 4.027896569844892e-16 1.3153368982717846e-20
5.129500256944802 3.0447904557284074e-24 4.14573844124355e-16 4.1456025241529057e-16 1.359170906436835e-20
5.168117569889187 3.1116900587657452e-24 4.2687247322848274e-16 4.268584288144781e-16 1.4044414004507325e-20
5.20702561229733 3.1936678499230877e-24 4.4141683579724907e-16 4.414023050440705e-16 1.4530753178576472e-20
5.246226572918644 3.2777379065157977e-24 4.56447360081388e-16 4.564323288654304e-16 1.5031215957711622e-20
5.265937586045735 3.320578400912193e-24 4.641505603331168e-16 4.641352734762327e-16 1.528685688420706e-20
5.285722656980489 3.3639673639478524e-24 4.719821548091709e-16 4.719666086433217e-16 1.5546165849273377e-20
5.305582063971359 3.407913647970709e-24 4.799445353916653e-16 4.79928726201707e-16 1.5809189958407787e-20
5.3255160863122235 3.455107583876332e-24 4.884191783982883e-16 4.884031012556477e-16 1.6077142640553817e-20
5.365609099470188 3.572506338750086e-24 5.088168335319679e-16 5.088001997983043e-16 1.6633733663677767e-20
5.406003951863644 3.694363826978168e-24 5.301337517744703e-16 5.301165450019323e-16 1.720677253809739e-20
5.446702915881641 3.82089518905264e-24 5.524185398370659e-16 5.524007431337771e-16 1.7796703288760587e-20
5.487708281020852 3.957580393330003e-24 5.764878992007819e-16 5.764694937271882e-16 1.8405473593433093e-20
5.529022354014368 4.147332651379167e-24 6.086766612513655e-16 6.086576158840995e-16 1.9045367266206403e-20
5.570647458961463 4.348237612092617e-24 6.429665450115792e-16 6.429468404068753e-16 1.9704604704142798e-20
5.612585937458331 4.561097185420961e-24 6.795192477887027e-16 6.794988640534773e-16 2.0383735225109178e-20
5.654840148729818 4.795022166711042e-24 7.197478645455112e-16 7.197267792130421e-16 2.1085332468970255e-20
5.67608639626678 4.9542348197623304e-24 7.464401950021936e-16 7.464187421989774e-16 2.145280321666184e-20
5.686739436050992 5.036294731655216e-24 7.602280686920582e-16 7.60206430029961e-16 2.163866209727366e-20
5.6974124697621304 5.120042518035455e-24 7.74320330634282e-16 7.742985046837104e-16 2.182595057205808e-20
5.718818669136295 5.2927641830604965e-24 8.034489803405167e-16 8.034267754819217e-16 2.220485859469862e-20
5.740305295436557 5.4831275336228985e-24 8.354736768482388e-16 8.354510853271986e-16 2.259152104045868e-20
5.7835210386641895 5.976815034769778e-24 9.175538644649894e-16 9.175304664965688e-16 2.3397968420160338e-20
5.827062130521658 6.545401093883403e-24 1.012407483028662e-15 1.0123832482163061e-15 2.4234812355952593e-20
5.8489554468988025 6.94420078956414e-24 1.0781272326948478e-15 1.0781025492734305e-15 2.4683421417144937e-20
5.870931020387893 7.372100668031566e-24 1.148861478643949e-15 1.1488363390286584e-15 2.5139615290614517e-20
5.892989160043636 7.8314415017802e-24 1.2250301668965584e-15 1.2250045633760925e-15 2.5603520465522854e-20
5.915130176081913 8.353797748812133e-24 1.311649192623257e-15 1.3116231082162526e-15 2.6084407004350867e-20
5.95966208400165 9.81416319565832e-24 1.5525455264248234e-15 1.5525183748917862e-15 2.71515330374645e-20
6.004529249263818 1.1918749568589426e-23 1.899674059717205e-15 1.8996457175935506e-15 2.8342123654926905e-20
6.027089341400364 1.338163096989555e-23 2.140849369091049e-15 2.1408203531562588e-15 2.901593479049906e-20
6.049734195844842 1.5110203521053267e-23 2.426476226654039e-15 2.426446498036901e-15 2.972861713791506e-20
6.095279466722835 2.0103216503713265e-23 3.2525846312763332e-15 3.2525532039231167e-15 3.1427353216363785e-20
6.141167624020661 2.778684288822921e-23 4.529597269487005e-15 4.5295637010910336e-15 3.3568395970381506e-20
6.164241091010745 3.2693918361266517e-23 5.349534873814201e-15 5.349499994906852e-15 3.487890734706519e-20
6.187401249150058 3.8283322536529253e-23 6.2876351920688436e-15 6.287598952943228e-15 3.6239125614401487e-20
6.1990139391386085 4.1012672865433203e-23 6.748544560642355e-15 6.748507626318213e-15 3.6934324145030706e-20
6.204828454712694 4.245034756014958e-23 6.991662604299251e-15 6.991625317301125e-15 3.728699812823269e-20
6.210648424152782 4.349999183483863e-23 7.171261405995529e-15 7.17122380950299e-15 3.759649253696767e-20
6.233982942956859 4.706634447570831e-23 7.78835092808829e-15 7.788312211944437e-15 3.8716143855146786e-20
6.239830258556775 4.7522407786352516e-23 7.871194524802888e-15 7.871155623793436e-15 3.890100945053959e-20
6.245683058788269 4.756227696648884e-23 7.885187277798906e-15 7.885148191085871e-15 3.9086713034414454e-20
6.257405133728602 4.746504663590138e-23 7.883836683142204e-15 7.883797253745062e-15 3.942939714198301e-20
6.269149208991335 4.676460381652978e-23 7.782072972339698e-15 7.78203333332023e-15 3.9639019467015725e-20
6.280915325867298 4.50069707151548e-23 7.503642845676192e-15 7.503603163050547e-15 3.968262564667885e-20
6.304513850009849 4.0672084987943967e-23 6.806400067970396e-15 6.8063604492274625e-15 3.9618742933876204e-20
6.32820103803542 3.529857078772977e-23 5.92934638700758e-15 5.929306993647956e-15 3.939335962337513e-20
6.3519772230701035 3.037060176840274e-23 5.120728643021795e-15 5.1206894235714424e-15 3.921945035408297e-20
6.375842739491607 2.6224546429559657e-23 4.438283248643749e-15 4.43824415039839e-15 3.9098245356178703e-20
6.399797922933955 2.2902052086696897e-23 3.890541858141218e-15 3.890502682774392e-15 3.9175366825063886e-20
6.42384311029221 2.0139564726931942e-23 3.434111869750405e-15 3.4340725759782405e-15 3.929377216456121e-20
6.447978639727206 1.812685276871632e-23 3.1025260055167696e-15 3.102486433782881e-15 3.957173388928523e-20
6.472204850670314 1.6450178929959525e-23 2.8261311622772496e-15 2.8260912772924258e-15 3.9884984823511264e-20
6.496522083828205 1.5360924575513856e-23 2.648913086283187e-15 2.6488727545730108e-15 4.0331710177400993e-20
6.520930681187647 1.4443444476302605e-23 2.5000563231052406e-15 2.5000155187683905e-15 4.080433685030777e-20
