Dust emission spectrum from A.P. Jones, M. Kohler, N. Ysard, M. Bocchio, and L. Verstraete (2017), A&A, 602A, 46J 
inside the DustPedia framework.

lambda    nu*dP/dnu     j_nu    j_nu(carb.) j_nu(sil)
 (um)   (erg s-1 H-1) (Jy cm2 sr-1 H-1)
0.9927057738263894 6.763430910218314e-25 1.7822024603631783e-17 1.7822024603620024e-17 1.1764539607300218e-29
1.0001793341362166 6.874486230289747e-25 1.8251037452120283e-17 1.8251037452106105e-17 1.417734653072694e-29
1.0077091589558085 6.985362929877616e-25 1.8685022021150332e-17 1.8685022021133276e-17 1.706348829399658e-29
1.0114953028030835 7.040720607518732e-25 1.8903856600795544e-17 1.8903856600776833e-17 1.8711054669917265e-29
1.0152956718711033 7.0960172482329915e-25 1.9123907320998597e-17 1.912390732097809e-17 2.051119815921864e-29
1.0229392996569957 7.206351197997438e-25 1.9567471966414785e-17 1.9567471966390157e-17 2.4624537135675576e-29
1.0267826658714554 7.261253950699635e-25 1.979062852829227e-17 1.97906285282653e-17 2.6968968704078976e-29
1.0306404723013447 7.316071346633122e-25 2.001495223147063e-17 2.00149522314411e-17 2.952720152276118e-29
1.03451277320114 7.37079808713323e-25 2.024043326845169e-17 2.024043326841937e-17 3.231780023140593e-29
1.0383996230291617 7.42542890408097e-25 2.0467061713126416e-17 2.046706171309106e-17 3.536085401704535e-29
1.0403485208654093 7.452706703536706e-25 2.0580803079587922e-17 2.0580803079550935e-17 3.6983775038345696e-29
1.0423010764483396 7.479958560912411e-25 2.0694827523135133e-17 2.0694827523096454e-17 3.867809407009546e-29
1.0462171883269815 7.5343818536054935e-25 2.0923720542230457e-17 2.092372054218816e-17 4.2293019443399845e-29
1.0471985131304309 7.547970450712524e-25 2.0981118722586356e-17 2.0981118722543117e-17 4.324619705580245e-29
1.048180758391296 7.561551996279164e-25 2.1038586550799027e-17 2.103858655075481e-17 4.421997396266145e-29
1.0501480137395462 7.588693611644139e-25 2.115373050264183e-17 2.11537305025956e-17 4.623103186477195e-29
1.0521189612883777 7.615806058775715e-25 2.1269151097250222e-17 2.1269151097201892e-17 4.8329689339062845e-29
1.0531058218030118 7.629330175619924e-25 2.132690611109544e-17 2.1326906111046027e-17 4.941306677988872e-29
1.0540936079674168 7.642778061390911e-25 2.1384537462880013e-17 2.1384537462829486e-17 5.051995121626952e-29
1.058054026499678 7.696489883298071e-25 2.1615733642745255e-17 2.1615733642690063e-17 5.519004022006553e-29
1.0590464539527713 7.709897515411399e-25 2.1673699546517363e-17 2.167369954646094e-17 5.642070291651847e-29
1.06003981227728 7.723296861469192e-25 2.173173185869551e-17 2.1731731858637832e-17 5.767765690587304e-29
1.0620293250338977 7.750070383193251e-25 2.1847995034950015e-17 2.1847995034889747e-17 6.027258940949472e-29
1.0660195594769086 7.8035145679748245e-25 2.2081310860503174e-17 2.208131086043737e-17 6.580219473377162e-29
1.070024785945596 7.856817483490161e-25 2.231567024361126e-17 2.2315670243539448e-17 7.181618888847349e-29
1.0740450607676866 7.909974215348824e-25 2.255106221405057e-17 2.2551062213972207e-17 7.835484375919523e-29
1.07808044048254 7.962979889712988e-25 2.2787475709534416e-17 2.2787475709448942e-17 8.546158671365524e-29
1.0861967418109137 8.068424421537984e-25 2.3263050529942277e-17 2.32630505298407e-17 1.0157023984946539e-28
1.0902777775684922 8.12063919106258e-25 2.350156632820511e-17 2.350156632809444e-17 1.1067697773924764e-28
1.0943741465085532 8.172680104843361e-25 2.3741040990939504e-17 2.3741040990818944e-17 1.2056193646280416e-28
1.1026131145906286 8.276221881316635e-25 2.422282056824097e-17 2.4222820568098042e-17 1.4292330385558608e-28
1.1109141095355224 8.37901324279794e-25 2.4708295836018e-17 2.470829583584879e-17 1.692179395640547e-28
1.1192775983109025 8.480922246342388e-25 2.5197086467826488e-17 2.5197086467626394e-17 2.0009761547077502e-28
1.1277040513999907 8.581472145416741e-25 2.5687768038726347e-17 2.5687768038490033e-17 2.3631507728704716e-28
1.1361939428280308 8.681153066830268e-25 2.6181788878787545e-17 2.618178887850881e-17 2.78738381566604e-28
1.1447477501889525 8.77993185819824e-25 2.6679050987768905e-17 2.6679050987440526e-17 3.2836738451255703e-28
1.1533659546722406 8.877830529841662e-25 2.7179621916748817e-17 2.7179621916362463e-17 3.8635276203899082e-28
1.1707974979042381 9.071308577902359e-25 2.8191693118963956e-17 2.8191693118431074e-17 5.328795000381399e-28
1.1884924949847024 9.26084997667013e-25 2.9215728867989274e-17 2.9215728867257895e-17 7.313815993654525e-28
1.2064549276569216 9.447954273555955e-25 3.025647414689803e-17 3.025647414589904e-17 9.989828749274554e-28
1.2246888378427687 9.63056090354549e-25 3.130738360913448e-17 3.130738360777653e-17 1.35795223079476e-27
1.2431983285522175 9.808242923535878e-25 3.236689688315003e-17 3.236689688131287e-17 1.837152624999232e-27
1.2619875648066055 9.980936318702928e-25 3.343457393589299e-17 3.34345739334192e-17 2.4738023406287318e-27
1.3004222497298317 1.030847428386701e-24 3.5583463396737735e-17 3.558346339231422e-17 4.4235175925379336e-27
1.3400274889804893 1.0611913989039694e-24 3.774651507424506e-17 3.7746515066477385e-17 7.767657646978219e-27
1.3808389325824078 1.0890153627677225e-24 3.9915949350399735e-17 3.991594933699895e-17 1.340079511154645e-26
1.4228933163050095 1.1144604159130027e-24 4.209266471066789e-17 4.2092664687943024e-17 2.2724867830489632e-26
1.466228494730424 1.1381513833325742e-24 4.42966740378436e-17 4.4296673999945383e-17 3.7898209151884126e-26
1.5108834753276823 1.159624017725018e-24 4.6506922946396186e-17 4.6506922884212783e-17 6.218336857506423e-26
1.5568984535646726 1.178504071259783e-24 4.8703571241824627e-17 4.8703571141336135e-17 1.0048849989265933e-25
1.6043148490894465 1.194830817867781e-24 5.088214977023579e-17 5.0882149610010435e-17 1.6022534018458925e-25
1.6531753430134553 1.2086590074595426e-24 5.3038611384427265e-17 5.3038611132638894e-17 2.5178836944801238e-25
1.7035239163302658 1.2201608563916325e-24 5.5174036342687125e-17 5.5174035952620195e-17 3.900669381159231e-25
1.755405889504358 1.2303115380761542e-24 5.732737830461857e-17 5.732737770859552e-17 5.960230387202239e-25
1.8088679632656115 1.2388746549066428e-24 5.948447984368988e-17 5.948447894509028e-17 8.985995614298526e-25
1.8639582606462262 1.245691667007839e-24 6.163340697490886e-17 6.163340563761776e-17 1.3372910910733715e-24
1.9207263702978936 1.2508838894797667e-24 6.377521497081207e-17 6.377521300558731e-17 1.9652247717797215e-24
1.979223391128241 1.2547289752637803e-24 6.591954107830105e-17 6.591953822532081e-17 2.8529802058614758e-24
2.039501978296691 1.2575582722034831e-24 6.808033472046681e-17 6.808033062740925e-17 4.0930575798860485e-24
2.1016163906111602 1.2602928895972518e-24 7.030631990852687e-17 7.030631410293397e-17 5.8055929251290204e-24
2.1656225393682647 1.2634681852703607e-24 7.263007732649238e-17 7.263006918220672e-17 8.144285679489323e-24
2.231578038680979 1.2671254207359856e-24 7.505871335877424e-17 7.505870205531739e-17 1.1303456834885438e-23
2.299542257339062 1.2715862820355848e-24 7.76169659012645e-17 7.761695037510565e-17 1.552615885230993e-23
2.369576372248914 1.277558285695905e-24 8.035647304668096e-17 8.035645193307529e-17 2.1113605641383675e-23
2.4417434235010123 1.2858765357088662e-24 8.334292363282317e-17 8.334289519812384e-17 2.843469933398406e-23
2.5161083711144245 1.2979689783510853e-24 8.668881943335861e-17 8.66887814952841e-17 3.793807451019452e-23
2.5927381535095444 1.3161713282948414e-24 9.058171050978246e-17 9.058166034576123e-17 5.016402120515412e-23
2.6717017477616296 1.343273185021821e-24 9.526245135854489e-17 9.526238560412621e-17 6.575441868080461e-23
2.753070231689431 1.3834729910405064e-24 1.0110145565354035e-16 1.011013701873621e-16 8.546617820678111e-23
2.836916847834745 1.4462793605172548e-24 1.0891011787251405e-16 1.0891000768406732e-16 1.1018844675774588e-22
2.9233170693905177 1.552631940641053e-24 1.204796984041344e-16 1.2047955746733985e-16 1.409367946241199e-22
2.967498994190263 1.6428071086697751e-24 1.2940366804650227e-16 1.2940350933619438e-16 1.587103078845697e-22
3.0123486681368425 1.7481021729706135e-24 1.3977885676697776e-16 1.3977867827009838e-16 1.7849687931478684e-22
3.0578761833420214 1.9833508596472724e-24 1.609862848889583e-16 1.6098608434296398e-16 2.005459943743767e-22
3.1040917844459814 2.2864959601568526e-24 1.8839719214185407e-16 1.883969672107756e-16 2.249310785073155e-22
3.127460860933648 2.6069732411252382e-24 2.164202477417013e-16 2.1642000959721341e-16 2.381444877929782e-22
3.1510058709225794 3.033962784941785e-24 2.537633475699137e-16 2.537630955355329e-16 2.5203438078547e-22
3.162844764501044 3.431293002896598e-24 2.880746975191807e-16 2.8807443825098967e-16 2.5926819106036407e-22
3.1747281389236908 3.893396485129549e-24 3.28098773463359e-16 3.2809850678226365e-16 2.666810952297397e-22
3.1986289994194426 5.182411899835278e-24 4.400127199063758e-16 4.4001243781093404e-16 2.820954417517048e-22
3.2227097969389145 8.220594842755829e-24 7.0322431165611785e-16 7.032240130964069e-16 2.9855971084496136e-22
3.2348180950136065 1.1101702503356651e-23 9.532545393897581e-16 9.532542320065199e-16 3.0738323828632194e-22
3.240889293275058 1.325564732647127e-23 1.1403405555828824e-15 1.1403402435421007e-15 3.120407819351565e-22
3.2469718861334385 1.574740015974965e-23 1.3572405450613935e-15 1.3572402281988425e-15 3.168625511859569e-22
3.2714166318528037 2.903887859020212e-23 2.5216518818834475e-15 2.5216515449852743e-15 3.3689817319175286e-22
3.2744851364798273 2.9869684472862824e-23 2.5962295664231655e-15 2.5962292271369557e-15 3.3928621013239497e-22
3.2775565192852394 3.072435175276836e-23 2.673020879651555e-15 2.6730205379625522e-15 3.41689002924019e-22
3.283707930232385 2.9902136548638e-23 2.60637064252644e-15 2.6063702964897714e-15 3.4603666910183466e-22
3.2898708863219004 2.7295125330337815e-23 2.383600017148558e-15 2.3835996671080193e-15 3.500405390913036e-22
3.29141343181113 2.668033428681636e-23 2.3310046337895684e-15 2.3310042827421624e-15 3.510474056210094e-22
3.292184975758714 2.6378248799789308e-23 2.305152287521034e-15 2.3051519359693078e-15 3.5155172657275034e-22
3.295272960557952 2.4471460122789496e-23 2.1405270021145648e-15 2.1405266485924626e-15 3.535221017541834e-22
3.3076538914384823 1.7866012310540888e-23 1.5686177361314226e-15 1.5686173746675002e-15 3.614639226327144e-22
3.310756385682612 1.6521691270750695e-23 1.4519483280833794e-15 1.4519479646116481e-15 3.634717305351015e-22
3.313861789986515 1.528136532139812e-23 1.3442064741770523e-15 1.344206108688515e-15 3.654885372188257e-22
3.3200813396944477 1.3541935588066637e-23 1.193435357939324e-15 1.193434988132803e-15 3.698065211024928e-22
3.345076488085796 1.0438919495028568e-23 9.268960557744972e-16 9.268956667589765e-16 3.8901552070324336e-22
3.3482140837626964 1.0555250994888844e-23 9.38104494803903e-16 9.381041031856661e-16 3.9161823711360532e-22
3.3513546224236106 1.067286836364349e-23 9.494475344003611e-16 9.494471401644481e-16 3.9423591256915572e-22
3.3576445397418455 1.1532521891999981e-23 1.0278469179798673e-15 1.027846518277066e-15 3.9970280086243058e-22
3.3702598118196083 1.470336619304325e-23 1.3153750151807022e-15 1.3153746039970824e-15 4.111836200416433e-22
3.382922481734668 1.5425335902207242e-23 1.3851477767313016e-15 1.3851473542904412e-15 4.2244085996231686e-22
3.389271646505754 1.579936129391972e-23 1.4213968282596533e-15 1.4213964000909658e-15 4.281686876701008e-22
3.395632727569191 1.6202360731145245e-23 1.4603886227525904e-15 1.460388188678323e-15 4.340742674209994e-22
3.421196662673239 1.8137268464090528e-23 1.6470976749698654e-15 1.647097216319822e-15 4.586500430854095e-22
3.4276182099114902 1.7747073386766473e-23 1.6146880072948837e-15 1.6146875430509585e-15 4.642439255191106e-22
3.4340518103208963 1.6037722569452942e-23 1.4619043983208143e-15 1.4619039287338148e-15 4.695869996337566e-22
3.4469541582030403 1.3603361194431725e-23 1.2446612539301957e-15 1.2446607739785847e-15 4.799516109830254e-22
3.472904465399547 1.2921080261444358e-23 1.1911352958410045e-15 1.1911347921260042e-15 5.037149996386525e-22
3.4990501388274233 1.1877607771969476e-23 1.1031855849758921e-15 1.1031850566605581e-15 5.283153341466633e-22
3.5253949054701885 8.164331538783572e-24 7.640078800379821e-16 7.640073274004599e-16 5.526375220591943e-22
3.5519380250092896 4.6747206950686585e-24 4.4074813201346407e-16 4.407475545681057e-16 5.774453584768003e-22
3.578680990867387 3.291265379922829e-24 3.1264775968777967e-16 3.1264715494365673e-16 6.047441228253813e-22
3.605625307711299 2.7317993071358444e-24 2.614561229991576e-16 2.614554892452138e-16 6.337539438031937e-22
3.660119384959845 2.3238661840051337e-24 2.2577497387910553e-16 2.257742780850581e-16 6.957940474886401e-22
3.715437065384467 2.035183223000446e-24 2.007163987442652e-16 2.0071563591449493e-16 7.628297703626272e-22
3.8285932144167436 1.8892105872003115e-24 1.919946066536365e-16 1.9199369382830762e-16 9.12825328968878e-22
3.94519561050918 1.8618435678038354e-24 1.9497600295708148e-16 1.9497491715501906e-16 1.0858020623787445e-21
4.06534921144712 1.8832459159542384e-24 2.0322368617046483e-16 2.032224016451414e-16 1.2845253234624854e-21
4.189162171576248 1.9329478369841397e-24 2.1493975050525875e-16 2.1493823782108305e-16 1.5126841757341075e-21
4.316745939156006 2.0033281262239896e-24 2.295503771440461e-16 2.2954860357258884e-16 1.7735714572614073e-21
4.448215356677963 2.0918367634254703e-24 2.4699208113171757e-16 2.4699001237157216e-16 2.0687601454563973e-21
4.58368876423945 2.1987954557510763e-24 2.675280874738982e-16 2.6752568389079646e-16 2.4035831016320815e-21
4.723288106065518 2.3266516818460723e-24 2.917059186142732e-16 2.9170313299020237e-16 2.7856240707998465e-21
4.867139040275056 2.480291637733919e-24 3.2043941859506165e-16 3.204362037470987e-16 3.2148479630093548e-21
4.940699165968905 2.572896785660602e-24 3.374272934457496e-16 3.3742384306768814e-16 3.450378061378233e-21
5.015371051989984 2.6688216328631565e-24 3.5529741786347634e-16 3.552937171679356e-16 3.700695540703128e-21
5.091171501069577 2.785739150428813e-24 3.764676020294862e-16 3.7646363147370803e-16 3.970555778236239e-21
5.129500256944802 2.8457560805203046e-24 3.87473638956649e-16 3.874695271970964e-16 4.111759552704212e-21
5.168117569889187 2.908321723045276e-24 3.9897369706316283e-16 3.9896943904553116e-16 4.258017631622961e-21
5.20702561229733 2.9850201261307812e-24 4.125783271104686e-16 4.1257391206247615e-16 4.415047992602418e-21
5.246226572918644 3.0636790114079293e-24 4.2663819889748287e-16 4.2663362172076895e-16 4.577176713907901e-21
5.265937586045735 3.103763211538838e-24 4.3384412588521214e-16 4.338394656834149e-16 4.660201797259764e-21
5.285722656980489 3.1443613642814246e-24 4.4117028842710757e-16 4.411655438663636e-16 4.744560744018448e-21
5.305582063971359 3.1854817748422168e-24 4.486189288674153e-16 4.486140985933953e-16 4.830274020045781e-21
5.3255160863122235 3.2296460864818912e-24 4.565476037382902e-16 4.565426860247143e-16 4.9177135761218974e-21
5.365609099470188 3.3395430803885495e-24 4.756368707246021e-16 4.756317711411134e-16 5.099583488620191e-21
5.406003951863644 3.4536201822558514e-24 4.955875247189465e-16 4.955822372473376e-16 5.287471608965609e-21
5.446702915881641 3.572079242875584e-24 5.164451527446585e-16 5.16439671174067e-16 5.481570591463793e-21
5.487708281020852 3.7000564755063356e-24 5.389752253886895e-16 5.389695428462392e-16 5.682542450384783e-21
5.529022354014368 3.8777735713353764e-24 5.691152528370964e-16 5.691093585634735e-16 5.894273622915808e-21
5.570647458961463 4.0659493502510415e-24 6.012250569409095e-16 6.012189437568861e-16 6.113184023525061e-21
5.612585937458331 4.2653361657898205e-24 6.354563178806604e-16 6.354499783670661e-16 6.3395135945281826e-21
5.654840148729818 4.48447371963413e-24 6.731335687507441e-16 6.731269946015516e-16 6.574149192677424e-21
5.67608639626678 4.633644651238419e-24 6.981378038934382e-16 6.981311066611688e-16 6.69723226945646e-21
5.686739436050992 4.71053125634289e-24 7.110541122652252e-16 7.110473526938056e-16 6.7595714194964274e-21
5.6974124697621304 4.7890008804199815e-24 7.242558498435088e-16 7.242490273950869e-16 6.822448421678493e-21
5.718818669136295 4.950841608213969e-24 7.515446568879282e-16 7.515377070533513e-16 6.949834577048717e-21
5.740305295436557 5.129220905322216e-24 7.815483084897233e-16 7.81541228429396e-16 7.080060327584813e-21
5.7835210386641895 5.5918676151076714e-24 8.584571732553713e-16 8.584498208932301e-16 7.352362140951756e-21
5.827062130521658 6.124747095425062e-24 9.473429820612385e-16 9.4733534608006e-16 7.635981178919697e-21
5.8489554468988025 6.498518731965193e-24 1.0089325221756756e-15 1.0089247339084178e-15 7.788267257991643e-21
5.870931020387893 6.899582811638393e-24 1.07522472466749e-15 1.0752167812219155e-15 7.943445574709768e-21
5.892989160043636 7.330135185563185e-24 1.1466135229004266e-15 1.1466054213280291e-15 8.101572397655475e-21
5.915130176081913 7.819768438197943e-24 1.2278000098723508e-15 1.2277917441893187e-15 8.26568303222009e-21
5.95966208400165 9.18868408027256e-24 1.4535982414546776e-15 1.4535896116119575e-15 8.6298427207924e-21
6.004529249263818 1.1161567343515734e-23 1.7789903065119037e-15 1.778981269208458e-15 9.037303445779216e-21
6.027089341400364 1.2532924098814014e-23 2.005069689201078e-15 2.005060420958937e-15 9.268242140839045e-21
6.049734195844842 1.4153398409622845e-23 2.2728274122491126e-15 2.272817899294897e-15 9.512954215503512e-21
6.095279466722835 1.8834206658290047e-23 3.047266148067464e-15 3.0472560511860047e-15 1.0096881460012527e-20
6.141167624020661 2.6037534579139293e-23 4.244438492283814e-15 4.244427657794421e-15 1.0834489391610303e-20
6.164241091010745 3.063780470600317e-23 5.013103749780197e-15 5.0130924637318405e-15 1.1286048354697498e-20
6.187401249150058 3.58778826067847e-23 5.89256685022788e-15 5.8925550935404485e-15 1.1756687433577697e-20
6.1990139391386085 3.843662376714816e-23 6.324661382210661e-15 6.324649384726073e-15 1.1997484588069262e-20
6.204828454712694 3.978444380300142e-23 6.552582580770511e-15 6.552570460919841e-15 1.2119850672418597e-20
6.210648424152782 4.076845509643465e-23 6.72094950558071e-15 6.72093727819828e-15 1.2227382430331344e-20
6.233982942956859 4.411177285979366e-23 7.299440203381624e-15 7.299427585497867e-15 1.2617883757825554e-20
6.239830258556775 4.4539289056662994e-23 7.377096921046533e-15 7.377084237900026e-15 1.2683146510175253e-20
6.245683058788269 4.4576611060777314e-23 7.390203935599753e-15 7.390191186859454e-15 1.2748740297125917e-20
6.257405133728602 4.44853421923316e-23 7.38891452753288e-15 7.388901657338583e-15 1.2870194300691064e-20
6.269149208991335 4.3828546759434144e-23 7.29348527128887e-15 7.293472325171016e-15 1.2946117855139752e-20
6.280915325867298 4.218061895403432e-23 7.0324284130071015e-15 7.0324154478458394e-15 1.2965161261789687e-20
6.304513850009849 3.8116388194087906e-23 6.378708818884692e-15 6.3786958674577104e-15 1.2951426983082344e-20
6.32820103803542 3.3078430124572695e-23 5.5564139218689345e-15 5.556401040124646e-15 1.2881744290584906e-20
6.3519772230701035 2.845821504841624e-23 4.798284803145111e-15 4.7982719737033424e-15 1.2829441768270908e-20
6.375842739491607 2.457115774970429e-23 4.158461162835322e-15 4.158448367260119e-15 1.2795575204462181e-20
6.399797922933955 2.1456129113232137e-23 3.6449121726170854e-15 3.644899343270468e-15 1.282934661691363e-20
6.42384311029221 1.8866194756809868e-23 3.2169823047239965e-15 3.216969427000852e-15 1.2877723145272238e-20
6.447978639727206 1.6979143424874284e-23 2.9060882602844705e-15 2.9060752790993924e-15 1.2981185078341133e-20
6.472204850670314 1.5407172648345833e-23 2.6469432903720396e-15 2.6469301931630938e-15 1.3097208945315004e-20
6.496522083828205 1.4385877262963046e-23 2.480771150993808e-15 2.480757891329483e-15 1.3259664325584398e-20
6.520930681187647 1.3525639266674887e-23 2.341190844619592e-15 2.3411774130989576e-15 1.3431520634311904e-20
