Dust emission spectrum from A.P. Jones, M. Kohler, N. Ysard, M. Bocchio, and L. Verstraete (2017), A&A, 602A, 46J 
inside the DustPedia framework.

lambda    nu*dP/dnu     j_nu    j_nu(carb.) j_nu(sil)
 (um)   (erg s-1 H-1) (Jy cm2 sr-1 H-1)
0.9927057738263894 1.5391874866494187e-24 4.055846451425149e-17 4.0558464513725195e-17 5.262841126986763e-28
1.0001793341362166 1.564478434549541e-24 4.153525593838409e-17 4.153525593775004e-17 6.340385065116657e-28
1.0077091589558085 1.58972978575129e-24 4.2523396926724726e-17 4.252339692596185e-17 7.628782787958245e-28
1.0114953028030835 1.6023375051617074e-24 4.3021673649862725e-17 4.3021673649026335e-17 8.364037572245982e-28
1.0152956718711033 1.6149316068331182e-24 4.352272732499121e-17 4.352272732407449e-17 9.16720648779304e-28
1.0229392996569957 1.6400616220420769e-24 4.453274470083979e-17 4.45327446997396e-17 1.1001828331693697e-27
1.0267826658714554 1.6525669163460358e-24 4.504089539024953e-17 4.5040895389044825e-17 1.2047138307324653e-27
1.0306404723013447 1.6650530703096854e-24 4.5551712232069164e-17 4.5551712230750404e-17 1.318750972083412e-27
1.03451277320114 1.677518881185361e-24 4.6065173092274816e-17 4.606517309083171e-17 1.4431167423467915e-27
1.0383996230291617 1.6899631531662907e-24 4.658125556862381e-17 4.6581255567045094e-17 1.5787008698191141e-27
1.0403485208654093 1.6961768403361277e-24 4.684027284013398e-17 4.6840272838483e-17 1.6509975048993355e-27
1.0423010764483396 1.7023846976162473e-24 4.709993699603511e-17 4.709993699430869e-17 1.7264654780595223e-27
1.0462171883269815 1.714782333294109e-24 4.762119445197754e-17 4.7621194450090084e-17 1.8874506040204504e-27
1.0471985131304309 1.7178778687631703e-24 4.7751908610110255e-17 4.775190860818035e-17 1.9298923632592537e-27
1.048180758391296 1.7209718182818537e-24 4.7882781958287367e-17 4.788278195631411e-17 1.9732486226484043e-27
1.0501480137395462 1.7271548865732672e-24 4.814500476186191e-17 4.814500475979913e-17 2.0627801059832903e-27
1.0521189612883777 1.733331392689955e-24 4.840785992737886e-17 4.840785992522266e-17 2.1561996706616465e-27
1.0531058218030118 1.7364123683622932e-24 4.853939034981983e-17 4.8539390347615435e-17 2.2044205565657182e-27
1.0540936079674168 1.7394760173075002e-24 4.867064012470343e-17 4.867064012244974e-17 2.2536847312070612e-27
1.058054026499678 1.7517126620064972e-24 4.919717286022223e-17 4.9197172857760735e-17 2.4615030025141303e-27
1.0590464539527713 1.7547672461918438e-24 4.9329187569625286e-17 4.932918756710901e-17 2.5162585739064155e-27
1.06003981227728 1.7578199640114906e-24 4.946135413276435e-17 4.946135413019216e-17 2.5721802892626242e-27
1.0620293250338977 1.7639197296855146e-24 4.9726141300333185e-17 4.972614129764556e-17 2.687617173784434e-27
1.0660195594769086 1.776096087021513e-24 5.0257521113109607e-17 5.0257521110176073e-17 2.933555752654681e-27
1.070024785945596 1.788240609544967e-24 5.0791287748118705e-17 5.079128774491774e-17 3.200967569310029e-27
1.0740450607676866 1.8003521818251553e-24 5.1327416441837707e-17 5.132741643834607e-17 3.491630623180401e-27
1.07808044048254 1.8124296976503064e-24 5.1865882223060316e-17 5.1865882219252866e-17 3.8074615301888844e-27
1.0861967418109137 1.8364567098022466e-24 5.294910505964401e-17 5.294910505512094e-17 4.523048249636532e-27
1.0902777775684922 1.848355216373808e-24 5.3492393509492915e-17 5.349239350456549e-17 4.927426152584524e-27
1.0943741465085532 1.8602144891819634e-24 5.4037877260650516e-17 5.403787725528428e-17 5.366236976855051e-27
1.1026131145906286 1.8838111385691383e-24 5.513532605623504e-17 5.5135326049876574e-17 6.358468211285631e-27
1.1109141095355224 1.907238372596358e-24 5.624124055469373e-17 5.624124054716916e-17 7.524554758307343e-27
1.1192775983109025 1.9304661865029462e-24 5.735475696114079e-17 5.735475695224762e-17 8.89316922278334e-27
1.1277040513999907 1.9533861021068393e-24 5.847263526665622e-17 5.847263525615882e-17 1.0497400037974131e-26
1.1361939428280308 1.9761096849781788e-24 5.959817339370686e-17 5.95981733813315e-17 1.2375375084960998e-26
1.1447477501889525 1.998629412931857e-24 6.073115016658677e-17 6.073115015201578e-17 1.4570975812074672e-26
1.1533659546722406 2.0209503104281846e-24 6.187172098559291e-17 6.187172096845826e-17 1.7134661906024635e-26
1.1707974979042381 2.0650687137411616e-24 6.417793303733768e-17 6.4177933013731e-17 2.3606648250221256e-26
1.1884924949847024 2.108297380869327e-24 6.651165369025633e-17 6.651165365789337e-17 3.2362939855119725e-26
1.2064549276569216 2.1509777282600235e-24 6.888369708542006e-17 6.888369704126848e-17 4.4151560604788607e-26
1.2246888378427687 2.192641053422633e-24 7.127918639854832e-17 7.127918633860474e-17 5.994359133638797e-26
1.2431983285522175 2.233190293827919e-24 7.369458579307115e-17 7.369458571207574e-17 8.099539528913193e-26
1.2619875648066055 2.2726111646565487e-24 7.61289157509821e-17 7.612891564205797e-17 1.0892411309170852e-25
1.3004222497298317 2.3474123466344934e-24 8.102950932733425e-17 8.102950913307706e-17 1.9425720842064976e-25
1.3400274889804893 2.416759272320088e-24 8.596398387479474e-17 8.596398353462046e-17 3.4017425831818386e-25
1.3808389325824078 2.4804030479031234e-24 9.091482619405037e-17 9.091482560886073e-17 5.851895987124364e-25
1.4228933163050095 2.5386669922589275e-24 9.588430148921182e-17 9.588430049980461e-17 9.89407214311425e-25
1.466228494730424 2.5929761599807574e-24 1.0091822707296593e-16 1.0091822542801554e-16 1.644950405379621e-24
1.5108834753276823 2.642276861278478e-24 1.0596897314321e-16 1.0596897045278551e-16 2.6904244745568773e-24
1.5568984535646726 2.685720309148529e-24 1.1099170007313181e-16 1.10991695739727e-16 4.333404835662347e-24
1.6043148490894465 2.723399602579743e-24 1.1597660889760998e-16 1.1597660201155928e-16 6.886050699825918e-24
1.6531753430134553 2.7554437080859353e-24 1.209149206871956e-16 1.2091490990390114e-16 1.0783294431483912e-23
1.7035239163302658 2.782249334017882e-24 1.2580958081501393e-16 1.2580956417018299e-16 1.664483089852613e-23
1.755405889504358 2.8060429184950665e-24 1.307498783430945e-16 1.3074985300504895e-16 2.5338045581772172e-23
1.8088679632656115 2.8262920525068858e-24 1.3570421508251428e-16 1.3570417702952536e-16 3.805298891623827e-23
1.8639582606462262 2.8426413171571838e-24 1.40646095518063e-16 1.406460391152167e-16 5.640284632872567e-23
1.9207263702978936 2.855373302316318e-24 1.4557869655901923e-16 1.4557861401673704e-16 8.254228223249637e-23
1.979223391128241 2.8651270513545163e-24 1.5052482574303353e-16 1.5052470643065826e-16 1.193123752981616e-22
2.039501978296691 2.872663780147848e-24 1.5551717643202926e-16 1.5551700602541027e-16 1.7040661900398574e-22
2.1016163906111602 2.8800898421013627e-24 1.6066782529320284e-16 1.6066758471166254e-16 2.4058154034177286e-22
2.1656225393682647 2.8886323966109812e-24 1.6605213869217654e-16 1.660518028258041e-16 3.3586637248219094e-22
2.231578038680979 2.8983910005791965e-24 1.716874239550536e-16 1.7168696014677478e-16 4.638082787772269e-22
2.299542257339062 2.910104865968005e-24 1.776312888413352e-16 1.7763065509475843e-16 6.337465767792906e-22
2.369576372248914 2.9253915007299793e-24 1.840026759729007e-16 1.8400181884939297e-16 8.571235077731414e-22
2.4417434235010123 2.9461585979120054e-24 1.9095260253785233e-16 1.9095145475965916e-16 1.1477781931073532e-21
2.5161083711144245 2.9756645692221395e-24 1.9873883955473598e-16 1.9873731723704452e-16 1.5223176914226268e-21
2.5927381535095444 3.019234606960258e-24 2.0779014802207098e-16 2.077881475699891e-16 2.0004520818708102e-21
2.6717017477616296 3.08322088698452e-24 2.1865632624032557e-16 2.1865372102069104e-16 2.6052196345269543e-21
2.753070231689431 3.1771788547581846e-24 2.3218191404381086e-16 2.321785507335819e-16 3.3633102288870567e-21
2.836916847834745 3.322750064400528e-24 2.502152150227327e-16 2.5021090952750186e-16 4.30549523085023e-21
2.9233170693905177 3.5675865732299806e-24 2.768342857843837e-16 2.768288197606993e-16 5.466023684372666e-21
2.967498994190263 3.77426561128829e-24 2.9729833265571426e-16 2.972922020004093e-16 6.130655305019731e-21
3.0123486681368425 4.015388431352481e-24 3.210718532864801e-16 3.21064986252908e-16 6.867033572117e-21
3.0578761833420214 4.55231457717153e-24 3.6950608504792175e-16 3.6949840126076695e-16 7.683787154694881e-21
3.1040917844459814 5.243716746178687e-24 4.3205915452372574e-16 4.320505725277865e-16 8.581995939166898e-21
3.127460860933648 5.973831509448688e-24 4.959230401168349e-16 4.959139734442247e-16 9.066672610255458e-21
3.1510058709225794 6.946287802145316e-24 5.809936939916274e-16 5.809841193371563e-16 9.574654471083606e-21
3.162844764501044 7.850953363254188e-24 6.591279186730531e-16 6.591180800613349e-16 9.838611717991294e-21
3.1747281389236908 8.902929565219143e-24 7.502550232774155e-16 7.502449145854878e-16 1.0108691927759423e-20
3.1986289994194426 1.1836830414160348e-23 1.0050061720819132e-15 1.0049955030786164e-15 1.066900329701054e-20
3.2227097969389145 1.8751022916848444e-23 1.6040414879671136e-15 1.6040302222605157e-15 1.126570659807497e-20
3.2348180950136065 2.5307305725317373e-23 2.173027430260279e-15 2.173015845324918e-15 1.1584935360450021e-20
3.240889293275058 3.0208817972717703e-23 2.5987671082436232e-15 2.5987553548891336e-15 1.175335448873e-20
3.2469718861334385 3.587912830170427e-23 3.0923585581448105e-15 3.0923466304961364e-15 1.1927648674322127e-20
3.2714166318528037 6.612340233721483e-23 5.741964222972205e-15 5.741951572596898e-15 1.2650375310605124e-20
3.2744851364798273 6.801401957560297e-23 5.911679740503811e-15 5.911667004294278e-15 1.2736209532366198e-20
3.2775565192852394 6.995892095465608e-23 6.0864313081182894e-15 6.086418485580897e-15 1.282253739302737e-20
3.283707930232385 6.808851451251496e-23 5.93482358793983e-15 5.9348106097027436e-15 1.2978237083961815e-20
3.2898708863219004 6.21569210753204e-23 5.427974275551774e-15 5.427961154398184e-15 1.3121153590616089e-20
3.29141343181113 6.075810000293439e-23 5.308307276984638e-15 5.308294119909626e-15 1.315707501215263e-20
3.292184975758714 6.007076831793256e-23 5.249486804534739e-15 5.249473629470101e-15 1.3175064640805461e-20
3.295272960557952 5.573243699879812e-23 4.874935361068988e-15 4.874922115798997e-15 1.3245269992710269e-20
3.3076538914384823 4.0702968694335065e-23 3.5736793134003544e-15 3.573665785489418e-15 1.3527910934965937e-20
3.310756385682612 3.7644023580120525e-23 3.3082071444011334e-15 3.3081935451088655e-15 1.3599292266976225e-20
3.313861789986515 3.482164030134784e-23 3.0630426895817334e-15 3.063029018618265e-15 1.3670963466982878e-20
3.3200813396944477 3.086366967686575e-23 2.719980052230484e-15 2.7199662276565035e-15 1.3824573980391173e-20
3.345076488085796 2.3804063537406133e-23 2.1136184271499533e-15 2.1136039192682893e-15 1.4507881664210448e-20
3.3482140837626964 2.4068975544548813e-23 2.1391451661926336e-15 2.139130565779876e-15 1.4600412756990876e-20
3.3513546224236106 2.433681344942861e-23 2.164978217423967e-15 2.1649635239892544e-15 1.469343471385275e-20
3.3576445397418455 2.6293468191300988e-23 2.3434302138353517e-15 2.343415326114022e-15 1.4887721330075564e-20
3.3702598118196083 3.3509648194946106e-23 2.9978001924472353e-15 2.997784896999528e-15 1.52954477081176e-20
3.382922481734668 3.515358321350262e-23 3.1566837792721515e-15 3.1566680850820633e-15 1.569419008858773e-20
3.389271646505754 3.600522795913923e-23 3.2392269453058017e-15 3.2392110485052414e-15 1.589680055957417e-20
3.395632727569191 3.69229523875273e-23 3.328024877358045e-15 3.3280087717181864e-15 1.6105639858227855e-20
3.421196662673239 4.132943287663562e-23 3.753245034317416e-15 3.753228061282166e-15 1.6973035250622632e-20
3.4276182099114902 4.04419591355184e-23 3.6795445076777945e-15 3.679527338402904e-15 1.716927489080078e-20
3.4340518103208963 3.6552188277691004e-23 3.331882352996067e-15 3.33186499682099e-15 1.7356175077707363e-20
3.4469541582030403 3.101242536009226e-23 2.8375313780471542e-15 2.8375136604824346e-15 1.771756471870175e-20
3.472904465399547 2.946076165433763e-23 2.7158528806257967e-15 2.7158343339852e-15 1.8546640595915216e-20
3.4990501388274233 2.708717458683616e-23 2.515841667414152e-15 2.5158222659111907e-15 1.9401502961793756e-20
3.5253949054701885 1.8637776678408365e-23 1.7440997074959174e-15 1.744079465445526e-15 2.024205039096681e-20
3.5519380250092896 1.069630970984767e-23 1.008483464910752e-15 1.0084623696935798e-15 2.109521717186322e-20
3.578680990867387 7.548445778129464e-24 7.170508571120421e-16 7.170288249567586e-16 2.2032155283395102e-20
3.605625307711299 6.2761242973874085e-24 6.006777737915743e-16 6.006547493518126e-16 2.302443976178515e-20
3.660119384959845 5.349830648059029e-24 5.197622320668431e-16 5.197370989176697e-16 2.5133149173235675e-20
3.715437065384467 4.694768176868097e-24 4.630133300779167e-16 4.629859382510541e-16 2.7391826862618674e-20
3.8285932144167436 4.366767270643505e-24 4.4378100046412637e-16 4.437486265623657e-16 3.2373901760729825e-20
3.94519561050918 4.308755992891209e-24 4.512215933384005e-16 4.511835873988862e-16 3.800593951428266e-20
4.06534921144712 4.36174385164397e-24 4.70681845718118e-16 4.706375066330373e-16 4.433908508050688e-20
4.189162171576248 4.47909585198172e-24 4.980660763283648e-16 4.980146290928351e-16 5.1447235529803334e-20
4.316745939156006 4.6434026587012355e-24 5.320620309692386e-16 5.320026513529552e-16 5.937961628356322e-20
4.448215356677963 4.848789050754401e-24 5.725171865960391e-16 5.724490680790519e-16 6.811851698715523e-20
4.58368876423945 5.0959039333190654e-24 6.200201249578635e-16 6.199423672998285e-16 7.775765803532383e-20
4.723288106065518 5.390228933807865e-24 6.758045026447934e-16 6.757160577930398e-16 8.844485175372997e-20
4.867139040275056 5.74278456739966e-24 7.419347466637126e-16 7.418346812854031e-16 1.0006537830960374e-19
4.940699165968905 5.9548141026386984e-24 7.809550763265676e-16 7.808487886407067e-16 1.0628768586072415e-19
5.015371051989984 6.1742042874998525e-24 8.219653249576241e-16 8.218525363662035e-16 1.1278859142088695e-19
5.091171501069577 6.44127990105787e-24 8.704810706984927e-16 8.703613788296628e-16 1.196918688297888e-19
5.129500256944802 6.5782717777462835e-24 8.956870622949341e-16 8.95563806491723e-16 1.2325580321108937e-19
5.168117569889187 6.721010977570967e-24 9.220116799580928e-16 9.218847611093461e-16 1.269188487463077e-19
5.20702561229733 6.895951443530652e-24 9.53132639040118e-16 9.53001777585969e-16 1.3086145414916855e-19
5.246226572918644 7.075281072784189e-24 9.852811480400133e-16 9.85146252043783e-16 1.348959962305784e-19
5.265937586045735 7.166635221714356e-24 1.001752511835883e-15 1.0016155636356719e-15 1.3694820021091694e-19
5.285722656980489 7.259139500999857e-24 1.0184951080266766e-15 1.018356084087296e-15 1.390239393808677e-19
5.305582063971359 7.352812333218132e-24 1.035513943021955e-15 1.035372819621348e-15 1.4112340060744085e-19
5.3255160863122235 7.453414817804763e-24 1.0536258721905343e-15 1.0534826146842589e-15 1.4325750627517283e-19
5.365609099470188 7.703813619008322e-24 1.0972213006949339e-15 1.097073618126537e-15 1.4768256839655604e-19
5.406003951863644 7.963637591204968e-24 1.1427659190380665e-15 1.1426137068026743e-15 1.5221223539210996e-19
5.446702915881641 8.23334148675154e-24 1.1903625347071938e-15 1.1902056863931257e-15 1.5684831406816105e-19
5.487708281020852 8.5246569365403e-24 1.2417591256101885e-15 1.2415975197209887e-15 1.6160588919989455e-19
5.529022354014368 8.929475393085452e-24 1.3105202128365687e-15 1.3103536215539572e-15 1.6659128261184518e-19
5.570647458961463 9.35799074202656e-24 1.3837502713554569e-15 1.3835785744877543e-15 1.7169686770239602e-19
5.612585937458331 9.811908583645247e-24 1.4617931758704181e-15 1.4616162509726629e-15 1.7692489775561508e-19
5.654840148729818 1.0310729325965151e-23 1.5476728065598133e-15 1.5474905115434785e-15 1.8229501633468904e-19
5.67608639626678 1.0650533225883957e-23 1.6046849588747487e-15 1.6044998552996322e-15 1.851035751160811e-19
5.686739436050992 1.0825661007758953e-23 1.6341321941535124e-15 1.6339456733289487e-15 1.8652082456290337e-19
5.6974124697621304 1.1004383809993308e-23 1.6642279981397512e-15 1.6640400513611392e-15 1.8794677861177422e-19
5.718818669136295 1.1372960700268829e-23 1.7264312865720804e-15 1.7262404615963533e-15 1.9082497572762646e-19
5.740305295436557 1.1779239084179382e-23 1.794823142045607e-15 1.7946293878267567e-15 1.937542188501477e-19
5.7835210386641895 1.2833414797182895e-23 1.970171282352712e-15 1.9699714377021153e-15 1.9984465059765918e-19
5.827062130521658 1.4047487001117113e-23 2.172789834219465e-15 2.1725837059444164e-15 2.0612827504851624e-19
5.8489554468988025 1.4899537777859737e-23 2.3132391933448837e-15 2.3130296969714814e-15 2.0949637340241493e-19
5.870931020387893 1.5813688175843756e-23 2.4643908159443486e-15 2.4641779055369186e-15 2.129104074299003e-19
5.892989160043636 1.6794932198074325e-23 2.6271406852680362e-15 2.6269243143442133e-15 2.1637092382338082e-19
5.915130176081913 1.79108744353455e-23 2.812228006793439e-15 2.81200805204111e-15 2.199547523299828e-19
5.95966208400165 2.1031840615826425e-23 3.327119124636781e-15 3.3268911863237454e-15 2.2793831303611966e-19
6.004529249263818 2.5530350370190815e-23 4.069163804025031e-15 4.068926962516924e-15 2.3684150810723347e-19
6.027089341400364 2.8657751803984395e-23 4.584787161381924e-15 4.584545268308642e-15 2.41893073283046e-19
6.049734195844842 3.2353069230471767e-23 5.195426602801963e-15 5.195179371190921e-15 2.4723161104072677e-19
6.095279466722835 4.3028369537636174e-23 6.9617423381548604e-15 6.961482321250765e-15 2.600169040915932e-19
6.141167624020661 5.945708214953299e-23 9.692235927611423e-15 9.69195972986784e-15 2.76197743579269e-19
6.164241091010745 6.99499297256602e-23 1.1445541166200424e-14 1.1445255019508497e-14 2.8614669192205947e-19
6.187401249150058 8.190101155296834e-23 1.3451384268309306e-14 1.3451087836836395e-14 2.9643147290631423e-19
6.1990139391386085 8.773689083165482e-23 1.4436911228204147e-14 1.4436609548033634e-14 3.0168017051953925e-19
6.204828454712694 9.08108491512999e-23 1.4956740158043754e-14 1.4956435819581047e-14 3.043384627012958e-19
6.210648424152782 9.305512076792462e-23 1.5340752217310074e-14 1.5340445561087356e-14 3.0665622271870637e-19
6.233982942956859 1.0068008546594237e-22 1.6660138912708283e-14 1.665982394568096e-14 3.1496702731722296e-19
6.239830258556775 1.0165492545044011e-22 1.683722963327072e-14 1.683691334311455e-14 3.1629015617684624e-19
6.245683058788269 1.0173975309188471e-22 1.6867085806084663e-14 1.686676818788357e-14 3.1761820109581676e-19
6.257405133728602 1.0153095970593026e-22 1.6864062322416487e-14 1.686374227859512e-14 3.200438213699363e-19
6.269149208991335 1.0003220295543022e-22 1.6646305954759164e-14 1.6645984536819367e-14 3.214179397922549e-19
6.280915325867298 9.627263893155413e-23 1.6050746959289962e-14 1.605042547566982e-14 3.214836201427851e-19
6.304513850009849 8.700065995131311e-23 1.4559403531479034e-14 1.4559083106373555e-14 3.2042510548035774e-19
6.32820103803542 7.550764137116779e-23 1.2683543570303071e-14 1.2683225469725177e-14 3.181005778890089e-19
6.3519772230701035 6.496729749610427e-23 1.0954010845255493e-14 1.0953694664796251e-14 3.1618045924034323e-19
6.375842739491607 5.609861967036355e-23 9.494218122086006e-15 9.493903453186567e-15 3.1466889943952847e-19
6.399797922933955 4.8991474347008957e-23 8.322545984855468e-15 8.322231280712039e-15 3.1470414342781444e-19
6.42384311029221 4.308148630926543e-23 7.346069565410918e-15 7.345754513746121e-15 3.1505166479857086e-19
6.447978639727206 3.8775057411952714e-23 6.636597401707056e-15 6.636280773240066e-15 3.16628466988329e-19
6.472204850670314 3.518700685865479e-23 6.045107291167457e-15 6.044788825649188e-15 3.184655182682787e-19
6.496522083828205 3.2855262454741505e-23 5.665722414155015e-15 5.665401094236441e-15 3.213199185777326e-19
6.520930681187647 3.089072618150312e-23 5.346962453595369e-15 5.346638097083429e-15 3.243565119405917e-19
