Dust emission spectrum from A.P. Jones, M. Kohler, N. Ysard, M. Bocchio, and L. Verstraete (2017), A&A, 602A, 46J 
inside the DustPedia framework.

lambda    nu*dP/dnu     j_nu    j_nu(carb.) j_nu(sil)
 (um)   (erg s-1 H-1) (Jy cm2 sr-1 H-1)
0.9927057738263894 3.918719816508453e-20 1.032604929534185e-12 1.032604776831107e-12 1.5270307796343673e-19
1.0001793341362166 3.9843756302373824e-20 1.0578097971942965e-12 1.0578096134911674e-12 1.837031292372969e-19
1.0077091589558085 4.050320787941924e-20 1.0834130434614905e-12 1.0834128227621185e-12 2.206993718812761e-19
1.0114953028030835 4.0833994237349385e-20 1.0963650093944036e-12 1.096364767612344e-12 2.417820596222034e-19
1.0152956718711033 4.116547517053423e-20 1.1094177260944519e-12 1.1094174613049361e-12 2.64789516136692e-19
1.0229392996569957 4.1830160820025506e-20 1.1358182202165301e-12 1.1358179029522521e-12 3.1726427781485116e-19
1.0267826658714554 4.216261310566699e-20 1.1491467168366486e-12 1.1491463697179955e-12 3.471186523929313e-19
1.0306404723013447 4.2495709197112385e-20 1.1625769478233652e-12 1.1625765681687745e-12 3.7965459071390497e-19
1.03451277320114 4.2829441400761984e-20 1.1761093444011957e-12 1.1761089293006072e-12 4.151005885795566e-19
1.0383996230291617 4.3163802372706487e-20 1.1897443478986713e-12 1.1897438941951926e-12 4.537034791073832e-19
1.0403485208654093 4.333121644955144e-20 1.1966004680205873e-12 1.1965999937493426e-12 4.74271244683039e-19
1.0423010764483396 4.349878512732005e-20 1.2034824101565567e-12 1.2034819144267508e-12 4.957298062914172e-19
1.0462171883269815 4.3834383045820206e-20 1.2173239939424114e-12 1.217323452475118e-12 5.414672934519524e-19
1.0471985131304309 4.3918377904783066e-20 1.2208006204325855e-12 1.2208000669151913e-12 5.535173940902289e-19
1.048180758391296 4.4002410725565305e-20 1.2242837541144322e-12 1.224283188290621e-12 5.658238108055531e-19
1.0501480137395462 4.4170589884790835e-20 1.231269573371463e-12 1.2312689821450505e-12 5.912264125171201e-19
1.0521189612883777 4.433891980311249e-20 1.238281512821061e-12 1.2382808951033238e-12 6.177177370597299e-19
1.0531058218030118 4.442303085804437e-20 1.241794215837337e-12 1.2417935844509688e-12 6.313863680699147e-19
1.0540936079674168 4.450681825924654e-20 1.2453033632187393e-12 1.245302717871683e-12 6.453470562061924e-19
1.058054026499678 4.4842326116584864e-20 1.2594049910474995e-12 1.2594042868489492e-12 7.041985496626148e-19
1.0590464539527713 4.4926292256228383e-20 1.2629466969621143e-12 1.2629459772680776e-12 7.19694036098987e-19
1.06003981227728 4.5010293916474537e-20 1.2664949383906316e-12 1.2664942028754886e-12 7.355151431552332e-19
1.0620293250338977 4.5178403512670503e-20 1.2736110600651059e-12 1.2736102919047822e-12 7.681603234158848e-19
1.0660195594769086 4.551504589677803e-20 1.2879220875698986e-12 1.2879212499176603e-12 8.376522382204405e-19
1.070024785945596 4.5852249139144363e-20 1.3023386044886416e-12 1.3023376913620951e-12 9.131265462937284e-19
1.0740450607676866 4.619000953915813e-20 1.3168611558352705e-12 1.3168601607650553e-12 9.95070215117642e-19
1.07808044048254 4.652832383348841e-20 1.3314903011756617e-12 1.3314892171682578e-12 1.0840074042306513e-18
1.0861967418109137 4.7206091083146263e-20 1.361055919736757e-12 1.3610546345756742e-12 1.285161082450208e-18
1.0902777775684922 4.754437537808591e-20 1.3759597800021964e-12 1.3759583813653798e-12 1.3986368165522408e-18
1.0943741465085532 4.788318520365528e-20 1.390971686293007e-12 1.3909701646628961e-12 1.5216301106455262e-18
1.1026131145906286 4.8562378493019153e-20 1.421322189607936e-12 1.4213203903695722e-12 1.799238364217189e-18
1.1109141095355224 4.924366996820575e-20 1.4521127134767128e-12 1.4521105887716067e-12 2.124705105544684e-18
1.1192775983109025 4.992654016550619e-20 1.4833331954342786e-12 1.4833306896633803e-12 2.5057708986966647e-18
1.1277040513999907 5.060858459590193e-20 1.514916741368337e-12 1.5149137900280908e-12 2.9513402465793368e-18
1.1361939428280308 5.129269578342896e-20 1.5469540989397121e-12 1.5469506272969022e-12 3.4716428091857366e-18
1.1447477501889525 5.1978907039734025e-20 1.5794517925633922e-12 1.579447714149197e-12 4.078414194895682e-18
1.1533659546722406 5.266749448827948e-20 1.6124238716679118e-12 1.6124190865616843e-12 4.785106227520128e-18
1.1707974979042381 5.4053925192249446e-20 1.6798807556910494e-12 1.679874193626984e-12 6.562064065483907e-18
1.1884924949847024 5.5450493375091e-20 1.7493281762732955e-12 1.7493192226600985e-12 8.95361319689332e-18
1.2064549276569216 5.686664848532787e-20 1.8211183393772695e-12 1.8211061831981345e-12 1.2156179135411867e-17
1.2246888378427687 5.82938347863487e-20 1.8950375434849726e-12 1.895021120445617e-12 1.6423039355588582e-17
1.2431983285522175 5.973121370166927e-20 1.971111492302198e-12 1.971089412689208e-12 2.207961298933193e-17
1.2619875648066055 6.118125663980153e-20 2.0494763049245872e-12 2.0494467630366157e-12 2.9541887971260914e-17
1.3004222497298317 6.411236483027135e-20 2.2130723949970014e-12 2.213020257475859e-12 5.213752114164799e-17
1.3400274889804893 6.709930776625563e-20 2.3867183947083366e-12 2.3866280716684756e-12 9.032303986145605e-17
1.3808389325824078 7.015692641616833e-20 2.571479170220662e-12 2.571325500428633e-12 1.536697920292151e-16
1.4228933163050095 7.331464465936231e-20 2.769060894370246e-12 2.768804010555321e-12 2.568838149248e-16
1.466228494730424 7.66300641891939e-20 2.9824301271317566e-12 2.9820079822691483e-12 4.2214486260866614e-16
1.5108834753276823 8.010473147649368e-20 3.2126141900093517e-12 3.211931922122518e-12 6.822678868325701e-16
1.5568984535646726 8.374517862823967e-20 3.4609038466195634e-12 3.4598182251559234e-12 1.0856214636396153e-15
1.6043148490894465 8.75819636609715e-20 3.729698402089624e-12 3.727994477632903e-12 1.7039244567197665e-15
1.6531753430134553 9.164920159798417e-20 4.021768221845831e-12 4.019133412035516e-12 2.6348098103142324e-15
1.7035239163302658 9.598719165073325e-20 4.3404119816069436e-12 4.336397071715211e-12 4.014909891733231e-15
1.755405889504358 1.0068500300518218e-19 4.691500549450637e-12 4.685468757754762e-12 6.03179169587455e-15
1.8088679632656115 1.0576610810731975e-19 5.078352277962686e-12 5.0694148320682986e-12 8.937445894386728e-15
1.8639582606462262 1.1125620062723569e-19 5.5046516512479624e-12 5.491585476966747e-12 1.3066174281213469e-14
1.9207263702978936 1.1720075951640382e-19 5.975377647568626e-12 5.956523231537398e-12 1.885441603122825e-14
1.979223391128241 1.236573413562324e-19 6.496570457737287e-12 6.46970630593919e-12 2.6864151798096774e-14
2.039501978296691 1.3068607101920847e-19 7.074941698487572e-12 7.0371339331609265e-12 3.780776532664743e-14
2.1016163906111602 1.3838977456908054e-19 7.720170321703536e-12 7.667591179037166e-12 5.25791426663716e-14
2.1656225393682647 1.4684926076209575e-19 8.441584274800702e-12 8.369304427948896e-12 7.22798468518074e-14
2.231578038680979 1.5610956789830564e-19 9.247216666709449e-12 9.148968488856647e-12 9.824817785280129e-14
2.299542257339062 1.6624111780169025e-19 1.0147271446768248e-11 1.0015182908071977e-11 1.320885386962723e-13
2.369576372248914 1.773319508345928e-19 1.1153909991506374e-11 1.0978208223966852e-11 1.7570176753951895e-13
2.4417434235010123 1.894772491449287e-19 1.2280796380608784e-11 1.2049491600255656e-11 2.3130478035312636e-13
2.5161083711144245 2.0280248621292588e-19 1.3544782965678213e-11 1.3243324896252849e-11 3.0145806942536445e-13
2.5927381535095444 2.1746719863515945e-19 1.4966555195867793e-11 1.4577478652997547e-11 3.8907654287024865e-13
2.6717017477616296 2.3361336879725225e-19 1.6567428301185462e-11 1.607001586078038e-11 4.974124404050836e-13
2.753070231689431 2.5140950901426503e-19 1.837250708260474e-11 1.774245981663092e-11 6.300472659738167e-13
2.836916847834745 2.712030046341731e-19 2.0422576722331217e-11 1.963167923919673e-11 7.908974831344941e-13
2.9233170693905177 2.936569971661944e-19 2.2786924271465928e-11 2.1802957735149638e-11 9.83966536316289e-13
2.967498994190263 3.0634288115112016e-19 2.4130582520420034e-11 2.3038959341566898e-11 1.0916231788531367e-12
3.0123486681368425 3.1981637277741745e-19 2.557262822127988e-11 2.4363114026461257e-11 1.2095141948186327e-12
3.0578761833420214 3.378760746157572e-19 2.7425008409721708e-11 2.6086162791094026e-11 1.3388456186276853e-12
3.1040917844459814 3.5805106006718966e-19 2.95018296710419e-11 2.8022795337593435e-11 1.4790343334484642e-12
3.127460860933648 3.7354031879861617e-19 3.100978830953293e-11 2.945591127774111e-11 1.5538770317918293e-12
3.1510058709225794 3.921743612191633e-19 3.280181260891009e-11 3.1170080761796924e-11 1.63173184711317e-12
3.162844764501044 4.0739585861418123e-19 3.4202977898353444e-11 3.253101654435533e-11 1.671961353998113e-12
3.1747281389236908 4.2432282174155275e-19 3.5757929586070034e-11 3.4044963191987174e-11 1.712966394082859e-12
3.1986289994194426 4.686102675973952e-19 3.97873581658259e-11 3.798980524550274e-11 1.7975529203231707e-12
3.2227097969389145 5.654804546544113e-19 4.8373580146668275e-11 4.6486556103155466e-11 1.887024043512822e-12
3.2348180950136065 6.543810140295515e-19 5.618882976962646e-11 5.4254098390983835e-11 1.9347313786426257e-12
3.240889293275058 7.202455357773503e-19 6.196039877918778e-11 6.000050260331662e-11 1.959896175871148e-12
3.2469718861334385 7.963976024503781e-19 6.864009963994733e-11 6.665416538412395e-11 1.9859342558233812e-12
3.2714166318528037 1.1934664246772397e-18 1.0363715824644468e-10 1.0154375216260794e-10 2.093406083836741e-12
3.2744851364798273 1.2185253633808489e-18 1.0591245376964248e-10 1.03806419695436e-10 2.106034074206512e-12
3.2775565192852394 1.2442323314288453e-18 1.0824830505161648e-10 1.0612958324865397e-10 2.118721802962493e-12
3.283707930232385 1.2210905662939072e-18 1.0643435457120834e-10 1.0429301886817657e-10 2.141335703031756e-12
3.2898708863219004 1.1452423212213878e-18 1.000105177560205e-10 9.78486718011766e-11 2.161845954843885e-12
3.29141343181113 1.1273273495506884e-18 9.84922170521249e-11 9.632522261086878e-11 2.1669944412561314e-12
3.292184975758714 1.1185204026709288e-18 9.774567995114347e-11 9.557610812598404e-11 2.169571825159432e-12
3.295272960557952 1.0634299959929414e-18 9.301858613502293e-11 9.083900194356075e-11 2.1795841914622197e-12
3.3076538914384823 8.712504461262057e-19 7.649490432734432e-11 7.42751399431342e-11 2.2197643842100898e-12
3.310756385682612 8.31776204207003e-19 7.309760539926997e-11 7.086772028036779e-11 2.2298851189021775e-12
3.313861789986515 7.95216365952486e-19 6.995022794122174e-11 6.771019179626589e-11 2.240036144955818e-12
3.3200813396944477 7.445612853295806e-19 6.56173379563337e-11 6.33554352541603e-11 2.2619027021734015e-12
3.345076488085796 6.592454909445047e-19 5.853594767490936e-11 5.6176509113628665e-11 2.359438561280675e-12
3.3482140837626964 6.635900887196852e-19 5.897698171618069e-11 5.6604326388061755e-11 2.3726553281189267e-12
3.3513546224236106 6.679689435457245e-19 5.942183908740718e-11 5.703591115241105e-11 2.385927934996107e-12
3.3576445397418455 6.953594127834712e-19 6.197456514811204e-11 5.956087467055192e-11 2.413690477560104e-12
3.3702598118196083 7.92246958734972e-19 7.087505280701906e-11 6.840313481211452e-11 2.471917994904541e-12
3.382922481734668 8.174685674897886e-19 7.34061660624309e-11 7.087776984562278e-11 2.52839621680812e-12
3.389271646505754 8.304291974737995e-19 7.470994589114974e-11 7.215294562797039e-11 2.5570002631793227e-12
3.395632727569191 8.446290582551117e-19 7.613005830384398e-11 7.354357962361644e-11 2.5864786802275413e-12
3.421196662673239 9.125927248259836e-19 8.287517815768651e-11 8.016679826556763e-11 2.7083798921188798e-12
3.4276182099114902 9.02623500995111e-19 8.212370064610842e-11 7.938824563156232e-11 2.7354550145460915e-12
3.4340518103208963 8.529352012869345e-19 7.774855294098978e-11 7.498755240610558e-11 2.7610005348841923e-12
3.4469541582030403 7.822009994196184e-19 7.156872943736791e-11 6.87588246258776e-11 2.8099048114903335e-12
3.472904465399547 7.6694976646959e-19 7.07015913913088e-11 6.777883534445171e-11 2.9227560468570866e-12
3.4990501388274233 7.414613456451412e-19 6.886651622416022e-11 6.582855886633713e-11 3.03795735782309e-12
3.5253949054701885 6.383120306909609e-19 5.973243725518779e-11 5.6583016497442945e-11 3.1494207577448304e-12
3.5519380250092896 5.403123631705849e-19 5.0942437057775514e-11 4.7681349627950485e-11 3.2610874298250147e-12
3.578680990867387 5.057261938670137e-19 4.80405386002805e-11 4.465710387959226e-11 3.3834347206882372e-12
3.605625307711299 4.961145306897111e-19 4.748232471501549e-11 4.397025178275772e-11 3.512072932257765e-12
3.660119384959845 4.983357274070218e-19 4.84157550089368e-11 4.463441983088717e-11 3.781335178049625e-12
3.715437065384467 5.039583883324718e-19 4.9702017823205824e-11 4.563827328199332e-11 4.063744541212511e-12
3.8285932144167436 5.28649212267922e-19 5.372497817596274e-11 4.905931389356579e-11 4.665664282396956e-12
3.94519561050918 5.57133946301285e-19 5.834418736352982e-11 5.302968339781877e-11 5.314503965711048e-12
4.06534921144712 5.871136800562129e-19 6.335625382289679e-11 5.7348499259711817e-11 6.007754563184974e-12
4.189162171576248 6.177655945067527e-19 6.869424006867485e-11 6.194926300380259e-11 6.744977064872277e-12
4.316745939156006 6.485818319561709e-19 7.431743316804462e-11 6.679601205186176e-11 7.521421116182847e-12
4.448215356677963 6.791350066525043e-19 8.018836440555812e-11 7.186434328818555e-11 8.324021117372578e-12
4.58368876423945 7.091883242136538e-19 8.628715123976342e-11 7.713515231236046e-11 9.151998927402974e-12
4.723288106065518 7.385928895529905e-19 9.260170699813391e-11 8.25927699808951e-11 1.000893701723884e-11
4.867139040275056 7.670279334761913e-19 9.909559880379269e-11 8.822719554070239e-11 1.0868403263090304e-11
4.940699165968905 7.810157060392677e-19 1.0242774498231078e-10 9.112631703596739e-11 1.1301427946343417e-11
5.015371051989984 7.945507273186458e-19 1.0577770290141263e-10 9.404271618836283e-11 1.1734986713049814e-11
5.091171501069577 8.082417121229109e-19 1.0922660119712963e-10 9.704745213512045e-11 1.2179149062009162e-11
5.129500256944802 8.148908062988082e-19 1.1095424102939526e-10 9.85534697746969e-11 1.2400771254698355e-11
5.168117569889187 8.214714924991826e-19 1.1269231866521765e-10 1.0006773614867319e-10 1.262458251654442e-11
5.20702561229733 8.284923428294761e-19 1.1451111563240507e-10 1.0164002781721237e-10 1.2871087815192708e-11
5.246226572918644 8.353865582910424e-19 1.1633327619679991e-10 1.0321540804216985e-10 1.3117868154630028e-11
5.265937586045735 8.387853069228263e-19 1.1724543835509643e-10 1.0400411984386544e-10 1.3241318511231025e-11
5.285722656980489 8.421513700244972e-19 1.1815822666994796e-10 1.0479344074602156e-10 1.3364785923926349e-11
5.305582063971359 8.454844247962288e-19 1.1907157027917837e-10 1.0558331727904348e-10 1.3488253000134851e-11
5.3255160863122235 8.488715575608816e-19 1.1999775365732896e-10 1.063849009096085e-10 1.3612852747720446e-11
5.365609099470188 8.562184144680406e-19 1.2194753519004656e-10 1.0807669745044603e-10 1.3870837739600584e-11
5.406003951863644 8.634587816962422e-19 1.2390459220624758e-10 1.0977559350933698e-10 1.4128998696910609e-11
5.446702915881641 8.70592228049762e-19 1.2586874635836069e-10 1.114815504505819e-10 1.4387195907778774e-11
5.487708281020852 8.777784932232609e-19 1.2786314597038942e-10 1.1321657141064719e-10 1.464657455974221e-11
5.529022354014368 8.862718075041341e-19 1.3007226815371026e-10 1.151552919042289e-10 1.4916976249481338e-11
5.570647458961463 8.94747013681839e-19 1.3230472834477352e-10 1.1711725458225945e-10 1.5187473762514052e-11
5.612585937458331 9.032124672807735e-19 1.345619773947799e-10 1.1910405202910737e-10 1.5457925365672507e-11
5.654840148729818 9.119134661901624e-19 1.3688107106100424e-10 1.2115132120230767e-10 1.5729749858696563e-11
5.67608639626678 9.173085468575162e-19 1.3820821892861976e-10 1.2233588639574379e-10 1.5872332532875978e-11
5.686739436050992 9.200257809397401e-19 1.3887777817976285e-10 1.2293414024228476e-10 1.5943637937478072e-11
5.6974124697621304 9.227568575440865e-19 1.3955145733882368e-10 1.235365076243062e-10 1.6014949714517468e-11
5.718818669136295 9.28262769041493e-19 1.4091158220527265e-10 1.247539988621978e-10 1.6157583343074845e-11
5.740305295436557 9.341213892316896e-19 1.4233370041063482e-10 1.2603226665502536e-10 1.6301433755609448e-11
5.7835210386641895 9.484356898784777e-19 1.456027712723147e-10 1.29004235039102e-10 1.6598536233212705e-11
5.827062130521658 9.639720772312664e-19 1.491020229962094e-10 1.3220321869383191e-10 1.689880430237751e-11
5.8489554468988025 9.744997216207005e-19 1.512967035330742e-10 1.342346628735728e-10 1.706204065950138e-11
5.870931020387893 9.854560728869037e-19 1.5357258019345587e-10 1.363470591140175e-10 1.7225521079438327e-11
5.892989160043636 9.96877572140562e-19 1.5593618343407035e-10 1.3854695647441517e-10 1.738922695965519e-11
5.915130176081913 1.0096002467392597e-18 1.5851968030900573e-10 1.4096039481492604e-10 1.7559285494079652e-11
5.95966208400165 1.0445315454008802e-18 1.6523902707661913e-10 1.4728612821189372e-10 1.795289886472542e-11
6.004529249263818 1.0932503651953394e-18 1.7424809100873971e-10 1.5584877481578471e-10 1.839931619295499e-11
6.027089341400364 1.1266384834345349e-18 1.802443433002059e-10 1.6158404851119528e-10 1.866029478901066e-11
6.049734195844842 1.1653009653558982e-18 1.8713017898093743e-10 1.681927665869315e-10 1.89374123940059e-11
6.095279466722835 1.2756818749814029e-18 2.0639797915900064e-10 1.8676916884573526e-10 1.9628810313265375e-11
6.141167624020661 1.4417730718341208e-18 2.3502674973435623e-10 2.1448792326493977e-10 2.0538826469416492e-11
6.164241091010745 1.54724627669227e-18 2.53167816230634e-10 2.320517711310296e-10 2.1116045099604435e-11
6.187401249150058 1.6645438021116639e-18 2.733839044119242e-10 2.51676328877665e-10 2.1707575534259228e-11
6.1990139391386085 1.7213501902983391e-18 2.832443645361479e-10 2.6123601319412653e-10 2.2008351342021342e-11
6.204828454712694 1.7510349423505027e-18 2.883991823130827e-10 2.662390388449806e-10 2.2160143468102196e-11
6.210648424152782 1.7724363185805433e-18 2.9219785176698985e-10 2.6990970912119024e-10 2.2288142645799555e-11
6.233982942956859 1.8435247571580693e-18 3.0505912267684584e-10 2.823303280090188e-10 2.2728794667827044e-11
6.239830258556775 1.8516777602307248e-18 3.0669565215533923e-10 2.8390995643113176e-10 2.2785695724207453e-11
6.245683058788269 1.851122879618013e-18 3.0689133302618624e-10 2.840486891626621e-10 2.284264386352407e-11
6.257405133728602 1.8462165266830205e-18 3.066523812720272e-10 2.8371253536084774e-10 2.2939845911179445e-11
6.269149208991335 1.8284758835697943e-18 3.042757041186316e-10 2.813121461619743e-10 2.2963557956657286e-11
6.280915325867298 1.7885042207156932e-18 2.981826300901448e-10 2.7528607106800857e-10 2.2896559022136262e-11
6.304513850009849 1.691744905725339e-18 2.8311045880069115e-10 2.60429704540949e-10 2.2680754259742188e-11
6.32820103803542 1.5750726568921119e-18 2.645759065878123e-10 2.421979658431863e-10 2.2377940744626037e-11
6.3519772230701035 1.4690549541978822e-18 2.476945251035702e-10 2.2559141499523651e-10 2.21031101083337e-11
6.375842739491607 1.3792293046431333e-18 2.334229244070464e-10 2.115658007697003e-10 2.1857123637346035e-11
6.399797922933955 1.308830833204531e-18 2.2234082441747202e-10 2.0062687917032672e-10 2.1713945247145306e-11
6.42384311029221 1.2497760233289668e-18 2.1310642679899101e-10 1.9151501723383433e-10 2.1591409565156696e-11
6.447978639727206 1.2072641430963183e-18 2.0663092745743614e-10 1.8508223829002284e-10 2.1548689167413273e-11
6.472204850670314 1.1715704528311998e-18 2.0127512166566253e-10 1.797533917706403e-10 2.1521729895022202e-11
6.496522083828205 1.1485295053148259e-18 1.9805805449109988e-10 1.7649892951473188e-10 2.1559124976367954e-11
6.520930681187647 1.1289683236848072e-18 1.9541629428108944e-10 1.7381030707796024e-10 2.16059872031292e-11
