Dust emission spectrum from A.P. Jones, M. Kohler, N. Ysard, M. Bocchio, and L. Verstraete (2017), A&A, 602A, 46J 
inside the DustPedia framework.

lambda    nu*dP/dnu     j_nu    j_nu(carb.) j_nu(sil)
 (um)   (erg s-1 H-1) (Jy cm2 sr-1 H-1)
0.9927057738263894 1.0713978642703544e-22 2.823194226536199e-15 2.823193950411779e-15 2.7612441954624994e-22
1.0001793341362166 1.089426192818219e-22 2.892311887808973e-15 2.892311555490343e-15 3.3231863029088575e-22
1.0077091589558085 1.1075227695913235e-22 2.962492793356099e-15 2.9624923939386505e-15 3.9941744941270875e-22
1.0114953028030835 1.1165957678344176e-22 2.9979837935418142e-15 2.9979833558722885e-15 4.376695247425543e-22
1.0152956718711033 1.125684782295414e-22 3.033742830125819e-15 3.0337423507006184e-15 4.794252009396592e-22
1.0229392996569957 1.1439006815020385e-22 3.106044085649606e-15 3.106043510949444e-15 5.747001626145199e-22
1.0267826658714554 1.1530068489485153e-22 3.142533010557803e-15 3.142532381630994e-15 6.289268086941666e-22
1.0306404723013447 1.162127282013656e-22 3.1792913073621684e-15 3.1792906193213445e-15 6.88040824636559e-22
1.03451277320114 1.171261678442949e-22 3.2163198017597146e-15 3.216319049299322e-15 7.524603920587416e-22
1.0383996230291617 1.1804097446022154e-22 3.2536193399241107e-15 3.2536185172866905e-15 8.226374202476695e-22
1.0403485208654093 1.1849888144837692e-22 3.2723710206966e-15 3.2723701606605522e-15 8.60036048093882e-22
1.0423010764483396 1.189571195708113e-22 3.291190789520378e-15 3.29118989046029e-15 8.99060087799864e-22
1.0462171883269815 1.1987457560578846e-22 3.329035040736239e-15 3.329034058480678e-15 9.822555611515042e-22
1.0471985131304309 1.201041413038908e-22 3.3385388353412824e-15 3.3385378311628804e-15 1.0041784031813131e-21
1.048180758391296 1.2033378685814388e-22 3.3480597515512976e-15 3.348058724982086e-15 1.0265692115027701e-21
1.0501480137395462 1.207933159258273e-22 3.367153007330095e-15 3.3671519345371934e-15 1.072792901183229e-21
1.0521189612883777 1.2125315962812476e-22 3.386314926150006e-15 3.3863138051451864e-15 1.1210048184311001e-21
1.0531058218030118 1.2148289231922135e-22 3.3959131128911064e-15 3.3959119670078246e-15 1.1458832836049923e-21
1.0540936079674168 1.2171169944250652e-22 3.4055004286300016e-15 3.4054992573348586e-15 1.1712951436920555e-21
1.058054026499678 1.2262765463472045e-22 3.4440202741912912e-15 3.4440189957518563e-15 1.2784394353060986e-21
1.0590464539527713 1.228568232782467e-22 3.4536929572016688e-15 3.4536916505461142e-15 1.3066555545330732e-21
1.06003981227728 1.2308606314226506e-22 3.4633827596280314e-15 3.4633814241612602e-15 1.3354667713365918e-21
1.0620293250338977 1.2354475512875112e-22 3.4828137851503238e-15 3.4828123902279077e-15 1.3949224148515733e-21
1.0660195594769086 1.2446297854378118e-22 3.5218819621715802e-15 3.5218804406567755e-15 1.521514804715664e-21
1.070024785945596 1.253823035535139e-22 3.561225835224135e-15 3.561224176177027e-15 1.6590471074987341e-21
1.0740450607676866 1.2630270990828263e-22 3.600846464730551e-15 3.600844656316628e-15 1.80841392269407e-21
1.07808044048254 1.2722417845702556e-22 3.6407449427320296e-15 3.64074297215348e-15 1.9705785498636497e-21
1.0861967418109137 1.2906881364469228e-22 3.721339107597222e-15 3.721336770069254e-15 2.3375279680709156e-21
1.0902777775684922 1.2998872465010276e-22 3.761943564301426e-15 3.761941019672093e-15 2.5446293320061172e-21
1.0943741465085532 1.3090957684921598e-22 3.802827946540982e-15 3.802825177369057e-15 2.769171923923311e-21
1.1026131145906286 1.327540538171389e-22 3.885441535319966e-15 3.885438259087247e-15 3.2762327186770186e-21
1.1109141095355224 1.346021550154747e-22 3.969190368742449e-15 3.969186497651315e-15 3.871091134304199e-21
1.1192775983109025 1.3645235565144552e-22 4.0540423602762026e-15 4.0540377922548495e-15 4.5680213531775665e-21
1.1277040513999907 1.3829791645269365e-22 4.1398081096998385e-15 4.139802726242264e-15 5.3834575751761245e-21
1.1361939428280308 1.401467415103294e-22 4.226733902773144e-15 4.2267275664784985e-15 6.336294646716562e-21
1.1447477501889525 1.4199882902157795e-22 4.314833031571598e-15 4.3148255833443805e-15 7.448227219071196e-21
1.1533659546722406 1.4385487137807797e-22 4.4041401801892964e-15 4.404131436045974e-15 8.744143322597787e-21
1.1707974979042381 1.4758451705049562e-22 4.58661214979877e-15 4.5866001436834235e-15 1.2006115346970705e-20
1.1884924949847024 1.5133048058120615e-22 4.774108533515788e-15 4.774092131135006e-15 1.6402380783202162e-20
1.2064549276569216 1.551183625327086e-22 4.9675671471191495e-15 4.9675448493330995e-15 2.2297786049329758e-20
1.2246888378427687 1.589233548730142e-22 5.166339204218465e-15 5.166309040617418e-15 3.0163601045977313e-20
1.2431983285522175 1.6274247838968133e-22 5.370451219052965e-15 5.370410612639986e-15 4.060641297906884e-20
1.2619875648066055 1.66581421627507e-22 5.580216805225385e-15 5.580162402219821e-15 5.440300556444581e-20
1.3004222497298317 1.7429581218062283e-22 6.016456443646769e-15 6.016360167079006e-15 9.62765677635902e-20
1.3400274889804893 1.820925279565175e-22 6.477020411696785e-15 6.476853155451389e-15 1.6725624539795472e-19
1.3808389325824078 1.900046716711965e-22 6.964288209389071e-15 6.964002836953345e-15 2.853724357276778e-19
1.4228933163050095 1.9810594206321122e-22 7.482371627911364e-15 7.481893190941767e-15 4.784369695944369e-19
1.466228494730424 2.0654828619097039e-22 8.038827031678915e-15 8.038038466335436e-15 7.885653434771316e-19
1.5108834753276823 2.153271573992042e-22 8.635733103456626e-15 8.634454775660056e-15 1.2783277965700525e-18
1.5568984535646726 2.2445221180780753e-22 9.27584770791764e-15 9.273807396855454e-15 2.0403110621839776e-18
1.6043148490894465 2.339998889389153e-22 9.964939987450158e-15 9.961727723374158e-15 3.2122640759967566e-18
1.6531753430134553 2.4405603666008844e-22 1.0709714819935473e-14 1.070473203362434e-14 4.982786311131436e-18
1.7035239163302658 2.5472436713407426e-22 1.151829401509046e-14 1.1510677069527151e-14 7.616945563311275e-18
1.755405889504358 2.6624328832320296e-22 1.2405825060079322e-14 1.2394344755196423e-14 1.1480304882899701e-17
1.8088679632656115 2.786683102317362e-22 1.3380239411148474e-14 1.3363172980839746e-14 1.7066430308726716e-17
1.8639582606462262 2.9206188726786e-22 1.4450421108682497e-14 1.442538769357065e-14 2.5033415111843798e-17
1.9207263702978936 3.0653996929175893e-22 1.5628670736864803e-14 1.5592425765131324e-14 3.624497173347466e-17
1.979223391128241 3.222507576669608e-22 1.6930048222625166e-14 1.6878228895002607e-14 5.181932762256006e-17
2.039501978296691 3.3934985124119906e-22 1.8371356596748773e-14 1.829817445295496e-14 7.318214379381126e-17
2.1016163906111602 3.5810896242772743e-22 1.9977358820615327e-14 1.9875226029130053e-14 1.0213279148527154e-16
2.1656225393682647 3.7873871483983822e-22 2.1771677724886753e-14 2.16307750210949e-14 1.4090270379185332e-16
2.231578038680979 4.0135275533624127e-22 2.377430120614236e-14 2.358208034575314e-14 1.9222086038922004e-16
2.299542257339062 4.261327415837886e-22 2.601092111498233e-14 2.5751539416145403e-14 2.5938169883693196e-16
2.369576372248914 4.533127944764758e-22 2.8512685298911766e-14 2.8166368394015356e-14 3.463169048964045e-16
2.4417434235010123 4.831492420627817e-22 3.131488075742571e-14 3.085723263062295e-14 4.576481268027586e-16
2.5161083711144245 5.159881865561875e-22 3.4461845760705426e-14 3.386308863109654e-14 5.987571296088692e-16
2.5927381535095444 5.522831999732071e-22 3.8009304612493896e-14 3.72334793296639e-14 7.7582528283e-16
2.6717017477616296 5.924585346057571e-22 4.2016064166366066e-14 4.1020246093156986e-14 9.958180732090621e-16
2.753070231689431 6.370389923785482e-22 4.655354304321948e-14 4.5287053566429616e-14 1.2664894767898535e-15
2.836916847834745 6.871069426170121e-22 5.174166219497036e-14 5.0145248468476165e-14 1.5964137264941997e-15
2.9233170693905177 7.447760108670771e-22 5.779244057728955e-14 5.57979072409904e-14 1.994533336299136e-15
2.967498994190263 7.781262347730177e-22 6.129288609201088e-14 5.907506189640818e-14 2.2178241956026837e-15
3.0123486681368425 8.137673687992722e-22 6.506912138421442e-14 6.26062323173217e-14 2.4628890668927047e-15
3.0578761833420214 8.634382919308142e-22 7.008428295613328e-14 6.735200326632815e-14 2.7322796898051533e-15
3.1040917844459814 9.197723161018926e-22 7.578518605889829e-14 7.276005520438415e-14 3.0251308545141494e-15
3.127460860933648 9.648101057034719e-22 8.009458586153993e-14 7.691277599917108e-14 3.181809862368845e-15
3.1510058709225794 1.0198104354205829e-21 8.529785245339586e-14 8.19528149133997e-14 3.3450375399961686e-15
3.162844764501044 1.065749416993928e-21 8.947514557124543e-14 8.604567116142781e-14 3.4294744098176257e-15
3.1747281389236908 1.1171957592381983e-21 9.4146732736962e-14 9.063112839977614e-14 3.515604337185867e-15
3.1986289994194426 1.2532920107645586e-21 1.0641076725510229e-13 1.0271729230457645e-13 3.6934749505258006e-15
3.2227097969389145 1.5553487297457368e-21 1.3305108216402467e-13 1.291692186501502e-13 3.881863513874461e-15
3.2348180950136065 1.834352721491387e-21 1.5750782891857558e-13 1.535254531092498e-13 3.982375809325789e-15
3.240889293275058 2.041481522662256e-21 1.756220663110074e-13 1.7158667277285069e-13 4.0353935381567e-15
3.2469718861334385 2.2810741039560198e-21 1.9660173925674331e-13 1.9251148802961244e-13 4.090251227130912e-15
3.2714166318528037 3.535530374145192e-21 3.070151897817229e-13 3.0269831153924375e-13 4.316878242479196e-15
3.2744851364798273 3.6146549816882806e-21 3.14180558030463e-13 3.0983699213226313e-13 4.343565898199916e-15
3.2775565192852394 3.695868290114051e-21 3.215408151622535e-13 3.1717043004940934e-13 4.370385112844171e-15
3.283707930232385 3.6221499782101384e-21 3.157187564399875e-13 3.113004496732507e-13 4.418306766736782e-15
3.2898708863219004 3.381500354368028e-21 2.9529610892465285e-13 2.908342273406727e-13 4.461881583980169e-15
3.29141343181113 3.3246660773556325e-21 2.904690754174098e-13 2.859962529124023e-13 4.472822505007537e-15
3.292184975758714 3.296727384767161e-21 2.880956476682393e-13 2.836173476125372e-13 4.47830005570209e-15
3.295272960557952 3.1216851621160012e-21 2.730548707793246e-13 2.6855527099268184e-13 4.4995997866427816e-15
3.3076538914384823 2.511513368423562e-21 2.2050832305292986e-13 2.1592319175276737e-13 4.58513130016255e-15
3.310756385682612 2.3863104808944026e-21 2.097121569603717e-13 2.0510547055671175e-13 4.60668640365993e-15
3.313861789986515 2.270399688112337e-21 1.997129114802773e-13 1.9508460098034152e-13 4.628310499935879e-15
3.3200813396944477 2.109438069656482e-21 1.8590237424624586e-13 1.8122753555989896e-13 4.67483868634691e-15
3.345076488085796 1.835371598575084e-21 1.6296693315912223e-13 1.5808470202418566e-13 4.882231134936525e-15
3.3482140837626964 1.8486133217879635e-21 1.6429665833274908e-13 1.5938633087128946e-13 4.910327461459666e-15
3.3513546224236106 1.861966945322488e-21 1.6563868916377277e-13 1.6070014079797788e-13 4.938548365794887e-15
3.3576445397418455 1.9476670347827404e-21 1.7358766605430253e-13 1.6859010805173683e-13 4.997558002565761e-15
3.3702598118196083 2.253035074678444e-21 2.0155833750233367e-13 1.9643700801431272e-13 5.121329488020852e-15
3.382922481734668 2.330945856826402e-21 2.093117771783581e-13 2.0407019377700781e-13 5.24158340135028e-15
3.389271646505754 2.3710443693422234e-21 2.133121006317479e-13 2.0800957471098552e-13 5.302525920762353e-15
3.395632727569191 2.4148927782910943e-21 2.1766469696014645e-13 2.122993660755675e-13 5.365330884578996e-15
3.421196662673239 2.6250789030576605e-21 2.3839098849968566e-13 2.327657290152686e-13 5.625259484417017e-15
3.4276182099114902 2.592716786606724e-21 2.358940322390122e-13 2.3021081982302865e-13 5.68321241598353e-15
3.4340518103208963 2.4346172047326876e-21 2.2192537527774737e-13 2.1618737598660782e-13 5.737999291139511e-15
3.4469541582030403 2.2094604325848696e-21 2.0215811028056121e-13 1.963150084126507e-13 5.843101867910527e-15
3.472904465399547 2.158425802378361e-21 1.9897540334444255e-13 1.928901115474448e-13 6.085291796997762e-15
3.4990501388274233 2.0746205632499847e-21 1.9268960076903195e-13 1.863565962582889e-13 6.333004510743052e-15
3.5253949054701885 1.7432642500211386e-21 1.6313247663667165e-13 1.5655901749912563e-13 6.573459137546046e-15
3.5519380250092896 1.4285539980968884e-21 1.3468879687416743e-13 1.2787381936695274e-13 6.8149775072147126e-15
3.578680990867387 1.3147461916770598e-21 1.2489191965295456e-13 1.1781225471523702e-13 7.079664937717513e-15
3.605625307711299 1.2800861153824496e-21 1.2251498562090553e-13 1.1515665685379368e-13 7.358328767111822e-15
3.660119384959845 1.2789193559205085e-21 1.2425327506542754e-13 1.1630996731887204e-13 7.943307746555475e-15
3.715437065384467 1.2887437091157716e-21 1.2710010247464968e-13 1.1854081073162102e-13 8.559291743028699e-15
3.8285932144167436 1.3515792091987714e-21 1.373567988605799e-13 1.274760914911757e-13 9.880707369404194e-15
3.94519561050918 1.4273630880963937e-21 1.4947633329570544e-13 1.3815846099246286e-13 1.1317872303242541e-14
4.06534921144712 1.5090549665826257e-21 1.6284422036692782e-13 1.4997609665580209e-13 1.2868123711125671e-14
4.189162171576248 1.5942898487809688e-21 1.7728169160772845e-13 1.6274840881072227e-13 1.4533282797006208e-14
4.316745939156006 1.681744591383663e-21 1.9270188450841746e-13 1.7639600484818852e-13 1.6305879660228936e-14
4.448215356677963 1.7704052033037364e-21 2.090392870303863e-13 1.9087944531143808e-13 1.815984171894829e-14
4.58368876423945 1.8597418532047394e-21 2.26275336290013e-13 2.061792038352084e-13 2.0096132454804518e-14
4.723288106065518 1.949465251577694e-21 2.444158515239664e-13 2.2229026874417067e-13 2.2125582779795644e-14
4.867139040275056 2.038952047115438e-21 2.634208810693789e-13 2.392289252725269e-13 2.4191955796852007e-14
4.940699165968905 2.0840807893330094e-21 2.733206182176339e-13 2.4807565188993524e-13 2.5244966327698548e-14
5.015371051989984 2.128530372318593e-21 2.833690104338108e-13 2.570613339136321e-13 2.6307676520178745e-14
5.091171501069577 2.1742415847405428e-21 2.9382920346797876e-13 2.664258229026605e-13 2.7403380565318234e-14
5.129500256944802 2.1967758916219525e-21 2.991095247149107e-13 2.711559076107155e-13 2.7953617104195127e-14
5.168117569889187 2.2192836001248522e-21 3.0444904900216006e-13 2.7593809417906086e-13 2.8510954823099225e-14
5.20702561229733 2.243287487241331e-21 3.100588135442693e-13 2.8093818976720535e-13 2.912062377706397e-14
5.246226572918644 2.2671019717452428e-21 3.1570941287932965e-13 2.859759899474345e-13 2.97334229318952e-14
5.265937586045735 2.2789358856006885e-21 3.185497345806467e-13 2.8850882462543317e-13 3.004090995521349e-14
5.285722656980489 2.290719724451269e-21 3.2139991701392155e-13 2.910508417324942e-13 3.034907528142739e-14
5.305582063971359 2.3024526212246996e-21 3.2425984567215427e-13 2.93601962111401e-13 3.0657883560753225e-14
5.3255160863122235 2.314415957303287e-21 3.271693030958366e-13 2.961994384283128e-13 3.096986466752374e-14
5.365609099470188 2.3403688936842256e-21 3.3332875490369453e-13 3.0171333429556596e-13 3.161542060812849e-14
5.406003951863644 2.3662203061871715e-21 3.3954783751496333e-13 3.072837510217258e-13 3.2264086493237587e-14
5.446702915881641 2.3919707676726465e-21 3.458270728274783e-13 3.129114934251084e-13 3.29155794023699e-14
5.487708281020852 2.418149843767462e-21 3.522440442993072e-13 3.1867151899065555e-13 3.3572525308651714e-14
5.529022354014368 2.448922972801103e-21 3.5941227387454785e-13 3.251549673847364e-13 3.4257306489811463e-14
5.570647458961463 2.479932742014948e-21 3.667034622395149e-13 3.3175821521405256e-13 3.494524702546232e-14
5.612585937458331 2.511211408657243e-21 3.7412412366558383e-13 3.384880649855915e-13 3.563605867999233e-14
5.654840148729818 2.5435856316946513e-21 3.818001800722842e-13 3.4546715179026983e-13 3.633302828201445e-14
5.67608639626678 2.5634000753785742e-21 3.862200565265119e-13 3.4952209384258345e-13 3.669796268392848e-14
5.686739436050992 2.5734087158571003e-21 3.8845572831842087e-13 3.5157496697130963e-13 3.6880761347111235e-14
5.6974124697621304 2.5834876093449018e-21 3.9070905618672106e-13 3.53645281276611e-13 3.706377491011003e-14
5.718818669136295 2.6038644065254155e-21 3.952702463229877e-13 3.5783981791896234e-13 3.74304284040254e-14
5.740305295436557 2.6255310777067677e-21 4.0005673581727325e-13 3.6225598513728063e-13 3.780075067999264e-14
5.7835210386641895 2.6780001400481124e-21 4.1112354376775156e-13 3.725575359308637e-13 3.8566007836887886e-14
5.827062130521658 2.735111027042434e-21 4.2305228220156124e-13 3.837101827390737e-13 3.934209946248755e-14
5.8489554468988025 2.7732508433889285e-21 4.3056319192913537e-13 3.9080102406279856e-13 3.976216786633679e-14
5.870931020387893 2.8130330632756337e-21 4.3838052002782607e-13 3.981967676595215e-13 4.018375236830457e-14
5.892989160043636 2.8545907253772182e-21 4.4652823518317945e-13 4.0592141786725264e-13 4.060681731592694e-14
5.915130176081913 2.900771393315617e-21 4.554568557238642e-13 4.144111849369039e-13 4.104567078696016e-14
5.95966208400165 3.026214785342272e-21 4.787301915931351e-13 4.366786035569801e-13 4.2051588036154946e-14
6.004529249263818 3.2002720696524607e-21 5.10076480739059e-13 4.668896172723087e-13 4.3186863466750393e-14
6.027089341400364 3.3189944353085917e-21 5.309866307651259e-13 4.871408368985386e-13 4.384579386658725e-14
6.049734195844842 3.4565081781737104e-21 5.550643252347894e-13 5.105199146148295e-13 4.454441061996002e-14
6.095279466722835 3.847957502880332e-21 6.225773588699713e-13 5.763055809384709e-13 4.627177793150023e-14
6.141167624020661 4.436872238530647e-21 7.232647644624827e-13 6.747385090911438e-13 4.8526255371338924e-14
6.164241091010745 4.81091240300766e-21 7.871844356608275e-13 7.372371391784811e-13 4.994729648234639e-14
6.187401249150058 5.228225550042747e-21 8.586813469273803e-13 8.072759783734862e-13 5.140536855389398e-14
6.1990139391386085 5.430836336212631e-21 8.93632100905489e-13 8.414850347749938e-13 5.2147066130495026e-14
6.204828454712694 5.536819677355835e-21 9.11925986708709e-13 8.594044160574061e-13 5.2521570651303065e-14
6.210648424152782 5.613725669875579e-21 9.254598114196285e-13 8.72620524676811e-13 5.283928674281727e-14
6.233982942956859 5.871062011042668e-21 9.715199209101085e-13 9.175786962054805e-13 5.3941224704628404e-14
6.239830258556775 5.901812352434051e-21 9.775243982531058e-13 9.23434608940854e-13 5.408978931225193e-14
6.245683058788269 5.901712660007441e-21 9.784247633203844e-13 9.241862149049943e-13 5.423854841539017e-14
6.257405133728602 5.888169851985728e-21 9.780116689181785e-13 9.235152836066293e-13 5.4496385311549244e-14
6.269149208991335 5.8294857499751095e-21 9.700816385722373e-13 9.15502797146126e-13 5.457884142611135e-14
6.280915325867298 5.692283670747398e-21 9.490277386560656e-13 8.945831543306898e-13 5.444458432537598e-14
6.304513850009849 5.35805118713321e-21 8.966602025714319e-13 8.426799895922178e-13 5.3980212979214203e-14
6.32820103803542 4.952053677042825e-21 8.318308906843398e-13 7.785234149102234e-13 5.330747577411643e-14
6.3519772230701035 4.5826017577275064e-21 7.726636521496692e-13 7.19962401497765e-13 5.270125065190417e-14
6.375842739491607 4.27014968914805e-21 7.226868112077135e-13 6.705234509461529e-13 5.216336026156055e-14
6.399797922933955 4.025043741900515e-21 6.837641054798531e-13 6.318919242616463e-13 5.1872181218206717e-14
6.42384311029221 3.82004216622208e-21 6.513771436394275e-13 5.997468859502117e-13 5.163025768921581e-14
6.447978639727206 3.673076133284258e-21 6.286703141002235e-13 5.770899002334139e-13 5.158041386680949e-14
6.472204850670314 3.55024252348529e-21 6.099295984550292e-13 5.583610212992321e-13 5.1568577155797106e-14
6.496522083828205 3.472036174634958e-21 5.987349273037813e-13 5.470228316699052e-13 5.1712095633876296e-14
