Dust emission spectrum from A.P. Jones, M. Kohler, N. Ysard, M. Bocchio, and L. Verstraete (2017), A&A, 602A, 46J 
inside the DustPedia framework.

lambda    nu*dP/dnu     j_nu    j_nu(carb.) j_nu(sil)
 (um)   (erg s-1 H-1) (Jy cm2 sr-1 H-1)
0.9927057738263894 1.9251052372363082e-26 5.072761643912238e-19 5.072761643911663e-19 5.753805369226451e-32
1.0001793341362166 1.9567651129423827e-26 5.195005439673207e-19 5.195005439672514e-19 6.933861871514595e-32
1.0077091589558085 1.98837570496434e-26 5.318670512403847e-19 5.318670512403013e-19 8.345417153263578e-32
1.0114953028030835 2.0041586202420898e-26 5.381029765880242e-19 5.381029765879328e-19 9.151209526625605e-32
1.0152956718711033 2.019924548126727e-26 5.443736747314788e-19 5.443736747313785e-19 1.0031624371482895e-31
1.0229392996569957 2.0513837372210534e-26 5.570141208436624e-19 5.570141208435419e-19 1.2043377723857702e-31
1.0267826658714554 2.0670386869956143e-26 5.63373696687714e-19 5.633736966875819e-19 1.3189993185816685e-31
1.0306404723013447 2.0826697191585102e-26 5.697666543680069e-19 5.697666543678624e-19 1.4441174643344099e-31
1.03451277320114 2.0982753236090635e-26 5.761927156909306e-19 5.761927156907725e-19 1.5806001697491294e-31
1.0383996230291617 2.1138539988283122e-26 5.826515990582077e-19 5.82651599058035e-19 1.7294299575528451e-31
1.0403485208654093 2.121632771168785e-26 5.858932600944011e-19 5.8589326009422025e-19 1.8088038393042462e-31
1.0423010764483396 2.1294042521657768e-26 5.891430195333313e-19 5.891430195331422e-19 1.8916696576392162e-31
1.0462171883269815 2.144924600119813e-26 5.956666889080708e-19 5.95666688907864e-19 2.068468562588048e-31
1.0471985131304309 2.1487998414376543e-26 5.973026110617887e-19 5.97302611061577e-19 2.1150866088193353e-31
1.048180758391296 2.152673098552971e-26 5.989405259894929e-19 5.989405259892767e-19 2.1627121261220312e-31
1.0501480137395462 2.1604135686115637e-26 6.02222315769029e-19 6.022223157688031e-19 2.2610690210829496e-31
1.0521189612883777 2.168145827551932e-26 6.055120213301209e-19 6.055120213298847e-19 2.3637102392340673e-31
1.0531058218030118 2.172002852645731e-26 6.071581625793649e-19 6.071581625791234e-19 2.4166961035983463e-31
1.0540936079674168 2.1758382030373797e-26 6.088007945837235e-19 6.088007945834763e-19 2.470831648991617e-31
1.058054026499678 2.1911571376481843e-26 6.153905192493702e-19 6.153905192491001e-19 2.699236536704499e-31
1.0590464539527713 2.1949811424652792e-26 6.170427258853827e-19 6.170427258851069e-19 2.7594258339390897e-31
1.06003981227728 2.198802811055211e-26 6.186968331929161e-19 6.18696833192634e-19 2.8209009867264263e-31
1.0620293250338977 2.2064390505043537e-26 6.22010730700959e-19 6.220107307006639e-19 2.947814042848281e-31
1.0660195594769086 2.2216825175218708e-26 6.286611228237536e-19 6.286611228234316e-19 3.2182561874624844e-31
1.070024785945596 2.2368861255869388e-26 6.353413867128917e-19 6.353413867125407e-19 3.512388839491732e-31
1.0740450607676866 2.2520484727870364e-26 6.420512107401148e-19 6.420512107397313e-19 3.8321816179095355e-31
1.07808044048254 2.2671681686355094e-26 6.487902806203545e-19 6.487902806199365e-19 4.17975847014296e-31
1.0861967418109137 2.2972472407136608e-26 6.623471429915876e-19 6.623471429910908e-19 4.967601086436047e-31
1.0902777775684922 2.312142814146644e-26 6.691465588910123e-19 6.69146558890471e-19 5.412993768289787e-31
1.0943741465085532 2.3269892307321142e-26 6.759734383772843e-19 6.759734383766948e-19 5.896447704984019e-31
1.1026131145906286 2.3565293167164518e-26 6.897082705271933e-19 6.89708270526494e-19 6.990098313784853e-31
1.1109141095355224 2.3858570749976016e-26 7.035489827178319e-19 7.035489827170043e-19 8.276117364564779e-31
1.1192775983109025 2.4149349086566711e-26 7.174847491832343e-19 7.174847491822553e-19 9.786381744119389e-31
1.1277040513999907 2.4436270447161378e-26 7.314750154069067e-19 7.314750154057508e-19 1.1557706772156206e-30
1.1361939428280308 2.4720729883667417e-26 7.45561016792482e-19 7.455610167911185e-19 1.3632547396873714e-30
1.1447477501889525 2.5002632632218103e-26 7.597399633580851e-19 7.597399633564791e-19 1.6059804630624852e-30
1.1533659546722406 2.5282040878576054e-26 7.74013775160158e-19 7.740137751582684e-19 1.8895755784436945e-30
1.1707974979042381 2.5834285659321253e-26 8.028745213556061e-19 8.028745213530001e-19 2.606209142725081e-30
1.1884924949847024 2.637536272600368e-26 8.320785328981927e-19 8.320785328946154e-19 3.57704403772697e-30
1.2064549276569216 2.690953759057009e-26 8.61760868903556e-19 8.617608688986703e-19 4.885829511574081e-30
1.2246888378427687 2.743093980977658e-26 8.917351377400977e-19 8.91735137733456e-19 6.641478455302995e-30
1.2431983285522175 2.793834825174764e-26 9.219568112245105e-19 9.219568112155253e-19 8.985154019924516e-30
1.2619875648066055 2.8431576705039646e-26 9.524133038273868e-19 9.524133038152878e-19 1.2098883671569603e-29
1.3004222497298317 2.9367260945793584e-26 1.0137182536920349e-18 1.0137182536704005e-18 2.163456221962256e-29
1.3400274889804893 3.023435548272129e-26 1.075434230024227e-18 1.0754342299862369e-18 3.799010594776972e-29
1.3808389325824078 3.102967097410827e-26 1.1373382022951797e-18 1.1373382022296396e-18 6.554070590213315e-29
1.4228933163050095 3.1757169797827776e-26 1.1994539073553444e-18 1.1994539072442013e-18 1.1114299544803498e-28
1.466228494730424 3.2434592222762655e-26 1.2623492623935684e-18 1.2623492622082155e-18 1.8535303472483262e-28
1.5108834753276823 3.304865209187477e-26 1.3254219409273586e-18 1.3254219406232314e-18 3.0412749341330705e-28
1.5568984535646726 3.3588616957979296e-26 1.3881034769600702e-18 1.3881034764685985e-18 4.9147160794508925e-28
1.6043148490894465 3.405553145074347e-26 1.4502627701501558e-18 1.4502627693665194e-18 7.836356782487244e-28
1.6531753430134553 3.4450877809977015e-26 1.511780170203978e-18 1.5117801689725193e-18 1.231459151697761e-27
1.7035239163302658 3.477948192051814e-26 1.5726814947475947e-18 1.572681492839827e-18 1.90776738446316e-27
1.755405889504358 3.50690479885629e-26 1.6340711426366602e-18 1.6340711397215692e-18 2.915090692287285e-27
1.8088679632656115 3.5312754666096097e-26 1.6955394436726523e-18 1.69553943927765e-18 4.3950020334421884e-27
1.8639582606462262 3.550599349561232e-26 1.7567391715961205e-18 1.7567391650554217e-18 6.540699295883829e-27
1.9207263702978936 3.565213184757477e-26 1.8176925867135753e-18 1.8176925771014855e-18 9.612089788282643e-27
1.979223391128241 3.575898823726538e-26 1.8786655449072927e-18 1.87866553095279e-18 1.3954502430057642e-26
2.039501978296691 3.583591197885187e-26 1.9400459894860872e-18 1.9400459694654947e-18 2.0020592713771956e-26
2.1016163906111602 3.590906057774488e-26 2.0032120481139838e-18 2.0032120197155994e-18 2.839838490721982e-26
2.1656225393682647 3.59935927370895e-26 2.069080531057208e-18 2.0690804912167945e-18 3.9840413315284884e-26
2.231578038680979 3.609058812884488e-26 2.1378413414980872e-18 2.1378412861995988e-18 5.529848804273963e-26
2.299542257339062 3.620911741768651e-26 2.210185711837372e-18 2.2101856358736162e-18 7.596375523572296e-26
2.369576372248914 3.636924925239302e-26 2.2875704615590267e-18 2.2875703582455855e-18 1.033134420608415e-25
2.4417434235010123 3.659468339728931e-26 2.371851277359455e-18 2.371851138201042e-18 1.3915841256783324e-25
2.5161083711144245 3.69260095476043e-26 2.466216240493918e-18 2.466216054790373e-18 1.8570354431314198e-25
2.5927381535095444 3.742966778230815e-26 2.5759893553727832e-18 2.575989109764538e-18 2.4560824551916333e-25
2.6717017477616296 3.8185025535941615e-26 2.708011429323173e-18 2.708011107284958e-18 3.2203821472112116e-25
2.753070231689431 3.931158475683634e-26 2.8728124572742852e-18 2.872812038538565e-18 4.187357204407314e-25
2.836916847834745 4.1080089013543355e-26 3.0934807332646012e-18 3.0934801931541025e-18 5.401104996918312e-25
2.9233170693905177 4.40868446580229e-26 3.421010227185894e-18 3.421009535965322e-18 6.9122057187950165e-25
2.967498994190263 4.664323944227828e-26 3.6740809322948784e-18 3.674080153645885e-18 7.786489934084925e-25
3.0123486681368425 4.962962108429777e-26 3.968401735439095e-18 3.968400859395866e-18 8.760432293943733e-25
3.0578761833420214 5.631672355283347e-26 4.571163018277832e-18 4.571162033622852e-18 9.846549814174347e-25
3.1040917844459814 6.493631606619637e-26 5.350466315308131e-18 5.350465210435136e-18 1.104872995773184e-24
3.127460860933648 7.405629116243627e-26 6.147850168683829e-18 6.14784899861993e-18 1.170063900332955e-24
3.1510058709225794 8.620901615025025e-26 7.210598837129776e-18 7.210597598499471e-18 1.2386303072657116e-24
3.162844764501044 9.752086208776827e-26 8.187378001245605e-18 8.18737672687854e-18 1.2743670645467898e-24
3.1747281389236908 1.1067701135183345e-25 9.326815754270283e-18 9.326814443270577e-18 1.310999706774221e-24
3.1986289994194426 1.4737706049898025e-25 1.2513050389534645e-17 1.2513049002310241e-17 1.387224402636823e-24
3.2227097969389145 2.3388806223011316e-25 2.0007770083851577e-17 2.0007768615036948e-17 1.4688146272901065e-24
3.2348180950136065 3.159289645853679e-25 2.7127435591491554e-17 2.7127434078834156e-17 1.5126574042486828e-24
3.240889293275058 3.7726440719404556e-25 3.245483929269782e-17 3.2454837756837734e-17 1.5358600885681163e-24
3.2469718861334385 4.482189569198005e-25 3.863119849787006e-17 3.863119693794698e-17 1.5599230799195626e-24
3.2714166318528037 8.267104019653341e-25 7.178913036923843e-17 7.178912870911192e-17 1.6601265216351826e-24
3.2744851364798273 8.503680974042196e-25 7.391275923351761e-17 7.391275756147826e-17 1.6720393710205516e-24
3.2775565192852394 8.747053244959755e-25 7.609942806065747e-17 7.609942637662888e-17 1.6840285911239672e-24
3.283707930232385 8.512890344171504e-25 7.4201211140901e-17 7.420120943533725e-17 1.7055637251544964e-24
3.2898708863219004 7.770475014620516e-25 6.785718751588042e-17 6.785718579062523e-17 1.7252551965115855e-24
3.29141343181113 7.595397342286228e-25 6.635938744249825e-17 6.635938571229124e-17 1.7302070096220232e-24
3.292184975758714 7.509370727045433e-25 6.562317021375027e-17 6.562316848106299e-17 1.732687271863556e-24
3.295272960557952 6.966362675674979e-25 6.093501302735334e-17 6.093501128500989e-17 1.742343446335479e-24
3.3076538914384823 5.085298873226859e-25 4.464840764363769e-17 4.464840586239382e-17 1.781243881734958e-24
3.310756385682612 4.702473782059652e-25 4.132596859381458e-17 4.132596680273626e-17 1.791078311260795e-24
3.313861789986515 4.34926518128677e-25 3.8257775346893e-17 3.8257773545936233e-17 1.8009567529653543e-24
3.3200813396944477 3.8539194281685482e-25 3.396415292566234e-17 3.3964151103459564e-17 1.8222027754886133e-24
3.345076488085796 2.97019355550062e-25 2.6373042658212592e-17 2.6373040740948522e-17 1.917264070809309e-24
3.3482140837626964 3.0033087661068866e-25 2.6692093386818643e-17 2.6692091456614274e-17 1.9302043740644984e-24
3.3513546224236106 3.036790115766727e-25 2.7014976571132543e-17 2.701497462791185e-17 1.943220682856923e-24
3.3576445397418455 3.281563952916076e-25 2.924724901236393e-17 2.9247247041877254e-17 1.970486679498558e-24
3.3702598118196083 4.184463543643315e-25 3.7434548830370215e-17 3.743454680245498e-17 2.0279152392325154e-24
3.382922481734668 4.390005990860878e-25 3.9420905169448695e-17 3.9420903085429053e-17 2.084019643325945e-24
3.389271646505754 4.496490755495736e-25 4.0452886539281433e-17 4.0452884426701686e-17 2.112579734528432e-24
3.395632727569191 4.611223440460057e-25 4.156294481502959e-17 4.156294267297657e-17 2.142053017701318e-24
3.421196662673239 5.16209459851425e-25 4.687847030560932e-17 4.6878468040767246e-17 2.2648420739781303e-24
3.4276182099114902 5.050954337674386e-25 4.5955269450333197e-17 4.595526715767142e-17 2.2926617722664788e-24
3.4340518103208963 4.564170846765692e-25 4.160429516522058e-17 4.1604292846079865e-17 2.319140724219833e-24
3.4469541582030403 3.8709187145577594e-25 3.541758887572191e-17 3.5417586505361055e-17 2.370360847546667e-24
3.472904465399547 3.6765358803566016e-25 3.389230284859404e-17 3.3892300359842223e-17 2.488751834246487e-24
3.4990501388274233 3.3793000119393175e-25 3.1386750026197926e-17 3.138674741485556e-17 2.611342360372566e-24
3.5253949054701885 2.3218140756037896e-25 2.172724418793868e-17 2.1727241455903427e-17 2.7320352545151514e-24
3.5519380250092896 1.3280413645952574e-25 1.2521213327235471e-17 1.2521210472230182e-17 2.85500528988119e-24
3.578680990867387 9.340038716471652e-26 8.872399648825817e-18 8.872396657785319e-18 2.991040497239484e-24
3.605625307711299 7.746005010270728e-26 7.41357695430708e-18 7.413573818299276e-18 3.136007805869624e-24
3.660119384959845 6.582575683705917e-26 6.3952944591867054e-18 6.39529101241727e-18 3.446769433260237e-24
3.715437065384467 5.758727345433987e-26 5.679444489629514e-18 5.679440706320719e-18 3.783308795165962e-24
3.8285932144167436 5.339490399442296e-26 5.4263583208635475e-18 5.426353781258372e-18 4.539605176205927e-24
3.94519561050918 5.258062191970232e-26 5.5063484774899264e-18 5.506343060349993e-18 5.4171399329126865e-24
4.06534921144712 5.315659485598077e-26 5.7362020856573445e-18 5.736195653242721e-18 6.432414623825712e-24
4.189162171576248 5.454098657980687e-26 6.064843460062054e-18 6.064835852727595e-18 7.607334459306217e-24
4.316745939156006 5.65181556419691e-26 6.476105323571606e-18 6.476096360587334e-18 8.962984271480412e-24
4.448215356677963 5.901713192305238e-26 6.968404270814023e-18 6.968393757404484e-18 1.0513409537323985e-23
4.58368876423945 6.204904743481137e-26 7.549525785308669e-18 7.549513492547691e-18 1.2292760976653923e-23
4.723288106065518 6.568583060538139e-26 8.235416459708802e-18 8.235402111356826e-18 1.434835197712181e-23
4.867139040275056 7.006918924417175e-26 9.05253637162746e-18 9.052519678655821e-18 1.6692971639224397e-23
4.940699165968905 7.27156977447671e-26 9.536434270423393e-18 9.536416275832655e-18 1.7994590743736454e-23
5.015371051989984 7.546120137204186e-26 1.0046070395344786e-17 1.0046051006045938e-17 1.9389298844900364e-23
5.091171501069577 7.880853806991391e-26 1.0650265421320224e-17 1.0650244517292284e-17 2.0904027941604028e-23
5.129500256944802 8.052860359375923e-26 1.0964647071532011e-17 1.0964625369752208e-17 2.1701779799092893e-23
5.168117569889187 8.23225942219314e-26 1.1293300018459897e-17 1.129327748710366e-17 2.2531356240866476e-23
5.20702561229733 8.451972828553285e-26 1.1682001001807891e-17 1.1681977579616654e-17 2.3422191236659508e-23
5.246226572918644 8.677425959613047e-26 1.2083907513451429e-17 1.2083883167511672e-17 2.4345939758205213e-23
5.265937586045735 8.792363034231067e-26 1.2289968000362377e-17 1.2289943179823896e-17 2.482053847816647e-23
5.285722656980489 8.908805768493254e-26 1.2499518837350413e-17 1.249949353352043e-17 2.5303829975573238e-23
5.305582063971359 9.026778793442386e-26 1.2712625968917391e-17 1.2712600172941843e-17 2.57959755486834e-23
5.3255160863122235 9.153445119661531e-26 1.2939446996446776e-17 1.293942069729151e-17 2.6299155261817077e-23
5.365609099470188 9.468190439186657e-26 1.3485139623937334e-17 1.3485112274642469e-17 2.7349294865730434e-23
5.406003951863644 9.795024723694454e-26 1.4055662757350083e-17 1.4055634318118366e-17 2.843923171808114e-23
5.446702915881641 1.0134531351404228e-25 1.4652333377571116e-17 1.4652303807068952e-17 2.957050216477828e-23
5.487708281020852 1.0501303864985513e-25 1.529690872280847e-17 1.5296877975039435e-17 3.074776903568356e-23
5.529022354014368 1.1009571215616466e-25 1.6158021583106208e-17 1.6157989585794803e-17 3.199731140690289e-23
5.570647458961463 1.1547834096564994e-25 1.7075587062644536e-17 1.7075553766673898e-17 3.3295970641780844e-23
5.612585937458331 1.2118244780688222e-25 1.8053946765733366e-17 1.8053912119998174e-17 3.464573519753887e-23
5.654840148729818 1.2745065120980918e-25 1.9130742435360865e-17 1.9130706381966234e-17 3.605339463100516e-23
5.67608639626678 1.3171051265228502e-25 1.9844441033726967e-17 1.9844404234984454e-17 3.679874250923545e-23
5.686739436050992 1.3390618524641455e-25 2.0213122150288782e-17 2.0213084973183014e-17 3.7177105763626286e-23
5.6974124697621304 1.3614708130880047e-25 2.0589956556527338e-17 2.0589918997211904e-17 3.755931543729348e-23
5.718818669136295 1.4076889129456022e-25 2.1368913910099796e-17 2.1368875574662458e-17 3.8335437338192333e-23
5.740305295436557 1.4586137077885129e-25 2.2225150702305784e-17 2.222511156935953e-17 3.9132946258439823e-23
5.7835210386641895 1.5905650597454078e-25 2.4418174374850825e-17 2.4418133552835407e-17 4.08220154167185e-23
5.827062130521658 1.7425205785883038e-25 2.6952372326621824e-17 2.69523297290573e-17 4.2597564523072413e-23
5.8489554468988025 1.8489950826141469e-25 2.870671531677144e-17 2.8706671745849964e-17 4.357092147879321e-23
5.870931020387893 1.9632440479357253e-25 3.059501709778757e-17 3.0594972530163237e-17 4.456762434177431e-23
5.892989160043636 2.0858928720991266e-25 3.2628497482297245e-17 3.2628451894010396e-17 4.558828685996784e-23
5.915130176081913 2.225343600883653e-25 3.4940636883666743e-17 3.494059022678509e-17 4.6656881649428e-23
5.95966208400165 2.6149790760003227e-25 4.136750108185347e-17 4.136745199540367e-17 4.9086449783653756e-23
6.004529249263818 3.1762983304439814e-25 5.0625541794831176e-17 5.062548989318889e-17 5.1901642271690556e-23
6.027089341400364 3.566349547602596e-25 5.705595376318138e-17 5.705590020718524e-17 5.35559961423815e-23
6.049734195844842 4.027233655733979e-25 6.467144344683435e-17 6.467138810565376e-17 5.53411806113581e-23
6.095279466722835 5.358204608908491e-25 8.669266412641304e-17 8.669260433129401e-17 5.979511901429364e-23
6.141167624020661 7.406128441249248e-25 1.2072900581002456e-16 1.2072894008137286e-16 6.572865168868693e-23
6.164241091010745 8.713835998536024e-25 1.4257994114921454e-16 1.4257987168066973e-16 6.946854478840109e-23
6.187401249150058 1.0203443665852782e-24 1.6758088698412176e-16 1.6758081352132974e-16 7.346279197670718e-23
6.1990139391386085 1.0930802576448438e-24 1.7986393745363459e-16 1.7986386194137766e-16 7.551225695653319e-23
6.204828454712694 1.1313941278296263e-24 1.8634302117460197e-16 1.8634294461031837e-16 7.656428361378887e-23
6.210648424152782 1.1593668391485767e-24 1.911292926339938e-16 1.911292151667914e-16 7.746720239909612e-23
6.233982942956859 1.2544113189081127e-24 2.075749809901808e-16 2.0757490027342335e-16 8.071675751423374e-23
6.239830258556775 1.2665678918243997e-24 2.0978318902188207e-16 2.0978310780067992e-16 8.122120214156613e-23
6.245683058788269 1.2676347435842096e-24 2.101568299610359e-16 2.101567482321089e-16 8.17289269578542e-23
6.257405133728602 1.2650532099416455e-24 2.1012247136656246e-16 2.101223887167051e-16 8.264985737182257e-23
6.269149208991335 1.2463996317537468e-24 2.0741270310038424e-16 2.0741261997418273e-16 8.312620157203422e-23
6.280915325867298 1.1995787998649339e-24 1.9999592810631986e-16 1.9999584505793955e-16 8.304838030686619e-23
6.304513850009849 1.0841032652950615e-24 1.8142272619607455e-16 1.8142264381392408e-16 8.238215048631121e-23
6.32820103803542 9.40959577138832e-25 1.5805952321921604e-16 1.5805944209884224e-16 8.112037373298369e-23
6.3519772230701035 8.096936724446752e-25 1.365208899111983e-16 1.365208099184941e-16 7.999270425009506e-23
6.375842739491607 6.992701583953889e-25 1.183455751510905e-16 1.1834549609020216e-16 7.906088831775728e-23
6.399797922933955 6.107883492202972e-25 1.0375915791785579e-16 1.0375907920995249e-16 7.870790330449962e-23
6.42384311029221 5.372348514028274e-25 9.160697388751857e-17 9.160689538165802e-17 7.850586056117165e-23
6.447978639727206 4.83657020221035e-25 8.278097153060154e-17 8.278089272524199e-17 7.880535954172678e-23
6.472204850670314 4.390369114709753e-25 7.542628576752715e-17 7.542620654317297e-17 7.922435415699189e-23
6.496522083828205 4.100661576915158e-25 7.071381712806728e-17 7.071373705507211e-17 8.007299521716123e-23
6.520930681187647 3.856746411565378e-25 6.675750558440029e-17 6.675742457936546e-17 8.100503483043076e-23
6.57002334288761 3.6080876438726975e-25 6.292358006872601e-17 6.292349653206993e-17 8.353665607945202e-23
