Dust emission spectrum from A.P. Jones, M. Kohler, N. Ysard, M. Bocchio, and L. Verstraete (2017), A&A, 602A, 46J 
inside the DustPedia framework.

lambda    nu*dP/dnu     j_nu    j_nu(carb.) j_nu(sil)
 (um)   (erg s-1 H-1) (Jy cm2 sr-1 H-1)
0.9927057738263894 5.431432016965703e-27 1.4312131863884402e-19 1.4312131863884402e-19 2.1781126223726797e-40
1.0001793341362166 5.520783845736866e-27 1.4657100088388326e-19 1.4657100088388326e-19 3.0254532225309515e-40
1.0077091589558085 5.609997944254842e-27 1.5006082887785808e-19 1.5006082887785808e-19 4.196302885402499e-40
1.0114953028030835 5.654542348558127e-27 1.5182062129566488e-19 1.5182062129566488e-19 4.939272031213663e-40
1.0152956718711033 5.699039160772398e-27 1.5359023649004302e-19 1.5359023649004302e-19 5.811594782281775e-40
1.0229392996569957 5.787828778210889e-27 1.5715744938370755e-19 1.5715744938370755e-19 8.036396376112436e-40
1.0267826658714554 5.832013491375424e-27 1.5895217735592218e-19 1.5895217735592218e-19 9.444748286710086e-40
1.0306404723013447 5.87613106600624e-27 1.6075633631716863e-19 1.6075633631716863e-19 1.1095548038908218e-39
1.03451277320114 5.920177243082433e-27 1.625698479452193e-19 1.625698479452193e-19 1.3029710798675599e-39
1.0383996230291617 5.9641477876961434e-27 1.6439263295605084e-19 1.6439263295605084e-19 1.5294905077326005e-39
1.0403485208654093 5.986103381212985e-27 1.6530747794534228e-19 1.6530747794534228e-19 1.6568646322448748e-39
1.0423010764483396 6.008038489858741e-27 1.6622461112246777e-19 1.6622461112246777e-19 1.794664030489661e-39
1.0462171883269815 6.051845165289618e-27 1.680657012927643e-19 1.680657012927643e-19 2.104952484599233e-39
1.0471985131304309 6.062783217135417e-27 1.685273879894618e-19 1.685273879894618e-19 2.1904291209525914e-39
1.048180758391296 6.0737156926124044e-27 1.689896377712547e-19 1.689896377712547e-19 2.279317963366888e-39
1.0501480137395462 6.0955636561863574e-27 1.699158214093819e-19 1.699158214093819e-19 2.4678720381508344e-39
1.0521189612883777 6.117388540546756e-27 1.7084424181147303e-19 1.7084424181147303e-19 2.671746685525345e-39
1.0531058218030118 6.128275329100445e-27 1.713088168399369e-19 1.713088168399369e-19 2.7798057369642046e-39
1.0540936079674168 6.139100988388668e-27 1.7177240267880967e-19 1.7177240267880967e-19 2.892155612991337e-39
1.058054026499678 6.1823404563736446e-27 1.736321707948191e-19 1.736321707948191e-19 3.3879471776725434e-39
1.0590464539527713 6.19313421487002e-27 1.740984623414766e-19 1.740984623414766e-19 3.52441299928953e-39
1.06003981227728 6.20392140389293e-27 1.7456529101508082e-19 1.7456529101508082e-19 3.666278750017998e-39
1.0620293250338977 6.2254758223172654e-27 1.7550055435773638e-19 1.7550055435773638e-19 3.967056059984691e-39
1.0660195594769086 6.2685030689800824e-27 1.77377467153354e-19 1.77377467153354e-19 4.643178361224659e-39
1.070024785945596 6.31141820995412e-27 1.7926282217808853e-19 1.7926282217808853e-19 5.432207469208965e-39
1.0740450607676866 6.3542172903120624e-27 1.8115653165767482e-19 1.8115653165767482e-19 6.352577262058703e-39
1.07808044048254 6.3968963872385385e-27 1.8305850706582747e-19 1.8305850706582747e-19 7.42565736990186e-39
1.0861967418109137 6.481803314491809e-27 1.8688471274225275e-19 1.8688471274225275e-19 1.0132884989365685e-38
1.0902777775684922 6.523851129255744e-27 1.8880375845078982e-19 1.8880375845078982e-19 1.1828840996689334e-38
1.0943741465085532 6.565760604667993e-27 1.9073056776043498e-19 1.9073056776043498e-19 1.3802505864634415e-38
1.1026131145906286 6.649149648213647e-27 1.9460710595936693e-19 1.9460710595936693e-19 1.8767449576348722e-38
1.1109141095355224 6.731941030976212e-27 1.9851357877606754e-19 1.9851357877606754e-19 2.5472242747045064e-38
1.1192775983109025 6.814028667266709e-27 2.024469326993476e-19 2.024469326993476e-19 3.450925036313231e-38
1.1277040513999907 6.895029462559925e-27 2.0639572610979085e-19 2.0639572610979085e-19 4.66658428412768e-38
1.1361939428280308 6.975337016617595e-27 2.103715943280283e-19 2.103715943280283e-19 6.298803536754323e-38
1.1447477501889525 7.054924577996576e-27 2.1437375092551086e-19 2.1437375092551086e-19 8.486084753394091e-38
1.1533659546722406 7.133809668756324e-27 2.184027381138825e-19 2.184027381138825e-19 1.1411521721535694e-37
1.1707974979042381 7.289729564817313e-27 2.265492536679755e-19 2.265492536679755e-19 2.0519630563472983e-37
1.1884924949847024 7.442503665128051e-27 2.3479288588754425e-19 2.3479288588754425e-19 3.661888088746805e-37
1.2064549276569216 7.59333523554857e-27 2.431717434176725e-19 2.431717434176725e-19 6.485730549281512e-37
1.2246888378427687 7.74056769280731e-27 2.5163323770890135e-19 2.5163323770890135e-19 1.1399890745910455e-36
1.2431983285522175 7.88385606717201e-27 2.60164800522459e-19 2.60164800522459e-19 1.9885207847633774e-36
1.2619875648066055 8.023147524386336e-27 2.6876288009172687e-19 2.6876288009172687e-19 3.44234127992754e-36
1.3004222497298317 8.287414809809778e-27 2.8607038579895915e-19 2.8607038579895915e-19 1.0083493815542306e-35
1.3400274889804893 8.53233903048651e-27 3.0349479289548334e-19 3.034947928954833e-19 2.866145951045886e-35
1.3808389325824078 8.757015176547907e-27 3.209730424366133e-19 3.2097304243661327e-19 7.908680986301625e-35
1.4228933163050095 8.962555396866365e-27 3.3851165450503757e-19 3.385116545050374e-19 2.1195993430546973e-34
1.466228494730424 9.153959086220146e-27 3.5627065760861445e-19 3.5627065760861387e-19 5.521256264690385e-34
1.5108834753276823 9.327469871281574e-27 3.7407980169257693e-19 3.7407980169257563e-19 1.3984975292732945e-33
1.5568984535646726 9.480050811979133e-27 3.917783072262002e-19 3.9177830722619676e-19 3.446278184185484e-33
1.6043148490894465 9.611987768902585e-27 4.093287467423668e-19 4.093287467423584e-19 8.267643098772762e-33
1.6531753430134553 9.723689625345878e-27 4.266968533544561e-19 4.266968533544369e-19 1.9320640961282235e-32
1.7035239163302658 9.816508431076559e-27 4.438893364734126e-19 4.438893364733686e-19 4.401090544287523e-32
1.755405889504358 9.898252769694644e-27 4.612172311822208e-19 4.612172311821231e-19 9.780705539364154e-32
1.8088679632656115 9.966987498364955e-27 4.785642071218872e-19 4.785642071216751e-19 2.1217740186802327e-31
1.8639582606462262 1.002140189029098e-26 4.958314786250697e-19 4.958314786246202e-19 4.495783877659618e-31
1.9207263702978936 1.0062436688891888e-26 5.130244848154204e-19 5.130244848144894e-19 9.310145711379641e-31
1.979223391128241 1.0092288943509744e-26 5.302173367327498e-19 5.302173367308643e-19 1.8855918461141385e-30
2.039501978296691 1.011358857690663e-26 5.475185609764587e-19 5.475185609727212e-19 3.7373601403253064e-30
2.1016163906111602 1.0133710221284564e-26 5.653161091035126e-19 5.653161090962577e-19 7.254959193738707e-30
2.1656225393682647 1.0156924923645148e-26 5.838676835743752e-19 5.838676835605729e-19 1.3802337742518612e-29
2.231578038680979 1.0183532163367861e-26 6.032258599832373e-19 6.032258599574897e-19 2.574766756042807e-29
2.299542257339062 1.0216088563708288e-26 6.235847373441971e-19 6.235847372970742e-19 4.7122839851844944e-29
2.369576372248914 1.0260257483208833e-26 6.453545901840178e-19 6.453545900993541e-19 8.46636408223781e-29
2.4417434235010123 1.0322729954768673e-26 6.690583974520298e-19 6.690583973026175e-19 1.494122051922956e-28
2.5161083711144245 1.0414968158014449e-26 6.9559543341418815e-19 6.955954331550214e-19 2.59166669521259e-28
2.5927381535095444 1.0555734287851227e-26 7.264680873416898e-19 7.264680868995365e-19 4.421532656780511e-28
2.6717017477616296 1.0767448247512395e-26 7.636075270255889e-19 7.636075262832706e-19 7.42318358709424e-28
2.753070231689431 1.1083868390446469e-26 8.099870657421397e-19 8.099870645152536e-19 1.2268859009137744e-27
2.836916847834745 1.1581445642875756e-26 8.72125154056407e-19 8.721251520587826e-19 1.997624396909788e-27
2.9233170693905177 1.242851354367291e-26 9.6441630766347e-19 9.644163044572128e-19 3.206257361708855e-27
2.967498994190263 1.3149235313885479e-26 1.0357632814245485e-18 1.0357632773829568e-18 4.041591742144346e-27
3.0123486681368425 1.399134948751025e-26 1.1187531634195269e-18 1.1187531583421178e-18 5.077409329023502e-27
3.0578761833420214 1.5877697766179187e-26 1.2887742799181213e-18 1.2887742735518944e-18 6.366226592798314e-27
3.1040917844459814 1.8309352116065413e-26 1.5086099379622822e-18 1.5086099300048287e-18 7.95745369427999e-27
3.127460860933648 2.0882364530606445e-26 1.7335684286485753e-18 1.7335684197471678e-18 8.901407491081126e-27
3.1510058709225794 2.4311018230717337e-26 2.033395201707593e-18 2.033395191750675e-18 9.956917818531999e-27
3.162844764501044 2.7502472852792194e-26 2.308974063540893e-18 2.308974052988306e-18 1.0552586847339178e-26
3.1747281389236908 3.121424260777264e-26 2.6304422766378376e-18 2.630442265456303e-18 1.1181533977917986e-26
3.1986289994194426 4.156839150584618e-26 3.529364582001255e-18 3.529364569426918e-18 1.2574336208634077e-26
3.2227097969389145 6.59755039130506e-26 5.643822522929147e-18 5.6438225085781295e-18 1.4351016774768052e-26
3.2348180950136065 8.912132240146021e-26 7.652457369482156e-18 7.652457353984316e-18 1.5497838844275194e-26
3.240889293275058 1.0642557014613299e-25 9.155448300612972e-18 9.155448284409847e-18 1.620312568727673e-26
3.2469718861334385 1.2644354264284627e-25 1.0897945120789928e-17 1.089794510378646e-17 1.7003469683031207e-26
3.2714166318528037 2.332252106643183e-25 2.0252599959998946e-17 2.0252599939310517e-17 2.0688427655478306e-26
3.2744851364798273 2.398996369063939e-25 2.0851727807048613e-17 2.085172778597145e-17 2.1077159514932313e-26
3.2775565192852394 2.4676577878340876e-25 2.1468641043406073e-17 2.1468641021933183e-17 2.147289037116842e-26
3.283707930232385 2.401595532661301e-25 2.0933113195338455e-17 2.0933113173413077e-17 2.192537791474402e-26
3.2898708863219004 2.192143485211503e-25 1.91433202291787e-17 1.9143320207070775e-17 2.2107928415484936e-26
3.29141343181113 2.1427502170911684e-25 1.8720757511502376e-17 1.8720757489348653e-17 2.2153724483893755e-26
3.292184975758714 2.1184802258925907e-25 1.8513054357207322e-17 1.851305433503068e-17 2.2176646360033947e-26
3.295272960557952 1.9652850164786426e-25 1.7190415379857503e-17 1.719041535764816e-17 2.2209344333718276e-26
3.3076538914384823 1.434594902242108e-25 1.2595597544131366e-17 1.2595597521823288e-17 2.230807573337177e-26
3.310756385682612 1.3265919781170756e-25 1.165826774699436e-17 1.16582677246616e-17 2.2332758753256325e-26
3.313861789986515 1.2269447458488361e-25 1.0792668299854695e-17 1.0792668277497249e-17 2.235744462230474e-26
3.3200813396944477 1.0871981762494087e-25 9.581353686001656e-18 9.581353663431171e-18 2.257048638269038e-26
3.345076488085796 8.378844166789262e-26 7.439771533677167e-18 7.439771509250088e-18 2.4427079845402236e-26
3.3482140837626964 8.472277208602682e-26 7.529789044773482e-18 7.52978901999498e-18 2.4778501888073415e-26
3.3513546224236106 8.566743388859517e-26 7.620887948079778e-18 7.620887922945113e-18 2.5134663186993597e-26
3.3576445397418455 9.257320448122636e-26 8.250674380211157e-18 8.250674354196099e-18 2.601505728863428e-26
3.3702598118196083 1.1804638758775407e-25 1.0560525176794961e-17 1.056052514865107e-17 2.814388968542021e-26
3.382922481734668 1.2384557713199153e-25 1.1120952367580943e-17 1.1120952337691997e-17 2.98889468703334e-26
3.389271646505754 1.2684995374871562e-25 1.141211461457603e-17 1.1412114583776753e-17 3.0799274150946847e-26
3.395632727569191 1.300870141023133e-25 1.1725303399626614e-17 1.1725303367844002e-17 3.1782610620321116e-26
3.421196662673239 1.4562912430030595e-25 1.3225000915536658e-17 1.322500087943294e-17 3.610372135116021e-26
3.4276182099114902 1.4249384716949945e-25 1.2964566107528902e-17 1.2964566070656645e-17 3.68722584445766e-26
3.4340518103208963 1.2876088130423482e-25 1.1737084108741138e-17 1.1737084071290227e-17 3.745091465375333e-26
3.4469541582030403 1.0920336416939414e-25 9.991736177387588e-18 9.991736139054284e-18 3.8333300179339444e-26
3.472904465399547 1.037206681941485e-25 9.561534043164704e-18 9.561534001216557e-18 4.1948149848019525e-26
3.4990501388274233 9.533646238915235e-26 8.854797451597434e-18 8.854797405857095e-18 4.574033732848035e-26
3.5253949054701885 6.550423034343823e-26 6.1298035142833476e-18 6.129803465644605e-18 4.8638741486781787e-26
3.5519380250092896 3.7469815034047906e-26 3.532778118822792e-18 3.532778067448368e-18 5.137442428371512e-26
3.578680990867387 2.635534640744462e-26 2.5035781254066285e-18 2.503578069826657e-18 5.557997182514575e-26
3.605625307711299 2.1860639526176384e-26 2.0922466895230085e-18 2.092246628798354e-18 6.07246542829048e-26
3.660119384959845 1.858401528806648e-26 1.805528044218418e-18 1.8055279712643902e-18 7.295402771243269e-26
3.715437065384467 1.6266660825579177e-26 1.604271076729465e-18 1.6042709893025341e-18 8.742693120366552e-26
3.8285932144167436 1.5102260043172168e-26 1.5347958010688063e-18 1.5347956757967158e-18 1.2527209046549173e-25
3.94519561050918 1.489849110711711e-26 1.5601999525576542e-18 1.560199774691403e-18 1.7786625150647817e-25
4.06534921144712 1.5096831373921637e-26 1.6291200715269887e-18 1.6291198213501838e-18 2.501768046468569e-25
4.189162171576248 1.5535959706054704e-26 1.7275661759653323e-18 1.7275658273155653e-18 3.4864976676444283e-25
4.316745939156006 1.615848964392967e-26 1.851512661998886e-18 1.8515121804027828e-18 4.815961037029813e-25
4.448215356677963 1.694855400979926e-26 2.001187999104971e-18 2.0011873394883732e-18 6.596165979668172e-25
4.58368876423945 1.7914251526649477e-26 2.1796322331464097e-18 2.1796313369703872e-18 8.96176022345135e-25
4.723288106065518 1.908170424589077e-26 2.392384777319537e-18 2.392383568986676e-18 1.2083328610385753e-24
4.867139040275056 2.0497726949283116e-26 2.648188465510297e-18 2.648186847797641e-18 1.6177126561699e-24
4.940699165968905 2.1350759891717933e-26 2.800084777369998e-18 2.800082909912083e-18 1.8674579146171886e-24
5.015371051989984 2.224423429548884e-26 2.961351523165883e-18 2.9613493713123073e-18 2.151853575918511e-24
5.091171501069577 2.3321344993877414e-26 3.1516701140506693e-18 3.151667637022912e-18 2.4770277575783963e-24
5.129500256944802 2.3878508916622746e-26 3.25125993971028e-18 3.251257283904432e-18 2.6558058480882613e-24
5.168117569889187 2.4460439347721076e-26 3.3555682100159477e-18 3.3555653635779734e-18 2.8464379745104145e-24
5.20702561229733 2.5160349653055943e-26 3.47756950732113e-18 3.4775664559488354e-18 3.0513722958968623e-24
5.246226572918644 2.5880708621317166e-26 3.604065201110949e-18 3.6040619314933445e-18 3.2696176060302586e-24
5.265937586045735 2.6248774925020805e-26 3.669054640046862e-18 3.669051256076417e-18 3.3839704448956575e-24
5.285722656980489 2.662221905747925e-26 3.735236093909268e-18 3.735232591967189e-18 3.501942079039562e-24
5.305582063971359 2.700113314759212e-26 3.80263341217177e-18 3.802629788537183e-18 3.623634585350165e-24
5.3255160863122235 2.7405797253289115e-26 3.874124510700227e-18 3.874120761050597e-18 3.749649630450947e-24
5.365609099470188 2.839240926392056e-26 4.0438096977782226e-18 4.043805680103913e-18 4.017674308950726e-24
5.406003951863644 2.9418185540689286e-26 4.221450241905276e-18 4.221445938917984e-18 4.30298729184605e-24
5.446702915881641 3.0484971287888857e-26 4.407465395565037e-18 4.407460788985699e-18 4.606579337873428e-24
5.487708281020852 3.1634273100786294e-26 4.608061954559876e-18 4.608057023733592e-18 4.930826284451531e-24
5.529022354014368 3.318964989615483e-26 4.871026026854947e-18 4.871020739005771e-18 5.2878491767566044e-24
5.570647458961463 3.483571975186493e-26 5.151098989981125e-18 5.1510933217492444e-18 5.668231883369623e-24
5.612585937458331 3.65787868686081e-26 5.4495637184467935e-18 5.449557645113586e-18 6.0733332082053566e-24
5.654840148729818 3.848779869473965e-26 5.777139282882009e-18 5.777132775640986e-18 6.5072410237857255e-24
5.67608639626678 3.9763607033520923e-26 5.991067373248942e-18 5.991060626842058e-18 6.746406883942856e-24
5.686739436050992 4.042073458227796e-26 6.101504900707063e-18 6.1014980317346644e-18 6.868972399241181e-24
5.6974124697621304 4.1091077107617604e-26 6.214334412265306e-18 6.214327418699565e-18 6.993565740021858e-24
5.718818669136295 4.2472650771989283e-26 6.447407587953667e-18 6.447400338997149e-18 7.248956519412495e-24
5.740305295436557 4.3989286415270167e-26 6.702724063580691e-18 6.702716546728574e-18 7.516852116757641e-24
5.7835210386641895 4.788085905399395e-26 7.350615169336238e-18 7.350607056513181e-18 8.112823056472943e-24
5.827062130521658 5.234612936880464e-26 8.09661811712165e-18 8.096609356419305e-18 8.760702343979107e-24
5.8489554468988025 5.544643617521394e-26 8.608379078872656e-18 8.608369936973271e-18 9.141899383805528e-24
5.870931020387893 5.876857656535214e-26 9.158441645195055e-18 9.158432106757929e-18 9.53843712326956e-24
5.892989160043636 6.233024673038602e-26 9.749984410593058e-18 9.749974459713212e-18 9.9508798462082e-24
5.915130176081913 6.637002211666004e-26 1.0420911367657127e-17 1.0420900973213304e-17 1.0394443821219165e-23
5.95966208400165 7.759561611769855e-26 1.227519089217976e-17 1.2275179416203687e-17 1.147597607545189e-23
6.004529249263818 9.369655023810921e-26 1.4933857360457262e-17 1.4933844513128258e-17 1.2847329006554301e-23
6.027089341400364 1.0485283494638368e-25 1.677479569174859e-17 1.677478196921759e-17 1.372253100185245e-23
6.049734195844842 1.1801780888662773e-25 1.8951922598938005e-17 1.8951907895404067e-17 1.4703533937646678e-23
6.095279466722835 1.5596053801757452e-25 2.5233516683653696e-17 2.523349931566691e-17 1.7367986795064188e-23
6.141167624020661 2.142410861004904e-25 3.4923932974904246e-17 3.4923911728936956e-17 2.1245967275962048e-23
6.164241091010745 2.514446709329359e-25 4.114257646107271e-17 4.1142552661984795e-17 2.379908791008283e-23
6.187401249150058 2.9379469255887186e-25 4.825270446193833e-17 4.8252677841339534e-17 2.6620598793417167e-23
6.1990139391386085 3.144806932185166e-25 5.174710213621774e-17 5.1747074062264623e-17 2.8073953100342745e-23
6.204828454712694 3.253742452139275e-25 5.3589830788567885e-17 5.358980195848602e-17 2.8830081869426324e-23
6.210648424152782 3.3333934782889985e-25 5.495319652613394e-17 5.4953167067533184e-17 2.945860076874174e-23
6.233982942956859 3.6042649789363217e-25 5.96419390680805e-17 5.964190737599658e-17 3.1692083921151015e-23
6.239830258556775 3.6390864814831773e-25 6.027463447792847e-17 6.02746024769651e-17 3.2000963368482756e-23
6.245683058788269 3.642471870075452e-25 6.03872957341715e-17 6.038726342155959e-17 3.2312611897802476e-23
6.257405133728602 3.6358792984940437e-25 6.039113120193046e-17 6.039109834422639e-17 3.285770407603114e-23
6.269149208991335 3.5837313577120704e-25 5.963668386541434e-17 5.963665083252737e-17 3.3032886968090665e-23
6.280915325867298 3.451718091842759e-25 5.754766284775918e-17 5.754763009973522e-17 3.274802396428226e-23
6.304513850009849 3.1257270746958816e-25 5.2308478849740013e-17 5.230844710009865e-17 3.1749641355086746e-23
6.32820103803542 2.7213075815681223e-25 4.571169573334739e-17 4.571166551869158e-17 3.021465581228229e-23
6.3519772230701035 2.350527876937234e-25 3.963179760954312e-17 3.9631768848016447e-17 2.876152668425786e-23
6.375842739491607 2.0386636522185606e-25 3.450266246382684e-17 3.450263497930049e-17 2.748452634638856e-23
6.399797922933955 1.7892063084487706e-25 3.0394577785078444e-17 3.03945511640362e-17 2.6621042245579973e-23
6.42384311029221 1.5819537569849853e-25 2.6974794380702525e-17 2.6974768490637383e-17 2.5890065140553672e-23
6.447978639727206 1.4314608542177435e-25 2.4500361881652258e-17 2.450033633557781e-17 2.5546074442044233e-23
6.472204850670314 1.3063187293430016e-25 2.2442479711506462e-17 2.2442454412659954e-17 2.5298846506682092e-23
6.496522083828205 1.2256625629469633e-25 2.113592568205807e-17 2.113590029275425e-17 2.5389303820102446e-23
6.520930681187647 1.1579862183898415e-25 2.0043908308050295e-17 2.0043882765917673e-17 2.5542132620287305e-23
6.57002334288761 1.090617214169648e-25 1.9019920349406023e-17 1.901989397214876e-17 2.6377257266887912e-23
