Dust emission spectrum from A.P. Jones, M. Kohler, N. Ysard, M. Bocchio, and L. Verstraete (2017), A&A, 602A, 46J 
inside the DustPedia framework.

lambda    nu*dP/dnu     j_nu    j_nu(carb.) j_nu(sil)
 (um)   (erg s-1 H-1) (Jy cm2 sr-1 H-1)
0.9927057738263894 7.66051883475732e-21 2.018590223836896e-13 2.0185900593405383e-13 1.6449635725080235e-20
1.0001793341362166 7.789208880774107e-21 2.067952982130045e-13 2.067952784190864e-13 1.9793918062283167e-20
1.0077091589558085 7.918429763028594e-21 2.1180865758926816e-13 2.1180863380296927e-13 2.378629883651348e-20
1.0114953028030835 7.983233726774352e-21 2.143444030720622e-13 2.1434437701013656e-13 2.6061925634025224e-20
1.0152956718711033 8.048163855844695e-21 2.1689961326082036e-13 2.1689958471511669e-13 2.854570364988457e-20
1.0229392996569957 8.17833103061708e-21 2.2206697783217958e-13 2.2206694362015792e-13 3.4212021707178734e-20
1.0267826658714554 8.24342043331669e-21 2.2467534217362778e-13 2.246753047371101e-13 3.7436517683666085e-20
1.0306404723013447 8.308624777658435e-21 2.2730331643167626e-13 2.2730327548045378e-13 4.09512225699155e-20
1.03451277320114 8.373942228822122e-21 2.2995097257136425e-13 2.299509277904392e-13 4.478092505960655e-20
1.0383996230291617 8.439371016003061e-21 2.3261838425195103e-13 2.32618335299542e-13 4.895240899605311e-20
1.0403485208654093 8.47212662512564e-21 2.3395952192013675e-13 2.3395947074486554e-13 5.117527120354054e-20
1.0423010764483396 8.504909434028154e-21 2.353056269012644e-13 2.353055734066611e-13 5.349460334565867e-20
1.0462171883269815 8.570555844963741e-21 2.380127777911678e-13 2.380127193524252e-13 5.84387425768483e-20
1.0471985131304309 8.586984136176241e-21 2.38692685413298e-13 2.386926256718232e-13 5.974147483765878e-20
1.048180758391296 8.603419054698173e-21 2.393738434968485e-13 2.3937378242487383e-13 6.107197465750833e-20
1.0501480137395462 8.6363086797145e-21 2.4073991611413344e-13 2.407398522955953e-13 6.381853809979138e-20
1.0521189612883777 8.669224534892543e-21 2.4211100585491997e-13 2.421109391718561e-13 6.668306390492075e-20
1.0531058218030118 8.685670528513642e-21 2.4279782839319513e-13 2.427977602320371e-13 6.816115795864443e-20
1.0540936079674168 8.702051876363023e-21 2.434839175745264e-13 2.434838479036288e-13 6.967089757282076e-20
1.058054026499678 8.76763887124926e-21 2.4624075311002906e-13 2.462406770740989e-13 7.603593013355298e-20
1.0590464539527713 8.784050916726476e-21 2.469330882672326e-13 2.4693301055521973e-13 7.771201285470958e-20
1.06003981227728 8.8004690402903e-21 2.476266765925648e-13 2.476265971691729e-13 7.942339188661951e-20
1.0620293250338977 8.833323442825021e-21 2.490176181360447e-13 2.4901753518116897e-13 8.295487576641107e-20
1.0660195594769086 8.899104334401669e-21 2.5181459901979945e-13 2.5181450854643583e-13 9.047336365714708e-20
1.070024785945596 8.964980366698064e-21 2.5463178446498994e-13 2.546316858244356e-13 9.864055426008042e-20
1.0740450607676866 9.030950439362269e-21 2.574692655949254e-13 2.5746915808553183e-13 1.0750939359819196e-19
1.07808044048254 9.097013532479249e-21 2.603271360366935e-13 2.603270188998091e-13 1.171368843843252e-19
1.0861967418109137 9.229314374448948e-21 2.6610152792210515e-13 2.661013890042227e-13 1.3891788252447435e-19
1.0902777775684922 9.295321469910232e-21 2.690115998596654e-13 2.6901144865125117e-13 1.5120841417249478e-19
1.0943741465085532 9.361414401683864e-21 2.719422762085556e-13 2.7194211167630376e-13 1.645322518058422e-19
1.1026131145906286 9.49385555750225e-21 2.778658704031622e-13 2.778656757891577e-13 1.946140044514064e-19
1.1109141095355224 9.626634314885575e-21 2.8387319803057047e-13 2.8387296813559795e-13 2.2989497255501095e-19
1.1192775983109025 9.759645119795937e-21 2.8996212302837217e-13 2.899618518097499e-13 2.712186222386066e-19
1.1277040513999907 9.89241169487742e-21 2.961193285435461e-13 2.961190089878265e-13 3.1955571959411104e-19
1.1361939428280308 1.002549898553699e-20 3.0236248090908163e-13 3.023621048870693e-13 3.7602201223567547e-19
1.1447477501889525 1.0158909782195566e-20 3.0869268285523895e-13 3.0869224095711105e-13 4.418981278508072e-19
1.1533659546722406 1.029269531626589e-20 3.151125336984639e-13 3.1511201504577774e-13 5.186526861858958e-19
1.1707974979042381 1.0561799580141414e-20 3.282382139140081e-13 3.282375021457759e-13 7.117682321910778e-19
1.1884924949847024 1.0832475604264552e-20 3.4173825407016903e-13 3.4173728218416334e-13 9.718860056462512e-19
1.2064549276569216 1.1106555654515089e-20 3.556803984143771e-13 3.556790779143906e-13 1.3204999864753685e-18
1.2246888378427687 1.1382309553124942e-20 3.7002032914449274e-13 3.700185437910252e-13 1.785353467550371e-18
1.2431983285522175 1.1659538935427558e-20 3.847611619839548e-13 3.8475875985493087e-13 2.4021290239970873e-18
1.2619875648066055 1.1938678056452926e-20 3.999270223048292e-13 3.999238058176666e-13 3.2164871625557758e-18
1.3004222497298317 1.2501125204204161e-20 4.315219875146881e-13 4.315163018121101e-13 5.6857025779580504e-18
1.3400274889804893 1.3071622001839849e-20 4.649568187669896e-13 4.649469528317471e-13 9.86593524246672e-18
1.3808389325824078 1.3652596581804987e-20 5.004119981152211e-13 5.003951849746148e-13 1.6813140606425636e-17
1.4228933163050095 1.4249273653246744e-20 5.381886065152895e-13 5.381604530703371e-13 2.8153444952380955e-17
1.466228494730424 1.487232746421504e-20 5.788286615594257e-13 5.787823164432504e-13 4.6345116175192076e-17
1.5108834753276823 1.5521223846947937e-20 6.224813822844998e-13 6.224063483404191e-13 7.503394408094581e-17
1.5568984535646726 1.6196254194354168e-20 6.693361857988413e-13 6.692165799695085e-13 1.1960582933286755e-16
1.6043148490894465 1.69022347925932e-20 7.197856209493811e-13 7.195975586272657e-13 1.8806232211523163e-16
1.6531753430134553 1.764442084292446e-20 7.742759325958888e-13 7.739846002801239e-13 2.9133231576503935e-16
1.7035239163302658 1.842900461380532e-20 8.333348549867614e-13 8.328901070323939e-13 4.447479543674191e-16
1.755405889504358 1.9271408381846512e-20 8.979671283067557e-13 8.972977154411231e-13 6.694128656327716e-16
1.8088679632656115 2.0173693635806263e-20 9.686384879205732e-13 9.676447278309223e-13 9.937600896509006e-16
1.8639582606462262 2.113792344779041e-20 1.045846474666942e-12 1.0443908553471055e-12 1.4556193198367743e-15
1.9207263702978936 2.2169502506022457e-20 1.1302925875123028e-12 1.128188059454717e-12 2.1045280575857857e-15
1.979223391128241 2.3275605579463282e-20 1.2228276132662075e-12 1.2198231410699192e-12 3.004472196288297e-15
2.039501978296691 2.4463342616518e-20 1.3243700833010135e-12 1.3201332544453969e-12 4.236828855616849e-15
2.1016163906111602 2.5747528334065197e-20 1.4363438680409698e-12 1.4304398185761592e-12 5.904049464810479e-15
2.1656225393682647 2.7138002673994376e-20 1.5600196789102375e-12 1.551886836483616e-12 8.132842426621397e-15
2.231578038680979 2.8637084182160766e-20 1.6963298643408311e-12 1.6852521363648842e-12 1.1077727975947237e-14
2.299542257339062 3.0251450268306355e-20 1.846532804820888e-12 1.831608119789971e-12 1.4924685030916822e-14
2.369576372248914 3.199086494521188e-20 2.0121767480140017e-12 1.9922817790596254e-12 1.9894968954376507e-14
2.4417434235010123 3.3866224879292205e-20 2.1950087084300816e-12 2.1687609282611215e-12 2.6247780168960116e-14
2.5161083711144245 3.589421971516273e-20 2.3973050076605022e-12 2.3630211263328194e-12 3.428388132768227e-14
2.5927381535095444 3.809860631439682e-20 2.6220271280850907e-12 2.5776797348441527e-12 4.434739324093821e-14
2.6717017477616296 4.0500428700165234e-20 2.872215541909319e-12 2.8153911176769903e-12 5.682442423232852e-14
2.753070231689431 4.3127287088589165e-20 3.151656397545703e-12 3.079513616564611e-12 7.21427809810924e-14
2.836916847834745 4.604436907309655e-20 3.4673091520320132e-12 3.3765359140100813e-12 9.077323802193263e-14
2.9233170693905177 4.93860245650545e-20 3.832211092166692e-12 3.719008477335982e-12 1.1320261483070976e-13
2.967498994190263 5.132914573177375e-20 4.043189063604272e-12 3.917438148864957e-12 1.2575091473931508e-13
3.0123486681368425 5.3400275113868444e-20 4.269904540976795e-12 4.130395280885543e-12 1.3950926009125135e-13
3.0578761833420214 5.638331850946793e-20 4.5765684535334135e-12 4.421948763356306e-12 1.546196901771075e-13
3.1040917844459814 5.978035062500666e-20 4.925637481657386e-12 4.754612206577126e-12 1.710252750802595e-13
3.127460860933648 6.259521604566674e-20 5.196398624406795e-12 5.016604358909264e-12 1.7979426549753063e-13
3.1510058709225794 6.606379015278629e-20 5.525634205381006e-12 5.33671039776539e-12 1.8892380761561594e-13
3.162844764501044 6.902794001889825e-20 5.795250631330448e-12 5.601606441681362e-12 1.9364418964908575e-13
3.1747281389236908 7.235233077791806e-20 6.097172758057871e-12 5.898715139075109e-12 1.9845761898276153e-13
3.1986289994194426 8.119427182304186e-20 6.893800237455039e-12 6.6854070829910896e-12 2.0839315446395102e-13
3.2227097969389145 1.0106487626726693e-19 8.645515246173349e-12 8.426605107255112e-12 2.189101389182357e-13
3.2348180950136065 1.1949857378832231e-19 1.0260818814040302e-11 1.0036298979243175e-11 2.245198347971232e-13
3.240889293275058 1.332105205346538e-19 1.145967113145957e-11 1.1232192312867866e-11 2.274788185917053e-13
3.2469718861334385 1.4908247586395976e-19 1.2849154701605017e-11 1.2618614217833249e-11 2.3054048377177124e-13
3.2714166318528037 2.32130901095973e-19 2.0157573295184416e-11 1.9914389495987117e-11 2.431837991972962e-13
3.2744851364798273 2.373494086162802e-19 2.0630065670177454e-11 2.038539442353219e-11 2.446712466452637e-13
3.2775565192852394 2.427053562640477e-19 2.1115383983280096e-11 2.0869218086796872e-11 2.4616589648322295e-13
3.283707930232385 2.377367013099085e-19 2.072192928212167e-11 2.0473095604721707e-11 2.4883367739995773e-13
3.2898708863219004 2.2168336404371347e-19 1.935893182175052e-11 1.9107675035214078e-11 2.512567865364413e-13
3.29141343181113 2.178906693301914e-19 1.903664903176116e-11 1.8784783909914313e-11 2.5186512184684645e-13
3.292184975758714 2.1602604189158233e-19 1.8878164673102685e-11 1.8625994999546032e-11 2.5216967355665625e-13
3.295272960557952 2.0437558875300782e-19 1.7876802777757892e-11 1.762344934750213e-11 2.533534302557655e-13
3.3076538914384823 1.637262725976404e-19 1.4375000453560732e-11 1.411689484025184e-11 2.5810561330889054e-13
3.310756385682612 1.553734127275074e-19 1.365442333604766e-11 1.3395120379661547e-11 2.59302956386112e-13
3.313861789986515 1.4763570761078371e-19 1.2986593135905012e-11 1.272608911348401e-11 2.6050402242100246e-13
3.3200813396944477 1.36872618013867e-19 1.2062427915800829e-11 1.1799338318305193e-11 2.6308959749563715e-13
3.345076488085796 1.1841252345311279e-19 1.051412466541826e-11 1.0239506804238092e-11 2.7461786118016454e-13
3.3482140837626964 1.1925803232278628e-19 1.0599131770305488e-11 1.0322951973276151e-11 2.761797970293363e-13
3.3513546224236106 1.2011070421391002e-19 1.0684926308981245e-11 1.0407177794297572e-11 2.777485146836688e-13
3.3576445397418455 1.257316284774421e-19 1.120595027118712e-11 1.0924921093796473e-11 2.810291773906447e-13
3.3702598118196083 1.4584530334947184e-19 1.3047438633345976e-11 1.2759528555398844e-11 2.879100779471309e-13
3.382922481734668 1.508762758174893e-19 1.3548226070084459e-11 1.3253635529403487e-11 2.9459054068097244e-13
3.389271646505754 1.5346567818053255e-19 1.3806610542951106e-11 1.3508635407250976e-11 2.979751357001312e-13
3.395632727569191 1.5630662824532552e-19 1.4088590257807274e-11 1.3787127090296854e-11 3.014631675104193e-13
3.421196662673239 1.699848701284634e-19 1.5436816460150798e-11 1.5120922743634903e-11 3.1589371651589034e-13
3.4276182099114902 1.6776891133355463e-19 1.5264175857254767e-11 1.4945070098790256e-11 3.1910575846451004e-13
3.4340518103208963 1.5721402521888628e-19 1.4330705245080754e-11 1.400856552797345e-11 3.2213971710730525e-13
3.4469541582030403 1.4213458523243231e-19 1.3004830832152126e-11 1.2676876076020203e-11 3.279547561319246e-13
3.472904465399547 1.3844385740492944e-19 1.276250605295418e-11 1.2421143470726123e-11 3.4136258222806196e-13
3.4990501388274233 1.3258646625871821e-19 1.2314557034346088e-11 1.195949257728722e-11 3.550644570588677e-13
3.5253949054701885 1.1036663631770344e-19 1.0327971057943441e-11 9.959625086340342e-12 3.683459716030999e-13
3.5519380250092896 8.923795020501032e-20 8.413649161769046e-12 8.031978088867212e-12 3.8167107290183113e-13
3.578680990867387 8.14064638682953e-20 7.733058752352408e-12 7.336786146695283e-12 3.962726056571247e-13
3.605625307711299 7.881137057066162e-20 7.542909665373318e-12 7.131273521619586e-12 4.116361437537318e-13
3.660119384959845 7.811525237017046e-20 7.589279100846888e-12 7.14543248547524e-12 4.4384661537164795e-13
3.715437065384467 7.811963382277579e-20 7.704412750126535e-12 7.226708019284498e-12 4.777047308420373e-13
3.8285932144167436 8.091458010624813e-20 8.22309756535156e-12 7.672967777066277e-12 5.501297882852857e-13
3.94519561050918 8.446967005139269e-20 8.845833733040713e-12 8.217245248760413e-12 6.285884842802989e-13
4.06534921144712 8.832340828265017e-20 9.531101835547689e-12 8.81823844737515e-12 7.128633881725369e-13
4.189162171576248 9.232492521777538e-20 1.0266338290166772e-11 9.4633549812368e-12 8.029833089299663e-13
4.316745939156006 9.639398540067342e-20 1.1045257845428083e-11 1.0146795222824978e-11 8.984626226031046e-13
4.448215356677963 1.0047362025054574e-19 1.1863348516679965e-11 1.086554501761146e-11 9.978034990685032e-13
4.58368876423945 1.0453654141138715e-19 1.2718991628701284e-11 1.1618004021514842e-11 1.1009876071864413e-12
4.723288106065518 1.0857108767804204e-19 1.3612191766042501e-11 1.2403662772455723e-11 1.208528993586784e-12
4.867139040275056 1.1254961465312325e-19 1.4540763083608823e-11 1.3223469277155136e-11 1.317293806453685e-12
4.940699165968905 1.1454992451807017e-19 1.5022861084038084e-11 1.3650421671489823e-11 1.3724394125482572e-12
5.015371051989984 1.1649974584081147e-19 1.5509488670693022e-11 1.4081592342959499e-11 1.4278963277335186e-12
5.091171501069577 1.185212495348655e-19 1.601708135345724e-11 1.4532170877707663e-11 1.4849104757495824e-12
5.129500256944802 1.1950960090819493e-19 1.6272237902304197e-11 1.4758777982022898e-11 1.5134599202813004e-12
5.168117569889187 1.2049473109905426e-19 1.652988662233808e-11 1.4987548091421844e-11 1.5423385309162359e-12
5.20702561229733 1.2156989651372e-19 1.6802936801514175e-11 1.5228917721630105e-11 1.5740190798840722e-12
5.246226572918644 1.226319289134373e-19 1.7077332541736928e-11 1.5471527375900166e-11 1.6058051658367695e-12
5.265937586045735 1.2315793299362276e-19 1.721502000758513e-11 1.5593287210660037e-11 1.6217327969250993e-12
5.285722656980489 1.2368055165939293e-19 1.7353026044723593e-11 1.5715345245332787e-11 1.637680799390808e-12
5.305582063971359 1.2419975353365084e-19 1.7491344899822337e-11 1.583769775799374e-11 1.6536471418285999e-12
5.3255160863122235 1.2473303738281504e-19 1.7632448819231345e-11 1.596267946039181e-11 1.6697693588395385e-12
5.365609099470188 1.2592464634753923e-19 1.793491004430377e-11 1.6231773269157767e-11 1.7031367751460025e-12
5.406003951863644 1.2710892174309112e-19 1.8239873689644223e-11 1.650327076260633e-11 1.7366029270378915e-12
5.446702915881641 1.2828607500510652e-19 1.8547382937588584e-11 1.677723142577052e-11 1.7701515118180667e-12
5.487708281020852 1.2948910282909257e-19 1.8862257601929904e-11 1.705833419955682e-11 1.8039234023730857e-12
5.529022354014368 1.3097604351979412e-19 1.9222490109885644e-11 1.7383364803494605e-11 1.839125306391035e-12
5.570647458961463 1.3247676790991223e-19 1.9589115719079713e-11 1.7714693588992266e-11 1.874422130087447e-12
5.612585937458331 1.3399344033465789e-19 1.996254806318574e-11 1.8052750786936937e-11 1.9097972762488002e-12
5.654840148729818 1.3557725554073054e-19 2.0350571230688184e-11 1.840514495347029e-11 1.9454262772178938e-12
5.67608639626678 1.3659286351440665e-19 2.058005068126605e-11 1.86159557712941e-11 1.9640949099719527e-12
5.686739436050992 1.3710686876915936e-19 2.0696264933354435e-11 1.872282556225962e-11 1.973439371094818e-12
5.6974124697621304 1.3762517490677365e-19 2.081349335714167e-11 1.883070311308217e-11 1.9827902440595083e-12
5.718818669136295 1.38675210192865e-19 2.105109020057217e-11 1.9049580033683924e-11 2.001510166888252e-12
5.740305295436557 1.3980460389675215e-19 2.1302270600435073e-11 1.9281865889171018e-11 2.0204047112640565e-12
5.7835210386641895 1.4262582672253389e-19 2.1895755133873875e-11 1.983631690327122e-11 2.059438230602652e-12
5.827062130521658 1.4573250465267699e-19 2.254112102751876e-11 2.0442159071284714e-11 2.0989619562340545e-12
5.8489554468988025 1.478741661013672e-19 2.295831735244682e-11 2.0837923409312195e-11 2.1203939431346306e-12
5.870931020387893 1.5011731087618235e-19 2.3394145510130977e-11 2.1252262757425058e-11 2.1418827527059228e-12
5.892989160043636 1.524702020497055e-19 2.3850091585469265e-11 2.168666532496709e-11 2.163426260502176e-12
5.915130176081913 1.5510689879481062e-19 2.4353694534134434e-11 2.216790779735077e-11 2.1857867367836586e-12
5.95966208400165 1.6240853630435315e-19 2.5692118774229672e-11 2.3454863454625822e-11 2.2372553196038592e-12
6.004529249263818 1.7269398373850365e-19 2.752489086957854e-11 2.5229426867203925e-11 2.295464002374621e-12
6.027089341400364 1.797791872224299e-19 2.8761827344267647e-11 2.6432472324336166e-11 2.3293550199314783e-12
6.049734195844842 1.8802045087564506e-19 3.0193316293778464e-11 2.782800591916699e-11 2.365310374611471e-12
6.095279466722835 2.1163854976752426e-19 3.424189826699184e-11 3.178733271424935e-11 2.454565552742476e-12
6.141167624020661 2.4737024107826335e-19 4.032439284475508e-11 3.775290095582476e-11 2.5714918889303248e-12
6.164241091010745 2.7009027572101816e-19 4.419345925691935e-11 4.1548059742866137e-11 2.6453995140532183e-12
6.187401249150058 2.954870455096829e-19 4.8530655728074335e-11 4.580946610136679e-11 2.7211896267075264e-12
6.1990139391386085 3.078050306743325e-19 5.0648636637539934e-11 4.7888901642509505e-11 2.759734995030433e-12
6.204828454712694 3.142529290289913e-19 5.1758126339726103e-11 4.897893332262946e-11 2.779193017096633e-12
6.210648424152782 3.1891119744629126e-19 5.257462049348665e-11 4.9778965002813175e-11 2.7956554906734603e-12
6.233982942956859 3.34455381927064e-19 5.534434240118606e-11 5.24917811222893e-11 2.8525612788967518e-12
6.239830258556775 3.3628229328106194e-19 5.5698847532346694e-11 5.28387596108712e-11 2.860087921475484e-12
6.245683058788269 3.3621199972188036e-19 5.573943788936333e-11 5.287181512953141e-11 2.8676227598319276e-12
6.257405133728602 3.3525359602935926e-19 5.568486256437038e-11 5.2804267393251314e-11 2.8805951711190783e-12
6.269149208991335 3.31526894974923e-19 5.516921514207537e-11 5.2284899213916077e-11 2.8843159281593013e-12
6.280915325867298 3.229853514488846e-19 5.384869683845589e-11 5.097208636034218e-11 2.8766104781137034e-12
6.304513850009849 3.022528103365932e-19 5.05814626771419e-11 4.7730580029602964e-11 2.850882647538923e-12
6.32820103803542 2.7711882696459175e-19 4.654957633597603e-11 4.3735396197248436e-11 2.814180138727598e-12
6.3519772230701035 2.5424131017766497e-19 4.2867137411173774e-11 4.008614567919828e-11 2.7809917319755063e-12
6.375842739491607 2.3490571486627435e-19 3.975581053811867e-11 3.7004391293951746e-11 2.7514192441669154e-12
6.399797922933955 2.196644113401776e-19 3.7316026696111234e-11 3.4581200201515414e-11 2.7348264945958097e-12
6.42384311029221 2.0691400344561103e-19 3.5282085034337115e-11 3.2561253915840236e-11 2.7208311184968757e-12
6.447978639727206 1.9770400182785327e-19 3.383829586370538e-11 3.1121368163190533e-11 2.716927700514848e-12
6.472204850670314 1.8998928574634043e-19 3.264004867258004e-11 2.992503027107469e-11 2.715018401505344e-12
