Dust emission spectrum from A.P. Jones, M. Kohler, N. Ysard, M. Bocchio, and L. Verstraete (2017), A&A, 602A, 46J 
inside the DustPedia framework.

lambda    nu*dP/dnu     j_nu    j_nu(carb.) j_nu(sil)
 (um)   (erg s-1 H-1) (Jy cm2 sr-1 H-1)
0.9927057738263894 7.244905163682658e-20 1.9090736608701975e-12 1.9090734681768235e-12 1.9269337470485733e-19
1.0001793341362166 7.366284127416488e-20 1.9556709110867034e-12 1.9556706792749e-12 2.3181180359084226e-19
1.0077091589558085 7.488197204303836e-20 2.003004440366063e-12 2.00300416186934e-12 2.784967227263626e-19
1.0114953028030835 7.549349476838272e-20 2.0269490567065068e-12 2.026948751605905e-12 3.0510060198556607e-19
1.0152956718711033 7.610629913204045e-20 2.051079866678404e-12 2.05107953254509e-12 3.34133313691702e-19
1.0229392996569957 7.733508665707655e-20 2.0998867507360987e-12 2.0998863503857907e-12 4.003503084599327e-19
1.0267826658714554 7.794967836611317e-20 2.124527166957116e-12 2.1245267289340877e-12 4.380230277258183e-19
1.0306404723013447 7.856545714803862e-20 2.1493555726261576e-12 2.1493550935465914e-12 4.790795659297087e-19
1.03451277320114 7.918240857689574e-20 2.174372758404073e-12 2.1743722345958156e-12 5.238082579744688e-19
1.0383996230291617 7.98005188614833e-20 2.1995795332170583e-12 2.1995789606964805e-12 5.725205783047121e-19
1.0403485208654093 8.01100044422507e-20 2.212254274475159e-12 2.212253676000473e-12 5.984746861836675e-19
1.0423010764483396 8.041977486062372e-20 2.2249767249873065e-12 2.2249760994344313e-12 6.255528741794622e-19
1.0462171883269815 8.104016409834038e-20 2.2505651813741458e-12 2.2505644981059275e-12 6.832682186834799e-19
1.0471985131304309 8.119543707882707e-20 2.2569922818422605e-12 2.2569915833682278e-12 6.984740324004674e-19
1.048180758391296 8.135077996852627e-20 2.2634314042739297e-12 2.2634306902706424e-12 7.140032869448186e-19
1.0501480137395462 8.166167477893723e-20 2.2763457705255257e-12 2.2763450244671354e-12 7.460583909765609e-19
1.0521189612883777 8.197284716386167e-20 2.289308391973744e-12 2.289307612486409e-12 7.7948733553090285e-19
1.0531058218030118 8.212833325568614e-20 2.295802137390722e-12 2.2958013406551774e-12 7.9673554474891665e-19
1.0540936079674168 8.22832206734156e-20 2.3022892996801883e-12 2.3022884853278918e-12 8.143522958063212e-19
1.058054026499678 8.290342958627975e-20 2.328358094637292e-12 2.328357206021314e-12 8.886159781877218e-19
1.0590464539527713 8.305864588466252e-20 2.3349054018504656e-12 2.334904493681001e-12 9.081694646919872e-19
1.06003981227728 8.321392752512748e-20 2.3414647815842033e-12 2.3414638534503563e-12 9.281338462283233e-19
1.0620293250338977 8.352468628372725e-20 2.3546198176212454e-12 2.3546188482930103e-12 9.693282349477146e-19
1.0660195594769086 8.414698203717583e-20 2.3810754143543115e-12 2.38107435733543e-12 1.0570188811152956e-18
1.070024785945596 8.47703088787307e-20 2.4077258551085628e-12 2.4077247028499563e-12 1.1522586059467635e-18
1.0740450607676866 8.539465961544131e-20 2.434572135518098e-12 2.434570879856193e-12 1.2556619052905914e-18
1.07808044048254 8.602002784340732e-20 2.4616152774005943e-12 2.4616139095103866e-12 1.3678902070086048e-18
1.0861967418109137 8.727284821941378e-20 2.516269065619143e-12 2.5162674438965855e-12 1.6217225567383353e-18
1.0902777775684922 8.78981388879492e-20 2.5438193873635487e-12 2.543817622447925e-12 1.7649156242445925e-18
1.0943741465085532 8.8524392910694e-20 2.571569196187328e-12 2.571567276068592e-12 1.9201187361987398e-18
1.1026131145906286 8.977978359988578e-20 2.6276719256463045e-12 2.6276696552185113e-12 2.270427793095772e-18
1.1109141095355224 9.103901428732335e-20 2.6845868749092975e-12 2.6845841937806494e-12 2.6811286484878578e-18
1.1192775983109025 9.230111994224375e-20 2.742295274862311e-12 2.742292112873325e-12 3.161988986382422e-18
1.1277040513999907 9.356164995831801e-20 2.800673265289807e-12 2.8006695410445628e-12 3.724245245088043e-18
1.1361939428280308 9.482594640011986e-20 2.8598884154748235e-12 2.859884034668768e-12 4.380806055736657e-18
1.1447477501889525 9.609406457473856e-20 2.919952557510524e-12 2.919947411030145e-12 5.146480379700105e-18
1.1533659546722406 9.73665080298957e-20 2.980891408899029e-12 2.980885370656187e-12 6.0382428409390696e-18
1.1707974979042381 9.992827204089943e-20 3.1055576547665158e-12 3.105549374211293e-12 8.280555223060623e-18
1.1884924949847024 1.0250840453856912e-19 3.2338907996929255e-12 3.2338795012831902e-12 1.1298409735555075e-17
1.2064549276569216 1.0512428920492762e-19 3.3665386669391637e-12 3.366523327266825e-12 1.533967233902224e-17
1.2246888378427687 1.0776000536588641e-19 3.5031021136787302e-12 3.50308138972923e-12 2.0723949500852784e-17
1.2431983285522175 1.104138784859957e-19 3.6436236819229786e-12 3.643595820040979e-12 2.786188199893582e-17
1.2619875648066055 1.1309033009194944e-19 3.788348990673856e-12 3.788311712276038e-12 3.727839781787578e-17
1.3004222497298317 1.1849734598032457e-19 4.090368620214181e-12 4.090302828777417e-12 6.579143676419897e-17
1.3400274889804893 1.2400168452436752e-19 4.410732558674256e-12 4.4106185815914316e-12 1.1397708282391453e-16
1.3808389325824078 1.2962825998685279e-19 4.751296663864681e-12 4.7511027506102054e-12 1.9391325447541495e-16
1.4228933163050095 1.3542803450350156e-19 5.1150554720336055e-12 5.114731314787628e-12 3.2415724597751687e-16
1.466228494730424 1.4150289131222396e-19 5.507270424358321e-12 5.5067377270527056e-12 5.326973056159309e-16
1.5108834753276823 1.4784960796874715e-19 5.929534245890309e-12 5.92867330383649e-12 8.609420538202801e-16
1.5568984535646726 1.5447234755419391e-19 6.3838175594551405e-12 6.3824476324944615e-12 1.3699269606787688e-15
1.6043148490894465 1.6141739384073647e-19 6.873997461483591e-12 6.871847308662924e-12 2.150152820666057e-15
1.6531753430134553 1.6873496762983017e-19 7.404460910685795e-12 7.401136089727199e-12 3.324820958595744e-15
1.7035239163302658 1.764834845129613e-19 7.98034631040223e-12 7.975279965005055e-12 5.0663453971715716e-15
1.755405889504358 1.8480771366577664e-19 8.611267461163825e-12 8.603656047478549e-12 7.611413685276856e-15
1.8088679632656115 1.9372697056522398e-19 9.301786932298292e-12 9.29050892380233e-12 1.1278008495963718e-14
1.8639582606462262 2.032599360174865e-19 1.0056744128626209e-11 1.0040256149141397e-11 1.6487979484812287e-14
1.9207263702978936 2.134566565736621e-19 1.0882899903361735e-11 1.0859107841658721e-11 2.3792061703017185e-14
1.979223391128241 2.243837591876613e-19 1.1788421820708409e-11 1.175452241188445e-11 3.3899408823955085e-14
2.039501978296691 2.3610681712907954e-19 1.2782096460442063e-11 1.2734387494859945e-11 4.770896558211732e-14
2.1016163906111602 2.4876398456565403e-19 1.3877472788235627e-11 1.3811124076902529e-11 6.634871133309582e-14
2.1656225393682647 2.624465135173434e-19 1.508665654826452e-11 1.499544785883417e-11 9.1208689430346e-14
2.231578038680979 2.7717441333651713e-19 1.641854428974224e-11 1.62945666122681e-11 1.2397767747413918e-13
2.299542257339062 2.930092834110735e-19 1.788513440304226e-11 1.7718454159129217e-11 1.666802439130415e-13
2.369576372248914 3.100406224692752e-19 1.9501083591859447e-11 1.9279368568296494e-11 2.217150235629491e-13
2.4417434235010123 3.2836811293257713e-19 2.1282881987194294e-11 2.099100248282516e-11 2.918795043691373e-13
2.5161083711144245 3.4814422151502746e-19 2.3251874319849908e-11 2.2871469592556243e-11 3.804047272936659e-13
2.5927381535095444 3.695841668241074e-19 2.5435568522551027e-11 2.494459955804778e-11 4.909689645032474e-13
2.6717017477616296 3.9287271595594165e-19 2.786180682468127e-11 2.7234130663597047e-11 6.276761610842186e-13
2.753070231689431 4.182488837237424e-19 3.0564796887097755e-11 2.976975113213837e-11 7.950457549593906e-13
2.836916847834745 4.462855402001979e-19 3.360693107769913e-11 3.2608911213900094e-11 9.980198637990384e-13
2.9233170693905177 4.781570295571774e-19 3.71035872719971e-11 3.586193690706579e-11 1.2416503649313026e-12
2.967498994190263 4.964793457463712e-19 3.910760314455295e-11 3.7730102723182143e-11 1.3775004213708109e-12
3.0123486681368425 5.159487539507386e-19 4.1255441525495603e-11 3.972917646875041e-11 1.526265056745185e-12
3.0578761833420214 5.435261702620533e-19 4.4117387735406936e-11 4.242792159036988e-11 1.6894661450370499e-12
3.1040917844459814 5.747191555533561e-19 4.735432603561746e-11 4.548795817442232e-11 1.8663678611951256e-12
3.127460860933648 6.00173203755528e-19 4.9823922775915485e-11 4.786311220729011e-11 1.960810568625381e-12
3.1510058709225794 6.313601230798101e-19 5.280752260709077e-11 5.074846839268318e-11 2.0590542144075865e-12
3.162844764501044 6.578218315307797e-19 5.522752646881827e-11 5.3117707335014443e-11 2.1098191338038265e-12
3.1747281389236908 6.874172161753058e-19 5.792904635994449e-11 5.5767483674804185e-11 2.161562685140294e-12
3.1986289994194426 7.658205887545027e-19 6.502200263720477e-11 6.275370167662703e-11 2.268300960577734e-12
3.2227097969389145 9.41223893944875e-19 8.051625674229029e-11 7.813505371781192e-11 2.3812030244783416e-12
3.2348180950136065 1.103602054666973e-18 9.476147176282871e-11 9.232006767674151e-11 2.441404086087188e-12
3.240889293275058 1.2243159306301063e-18 1.053239479112914e-10 1.0285078880253929e-10 2.4731591087520768e-12
3.2469718861334385 1.364027376131016e-18 1.1756310506356974e-10 1.1505708895177789e-10 2.5060161117918712e-12
3.2714166318528037 2.093768631130635e-18 1.8181678719165536e-10 1.7917515423767678e-10 2.6416329539785877e-12
3.2744851364798273 2.1396024389424025e-18 1.859711346271539e-10 1.8331356663039464e-10 2.6575679967592865e-12
3.2775565192852394 2.1866329408766586e-18 1.9023722792037578e-10 1.8756364949799877e-10 2.673578422377001e-12
3.283707930232385 2.1429911997034148e-18 1.8679030981663768e-10 1.840881953046304e-10 2.702114512007282e-12
3.2898708863219004 2.0020097352387547e-18 1.7482940200837744e-10 1.721014059641153e-10 2.727996044262133e-12
3.29141343181113 1.968699757133258e-18 1.7200115287482076e-10 1.6926666004454338e-10 2.734492830277378e-12
3.292184975758714 1.952323013826122e-18 1.7061033488080491e-10 1.678725896943284e-10 2.7377451864764837e-12
3.295272960557952 1.8501016718137718e-18 1.6182902717303219e-10 1.590786475545757e-10 2.7503796184564828e-12
3.3076538914384823 1.4933160156933491e-18 1.3111162956513044e-10 1.2831054725593494e-10 2.801082309195516e-12
3.310756385682612 1.4199630771751617e-18 1.2478825454719492e-10 1.2197440105782204e-10 2.8138534893728918e-12
3.313861789986515 1.3519975128789973e-18 1.189267955879839e-10 1.1610013269428807e-10 2.826662893695843e-12
3.3200813396944477 1.2575210813528083e-18 1.1082390047424508e-10 1.0796964454994611e-10 2.8542559242989463e-12
3.345076488085796 1.0960106394033388e-18 9.731734584538618e-11 9.434001110632609e-11 2.977334739060084e-12
3.3482140837626964 1.103514764429061e-18 9.80755607890946e-11 9.508154804040488e-11 2.9940127486897246e-12
3.3513546224236106 1.1110806465198285e-18 9.884060633144408e-11 9.582984510954476e-11 3.0107612218993287e-12
3.3576445397418455 1.1605929960894458e-18 1.034389481529682e-10 1.0039315385846553e-10 3.045794294502649e-12
3.3702598118196083 1.3373416601747622e-18 1.1963966505754762e-10 1.1652039446533424e-10 3.1192705922133683e-12
3.382922481734668 1.3817916185797483e-18 1.240806424259331e-10 1.2089010294169033e-10 3.1905394842427473e-12
3.389271646505754 1.4046544825383096e-18 1.2637038859596338e-10 1.2314375416000786e-10 3.2266344359555145e-12
3.395632727569191 1.4297670114000333e-18 1.2887106461108842e-10 1.256072318701758e-10 3.263832740912657e-12
3.421196662673239 1.5506553260547794e-18 1.4081948377624883e-10 1.3740182600303673e-10 3.4176577732121175e-12
3.4276182099114902 1.5312984895759056e-18 1.393226507166367e-10 1.3587082731441028e-10 3.4518234022264565e-12
3.4340518103208963 1.438741935492071e-18 1.3114724702562337e-10 1.2766318817282063e-10 3.484058852802762e-12
3.4469541582030403 1.3064835251681574e-18 1.195387962895939e-10 1.1599302597542169e-10 3.545770314172213e-12
3.472904465399547 1.274371663113114e-18 1.174784953919906e-10 1.1379032005447212e-10 3.6881753375184874e-12
3.4990501388274233 1.2233404816567225e-18 1.1362318160278693e-10 1.0978963572214307e-10 3.8335458806438675e-12
3.5253949054701885 1.0291639160261556e-18 9.630786525015157e-11 9.233366563172162e-11 3.974199618429946e-12
3.5519380250092896 8.445131256802967e-19 7.962349130229178e-11 7.550838144045244e-11 4.115109861839336e-12
3.578680990867387 7.765103369566468e-19 7.376318503662895e-11 6.949368724314573e-11 4.269497793483221e-12
3.605625307711299 7.544314512996634e-19 7.220542219561704e-11 6.77735980663853e-11 4.431824129231763e-12
3.660119384959845 7.496316523414363e-19 7.283038407772821e-11 6.805878257456125e-11 4.771601503166967e-12
3.715437065384467 7.509173038759519e-19 7.405791050425788e-11 6.892994150698493e-11 5.127968997272964e-12
3.8285932144167436 7.77748951758765e-19 7.90402113347725e-11 7.31526902199052e-11 5.887521114867268e-12
3.94519561050918 8.109926164493886e-19 8.492877786157126e-11 7.822249716511816e-11 6.70628069645309e-12
4.06534921144712 8.465559276338954e-19 9.135302761352063e-11 8.377194597051832e-11 7.581081643002304e-12
4.189162171576248 8.830720807571867e-19 9.819576559926942e-11 8.968439562381794e-11 8.511369975451472e-12
4.316745939156006 9.197847727441505e-19 1.0539308998408361e-10 9.590193868063335e-11 9.491151303450233e-12
4.448215356677963 9.561309371261077e-19 1.1289445434952589e-10 1.0239051597701369e-10 1.0503938372512201e-11
4.58368876423945 9.918331893573482e-19 1.20676634812887e-10 1.0912788555297645e-10 1.1548749259910559e-11
4.723288106065518 1.0267588188335722e-18 1.287307536319777e-10 1.1610064900814267e-10 1.2630104623835007e-11
4.867139040275056 1.0605897461221664e-18 1.3702209709732933e-10 1.2330744687319155e-10 1.3714650224137787e-11
4.940699165968905 1.0773648644186182e-18 1.4129300183372217e-10 1.270319252463485e-10 1.4261076587373667e-11
5.015371051989984 1.0935420685724203e-18 1.4558210578952823e-10 1.3077392888824034e-10 1.48081769012879e-11
5.091171501069577 1.1101807682778338e-18 1.5003095016576608e-10 1.346622924733953e-10 1.5368657692370786e-11
5.129500256944802 1.1182425451209292e-18 1.522581331408174e-10 1.366098142340934e-10 1.5648318906724013e-11
5.168117569889187 1.1262368598295278e-18 1.5450109256292845e-10 1.3857035009331887e-10 1.593074246960958e-11
5.20702561229733 1.1349929626209056e-18 1.5687448593764414e-10 1.4063268269236053e-10 1.624180324528362e-11
5.246226572918644 1.1435907681628162e-18 1.5925281460232224e-10 1.426996035121468e-10 1.6553211090175407e-11
5.265937586045735 1.1478295054230183e-18 1.6044364679437252e-10 1.4373465583296473e-10 1.670899096140782e-11
5.285722656980489 1.1520277295693866e-18 1.6163549504950093e-10 1.447707026940701e-10 1.6864792355430863e-11
5.305582063971359 1.1561851551859505e-18 1.628282886401442e-10 1.4580769531529724e-10 1.702059332484699e-11
5.3255160863122235 1.160452322533922e-18 1.6404327685406475e-10 1.468654532613684e-10 1.7177823592696347e-11
5.365609099470188 1.1700259336839438e-18 1.6664180109912315e-10 1.4913843070428293e-10 1.750337039484024e-11
5.406003951863644 1.179486461364208e-18 1.6925392630905503e-10 1.514247870643364e-10 1.7829139244718633e-11
5.446702915881641 1.188835470883545e-18 1.7187981413717618e-10 1.537248602948408e-10 1.8154953842335398e-11
5.487708281020852 1.1983537570196061e-18 1.74560304838763e-10 1.5607804555871325e-10 1.848225928004978e-11
5.529022354014368 1.2102339359003278e-18 1.7761805318219305e-10 1.5879457868358616e-10 1.8823474498606946e-11
5.570647458961463 1.2221711219844904e-18 1.8072037772956813e-10 1.6155556709464615e-10 1.9164810634921995e-11
5.612585937458331 1.2341829311288987e-18 1.838704642547456e-10 1.6436437541638536e-10 1.950608883836022e-11
5.654840148729818 1.2467016993325584e-18 1.871338347608399e-10 1.6728473529304969e-10 1.984909946779025e-11
5.67608639626678 1.2548281811074214e-18 1.8906132354965884e-10 1.6903230146977431e-10 2.0029022079884533e-11
5.686739436050992 1.2589367243523727e-18 1.9003634329505557e-10 1.6991734215757315e-10 2.011900113748242e-11
5.6974124697621304 1.2630768313230718e-18 1.9101913044695728e-10 1.7081014221060855e-10 2.0208988236348763e-11
5.718818669136295 1.2714559886027247e-18 1.9300879129664904e-10 1.7261981614975716e-10 2.0388975146891877e-11
5.740305295436557 1.2804843753783709e-18 1.95109630896589e-10 1.7453913340048454e-10 2.0570497496104463e-11
5.7835210386641895 1.303208585318409e-18 2.000671037511734e-10 1.7912169777381282e-10 2.0945405977360597e-11
5.827062130521658 1.3282350280365515e-18 2.054442596133046e-10 1.841199505494117e-10 2.132430906389288e-11
5.8489554468988025 1.3456514873546636e-18 2.0892015628546497e-10 1.8738986208395637e-10 2.1530294201508562e-11
5.870931020387893 1.3638839409644261e-18 2.125464357682884e-10 1.9080984845051883e-10 2.1736587317769586e-11
5.892989160043636 1.3830000450038106e-18 2.1633523988704323e-10 1.9439207494858243e-10 2.194316493846087e-11
5.915130176081913 1.4044607844240707e-18 2.2051765069639186e-10 1.9835989183269684e-10 2.2157758863695013e-11
5.95966208400165 1.464254009078356e-18 2.316367647472896e-10 2.0898231197453928e-10 2.2654452772750327e-11
6.004529249263818 1.5487607497864726e-18 2.468497726331313e-10 2.2363199354993447e-10 2.3217779083196827e-11
6.027089341400364 1.6071264683996853e-18 2.571148235714535e-10 2.3356772010874714e-10 2.3547103462706336e-11
6.049734195844842 1.6750294657359675e-18 2.68985071702729e-10 2.4508827832408516e-10 2.3896793378643867e-11
6.095279466722835 1.8699369211068852e-18 3.0254502258009363e-10 2.7777576611752085e-10 2.4769256462572768e-11
6.141167624020661 2.1649208239218923e-18 3.529087306585008e-10 3.269911405375469e-10 2.5917590120953895e-11
6.164241091010745 2.3524604657242402e-18 3.8492080274998e-10 3.5827483041645877e-10 2.6645972333521208e-11
6.187401249150058 2.561847985185782e-18 4.207567285471332e-10 3.93364314182359e-10 2.7392414364774235e-11
6.1990139391386085 2.6632833322864662e-18 4.382373785908438e-10 4.1046542043297844e-10 2.777195815786535e-11
6.204828454712694 2.7163610061218605e-18 4.473904398395928e-10 4.1942693782145906e-10 2.7963502018133678e-11
6.210648424152782 2.7545865912745505e-18 4.541118211350866e-10 4.2598679916700323e-10 2.8125021968083294e-11
6.233982942956859 2.881717743390338e-18 4.768551565079853e-10 4.481740833697035e-10 2.8681073138281826e-11
6.239830258556775 2.8963822931818204e-18 4.797313416930004e-10 4.509784660951717e-10 2.875287559782861e-11
6.245683058788269 2.8953649662937617e-18 4.800126582015829e-10 4.51187920731064e-10 2.8824737470518823e-11
6.257405133728602 2.8865512096203434e-18 4.794496145498456e-10 4.505022194954678e-10 2.8947395054377712e-11
6.269149208991335 2.8547969277129108e-18 4.750652459247464e-10 4.4608792905002824e-10 2.8977316874718054e-11
6.280915325867298 2.7832117308782154e-18 4.6402204948608566e-10 4.351292774088047e-10 2.8892772077281078e-11
6.304513850009849 2.609966933456466e-18 4.3677325906808873e-10 4.08152807290421e-10 2.8620451777667845e-11
6.32820103803542 2.400627054138175e-18 4.0325001926012284e-10 3.750116826232356e-10 2.823833663688727e-11
6.3519772230701035 2.210210708701703e-18 3.7265936873655644e-10 3.447678361293287e-10 2.78915326072278e-11
6.375842739491607 2.0491864960349866e-18 3.468075271817685e-10 3.192264006505557e-10 2.7581126531212663e-11
6.399797922933955 1.9222777934414964e-18 3.2655162035473796e-10 2.9915116815936937e-10 2.7400452195368573e-11
6.42384311029221 1.816001771484867e-18 3.096568035854462e-10 2.8241097704922536e-10 2.724582653622085e-11
6.447978639727206 1.73908394209315e-18 2.9765526453838517e-10 2.70463346133681e-10 2.7191918404704287e-11
6.472204850670314 1.6745429090522432e-18 2.876854967956622e-10 2.605275978308137e-10 2.7157898964848513e-11
6.496522083828205 1.6324942107823872e-18 2.8151529922334454e-10 2.543102120516966e-10 2.720508717164797e-11
6.520930681187647 1.5967616169094873e-18 2.763879477223031e-10 2.4912372591668953e-10 2.726422180561345e-11
