Dust emission spectrum from A.P. Jones, M. Kohler, N. Ysard, M. Bocchio, and L. Verstraete (2017), A&A, 602A, 46J 
inside the DustPedia framework.

lambda    nu*dP/dnu     j_nu    j_nu(carb.) j_nu(sil)
 (um)   (erg s-1 H-1) (Jy cm2 sr-1 H-1)
0.9927057738263894 8.849228940832775e-23 2.3318220885263906e-15 2.331822088404186e-15 1.2220478970676686e-25
1.0001793341362166 8.99529387715922e-23 2.3881558555095336e-15 2.3881558553623357e-15 1.4719725576704683e-25
1.0077091589558085 9.141147842576509e-23 2.445149242089923e-15 2.4451492419128513e-15 1.7707224352676478e-25
1.0114953028030835 9.213977760644221e-23 2.4738904441703372e-15 2.47389044397622e-15 1.941176458552223e-25
1.0152956718711033 9.286733452649745e-23 2.502793097177372e-15 2.502793096964638e-15 2.1273488204363283e-25
1.0229392996569957 9.43192230855709e-23 2.5610585758487572e-15 2.5610585755935063e-15 2.5525165591381425e-25
1.0267826658714554 9.504179260531771e-23 2.590374644497327e-15 2.5903746442178565e-15 2.794712269382625e-25
1.0306404723013447 9.576330061841409e-23 2.619845811492243e-15 2.619845811186353e-15 3.0588942097245478e-25
1.03451277320114 9.648367755985464e-23 2.6494708090756963e-15 2.649470808741e-15 3.3469603848015357e-25
1.0383996230291617 9.720285425329059e-23 2.679248353722352e-15 2.679248353356256e-15 3.66096354253071e-25
1.0403485208654093 9.75619709989445e-23 2.6941939258563434e-15 2.694193925473505e-15 3.828378177107923e-25
1.0423010764483396 9.792076192430712e-23 2.7091771464444115e-15 2.7091771460441005e-15 4.003122989881426e-25
1.0462171883269815 9.863733221340867e-23 2.7392558730971036e-15 2.7392558726595193e-15 4.375837244541611e-25
1.0471985131304309 9.881625784941777e-23 2.746798826517166e-15 2.746798826069757e-15 4.47408922318237e-25
1.048180758391296 9.89950945939825e-23 2.7543510469079454e-15 2.7543510464505e-15 4.5744542776482265e-25
1.0501480137395462 9.935249718870908e-23 2.769483204684409e-15 2.76948320420624e-15 4.78169757644935e-25
1.0521189612883777 9.970953157495072e-23 2.784652178031683e-15 2.784652177531891e-15 4.997923544061532e-25
1.0531058218030118 9.988763369710519e-23 2.792242748026772e-15 2.792242747515819e-15 5.109527443159421e-25
1.0540936079674168 1.0006474170613331e-22 2.799817292272373e-15 2.7998172917500184e-15 5.223541566776056e-25
1.058054026499678 1.0077216377847235e-22 2.830204786685353e-15 2.8302047861149066e-15 5.704454859223176e-25
1.0590464539527713 1.0094876163779494e-22 2.8378238815199327e-15 2.8378238809368182e-15 5.831152251934013e-25
1.06003981227728 1.0112525437311474e-22 2.845451821414066e-15 2.8454518208180127e-15 5.960542663031766e-25
1.0620293250338977 1.014779203660661e-22 2.8607341491024765e-15 2.860734148479715e-15 6.227621446369638e-25
1.0660195594769086 1.0218194581007474e-22 2.8914039822814217e-15 2.8914039816017656e-15 6.796562553143387e-25
1.070024785945596 1.0288417495097571e-22 2.922212876036015e-15 2.9222128752945087e-15 7.415075750167285e-25
1.0740450607676866 1.0358454313929467e-22 2.9531594075433098e-15 2.9531594067345838e-15 8.087255196186336e-25
1.07808044048254 1.0428298624604127e-22 2.9842421416501004e-15 2.984242140768349e-15 8.817513248195376e-25
1.0861967418109137 1.0567260796374541e-22 3.046774797975738e-15 3.046774796928573e-15 1.0471646876550116e-24
1.0902777775684922 1.0636085172901658e-22 3.0781402212586125e-15 3.0781402201179966e-15 1.1406157061926967e-24
1.0943741465085532 1.0704687023530714e-22 3.1096336839393743e-15 3.109633682697366e-15 1.2420062920487122e-24
1.1026131145906286 1.084119879653119e-22 3.172998705917103e-15 3.172998704445896e-15 1.4712069579910179e-24
1.1109141095355224 1.0976748006163914e-22 3.2368577205297894e-15 3.2368577187893193e-15 1.7404703787692083e-24
1.1192775983109025 1.111116154058361e-22 3.3011610054179787e-15 3.301161003361593e-15 2.0563843724584763e-24
1.1277040513999907 1.1243814623987786e-22 3.3657220700261442e-15 3.365722067599597e-15 2.4265476471422977e-24
1.1361939428280308 1.1375348756232402e-22 3.4307306560025936e-15 3.43073065314288e-15 2.8597121081297183e-24
1.1447477501889525 1.1505720158810062e-22 3.4961739991326867e-15 3.4961739957667403e-15 3.365945352128118e-24
1.1533659546722406 1.1634957188526168e-22 3.562060982564622e-15 3.562060978607804e-15 3.956818473043533e-24
1.1707974979042381 1.1890446381918071e-22 3.69529723928809e-15 3.695297233840523e-15 5.4475663776487e-24
1.1884924949847024 1.2140848780402832e-22 3.830142450089083e-15 3.830142442626222e-15 7.4628603270011e-24
1.2064549276569216 1.238812522817871e-22 3.967218509344581e-15 3.967218499170753e-15 1.0173829602551181e-23
1.2246888378427687 1.2629573695515795e-22 4.1056685323466575e-15 4.105668518544258e-15 1.3802397908666616e-23
1.2431983285522175 1.2864629905161236e-22 4.245287895358669e-15 4.245287876723297e-15 1.8635372234610265e-23
1.2619875648066055 1.3093207113370224e-22 4.38601938046256e-15 4.386019355421043e-15 2.504151714610964e-23
1.3004222497298317 1.3527126904875565e-22 4.669381829239045e-15 4.669381784651775e-15 4.458726884298498e-23
1.3400274889804893 1.3929644197176489e-22 4.954766173290228e-15 4.9547660953420585e-15 7.794816887957541e-23
1.3808389325824078 1.4299276721598623e-22 5.2411492517063855e-15 5.2411491178478176e-15 1.3385856942853876e-22
1.4228933163050095 1.4637836496537217e-22 5.5286444896614105e-15 5.52864426374671e-15 2.259147005909153e-22
1.466228494730424 1.495348714672544e-22 5.819873837240038e-15 5.8198734623388414e-15 3.749011950881741e-22
1.5108834753276823 1.5240104195950189e-22 6.112070297807298e-15 6.112069685803699e-15 6.120035977690201e-22
1.5568984535646726 1.549273623817937e-22 6.4026217771176265e-15 6.4026207933160444e-15 9.838015835968797e-22
1.6043148490894465 1.5711860262588973e-22 6.690932432398436e-15 6.690930872223628e-15 1.5601748056498562e-21
1.6531753430134553 1.5898158647582561e-22 6.976461127853117e-15 6.976458689739895e-15 2.438113223349594e-21
1.7035239163302658 1.6053857603882094e-22 7.25933894893458e-15 7.259335193551263e-15 3.7553833144240466e-21
1.755405889504358 1.6191738414355486e-22 7.544673725003513e-15 7.544668020831681e-15 5.704171829041058e-21
1.8088679632656115 1.6308669093672231e-22 7.83059605051859e-15 7.830587503319911e-15 8.547198678744591e-21
1.8639582606462262 1.6402535087571693e-22 8.115524469235826e-15 8.115511829984238e-15 1.2639251588041729e-20
1.9207263702978936 1.6474905117407164e-22 8.399585479699063e-15 8.399567027402915e-15 1.845229614900643e-20
1.979223391128241 1.6529404146083783e-22 8.684032624484037e-15 8.684006018466717e-15 2.6606017323339365e-20
2.039501978296691 1.6570365952363495e-22 8.970686173459445e-15 8.97064827109094e-15 3.790236850437573e-20
2.1016163906111602 1.6609891380037232e-22 9.265944024995368e-15 9.265890655762444e-15 5.33692329248132e-20
2.1656225393682647 1.6655007950259716e-22 9.574079738635152e-15 9.57400543583052e-15 7.430280462892023e-20
2.231578038680979 1.670624056256825e-22 9.896012669055329e-15 9.895910352391909e-15 1.0231666342065843e-19
2.299542257339062 1.6767808557933904e-22 1.0234983213224581e-14 1.02348438174503e-14 1.393957742792667e-19
2.369576372248914 1.6849008909131522e-22 1.0597770336031363e-14 1.059758237926674e-14 1.8795676462120146e-19
2.4417434235010123 1.6960816590636539e-22 1.0992999736825316e-14 1.0992748834351279e-14 2.5090247403421424e-19
2.5161083711144245 1.7122008645807405e-22 1.1435456013119915e-14 1.1435124322086948e-14 3.3169103296512356e-19
2.5927381535095444 1.736329352920208e-22 1.1949787950450112e-14 1.1949353556263166e-14 4.343941869516914e-19
2.6717017477616296 1.772132073661506e-22 1.2567633103265896e-14 1.2567069374096709e-14 5.637291691843525e-19
2.753070231689431 1.825124882953427e-22 1.33376497850753e-14 1.3336924676756147e-14 7.251083191497258e-19
2.836916847834745 1.9078006784943328e-22 1.4366435866012014e-14 1.436551115749841e-14 9.24708513605074e-19
2.9233170693905177 2.0476679806957048e-22 1.5889304753331473e-14 1.588813544925331e-14 1.1693040781614761e-18
2.967498994190263 2.1662012251072096e-22 1.706313436168887e-14 1.706182568240681e-14 1.3086792820638787e-18
3.0123486681368425 2.3045846451575666e-22 1.8427538847769108e-14 1.8426076127596983e-14 1.462720172127087e-18
3.0578761833420214 2.613702411445718e-22 2.1215118796418567e-14 2.121348562679657e-14 1.6331696219996468e-18
3.1040917844459814 3.0119209266317273e-22 2.481690129431861e-14 2.4815081226583042e-14 1.8200677355755335e-18
3.127460860933648 3.4329220113735375e-22 2.849871339142408e-14 2.849679269174742e-14 1.9206996766570204e-18
3.1510058709225794 3.993768812578229e-22 3.3404237795211345e-14 3.340221178675866e-14 2.026008452680926e-18
3.162844764501044 4.515727857989858e-22 3.7911858173324516e-14 3.790977750718858e-14 2.0806661359261513e-18
3.1747281389236908 5.122696518583817e-22 4.31692598221587e-14 4.31671232745123e-14 2.1365476464014715e-18
3.1986289994194426 6.81559684676798e-22 5.78678299659473e-14 5.786557762198746e-14 2.2523439598437294e-18
3.2227097969389145 1.0805818514987075e-21 9.24375234692299e-14 9.243514798332157e-14 2.375485908294615e-18
3.2348180950136065 1.4589668018563375e-21 1.2527508517436915e-13 1.2527264385707775e-13 2.4413172913811324e-18
3.240889293275058 1.7418555153755165e-21 1.4984620797671678e-13 1.498437319310045e-13 2.4760457123059574e-18
3.2469718861334385 2.069114014023934e-21 1.7833327429920715e-13 1.7833076231599893e-13 2.511983208204486e-18
3.2714166318528037 3.814724602668356e-21 3.3125960574907966e-13 3.312569448913835e-13 2.6608576962195477e-18
3.2744851364798273 3.923848239873618e-21 3.410551866984956e-13 3.410525081970455e-13 2.6785014500345857e-18
3.2775565192852394 4.036105843159955e-21 3.5114150749423435e-13 3.5113881125129627e-13 2.6962429380577486e-18
3.283707930232385 3.928152590279845e-21 3.423909717627155e-13 3.4238824359391223e-13 2.728168803239423e-18
3.2898708863219004 3.585794449690777e-21 3.131364889639933e-13 3.1313373155735786e-13 2.757406635411809e-18
3.29141343181113 3.5050577944182514e-21 3.0622951993995093e-13 3.0622675518649215e-13 2.7647534587498024e-18
3.292184975758714 3.46538665203541e-21 3.028345068967615e-13 3.028317384642739e-13 2.7684324875130076e-18
3.295272960557952 3.2149812295924517e-21 2.812155097694954e-13 2.8121272699181015e-13 2.782777685197859e-18
3.3076538914384823 2.347496125835923e-21 2.0610777572975656e-13 2.0610493523711647e-13 2.8404926401381414e-18
3.310756385682612 2.170939497052194e-21 1.9078506682275535e-13 1.9078221176213845e-13 2.855060616922589e-18
3.313861789986515 2.008037988312665e-21 1.7663458778147913e-13 1.7663171809696073e-13 2.8696845183520583e-18
3.3200813396944477 1.779589380857278e-21 1.5683318502858428e-13 1.5683028397254231e-13 2.9010560419681357e-18
3.345076488085796 1.3720811888397424e-21 1.218302950553083e-13 1.2182725439187838e-13 3.04066342989947e-18
3.3482140837626964 1.3873668074518875e-21 1.233030875952242e-13 1.2330002802595616e-13 3.0595692679988906e-18
3.3513546224236106 1.4028213639931397e-21 1.24793564379047e-13 1.247904858079088e-13 3.078571138195498e-18
3.3576445397418455 1.5157480653935086e-21 1.3509247951477172e-13 1.3508936124600453e-13 3.118268767165974e-18
3.3702598118196083 1.9322520052697214e-21 1.728608250243507e-13 1.728576234608496e-13 3.2015635010943974e-18
3.382922481734668 2.0271262316333843e-21 1.8202970818281498e-13 1.820264252936104e-13 3.282889204550337e-18
3.389271646505754 2.0762771512915714e-21 1.8679323186118815e-13 1.8678990767675582e-13 3.3241844323608922e-18
3.395632727569191 2.1292404628069535e-21 1.9191762228885647e-13 1.9191425554272826e-13 3.3667461281902016e-18
3.421196662673239 2.3835484271370913e-21 2.1645690916956076e-13 2.1645336581290018e-13 3.54335666049484e-18
3.4276182099114902 2.3323140729145594e-21 2.1220172367058566e-13 2.1219814050169777e-13 3.58316888791984e-18
3.4340518103208963 2.107782333012245e-21 1.9213303198065092e-13 1.9212941096309466e-13 3.621017556224334e-18
3.4469541582030403 1.7880086759178903e-21 1.6359670884258972e-13 1.6359301478294532e-13 3.694059644370919e-18
3.472904465399547 1.6984117527346722e-21 1.5656881194291964e-13 1.5656495015453474e-13 3.861788384895718e-18
3.4990501388274233 1.5613674163838316e-21 1.4501893476148046e-13 1.4501490038849744e-13 4.034372983065771e-18
3.5253949054701885 1.073595539141159e-21 1.0046572067548358e-13 1.0046151715591772e-13 4.203519565856313e-18
3.5519380250092896 6.1514555508300665e-22 5.799795795398609e-14 5.799358320595053e-14 4.374748035564906e-18
3.578680990867387 4.3338903863784e-22 4.116900230225079e-14 4.116443963604716e-14 4.562666203626111e-18
3.605625307711299 3.5989367259194175e-22 3.4444845227840935e-14 3.4440083858707174e-14 4.761369133763193e-18
3.660119384959845 3.0632371828966837e-22 2.9760848525367393e-14 2.975566623559048e-14 5.182289776913288e-18
3.715437065384467 2.684107346703993e-22 2.6471540959304196e-14 2.646590981954312e-14 5.631139761078161e-18
3.8285932144167436 2.492895220963532e-22 2.5334520175800585e-14 2.5327906160414164e-14 6.614015386417892e-18
3.94519561050918 2.4576902441233346e-22 2.5737426526709643e-14 2.572971260481977e-14 7.713921889876303e-18
4.06534921144712 2.4867832260147835e-22 2.6835223675052142e-14 2.682628632412434e-14 8.937350927799149e-18
4.189162171576248 2.553338821890049e-22 2.839259284868853e-14 2.8382298088741738e-14 1.0294759946790307e-17
4.316745939156006 2.647415969085252e-22 3.0335286876152116e-14 3.032349593223294e-14 1.1790943919167951e-17
4.448215356677963 2.765749927825767e-22 3.265638803693979e-14 3.264297103152558e-14 1.3417005414214059e-17
4.58368876423945 2.9088681159589853e-22 3.539228361332437e-14 3.5377098415933654e-14 1.5185197390710873e-17
4.723288106065518 3.0801090314838443e-22 3.861712698431137e-14 3.8600009886366485e-14 1.7117097944894033e-17
4.867139040275056 3.286032707620514e-22 4.2453653203310714e-14 4.2434470660320235e-14 1.9182542990490442e-17
4.940699165968905 3.4100948102005414e-22 4.4722317218952456e-14 4.470204264820438e-14 2.0274570748069855e-17
5.015371051989984 3.5387730066567086e-22 4.711131295504482e-14 4.708990752269749e-14 2.1405432347328386e-17
5.091171501069577 3.695340761633163e-22 4.993920823490262e-14 4.9916611167458006e-14 2.2597067444635228e-17
5.129500256944802 3.7757832823615793e-22 5.141046691748896e-14 5.138725894809248e-14 2.3207969396483965e-17
5.168117569889187 3.859655573368104e-22 5.294809859910196e-14 5.292426517912272e-14 2.383341997923431e-17
5.20702561229733 3.9622006842665177e-22 5.476405722294326e-14 5.473954891735747e-14 2.4508305585783706e-17
5.246226572918644 4.067407763892352e-22 5.6641427385410075e-14 5.661623163284039e-14 2.5195752569685595e-17
5.265937586045735 4.1210363598958027e-22 5.760386007068306e-14 5.757831586191494e-14 2.5544208768111755e-17
5.285722656980489 4.1753630879001743e-22 5.858252040308283e-14 5.855662457132362e-14 2.5895831759208205e-17
5.305582063971359 4.2303993143971032e-22 5.957771361602846e-14 5.955146298585015e-14 2.6250630178299894e-17
5.3255160863122235 4.289462116475845e-22 6.06364783683304e-14 6.060986770482348e-14 2.6610663506922943e-17
5.365609099470188 4.43602668116001e-22 6.318043511606088e-14 6.315307873724017e-14 2.7356378820708424e-17
5.406003951863644 4.588186685336263e-22 6.583955276891461e-14 6.581143667338788e-14 2.811609552672855e-17
5.446702915881641 4.746211385917611e-22 6.861991847038183e-14 6.859102855715535e-14 2.8889913226483717e-17
5.487708281020852 4.916859024671398e-22 7.162229059393019e-14 7.159261019095585e-14 2.9680402974347755e-17
5.529022354014368 5.153027577147239e-22 7.562758728676282e-14 7.55970801996532e-14 3.0507087109620455e-17
5.570647458961463 5.403065309592068e-22 7.989421334563296e-14 7.986286379932882e-14 3.134954630413957e-17
5.612585937458331 5.667965827046331e-22 8.444222341057452e-14 8.441001549167963e-14 3.220791889486767e-17
5.654840148729818 5.958962728226696e-22 8.944589929788158e-14 8.941281377461429e-14 3.308552326728364e-17
5.67608639626678 6.156584779267788e-22 9.275947770688524e-14 9.272593341309699e-14 3.354429378822872e-17
5.686739436050992 6.258434417947488e-22 9.447099036295729e-14 9.443721500170609e-14 3.3775361251220886e-17
5.6974124697621304 6.3623742369379615e-22 9.622021116838554e-14 9.618620361427677e-14 3.400755410875637e-17
5.718818669136295 6.576725153786262e-22 9.983560453535897e-14 9.980112920753713e-14 3.4475327821855975e-17
5.740305295436557 6.812857836002019e-22 1.0380869952751325e-13 1.0377374910256358e-13 3.495042494968895e-17
5.7835210386641895 7.424465556539661e-22 1.1397955304555583e-13 1.1394361672739026e-13 3.593631816557074e-17
5.827062130521658 8.128579523102321e-22 1.2572850185258541e-13 1.256915529526298e-13 3.694889995561171e-17
5.8489554468988025 8.621826607354637e-22 1.3385883188935703e-13 1.33821339474821e-13 3.749241453603722e-17
5.870931020387893 9.15100598541328e-22 1.4260844691217004e-13 1.425704049771857e-13 3.8041934984354726e-17
5.892989160043636 9.719006239232937e-22 1.520291741004487e-13 1.519905765940806e-13 3.859750636815529e-17
5.915130176081913 1.036473953220047e-21 1.6273918339828403e-13 1.6270001059292377e-13 3.9172805360313473e-17
5.95966208400165 1.2168711547825804e-21 1.9250218586429127e-13 1.9246172445042505e-13 4.046141386622677e-17
6.004529249263818 1.476708356253964e-21 2.3536567674315936e-13 2.353237755302382e-13 4.190121292119555e-17
6.027089341400364 1.6572505741925329e-21 2.651338879518926e-13 2.6509116599984313e-13 4.2721952049532937e-17
6.049734195844842 1.87055745510302e-21 3.003839881490606e-13 3.003403984544793e-13 4.358969458135335e-17
6.095279466722835 2.4865305609058698e-21 4.023063217822622e-13 4.0226063912138826e-13 4.568266087383114e-17
6.141167624020661 3.434238986528114e-21 5.598232083693511e-13 5.597748581624236e-13 4.835020692742784e-17
6.164241091010745 4.0394241115910585e-21 6.609498413834422e-13 6.608998413056349e-13 5.000007780731164e-17
6.187401249150058 4.7287360463868894e-21 7.766454217994382e-13 7.765937195393124e-13 5.170226012570329e-17
6.1990139391386085 5.0653324661682845e-21 8.334892479347807e-13 8.334366778494157e-13 5.257008536488857e-17
6.204828454712694 5.2426307820819504e-21 8.634724494373809e-13 8.634194401759762e-13 5.3009261404961767e-17
6.210648424152782 5.372088618875522e-21 8.856243451355299e-13 8.855709556339983e-13 5.338950153146232e-17
6.233982942956859 5.811973932599357e-21 9.61742261401828e-13 9.616875197870334e-13 5.474161479482261e-17
6.239830258556775 5.868250364243242e-21 9.719654851004589e-13 9.719105363120991e-13 5.4948788359849346e-17
6.245683058788269 5.8732157322199686e-21 9.737003550965215e-13 9.736451984935248e-13 5.5156602996600143e-17
6.257405133728602 5.861329060770322e-21 9.73553474322652e-13 9.734979423876285e-13 5.553193502345655e-17
6.269149208991335 5.775076610860387e-21 9.610274425265673e-13 9.609717172068098e-13 5.572531975762406e-17
6.280915325867298 5.558489900709876e-21 9.26721401451281e-13 9.266657086715382e-13 5.569277974286124e-17
6.304513850009849 5.02427374172802e-21 8.40803149072299e-13 8.407477266648476e-13 5.542240745131582e-17
6.32820103803542 4.3620294739923115e-21 7.327204225114841e-13 7.326654890958315e-13 5.493341565244733e-17
6.3519772230701035 3.754728686696183e-21 6.330775688726809e-13 6.330230552643985e-13 5.451360828243807e-17
6.375842739491607 3.243827334650614e-21 5.489904109321239e-13 5.489362467557336e-13 5.416417639019366e-17
6.399797922933955 2.8344813046468188e-21 4.815144127740768e-13 4.814603345528145e-13 5.407822126234931e-17
6.42384311029221 2.494179608655084e-21 4.252967685998584e-13 4.252427235758229e-13 5.404502403555791e-17
6.447978639727206 2.2463249670510527e-21 3.8447278830140965e-13 3.8441856834109214e-13 5.421996031755004e-17
6.472204850670314 2.0399036591764803e-21 3.504542609407486e-13 3.503998231390091e-13 5.443780173955961e-17
6.496522083828205 1.9059099001027627e-21 3.286644401409675e-13 3.286096134688379e-13 5.482667212957708e-17
