Dust emission spectrum from A.P. Jones, M. Kohler, N. Ysard, M. Bocchio, and L. Verstraete (2017), A&A, 602A, 46J 
inside the DustPedia framework.

lambda    nu*dP/dnu     j_nu    j_nu(carb.) j_nu(sil)
 (um)   (erg s-1 H-1) (Jy cm2 sr-1 H-1)
0.9927057738263894 5.3706514797449333e-20 1.4151971696042076e-12 1.4151969603228507e-12 2.092813569802884e-19
1.0001793341362166 5.460633542661535e-20 1.4497407364101932e-12 1.4497404846429025e-12 2.5176729035882445e-19
1.0077091589558085 5.551012154884098e-20 1.4848302857686983e-12 1.484829983297624e-12 3.0247107424429326e-19
1.0114953028030835 5.596346813274131e-20 1.5025811070173452e-12 1.5025807756522005e-12 3.313651447375509e-19
1.0152956718711033 5.641776664015781e-20 1.520470008373743e-12 1.52046964547661e-12 3.6289713338004616e-19
1.0229392996569957 5.732872611992365e-20 1.5566521952657617e-12 1.5566517604513536e-12 4.348144089038042e-19
1.0267826658714554 5.77843558772193e-20 1.5749190562361512e-12 1.5749185805059721e-12 4.757301789513107e-19
1.0306404723013447 5.824086797790155e-20 1.5933253453488262e-12 1.5933248250277625e-12 5.203210635179646e-19
1.03451277320114 5.86982518778014e-20 1.6118716536020252e-12 1.6118710847018062e-12 5.689002187765127e-19
1.0383996230291617 5.915649751200452e-20 1.6305585858416607e-12 1.6305579640357278e-12 6.218059324056737e-19
1.0403485208654093 5.938594046812939e-20 1.6399549788947124e-12 1.6399543289004165e-12 6.499942960400756e-19
1.0423010764483396 5.961559530662831e-20 1.6493867613207812e-12 1.6493860819172753e-12 6.794035060713348e-19
1.0462171883269815 6.007553619055341e-20 1.6683568142677376e-12 1.6683560721804698e-12 7.420872679540996e-19
1.0471985131304309 6.01906521300326e-20 1.6731215716549284e-12 1.6731208130528564e-12 7.58602072023284e-19
1.048180758391296 6.030582009662917e-20 1.677895247224599e-12 1.6778944717564384e-12 7.754681602783267e-19
1.0501480137395462 6.053631160710428e-20 1.6874693944629937e-12 1.68746858418027e-12 8.102827234680709e-19
1.0521189612883777 6.076700973468349e-20 1.6970793397315436e-12 1.6970784931421499e-12 8.465893940501142e-19
1.0531058218030118 6.08822849220926e-20 1.7018935404207036e-12 1.7018926750982914e-12 8.653224129520599e-19
1.0540936079674168 6.09971165382662e-20 1.7067028680704934e-12 1.706701983614794e-12 8.844556995662195e-19
1.058054026499678 6.145693399224057e-20 1.7260293144266336e-12 1.7260283493142722e-12 9.651123606835921e-19
1.0590464539527713 6.15720105715375e-20 1.7308832639279077e-12 1.7308822775788009e-12 9.863491063453272e-19
1.06003981227728 6.168713583223554e-20 1.7357461704276073e-12 1.735745162395488e-12 1.0080321188806375e-18
1.0620293250338977 6.191753200572578e-20 1.7454988986565488e-12 1.745497845883828e-12 1.0527727208051853e-18
1.0660195594769086 6.23789043418988e-20 1.765112329723663e-12 1.765111181711459e-12 1.1480122040128404e-18
1.070024785945596 6.284104534087043e-20 1.7848703352693126e-12 1.7848690838186855e-12 1.2514506272678585e-18
1.0740450607676866 6.330394993090895e-20 1.8047736622414704e-12 1.8047722984860855e-12 1.36375538520809e-18
1.07808044048254 6.376761363958059e-20 1.824823077531711e-12 1.824821591886867e-12 1.485644844620557e-18
1.0861967418109137 6.469650160509945e-20 1.8653431045748504e-12 1.865341343246534e-12 1.761328316760163e-18
1.0902777775684922 6.516012419917296e-20 1.8857690198898848e-12 1.8857671030417445e-12 1.9168481395033178e-18
1.0943741465085532 6.562446703911215e-20 1.9063430135492635e-12 1.9063409281373735e-12 2.0854118896949262e-18
1.1026131145906286 6.655530940855472e-20 1.947938734347597e-12 1.9479362684703442e-12 2.4658772528771703e-18
1.1109141095355224 6.748902736616622e-20 1.99013750847292e-12 1.9901345965396866e-12 2.9119332341015964e-18
1.1192775983109025 6.84249089808353e-20 2.032925545198612e-12 2.0329221110102443e-12 3.4341883670905446e-18
1.1277040513999907 6.935965887214796e-20 2.076211165358738e-12 2.076207120512361e-12 4.044846377376594e-18
1.1361939428280308 7.029724127822738e-20 2.120118739686915e-12 2.1201139817597808e-12 4.757927133801565e-18
1.1447477501889525 7.123770185307205e-20 2.164657209970202e-12 2.164651620455777e-12 5.589514425110736e-18
1.1533659546722406 7.218141902712374e-20 2.2098458311150396e-12 2.2098392730709068e-12 6.5580441334000154e-18
1.1707974979042381 7.408153856672946e-20 2.3022962818633036e-12 2.3022872884776406e-12 8.993385664072128e-18
1.1884924949847024 7.599555163946196e-20 2.3974747862939975e-12 2.3974625152622364e-12 1.2271031761200783e-17
1.2064549276569216 7.793640882536244e-20 2.4958640468092955e-12 2.4958473866234032e-12 1.666018589201991e-17
1.2246888378427687 7.989238438697466e-20 2.59717118296881e-12 2.5971486750010075e-12 2.2507967802071583e-17
1.2431983285522175 8.186232904535955e-20 2.701431422000769e-12 2.7014011616325457e-12 3.026036822331379e-17
1.2619875648066055 8.38496298948238e-20 2.808831316719668e-12 2.8087908292161746e-12 4.0487503492663705e-17
1.3004222497298317 8.786674803687751e-20 3.0330416766463793e-12 3.0329702215629602e-12 7.14550834183264e-17
1.3400274889804893 9.196038834914287e-20 3.2710255554648244e-12 3.2709017666807287e-12 1.2378878409586695e-16
1.3808389325824078 9.615089055254727e-20 3.5242423647148388e-12 3.5240317584649072e-12 2.1060624993068774e-16
1.4228933163050095 1.0047858041853446e-19 3.795030434254031e-12 3.794678371976762e-12 3.5206227726862165e-16
1.466228494730424 1.0502240174319762e-19 4.087455469296303e-12 4.086876914817458e-12 5.785544788439229e-16
1.5108834753276823 1.0978447398243473e-19 4.402925425974104e-12 4.401990369843707e-12 9.350561303982544e-16
1.5568984535646726 1.1477374946497494e-19 4.743209310921872e-12 4.741721453989926e-12 1.4878569319462339e-15
1.6043148490894465 1.200321083104538e-19 5.11159539991504e-12 5.109260151488813e-12 2.3352484262275174e-15
1.6531753430134553 1.2560630555794493e-19 5.511880511215619e-12 5.508269473508706e-12 3.6110377069123014e-15
1.7035239163302658 1.3155157174895545e-19 5.94858551853496e-12 5.943083037501171e-12 5.502481033792275e-15
1.755405889504358 1.3798997724714715e-19 6.4297565153804645e-12 6.421489874210092e-12 8.266641170371932e-15
1.8088679632656115 1.449536913144324e-19 6.959941342824192e-12 6.947692468540447e-12 1.2248874283745749e-14
1.8639582606462262 1.5247792742645286e-19 7.54418962947598e-12 7.526282284577746e-12 1.79073448982348e-14
1.9207263702978936 1.6062501501902844e-19 8.189325123364419e-12 8.163484925349344e-12 2.5840198015073102e-14
1.979223391128241 1.6947383606143484e-19 8.90362597675758e-12 8.866808342054916e-12 3.681763470266345e-14
2.039501978296691 1.7910679239601098e-19 9.696290539017309e-12 9.64447455378977e-12 5.1815985227538324e-14
2.1016163906111602 1.896648083485033e-19 1.0580583927122386e-11 1.0508523596231653e-11 7.206033089073156e-14
2.1656225393682647 2.0125863326643105e-19 1.1569290202299141e-11 1.1470229825565308e-11 9.906037673383149e-14
2.231578038680979 2.139499926675945e-19 1.2673418834436588e-11 1.253876855589539e-11 1.3465027854119763e-13
2.299542257339062 2.2783540048695307e-19 1.3906954455648884e-11 1.3725925566195078e-11 1.8102888945380798e-13
2.369576372248914 2.430355170730664e-19 1.528656437497099e-11 1.5045763044539975e-11 2.408013304310094e-13
2.4417434235010123 2.5968079067540706e-19 1.683097537372877e-11 1.651396946295125e-11 3.170059107775196e-13
2.5161083711144245 2.7794318416981096e-19 1.8563283797305195e-11 1.81501319821394e-11 4.131518151657982e-13
2.5927381535095444 2.980413443330059e-19 2.0511839296252314e-11 1.9978605336943506e-11 5.332339593088085e-13
2.6717017477616296 3.201698596904702e-19 2.270585464321623e-11 2.2024145067383193e-11 6.817095758330313e-13
2.753070231689431 3.4455967834820385e-19 2.517973626237501e-11 2.431624910453074e-11 8.634871578442771e-13
2.836916847834745 3.716868960045507e-19 2.7989380724514276e-11 2.6905446459991376e-11 1.0839342645229056e-12
2.9233170693905177 4.0246035588732345e-19 3.122974674661492e-11 2.9881209083262945e-11 1.348537663351974e-12
2.967498994190263 4.198465085744209e-19 3.3071246124591906e-11 3.1575163771646655e-11 1.496082352945251e-12
3.0123486681368425 4.383120867752107e-19 3.5047586659350966e-11 3.3389933288151915e-11 1.6576533711990633e-12
3.0578761833420214 4.630631199268189e-19 3.7586295427006035e-11 3.5751391824600547e-11 1.8349036024054855e-12
3.1040917844459814 4.907131741179331e-19 4.0432603320450816e-11 3.8405569442334446e-11 2.0270338781163673e-12
3.127460860933648 5.119413849731094e-19 4.2499278326803316e-11 4.036967165396491e-11 2.1296066728383977e-12
3.1510058709225794 5.374795588211895e-19 4.49552686584725e-11 4.271896104931244e-11 2.2363076091600697e-12
3.162844764501044 5.583407997092054e-19 4.687558213567512e-11 4.4584139516115674e-11 2.291442619559431e-12
3.1747281389236908 5.815394014276704e-19 4.900666167902131e-11 4.665902117172828e-11 2.3476405072930473e-12
3.1986289994194426 6.422358660696742e-19 5.452904086217585e-11 5.206547352989726e-11 2.463567332278591e-12
3.2227097969389145 7.749975952712411e-19 6.62965589345434e-11 6.371037037994626e-11 2.5861885545971357e-12
3.2348180950136065 8.96836856220792e-19 7.700745034610886e-11 7.435587832991401e-11 2.651572016194874e-12
3.240889293275058 9.871049570152591e-19 8.491745347309632e-11 8.223139280754116e-11 2.6860606655551717e-12
3.2469718861334385 1.091472258983465e-18 9.407206197049226e-11 9.135031581137509e-11 2.721746159117189e-12
3.2714166318528037 1.6356597447064037e-18 1.420359419372191e-10 1.391669043789778e-10 2.8690375582412686e-12
3.2744851364798273 1.6700033145898349e-18 1.4515426118082678e-10 1.4226791681387037e-10 2.886344366956366e-12
3.2775565192852394 1.705235016305232e-18 1.483555728034569e-10 1.4545183975562743e-10 2.9037330478294873e-12
3.283707930232385 1.6735189552629053e-18 1.4586953235311306e-10 1.42934806690359e-10 2.9347256627540215e-12
3.2898708863219004 1.5695680442360516e-18 1.3706558852098806e-10 1.3410275331788622e-10 2.9628352031018433e-12
3.29141343181113 1.5450153650760792e-18 1.3498473956707554e-10 1.3201484830304077e-10 2.969891264034731e-12
3.292184975758714 1.5329453409035812e-18 1.339616016987764e-10 1.3098817809991292e-10 2.9734235988634435e-12
3.295272960557952 1.4574432912701759e-18 1.2748306408203483e-10 1.2449591841787724e-10 2.9871456641575885e-12
3.3076538914384823 1.194058960224823e-18 1.0483716402065979e-10 1.0179495093170532e-10 3.04221308895447e-12
3.310756385682612 1.1399590478974395e-18 1.0018112592434388e-10 9.712504224994836e-11 3.056083674395483e-12
3.313861789986515 1.089853360038376e-18 9.586760813942534e-11 9.279761236492305e-11 3.069995774502311e-12
3.3200813396944477 1.020429976890468e-18 8.99293315052725e-11 8.682936735797759e-11 3.0999641472948936e-12
3.345076488085796 9.035036781156127e-19 8.022420289972935e-11 7.699056471507752e-11 3.23363818465186e-12
3.3482140837626964 9.094580003773694e-19 8.082864523093842e-11 7.757689331252495e-11 3.2517519184134274e-12
3.3513546224236106 9.154592723299343e-19 8.14383274807753e-11 7.816838529917289e-11 3.2699421816024068e-12
3.3576445397418455 9.52998232150203e-19 8.493686852962704e-11 8.162887745825435e-11 3.307991071372707e-12
3.3702598118196083 1.0857837520594888e-18 9.713509142035479e-11 9.37472988544349e-11 3.38779256591989e-12
3.382922481734668 1.1203502630394067e-18 1.006040118573564e-10 9.713881522678077e-11 3.4651966305756455e-12
3.389271646505754 1.1381129586344527e-18 1.0239085742198871e-10 9.888645861081832e-11 3.5043988111703674e-12
3.395632727569191 1.1575740345828891e-18 1.0433713815845728e-10 1.0079233883143771e-10 3.5447993270195587e-12
3.421196662673239 1.2507190377157603e-18 1.1358140412051707e-10 1.098695377547554e-10 3.711866365761695e-12
3.4276182099114902 1.237056099275419e-18 1.125514953547474e-10 1.0880252221656475e-10 3.748973138182687e-12
3.4340518103208963 1.1689577007265635e-18 1.0655530401792213e-10 1.0277132044489803e-10 3.7839835730241194e-12
3.4469541582030403 1.0720156459945622e-18 9.808578329321645e-11 9.423477583628135e-11 3.851007456935113e-12
3.472904465399547 1.0511136518810008e-18 9.689736038802687e-11 9.289168899118011e-11 4.00567139684673e-12
3.4990501388274233 1.016181471497097e-18 9.438236828469578e-11 9.021881214180189e-11 4.163556142893867e-12
3.5253949054701885 8.748141232552604e-19 8.186400571321227e-11 7.754768767514008e-11 4.3163180380721945e-12
3.5519380250092896 7.405044273743607e-19 6.981720714506898e-11 6.534784862494437e-11 4.469358520124624e-12
3.578680990867387 6.931036757797923e-19 6.584012118433251e-11 6.120308426900983e-11 4.637036915322709e-12
3.605625307711299 6.799307782254394e-19 6.507508246241141e-11 6.026174537137624e-11 4.8133370910351746e-12
3.660119384959845 6.829749539152847e-19 6.635435957613902e-11 6.117199542334172e-11 5.182364152797304e-12
3.715437065384467 6.906808762692384e-19 6.811719780291474e-11 6.254778831000441e-11 5.569409492910354e-12
3.8285932144167436 7.24519939525646e-19 7.363071207857562e-11 6.723636453000627e-11 6.394347548569371e-12
3.94519561050918 7.63558601134292e-19 7.996139237856222e-11 7.267780244406564e-11 7.283589934496568e-12
4.06534921144712 8.046461774237133e-19 8.683048817666696e-11 7.859679017819621e-11 8.233697998470754e-12
4.189162171576248 8.46654985259618e-19 9.414626086323559e-11 8.490219079101749e-11 9.244070072218109e-12
4.316745939156006 8.888889997120844e-19 1.0185291288636803e-10 9.154471714723668e-11 1.0308195739131369e-11
4.448215356677963 9.307624835994095e-19 1.0989909293260924e-10 9.849092449088711e-11 1.1408168441722129e-11
4.58368876423945 9.719509074477343e-19 1.182575517463e-10 1.0571463001771737e-10 1.2542921728582652e-11
4.723288106065518 1.0122502087994628e-18 1.2691172440175867e-10 1.1319435898362649e-10 1.3717365418132182e-11
4.867139040275056 1.0512207697217912e-18 1.358116792154588e-10 1.2091640524034508e-10 1.4895273975113713e-11
4.940699165968905 1.0703911759579766e-18 1.4037842460088383e-10 1.248896852252962e-10 1.5488739375587637e-11
5.015371051989984 1.0889410812603695e-18 1.4496958118636077e-10 1.2888664444267065e-10 1.6082936743690077e-11
5.091171501069577 1.1077047364226514e-18 1.4969633672038096e-10 1.3300467027490957e-10 1.6691666445471357e-11
5.129500256944802 1.1168173979360084e-18 1.5206408735819746e-10 1.3506868510175543e-10 1.699540225644203e-11
5.168117569889187 1.125836305520368e-18 1.5444614312857468e-10 1.3714400491624161e-10 1.7302138212333047e-11
5.20702561229733 1.1354584632153627e-18 1.5693882569028053e-10 1.3929884907880074e-10 1.7639976611479783e-11
5.246226572918644 1.144907066341591e-18 1.594361181018447e-10 1.4145792614459518e-10 1.797819195724946e-11
5.265937586045735 1.1495650911939055e-18 1.6068624703168125e-10 1.4253886491471976e-10 1.8147382116961527e-11
5.285722656980489 1.1541783201449048e-18 1.6193723411653946e-10 1.4362063846428879e-10 1.831659565225065e-11
5.305582063971359 1.1587463107936562e-18 1.6318898223897946e-10 1.4470317351259878e-10 1.848580872638064e-11
5.3255160863122235 1.1633884159683373e-18 1.6445832741562464e-10 1.4580175327572455e-10 1.8656574139900062e-11
5.365609099470188 1.1734573695305561e-18 1.6713052586442396e-10 1.4812038027133973e-10 1.9010145593084212e-11
5.406003951863644 1.1833803777448923e-18 1.6981269544947205e-10 1.5044873724052093e-10 1.936395820895113e-11
5.446702915881641 1.1931568496527726e-18 1.72504591743382e-10 1.5278677123263785e-10 1.9717820510744123e-11
5.487708281020852 1.2030057103821679e-18 1.752379397961433e-10 1.5516463780474674e-10 2.007330199139656e-11
5.529022354014368 1.2146458972750927e-18 1.7826556765592807e-10 1.5782167698149316e-10 2.0443890674434884e-11
5.570647458961463 1.2262612668115843e-18 1.813251805307674e-10 1.6051056984634795e-10 2.081461068441946e-11
5.612585937458331 1.237863270336493e-18 1.844187668293861e-10 1.6323349905500242e-10 2.1185267774383617e-11
5.654840148729818 1.2497880914891646e-18 1.8759711190255768e-10 1.6603930547656823e-10 2.155780642598942e-11
5.67608639626678 1.2571821128943252e-18 1.8941598362653474e-10 1.6766276597549273e-10 2.1753217651042083e-11
5.686739436050992 1.26090611411239e-18 1.9033362243647468e-10 1.6848267989321573e-10 2.185094254325892e-11
5.6974124697621304 1.2646490866708309e-18 1.9125690762877356e-10 1.6930823145979783e-10 2.1948676168975713e-11
5.718818669136295 1.2721950030401037e-18 1.93120974718323e-10 1.7097681749072276e-10 2.214415722760021e-11
5.740305295436557 1.2802243108215404e-18 1.950700044078413e-10 1.7272869850492352e-10 2.2341305902917836e-11
5.7835210386641895 1.2998422280103312e-18 1.99550304395793e-10 1.7680181606731918e-10 2.2748488328473827e-11
5.827062130521658 1.3211350294179618e-18 2.0434606996413688e-10 1.8118606072979297e-10 2.316000923434391e-11
5.8489554468988025 1.3355632897583892e-18 2.0735390541125423e-10 1.8397017883746298e-10 2.3383726573791277e-11
5.870931020387893 1.3505790979236062e-18 2.1047302110165399e-10 1.8686524269747123e-10 2.3607778404182713e-11
5.892989160043636 1.366232396884954e-18 2.1371236710317114e-10 1.8988022787264254e-10 2.3832139230528607e-11
5.915130176081913 1.3836689719595213e-18 2.1725307991645188e-10 1.931878734725763e-10 2.4065206443875504e-11
5.95966208400165 1.431542727368286e-18 2.2646202360328065e-10 2.0185736542448959e-10 2.4604658178791165e-11
6.004529249263818 1.4983124426182955e-18 2.388090515883167e-10 2.1359257323224152e-10 2.5216478356075172e-11
6.027089341400364 1.544071251184177e-18 2.470269858260091e-10 2.2145283324716275e-10 2.5574152578846373e-11
6.049734195844842 1.5970586372171768e-18 2.5646410456222975e-10 2.3051015905982215e-10 2.5953945502407627e-11
6.095279466722835 1.7483369716774663e-18 2.8287085120532627e-10 2.559693367561379e-10 2.6901514449188312e-11
6.141167624020661 1.9759669099707254e-18 3.2210691786764746e-10 2.939582156173141e-10 2.81487022503334e-11
6.164241091010745 2.120519177477052e-18 3.469694627960113e-10 3.18029675651967e-10 2.8939787144044378e-11
6.187401249150058 2.281276815483656e-18 3.74675849364933e-10 3.4492536283151976e-10 2.975048653341324e-11
6.1990139391386085 2.359130638558861e-18 3.8818972591541586e-10 3.580270226144377e-10 3.016270330097818e-11
6.204828454712694 2.399813940361903e-18 3.95254464296905e-10 3.6488372810917183e-10 3.037073618773329e-11
6.210648424152782 2.42914477819482e-18 4.0046058545446854e-10 3.699144248944298e-10 3.0546160560038886e-11
6.233982942956859 2.526572319441873e-18 4.180871084892378e-10 3.869370291715948e-10 3.1150079317643175e-11
6.239830258556775 2.537746106098933e-18 4.20329991389919e-10 3.8910192850801686e-10 3.122806288190214e-11
6.245683058788269 2.5369856357593154e-18 4.2059817432926226e-10 3.8929206335538555e-10 3.130611097387668e-11
6.257405133728602 2.53026142149811e-18 4.2027068815008884e-10 3.8883136063136e-10 3.143932751872886e-11
6.269149208991335 2.5059476616247152e-18 4.170134241730586e-10 3.8554159901825995e-10 3.147182515479858e-11
6.280915325867298 2.451166027761972e-18 4.086627945743403e-10 3.772827922440701e-10 3.1380002330270097e-11
6.304513850009849 2.3185562489514693e-18 3.8800620659438245e-10 3.5692196721872325e-10 3.1084239375659204e-11
6.32820103803542 2.1586555600452183e-18 3.6260438482674145e-10 3.319351549204438e-10 3.066922990629763e-11
6.3519772230701035 2.013357051858845e-18 3.394682529738271e-10 3.091756816736958e-10 3.029257130013127e-11
6.375842739491607 1.890249942928878e-18 3.1990885638329455e-10 2.899534124229241e-10 2.995544396037049e-11
6.399797922933955 1.7937680099700696e-18 3.04720708003147e-10 2.7496149170361416e-10 2.975921629953291e-11
6.42384311029221 1.7128326986040702e-18 2.920648574547881e-10 2.624735777426973e-10 2.95912797120908e-11
6.447978639727206 1.6545696668205165e-18 2.8319010943306706e-10 2.5365737852647343e-10 2.953273090659375e-11
6.472204850670314 1.6056510445803768e-18 2.7584991459073354e-10 2.4635413168272936e-10 2.9495782908004265e-11
6.496522083828205 1.5740731550582825e-18 2.7144088617214425e-10 2.4189385286714213e-10 2.954703330500216e-11
