Dust emission spectrum from A.P. Jones, M. Kohler, N. Ysard, M. Bocchio, and L. Verstraete (2017), A&A, 602A, 46J 
inside the DustPedia framework.

lambda    nu*dP/dnu     j_nu    j_nu(carb.) j_nu(sil)
 (um)   (erg s-1 H-1) (Jy cm2 sr-1 H-1)
0.9927057738263894 2.9176593628972983e-20 7.688198140977812e-13 7.688197074108134e-13 1.0668696790544736e-19
1.0001793341362166 2.966586528766208e-20 7.875975022381493e-13 7.875973738824821e-13 1.2835566729397328e-19
1.0077091589558085 3.0157257628870305e-20 8.066710757186357e-13 8.066709215003995e-13 1.5421823595681015e-19
1.0114953028030835 3.0403730070377266e-20 8.163195011117732e-13 8.163193321543742e-13 1.6895739906079245e-19
1.0152956718711033 3.065071032526739e-20 8.260427266142154e-13 8.260425415711906e-13 1.8504302488849618e-19
1.0229392996569957 3.1145925052808697e-20 8.457081796238967e-13 8.457079578903036e-13 2.217335929007082e-19
1.0267826658714554 3.1393598735122663e-20 8.55636030569094e-13 8.556357879595825e-13 2.426095112661049e-19
1.0306404723013447 3.164174112374783e-20 8.656393672320088e-13 8.656391018702521e-13 2.653617569252184e-19
1.03451277320114 3.189034616035792e-20 8.757184985073948e-13 8.757182083570572e-13 2.9015033759240766e-19
1.0383996230291617 3.213940804346842e-20 8.858737405559121e-13 8.85873423407798e-13 3.171481141143864e-19
1.0403485208654093 3.226410856130218e-20 8.90980003980961e-13 8.909796724477406e-13 3.315332202158125e-19
1.0423010764483396 3.238892123483317e-20 8.961054171047703e-13 8.961050705630058e-13 3.4654176433580666e-19
1.0462171883269815 3.263888046581736e-20 9.064138597530998e-13 9.064134812202862e-13 3.7853281364454233e-19
1.0471985131304309 3.2701439376020756e-20 9.0900300475207e-13 9.090026177905319e-13 3.869615379319086e-19
1.048180758391296 3.27640257750028e-20 9.115969742179871e-13 9.115965786483182e-13 3.955696690415806e-19
1.0501480137395462 3.288928074374449e-20 9.167994082820321e-13 9.167989949432956e-13 4.1333873638034864e-19
1.0521189612883777 3.3014644792112975e-20 9.220212057479541e-13 9.22020773878069e-13 4.3186988501339874e-19
1.0531058218030118 3.3077285301875835e-20 9.246370805884053e-13 9.246366391568715e-13 4.414315336886714e-19
1.0540936079674168 3.313968344079307e-20 9.27250269934767e-13 9.272498187371482e-13 4.511976186063437e-19
1.058054026499678 3.338953448615212e-20 9.377512279645121e-13 9.377507355963375e-13 4.92368174573299e-19
1.0590464539527713 3.3452061553472546e-20 9.403885458558932e-13 9.403880426472074e-13 5.03208685766483e-19
1.06003981227728 3.351461422073666e-20 9.430307065189297e-13 9.430301922417733e-13 5.142771565947676e-19
1.0620293250338977 3.363979611972275e-20 9.483295792955215e-13 9.483290421792542e-13 5.371162673863531e-19
1.0660195594769086 3.389046459537793e-20 9.589856947388622e-13 9.589851090027837e-13 5.857360783685544e-19
1.070024785945596 3.414153647694668e-20 9.697199549700107e-13 9.697193164255034e-13 6.385445074948883e-19
1.0740450607676866 3.439300864432184e-20 9.805327508672258e-13 9.805320549844206e-13 6.958828052607387e-19
1.07808044048254 3.4644878299524275e-20 9.914244838544234e-13 9.914237257361115e-13 7.581183121505117e-19
1.0861967418109137 3.5149418506428083e-20 1.0134354070794654e-12 1.0134345081873624e-12 8.988921031790203e-19
1.0902777775684922 3.540121664900705e-20 1.0245302390622948e-12 1.024529260749238e-12 9.783130571357648e-19
1.0943741465085532 3.565338958657649e-20 1.0357050230550671e-12 1.035703958654613e-12 1.0644004541684443e-18
1.1026131145906286 3.6158856103151944e-20 1.058296280476419e-12 1.0582950217501954e-12 1.2587262235020915e-18
1.1109141095355224 3.666581420238673e-20 1.081212975954821e-12 1.0812114893741177e-12 1.4865807031886106e-18
1.1192775983109025 3.71738733118756e-20 1.1044474562743703e-12 1.1044457028822567e-12 1.753392113798303e-18
1.1277040513999907 3.7681236979722365e-20 1.1279496787324e-12 1.1279476133265119e-12 2.0654058879735057e-18
1.1361939428280308 3.8190058956752587e-20 1.1517871568174427e-12 1.1517847270194781e-12 2.429797964521151e-18
1.1447477501889525 3.8700360724583355e-20 1.1759645902628782e-12 1.1759617354608937e-12 2.854801984601897e-18
1.1533659546722406 3.9212345646110825e-20 1.200492311210149e-12 1.2004889613529881e-12 3.349857160577965e-18
1.1707974979042381 4.024294461789611e-20 1.2506649235093426e-12 1.250660328602205e-12 4.59490713751258e-18
1.1884924949847024 4.12807036635354e-20 1.3023057805189857e-12 1.3022995095016655e-12 6.271017319865529e-18
1.2064549276569216 4.233265155590897e-20 1.3556763086332443e-12 1.35566779251102e-12 8.51612222399455e-18
1.2246888378427687 4.339236708179321e-20 1.4106151194557595e-12 1.4106036113180398e-12 1.1508137720104906e-17
1.2431983285522175 4.44592016620321e-20 1.46713984035726e-12 1.4671243646245112e-12 1.5475732748457288e-17
1.2619875648066055 4.55349587550164e-20 1.5253498234525178e-12 1.5253291121372492e-12 2.071131526858597e-17
1.3004222497298317 4.770791508227034e-20 1.64681290685416e-12 1.6467763353206946e-12 3.657153346596722e-17
1.3400274889804893 4.992003823401846e-20 1.7756527970858383e-12 1.7755894072470357e-12 6.338983880250309e-17
1.3808389325824078 5.218213253100118e-20 1.912644605682715e-12 1.9125367004506e-12 1.0790523211545701e-16
1.4228933163050095 5.45158961571364e-20 2.0590406851409076e-12 2.058860205611363e-12 1.8047952954448537e-16
1.466228494730424 5.696406689364273e-20 2.217032584601518e-12 2.216735832350215e-12 2.9675225130282733e-16
1.5108834753276823 5.952752387656289e-20 2.387361699827737e-12 2.3868818197954857e-12 4.798800322515012e-16
1.5568984535646726 6.221088346678079e-20 2.570964554838025e-12 2.570200534931803e-12 7.640199062218462e-16
1.6043148490894465 6.503670126515671e-20 2.7696031311287965e-12 2.7684032810654655e-12 1.1998500633306314e-15
1.6531753430134553 6.803017634399131e-20 2.9853135278469258e-12 2.983457094108272e-12 1.8564337386531235e-15
1.7035239163302658 7.122115075806671e-20 3.2205248510548096e-12 3.217694353395729e-12 2.8304976590806506e-15
1.755405889504358 7.467585139973368e-20 3.4795827324404294e-12 3.475327792821227e-12 4.254939619202846e-15
1.8088679632656115 7.841150872346247e-20 3.764923103157356e-12 3.758614636454083e-12 6.308466703273616e-15
1.8639582606462262 8.244703093444219e-20 4.079252953229716e-12 4.070024574768129e-12 9.228378461587257e-15
1.9207263702978936 8.681604065681299e-20 4.4262394794337665e-12 4.412914704446011e-12 1.3324774987754326e-14
1.979223391128241 9.156112609340956e-20 4.810335563838511e-12 4.7913382109156295e-12 1.8997352922881896e-14
2.039501978296691 9.672679902503659e-20 5.236491222410946e-12 5.2097379128938656e-12 2.6753309517078135e-14
2.1016163906111602 1.0238937695669964e-19 5.711862973259269e-12 5.674633232095299e-12 3.722974116396864e-14
2.1656225393682647 1.086087428128369e-19 6.2433399438083325e-12 6.19212728627335e-12 5.121265753498207e-14
2.231578038680979 1.1541815110295104e-19 6.836843281862562e-12 6.767185150472586e-12 6.965813138997457e-14
2.299542257339062 1.2286974449348233e-19 7.499905357095394e-12 7.406191581392033e-12 9.371377570336158e-14
2.369576372248914 1.3102897776346912e-19 8.24152341061218e-12 8.116782387018222e-12 1.247410235939572e-13
2.4417434235010123 1.3996676785901092e-19 9.07181935501757e-12 8.907489420895603e-12 1.6432993412196624e-13
2.5161083711144245 1.497769188212766e-19 1.0003308621040437e-11 9.788988936736476e-12 2.1431968430396067e-13
2.5927381535095444 1.60579217077658e-19 1.1051403295694285e-11 1.0774595942305966e-11 2.7680735338831707e-13
2.6717017477616296 1.7248107834320292e-19 1.223203925988579e-11 1.1877902398310417e-11 3.541368615753701e-13
2.753070231689431 1.856107645816121e-19 1.3564065656282946e-11 1.311517123850616e-11 4.488944177767859e-13
2.836916847834745 2.0023239878931086e-19 1.5078230907091698e-11 1.4514317182012947e-11 5.639137250787502e-13
2.9233170693905177 2.1685160548389306e-19 1.6827050470419118e-11 1.612494832390055e-11 7.021021465185728e-13
2.967498994190263 2.262699015385404e-19 1.78232459995361e-11 1.7044007984675962e-11 7.792380148601384e-13
3.0123486681368425 2.3628078959601244e-19 1.8893093982948e-11 1.8029354389423737e-11 8.637395935242686e-13
3.0578761833420214 2.4976338622746373e-19 2.0273003868410987e-11 1.931653025722805e-11 9.564736111829331e-13
3.1040917844459814 2.648544039579107e-19 2.1822835859570805e-11 2.0765792019976102e-11 1.0570438395947058e-12
3.127460860933648 2.765012051395908e-19 2.29539982893574e-11 2.184324269192346e-11 1.1107555974339336e-12
3.1510058709225794 2.905401690852724e-19 2.430103832404857e-11 2.3134394639562426e-11 1.1666436844861526e-12
3.162844764501044 3.0204263331513474e-19 2.5358032717317413e-11 2.4162504677472352e-11 1.1955280398450715e-12
3.1747281389236908 3.1484547718891575e-19 2.6532210446769335e-11 2.5307237301357422e-11 1.22497314541192e-12
3.1986289994194426 3.4839164261833405e-19 2.958019494089532e-11 2.8294469538864527e-11 1.2857254020307863e-12
3.2227097969389145 4.2191428069737656e-19 3.6092324861717005e-11 3.474232425016108e-11 1.3500006115559384e-12
3.2348180950136065 4.894477694482772e-19 4.202673489761531e-11 4.064245821662619e-11 1.384276680989127e-12
3.240889293275058 5.394963608060446e-19 4.6411130642254355e-11 4.500877400749353e-11 1.4023566347608346e-12
3.2469718861334385 5.973669287279299e-19 5.1485998178967716e-11 5.006493418633775e-11 1.4210639926299652e-12
3.2714166318528037 8.992777458860203e-19 7.809066776478451e-11 7.659237731040827e-11 1.4982904543762387e-12
3.2744851364798273 9.183310719840776e-19 7.982000221717216e-11 7.831263406098087e-11 1.5073681561912502e-12
3.2775565192852394 9.378784867726694e-19 8.159549786086094e-11 8.007900874319612e-11 1.5164891176648194e-12
3.283707930232385 9.202660880985962e-19 8.021348278680381e-11 7.868072966565684e-11 1.532753121146982e-12
3.2898708863219004 8.6256436414734e-19 7.532511422060171e-11 7.377760332497457e-11 1.5475108956271344e-12
3.29141343181113 8.4893555761779825e-19 7.416971231779677e-11 7.261849675956713e-11 1.5512155582296443e-12
3.292184975758714 8.422356835144069e-19 7.36016074160535e-11 7.204853724193287e-11 1.5530701741206362e-12
3.295272960557952 8.003172526915046e-19 7.00040243225599e-11 6.844374824232909e-11 1.5602760802308081e-12
3.3076538914384823 6.54097229185241e-19 5.742907242088016e-11 5.58398753893979e-11 1.5891970314822562e-12
3.310756385682612 6.240661540359582e-19 5.4843768359845595e-11 5.324728595536615e-11 1.596482404479448e-12
3.313861789986515 5.962533885877059e-19 5.244869475552007e-11 5.084490490806995e-11 1.6037898474501143e-12
3.3200813396944477 5.577061974060377e-19 4.915001190175344e-11 4.75304841436293e-11 1.6195277581241324e-12
3.345076488085796 4.926894038999342e-19 4.374704349566278e-11 4.2057325912718004e-11 1.6897175829447818e-12
3.3482140837626964 4.959776543927317e-19 4.40803224038367e-11 4.238109406769093e-11 1.699228336145774e-12
3.3513546224236106 4.992920852077021e-19 4.441651701251157e-11 4.270773739334926e-11 1.7087796191623365e-12
3.3576445397418455 5.200937647278106e-19 4.6353848546071946e-11 4.4625091602678594e-11 1.7287569433933531e-12
3.3702598118196083 5.937453201903704e-19 5.3116935897876296e-11 5.134627928942953e-11 1.7706566084467584e-12
3.382922481734668 6.128706722804845e-19 5.503390360605749e-11 5.322259409964612e-11 1.811309506411369e-12
3.389271646505754 6.227007299596494e-19 5.6021558470230257e-11 5.418965756008079e-11 1.8319009101494867e-12
3.395632727569191 6.334684024917053e-19 5.709723806444067e-11 5.524411637289939e-11 1.8531216915412784e-12
3.421196662673239 6.850174983909169e-19 6.220841529402424e-11 6.026752746045707e-11 1.9408878335671498e-12
3.4276182099114902 6.774115767691437e-19 6.163316763131651e-11 5.96727730972737e-11 1.9603945340427906e-12
3.4340518103208963 6.39592078959915e-19 5.830144955516259e-11 5.632264388346586e-11 1.978805671696729e-12
3.4469541582030403 5.857502425568293e-19 5.359415375143657e-11 5.158008879183985e-11 2.014064959596693e-12
3.472904465399547 5.740661114618074e-19 5.2920529373131453e-11 5.082512142480574e-11 2.095407948325712e-12
3.4990501388274233 5.545834787725264e-19 5.1509404182504694e-11 4.933093122831704e-11 2.178472954187664e-12
3.5253949054701885 4.759705350699526e-19 4.454072421384289e-11 4.2281835430513e-11 2.258888783329875e-12
3.5519380250092896 4.0127917652535253e-19 3.783392827212592e-11 3.5494440327389106e-11 2.3394879447368107e-12
3.578680990867387 3.748320230793603e-19 3.5606485271554704e-11 3.3178685772733335e-11 2.4277994988213677e-12
3.605625307711299 3.673875588456873e-19 3.5162073042118136e-11 3.264140012715781e-11 2.5206729149603147e-12
3.660119384959845 3.6882363478734196e-19 3.5833021317343176e-11 3.311785039253548e-11 2.7151709248076896e-12
3.715437065384467 3.728565251461646e-19 3.677232503189828e-11 3.385301877556906e-11 2.9193062563292252e-12
3.8285932144167436 3.911831851646714e-19 3.9754732624333124e-11 3.6399849248907863e-11 3.354883375425267e-12
3.94519561050918 4.1244199726083225e-19 4.319175545580816e-11 3.936661750717818e-11 3.825137948629982e-12
4.06534921144712 4.3489302699839715e-19 4.692991142989599e-11 4.260150306767951e-11 4.328408362216472e-12
4.189162171576248 4.57918954692734e-19 5.091962855389395e-11 4.605510446102156e-11 4.864524092872405e-12
4.316745939156006 4.811433606700516e-19 5.513157752661397e-11 4.970137623998479e-11 5.430201286629178e-12
4.448215356677963 5.042527500948645e-19 5.953927110372249e-11 5.352315579239282e-11 6.016115311329675e-12
4.58368876423945 5.270737471644338e-19 6.412921728021129e-11 5.7507383241057186e-11 6.621834039154096e-12
4.723288106065518 5.494981114599251e-19 6.889378957362572e-11 6.164369623713003e-11 7.250093336495689e-12
4.867139040275056 5.712944024367789e-19 7.380795200789752e-11 6.592611166956452e-11 7.88184033833298e-12
4.940699165968905 5.820600471277523e-19 7.633533821481909e-11 6.813458323541474e-11 8.200754979404327e-12
5.015371051989984 5.925092097188397e-19 7.888012809892676e-11 7.035963072163247e-11 8.520497377294281e-12
5.091171501069577 6.031055647302043e-19 8.150429507718588e-11 7.265587958759193e-11 8.848415489593937e-12
5.129500256944802 6.082651843378516e-19 8.282042373179517e-11 7.380820805167014e-11 9.012215680125038e-12
5.168117569889187 6.133795659620689e-19 8.41455438701047e-11 7.496782756288716e-11 9.177716307217546e-12
5.20702561229733 6.188324143353907e-19 8.553270379425301e-11 7.617293936533288e-11 9.359764428920138e-12
5.246226572918644 6.241963878710687e-19 8.692360449251018e-11 7.738146465338157e-11 9.54213983912861e-12
5.265937586045735 6.268443850466209e-19 8.762032918154574e-11 7.798690974066623e-11 9.633419440879495e-12
5.285722656980489 6.294693828736097e-19 8.831783533310489e-11 7.85930916027721e-11 9.724743730332794e-12
5.305582063971359 6.320711351052125e-19 8.90160721804654e-11 7.919997198091798e-11 9.816100199547412e-12
5.3255160863122235 6.347161492000682e-19 8.972442466194382e-11 7.981611380400251e-11 9.908310857941315e-12
5.365609099470188 6.404496309298504e-19 9.121650806096451e-11 8.111730209064703e-11 1.0099205970317469e-11
5.406003951863644 6.4611015448349755e-19 9.271550293845578e-11 8.242513801104651e-11 1.0290364927409293e-11
5.446702915881641 6.516974035059545e-19 9.422130423567781e-11 8.373961697353299e-11 1.048168726214481e-11
5.487708281020852 6.5733381782089215e-19 9.575168513262774e-11 8.507767819016175e-11 1.0674006942465976e-11
5.529022354014368 6.639812957318909e-19 9.744815576465648e-11 8.657366967482605e-11 1.0874486089830445e-11
5.570647458961463 6.706247184051573e-19 9.916414342058337e-11 8.808896296525993e-11 1.1075180455323434e-11
5.612585937458331 6.772705678588783e-19 1.0090080700142266e-10 8.962481901872604e-11 1.1275987982696578e-11
5.654840148729818 6.841073167994377e-19 1.0268665363106897e-10 9.120870989217663e-11 1.1477943738892355e-11
5.67608639626678 6.883320454595286e-19 1.037089934028839e-10 9.212515390849633e-11 1.1583839494387573e-11
5.686739436050992 6.904606552697344e-19 1.0422495076872685e-10 9.258813850182271e-11 1.1636812266904133e-11
5.6974124697621304 6.926006487925104e-19 1.0474420114314002e-10 9.30544016709895e-11 1.1689799472150544e-11
5.718818669136295 6.969165174206859e-19 1.057928987458374e-10 9.399708807764685e-11 1.1795810668190585e-11
5.740305295436557 7.015067113651427e-19 1.0688979745300602e-10 9.498704568845394e-11 1.190275176455209e-11
5.7835210386641895 7.12695486527762e-19 1.0941220266079272e-10 9.728856584199127e-11 1.2123636818801462e-11
5.827062130521658 7.248395454444994e-19 1.1211428746343186e-10 9.97672843719758e-11 1.2347003091456058e-11
5.8489554468988025 7.330415089789744e-19 1.1380892308207034e-10 1.0134058933729062e-10 1.246833374477974e-11
5.870931020387893 7.415787967272966e-19 1.1556696677157669e-10 1.029770781126419e-10 1.25898886589348e-11
5.892989160043636 7.504796823036e-19 1.173934901072646e-10 1.0468183558431792e-10 1.2711654522946702e-11
5.915130176081913 7.603876854307979e-19 1.1939023707125216e-10 1.0655212679265859e-10 1.2838110278593552e-11
5.95966208400165 7.875277984799153e-19 1.2458247698653306e-10 1.1145218924727267e-10 1.3130287739260424e-11
6.004529249263818 8.25328978581419e-19 1.3154534729682832e-10 1.1808398396561229e-10 1.3461363331216038e-11
6.027089341400364 8.512069308503954e-19 1.3617964992283907e-10 1.22524984972959e-10 1.3654664949880053e-11
6.049734195844842 8.81168346058273e-19 1.4150266344271045e-10 1.2764280041549835e-10 1.3859863027212132e-11
6.095279466722835 9.66647299421802e-19 1.563979649417484e-10 1.420269463237836e-10 1.437101861796478e-11
6.141167624020661 1.0952318075951057e-18 1.7853625995199403e-10 1.6349344225104697e-10 1.5042817700947056e-11
6.164241091010745 1.1768813600611016e-18 1.9256694191319501e-10 1.77098464659391e-10 1.5468477253804033e-11
6.187401249150058 1.267718068743907e-18 2.0820942944672594e-10 1.923046523904619e-10 1.5904777056264033e-11
6.1990139391386085 1.3117254806083456e-18 2.1584152503935875e-10 1.997148885103676e-10 1.6126636528991185e-11
6.204828454712694 1.3347245837979194e-18 2.1983198008817227e-10 2.0359336872451361e-10 1.623861136365873e-11
6.210648424152782 1.3513231570905802e-18 2.22774561435907e-10 2.0644143116408404e-10 1.6333130271822998e-11
6.233982942956859 1.4065199866560775e-18 2.3274531654144853e-10 2.160863866132676e-10 1.665892992818092e-11
6.239830258556775 1.4128921315477909e-18 2.340190518118029e-10 2.173177375561094e-10 1.6701314255693457e-11
6.245683058788269 1.4125259410503832e-18 2.341778461905636e-10 2.174341091750304e-10 1.674373701553319e-11
6.257405133728602 1.4088593840793026e-18 2.3400835100396404e-10 2.17192008518423e-10 1.6816342485541095e-11
6.269149208991335 1.395273689531186e-18 2.3218675626798185e-10 2.1535172337529247e-10 1.6835032892689428e-11
6.280915325867298 1.364495307801834e-18 2.2749110397022077e-10 2.1070394118532597e-10 1.67871627848948e-11
6.304513850009849 1.2899202580544766e-18 2.1586582872997202e-10 1.9923445551864867e-10 1.663137321132333e-11
6.32820103803542 1.1999034081509568e-18 2.0155611910358412e-10 1.8514440646020182e-10 1.641171264338229e-11
6.3519772230701035 1.118094090258963e-18 1.885196901017343e-10 1.723071255024768e-10 1.621256459925752e-11
6.375842739491607 1.048799830492187e-18 1.7750052346404055e-10 1.614659741305267e-10 1.603454933351387e-11
6.399797922933955 9.944941700621664e-19 1.6894211844674495e-10 1.530100972702911e-10 1.593202117645383e-11
6.42384311029221 9.489610870692275e-19 1.618127589757563e-10 1.4596812569302098e-10 1.5844633282735338e-11
6.447978639727206 9.162110724320524e-19 1.5681534544532804e-10 1.409994694540147e-10 1.5815875991313354e-11
6.472204850670314 8.887348013629962e-19 1.5268412142058229e-10 1.368854240944054e-10 1.5798697326176923e-11
6.496522083828205 8.710425539372798e-19 1.5020684519940783e-10 1.3437803047075285e-10 1.582881472865499e-11
6.520930681187647 8.560426181908852e-19 1.481748182690801e-10 1.3230891263756179e-10 1.5865905631518296e-11
