Dust emission spectrum from A.P. Jones, M. Kohler, N. Ysard, M. Bocchio, and L. Verstraete (2017), A&A, 602A, 46J 
inside the DustPedia framework.

lambda    nu*dP/dnu     j_nu    j_nu(carb.) j_nu(sil)
 (um)   (erg s-1 H-1) (Jy cm2 sr-1 H-1)
0.9927057738263894 4.291272370195768e-22 1.1307746434870528e-14 1.1307745465969132e-14 9.689013942520537e-22
1.0001793341362166 4.363517137356588e-22 1.1584678771479207e-14 1.1584677605293851e-14 1.1661853574915903e-21
1.0077091589558085 4.436015554573552e-22 1.1865818448580512e-14 1.1865817046801399e-14 1.401779112780822e-21
1.0114953028030835 4.472356012577295e-22 1.2007972115692565e-14 1.2007970579593473e-14 1.536099091529979e-21
1.0152956718711033 4.508755293559103e-22 1.2151185002905304e-14 1.2151183320175024e-14 1.6827302806407926e-21
1.0229392996569957 4.581689047197245e-22 1.2440702586736965e-14 1.2440700569404734e-14 2.0173322306001375e-21
1.0267826658714554 4.618140343564253e-22 1.2586792949473142e-14 1.2586790741682462e-14 2.207790680801696e-21
1.0306404723013447 4.654642896166904e-22 1.273394569398347e-14 1.2733943278556042e-14 2.415427428889595e-21
1.03451277320114 4.691195353118825e-22 1.2882163555643187e-14 1.2882160913929564e-14 2.641713626442276e-21
1.0383996230291617 4.727796395731669e-22 1.3031449340974191e-14 1.3031446452734985e-14 2.888239205944175e-21
1.0403485208654093 4.746114733872386e-22 1.3106493602465877e-14 1.310649058284259e-14 3.019623290016361e-21
1.0423010764483396 4.764444739424995e-22 1.3181805931540021e-14 1.3181802774818174e-14 3.1567218435365296e-21
1.0462171883269815 4.801139134632969e-22 1.3333236287905094e-14 1.3333232838888544e-14 3.4490165465550206e-21
1.0471985131304309 4.810319785957676e-22 1.3371262007690669e-14 1.3371258481648531e-14 3.526042139852186e-21
1.048180758391296 4.819503220862288e-22 1.3409355076029364e-14 1.3409351471316194e-14 3.604713172529341e-21
1.0501480137395462 4.837878367707577e-22 1.348574345365808e-14 1.3485739686532175e-14 3.7671259054393186e-21
1.0521189612883777 4.856264429222566e-22 1.356240181488295e-14 1.3562397878353023e-14 3.936529926629264e-21
1.0531058218030118 4.865449173513783e-22 1.360079788438359e-14 1.3600793860435193e-14 4.023948395617307e-21
1.0540936079674168 4.874596182710397e-22 1.3639148467777374e-14 1.363914435453488e-14 4.113242493805555e-21
1.058054026499678 4.911208974482321e-22 1.3793220892376317e-14 1.3793216402626885e-14 4.489749433848667e-21
1.0590464539527713 4.920368276146373e-22 1.3831906774667635e-14 1.3831902185762299e-14 4.5889053380770154e-21
1.06003981227728 4.929529985831052e-22 1.3870659870129715e-14 1.3870655179975563e-14 4.690154150550972e-21
1.0620293250338977 4.94786056357885e-22 1.394836790916408e-14 1.3948363010064898e-14 4.8990991805098096e-21
1.0660195594769086 4.984549901682578e-22 1.4104592862611623e-14 1.4104587518606738e-14 5.3440048845937214e-21
1.070024785945596 5.021275981284861e-22 1.426189920231444e-14 1.4261893374924056e-14 5.827390384649642e-21
1.0740450607676866 5.058037836557259e-22 1.442029048740639e-14 1.442028413500095e-14 6.352405442066167e-21
1.07808044048254 5.09483454421765e-22 1.4579770391036505e-14 1.4579763468594514e-14 6.922441989089072e-21
1.0861967418109137 5.168472027375164e-22 1.4901846959669834e-14 1.4901838747205678e-14 8.212464154851035e-21
1.0902777775684922 5.20518153707721e-22 1.5064075162778156e-14 1.5064066222169567e-14 8.940608587485119e-21
1.0943741465085532 5.241920394947245e-22 1.5227397300664268e-14 1.5227387570535908e-14 9.730128357220654e-21
1.1026131145906286 5.315483456568979e-22 1.5557340517004163e-14 1.5557329003799896e-14 1.1513204268994077e-20
1.1109141095355224 5.389156299860483e-22 1.58917123418973e-14 1.589169873658601e-14 1.3605311287257978e-20
1.1192775983109025 5.462876280599799e-22 1.6230377075403076e-14 1.6230361018654634e-14 1.6056748440633036e-20
1.1277040513999907 5.536371075948697e-22 1.6572566287620044e-14 1.657254736218339e-14 1.8925436652923098e-20
1.1361939428280308 5.609957066003022e-22 1.691926295855339e-14 1.6919240680572697e-14 2.2277980689877564e-20
1.1447477501889525 5.683632753794878e-22 1.7270513084069e-14 1.7270486893200274e-14 2.6190868722136512e-20
1.1533659546722406 5.757424912160529e-22 1.7626449592678227e-14 1.762641884081451e-14 3.0751863719445925e-20
1.1707974979042381 5.90558495572487e-22 1.835329901193423e-14 1.8353256776889395e-14 4.22350448364292e-20
1.1884924949847024 6.054211764477594e-22 1.9099565360194664e-14 1.9099507644226997e-14 5.771596766732791e-20
1.2064549276569216 6.204326390941976e-22 1.9868961640920373e-14 1.986888315862078e-14 7.848229960044305e-20
1.2246888378427687 6.354913660794081e-22 2.0658788389798127e-14 2.065868219184612e-14 1.0619795200535656e-19
1.2431983285522175 6.505843636942306e-22 2.1469081850482687e-14 2.1468938845040475e-14 1.4300544221409408e-19
1.2619875648066055 6.657326973239873e-22 2.230100301162218e-14 2.230081136211724e-14 1.9164950494026182e-19
1.3004222497298317 6.960973024696789e-22 2.402834037405767e-14 2.4028001011023895e-14 3.393630337735045e-19
1.3400274889804893 7.266775382508453e-22 2.584787690517552e-14 2.5847286986527235e-14 5.899186482846538e-19
1.3808389325824078 7.575934500965112e-22 2.7768260041246888e-14 2.7767252891638195e-14 1.0071496086949308e-18
1.4228933163050095 7.891282545723148e-22 2.9805016453827977e-14 2.9803326849776035e-14 1.689604051940465e-18
1.466228494730424 8.218795380783253e-22 3.198742322838337e-14 3.1984636581029155e-14 2.7866473542199517e-18
1.5108834753276823 8.558134095831026e-22 3.4322545659288017e-14 3.431802526402106e-14 4.520395266952297e-18
1.5568984535646726 8.909534368168581e-22 3.682007999919172e-14 3.681286019452298e-14 7.219804668727502e-18
1.6043148490894465 9.275916548083415e-22 3.950170752191108e-14 3.949033285557826e-14 1.137466633281912e-17
1.6531753430134553 9.660568545444635e-22 4.2392696175857565e-14 4.237503973831593e-14 1.7656437541637238e-17
1.7035239163302658 1.0067504927507796e-21 4.552390611785128e-14 4.549689638229621e-14 2.700973555505974e-17
1.755405889504358 1.050614175761314e-21 4.895423186898195e-14 4.8913493195675905e-14 4.0738673306053465e-17
1.8088679632656115 1.0978528642176229e-21 5.271332843419219e-14 5.2652722445317803e-14 6.060598887439193e-17
1.8639582606462262 1.1487009131442521e-21 5.683457050196643e-14 5.674560578055305e-14 8.896472141337681e-17
1.9207263702978936 1.2036056369633477e-21 6.136477484680268e-14 6.123586799697355e-14 1.2890684982912043e-16
1.979223391128241 1.26314220349883e-21 6.636154581013956e-14 6.61771053169475e-14 1.844404931920654e-16
2.039501978296691 1.3279160300019914e-21 7.188928720161984e-14 7.162860471344275e-14 2.6068248817707574e-16
2.1016163906111602 1.3989947363293402e-21 7.804389939401136e-14 7.767979969868153e-14 3.640996953298468e-16
2.1656225393682647 1.4772004423000929e-21 8.491640992766781e-14 8.441368640486412e-14 5.027235228036908e-16
2.231578038680979 1.5629695336068673e-21 9.25831652429126e-14 9.18967739387508e-14 6.863913041617974e-16
2.299542257339062 1.6570068207608596e-21 1.0114283530903896e-13 1.0021583726105085e-13 9.269980479881083e-16
2.369576372248914 1.7602319252068397e-21 1.1071591084139301e-13 1.0947714690230227e-13 1.238763939090741e-15
2.4417434235010123 1.873655271345874e-21 1.2143927030127474e-13 1.1980083473520124e-13 1.6384355660734982e-15
2.5161083711144245 1.9986533491921126e-21 1.334861635276521e-13 1.313406119907108e-13 2.145551536941314e-15
2.5927381535095444 2.1370497498660662e-21 1.470763096155266e-13 1.4429370895783398e-13 2.7826006576926483e-15
2.6717017477616296 2.290578080777858e-21 1.624435635551715e-13 1.5886857950893597e-13 3.574984046235514e-15
2.753070231689431 2.4614131933568467e-21 1.798751825476875e-13 1.7532413192206844e-13 4.551050625619127e-15
2.836916847834745 2.654056514284095e-21 1.998601485314814e-13 1.941179170284295e-13 5.742231503051987e-15
2.9233170693905177 2.8773779060306584e-21 2.2327611151047283e-13 2.1609465382397572e-13 7.18145768649713e-15
2.967498994190263 3.007749111409278e-21 2.369199436293682e-13 2.289301772238741e-13 7.989766405494005e-15
3.0123486681368425 3.1474378326725357e-21 2.516702220262597e-13 2.4279283688174534e-13 8.87738514451428e-15
3.0578761833420214 3.3454113755080553e-21 2.715431544291072e-13 2.616895498989132e-13 9.853604530193982e-15
3.1040917844459814 3.5713215810704356e-21 2.942611619847871e-13 2.833455801139078e-13 1.091558187087933e-14
3.127460860933648 3.7548586747078456e-21 3.1171299796870837e-13 3.0022895181486635e-13 1.1484046153841947e-14
3.1510058709225794 3.980299840385107e-21 3.3291582113044886e-13 3.2083933692999824e-13 1.2076484200450551e-14
3.162844764501044 4.170152731854265e-21 3.5010577232069267e-13 3.3772274078061195e-13 1.2383031540080672e-14
3.1747281389236908 4.383349215858128e-21 3.6938737343540146e-13 3.5669159035657876e-13 1.2695783078822686e-14
3.1986289994194426 4.94968429128993e-21 4.202529806165289e-13 4.069111450840411e-13 1.3341835532487759e-14
3.2227097969389145 6.213208732702648e-21 5.315040477978194e-13 5.174777378230004e-13 1.40263099748189e-14
3.2348180950136065 7.383012752400116e-21 6.339469480892635e-13 6.195553905411126e-13 1.4391557548150823e-14
3.240889293275058 8.252057503982255e-21 7.098978727354278e-13 6.953136561171683e-13 1.458421661825948e-14
3.2469718861334385 9.257413194169185e-21 7.97880056520547e-13 7.830964940791288e-13 1.478356244141848e-14
3.2714166318528037 1.4529440835161374e-20 1.2616944456340274e-12 1.2460871697134705e-12 1.5607275920556965e-14
3.2744851364798273 1.4861829203886623e-20 1.2917685965285858e-12 1.276064268600838e-12 1.5704327927748042e-14
3.2775565192852394 1.5203057882975538e-20 1.3226671626060637e-12 1.3068652995369307e-12 1.58018630691328e-14
3.283707930232385 1.489212086616432e-20 1.2980472672041904e-12 1.2820710201948719e-12 1.59762470093183e-14
3.2898708863219004 1.38790256457818e-20 1.2120129644732186e-12 1.1958780554358413e-12 1.6134909037377195e-14
3.29141343181113 1.3639780777163123e-20 1.1916789292685805e-12 1.1755041803451391e-12 1.6174748923441556e-14
3.292184975758714 1.3522175035572e-20 1.1816808974732843e-12 1.165486202419183e-12 1.619469505410139e-14
3.295272960557952 1.2784897040889745e-20 1.1182993249264114e-12 1.1020270502043296e-12 1.627227472208175e-14
3.3076538914384823 1.0215840767399998e-20 8.96940444162995e-13 8.803565912651698e-13 1.6583852897824944e-14
3.310756385682612 9.688959928035817e-21 8.514787583086982e-13 8.348163735909501e-13 1.6662384717748267e-14
3.313861789986515 9.201285170314606e-21 8.093797142174848e-13 7.92638542332597e-13 1.6741171884888057e-14
3.3200813396944477 8.523497537112717e-21 7.511661289441519e-13 7.342554769323984e-13 1.6910652011753595e-14
3.345076488085796 7.364760882004176e-21 6.539343287878564e-13 6.36268364069715e-13 1.7665964718141437e-14
3.3482140837626964 7.419634039033132e-21 6.594245883103528e-13 6.41656303302153e-13 1.776828500819989e-14
3.3513546224236106 7.474982239958006e-21 6.649668313712639e-13 6.470957671573995e-13 1.7871064213864402e-14
3.3576445397418455 7.833714336876485e-21 6.981871972927886e-13 6.801012400253512e-13 1.8085957267437526e-14
3.3702598118196083 9.115513332644896e-21 8.15481185116696e-13 7.969444851735888e-13 1.8536699943107187e-14
3.382922481734668 9.439878564955001e-21 8.476720954251549e-13 8.286972864930695e-13 1.8974808932085424e-14
3.389271646505754 9.606913244721629e-21 8.642903824642648e-13 8.450935133825772e-13 1.9196869081687662e-14
3.395632727569191 9.789407556093868e-21 8.823615061801678e-13 8.629357902774762e-13 1.9425715902691487e-14
3.421196662673239 1.0664538590196315e-20 9.684775164086187e-13 9.48104488316024e-13 2.0373028092594773e-14
3.4276182099114902 1.0527069367304963e-20 9.577879286859533e-13 9.37203497480047e-13 2.0584431205906432e-14
3.4340518103208963 9.861105262340301e-21 8.988803175070481e-13 8.780959385083092e-13 2.0784378998739077e-14
3.4469541582030403 8.91257908175902e-21 8.15470654428773e-13 7.943025068806931e-13 2.1168147548079705e-14
3.472904465399547 8.693470297451836e-21 8.014112678751174e-13 7.793590812488451e-13 2.205218662627219e-14
3.4990501388274233 8.336038537928471e-21 7.742466098728013e-13 7.512897958616046e-13 2.295681401119667e-14
3.5253949054701885 6.935511289917555e-21 6.490164261970776e-13 6.251808017869849e-13 2.3835624410092805e-14
3.5519380250092896 5.605921189217996e-21 5.285447951936388e-13 5.038259165398349e-13 2.471887865380386e-14
3.578680990867387 5.120886293616749e-21 4.864492657084594e-13 4.607623248516576e-13 2.5686940856801886e-14
3.605625307711299 4.9685145949913446e-21 4.755285498747543e-13 4.4882209375689027e-13 2.6706456117864132e-14
3.660119384959845 4.95040690212414e-21 4.809562601800622e-13 4.521080869348099e-13 2.8848173245252336e-14
3.715437065384467 4.9787250795497515e-21 4.910180847657087e-13 4.599124633051475e-13 3.110562146056119e-14
3.8285932144167436 5.217076400026019e-21 5.301952773773873e-13 4.942391950788049e-13 3.5956082298582455e-14
3.94519561050918 5.51036529810305e-21 5.770565364548056e-13 5.358134420889843e-13 4.124309436582136e-14
4.06534921144712 5.829281220145779e-21 6.290458443299107e-13 5.820861722215904e-13 4.695967210832054e-14
4.189162171576248 6.164180696130127e-21 6.854439812316637e-13 6.323286626158634e-13 5.311531861580047e-14
4.316745939156006 6.509872687165709e-21 7.45930589670927e-13 6.862449140678868e-13 5.968567560304016e-14
4.448215356677963 6.862547505844572e-21 8.102902291277275e-13 7.437123512752578e-13 6.657787785246958e-14
4.58368876423945 7.220302517436788e-21 8.784963232575986e-13 8.046978913975211e-13 7.37984318600775e-14
4.723288106065518 7.582215110263141e-21 9.506266198451355e-13 8.692361722406742e-13 8.139044760446138e-14
4.867139040275056 7.946235477847606e-21 1.0266079350520715e-12 9.374580956041034e-13 8.914983944796808e-14
4.940699165968905 8.131114412503815e-21 1.0663699936196403e-12 9.732547265599532e-13 9.311526705968686e-14
5.015371051989984 8.314026307358809e-21 1.1068375805559357e-12 1.0097123756664542e-12 9.712520488948123e-14
5.091171501069577 8.50312477368421e-21 1.1491208689850426e-12 1.0478544591986686e-12 1.0126640978637355e-13
5.129500256944802 8.59669239158642e-21 1.170512014982642e-12 1.0671626454456516e-12 1.0334936953699062e-13
5.168117569889187 8.690381735363822e-21 1.1921768153688928e-12 1.0867159568546185e-12 1.0546085851427463e-13
5.20702561229733 8.790468883234966e-21 1.2149857599328008e-12 1.1072185794733275e-12 1.0776718045947305e-13
5.246226572918644 8.890029235257877e-21 1.2379972075904177e-12 1.1279095074404307e-12 1.100877001499871e-13
5.265937586045735 8.939603546933743e-21 1.249578083843875e-12 1.1383251039478736e-12 1.1125297989600102e-13
5.285722656980489 8.989036324484834e-21 1.2612086489178055e-12 1.1487872072961545e-12 1.1242144162165091e-13
5.305582063971359 9.038324443032113e-21 1.2728885980175119e-12 1.1592956375713623e-12 1.135929604461493e-13
5.3255160863122235 9.088652673791309e-21 1.2847855425388239e-12 1.1700086733406836e-12 1.1477686919813992e-13
5.365609099470188 9.19806507215998e-21 1.310041159024191e-12 1.1928147144980727e-12 1.1722644452611798e-13
5.406003951863644 9.307365839115894e-21 1.335588210180147e-12 1.2158978055458371e-12 1.1969040463430985e-13
5.446702915881641 9.416562994023812e-21 1.361430691516076e-12 1.2392629387486481e-12 1.2216775276742802e-13
5.487708281020852 9.527905304971591e-21 1.3878990613316004e-12 1.263230801429293e-12 1.246682599023075e-13
5.529022354014368 9.659077582555789e-21 1.4175991144001583e-12 1.2903242227585907e-12 1.2727489164156778e-13
5.570647458961463 9.791659060104297e-21 1.4478760724340313e-12 1.3179796815658364e-12 1.2989639086819465e-13
5.612585937458331 9.925797602134303e-21 1.4787605363604436e-12 1.3462287933453878e-12 1.3253174301505574e-13
5.654840148729818 1.0065022631643919e-20 1.5107914611992047e-12 1.3755982526158956e-12 1.351932085833087e-13
5.67608639626678 1.0150252869871531e-20 1.5293091682464805e-12 1.3927228858134001e-12 1.3658628243308063e-13
5.686739436050992 1.019335155072447e-20 1.5386851595874743e-12 1.401400785637042e-12 1.3728437395043207e-13
5.6974124697621304 1.0236784382267737e-20 1.5481414928856491e-12 1.4101580123174548e-12 1.379834805681944e-13
5.718818669136295 1.032468928030336e-20 1.5673022238817512e-12 1.4279175490896401e-12 1.3938467479211125e-13
5.740305295436557 1.0418241006990587e-20 1.587445498399774e-12 1.4466450560959124e-12 1.4080044230386127e-13
5.7835210386641895 1.0644861510132643e-20 1.6341870642635764e-12 1.4904604118950397e-12 1.4372665236853727e-13
5.827062130521658 1.0892088412909754e-20 1.6847297296027335e-12 1.5380327349054067e-12 1.4669699469732686e-13
5.8489554468988025 1.1056998252686886e-20 1.7166627649931915e-12 1.5683595739239826e-12 1.48303191069209e-13
5.870931020387893 1.1229237355254814e-20 1.7499541600056021e-12 1.6000380945712878e-12 1.4991606543431413e-13
5.892989160043636 1.1409392958629279e-20 1.784709820934103e-12 1.6331743251064174e-12 1.5153549582768532e-13
5.915130176081913 1.1609653666635854e-20 1.8228586944954307e-12 1.6696438151181944e-12 1.532148793772363e-13
5.95966208400165 1.2153067323096168e-20 1.9225470301084607e-12 1.7654913975446117e-12 1.570556325638488e-13
6.004529249263818 1.2907317931978266e-20 2.0572373733332605e-12 1.8958518546841834e-12 1.6138551864907714e-13
6.027089341400364 1.3421663946576935e-20 2.1472540123713783e-12 1.983359635100418e-12 1.6389437727095975e-13
6.049734195844842 1.4017866704557737e-20 2.2510630157709206e-12 2.08450957354188e-12 1.66553442229041e-13
6.095279466722835 1.5715002847198168e-20 2.542596938744566e-12 2.3694832099374748e-12 1.7311372880709156e-13
6.141167624020661 1.8270362788311248e-20 2.9782939260627018e-12 2.7966357098793497e-12 1.8165821618335124e-13
6.164241091010745 1.9893897524007216e-20 3.2551344077143496e-12 3.06809888092222e-12 1.8703552679212928e-13
6.187401249150058 2.1707802153281348e-20 3.565279388464851e-12 3.3727245529431066e-12 1.9255483552174457e-13
6.1990139391386085 2.2589182355330505e-20 3.716999967634607e-12 3.521637196445862e-12 1.953627711887454e-13
6.204828454712694 2.305043236931773e-20 3.796455277100678e-12 3.5996744988203144e-12 1.9678077828036442e-13
6.210648424152782 2.3385702094786717e-20 3.855287686517216e-12 3.657302046575516e-12 1.9798563994170033e-13
6.233982942956859 2.4509974106438852e-20 4.0558127406267026e-12 3.853640279563199e-12 2.021724610635032e-13
6.239830258556775 2.4645827536234744e-20 4.082118558356335e-12 3.879375565127386e-12 2.0274299322894883e-13
6.245683058788269 2.4647686367451672e-20 4.086255649802945e-12 3.882941304808866e-12 2.0331434499407856e-13
6.257405133728602 2.4593579339046022e-20 4.0849377953899295e-12 3.880629506250631e-12 2.0430828913929886e-13
6.269149208991335 2.4343749232965203e-20 4.051030426655964e-12 3.846386441511035e-12 2.0464398514493e-13
6.280915325867298 2.375307963960775e-20 3.960156021798287e-12 3.75598996638606e-12 2.0416605541222873e-13
6.304513850009849 2.231141205765322e-20 3.733774567759211e-12 3.5313000721665568e-12 2.024744955926535e-13
6.32820103803542 2.0555972666494863e-20 3.4529296665993093e-12 3.252929456637358e-12 2.00000209961952e-13
6.3519772230701035 1.8957537979921643e-20 3.1963939494921553e-12 2.9986185599824435e-12 1.9777538950971252e-13
6.375842739491607 1.7606417456767593e-20 2.9797376239430565e-12 2.783930985650679e-12 1.9580663829237761e-13
6.399797922933955 1.654551318167182e-20 2.8107093353050507e-12 2.615943946598827e-12 1.9476538870622396e-13
6.42384311029221 1.565889506778194e-20 2.6700873702367258e-12 2.4761782624303632e-12 1.9390910780636276e-13
6.447978639727206 1.5023502853969673e-20 2.57136795300937e-12 2.377592424424362e-12 1.9377552858500827e-13
6.472204850670314 1.44930126956322e-20 2.489891142752861e-12 2.2961060241370217e-12 1.9378511861583928e-13
6.496522083828205 1.415607782101199e-20 2.441143409446594e-12 2.246763648142084e-12 1.943797613045095e-13
