Dust emission spectrum from A.P. Jones, M. Kohler, N. Ysard, M. Bocchio, and L. Verstraete (2017), A&A, 602A, 46J 
inside the DustPedia framework.

lambda    nu*dP/dnu     j_nu    j_nu(carb.) j_nu(sil)
 (um)   (erg s-1 H-1) (Jy cm2 sr-1 H-1)
0.9927057738263894 3.770218739774857e-23 9.934740523456053e-16 9.934740456432914e-16 6.70231403149887e-24
1.0001793341362166 3.8333323291341104e-23 1.017709390371436e-15 1.0177093823014832e-15 8.069952527087529e-24
1.0077091589558085 3.8965147117842613e-23 1.0422717319957597e-15 1.0422717222918206e-15 9.703939072093321e-24
1.0114953028030835 3.928126059200342e-23 1.0546751656879152e-15 1.0546751550520527e-15 1.0635862541524058e-23
1.0152956718711033 3.9597478681357625e-23 1.0671599095056723e-15 1.0671598978522207e-15 1.1653451894566656e-23
1.0229392996569957 4.022983247522989e-23 1.092364356862564e-15 1.0923643428861668e-15 1.3976397103383525e-23
1.0267826658714554 4.0545225967119095e-23 1.105064650209086e-15 1.10506463490996e-15 1.5299125861236693e-23
1.0306404723013447 4.086062056681545e-23 1.117844988170355e-15 1.1178449714288282e-15 1.6741526845919888e-23
1.03451277320114 4.1175994939642533e-23 1.1307052072051623e-15 1.130705188891274e-15 1.831388780810791e-23
1.0383996230291617 4.1491327963378097e-23 1.1436451428675171e-15 1.1436451228401863e-15 2.0027330966426055e-23
1.0403485208654093 4.164897242836373e-23 1.1501449528512483e-15 1.1501449319105703e-15 2.0940677729855485e-23
1.0423010764483396 4.1806598734866235e-23 1.1566646300262938e-15 1.1566646081324173e-15 2.189387632679132e-23
1.0462171883269815 4.2121786576554827e-23 1.1697635030875823e-15 1.1697634791610727e-15 2.3926509446400887e-23
1.0471985131304309 4.2200568178049695e-23 1.1730506059687578e-15 1.1730505815065195e-15 2.4462238435422404e-23
1.048180758391296 4.227934300026957e-23 1.1763426575123575e-15 1.176342632502909e-15 2.5009448658723514e-23
1.0501480137395462 4.243687104295702e-23 1.182941596219729e-15 1.182941570080475e-15 2.6139253926482748e-23
1.0521189612883777 4.2594368186238995e-23 1.1895602984809478e-15 1.1895602711630944e-15 2.731785311167829e-23
1.0531058218030118 4.267299140053492e-23 1.1928738960427052e-15 1.1928738681165915e-15 2.7926113357101626e-23
1.0540936079674168 4.275123577121015e-23 1.1961820631063584e-15 1.1961820345588937e-15 2.8547464977624105e-23
1.058054026499678 4.306410513668225e-23 1.2094633271950868e-15 1.2094632960272507e-15 3.116783598736389e-23
1.0590464539527713 4.3142293919870447e-23 1.212795778799559e-15 1.2127957469415112e-15 3.185804757610207e-23
1.06003981227728 4.322047067179211e-23 1.216133079296561e-15 1.2161330467336853e-15 3.256287628972276e-23
1.0620293250338977 4.3376786874057936e-23 1.2228222163138926e-15 1.2228221822963246e-15 3.4017567946686204e-23
1.0660195594769086 4.3689261676086143e-23 1.2362585600783851e-15 1.2362585229626982e-15 3.7115687124932904e-23
1.070024785945596 4.400151050332103e-23 1.249772189154531e-15 1.249772148671826e-15 4.0482704657753673e-23
1.0740450607676866 4.431351459003632e-23 1.263362935499882e-15 1.263362891359157e-15 4.414072457367391e-23
1.07808044048254 4.4625255450054335e-23 1.2770306326072283e-15 1.2770305844936695e-15 4.8113559057468364e-23
1.0861967418109137 4.524735973476995e-23 1.3045813666502516e-15 1.304581309542038e-15 5.710821406533256e-23
1.0902777775684922 4.555651590686082e-23 1.3184300583694906e-15 1.3184299961821252e-15 6.218736550558462e-23
1.0943741465085532 4.586531721966521e-23 1.3323540897302564e-15 1.332354022034007e-15 6.769624940145466e-23
1.1026131145906286 4.64817880545571e-23 1.3604275330972939e-15 1.3604274529540308e-15 8.014326311091539e-23
1.1109141095355224 4.70966410093857e-23 1.3888004532548765e-15 1.388800358498655e-15 9.475622125562952e-23
1.1192775983109025 4.770922298609131e-23 1.4174560053440038e-15 1.4174558934546368e-15 1.1188936692335039e-22
1.1277040513999907 4.83169909858572e-23 1.446320206768739e-15 1.4463200748177986e-15 1.3195094065884178e-22
1.1361939428280308 4.892270197617609e-23 1.475476638482739e-15 1.4754764830719998e-15 1.5541073956395e-22
1.1447477501889525 4.952624763103622e-23 1.5049243059301327e-15 1.5049241231214315e-15 1.828087009592388e-22
1.1533659546722406 5.0127799052326255e-23 1.534670684669272e-15 1.534670469904431e-15 2.1476484065778185e-22
1.1707974979042381 5.132678333767238e-23 1.5951270009313393e-15 1.5951267056316357e-15 2.9529970386697873e-22
1.1884924949847024 5.2516507079872986e-23 1.6567680459187085e-15 1.6567676419057662e-15 4.040129425326682e-22
1.2064549276569216 5.370559790336047e-23 1.7198876999805195e-15 1.7198871499451325e-15 5.500353867722165e-22
1.2246888378427687 5.48837019080148e-23 1.7841796825053313e-15 1.7841789373198344e-15 7.451854971636694e-22
1.2431983285522175 5.60489510641712e-23 1.849597969427898e-15 1.8495969647207133e-15 1.0047071846912417e-21
1.2619875648066055 5.720197546592704e-23 1.916176616026357e-15 1.916175267864114e-15 1.3481622431533907e-21
1.3004222497298317 5.94584339808988e-23 2.0524249766988654e-15 2.0524225832764938e-15 2.3934223712318512e-21
1.3400274889804893 6.165251287820943e-23 2.192976223823514e-15 2.1929720522574594e-15 4.171566054228804e-21
1.3808389325824078 6.378512963241726e-23 2.337932127280098e-15 2.3379249858786244e-15 7.141401473179766e-21
1.4228933163050095 6.587125746051174e-23 2.4879275340469726e-15 2.4879155200899617e-15 1.2013957011554287e-20
1.466228494730424 6.795312067089248e-23 2.6447248409073975e-15 2.6447049697409216e-15 1.9871166475327124e-20
1.5108834753276823 7.001401014937471e-23 2.8079240559135247e-15 2.807891727370151e-15 3.2328543373821426e-20
1.5568984535646726 7.204175508435647e-23 2.977241094624609e-15 2.977189306660613e-15 5.178796399706193e-20
1.6043148490894465 7.404705019618446e-23 3.153310947277017e-15 3.153229109386784e-15 8.183789023264297e-20
1.6531753430134553 7.604185131289934e-23 3.3368834186032986e-15 3.3367559929321472e-15 1.2742567115040107e-19
1.7035239163302658 7.804366728495661e-23 3.529029891870827e-15 3.5288343502343526e-15 1.9554163647351217e-19
1.755405889504358 8.0115355079683e-23 3.733040881534466e-15 3.732744999682452e-15 2.958818520140667e-19
1.8088679632656115 8.225144663533008e-23 3.949297453229698e-15 3.9488558343108574e-15 4.416189188395403e-19
1.8639582606462262 8.444818084381721e-23 4.178264361950601e-15 4.177613933728563e-15 6.504282220382514e-19
1.9207263702978936 8.67170330133907e-23 4.4211916618096746e-15 4.420245998150511e-15 9.45663659162789e-19
1.979223391128241 8.907711023258598e-23 4.679833129603829e-15 4.6784753579705176e-15 1.3577716333105774e-18
2.039501978296691 9.154783619075165e-23 4.956118112825193e-15 4.954192256606907e-15 1.9258562182853434e-18
2.1016163906111602 9.418297548210772e-23 5.254063129958681e-15 5.2513634835998164e-15 2.699646358865206e-18
2.1656225393682647 9.701135462082497e-23 5.576667675372118e-15 5.5729263565366524e-15 3.7413188354663614e-18
2.231578038680979 1.0002767853013275e-22 5.925182091584906e-15 5.920054516550472e-15 5.1275750344345576e-18
2.299542257339062 1.0324319628874973e-22 6.301911053218794e-15 6.294959191872154e-15 6.951861346640214e-18
2.369576372248914 1.0668667628846326e-22 6.7104296716639046e-15 6.7011028891405694e-15 9.32678252333737e-18
2.4417434235010123 1.1039186266301576e-22 7.154948647178576e-15 7.14256255085363e-15 1.2386096324944987e-17
2.5161083711144245 1.1442304950222413e-22 7.642092563655659e-15 7.625805285446835e-15 1.6287278208822895e-17
2.5927381535095444 1.1888899126732646e-22 8.182193273978212e-15 8.160979899326124e-15 2.1213374652087655e-17
2.6717017477616296 1.2390628569287237e-22 8.78720475138754e-15 8.759831328053526e-15 2.7373423334013388e-17
2.753070231689431 1.296520513628211e-22 9.474714147755276e-15 9.439710613266303e-15 3.5003534488972535e-17
2.836916847834745 1.365597380927525e-22 1.0283447014691655e-14 1.0239078235504985e-14 4.4368779186674e-17
2.9233170693905177 1.4559378979539276e-22 1.129765234432925e-14 1.1241899701153917e-14 5.575264317533111e-17
2.967498994190263 1.518663288288597e-22 1.1962487804866827e-14 1.1900301189804087e-14 6.218661506273952e-17
3.0123486681368425 1.5884364768853457e-22 1.27011932265204e-14 1.2631922348745459e-14 6.927087777494096e-17
3.0578761833420214 1.7200072766716492e-22 1.396109922288728e-14 1.3884017445247144e-14 7.708177764013738e-17
3.1040917844459814 1.8820837704917875e-22 1.550754096727477e-14 1.5421933623404065e-14 8.560734387070379e-17
3.127460860933648 2.0428241722000128e-22 1.6958690118715495e-14 1.686850783335023e-14 9.018228536526358e-17
3.1510058709225794 2.252535588526523e-22 1.8840408138883094e-14 1.874544969067606e-14 9.4958448207031e-17
3.162844764501044 2.444862465756502e-22 2.052587799130679e-14 2.0428445006775968e-14 9.743298453081665e-17
3.1747281389236908 2.666047619511152e-22 2.246693747470754e-14 2.2366977632715338e-14 9.995984199220614e-17
3.1986289994194426 3.275446781205056e-22 2.7810183269153695e-14 2.7704996825932604e-14 1.0518644322108549e-16
3.2227097969389145 4.700007891759195e-22 4.0205847358762154e-14 4.0095114857643824e-14 1.1073250111832943e-16
3.2348180950136065 6.044827275561045e-22 5.1904282595514926e-14 5.179058841076906e-14 1.1369418474586488e-16
3.240889293275058 7.049816489900135e-22 6.064729586457821e-14 6.05320394296445e-14 1.1525643493372336e-16
3.2469718861334385 8.213350898879238e-22 7.078941753997168e-14 7.067254458881802e-14 1.1687295115361278e-16
3.2714166318528037 1.4382315001554427e-21 1.2489184655273506e-13 1.24768286946363e-13 1.235596063720446e-16
3.2744851364798273 1.4768574952819224e-21 1.2836630725470458e-13 1.2824195783084917e-13 1.2434942385538735e-16
3.2775565192852394 1.516564964374752e-21 1.3194126430206836e-13 1.3181612094350342e-13 1.2514335856494865e-16
3.283707930232385 1.478683744645474e-21 1.2888704107668754e-13 1.2876047424279309e-13 1.265668338944567e-16
3.2898708863219004 1.3579972576090127e-21 1.1858975723136848e-13 1.1846189157521672e-13 1.2786565615170284e-16
3.29141343181113 1.3295114509998754e-21 1.1615661631677416e-13 1.1602842443020745e-13 1.281918865667329e-16
3.292184975758714 1.3155108058331911e-21 1.1496035109613649e-13 1.1483199586526518e-13 1.283552308713141e-16
3.295272960557952 1.2274958169542153e-21 1.0736947971184921e-13 1.0724048846547936e-13 1.289912463698386e-16
3.3076538914384823 9.216551206357973e-22 8.092038355826526e-14 8.078883602727831e-14 1.315475309869568e-16
3.310756385682612 8.591521372054857e-22 7.550343900888585e-14 7.537124678529895e-14 1.3219222358688324e-16
3.313861789986515 8.013832613514548e-22 7.049269129750697e-14 7.035985212654236e-14 1.3283917096463643e-16
3.3200813396944477 7.20522032858209e-22 6.349878601882142e-14 6.33645568866285e-14 1.342291321929338e-16
3.345076488085796 5.7762585534786175e-22 5.1288749500394345e-14 5.1148330113463227e-14 1.404193869311065e-16
3.3482140837626964 5.832222688626046e-22 5.183424175840751e-14 5.169298395810597e-14 1.4125780030154085e-16
3.3513546224236106 5.888763486607043e-22 5.238584214222667e-14 5.224374196008789e-14 1.421001821387811e-16
3.3576445397418455 6.292887088492608e-22 5.608595118808587e-14 5.5942090379609645e-14 1.4386080847623878e-16
3.3702598118196083 7.771705314386718e-22 6.952630344422861e-14 6.937874925701795e-14 1.4755418721066743e-16
3.382922481734668 8.116996024337946e-22 7.288813072290829e-14 7.273697976869267e-14 1.5115095421561374e-16
3.389271646505754 8.295553831155227e-22 7.463133277925009e-14 7.447835739316256e-14 1.5297538608751232e-16
3.395632727569191 8.489518009441153e-22 7.651968573819513e-14 7.636483011529561e-14 1.5485562289953948e-16
3.421196662673239 9.42441101786373e-22 8.558579538157654e-14 8.542314875140762e-14 1.6264663016890102e-16
3.4276182099114902 9.246761990566067e-22 8.413012876596644e-14 8.396573593878656e-14 1.6439282717987088e-16
3.4340518103208963 8.451730152988559e-22 7.704099775119182e-14 7.687494968235773e-14 1.660480688340686e-16
3.4469541582030403 7.316541796958042e-22 6.694386745506766e-14 6.677463493240074e-14 1.692325226669278e-16
3.472904465399547 7.004229152542108e-22 6.456878523265846e-14 6.439222773389563e-14 1.7655749876283145e-16
3.4990501388274233 6.525498949949051e-22 6.060847027924249e-14 6.042439991494142e-14 1.8407036430107282e-16
3.5253949054701885 4.809180682325172e-22 4.500370814645173e-14 4.481231186783349e-14 1.9139627861824543e-16
3.5519380250092896 3.186369979493759e-22 3.00421502796335e-14 2.984336867264453e-14 1.987816069889761e-16
3.578680990867387 2.5490470211903626e-22 2.4214207865932144e-14 2.40073280526458e-14 2.0687981328634333e-16
3.605625307711299 2.298533761878362e-22 2.1998897371178706e-14 2.1783474945449147e-14 2.1542242572955692e-16
3.660119384959845 2.1305518331185566e-22 2.0699353851837788e-14 2.0465923391329493e-14 2.334304605082963e-16
3.715437065384467 2.0160532722896004e-22 1.9882974069233053e-14 1.9630470901566518e-14 2.5250316766653153e-16
3.8285932144167436 1.9900144897580532e-22 2.0223899431049707e-14 1.9930092780567906e-14 2.938066504818017e-16
3.94519561050918 2.0183505525575274e-22 2.1136572916707358e-14 2.0797253159192506e-14 3.3931975751485282e-16
4.06534921144712 2.06826865014329e-22 2.231897467622833e-14 2.1929865369393705e-14 3.891093068346265e-16
4.189162171576248 2.130121938524384e-22 2.368650975737459e-14 2.3243121705524415e-14 4.4338805185017893e-16
4.316745939156006 2.2001310208060016e-22 2.5210094091988252e-14 2.4707998916697478e-14 5.020951752907722e-16
4.448215356677963 2.276876396200793e-22 2.688404991297762e-14 2.6319467449805266e-14 5.645824631723481e-16
4.58368876423945 2.3603281734388363e-22 2.871818205732812e-14 2.8087123840108844e-14 6.31058217219265e-16
4.723288106065518 2.451483592968384e-22 3.073568248459341e-14 3.0033617082749563e-14 7.020654018438455e-16
4.867139040275056 2.5522697924462033e-22 3.297385823291387e-14 3.219785386526392e-14 7.760043676499423e-16
4.940699165968905 2.6091988390865324e-22 3.421881931842478e-14 3.3404492547085754e-14 8.143267713390306e-16
5.015371051989984 2.666773412900479e-22 3.5502474049343593e-14 3.46490109536505e-14 8.534630956930937e-16
5.091171501069577 2.7337683080374847e-22 3.694442099048129e-14 3.605020680798193e-14 8.94214182499353e-16
5.129500256944802 2.7675627548992605e-22 3.768269596337435e-14 3.676782154690345e-14 9.14874416470903e-16
5.168117569889187 2.8023175802536284e-22 3.844316797827256e-14 3.750726655389314e-14 9.359014243794209e-16
5.20702561229733 2.843893535268635e-22 3.9307233709753667e-14 3.8348506581009164e-14 9.587271287445068e-16
5.246226572918644 2.886019522148055e-22 4.018979032488057e-14 3.920798031515598e-14 9.818100097245853e-16
5.265937586045735 2.9072948729234145e-22 4.063817749191832e-14 3.9644731299207774e-14 9.934461927105485e-16
5.285722656980489 2.9287151842139744e-22 4.1091400537412525e-14 4.008625592962993e-14 1.0051446077825956e-15
5.305582063971359 2.9502830867518647e-22 4.154953416111857e-14 4.053262961779752e-14 1.0169045433210553e-15
5.3255160863122235 2.9732674056693827e-22 4.203055297647799e-14 4.100174514464804e-14 1.0288078318299562e-15
5.365609099470188 3.029641153773582e-22 4.3149886170406305e-14 4.209644895956032e-14 1.0534372108459706e-15
5.406003951863644 3.08743609008375e-22 4.4304084666690636e-14 4.32257431903632e-14 1.0783414763274322e-15
5.446702915881641 3.1467256395774804e-22 4.5494825088731327e-14 4.4391309882974313e-14 1.103515205757016e-15
5.487708281020852 3.21005562411806e-22 4.675983907198334e-14 4.5630790108779514e-14 1.1290489632038565e-15
5.529022354014368 3.29730830044843e-22 4.839241932440487e-14 4.7236730826390374e-14 1.1556884980144838e-15
5.570647458961463 3.3885222325882e-22 5.010550542415372e-14 4.892287954885795e-14 1.1826258752957708e-15
5.612585937458331 3.483988930821236e-22 5.190500095334656e-14 5.0695145148572805e-14 1.2098558047737548e-15
5.654840148729818 3.5878427781024317e-22 5.3854645256739586e-14 5.2617151974879856e-14 1.237493281859729e-15
5.67608639626678 3.6586738900036545e-22 5.512417863218634e-14 5.387223541533471e-14 1.2519432168516254e-15
5.686739436050992 3.6950048397759183e-22 5.577605249142042e-14 5.4516853091314344e-14 1.2591994001060763e-15
5.6974124697621304 3.731965514143432e-22 5.643970261278346e-14 5.517322632164977e-14 1.2664762911336745e-15
5.718818669136295 3.8078366714542915e-22 5.780349143033429e-14 5.652239954623434e-14 1.281091884099962e-15
5.740305295436557 3.891226048229747e-22 5.929128793789129e-14 5.799539827762439e-14 1.2958896602668899e-15
5.7835210386641895 4.107529326335064e-22 6.305832428905319e-14 6.173180968478428e-14 1.32651460426891e-15
5.827062130521658 4.354017260473969e-22 6.734560025449107e-14 6.598785269779585e-14 1.357747556695216e-15
5.8489554468988025 4.527897106956713e-22 7.029821466548708e-14 6.892364461821793e-14 1.374570047269125e-15
5.870931020387893 4.713128801923941e-22 7.3448971578728e-14 7.205746220488292e-14 1.391509373845105e-15
5.892989160043636 4.9106090200175855e-22 7.681400909383598e-14 7.540544392868933e-14 1.4085651651466477e-15
5.915130176081913 5.134616183657442e-22 8.061980160678714e-14 7.919356753559418e-14 1.4262340711929728e-15
5.95966208400165 5.762482239487407e-22 9.115923429902324e-14 8.969299278758104e-14 1.4662415114421995e-15
6.004529249263818 6.664241705562713e-22 1.0621824901084248e-13 1.0470711629545978e-13 1.511132715382743e-15
6.027089341400364 7.291025944541525e-22 1.1664488677436627e-13 1.1510794339897434e-13 1.5369433753919318e-15
6.049734195844842 8.0283168338601285e-22 1.2892294872312958e-13 1.2735868784523542e-13 1.5642608778941494e-15
6.095279466722835 1.015716357243886e-21 1.6433705584861106e-13 1.627060898963069e-13 1.6309659523041293e-15
6.141167624020661 1.3420955464404907e-21 2.1877808670097986e-13 2.170610902037384e-13 1.7169964972415054e-15
6.164241091010745 1.5505696439627607e-21 2.5371160143605153e-13 2.519408742111808e-13 1.7707272248707142e-15
6.187401249150058 1.7867067907264878e-21 2.934478971766575e-13 2.9162191894876626e-13 1.8259782278911986e-15
6.1990139391386085 1.9018853394823094e-21 3.129510238174819e-13 3.1109691601387015e-13 1.8541078036116984e-15
6.204828454712694 1.9624403596620946e-21 3.2321810454851076e-13 3.213497805753757e-13 1.8683239731349285e-15
6.210648424152782 2.0065794710275233e-21 3.3079789930254787e-13 3.2891740077987677e-13 1.8804985226709998e-15
6.233982942956859 2.1559358425284954e-21 3.56755662822334e-13 3.5483245122200973e-13 1.92321160032429e-15
6.239830258556775 2.174698657272913e-21 3.6019799840904827e-13 3.5826865983331135e-13 1.929338575737001e-15
6.245683058788269 2.175821924216146e-21 3.607220774495996e-13 3.587865990637524e-13 1.9354783858472208e-15
6.257405133728602 2.1705625752563047e-21 3.6052552492212024e-13 3.585791819905749e-13 1.9463429315453504e-15
6.269149208991335 2.139762259997736e-21 3.5607670528099346e-13 3.541258026708477e-13 1.950902610145722e-15
6.280915325867298 2.0642278727191634e-21 3.4415177166676053e-13 3.4220411560619663e-13 1.947656060563833e-15
6.304513850009849 1.8786424668140515e-21 3.143874285669273e-13 3.124533406242028e-13 1.934087942724509e-15
6.32820103803542 1.6498042741703758e-21 2.771290959950769e-13 2.752161043032828e-13 1.912991691794096e-15
6.3519772230701035 1.4402560200239724e-21 2.4283879230520765e-13 2.409445098372459e-13 1.8942824679618083e-15
6.375842739491607 1.2636334287026928e-21 2.1385929758982666e-13 2.1198128623904894e-13 1.8780113507777672e-15
6.399797922933955 1.1226750828051778e-21 1.9071716308264067e-13 1.888464510775537e-13 1.870712005086933e-15
6.42384311029221 1.005171342922711e-21 1.713974898001529e-13 1.6953229341844443e-13 1.865196381708457e-15
6.447978639727206 9.197209283809531e-22 1.5741607958798492e-13 1.5554937579168477e-13 1.866703796300177e-15
6.472204850670314 8.483561830721142e-22 1.4574709830810235e-13 1.4387748150047828e-13 1.869616807624019e-15
6.496522083828205 8.019861715556441e-22 1.382984243173939e-13 1.3642017948019893e-13 1.8782448371949576e-15
6.520930681187647 7.628235450212701e-22 1.3203926738341172e-13 1.3015150268406855e-13 1.887764699343191e-15
