Dust emission spectrum from A.P. Jones, M. Kohler, N. Ysard, M. Bocchio, and L. Verstraete (2017), A&A, 602A, 46J 
inside the DustPedia framework.

lambda    nu*dP/dnu     j_nu    j_nu(carb.) j_nu(sil)
 (um)   (erg s-1 H-1) (Jy cm2 sr-1 H-1)
0.9927057738263894 5.041139138264115e-23 1.3283687960312768e-15 1.3283687939331374e-15 2.0981391896974575e-24
1.0001793341362166 5.1246073532138253e-23 1.3605293195412282e-15 1.3605293170147164e-15 2.526511601435083e-24
1.0077091589558085 5.208010002656204e-23 1.3930812552313198e-15 1.3930812521929467e-15 3.0383731779597437e-24
1.0114953028030835 5.2496772266292756e-23 1.409502677704398e-15 1.409502674374064e-15 3.330334322547973e-24
1.0152956718711033 5.2913166784339555e-23 1.4260203466898702e-15 1.4260203430407162e-15 3.649154229503848e-24
1.0229392996569957 5.374456422675956e-23 1.4593311163443387e-15 1.4593311119673122e-15 4.377026491940461e-24
1.0267826658714554 5.415856642871686e-23 1.4760977609277845e-15 1.4760977561362534e-15 4.791530983083824e-24
1.0306404723013447 5.457212059066742e-23 1.492957538330902e-15 1.4929575330873341e-15 5.2435678499805745e-24
1.03451277320114 5.498519002972376e-23 1.5099098583266376e-15 1.5099098525902707e-15 5.736366862250132e-24
1.0383996230291617 5.539773830077395e-23 1.526954123749568e-15 1.5269541174761483e-15 6.273420087488214e-24
1.0403485208654093 5.56038056761602e-23 1.535510547535248e-15 1.5355105409755382e-15 6.5597099002343435e-24
1.0423010764483396 5.580972920436985e-23 1.5440897307008973e-15 1.5440897238423958e-15 6.858501824309444e-24
1.0462171883269815 5.622112679446779e-23 1.5613160687546218e-15 1.5613160612589323e-15 7.495689937182363e-24
1.0471985131304309 5.632387929907498e-23 1.5656367578637792e-15 1.5656367502001422e-15 7.66363719697914e-24
1.048180758391296 5.642659193497818e-23 1.569963069452957e-15 1.5699630616177703e-15 7.835186808915758e-24
1.0501480137395462 5.66318953860208e-23 1.5786325211647862e-15 1.5786325129753975e-15 8.189388682878244e-24
1.0521189612883777 5.683703272896674e-23 1.5873243458435482e-15 1.587324337284647e-15 8.558901094921853e-24
1.0531058218030118 5.693938279122586e-23 1.5916742923156098e-15 1.5916742835660034e-15 8.749606920447957e-24
1.0540936079674168 5.704118203845621e-23 1.5960155907056829e-15 1.5960155817612624e-15 8.944420627676637e-24
1.058054026499678 5.744791537963055e-23 1.6134352880419042e-15 1.6134352782758748e-15 9.766028928996436e-24
1.0590464539527713 5.754948009763535e-23 1.6178037881841715e-15 1.6178037782017195e-15 9.982452176238801e-24
1.06003981227728 5.765099629061486e-23 1.6221776985223415e-15 1.6221776883188791e-15 1.0203462835726751e-23
1.0620293250338977 5.785388095459112e-23 1.6309417093676707e-15 1.630941698708053e-15 1.065961801702163e-23
1.0660195594769086 5.825904443231467e-23 1.6485342076828639e-15 1.6485341960516983e-15 1.1631165549674898e-23
1.070024785945596 5.866337178542149e-23 1.6662121309203424e-15 1.6662121182332264e-15 1.2687116323332474e-23
1.0740450607676866 5.906682929676421e-23 1.6839748221597625e-15 1.6839748083253465e-15 1.3834416313455152e-23
1.07808044048254 5.946938356586428e-23 1.7018216198420687e-15 1.7018216047615197e-15 1.5080549000286716e-23
1.0861967418109137 6.027095050528954e-23 1.7377446869917364e-15 1.7377446690895654e-15 1.7902171221244668e-23
1.0902777775684922 6.066830645328127e-23 1.7557733998339352e-15 1.7557733803382524e-15 1.9495682774222247e-23
1.0943741465085532 6.106460101725617e-23 1.7738822237602198e-15 1.773882202536068e-15 2.1224151690147265e-23
1.1026131145906286 6.185388021795945e-23 1.8103374504149304e-15 1.810337425284932e-15 2.5129997938449106e-23
1.1109141095355224 6.263854016515637e-23 1.8471048276087578e-15 1.8471047978925146e-15 2.9716243847537107e-23
1.1192775983109025 6.341762458059853e-23 1.884157552358945e-15 1.8841575172646314e-15 3.5094313752720276e-23
1.1277040513999907 6.418761633399126e-23 1.9213913083980038e-15 1.92139126700536e-15 4.1392643481979647e-23
1.1361939428280308 6.495217844801453e-23 1.9589151466997168e-15 1.9589150979406518e-15 4.8759064911994733e-23
1.1447477501889525 6.571108921980417e-23 1.996723355113543e-15 1.9967232977500255e-15 5.736351741618006e-23
1.1533659546722406 6.646452815243992e-23 2.0348222913088687e-15 2.034822223907684e-15 6.740118580290178e-23
1.1707974979042381 6.795740343658771e-23 2.1119712182571606e-15 2.1119711255526713e-15 9.270449010449311e-23
1.1884924949847024 6.942563582366043e-23 2.1902099243822736e-15 2.1902097975091585e-15 1.268731152543623e-22
1.2064549276569216 7.088049411357205e-23 2.269902854704951e-15 2.26990268192055e-15 1.727844008992976e-22
1.2246888378427687 7.230699440005315e-23 2.350582519521376e-15 2.350582285357068e-15 2.3416430847272064e-22
1.2431983285522175 7.370211397460747e-23 2.432146860231224e-15 2.4321465444102647e-15 3.158209589135096e-22
1.2619875648066055 7.506571249106995e-23 2.514583836819153e-15 2.5145834128919165e-15 4.239272366868793e-22
1.3004222497298317 7.767787745904432e-23 2.681335601356623e-15 2.6813348482241045e-15 7.531325185631256e-22
1.3400274889804893 8.013623870540132e-23 2.8504412544343094e-15 2.8504399408332074e-15 1.3136011020975503e-21
1.3808389325824078 8.243495092733055e-23 3.0215086383678893e-15 3.0215063879187896e-15 2.2504490992593872e-21
1.4228933163050095 8.458696355694395e-23 3.194811269253609e-15 3.1948074804510135e-15 3.788802594972356e-21
1.466228494730424 8.664149903481789e-23 3.3720736073419187e-15 3.3720673357457347e-15 6.2715961842273166e-21
1.5108834753276823 8.856710795827516e-23 3.5519992708338247e-15 3.5519890593631003e-15 1.0211470723944628e-20
1.5568984535646726 9.033890145597149e-23 3.733400019794422e-15 3.733383648375499e-15 1.6371418923048582e-20
1.6043148490894465 9.196286396166986e-23 3.9162600657956146e-15 3.9162341733311444e-15 2.589246447024044e-20
1.6531753430134553 9.344633379217784e-23 4.100630328913255e-15 4.100589978729847e-15 4.0350183407809683e-20
1.7035239163302658 9.480513800754052e-23 4.2869611023012496e-15 4.2868991288035714e-15 6.197349767796499e-20
1.755405889504358 9.61154238363766e-23 4.478577248647773e-15 4.478483390486253e-15 9.385816152042769e-20
1.8088679632656115 9.736255901026236e-23 4.674856456250974e-15 4.6747162403119655e-15 1.4021593900775694e-19
1.8639582606462262 9.85368381732073e-23 4.875332483950703e-15 4.875125777327593e-15 2.0670662310859586e-19
1.9207263702978936 9.964942865547156e-23 5.080538479765987e-15 5.080237659783042e-15 3.008199829427062e-19
1.979223391128241 1.0072286368208795e-22 5.291664639066518e-15 5.291232302778366e-15 4.3233628815167112e-19
2.039501978296691 1.0178280678376437e-22 5.51020792260038e-15 5.509594083935194e-15 6.138386651864165e-19
2.1016163906111602 1.0289966800297918e-22 5.7403299160170365e-15 5.739468558247525e-15 8.613577695104867e-19
2.1656225393682647 1.0411381368931135e-22 5.984950335249328e-15 5.983755359387539e-15 1.194975861789789e-18
2.231578038680979 1.054262926400606e-22 6.244971295069078e-15 6.243331777554295e-15 1.6395175147844023e-18
2.299542257339062 1.068594854827389e-22 6.522647466488087e-15 6.520422173375288e-15 2.2252931127995243e-18
2.369576372248914 1.0846325200631364e-22 6.822173582204215e-15 6.819184670177245e-15 2.9889120269685095e-18
2.4417434235010123 1.1029621953503951e-22 7.14874962441895e-15 7.144775654097785e-15 3.973970321162942e-18
2.5161083711144245 1.1246052544125092e-22 7.511019404903086e-15 7.505787474211801e-15 5.231930691283553e-18
2.5927381535095444 1.1512404704415273e-22 7.923081803930592e-15 7.916259018387563e-15 6.82278554303058e-18
2.6717017477616296 1.1848221856703486e-22 8.402539936737657e-15 8.393724669434014e-15 8.815267303642343e-18
2.753070231689431 1.2282936904047829e-22 8.976126088055064e-15 8.964838804310036e-15 1.128728374502658e-17
2.836916847834745 1.2884299335391497e-22 9.70234795316711e-15 9.68802133189027e-15 1.432662127683875e-17
2.9233170693905177 1.3801800023215713e-22 1.0709793227264472e-14 1.0691765515999329e-14 1.8027711265145405e-17
2.967498994190263 1.4526903664967402e-22 1.1442820095459115e-14 1.142269673813228e-14 2.0123357326836675e-17
3.0123486681368425 1.5360448703787482e-22 1.2282268121631774e-14 1.225983541349594e-14 2.2432708135835277e-17
3.0578761833420214 1.71288717482048e-22 1.3903306183422008e-14 1.3878325283103298e-14 2.4980900318709472e-17
3.1040917844459814 1.937901112369718e-22 1.596745126958305e-14 1.5939686223633682e-14 2.7765045949367036e-17
3.127460860933648 2.1716705846734156e-22 1.8028320296280618e-14 1.7999060125056524e-14 2.926017122409603e-17
3.1510058709225794 2.4814066851388845e-22 2.0754706360555716e-14 2.0723884485648604e-14 3.082187490711081e-17
3.162844764501044 2.7685335729816095e-22 2.3243263426793045e-14 2.321163211564877e-14 3.163131114428447e-17
3.1747281389236908 3.1014982018807563e-22 2.613650471567706e-14 2.6104046632263213e-14 3.245808341384869e-17
3.1986289994194426 4.027327297238828e-22 3.419402533533807e-14 3.415985646001156e-14 3.416887532650355e-17
3.2227097969389145 6.204907924261445e-22 5.307939616770566e-14 5.304341107382316e-14 3.5985093882494196e-17
3.2348180950136065 8.267542938214214e-22 7.098976785830425e-14 7.095281264955201e-14 3.695520875223591e-17
3.240889293275058 9.809438886670359e-22 8.438743664855642e-14 8.434996970983551e-14 3.7466938720919565e-17
3.2469718861334385 1.1593526696200453e-21 9.992255440713381e-14 9.988455795657655e-14 3.799645055728244e-17
3.2714166318528037 2.109599835215636e-21 1.831915229773166e-13 1.8315133551623616e-13 4.018746108043937e-17
3.2744851364798273 2.169030790839614e-21 1.8852900420746566e-13 1.8848855775437265e-13 4.0446453093022254e-17
3.2775565192852394 2.2301581926754205e-21 1.940239280527781e-13 1.9398322123911224e-13 4.070681366583673e-17
3.283707930232385 2.1715098003392104e-21 1.892760868226442e-13 1.8923491281280864e-13 4.1174009835593934e-17
3.2898708863219004 1.9852749865847237e-21 1.733680074664594e-13 1.7332640681662715e-13 4.160064983224295e-17
3.29141343181113 1.941346703153182e-21 1.6961137413777696e-13 1.6956966631734486e-13 4.17078204320918e-17
3.292184975758714 1.9197604838423837e-21 1.677647483125227e-13 1.6772298683006698e-13 4.17614824557697e-17
3.295272960557952 1.7836379986372787e-21 1.5601542690642978e-13 1.55973456412802e-13 4.197049362779529e-17
3.3076538914384823 1.311714116390524e-21 1.1516716724135296e-13 1.151243564983777e-13 4.28107429752441e-17
3.310756385682612 1.2155681396034217e-21 1.0682575403725106e-13 1.0678273134490753e-13 4.3022692343543173e-17
3.313861789986515 1.1268204535635038e-21 9.911937297868375e-14 9.907613757984691e-14 4.323539883683698e-17
3.3200813396944477 1.0024221570059944e-21 8.834232285131963e-14 8.82986306148506e-14 4.369223646902887e-17
3.345076488085796 7.8103959938238125e-22 6.935033117325916e-14 6.930460477477936e-14 4.5726398479807073e-17
3.3482140837626964 7.894376593808881e-22 7.016176280329965e-14 7.011576090876457e-14 4.600189453508267e-17
3.3513546224236106 7.979269778931135e-22 7.098277388793006e-14 7.093649517251062e-14 4.62787154194387e-17
3.3576445397418455 8.595995069449692e-22 7.661261883433342e-14 7.656576160746312e-14 4.685722687029588e-17
3.3702598118196083 1.0866135545125573e-21 9.720932621801753e-14 9.716125536030071e-14 4.8070857716815484e-17
3.382922481734668 1.1386574799867064e-21 1.0224794369867605e-13 1.021986902762068e-13 4.925342246927368e-17
3.389271646505754 1.1656075258852744e-21 1.0486441885005287e-13 1.0481456544327158e-13 4.985340678128028e-17
3.395632727569191 1.1947062413648054e-21 1.0768402403649895e-13 1.0763355228553776e-13 5.047175096121944e-17
3.421196662673239 1.3345579891931391e-21 1.211950611782876e-13 1.2114202645075808e-13 5.3034727529525685e-17
3.4276182099114902 1.3068066318120521e-21 1.1889763175340087e-13 1.1884402184679046e-13 5.3609906610383723e-17
3.4340518103208963 1.1845232083481026e-21 1.079741640808444e-13 1.0792000859756423e-13 5.4155483280174285e-17
3.4469541582030403 1.010262361529342e-21 9.24355679252491e-14 9.238036209771037e-14 5.520582753869555e-17
3.472904465399547 9.616874223047375e-22 8.865356526664583e-14 8.859594438482381e-14 5.762088182202717e-17
3.4990501388274233 8.873261512630533e-22 8.241435801202802e-14 8.235425838846359e-14 6.009962356440898e-17
3.5253949054701885 6.220780209736033e-22 5.821327903754854e-14 5.815075962896414e-14 6.251940858440186e-17
3.5519380250092896 3.723972860915447e-22 3.511084809513336e-14 3.5045887041593356e-14 6.496105354001024e-17
3.578680990867387 2.7364897007420213e-22 2.599478545743205e-14 2.5927146632408103e-14 6.763882502394512e-17
3.605625307711299 2.3400386184669397e-22 2.2396133685754945e-14 2.2325668699782516e-14 7.046498597242778e-17
3.660119384959845 2.0568859011226702e-22 1.9983653266897635e-14 1.9907224333269213e-14 7.642893362842694e-17
3.715437065384467 1.8582731413662885e-22 1.8326895023650286e-14 1.8244140197681272e-14 8.275482596901403e-17
3.8285932144167436 1.7708137248419132e-22 1.7996230111208643e-14 1.7899742976962886e-14 9.648713424575596e-17
3.94519561050918 1.7680443941636303e-22 1.8515316484473832e-14 1.8403646686162798e-14 1.1166979831103742e-16
4.06534921144712 1.799862632039689e-22 1.9422568002662733e-14 1.9294228994283357e-14 1.2833900837937137e-16
4.189162171576248 1.8515637624550438e-22 2.0589001189375123e-14 2.0442420659184096e-14 1.4658053019102707e-16
4.316745939156006 1.9175958870381305e-22 2.1972679029329322e-14 2.180628779966442e-14 1.6639122966489855e-16
4.448215356677963 1.9960379068750737e-22 2.356807018868693e-14 2.3380497280195955e-14 1.8757290849097802e-16
4.58368876423945 2.0870395528115646e-22 2.5393071401238476e-14 2.5182857585963425e-14 2.1021381527504422e-16
4.723288106065518 2.1922865665113122e-22 2.748597788571867e-14 2.7251461196692864e-14 2.345166890258175e-16
4.867139040275056 2.3151417375197415e-22 2.991030010542545e-14 2.965033136084273e-14 2.599687445827167e-16
4.940699165968905 2.3875885792750937e-22 3.131247070060475e-14 3.1039252905864176e-14 2.7321779474057326e-16
5.015371051989984 2.4620630335266065e-22 3.277718629291305e-14 3.249039693840306e-14 2.8678935450997966e-16
5.091171501069577 2.551470800759291e-22 3.448083406740524e-14 3.417987684340025e-14 3.0095722400498397e-16
5.129500256944802 2.5971216212515323e-22 3.536199649322485e-14 3.50538388693414e-14 3.0815762388345953e-16
5.168117569889187 2.6445107247762514e-22 3.6278318606456995e-14 3.596282346089376e-14 3.1549514556323933e-16
5.20702561229733 2.7021417853763185e-22 3.7347993993961176e-14 3.702454606161848e-14 3.2344793234269974e-16
5.246226572918644 2.7610339415020093e-22 3.844928086496557e-14 3.811777789942904e-14 3.315029655365341e-16
5.265937586045735 2.790965560762113e-22 3.901212597607394e-14 3.867655757828734e-14 3.3556839778659646e-16
5.285722656980489 2.821227843480122e-22 3.9583297122439644e-14 3.924363825047378e-14 3.3965887196585423e-16
5.305582063971359 2.851826167137935e-22 4.016294208686399e-14 3.981916787981383e-14 3.437742070501638e-16
5.3255160863122235 2.8846106106121477e-22 4.077728725464193e-14 4.042934535418929e-14 3.479419004526361e-16
5.365609099470188 2.9658221759345105e-22 4.224093970133763e-14 4.188437318952241e-14 3.5656651181522355e-16
5.406003951863644 3.049822802085428e-22 4.3764341576486274e-14 4.3399039989254893e-14 3.6530158723137595e-16
5.446702915881641 3.136748368309892e-22 4.535057539454995e-14 4.497642958007917e-14 3.7414581447078905e-16
5.487708281020852 3.230352576626368e-22 4.705549819570989e-14 4.667236790064105e-14 3.83130295068813e-16
5.529022354014368 3.360016229922303e-22 4.931274224891033e-14 4.8920234606069777e-14 3.9250764284054e-16
5.570647458961463 3.496825171554612e-22 5.170696267405597e-14 5.1304956825908404e-14 4.020058481475703e-16
5.612585937458331 3.6412951264521316e-22 5.4248572760351227e-14 5.383694905566591e-14 4.1162370468532427e-16
5.654840148729818 3.7996291603963036e-22 5.703362527176605e-14 5.661222442899962e-14 4.2140084276642924e-16
5.67608639626678 3.9074563937239853e-22 5.88725124788054e-14 5.844600066078573e-14 4.265118180196711e-16
5.686739436050992 3.9629603087934607e-22 5.982083699194411e-14 5.939175698114333e-14 4.290800108007842e-16
5.6974124697621304 4.0195582068209736e-22 6.07890584647642e-14 6.035740181210919e-14 4.316566526550156e-16
5.718818669136295 4.136141203938648e-22 6.278719999437616e-14 6.235036477515794e-14 4.3683521921822887e-16
5.740305295436557 4.264540251676636e-22 6.497954137100747e-14 6.453745957710896e-14 4.4208179389851475e-16
5.7835210386641895 4.597566445993478e-22 7.058131856373195e-14 7.012837324619466e-14 4.529453175373001e-16
5.827062130521658 4.980058651249768e-22 7.702887221317021e-14 7.656483112618582e-14 4.640410869843941e-16
5.8489554468988025 5.248760116055155e-22 8.149002873744403e-14 8.102001712933767e-14 4.700116081063701e-16
5.870931020387893 5.536530066771329e-22 8.628078217447851e-14 8.580475334036629e-14 4.760288341122071e-16
5.892989160043636 5.844895293185103e-22 9.142854549671148e-14 9.09464527453054e-14 4.820927514060813e-16
5.915130176081913 6.19534328406647e-22 9.727452424527747e-14 9.678615084089118e-14 4.883734043862983e-16
5.95966208400165 7.175815628205246e-22 1.1351737514358792e-13 1.1301481894996469e-13 5.025561936232014e-16
6.004529249263818 8.58765248446712e-22 1.3687459883880178e-13 1.363561475600199e-13 5.18451278781903e-16
6.027089341400364 9.5690526891027e-22 1.5308971274391992e-13 1.5256214205505246e-13 5.275706888674907e-16
6.049734195844842 1.0727370831758487e-21 1.7226578226756753e-13 1.7172856308375007e-13 5.372191838173861e-16
6.095279466722835 1.4073037037799027e-21 2.276936328874181e-13 2.271329234979995e-13 5.607093894186098e-16
6.141167624020661 1.9216957043919723e-21 3.132600436261185e-13 3.126691252710297e-13 5.909183550887421e-16
6.164241091010745 2.2502415426750222e-21 3.6819525497154786e-13 3.675855123639943e-13 6.097426075535991e-16
6.187401249150058 2.6239460375707473e-21 4.309556839581241e-13 4.3032657250453557e-13 6.291114535885024e-16
6.1990139391386085 2.8063855297901903e-21 4.617845285107819e-13 4.611455533126619e-13 6.389751981200392e-16
6.204828454712694 2.9024391492046908e-21 4.780379060971125e-13 4.77393944685478e-13 6.439614116345497e-16
6.210648424152782 2.9725443249131228e-21 4.900435953136907e-13 4.893953533201427e-13 6.482419935480898e-16
6.233982942956859 3.21050832878813e-21 5.312621109773562e-13 5.305988063916204e-13 6.633045857355752e-16
6.239830258556775 3.2408127751886715e-21 5.367797836897907e-13 5.361142854019698e-13 6.654982878207697e-16
6.245683058788269 3.243268570772524e-21 5.376904072687515e-13 5.370227102227828e-13 6.676970459687386e-16
6.257405133728602 3.236336576607276e-21 5.375481713390454e-13 5.368765646385121e-13 6.716067005333314e-16
6.269149208991335 3.1890516086204453e-21 5.306883904802684e-13 5.300150532499538e-13 6.733372303145529e-16
6.280915325867298 3.0710530911287357e-21 5.120114771061554e-13 5.113391089428165e-13 6.723681633389806e-16
6.304513850009849 2.7802894054340743e-21 4.652764175658376e-13 4.646084358043814e-13 6.679817614562783e-16
6.32820103803542 2.4203138163072305e-21 4.0655694159533353e-13 4.058959512870471e-13 6.609903082864127e-16
6.3519772230701035 2.090296183015404e-21 3.524408116240314e-13 3.517859872686796e-13 6.548243553517389e-16
6.375842739491607 1.8125003118458243e-21 3.0675038723108113e-13 3.061008870494839e-13 6.495001815971618e-16
6.399797922933955 1.5901085319690493e-21 2.701235583254372e-13 2.6947627023020815e-13 6.472880952290418e-16
6.42384311029221 1.405068571536036e-21 2.3958624353348734e-13 2.389405487867242e-13 6.456947467630883e-16
6.447978639727206 1.270308659772255e-21 2.1742139698835736e-13 2.1677485549058478e-13 6.465414977725855e-16
6.472204850670314 1.1579674490143034e-21 1.989381335300811e-13 1.9829025458345614e-13 6.478789466249314e-16
6.496522083828205 1.0849745271222019e-21 1.8709832269857182e-13 1.8644711698210271e-13 6.512057164690872e-16
