Dust emission spectrum from A.P. Jones, M. Kohler, N. Ysard, M. Bocchio, and L. Verstraete (2017), A&A, 602A, 46J 
inside the DustPedia framework.

lambda    nu*dP/dnu     j_nu    j_nu(carb.) j_nu(sil)
 (um)   (erg s-1 H-1) (Jy cm2 sr-1 H-1)
0.9927057738263894 6.309479374927998e-21 1.6625836524209344e-13 1.662583652420933e-13 1.5879542575828521e-28
1.0001793341362166 6.413751390222084e-21 1.702783494070626e-13 1.702783494070624e-13 1.913630172167573e-28
1.0077091589558085 6.5178756563500786e-21 1.7434548697408146e-13 1.7434548697408123e-13 2.303195894855805e-28
1.0114953028030835 6.569869561261327e-21 1.7639653523445863e-13 1.7639653523445833e-13 2.5255811575540444e-28
1.0152956718711033 6.621811182690648e-21 1.7845912562636728e-13 1.7845912562636697e-13 2.7685609806998817e-28
1.0229392996569957 6.725466337091389e-21 1.8261720862101792e-13 1.826172086210176e-13 3.323771384389394e-28
1.0267826658714554 6.777054196852883e-21 1.8470936705511669e-13 1.8470936705511633e-13 3.640218151313936e-28
1.0306404723013447 6.828566966305812e-21 1.8681261453649798e-13 1.868126145364976e-13 3.985523395487699e-28
1.03451277320114 6.879999674682346e-21 1.8892686064140762e-13 1.8892686064140717e-13 4.362192936720028e-28
1.0383996230291617 6.931347378733659e-21 1.910520138138971e-13 1.910520138138966e-13 4.772938375471963e-28
1.0403485208654093 6.956987817130556e-21 1.921186516349952e-13 1.9211865163499467e-13 4.991997078346341e-28
1.0423010764483396 6.982605163677964e-21 1.9318798138748185e-13 1.9318798138748127e-13 5.220692946885167e-28
1.0462171883269815 7.033768144127676e-21 1.953346696068273e-13 1.9533466960682672e-13 5.708628509039836e-28
1.0471985131304309 7.046543506403772e-21 1.958730056736922e-13 1.9587300567369164e-13 5.837286561844849e-28
1.048180758391296 7.059312564244354e-21 1.9641200436772716e-13 1.9641200436772658e-13 5.968725067833523e-28
1.0501480137395462 7.084831464995571e-21 1.9749198364945318e-13 1.9749198364945252e-13 6.240173739746704e-28
1.0521189612883777 7.110324244375103e-21 1.9857459543601705e-13 1.9857459543601642e-13 6.523446433932702e-28
1.0531058218030118 7.123041085364011e-21 1.991163378123033e-13 1.9911633781230266e-13 6.669678609828688e-28
1.0540936079674168 7.135687067980126e-21 1.9965693914293635e-13 1.9965693914293567e-13 6.8190837149862805e-28
1.058054026499678 7.186199304052941e-21 2.0182573148985435e-13 2.0182573148985362e-13 7.44944324104321e-28
1.0590464539527713 7.198809070057084e-21 2.023695186158851e-13 2.0236951861588428e-13 7.615555699445642e-28
1.06003981227728 7.21141137155934e-21 2.0291393825779116e-13 2.029139382577904e-13 7.785216906491624e-28
1.0620293250338977 7.236593287552075e-21 2.0400466885985428e-13 2.0400466885985352e-13 8.135475856817594e-28
1.0660195594769086 7.286864324652544e-21 2.0619365152632917e-13 2.0619365152632826e-13 8.881851260486453e-28
1.070024785945596 7.33700775695081e-21 2.083925788310406e-13 2.0839257883103958e-13 9.693608551757677e-28
1.0740450607676866 7.387018962230981e-21 2.1060134920590992e-13 2.1060134920590884e-13 1.0576183557464413e-27
1.07808044048254 7.436893355210097e-21 2.1281986019476963e-13 2.1281986019476847e-13 1.1535438026419594e-27
1.0861967418109137 7.536125445414161e-21 2.1728314956842044e-13 2.1728314956841906e-13 1.370975310204799e-27
1.0902777775684922 7.585273806103046e-21 2.1952190126600325e-13 2.1952190126600171e-13 1.4938963170860944e-27
1.0943741465085532 7.634263892259808e-21 2.21769810731217e-13 2.2176981073121541e-13 1.62732160573011e-27
1.1026131145906286 7.731751823616805e-21 2.2629267289755807e-13 2.2629267289755613e-13 1.9291511021601137e-27
1.1109141095355224 7.828554825108187e-21 2.308508686909158e-13 2.3085086869091355e-13 2.2840711463178747e-27
1.1192775983109025 7.924549324606233e-21 2.3544085035890333e-13 2.354408503589006e-13 2.7008792514378804e-27
1.1277040513999907 8.019289597785212e-21 2.400493150039512e-13 2.4004931500394804e-13 3.1897358642027613e-27
1.1361939428280308 8.113233058234506e-21 2.446897934177951e-13 2.4468979341779133e-13 3.762357885834426e-27
1.1447477501889525 8.206348368507811e-21 2.4936137328034234e-13 2.493613732803379e-13 4.432241238468779e-27
1.1533659546722406 8.298655639773328e-21 2.5406468612817403e-13 2.5406468612816883e-13 5.2149175991486975e-27
1.1707974979042381 8.481143939686971e-21 2.6357587242468693e-13 2.635758724246797e-13 7.192710351795716e-27
1.1884924949847024 8.660006891785623e-21 2.732021509717838e-13 2.7320215097177396e-13 9.872059339896143e-27
1.2064549276569216 8.836642253181667e-21 2.8298786185609747e-13 2.8298786185608393e-13 1.3484100787636508e-26
1.2246888378427687 9.009121636876731e-21 2.9287185854690553e-13 2.9287185854688715e-13 1.832942001660387e-26
1.2431983285522175 9.177041433141804e-21 3.0283951577722115e-13 3.0283951577719636e-13 2.47976104525283e-26
1.2619875648066055 9.3403386043239e-21 3.1288671892170396e-13 3.1288671892167054e-13 3.3391048831235297e-26
1.3004222497298317 9.650350895368718e-21 3.3311710190560935e-13 3.331171019055497e-13 5.970822842285781e-26
1.3400274889804893 9.937943422066587e-21 3.5349205767731344e-13 3.534920576772086e-13 1.0484764805878459e-25
1.3808389325824078 1.0202047654895927e-20 3.7393817514955266e-13 3.739381751493717e-13 1.8088504086231075e-25
1.4228933163050095 1.044394490583722e-20 3.9446306472711117e-13 3.944630647268044e-13 3.067459702588403e-25
1.466228494730424 1.0669448732353343e-20 4.1525327788705703e-13 4.1525327788654544e-13 5.115693625705754e-25
1.5108834753276823 1.0874176655098741e-20 4.3611074630579086e-13 4.3611074630495156e-13 8.394073179802306e-25
1.5568984535646726 1.1054581700708695e-20 4.568483219862847e-13 4.568483219849281e-13 1.356543818322019e-24
1.6043148490894465 1.1210989934415701e-20 4.77422627860834e-13 4.77422627858671e-13 2.163099751571145e-24
1.6531753430134553 1.1343873234347931e-20 4.977940679360098e-13 4.977940679326104e-13 3.399551391383296e-24
1.7035239163302658 1.1454805134938057e-20 5.179709146566961e-13 5.17970914651429e-13 5.267244914654267e-24
1.755405889504358 1.155289189757255e-20 5.38316502631636e-13 5.38316502623586e-13 8.049900910004448e-24
1.8088679632656115 1.1635882081004002e-20 5.586960636975764e-13 5.586960636854366e-13 1.2139773239999633e-23
1.8639582606462262 1.1702249758129098e-20 5.789952208617132e-13 5.789952208436401e-13 1.8073108027071375e-23
1.9207263702978936 1.1753097411965928e-20 5.99221334869663e-13 5.992213348430899e-13 2.657312452369215e-23
1.979223391128241 1.179099442501191e-20 6.194620166400392e-13 6.19462016601435e-13 3.8604085985052885e-23
2.039501978296691 1.1819016445689589e-20 6.39845177336682e-13 6.398451772812458e-13 5.543601009461067e-23
2.1016163906111602 1.1845782410089223e-20 6.608252530542162e-13 6.608252529754867e-13 7.872939552307173e-23
2.1656225393682647 1.1876289511405415e-20 6.827048244041135e-13 6.827048242934856e-13 1.1062793530701015e-22
2.231578038680979 1.1910894192024583e-20 7.055468846064107e-13 7.05546884452536e-13 1.5387450412109746e-22
2.299542257339062 1.1952588126501916e-20 7.295797683201147e-13 7.295797681081606e-13 2.119540307535097e-22
2.369576372248914 1.2007988290536219e-20 7.55284199724577e-13 7.552841994353037e-13 2.892734587534936e-22
2.4417434235010123 1.2084908329148386e-20 7.832723935899861e-13 7.832723931986145e-13 3.913714646573869e-22
2.5161083711144245 1.2196730775871793e-20 8.145958875304069e-13 8.145958870052016e-13 5.252050050722984e-22
2.5927381535095444 1.2365355955458616e-20 8.510100998468594e-13 8.510100991473636e-13 6.99496032150339e-22
2.6717017477616296 1.2616930027452959e-20 8.947693562533798e-13 8.947693553282463e-13 9.251331983426167e-22
2.753070231689431 1.2990819166222741e-20 9.493432371594279e-13 9.493432359436925e-13 1.2157353049915134e-21
2.836916847834745 1.3576213565984853e-20 1.0223384638532249e-12 1.022338462264772e-12 1.5884528838942919e-21
2.9233170693905177 1.4569550731752324e-20 1.1305545326605294e-12 1.1305545305958611e-12 2.0646680373384923e-21
2.967498994190263 1.5413140387789237e-20 1.2140907424674035e-12 1.2140907401205538e-12 2.346849245964068e-21
3.0123486681368425 1.6398350453437892e-20 1.3112177964693442e-12 1.3112177938030008e-12 2.6663434879351546e-21
3.0578761833420214 1.8602862176684536e-20 1.5099727088420319e-12 1.5099727058128583e-12 3.0291740227416992e-21
3.1040917844459814 2.1443593080479795e-20 1.7668575830406227e-12 1.766857579601795e-12 3.4388282966739864e-21
3.127460860933648 2.4448774829239732e-20 2.0296372137833334e-12 2.0296372101183954e-12 3.664937900841501e-21
3.1510058709225794 2.845275429724223e-20 2.379813692471174e-12 2.379813688565354e-12 3.905820424251011e-21
3.162844764501044 3.217990289210044e-20 2.7016683751614323e-12 2.7016683711278343e-12 4.0335981890679994e-21
3.1747281389236908 3.651424597666765e-20 3.077076625676723e-12 3.0770766215112467e-12 4.165476281176579e-21
3.1986289994194426 4.860392732432035e-20 4.1267168016470816e-12 4.1267167972030796e-12 4.4440024965774355e-21
3.2227097969389145 7.710241969136603e-20 6.595665770131236e-12 6.595665765375094e-12 4.756142846731373e-21
3.2348180950136065 1.0412793641094155e-19 8.941009546149006e-12 8.941009541215713e-12 4.9332921971975264e-21
3.240889293275058 1.2433305261919507e-19 1.0695971219598814e-11 1.0695971214566945e-11 5.031868313187424e-21
3.2469718861334385 1.4770728038903632e-19 1.2730629037875347e-11 1.2730629032737869e-11 5.137478913155546e-21
3.2714166318528037 2.723894590882669e-19 2.3653509552083628e-11 2.36535095464891e-11 5.59452895305262e-21
3.2744851364798273 2.801837934861641e-19 2.4353168154228674e-11 2.4353168148582216e-11 5.646442201712449e-21
3.2775565192852394 2.8820200355727434e-19 2.5073595669812404e-11 2.5073595664113498e-11 5.6989090258244424e-21
3.283707930232385 2.804911975780496e-19 2.4448554760138386e-11 2.4448554754357918e-11 5.780473199432452e-21
3.2898708863219004 2.5603751754976286e-19 2.2358975232253886e-11 2.2358975226410178e-11 5.843708814828705e-21
3.29141343181113 2.5027072531958703e-19 2.1865626350495244e-11 2.1865626344635645e-11 5.859605189820918e-21
3.292184975758714 2.474371272625742e-19 2.1623128368230117e-11 2.1623128362362554e-11 5.867566539872492e-21
3.295272960557952 2.2955116774008036e-19 2.007891929819844e-11 2.007891929230266e-11 5.895786826436895e-21
3.3076538914384823 1.675885657716201e-19 1.4714105871688618e-11 1.471410586568076e-11 6.007854173497308e-21
3.310756385682612 1.549775601099077e-19 1.3619635278525435e-11 1.361963527248926e-11 6.0361722377219445e-21
3.313861789986515 1.4334193160430392e-19 1.2608896419336487e-11 1.260889641327187e-11 6.064611711266088e-21
3.3200813396944477 1.2702426061253946e-19 1.1194503396153503e-11 1.1194503390019878e-11 6.133624741443406e-21
3.345076488085796 9.791505328606885e-20 8.69410639051571e-12 8.694106384028995e-12 6.4867180109273564e-21
3.3482140837626964 9.900660839613785e-20 8.799273877682419e-12 8.799273871142795e-12 6.539623336482443e-21
3.3513546224236106 1.001102318869647e-19 8.905704595505682e-12 8.905704588912712e-12 6.5929701839093564e-21
3.3576445397418455 1.0817580216825251e-19 9.641270651805007e-12 9.641270645093701e-12 6.711307323515964e-21
3.3702598118196083 1.3792506268321412e-19 1.233888750635692e-11 1.2338887499382907e-11 6.974014628900583e-21
3.382922481734668 1.4470081839127174e-19 1.2993688964477567e-11 1.2993688957263328e-11 7.214235728631501e-21
3.389271646505754 1.4821113252109782e-19 1.333388291837679e-11 1.3333882911039194e-11 7.337596888224693e-21
3.395632727569191 1.5199368311913132e-19 1.3699845920030453e-11 1.3699845912563402e-11 7.467053935336003e-21
3.421196662673239 1.7015614093422558e-19 1.5452370056135747e-11 1.545237004811838e-11 8.017369790464143e-21
3.4276182099114902 1.6649606998914476e-19 1.5148368500784363e-11 1.5148368492652645e-11 8.131718783119935e-21
3.4340518103208963 1.5045756731518614e-19 1.3714826308173471e-11 1.3714826299940412e-11 8.233055819551116e-21
3.4469541582030403 1.276157287061912e-19 1.1676404871002104e-11 1.1676404862584657e-11 8.417448550251705e-21
3.472904465399547 1.2121401017512311e-19 1.1174165236079133e-11 1.117416522715822e-11 8.920910938489978e-21
3.4990501388274233 1.1142288104080638e-19 1.0348895043561396e-11 1.0348895034116798e-11 9.444597501317068e-21
3.5253949054701885 7.657855829808719e-20 7.166125200055713e-12 7.166125190136546e-12 9.919168734516789e-21
3.5519380250092896 4.3828618043048344e-20 4.1323071026645484e-12 4.132307092272563e-12 1.0391985746901681e-20
3.578680990867387 3.0842588414851135e-20 2.9298355063369497e-12 2.9298354953641198e-12 1.097282947197579e-20
3.605625307711299 2.5589520834815944e-20 2.449131929055153e-12 2.4491319174308846e-12 1.1624269203534742e-20
3.660119384959845 2.1756217172099485e-20 2.1137229835124007e-12 2.113722970432983e-12 1.307941750406334e-20
3.715437065384467 1.9040845058708215e-20 1.8778701622731542e-12 1.8778701475579516e-12 1.4715202466744992e-20
3.8285932144167436 1.7659161535500067e-20 1.794645761468981e-12 1.7946457428181976e-12 1.865078321993019e-20
3.94519561050918 1.738953015965688e-20 1.821066572113188e-12 1.821066548472723e-12 2.364046488180652e-20
4.06534921144712 1.7576352929144675e-20 1.896688691282219e-12 1.896688661310481e-12 2.997173813189604e-20
4.189162171576248 1.802732010354412e-20 2.0046002334857635e-12 2.004600195466863e-12 3.8018900172532103e-20
4.316745939156006 1.8670689452420282e-20 2.1393718528879887e-12 2.1393718046433697e-12 4.8244618861350016e-20
4.448215356677963 1.9482269134024883e-20 2.300354541384593e-12 2.300354480181242e-12 6.12033513957758e-20
4.58368876423945 2.046478072578485e-20 2.4899558682559537e-12 2.4899557906118676e-12 7.76440863785968e-20
4.723288106065518 2.164084005324393e-20 2.7132385894167187e-12 2.713238490890176e-12 9.852654327674737e-20
4.867139040275056 2.3055900710840705e-20 2.9786898067024155e-12 2.9786896817656543e-12 1.2493676123176062e-19
4.940699165968905 2.391034233953963e-20 3.1357659374278694e-12 3.1357657967376817e-12 1.4069018723455163e-19
5.015371051989984 2.4794956814295983e-20 3.300926530149825e-12 3.300926371764526e-12 1.5838530020790147e-19
5.091171501069577 2.5875651328145967e-20 3.4968616515866898e-12 3.496861473192224e-12 1.7839446565916146e-19
5.129500256944802 2.643020360274046e-20 3.5986946451315547e-12 3.5986944558340803e-12 1.8929747418023513e-19
5.168117569889187 2.7008389474842593e-20 3.705104877192436e-12 3.705104676327982e-12 2.0086445468480837e-19
5.20702561229733 2.771895904917673e-20 3.831210936784108e-12 3.8312107234880736e-12 2.1329603351605562e-19
5.246226572918644 2.8447620698030395e-20 3.961525216033939e-12 3.961524989568678e-12 2.264652604720401e-19
5.265937586045735 2.8818916638702247e-20 4.0283091350508205e-12 4.028308901711705e-12 2.333391150240838e-19
5.285722656980489 2.919495546529965e-20 4.096204421525273e-12 4.096204181112496e-12 2.4041277690035387e-19
5.305582063971359 2.957581382530829e-20 4.165231778589944e-12 4.165231530898304e-12 2.476916404611161e-19
5.3255160863122235 2.9985156856585686e-20 4.2387466440644354e-12 4.238746388853352e-12 2.552110841854391e-19
5.365609099470188 3.1006021144409654e-20 4.416055285333224e-12 4.416055014184303e-12 2.7114892066431794e-19
5.406003951863644 3.2065781691976064e-20 4.601374945210249e-12 4.601374657173788e-12 2.8803646189730417e-19
5.446702915881641 3.316632312309463e-20 4.795130691864637e-12 4.7951303859386564e-12 3.0592598234879174e-19
5.487708281020852 3.435582214742907e-20 5.004501176644973e-12 5.00450085169894e-12 3.249460327686047e-19
5.529022354014368 3.6011647806759133e-20 5.285192048891725e-12 5.285191703130823e-12 3.4576090325771514e-19
5.570647458961463 3.7765304070150425e-20 5.5842916706685156e-12 5.584291302822393e-12 3.678461217648858e-19
5.612585937458331 3.962384818333088e-20 5.903221619152086e-12 5.903221227879022e-12 3.912730641981743e-19
5.654840148729818 4.166738041916839e-20 6.2544044709750254e-12 6.2544040547153855e-12 4.1625963689018965e-19
5.67608639626678 4.306052522076361e-20 6.487804476782071e-12 6.487804046832456e-12 4.2994961605086266e-19
5.686739436050992 4.377867320802394e-20 6.60838532217881e-12 6.6083848852235785e-12 4.369552328957979e-19
5.6974124697621304 4.451166449898474e-20 6.731640733554047e-12 6.731640289484049e-12 4.440699958036787e-19
5.718818669136295 4.602360877894608e-20 6.986447962934382e-12 6.986447504301119e-12 4.586332629170889e-19
5.740305295436557 4.769063906263274e-20 7.266705602700708e-12 7.266705128836555e-12 4.73864150753028e-19
5.7835210386641895 5.2017821576396235e-20 7.98571696310009e-12 7.98571645558216e-12 5.075179315407253e-19
5.827062130521658 5.700400851570525e-20 8.817073844085745e-12 8.81707330014992e-12 5.439358245916058e-19
5.8489554468988025 6.050371394887457e-20 9.393550627955716e-12 9.393550062782345e-12 5.651733709228588e-19
5.870931020387893 6.425971941222274e-20 1.0014176363774987e-11 1.0014175776553147e-11 5.872218368401219e-19
5.892989160043636 6.829266610337799e-20 1.068265352367311e-11 1.0682652913562738e-11 6.101103695063666e-19
5.915130176081913 7.288002057865597e-20 1.1443061350623828e-11 1.1443060715975797e-11 6.346480321784849e-19
5.95966208400165 8.571025653004551e-20 1.3558881454438674e-11 1.3558880760424425e-11 6.940142456256217e-19
6.004529249263818 1.0420803071172481e-19 1.6609233344325234e-11 1.6609232575741618e-11 7.685836162954088e-19
6.027089341400364 1.1706844775998352e-19 1.8729100592540512e-11 1.8729099776742483e-11 8.157980248268005e-19
6.049734195844842 1.3226747985748236e-19 2.1240209967155444e-11 2.1240209098619265e-11 8.685361795752624e-19
6.095279466722835 1.761763329255963e-19 2.8504315852270366e-11 2.850431484153362e-11 1.0107367464405815e-18
6.141167624020661 2.4375836569170734e-19 3.973561271761075e-11 3.973561150135397e-11 1.216256768238754e-18
6.164241091010745 2.8691713485891826e-19 4.694675021398006e-11 4.694674886285641e-11 1.3511236405893988e-18
6.187401249150058 3.360843804530211e-19 5.5198343247891186e-11 5.5198341748090875e-11 1.499800326375818e-18
6.1990139391386085 3.6009156258670232e-19 5.925226975576755e-11 5.92522681794079e-11 1.5763596747130241e-18
6.204828454712694 3.7273794159589088e-19 6.139073240252844e-11 6.139073078637528e-11 1.616153148389436e-18
6.210648424152782 3.819691787285987e-19 6.297014583580713e-11 6.297014418650464e-11 1.6493025106824205e-18
6.233982942956859 4.1333121592127934e-19 6.839640076126629e-11 6.839639899406884e-11 1.7671974567277505e-18
6.239830258556775 4.1733976185045864e-19 6.912449519031413e-11 6.912449340667517e-11 1.7836389739930102e-18
6.245683058788269 4.1768626956244214e-19 6.924677851705025e-11 6.924677671682581e-11 1.8002244294946798e-18
6.257405133728602 4.168221457690737e-19 6.923321382928341e-11 6.923321199996838e-11 1.8293150500622143e-18
6.269149208991335 4.1065049484531717e-19 6.833613152270703e-11 6.833612968359137e-11 1.839115659329155e-18
6.280915325867298 3.9517742234389663e-19 6.588468832329275e-11 6.588468649836904e-11 1.824923725966047e-18
6.304513850009849 3.5702156593151396e-19 5.97469151469236e-11 5.974691337272237e-11 1.7742012440460087e-18
6.32820103803542 3.0972751972134283e-19 5.202708520581088e-11 5.202708351018244e-11 1.6956284292506567e-18
6.3519772230701035 2.663551241768056e-19 4.4909624247446304e-11 4.490962262602661e-11 1.6214196914107531e-18
6.375842739491607 2.2986729947047836e-19 3.8903101237275824e-11 3.890309968091751e-11 1.5563583185063389e-18
6.399797922933955 2.0062123168810897e-19 3.408102018804763e-11 3.408101867498015e-11 1.5130674781863015e-18
6.42384311029221 1.7630616274071306e-19 3.0062967814213746e-11 3.0062966337547376e-11 1.4766663671463736e-18
6.447978639727206 1.5858528341302574e-19 2.7142878698186863e-11 2.7142877237654705e-11 1.4605321580440661e-18
6.472204850670314 1.4382285282262485e-19 2.470868237605453e-11 2.470868092660372e-11 1.4494508156250837e-18
6.496522083828205 1.3422630861820007e-19 2.314664222679721e-11 2.3146640770766247e-11 1.4560309593969023e-18
