Dust emission spectrum from A.P. Jones, M. Kohler, N. Ysard, M. Bocchio, and L. Verstraete (2017), A&A, 602A, 46J 
inside the DustPedia framework.

lambda    nu*dP/dnu     j_nu    j_nu(carb.) j_nu(sil)
 (um)   (erg s-1 H-1) (Jy cm2 sr-1 H-1)
0.9927057738263894 1.846666909969795e-26 4.866072196356929e-19 4.866072196342877e-19 1.4051394380532822e-30
1.0001793341362166 1.8770435056266023e-26 4.983352962364775e-19 4.983352962347846e-19 1.6928356552136582e-30
1.0077091589558085 1.9073730818683414e-26 5.101998048637358e-19 5.10199804861699e-19 2.0368282646536194e-30
1.0114953028030835 1.9225164982358863e-26 5.16182621371233e-19 5.161826213690001e-19 2.233135823545272e-30
1.0152956718711033 1.9376436846110975e-26 5.221988187084545e-19 5.221988187060072e-19 2.4475759503680806e-30
1.0229392996569957 1.9678285486061164e-26 5.343263033067427e-19 5.343263033038053e-19 2.937406337559227e-30
1.0267826658714554 1.9828494759635924e-26 5.404278334396144e-19 5.404278334363981e-19 3.216496326488759e-30
1.0306404723013447 1.9978475268783857e-26 5.465614114689393e-19 5.465614114654183e-19 3.520967012308633e-30
1.03451277320114 2.0128212531702974e-26 5.527267708938166e-19 5.527267708899635e-19 3.853014369129294e-30
1.0383996230291617 2.027769214891203e-26 5.589236419507923e-19 5.589236419465773e-19 4.2150139053291195e-30
1.0403485208654093 2.035233086372555e-26 5.620338091638307e-19 5.620338091594226e-19 4.4080405438890086e-30
1.0423010764483396 2.0426899806002943e-26 5.651517516776567e-19 5.651517516730474e-19 4.609534419253428e-30
1.0462171883269815 2.0575821276331974e-26 5.71410823977322e-19 5.714108239722829e-19 5.0393527322129586e-30
1.0471985131304309 2.0613005268617743e-26 5.72980397305796e-19 5.729803973006434e-19 5.152669072752542e-30
1.048180758391296 2.065017027028106e-26 5.745518839701513e-19 5.7455188396488275e-19 5.268427060677496e-30
1.0501480137395462 2.0724442423649206e-26 5.777005796817386e-19 5.777005796762312e-19 5.507469462232723e-30
1.0521189612883777 2.0798635983950502e-26 5.80856875746731e-19 5.808568757409744e-19 5.756892751798699e-30
1.0531058218030118 2.083564549389993e-26 5.824362624027686e-19 5.824362623968831e-19 5.885638930711564e-30
1.0540936079674168 2.0872447128569372e-26 5.840122845090741e-19 5.840122845030571e-19 6.017170612958309e-30
1.058054026499678 2.1019438584043157e-26 5.903348054009559e-19 5.903348053943839e-19 6.572029940773876e-30
1.0590464539527713 2.1056131602121226e-26 5.919200210431763e-19 5.91920021036458e-19 6.718223243923218e-30
1.06003981227728 2.1092802253285646e-26 5.935070617364492e-19 5.935070617295817e-19 6.867530064724392e-30
1.0620293250338977 2.1166075600907825e-26 5.966865999576559e-19 5.966865999504801e-19 7.17573796073513e-30
1.0660195594769086 2.1312344522463684e-26 6.030673749210344e-19 6.030673749132018e-19 7.832375674551048e-30
1.070024785945596 2.1458231797258703e-26 6.094768343605222e-19 6.094768343519759e-19 8.54634533618638e-30
1.0740450607676866 2.1603723981307207e-26 6.159146797372341e-19 6.159146797279115e-19 9.322394071882919e-30
1.07808044048254 2.1748807740246436e-26 6.223806099679385e-19 6.223806099577729e-19 1.0165639103610147e-29
1.0861967418109137 2.2037439522672238e-26 6.353880787405945e-19 6.353880787285181e-19 1.2076202422698809e-29
1.0902777775684922 2.2180375503185709e-26 6.4191198969450395e-19 6.41911989681348e-19 1.3155861347960907e-29
1.0943741465085532 2.2322840667142456e-26 6.484622773853179e-19 6.484622773709905e-19 1.432745361223718e-29
1.1026131145906286 2.2606307945047718e-26 6.616407207489914e-19 6.616407207320149e-19 1.6976637211154025e-29
1.1109141095355224 2.2887741399452183e-26 6.749208637449321e-19 6.74920863724842e-19 2.0090001564440393e-29
1.1192775983109025 2.3166780400889676e-26 6.882923248047885e-19 6.882923247810443e-19 2.37441003946689e-29
1.1277040513999907 2.3442122510145474e-26 7.017162034344387e-19 7.017162034064113e-19 2.802727735784832e-29
1.1361939428280308 2.3715106034662906e-26 7.152320603699642e-19 7.152320603369228e-19 3.3041331060917257e-29
1.1447477501889525 2.398564010701528e-26 7.288372230267565e-19 7.2883722298785285e-19 3.890342170752477e-29
1.1533659546722406 2.4253784419157916e-26 7.425335371600096e-19 7.425335371142612e-19 4.574827290863585e-29
1.1707974979042381 2.4783778597881718e-26 7.702270014955153e-19 7.702270014324871e-19 6.302799510896382e-29
1.1884924949847024 2.53030730047864e-26 7.982504006620194e-19 7.982504005756125e-19 8.640664247469319e-29
1.2064549276569216 2.581576003009127e-26 8.2673333646332e-19 8.267333363454386e-19 1.178813831537219e-28
1.2246888378427687 2.631620850566353e-26 8.554970401791032e-19 8.554970400190583e-19 1.6004493077742224e-28
1.2431983285522175 2.6803247325748425e-26 8.8449883336833e-19 8.844988331520785e-19 2.1625168178723504e-28
1.2619875648066055 2.7276698397559693e-26 9.137266887389382e-19 9.13726688448119e-19 2.9081928144578775e-28
1.3004222497298317 2.8174941234388925e-26 9.725609847891327e-19 9.725609842704805e-19 5.18652300853416e-28
1.3400274889804893 2.9007452150490206e-26 1.0317933513170174e-18 1.0317933504087775e-18 9.082399758850727e-28
1.3808389325824078 2.977117665228125e-26 1.091210298754734e-18 1.0912102971923212e-18 1.562412723818612e-27
1.4228933163050095 3.0469922512733055e-26 1.1508351609220577e-18 1.1508351582804139e-18 2.64164372599258e-27
1.466228494730424 3.1120717781064976e-26 1.2112134743755263e-18 1.211213469983631e-18 4.3918953731569625e-27
1.5108834753276823 3.171082508562761e-26 1.2717681561280351e-18 1.2717681489448016e-18 7.1832335883253e-27
1.5568984535646726 3.222995759043752e-26 1.3319546991033185e-18 1.331954687533449e-18 1.1569869459789199e-26
1.6043148490894465 3.2679128870337356e-26 1.3916483444146849e-18 1.3916483260294394e-18 1.8385245253519576e-26
1.6531753430134553 3.3059774060094317e-26 1.4507354828851551e-18 1.4507354540945559e-18 2.8790598891218873e-26
1.7035239163302658 3.337653754242043e-26 1.509242232867941e-18 1.509242188427469e-18 4.444047141659749e-26
1.755405889504358 3.3656018388683496e-26 1.5682298659185868e-18 1.5682297982678654e-18 6.765072138947114e-26
1.8088679632656115 3.389168962468893e-26 1.627307105173059e-18 1.6273070035743562e-18 1.0159870277239612e-25
1.8639582606462262 3.407914716934948e-26 1.6861427289559865e-18 1.6861425783644706e-18 1.505915161827424e-25
1.9207263702978936 3.4221641142934165e-26 1.744760276233388e-18 1.7447600558514026e-18 2.20381985405359e-25
1.979223391128241 3.432669399409391e-26 1.8034172792974975e-18 1.8034169607418607e-18 3.185556361013815e-25
2.039501978296691 3.440329704017536e-26 1.862488625579808e-18 1.8624881706058814e-18 4.5497392651444225e-25
2.1016163906111602 3.447657433375738e-26 1.923299801551573e-18 1.923299159214952e-18 6.4233662094248e-25
2.1656225393682647 3.45610955941929e-26 1.9867338764508668e-18 1.986732979709204e-18 8.967416624700865e-25
2.231578038680979 3.4657915893369417e-26 2.0529763921411663e-18 2.0529751538011616e-18 1.2383400044371172e-24
2.299542257339062 3.477575976739716e-26 2.122694305679129e-18 2.122692613611197e-18 1.692067932054323e-24
2.369576372248914 3.493390440207319e-26 2.19728945358561e-18 2.1972871651085567e-18 2.2884770523899833e-24
2.4417434235010123 3.515511056686658e-26 2.278546667517058e-18 2.278543602997524e-18 3.0645195340249312e-24
2.5161083711144245 3.547834798958144e-26 2.369529745287009e-18 2.3695256807475984e-18 4.064539410762041e-24
2.5927381535095444 3.596739279854705e-26 2.4753524805091237e-18 2.4753471393409818e-18 5.341168140951868e-24
2.6717017477616296 3.669841189036416e-26 2.602583537454349e-18 2.60257658152724e-18 6.955927109911854e-24
2.753070231689431 3.778607546630181e-26 2.761331271241124e-18 2.761322291148115e-18 8.980093009643638e-24
2.836916847834745 3.949018103932929e-26 2.9737548562278335e-18 2.9737433603794558e-18 1.149584837560884e-23
2.9233170693905177 4.238292309398012e-26 3.288790896405274e-18 3.2887763017319858e-18 1.459467328831178e-23
2.967498994190263 4.483991210523644e-26 3.532033110082385e-18 3.532016740684594e-18 1.6369397790591614e-23
3.0123486681368425 4.7709606499160024e-26 3.814876702499853e-18 3.814858366769559e-18 1.8335730294285128e-23
3.0578761833420214 5.413065970628041e-26 4.393722755767128e-18 4.39370223904538e-18 2.0516721746720383e-23
3.1040917844459814 6.240610343318992e-26 5.141987943210959e-18 5.141965027943329e-18 2.291526762978898e-23
3.127460860933648 7.115979364499346e-26 5.9073948005889786e-18 5.907370591036228e-18 2.420955275341e-23
3.1510058709225794 8.282366956989884e-26 6.927445436179009e-18 6.927419870090303e-18 2.5566088706471597e-23
3.162844764501044 9.367982885531098e-26 7.864903503828107e-18 7.864877232845225e-18 2.627098288240625e-23
3.1747281389236908 1.0630561972838978e-25 8.958436054063061e-18 8.958409061829884e-18 2.6992233178877316e-23
3.1986289994194426 1.4152498513741607e-25 1.2016179888557912e-17 1.2016151399989082e-17 2.848856882569992e-23
3.2227097969389145 2.245432993970725e-25 1.920837970681023e-17 1.920834962464658e-17 3.008216365324655e-23
3.2348180950136065 3.0327100329781122e-25 2.604055193079763e-17 2.604052099603195e-17 3.09347656762985e-23
3.240889293275058 3.621293745914813e-25 3.1152821287714604e-17 3.11527899031071e-17 3.138460750609337e-23
3.2469718861334385 4.302186329175482e-25 3.707978243475739e-17 3.707975058459844e-17 3.185015894345008e-23
3.2714166318528037 7.934210393806697e-25 6.889837880155761e-17 6.889834502085633e-17 3.378070127394888e-23
3.2744851364798273 8.16123576742667e-25 7.093627526328066e-17 7.093624125331176e-17 3.400996887081338e-23
3.2775565192852394 8.394781767016145e-25 7.303466359165893e-17 7.303462935110272e-17 3.4240556186771744e-23
3.283707930232385 8.170093973154258e-25 7.12132828491193e-17 7.121324819274415e-17 3.465637514845613e-23
3.2898708863219004 7.4576857586634335e-25 6.512569437620793e-17 6.512565933821114e-17 3.5037996802721394e-23
3.29141343181113 7.28968388147976e-25 6.368843330042869e-17 6.368839816651301e-17 3.513391566813534e-23
3.292184975758714 7.2071339672833e-25 6.298197229562238e-17 6.298193711367008e-17 3.518195231528738e-23
3.295272960557952 6.686074152443164e-25 5.848331971052593e-17 5.848328434112252e-17 3.5369403411464037e-23
3.3076538914384823 4.881023400853429e-25 4.2854889742429627e-17 4.285485361837179e-17 3.612405783466912e-23
3.310756385682612 4.513663186726943e-25 3.966667582695913e-17 3.966663951231242e-17 3.631464671281498e-23
3.313861789986515 4.174721133116776e-25 3.67224201306242e-17 3.672238362461468e-17 3.650600951702536e-23
3.3200813396944477 3.699386311793657e-25 3.260227017371021e-17 3.260223325751928e-17 3.6916190931529775e-23
3.345076488085796 2.8513892533103923e-25 2.5318151496712527e-17 2.5318112755680055e-17 3.874103247192578e-23
3.3482140837626964 2.8831722202488136e-25 2.5624372366122437e-17 2.5624333377951553e-17 3.8988170893080183e-23
3.3513546224236106 2.9153065459345953e-25 2.593427106706975e-17 2.5934231830448685e-17 3.923662106187201e-23
3.3576445397418455 3.150207775413711e-25 2.807652466024213e-17 2.807648490467152e-17 3.9755570604123065e-23
3.3702598118196083 4.016666271944123e-25 3.5933420885171965e-17 3.593338004047326e-17 4.0844698691621663e-23
3.382922481734668 4.213936344267481e-25 3.783985383238307e-17 3.78398119226384e-17 4.1909744671311355e-23
3.389271646505754 4.316135125582695e-25 3.8830308793585946e-17 3.8830266342660245e-17 4.245092568943429e-23
3.395632727569191 4.426252391031044e-25 3.989572100359157e-17 3.989567799483618e-17 4.3008755362092307e-23
3.421196662673239 4.9549690702310885e-25 4.49975036278676e-17 4.499745830215759e-17 4.532571000568563e-23
3.4276182099114902 4.848328581536483e-25 4.411171264930651e-17 4.4111666799460454e-17 4.5849846064695234e-23
3.4340518103208963 4.381200714634228e-25 3.9936447129029926e-17 3.993640078003069e-17 4.6348999241683143e-23
3.4469541582030403 3.715936490622327e-25 3.399955427072057e-17 3.399950695661911e-17 4.731410145939579e-23
3.472904465399547 3.5294269980019593e-25 3.253617334116268e-17 3.2536123812592756e-17 4.952856993056117e-23
3.4990501388274233 3.244215335720918e-25 3.0132091087998583e-17 3.0132039276068244e-17 5.18119303439746e-23
3.5253949054701885 2.2294313910656346e-25 2.0862738641698585e-17 2.0862684584850142e-17 5.405684844249572e-23
3.5519380250092896 1.275758852377985e-25 1.202827650598234e-17 1.2028220170563724e-17 5.633541860884042e-23
3.578680990867387 8.976298207528895e-26 8.526870977931121e-18 8.526812139913782e-18 5.883801733858111e-23
3.605625307711299 7.446736641055337e-26 7.127152005933501e-18 7.127090517313427e-18 6.148862007427728e-23
3.660119384959845 6.330588427371659e-26 6.150476506206808e-18 6.1504093844538245e-18 6.712175298111102e-23
3.715437065384467 5.540232127275321e-26 5.463957388340452e-18 5.463884232493744e-18 7.31558467063559e-23
3.8285932144167436 5.1383396912443416e-26 5.221935101132398e-18 5.221848634123376e-18 8.646700902202023e-23
3.94519561050918 5.060369255223186e-26 5.2993204581313885e-18 5.2992189409483835e-18 1.0151718300495862e-22
4.06534921144712 5.1154591947255043e-26 5.520163167219504e-18 5.520044723065816e-18 1.1844415368674017e-22
4.189162171576248 5.247654972885969e-26 5.835282406635609e-18 5.835144959816533e-18 1.3744681907237201e-22
4.316745939156006 5.436116599073356e-26 6.228947715461648e-18 6.228789056793698e-18 1.586586679526873e-22
4.448215356677963 5.673858791160029e-26 6.699366869244895e-18 6.6991848342018065e-18 1.8203504308727168e-22
4.58368876423945 5.961741950578063e-26 7.25366890257762e-18 7.253461073068762e-18 2.0782950885674943e-22
4.723288106065518 6.306426999372274e-26 7.906736085077e-18 7.906499644135247e-18 2.364409417556462e-22
4.867139040275056 6.721230860034284e-26 8.683443818728957e-18 8.68317625031996e-18 2.675684089977782e-22
4.940699165968905 6.971615660130848e-26 9.14305391593065e-18 9.142769672489872e-18 2.8424344077910093e-22
5.015371051989984 7.230982665018664e-26 9.626531192121908e-18 9.626229521223126e-18 3.0167089878379403e-22
5.091171501069577 7.547569669650368e-26 1.0199861872373699e-17 1.019954168960366e-17 3.2018277004032585e-22
5.129500256944802 7.710085450955809e-26 1.0497930187334792e-17 1.0497600444794197e-17 3.2974254058952277e-22
5.168117569889187 7.879535947708178e-26 1.0809421678793696e-17 1.0809082108924402e-17 3.395698692919319e-22
5.20702561229733 8.087530366103556e-26 1.1178282249062232e-17 1.1177932101913504e-17 3.501471487319919e-22
5.246226572918644 8.300855235869476e-26 1.1559507095727359e-17 1.1559146122535217e-17 3.6097319213516774e-22
5.265937586045735 8.409569991385799e-26 1.1754899756590625e-17 1.1754533275811858e-17 3.664807787669722e-22
5.285722656980489 8.519682369986401e-26 1.1953558427382598e-17 1.1953186375282889e-17 3.7205209970886044e-22
5.305582063971359 8.631215028039955e-26 1.2155544166927206e-17 1.2155166479248023e-17 3.776876791816075e-22
5.3255160863122235 8.751046210575829e-26 1.2370609876927888e-17 1.2370226460099294e-17 3.8341682859334873e-22
5.365609099470188 9.049530226371871e-26 1.2888859747538937e-17 1.2888464449664066e-17 3.9529787487235405e-22
5.406003951863644 9.359404612237363e-26 1.3430556690782576e-17 1.3430149228288128e-17 4.0746249444873016e-22
5.446702915881641 9.681220536662687e-26 1.3996944297312252e-17 1.3996524381555304e-17 4.199157569486674e-22
5.487708281020852 1.0028983770117762e-25 1.460889536065535e-17 1.4608462662127992e-17 4.326985273594009e-22
5.529022354014368 1.0512378836861897e-25 1.5428325119044375e-17 1.5427879021355855e-17 4.460976885263526e-22
5.570647458961463 1.1024309292144818e-25 1.6301459784526662e-17 1.6300999960981978e-17 4.598235446844043e-22
5.612585937458331 1.156683042257391e-25 1.723244120552868e-17 1.7231967323079843e-17 4.738824488363268e-22
5.654840148729818 1.2163228153249188e-25 1.8257386900227247e-17 1.825689857236437e-17 4.883278628767541e-22
5.67608639626678 1.2569413110503327e-25 1.8937970271092908e-17 1.8937474385274483e-17 4.95885818422037e-22
5.686739436050992 1.2778787467698665e-25 1.928956392431385e-17 1.928906422414885e-17 4.997001649987828e-22
5.6974124697621304 1.2992483422406078e-25 1.9648946320191932e-17 1.9648442781936792e-17 5.035382551427962e-22
5.718818669136295 1.3433256583015157e-25 2.0391870733290692e-17 2.039135944712684e-17 5.112861638536787e-22
5.740305295436557 1.391913790097392e-25 2.1208832458070904e-17 2.1208313284606e-17 5.191734649022219e-22
5.7835210386641895 1.5179659641113386e-25 2.330364129380042e-17 2.330310571151451e-17 5.355822859217684e-22
5.827062130521658 1.6631856547845483e-25 2.5725262339435736e-17 2.572470981963734e-17 5.525197984007871e-22
5.8489554468988025 1.7650602910820095e-25 2.74035792574375e-17 2.7403017650494802e-17 5.616069426948263e-22
5.870931020387893 1.8743875423588942e-25 2.9210285377739175e-17 2.920971455719982e-17 5.708205393714998e-22
5.892989160043636 1.9917674003791566e-25 3.1156143480749504e-17 3.115556331856133e-17 5.801621881803611e-22
5.915130176081913 2.1252656828253623e-25 3.336929024148549e-17 3.3368700400685916e-17 5.89840799582793e-22
5.95966208400165 2.498529838613697e-25 3.952533951437343e-17 3.952472808965656e-17 6.114247168612321e-22
6.004529249263818 3.036547222418617e-25 4.839811388215676e-17 4.839747834616956e-17 6.355359872155695e-22
6.027089341400364 3.410540022111379e-25 5.456324771638736e-17 5.4562598475809156e-17 6.492405781870107e-22
6.049734195844842 3.852509622030075e-25 6.186563270168518e-17 6.1864968964033e-17 6.637376521759275e-22
6.095279466722835 5.129179704483149e-25 8.298717309627962e-17 8.29864745611577e-17 6.985351219107821e-22
6.141167624020661 7.093950662111687e-25 1.1564012391846208e-16 1.156393812184653e-16 7.4269999678719e-22
6.164241091010745 8.348636161343844e-25 1.3660436721101882e-16 1.3660359731385926e-16 7.698971595770696e-22
6.187401249150058 9.777928556299482e-25 1.605922464996615e-16 1.6059144844196665e-16 7.98057694853538e-22
6.1990139391386085 1.0475817183685496e-24 1.7237725350212366e-16 1.7237644106974667e-16 8.1243237700473e-22
6.204828454712694 1.084344085960185e-24 1.7859377912650866e-16 1.785929594088422e-16 8.1971766656977785e-22
6.210648424152782 1.1111799836690288e-24 1.8318537075261062e-16 1.8318454469056645e-16 8.260620441695901e-22
6.233982942956859 1.2023530093556605e-24 1.9896057959500123e-16 1.9895973078893115e-16 8.488060701466438e-22
6.239830258556775 1.214007746528025e-24 2.0107758787179731e-16 2.0107673545637265e-16 8.52415424679333e-22
6.245683058788269 1.2150181698408836e-24 2.0143370810178252e-16 2.0143285206318995e-16 8.560385925373299e-22
6.257405133728602 1.2125130178355237e-24 2.0139566452187522e-16 2.0139480187171935e-16 8.626501558571364e-22
6.269149208991335 1.194581028453479e-24 1.987895967486339e-16 1.9878873038627605e-16 8.663623578248839e-22
6.280915325867298 1.1496133726011208e-24 1.916656024953802e-16 1.9166473602858095e-16 8.664667991509752e-22
6.304513850009849 1.038722654938193e-24 1.7382836289974775e-16 1.7382749950747138e-16 8.633922764005113e-22
6.32820103803542 9.012739131007168e-25 1.5139324627289298e-16 1.5139238946867533e-16 8.568042176982988e-22
6.3519772230701035 7.7522591598745235e-25 1.3070934791090678e-16 1.3070849659467483e-16 8.513162319369435e-22
6.375842739491607 6.691874008763117e-25 1.1325432222404517e-16 1.1325347526118695e-16 8.46962858206266e-22
6.399797922933955 5.842028007942419e-25 9.92428731508113e-17 9.924202630876007e-17 8.468420512136682e-22
6.42384311029221 5.135494860483822e-25 8.756824736060885e-17 8.756739977266505e-17 8.475879438310485e-22
6.447978639727206 4.62065419265824e-25 7.9085431862519e-17 7.908458015045188e-17 8.517120671338236e-22
6.472204850670314 4.191799716795945e-25 7.201487507279726e-17 7.201401851771325e-17 8.565550840190874e-22
6.496522083828205 3.9131153830557057e-25 6.747967868311442e-17 6.747881448487243e-17 8.64198241979457e-22
6.520930681187647 3.678380121847597e-25 6.367011343795358e-17 6.366924109461739e-17 8.723433361796605e-22
6.57002334288761 3.4384100218100704e-25 5.996447139633551e-17 5.996357864057216e-17 8.92755763327007e-22
