Dust emission spectrum from A.P. Jones, M. Kohler, N. Ysard, M. Bocchio, and L. Verstraete (2017), A&A, 602A, 46J 
inside the DustPedia framework.

lambda    nu*dP/dnu     j_nu    j_nu(carb.) j_nu(sil)
 (um)   (erg s-1 H-1) (Jy cm2 sr-1 H-1)
0.9927057738263894 2.319553907920414e-21 6.112156295402078e-14 6.112155971067285e-14 3.24334794232264e-21
1.0001793341362166 2.3585193689722463e-21 6.261620707741132e-14 6.261620317467667e-14 3.902734655693775e-21
1.0077091589558085 2.397645397428373e-21 6.413418672670714e-14 6.413418203680125e-14 4.689905884618068e-21
1.0114953028030835 2.4172669397294708e-21 6.490197543940566e-14 6.490197030081814e-14 5.1385875219841116e-21
1.0152956718711033 2.436926633822758e-21 6.567565644644459e-14 6.567565081813458e-14 5.628309996788902e-21
1.0229392996569957 2.476338790318388e-21 6.724025589033994e-14 6.724024914481122e-14 6.745528719368306e-21
1.0267826658714554 2.496046540048996e-21 6.80300264924342e-14 6.803001911113685e-14 7.381297350671346e-21
1.0306404723013447 2.5157890288618694e-21 6.88257328987107e-14 6.88257248244247e-14 8.074286001070944e-21
1.03451277320114 2.5355656970865918e-21 6.962739676622579e-14 6.962738793684355e-14 8.829382217013852e-21
1.0383996230291617 2.555376004196638e-21 7.043504025658457e-14 7.043503060471763e-14 9.651866925357747e-21
1.0403485208654093 2.565293608771131e-21 7.08411114292069e-14 7.084110133906186e-14 1.0090145054260566e-20
1.0423010764483396 2.575219429286003e-21 7.124868605796061e-14 7.12486755105166e-14 1.054744400339367e-20
1.0462171883269815 2.5950954715427396e-21 7.2068357407428e-14 7.206834588515611e-14 1.1522271900499413e-20
1.0471985131304309 2.6000695218017694e-21 7.227421951387151e-14 7.2274207734742e-14 1.1779129503191188e-20
1.048180758391296 2.6050455732154e-21 7.248046007993711e-14 7.248044803847514e-14 1.2041461990371454e-20
1.0501480137395462 2.6150036507191704e-21 7.289407811360174e-14 7.28940655306043e-14 1.2582997440631027e-20
1.0521189612883777 2.6249696473128146e-21 7.330921457756634e-14 7.330920142977498e-14 1.3147791338263137e-20
1.0531058218030118 2.6299490231227422e-21 7.35171694001936e-14 7.351715596096886e-14 1.3439224740669416e-20
1.0540936079674168 2.6349088184507284e-21 7.372490197520928e-14 7.372488823831164e-14 1.3736897646800464e-20
1.058054026499678 2.65476659028263e-21 7.455960882081749e-14 7.455959382893671e-14 1.4991880772487088e-20
1.0590464539527713 2.6597356488709213e-21 7.476923164226229e-14 7.476921631991101e-14 1.5322351278684216e-20
1.06003981227728 2.66470654121903e-21 7.497923370624916e-14 7.497921804646807e-14 1.5659781101109792e-20
1.0620293250338977 2.6746538029195246e-21 7.540037717995373e-14 7.540036082387567e-14 1.635607803839724e-20
1.0660195594769086 2.6945700694352406e-21 7.624723298754419e-14 7.624721514905811e-14 1.7838486076930106e-20
1.070024785945596 2.714515025982532e-21 7.71002028727856e-14 7.710018342398781e-14 1.9448797774969332e-20
1.0740450607676866 2.734488332235636e-21 7.795931418358206e-14 7.795929298612964e-14 2.1197452413819325e-20
1.07808044048254 2.754489671827795e-21 7.882459501125486e-14 7.882457191556574e-14 2.309568912573187e-20
1.0861967418109137 2.7945448052567317e-21 8.057290198980766e-14 8.057287459959454e-14 2.739021313101901e-20
1.0902777775684922 2.814528741126586e-21 8.14539746637493e-14 8.145394485023202e-14 2.981351728175355e-20
1.0943741465085532 2.834538500435797e-21 8.234128078665602e-14 8.234124834609934e-14 3.244055669430855e-20
1.1026131145906286 2.8746347782672054e-21 8.41347216540722e-14 8.413468328234526e-14 3.8371726975222064e-20
1.1109141095355224 2.9148324855147617e-21 8.595349031873008e-14 8.595344499071196e-14 4.532801811834513e-20
1.1192775983109025 2.955099566259969e-21 8.779693661759685e-14 8.77968831418619e-14 5.3475734968159944e-20
1.1277040513999907 2.9952917007164584e-21 8.96610244868306e-14 8.966096148054868e-14 6.300628189734183e-20
1.1361939428280308 3.035579835833883e-21 9.155109900109909e-14 9.155102486145001e-14 7.413964904968419e-20
1.1447477501889525 3.0759646881746758e-21 9.346748935843047e-14 9.346740223009475e-14 8.712833570508455e-20
1.1533659546722406 3.1164616281648013e-21 9.541097736305339e-14 9.541087510114614e-14 1.0226190723216941e-19
1.1707974979042381 3.1979149627551644e-21 9.938437930570753e-14 9.938423896752193e-14 1.4033818559081154e-19
1.1884924949847024 3.2798365973311416e-21 1.034708660655678e-13 1.0347067444038357e-13 1.9162518424520082e-19
1.2064549276569216 3.362779557417526e-21 1.0769088185100429e-13 1.07690621490168e-13 2.603608362853925e-19
1.2246888378427687 3.446217843173049e-21 1.1203092436406504e-13 1.1203057234882336e-13 3.5201524167914905e-19
1.2431983285522175 3.5300888368576e-21 1.1649183473704062e-13 1.1649136111316488e-13 4.736238757734825e-19
1.2619875648066055 3.61452098761437e-21 1.2108079376959162e-13 1.2108015958004514e-13 6.341895464759039e-19
1.3004222497298317 3.7845810982865834e-21 1.30638636983967e-13 1.3063751594323e-13 1.1210407370153974e-18
1.3400274889804893 3.956957181854588e-21 1.4074873210175027e-13 1.4074678685133242e-13 1.945250417853053e-18
1.3808389325824078 4.1323321353477136e-21 1.514633914753598e-13 1.5146007645575077e-13 3.315019609017257e-18
1.4228933163050095 4.312216499290535e-21 1.6287046239838437e-13 1.6286491142939752e-13 5.550968986892449e-18
1.466228494730424 4.4997461905478e-21 1.7512941878794065e-13 1.7512028099670345e-13 9.137791237184355e-18
1.5108834753276823 4.694632192605688e-21 1.882790407114154e-13 1.882642463906045e-13 1.4794320810900543e-17
1.5568984535646726 4.896796580501111e-21 2.0236797388423038e-13 2.023443913972417e-13 2.3582486988760144e-17
1.6043148490894465 5.107482586186562e-21 2.1750334023270396e-13 2.174662602902873e-13 3.7079942416650616e-17
1.6531753430134553 5.328009695066146e-21 2.338047653846101e-13 2.337473238653777e-13 5.744151923242791e-17
1.7035239163302658 5.559911387177378e-21 2.514117309462218e-13 2.513240407148539e-13 8.769023136788861e-17
1.755405889504358 5.807433382733877e-21 2.7060213629423683e-13 2.704701492474353e-13 1.3198704680153402e-16
1.8088679632656115 6.070684594390445e-21 2.9148349589864615e-13 2.91287557836807e-13 1.9593806183911037e-16
1.8639582606462262 6.349670201751897e-21 3.141642655770961e-13 3.1387726348144486e-13 2.8700209565124905e-16
1.9207263702978936 6.64529166954245e-21 3.3880435133357874e-13 3.383894049566978e-13 4.1494637688080624e-16
1.979223391128241 6.95885801153668e-21 3.6559666317829256e-13 3.6500427627815344e-13 5.923869001390727e-16
2.039501978296691 7.291527187784787e-21 3.947408422656768e-13 3.939054736058172e-13 8.353686598595521e-16
2.1016163906111602 7.646644783113429e-21 4.26573424944294e-13 4.254093331064506e-13 1.1640918378434633e-15
2.1656225393682647 8.025905841380657e-21 4.613667116199595e-13 4.597631722960218e-13 1.6035393239377106e-15
2.231578038680979 8.428604663781404e-21 4.992719829626171e-13 4.970878053408831e-13 2.184177621734122e-15
2.299542257339062 8.85522462721841e-21 5.405183098063767e-13 5.375756339141055e-13 2.9426758922712543e-15
2.369576372248914 9.307064672310593e-21 5.854002121530288e-13 5.814775534571668e-13 3.9226586958620995e-15
2.4417434235010123 9.785680547369967e-21 6.34250026271037e-13 6.290747941124467e-13 5.175232158590462e-15
2.5161083711144245 1.0294289201768224e-20 6.875355210265087e-13 6.807758238625507e-13 6.759697163958287e-15
2.5927381535095444 1.0838216815132108e-20 7.459091357524451e-13 7.371652322995516e-13 8.743903452893532e-15
2.6717017477616296 1.1421983789072516e-20 8.10025977781231e-13 7.98821998405165e-13 1.1203979376065634e-14
2.753070231689431 1.2052179810261713e-20 8.807493391679759e-13 8.665250642868177e-13 1.4224274881158046e-14
2.836916847834745 1.2746814420841295e-20 9.598816791358927e-13 9.419840673178072e-13 1.7897611818085554e-14
2.9233170693905177 1.3545184394380642e-20 1.0510667003215059e-12 1.0287467247297706e-12 2.2319975591735118e-14
2.967498994190263 1.4019389310728358e-20 1.1043051804475993e-12 1.0795110769561096e-12 2.47941034914898e-14
3.0123486681368425 1.452524351861274e-20 1.1614435155374488e-12 1.133936701452682e-12 2.750681408476643e-14
3.0578761833420214 1.529875468554052e-20 1.2417821427171604e-12 1.2112960296895089e-12 3.048611302765121e-14
3.1040917844459814 1.6190697948859887e-20 1.3340421699992118e-12 1.300321394458207e-12 3.3720775541004715e-14
3.127460860933648 1.697167620762262e-20 1.4089190911143591e-12 1.373469347983954e-12 3.544974313040492e-14
3.1510058709225794 1.7948681754421134e-20 1.5012437163286867e-12 1.4639939162159933e-12 3.724980011269382e-14
3.162844764501044 1.880847045453013e-20 1.579067841893213e-12 1.5408873317264423e-12 3.8180510166770507e-14
3.1747281389236908 1.9776877819894995e-20 1.666608931411296e-12 1.6274793652054863e-12 3.912956620581035e-14
3.1986289994194426 2.237596719371552e-20 1.89983165671481e-12 1.8587431171251905e-12 4.1088539589619565e-14
3.2227097969389145 2.830955148460973e-20 2.4217182864329404e-12 2.3785561301104447e-12 4.316215632249569e-14
3.2348180950136065 3.3846527532010623e-20 2.9062529826136383e-12 2.861984771671458e-12 4.426821094217977e-14
3.240889293275058 3.79746232407201e-20 3.266834270544912e-12 3.221982641576831e-12 4.485162896808121e-14
3.2469718861334385 4.2756236686530334e-20 3.685084356561048e-12 3.6396290640451655e-12 4.5455292515882933e-14
3.2714166318528037 6.780435771211315e-20 5.887933505887444e-12 5.839985351416752e-12 4.79481544706915e-14
3.2744851364798273 6.93732960255625e-20 6.029826074173112e-12 5.981584642106472e-12 4.8241432066639895e-14
3.2775565192852394 7.098381721363658e-20 6.175597358610625e-12 6.127061228864507e-12 4.85361297461178e-14
3.283707930232385 6.945993472877975e-20 6.05436117965759e-12 6.0052990478837385e-12 4.906213177385068e-14
3.2898708863219004 6.45820126274455e-20 5.639750121798113e-12 5.590210229533805e-12 4.953989226430671e-14
3.29141343181113 6.34293290165479e-20 5.5416869318911e-12 5.492027095142294e-12 4.9659836748805935e-14
3.292184975758714 6.286259009644689e-20 5.493459571943952e-12 5.443739687229473e-12 4.971988471447828e-14
3.295272960557952 5.932651313856278e-20 5.1893104325285565e-12 5.139357148429531e-12 4.995328409902592e-14
3.3076538914384823 4.698450062330109e-20 4.125191437235537e-12 4.074301172927072e-12 5.08902643084657e-14
3.310756385682612 4.444684734044852e-20 3.9060483958316424e-12 3.854922053334537e-12 5.1126342497105446e-14
3.313861789986515 4.209544053799745e-20 3.7028735662301564e-12 3.651510411494898e-12 5.136315473525829e-14
3.3200813396944477 3.881773207360141e-20 3.420962510889127e-12 3.3690895625184232e-12 5.187294837070346e-14
3.345076488085796 3.314247782789559e-20 2.942798054137697e-12 2.8886520967517997e-12 5.414595738589747e-14
3.3482140837626964 3.3386532668749545e-20 2.9672488487140072e-12 2.912794926975153e-12 5.445392173885436e-14
3.3513546224236106 3.363271890604103e-20 2.9919325295247987e-12 2.937169306275485e-12 5.476322324931317e-14
3.3576445397418455 3.530918739110709e-20 3.1469647121588187e-12 3.0915546459752347e-12 5.541006618358571e-14
3.3702598118196083 4.1345675516468757e-20 3.698817525599222e-12 3.642050763435605e-12 5.676676216361765e-14
3.382922481734668 4.2819530684369204e-20 3.8450623120398144e-12 3.786978373895909e-12 5.808393814390593e-14
3.389271646505754 4.357862533006141e-20 3.9205711339675e-12 3.8618198607242364e-12 5.875127324326301e-14
3.395632727569191 4.441295709061079e-20 4.0031312914326405e-12 3.9436922886260164e-12 5.943900280662382e-14
3.421196662673239 4.844646058732393e-20 4.399562853242562e-12 4.337278602540745e-12 6.228425070181709e-14
3.4276182099114902 4.7754277570273483e-20 4.344843660096051e-12 4.281926096303365e-12 6.291756379268547e-14
3.4340518103208963 4.454229900685154e-20 4.06021382072444e-12 3.996698056236878e-12 6.35157644875616e-14
3.4469541582030403 3.9942032082938766e-20 3.65456000368646e-12 3.5898976974048914e-12 6.466230628157038e-14
3.472904465399547 3.873479000427874e-20 3.5707831402270275e-12 3.5034772346641893e-12 6.730590556283744e-14
3.4990501388274233 3.6871470745997935e-20 3.424601637363259e-12 3.3545941554080213e-12 7.000748195523745e-14
3.5253949054701885 3.006315396932281e-20 2.813272148766745e-12 2.7406459721736504e-12 7.262617659309415e-14
3.5519380250092896 2.3585196037926584e-20 2.223690306856894e-12 2.148436841696395e-12 7.52534651604992e-14
3.578680990867387 2.112021627269338e-20 2.0062764741060777e-12 1.928144048462312e-12 7.813242564376585e-14
3.605625307711299 2.0235031222535338e-20 1.9366623303517476e-12 1.855500700869963e-12 8.11616294817848e-14
3.660119384959845 1.9818347857942535e-20 1.9254494947907543e-12 1.837936978967826e-12 8.7512515822929e-14
3.715437065384467 1.9608342960574312e-20 1.933838653891103e-12 1.8396503884663525e-12 9.418826542475027e-14
3.8285932144167436 2.0015725073752275e-20 2.0341359975741747e-12 1.925667801276973e-12 1.0846819629720202e-13
3.94519561050918 2.0635694466031947e-20 2.161011426956998e-12 2.037073657079831e-12 1.2393776987716667e-13
4.06534921144712 2.1331733259845662e-20 2.301937006073019e-12 2.1613828903571673e-12 1.4055411571585216e-13
4.189162171576248 2.2061365997432568e-20 2.453177686725264e-12 2.294854772694611e-12 1.583229140306526e-13
4.316745939156006 2.2804175627698844e-20 2.6130053520808247e-12 2.4358569369441503e-12 1.771484151366743e-13
4.448215356677963 2.354783307704531e-20 2.7803930017548614e-12 2.583657707452144e-12 1.967352943027177e-13
4.58368876423945 2.428761703313802e-20 2.9550814820810142e-12 2.7380015448732585e-12 2.1707993720775554e-13
4.723288106065518 2.5023221510029734e-20 3.137307519740113e-12 2.899023822149732e-12 2.382836975903809e-13
4.867139040275056 2.575246251217749e-20 3.3270700869405366e-12 3.0673414079594042e-12 2.5972867898113147e-13
4.940699165968905 2.612495574598522e-20 3.4262054964223595e-12 3.1556038479090047e-12 2.706016485133545e-13
5.015371051989984 2.6486355212300815e-20 3.526100620463544e-12 3.2445646221104884e-12 2.81535998353056e-13
5.091171501069577 2.6872162686605135e-20 3.6315312029179853e-12 3.338753817658759e-12 2.927773852592258e-13
5.129500256944802 2.7060236134227296e-20 3.684478876361815e-12 3.3860724435222094e-12 2.984064328396061e-13
5.168117569889187 2.7248392132801555e-20 3.738029277196784e-12 3.4339288956311784e-12 3.041003815656043e-13
5.20702561229733 2.746240303244901e-20 3.795750722876318e-12 3.485403938957267e-12 3.1034678391905117e-13
5.246226572918644 2.7673876561273875e-20 3.853776067482771e-12 3.537162072654484e-12 3.1661399482828646e-13
5.265937586045735 2.7778655535693556e-20 3.882901403156403e-12 3.5631469831916723e-12 3.1975441996473175e-13
5.285722656980489 2.78827932620509e-20 3.912101225166769e-12 3.58920236347422e-12 3.2289886169254754e-13
5.305582063971359 2.7986288100301696e-20 3.941375113079754e-12 3.6153281935969006e-12 3.2604691948285324e-13
5.3255160863122235 2.8094196294489404e-20 3.971437629308244e-12 3.642211918498821e-12 3.292257108094225e-13
5.365609099470188 2.8347193946349267e-20 4.037369873035514e-12 3.701565162980946e-12 3.3580471005456617e-13
5.406003951863644 2.859961052452219e-20 4.103986379450648e-12 3.761583202616023e-12 3.4240317683462526e-13
5.446702915881641 2.8851570739318863e-20 4.171311117218076e-12 3.822293220444777e-12 3.490178967732995e-13
5.487708281020852 2.9112725590404755e-20 4.240756307542637e-12 3.885079661993948e-12 3.5567664554868817e-13
5.529022354014368 2.945821003098889e-20 4.323387206989805e-12 3.960769859235269e-12 3.6261734775453584e-13
5.570647458961463 2.980967752238332e-20 4.407906622023832e-12 4.0383298569047085e-12 3.6957676511912456e-13
5.612585937458331 3.016784072792888e-20 4.494451138725217e-12 4.117899513528379e-12 3.765516251968378e-13
5.654840148729818 3.054769758180967e-20 4.585305205454443e-12 4.201728668040009e-12 3.835765374144338e-13
5.67608639626678 3.080368538782063e-20 4.64110195906582e-12 4.253844557671126e-12 3.872574013946943e-13
5.686739436050992 3.093373694167745e-20 4.669443776748682e-12 4.280343943140807e-12 3.89099833607874e-13
5.6974124697621304 3.106521190563297e-20 4.698090898515305e-12 4.307147368481817e-12 3.909435300334861e-13
5.718818669136295 3.133259308748947e-20 4.756331303808625e-12 4.3616967970142105e-12 3.946345067944165e-13
5.740305295436557 3.1623835991581954e-20 4.818578880377679e-12 4.420218966975688e-12 3.983599134019901e-13
5.7835210386641895 3.2373050861658007e-20 4.96987404660083e-12 4.56381795762728e-12 4.0605608897355133e-13
5.827062130521658 3.320934546180735e-20 5.136643174310047e-12 4.722794256586854e-12 4.138489177231927e-13
5.8489554468988025 3.3800637158492696e-20 5.2477439099648585e-12 4.82966928221528e-12 4.180746277495788e-13
5.870931020387893 3.4423121272793375e-20 5.364467983528087e-12 4.9421564421184846e-12 4.2231154140960295e-13
5.892989160043636 3.507930741981881e-20 5.48726691163407e-12 5.060707671804324e-12 4.265592398297482e-13
5.915130176081913 3.5819842439539114e-20 5.6241566804025745e-12 5.1931886618041695e-12 4.309680185984068e-13
5.95966208400165 3.789850831437719e-20 5.995331274671497e-12 5.554215279244054e-12 4.4111599542744065e-13
6.004529249263818 4.0861070642597834e-20 6.512656005172021e-12 6.060063098362159e-12 4.5259290680986214e-13
6.027089341400364 4.2916052323674983e-20 6.865889796820123e-12 6.406614653157523e-12 4.592751436626005e-13
6.049734195844842 4.531565158055183e-20 7.277026487587768e-12 6.810662085076774e-12 4.663644025109916e-13
6.095279466722835 5.2225317338553737e-20 8.449755515866484e-12 7.965792814938983e-12 4.839627009275011e-13
6.141167624020661 6.272991938970807e-20 1.0225748665499767e-11 9.718731788892253e-12 5.07016876607512e-13
6.164241091010745 6.941671775389126e-20 1.1358294479933152e-11 1.0836705356993232e-11 5.215891229399223e-13
6.187401249150058 7.691336902654802e-20 1.2632216165941602e-11 1.2095683629662075e-11 5.365325362795242e-13
6.1990139391386085 8.055009743225824e-20 1.325434027841278e-11 1.2710207814504123e-11 5.441324639086543e-13
6.204828454712694 8.245567755923381e-20 1.3580625611749895e-11 1.30326566412532e-11 5.479689704966913e-13
6.210648424152782 8.383081078570028e-20 1.3820063698019686e-11 1.326884884836231e-11 5.512148496573791e-13
6.233982942956859 8.842224417686572e-20 1.4631760234831322e-11 1.4069325363392005e-11 5.62434871439312e-13
6.239830258556775 8.896294840572127e-20 1.473504195219947e-11 1.4171123064875045e-11 5.639188873244242e-13
6.245683058788269 8.893977463084706e-20 1.4745021141514734e-11 1.4179616622357023e-11 5.654045191577083e-13
6.257405133728602 8.865172316292572e-20 1.4724850318950253e-11 1.4156888050541538e-11 5.67962268408714e-13
6.269149208991335 8.754478099142431e-20 1.4568280674323833e-11 1.3999584790296386e-11 5.686958840274411e-13
6.280915325867298 8.501141232607533e-20 1.4173255070610452e-11 1.3606078457645771e-11 5.67176612964681e-13
6.304513850009849 7.886487786646364e-20 1.3197895072993905e-11 1.2635791174571338e-11 5.621038984225641e-13
6.32820103803542 7.140357502950706e-20 1.199415500889921e-11 1.143928768449085e-11 5.54867324408357e-13
6.3519772230701035 6.460640917147578e-20 1.0893162160236024e-11 1.0344838540049899e-11 5.483236201861263e-13
6.375842739491607 5.886831332562913e-20 9.962965407651415e-12 9.420472546825944e-12 5.424928608254727e-13
6.399797922933955 5.43252618302501e-20 9.22863611981037e-12 8.68941482445165e-12 5.392212953587148e-13
6.42384311029221 5.052804232661993e-20 8.615824237604078e-12 8.079362387805807e-12 5.364618497982699e-13
6.447978639727206 4.7772345665856705e-20 8.176540443283627e-12 7.640848224065123e-12 5.356922192185038e-13
6.472204850670314 4.546372782571233e-20 7.810641969828898e-12 7.275326203993148e-12 5.35315765835751e-13
6.496522083828205 4.395601472308724e-20 7.579990517396785e-12 7.043444213579739e-12 5.365463038170478e-13
6.520930681187647 4.267661444656589e-20 7.387014916761339e-12 6.84899971930378e-12 5.380151974575585e-13
