# column 1: lambda (micron)
# column 2: total flux; lambda*F_lambda (W/m2)
# column 3: direct stellar flux; lambda*F_lambda (W/m2)
# column 4: scattered stellar flux; lambda*F_lambda (W/m2)
# column 5: total dust emission flux; lambda*F_lambda (W/m2)
# column 6: dust emission scattered flux; lambda*F_lambda (W/m2)
# column 7: transparent flux; lambda*F_lambda (W/m2)
1.00000000e-03 1.04634370e-12 1.04634360e-12 9.57917211e-20 0.00000000e+00 0.00000000e+00 1.04634360e-12
1.14815362e-03 1.23502111e-12 1.23502095e-12 1.61345609e-19 0.00000000e+00 0.00000000e+00 1.23502095e-12
1.31825674e-03 1.45772096e-12 1.45772071e-12 2.47833360e-19 0.00000000e+00 0.00000000e+00 1.45772071e-12
1.51356125e-03 1.72057824e-12 1.72057784e-12 4.08474560e-19 0.00000000e+00 0.00000000e+00 1.72057784e-12
1.73780083e-03 2.03083422e-12 2.03083353e-12 6.94712343e-19 0.00000000e+00 0.00000000e+00 2.03083353e-12
1.99526231e-03 2.39703600e-12 2.39703472e-12 1.28705134e-18 0.00000000e+00 0.00000000e+00 2.39703472e-12
2.29086765e-03 2.82927153e-12 2.82926954e-12 1.98636475e-18 0.00000000e+00 0.00000000e+00 2.82926954e-12
2.63026799e-03 3.33944948e-12 3.33944522e-12 4.25261912e-18 0.00000000e+00 0.00000000e+00 3.33944522e-12
3.01995172e-03 3.94162284e-12 3.94161611e-12 6.72935934e-18 0.00000000e+00 0.00000000e+00 3.94161611e-12
3.46736850e-03 4.65238312e-12 4.65237083e-12 1.22931120e-17 0.00000000e+00 0.00000000e+00 4.65237083e-12
3.98107171e-03 5.49130927e-12 5.49128930e-12 1.99689697e-17 0.00000000e+00 0.00000000e+00 5.49128930e-12
4.57088190e-03 6.48152398e-12 6.48148207e-12 4.19088368e-17 0.00000000e+00 0.00000000e+00 6.48148207e-12
5.24807460e-03 7.65030490e-12 7.65022704e-12 7.78585921e-17 0.00000000e+00 0.00000000e+00 7.65022704e-12
6.02559586e-03 9.02986093e-12 9.02972084e-12 1.40088861e-16 0.00000000e+00 0.00000000e+00 9.02972084e-12
6.91830971e-03 1.06581900e-11 1.06579658e-11 2.24177672e-16 0.00000000e+00 0.00000000e+00 1.06579658e-11
7.94328235e-03 1.25802329e-11 1.25798170e-11 4.15873465e-16 2.29238795e-304 9.37131206e-306 1.25798170e-11
9.12010839e-03 1.48487885e-11 1.48482176e-11 5.70918868e-16 1.74380752e-265 2.87360607e-267 1.48482176e-11
1.04712855e-02 1.65842274e-11 1.65834298e-11 7.97584565e-16 1.22446288e-231 2.47058248e-233 1.65834298e-11
1.20226443e-02 1.65846260e-11 1.65834298e-11 1.19623120e-15 2.96655074e-202 5.68249768e-204 1.65834298e-11
1.38038426e-02 1.65851487e-11 1.65834298e-11 1.71894616e-15 1.20754863e-176 4.76315127e-178 1.65834298e-11
1.58489319e-02 1.65857820e-11 1.65834298e-11 2.35221957e-15 2.25344688e-154 6.90523707e-156 1.65834298e-11
1.81970086e-02 1.65879093e-11 1.65834298e-11 4.47951821e-15 5.40623867e-135 2.16420253e-136 1.65834298e-11
2.08929613e-02 1.65878447e-11 1.65834298e-11 4.41494293e-15 3.62888214e-118 1.44258504e-119 1.65834298e-11
2.39883292e-02 1.65907770e-11 1.65834298e-11 7.34720918e-15 1.58213645e-103 6.69482426e-105 1.65834298e-11
2.75422870e-02 1.65922743e-11 1.65834298e-11 8.84451568e-15 8.58711412e-91 4.17593855e-92 1.65834298e-11
3.16227766e-02 1.65945237e-11 1.65834298e-11 1.10939132e-14 9.84413112e-80 4.73369261e-81 1.65834298e-11
3.63078055e-02 1.65967576e-11 1.65834298e-11 1.33277921e-14 3.93350054e-70 1.91350229e-71 1.65834298e-11
4.16869383e-02 1.66029477e-11 1.65834298e-11 1.95179249e-14 8.49176650e-62 4.68165021e-63 1.65834298e-11
4.78630092e-02 1.66112487e-11 1.65834298e-11 2.78188914e-14 1.42078899e-54 8.34466433e-56 1.65834298e-11
5.49540874e-02 1.66208039e-11 1.65834298e-11 3.73740796e-14 2.57339975e-48 1.57615378e-49 1.65834298e-11
6.30957344e-02 1.66344376e-11 1.65834298e-11 5.10077823e-14 8.78667430e-43 5.36204697e-44 1.65834298e-11
7.24435960e-02 1.66400004e-11 1.65834298e-11 5.65705693e-14 5.34875936e-38 3.08022079e-39 1.65834298e-11
8.31763771e-02 1.66396835e-11 1.65834298e-11 5.62536788e-14 5.84512995e-34 3.25560172e-35 1.65834298e-11
9.54992586e-02 1.66430855e-11 1.65834298e-11 5.96557445e-14 1.74761394e-30 9.82530802e-32 1.65834298e-11
1.09647820e-01 1.58927938e-11 1.58370587e-11 5.57350705e-14 1.58232995e-27 9.50654122e-29 1.58370587e-11
1.25892541e-01 1.48244760e-11 1.47800032e-11 4.44728745e-14 5.44986122e-25 3.34926447e-26 1.47800032e-11
1.44543977e-01 1.38309621e-11 1.37935015e-11 3.74605443e-14 7.80738216e-23 4.96695696e-24 1.37935015e-11
1.65958691e-01 1.29137326e-11 1.28728446e-11 4.08879605e-14 4.13246635e-21 2.93341008e-22 1.28728446e-11
1.90546072e-01 1.20621822e-11 1.20136376e-11 4.85444923e-14 8.89893822e-20 7.01714622e-21 1.20136376e-11
2.18776162e-01 1.12648281e-11 1.12117790e-11 5.30480800e-14 1.05695469e-18 7.81472679e-20 1.12117790e-11
2.51188643e-01 1.05248852e-11 1.04634409e-11 6.14308589e-14 1.33807197e-17 1.26690258e-18 1.04634409e-11
2.88403150e-01 9.81832851e-12 9.76505125e-12 5.31614498e-14 1.15806680e-16 1.18134760e-17 9.76505125e-12
3.31131121e-01 9.16215765e-12 9.11327608e-12 4.81987491e-14 6.82819062e-16 7.15377632e-17 9.11327608e-12
3.80189396e-01 8.55272704e-12 8.50500410e-12 4.48038223e-14 2.91911836e-15 3.13596363e-16 8.50500410e-12
4.36515832e-01 7.98654782e-12 7.93733165e-12 3.97867504e-14 9.42941824e-15 1.03302269e-15 7.93733165e-12
5.01187234e-01 7.46847766e-12 7.40754890e-12 3.69112393e-14 2.40175191e-14 2.70150876e-15 7.40754890e-12
5.75439937e-01 6.99842588e-12 6.91312687e-12 3.51805804e-14 5.01184356e-14 5.73186209e-15 6.91312687e-12
6.60693448e-01 6.57320757e-12 6.45170538e-12 3.27186467e-14 8.87835406e-14 1.02750233e-14 6.45170538e-12
7.58577575e-01 6.19064578e-12 6.02108180e-12 3.10744768e-14 1.38489509e-13 1.56811792e-14 6.02108180e-12
8.70963590e-01 5.84176675e-12 5.61920048e-12 2.80132389e-14 1.94553031e-13 2.13369903e-14 5.61920048e-12
1.00000000e+00 5.51847927e-12 5.24414302e-12 2.40160811e-14 2.50320173e-13 2.62184274e-14 5.24414302e-12
1.14815362e+00 5.22145550e-12 4.89411902e-12 2.10186130e-14 3.06317863e-13 3.03024181e-14 4.89411902e-12
1.31825674e+00 4.94784036e-12 4.56745763e-12 1.57092872e-14 3.64673449e-13 3.25224556e-14 4.56745763e-12
1.51356125e+00 4.70468803e-12 4.26259947e-12 1.21909346e-14 4.29897622e-13 3.44307369e-14 4.26259947e-12
1.73780083e+00 4.48790008e-12 3.97808929e-12 8.97174633e-15 5.00839043e-13 3.42407077e-14 3.97808929e-12
1.99526231e+00 4.29086391e-12 3.71256894e-12 6.13340337e-15 5.72161566e-13 3.10865211e-14 3.71256894e-12
2.29086765e+00 4.10275082e-12 3.46477093e-12 4.03513180e-15 6.33944759e-13 2.64412103e-14 3.46477093e-12
2.63026799e+00 3.90874540e-12 3.23351237e-12 2.86369301e-15 6.72369338e-13 2.06940251e-14 3.23351237e-12
3.01995172e+00 3.70058320e-12 3.01768933e-12 1.76718682e-15 6.81126685e-13 1.53071208e-14 3.01768933e-12
3.46736850e+00 3.47941764e-12 2.81627154e-12 1.18161111e-15 6.61964488e-13 1.09606972e-14 2.81627154e-12
3.98107171e+00 3.24862250e-12 2.62829753e-12 8.09806135e-16 6.19515163e-13 7.54970640e-15 2.62829753e-12
4.57088190e+00 3.01645099e-12 2.45286997e-12 5.15343398e-16 5.63065677e-13 4.96932327e-15 2.45286997e-12
5.24807460e+00 2.53259954e-12 2.02814751e-12 2.89708961e-16 5.04162319e-13 3.12486936e-15 2.02814751e-12
6.02559586e+00 1.79051809e-12 1.33998377e-12 1.21361576e-16 4.50412955e-13 1.89337222e-15 1.33998377e-12
6.70000000e+00 1.38550286e-12 9.74709347e-13 6.20687517e-17 4.10731444e-13 1.24761549e-15 9.74709347e-13
6.92422916e+00 1.28150022e-12 8.83049889e-13 4.98218628e-17 3.98400512e-13 1.08363542e-15 8.83049889e-13
7.15596261e+00 1.19005402e-12 8.00009879e-13 3.88383570e-17 3.90005307e-13 9.35047018e-16 8.00009879e-13
7.39545150e+00 1.11618036e-12 7.24778763e-13 2.91568872e-17 3.91372443e-13 7.97299966e-16 7.24778763e-13
7.64295536e+00 1.07664946e-12 6.56622211e-13 2.10354989e-17 4.20006216e-13 6.59044723e-16 6.56622211e-13
7.89874245e+00 1.08323825e-12 5.94874946e-13 1.25764568e-17 4.88350731e-13 5.35322052e-16 5.94874946e-13
8.16308998e+00 1.13103305e-12 5.38934254e-13 7.87451630e-18 5.92090919e-13 4.24360333e-16 5.38934254e-13
8.43628443e+00 1.22661082e-12 4.88254098e-13 4.41972714e-18 7.38352306e-13 3.29398969e-16 4.88254098e-13
8.71862190e+00 1.28333805e-12 4.42339790e-13 3.03590892e-18 8.40995228e-13 2.64479068e-16 4.42339790e-13
9.01040836e+00 1.35102998e-12 4.00743158e-13 2.02922449e-18 9.50284795e-13 2.03839402e-16 4.00743158e-13
9.31196005e+00 1.39676687e-12 3.63058180e-13 0.00000000e+00 1.03370869e-12 0.00000000e+00 3.63058180e-13
9.62360379e+00 1.35130214e-12 3.28917012e-13 0.00000000e+00 1.02238512e-12 0.00000000e+00 3.28917012e-13
9.94567731e+00 1.24591067e-12 2.97986401e-13 0.00000000e+00 9.47924268e-13 0.00000000e+00 2.97986401e-13
1.02785297e+01 1.12278350e-12 2.69964435e-13 0.00000000e+00 8.52819064e-13 0.00000000e+00 2.69964435e-13
1.06225216e+01 1.00879492e-12 2.44577592e-13 0.00000000e+00 7.64217332e-13 0.00000000e+00 2.44577592e-13
1.09780260e+01 8.91233963e-13 2.21578069e-13 0.00000000e+00 6.69655894e-13 0.00000000e+00 2.21578069e-13
1.13454280e+01 7.90346464e-13 2.00741370e-13 0.00000000e+00 5.89605094e-13 0.00000000e+00 2.00741370e-13
1.17251259e+01 7.04433800e-13 1.81864106e-13 0.00000000e+00 5.22569694e-13 0.00000000e+00 1.81864106e-13
1.21175312e+01 6.29411325e-13 1.64762018e-13 0.00000000e+00 4.64649307e-13 0.00000000e+00 1.64762018e-13
1.25230691e+01 5.61955264e-13 1.49268171e-13 0.00000000e+00 4.12687093e-13 0.00000000e+00 1.49268171e-13
1.29421791e+01 5.03801598e-13 1.35231331e-13 0.00000000e+00 3.68570267e-13 0.00000000e+00 1.35231331e-13
1.33753155e+01 4.55309523e-13 1.22514483e-13 0.00000000e+00 3.32795040e-13 0.00000000e+00 1.22514483e-13
1.38229477e+01 4.20627173e-13 1.10993499e-13 0.00000000e+00 3.09633675e-13 0.00000000e+00 1.10993499e-13
1.42855609e+01 3.96679510e-13 1.00555922e-13 0.00000000e+00 2.96123589e-13 0.00000000e+00 1.00555922e-13
1.47636563e+01 3.89656060e-13 9.10998706e-14 0.00000000e+00 2.98556190e-13 0.00000000e+00 9.10998706e-14
1.52577522e+01 3.87469097e-13 8.25330452e-14 0.00000000e+00 3.04936052e-13 0.00000000e+00 8.25330452e-14
1.57683840e+01 3.89073847e-13 7.47718247e-14 0.00000000e+00 3.14302023e-13 0.00000000e+00 7.47718247e-14
1.62961051e+01 3.90667867e-13 6.77404517e-14 0.00000000e+00 3.22927416e-13 0.00000000e+00 6.77404517e-14
1.68414875e+01 3.93772141e-13 6.13702932e-14 0.00000000e+00 3.32401848e-13 0.00000000e+00 6.13702932e-14
1.74051222e+01 3.91204560e-13 5.55991699e-14 0.00000000e+00 3.35605390e-13 0.00000000e+00 5.55991699e-14
1.79876201e+01 3.86056932e-13 5.03707500e-14 0.00000000e+00 3.35686182e-13 0.00000000e+00 5.03707500e-14
1.85896125e+01 3.74973852e-13 4.56339988e-14 0.00000000e+00 3.29339854e-13 0.00000000e+00 4.56339988e-14
1.92117518e+01 3.58631905e-13 4.13426810e-14 0.00000000e+00 3.17289224e-13 0.00000000e+00 4.13426810e-14
1.98547123e+01 3.41023495e-13 3.74549090e-14 0.00000000e+00 3.03568586e-13 0.00000000e+00 3.74549090e-14
2.05191907e+01 3.21948608e-13 3.39327342e-14 0.00000000e+00 2.88015874e-13 0.00000000e+00 3.39327342e-14
2.12059073e+01 3.04662469e-13 3.07417768e-14 0.00000000e+00 2.73920692e-13 0.00000000e+00 3.07417768e-14
2.19156062e+01 2.88881438e-13 2.78508898e-14 0.00000000e+00 2.61030549e-13 0.00000000e+00 2.78508898e-14
2.26490567e+01 2.74288750e-13 2.52318552e-14 0.00000000e+00 2.49056895e-13 0.00000000e+00 2.52318552e-14
2.34070535e+01 2.60898108e-13 2.28591087e-14 0.00000000e+00 2.38039000e-13 0.00000000e+00 2.28591087e-14
2.41904183e+01 2.48058674e-13 2.07094900e-14 0.00000000e+00 2.27349184e-13 0.00000000e+00 2.07094900e-14
2.50000000e+01 2.36207311e-13 1.87620165e-14 0.00000000e+00 2.17445294e-13 0.00000000e+00 1.87620165e-14
2.75422870e+01 2.04470075e-13 1.40313526e-14 0.00000000e+00 1.90438723e-13 0.00000000e+00 1.40313526e-14
3.16227766e+01 1.63409113e-13 9.27042274e-15 0.00000000e+00 1.54138690e-13 0.00000000e+00 9.27042274e-15
3.63078055e+01 1.25245490e-13 6.12490756e-15 0.00000000e+00 1.19120583e-13 0.00000000e+00 6.12490756e-15
4.16869383e+01 9.08751033e-14 4.04668630e-15 0.00000000e+00 8.68284170e-14 0.00000000e+00 4.04668630e-15
4.78630092e+01 6.23498606e-14 2.67361912e-15 0.00000000e+00 5.96762415e-14 0.00000000e+00 2.67361912e-15
5.49540874e+01 4.09276417e-14 1.76644264e-15 0.00000000e+00 3.91611991e-14 0.00000000e+00 1.76644264e-15
6.30957344e+01 2.59454556e-14 1.16707708e-15 0.00000000e+00 2.47783785e-14 0.00000000e+00 1.16707708e-15
7.24435960e+01 1.59967621e-14 7.71080178e-16 0.00000000e+00 1.52256820e-14 0.00000000e+00 7.71080178e-16
8.31763771e+01 9.64512938e-15 5.09447621e-16 0.00000000e+00 9.13568176e-15 0.00000000e+00 5.09447621e-16
9.54992586e+01 5.71837172e-15 3.36588705e-16 0.00000000e+00 5.38178301e-15 0.00000000e+00 3.36588705e-16
1.09647820e+02 3.34362142e-15 2.22381952e-16 0.00000000e+00 3.12123947e-15 0.00000000e+00 2.22381952e-16
1.25892541e+02 1.95261569e-15 1.46926299e-16 0.00000000e+00 1.80568940e-15 0.00000000e+00 1.46926299e-16
1.44543977e+02 1.13222242e-15 9.70732430e-17 0.00000000e+00 1.03514918e-15 0.00000000e+00 9.70732430e-17
1.65958691e+02 6.26665985e-16 6.41356556e-17 0.00000000e+00 5.62530329e-16 0.00000000e+00 6.41356556e-17
1.90546072e+02 3.47192257e-16 4.23740075e-17 0.00000000e+00 3.04818249e-16 0.00000000e+00 4.23740075e-17
2.18776162e+02 1.92282081e-16 2.79962291e-17 0.00000000e+00 1.64285852e-16 0.00000000e+00 2.79962291e-17
2.51188643e+02 1.06411359e-16 1.84969251e-17 0.00000000e+00 8.79144343e-17 0.00000000e+00 1.84969251e-17
2.88403150e+02 5.88894641e-17 1.22207972e-17 0.00000000e+00 4.66686669e-17 0.00000000e+00 1.22207972e-17
3.31131121e+02 3.27030809e-17 8.07420067e-18 0.00000000e+00 2.46288803e-17 0.00000000e+00 8.07420067e-18
3.80189396e+02 1.82471288e-17 5.33457148e-18 0.00000000e+00 1.29125573e-17 0.00000000e+00 5.33457148e-18
4.36515832e+02 1.02608527e-17 3.52451642e-18 0.00000000e+00 6.73633628e-18 0.00000000e+00 3.52451642e-18
5.01187234e+02 5.82576615e-18 2.32862491e-18 0.00000000e+00 3.49714124e-18 0.00000000e+00 2.32862491e-18
5.75439937e+02 3.34651237e-18 1.53850722e-18 0.00000000e+00 1.80800515e-18 0.00000000e+00 1.53850722e-18
6.60693448e+02 1.94786252e-18 1.01648164e-18 0.00000000e+00 9.31380880e-19 0.00000000e+00 1.01648164e-18
7.58577575e+02 1.14987497e-18 6.71582760e-19 0.00000000e+00 4.78292208e-19 0.00000000e+00 6.71582760e-19
8.70963590e+02 6.88595673e-19 4.43710329e-19 0.00000000e+00 2.44885344e-19 0.00000000e+00 4.43710329e-19
1.00000000e+03 1.25041830e-19 0.00000000e+00 0.00000000e+00 1.25041830e-19 0.00000000e+00 0.00000000e+00
