# column 1: lambda (micron)
# column 2: total flux; lambda*F_lambda (W/m2)
# column 3: direct stellar flux; lambda*F_lambda (W/m2)
# column 4: scattered stellar flux; lambda*F_lambda (W/m2)
# column 5: total dust emission flux; lambda*F_lambda (W/m2)
# column 6: dust emission scattered flux; lambda*F_lambda (W/m2)
# column 7: transparent flux; lambda*F_lambda (W/m2)
1.00000000e-03 3.57785694e-13 3.57785423e-13 2.70872957e-19 0.00000000e+00 0.00000000e+00 3.57785423e-13
1.14815362e-03 4.22301960e-13 4.22301518e-13 4.41366015e-19 0.00000000e+00 0.00000000e+00 4.22301518e-13
1.31825674e-03 4.98451940e-13 4.98451197e-13 7.43443097e-19 0.00000000e+00 0.00000000e+00 4.98451197e-13
1.51356125e-03 5.88333377e-13 5.88332233e-13 1.14418083e-18 0.00000000e+00 0.00000000e+00 5.88332233e-13
1.73780083e-03 6.94422872e-13 6.94420676e-13 2.19651192e-18 0.00000000e+00 0.00000000e+00 6.94420676e-13
1.99526231e-03 8.19642810e-13 8.19639053e-13 3.75708549e-18 0.00000000e+00 0.00000000e+00 8.19639053e-13
2.29086765e-03 9.67442742e-13 9.67436888e-13 5.85328062e-18 0.00000000e+00 0.00000000e+00 9.67436888e-13
2.63026799e-03 1.14189669e-12 1.14188572e-12 1.09624795e-17 0.00000000e+00 0.00000000e+00 1.14188572e-12
3.01995172e-03 1.34781146e-12 1.34779128e-12 2.01810699e-17 0.00000000e+00 0.00000000e+00 1.34779128e-12
3.46736850e-03 1.59085651e-12 1.59082586e-12 3.06425365e-17 0.00000000e+00 0.00000000e+00 1.59082586e-12
3.98107171e-03 1.87773162e-12 1.87768459e-12 4.70220156e-17 0.00000000e+00 0.00000000e+00 1.87768459e-12
4.57088190e-03 2.21637046e-12 2.21626987e-12 1.00584284e-16 0.00000000e+00 0.00000000e+00 2.21626987e-12
5.24807460e-03 2.61614280e-12 2.61590907e-12 2.33737371e-16 0.00000000e+00 0.00000000e+00 2.61590907e-12
6.02559586e-03 3.08796726e-12 3.08761145e-12 3.55806940e-16 0.00000000e+00 0.00000000e+00 3.08761145e-12
6.91830971e-03 3.64501922e-12 3.64437151e-12 6.47710833e-16 0.00000000e+00 0.00000000e+00 3.64437151e-12
7.94328235e-03 4.30253487e-12 4.30152690e-12 1.00796747e-15 7.33725524e-305 2.26015159e-305 4.30152690e-12
9.12010839e-03 5.07878727e-12 5.07718096e-12 1.60630472e-15 5.86079566e-266 2.04653689e-266 5.07718096e-12
1.04712855e-02 5.67255882e-12 5.67051724e-12 2.04157833e-15 4.09880246e-232 1.43027995e-232 5.67051724e-12
1.20226443e-02 5.67345977e-12 5.67051724e-12 2.94253225e-15 9.76593888e-203 3.36366887e-203 5.67051724e-12
1.38038426e-02 5.67489762e-12 5.67051724e-12 4.38038065e-15 3.25682234e-177 7.22654286e-178 5.67051724e-12
1.58489319e-02 5.67641344e-12 5.67051724e-12 5.89619795e-15 6.91633971e-155 2.24356246e-155 5.67051724e-12
1.81970086e-02 5.68222428e-12 5.67051724e-12 1.17070454e-14 1.45051418e-135 3.51897234e-136 5.67051724e-12
2.08929613e-02 5.68365263e-12 5.67051724e-12 1.31353885e-14 9.41454671e-119 2.13567559e-119 5.67051724e-12
2.39883292e-02 5.68646700e-12 5.67051724e-12 1.59497601e-14 3.91258120e-104 7.33323314e-105 5.67051724e-12
2.75422870e-02 5.68706439e-12 5.67051724e-12 1.65471543e-14 2.03098346e-91 3.31857656e-92 5.67051724e-12
3.16227766e-02 5.69678821e-12 5.67051724e-12 2.62709715e-14 2.23311801e-80 3.40885930e-81 5.67051724e-12
3.63078055e-02 5.69774140e-12 5.67051724e-12 2.72241563e-14 8.63393541e-71 1.11893798e-71 5.67051724e-12
4.16869383e-02 5.70367167e-12 5.67051724e-12 3.31544334e-14 1.84594099e-62 2.42156511e-63 5.67051724e-12
4.78630092e-02 5.71084381e-12 5.67051724e-12 4.03265760e-14 2.97997248e-55 3.67792666e-56 5.67051724e-12
5.49540874e-02 5.71752606e-12 5.67051724e-12 4.70088260e-14 5.18955911e-49 5.51144363e-50 5.67051724e-12
6.30957344e-02 5.72081322e-12 5.67051724e-12 5.02959813e-14 1.69242182e-43 1.58309299e-44 5.67051724e-12
7.24435960e-02 5.72069287e-12 5.67051724e-12 5.01756271e-14 9.89156002e-39 7.87958797e-40 5.67051724e-12
8.31763771e-02 5.71941635e-12 5.67051724e-12 4.88991128e-14 1.10533647e-34 8.57663695e-36 5.67051724e-12
9.54992586e-02 5.72228849e-12 5.67051724e-12 5.17712487e-14 3.31520453e-31 2.69091034e-32 5.67051724e-12
1.09647820e-01 5.46565723e-12 5.41530405e-12 5.03531830e-14 3.06575163e-28 2.83708262e-29 5.41530405e-12
1.25892541e-01 5.09834998e-12 5.05385580e-12 4.44941880e-14 1.10009814e-25 1.08613477e-26 5.05385580e-12
1.44543977e-01 4.75506461e-12 4.71653266e-12 3.85319514e-14 1.65987056e-23 1.73880863e-24 4.71653266e-12
1.65958691e-01 4.44138527e-12 4.40172439e-12 3.96608853e-14 9.14241142e-22 1.12135398e-22 4.40172439e-12
1.90546072e-01 4.14780637e-12 4.10792822e-12 3.98781339e-14 1.91649630e-20 2.38352152e-21 4.10792822e-12
2.18776162e-01 3.87625386e-12 3.83374167e-12 4.25119689e-14 2.17382364e-19 2.47895157e-20 3.83374167e-12
2.51188643e-01 3.62351188e-12 3.57785591e-12 4.56529897e-14 2.98045486e-18 4.41451368e-19 3.57785591e-12
2.88403150e-01 3.37978760e-12 3.33904941e-12 4.07108635e-14 2.73280288e-17 4.59217170e-18 3.33904941e-12
3.31131121e-01 3.15317022e-12 3.11618222e-12 3.68186786e-14 1.69312683e-16 3.00230716e-17 3.11618222e-12
3.80189396e-01 2.94212505e-12 2.90819046e-12 3.31757729e-14 7.58817367e-16 1.40782715e-16 2.90819046e-12
4.36515832e-01 2.74810756e-12 2.71408126e-12 3.14210522e-14 2.60525005e-15 5.05334960e-16 2.71408126e-12
5.01187234e-01 2.56853414e-12 2.53292801e-12 2.84831002e-14 7.12303796e-15 1.42643847e-15 2.53292801e-12
5.75439937e-01 2.40715595e-12 2.36386595e-12 2.70125909e-14 1.62774053e-14 3.21427736e-15 2.36386595e-12
6.60693448e-01 2.26106527e-12 2.20608807e-12 2.36849913e-14 3.12922127e-14 5.99739576e-15 2.20608807e-12
7.58577575e-01 2.13561768e-12 2.05884118e-12 2.24862921e-14 5.42902113e-14 9.82234660e-15 2.05884118e-12
8.70963590e-01 2.02556905e-12 1.92142238e-12 1.88682752e-14 8.52783916e-14 1.38474951e-14 1.92142238e-12
1.00000000e+00 1.93305324e-12 1.79317570e-12 1.71413563e-14 1.22736183e-13 1.71729594e-14 1.79317570e-12
1.14815362e+00 1.85507760e-12 1.67348894e-12 1.34194034e-14 1.68169257e-13 1.96223438e-14 1.67348894e-12
1.31825674e+00 1.79292953e-12 1.56179075e-12 1.04475732e-14 2.20691212e-13 2.07563444e-14 1.56179075e-12
1.51356125e+00 1.74494325e-12 1.45754793e-12 7.72829274e-15 2.79667022e-13 2.12427740e-14 1.45754793e-12
1.73780083e+00 1.70712055e-12 1.36026288e-12 5.81679225e-15 3.41040879e-13 2.04569138e-14 1.36026288e-12
1.99526231e+00 1.67266819e-12 1.26947118e-12 4.22940675e-15 3.98967604e-13 1.79869522e-14 1.26947118e-12
2.29086765e+00 1.63057433e-12 1.18473944e-12 2.70521994e-15 4.43129674e-13 1.44856339e-14 1.18473944e-12
2.63026799e+00 1.57354808e-12 1.10566318e-12 1.74247061e-15 4.66142431e-13 1.09270613e-14 1.10566318e-12
3.01995172e+00 1.49933179e-12 1.03186491e-12 1.16056690e-15 4.66306313e-13 7.82557937e-15 1.03186491e-12
3.46736850e+00 1.40895498e-12 9.62992369e-13 7.95380377e-16 4.45167228e-13 5.51208189e-15 9.62992369e-13
3.98107171e+00 1.30791045e-12 8.98716770e-13 5.44124339e-16 4.08649553e-13 3.80586649e-15 8.98716770e-13
4.57088190e+00 1.20565626e-12 8.38731291e-13 3.63299669e-16 3.66561673e-13 2.61788922e-15 8.38731291e-13
5.24807460e+00 1.01988780e-12 6.93502223e-13 1.94681994e-16 3.26190898e-13 1.76154158e-15 6.93502223e-13
6.02559586e+00 7.50938501e-13 4.58192375e-13 9.05667300e-17 2.92655559e-13 1.13506942e-15 4.58192375e-13
6.70000000e+00 6.02756326e-13 3.33290895e-13 4.95199817e-17 2.69415911e-13 7.92419091e-16 3.33290895e-13
6.92422916e+00 5.64262157e-13 3.01948975e-13 3.74939824e-17 2.62275689e-13 7.02656767e-16 3.01948975e-13
7.15596261e+00 5.31341789e-13 2.73554377e-13 2.82696089e-17 2.57759142e-13 6.12569071e-16 2.73554377e-13
7.39545150e+00 5.07064425e-13 2.47829944e-13 2.27912036e-17 2.59211690e-13 5.26299979e-16 2.47829944e-13
7.64295536e+00 5.00542363e-13 2.24524577e-13 1.60903017e-17 2.76001695e-13 4.27896998e-16 2.24524577e-13
7.89874245e+00 5.20885921e-13 2.03410795e-13 9.62277232e-18 3.17465503e-13 3.26998038e-16 2.03410795e-13
8.16308998e+00 5.63492859e-13 1.84282505e-13 5.80148040e-18 3.79204553e-13 2.45421748e-16 1.84282505e-13
8.43628443e+00 6.33121167e-13 1.66952996e-13 3.17395599e-18 4.66164998e-13 1.79576385e-16 1.66952996e-13
8.71862190e+00 6.75894009e-13 1.51253114e-13 2.04768555e-18 5.24638847e-13 1.39253516e-16 1.51253114e-13
9.01040836e+00 7.22622557e-13 1.37029614e-13 1.39220731e-18 5.85591550e-13 1.06011734e-16 1.37029614e-13
9.31196005e+00 7.56980523e-13 1.24143660e-13 0.00000000e+00 6.32836863e-13 0.00000000e+00 1.24143660e-13
9.62360379e+00 7.38431083e-13 1.12469472e-13 0.00000000e+00 6.25961612e-13 0.00000000e+00 1.12469472e-13
9.94567731e+00 6.78664695e-13 1.01893097e-13 0.00000000e+00 5.76771597e-13 0.00000000e+00 1.01893097e-13
1.02785297e+01 6.11055241e-13 9.23113014e-14 0.00000000e+00 5.18743939e-13 0.00000000e+00 9.23113014e-14
1.06225216e+01 5.48343896e-13 8.36305558e-14 0.00000000e+00 4.64713341e-13 0.00000000e+00 8.36305558e-14
1.09780260e+01 4.85674448e-13 7.57661279e-14 0.00000000e+00 4.09908320e-13 0.00000000e+00 7.57661279e-14
1.13454280e+01 4.32466162e-13 6.86412529e-14 0.00000000e+00 3.63824909e-13 0.00000000e+00 6.86412529e-14
1.17251259e+01 3.86430835e-13 6.21863851e-14 0.00000000e+00 3.24244450e-13 0.00000000e+00 6.21863851e-14
1.21175312e+01 3.47443646e-13 5.63385184e-14 0.00000000e+00 2.91105128e-13 0.00000000e+00 5.63385184e-14
1.25230691e+01 3.13448887e-13 5.10405718e-14 0.00000000e+00 2.62408315e-13 0.00000000e+00 5.10405718e-14
1.29421791e+01 2.83927679e-13 4.62408321e-14 0.00000000e+00 2.37686847e-13 0.00000000e+00 4.62408321e-14
1.33753155e+01 2.59372195e-13 4.18924490e-14 0.00000000e+00 2.17479746e-13 0.00000000e+00 4.18924490e-14
1.38229477e+01 2.41923570e-13 3.79529781e-14 0.00000000e+00 2.03970592e-13 0.00000000e+00 3.79529781e-14
1.42855609e+01 2.30810853e-13 3.43839660e-14 0.00000000e+00 1.96426887e-13 0.00000000e+00 3.43839660e-14
1.47636563e+01 2.28382041e-13 3.11505758e-14 0.00000000e+00 1.97231465e-13 0.00000000e+00 3.11505758e-14
1.52577522e+01 2.27364559e-13 2.82212462e-14 0.00000000e+00 1.99143313e-13 0.00000000e+00 2.82212462e-14
1.57683840e+01 2.28215867e-13 2.55673842e-14 0.00000000e+00 2.02648482e-13 0.00000000e+00 2.55673842e-14
1.62961051e+01 2.29476870e-13 2.31630853e-14 0.00000000e+00 2.06313785e-13 0.00000000e+00 2.31630853e-14
1.68414875e+01 2.29687100e-13 2.09848813e-14 0.00000000e+00 2.08702219e-13 0.00000000e+00 2.09848813e-14
1.74051222e+01 2.28197359e-13 1.90115106e-14 0.00000000e+00 2.09185849e-13 0.00000000e+00 1.90115106e-14
1.79876201e+01 2.25403561e-13 1.72237112e-14 0.00000000e+00 2.08179850e-13 0.00000000e+00 1.72237112e-14
1.85896125e+01 2.19083935e-13 1.56040325e-14 0.00000000e+00 2.03479903e-13 0.00000000e+00 1.56040325e-14
1.92117518e+01 2.10643220e-13 1.41366646e-14 0.00000000e+00 1.96506555e-13 0.00000000e+00 1.41366646e-14
1.98547123e+01 2.00382455e-13 1.28072847e-14 0.00000000e+00 1.87575170e-13 0.00000000e+00 1.28072847e-14
2.05191907e+01 1.90740438e-13 1.16029167e-14 0.00000000e+00 1.79137522e-13 0.00000000e+00 1.16029167e-14
2.12059073e+01 1.81517969e-13 1.05118047e-14 0.00000000e+00 1.71006165e-13 0.00000000e+00 1.05118047e-14
2.19156062e+01 1.72837727e-13 9.52329842e-15 0.00000000e+00 1.63314429e-13 0.00000000e+00 9.52329842e-15
2.26490567e+01 1.64391117e-13 8.62774902e-15 0.00000000e+00 1.55763368e-13 0.00000000e+00 8.62774902e-15
2.34070535e+01 1.56816098e-13 7.81641505e-15 0.00000000e+00 1.48999683e-13 0.00000000e+00 7.81641505e-15
2.41904183e+01 1.49845255e-13 7.08137710e-15 0.00000000e+00 1.42763878e-13 0.00000000e+00 7.08137710e-15
2.50000000e+01 1.43103999e-13 6.41546044e-15 0.00000000e+00 1.36688538e-13 0.00000000e+00 6.41546044e-15
2.75422870e+01 1.24211999e-13 4.79786316e-15 0.00000000e+00 1.19414136e-13 0.00000000e+00 4.79786316e-15
3.16227766e+01 9.92919784e-14 3.16991676e-15 0.00000000e+00 9.61220616e-14 0.00000000e+00 3.16991676e-15
3.63078055e+01 7.53353777e-14 2.09434323e-15 0.00000000e+00 7.32410345e-14 0.00000000e+00 2.09434323e-15
4.16869383e+01 5.41308854e-14 1.38371885e-15 0.00000000e+00 5.27471666e-14 0.00000000e+00 1.38371885e-15
4.78630092e+01 3.66034884e-14 9.14213979e-16 0.00000000e+00 3.56892744e-14 0.00000000e+00 9.14213979e-16
5.49540874e+01 2.35679802e-14 6.04015186e-16 0.00000000e+00 2.29639650e-14 0.00000000e+00 6.04015186e-16
6.30957344e+01 1.45800685e-14 3.99068876e-16 0.00000000e+00 1.41809996e-14 0.00000000e+00 3.99068876e-16
7.24435960e+01 8.74209526e-15 2.63662192e-16 0.00000000e+00 8.47843307e-15 0.00000000e+00 2.63662192e-16
8.31763771e+01 5.11427882e-15 1.74199882e-16 0.00000000e+00 4.94007894e-15 0.00000000e+00 1.74199882e-16
9.54992586e+01 2.93945982e-15 1.15092721e-16 0.00000000e+00 2.82436710e-15 0.00000000e+00 1.15092721e-16
1.09647820e+02 1.66762495e-15 7.60410067e-17 0.00000000e+00 1.59158394e-15 0.00000000e+00 7.60410067e-17
1.25892541e+02 9.46487308e-16 5.02397949e-17 0.00000000e+00 8.96247514e-16 0.00000000e+00 5.02397949e-17
1.44543977e+02 5.34444018e-16 3.31931033e-17 0.00000000e+00 5.01250915e-16 0.00000000e+00 3.31931033e-17
1.65958691e+02 2.88128504e-16 2.19304659e-17 0.00000000e+00 2.66198038e-16 0.00000000e+00 2.19304659e-17
1.90546072e+02 1.55826187e-16 1.44893151e-17 0.00000000e+00 1.41336872e-16 0.00000000e+00 1.44893151e-17
2.18776162e+02 8.43870937e-17 9.57299556e-18 0.00000000e+00 7.48140981e-17 0.00000000e+00 9.57299556e-18
2.51188643e+02 4.57355115e-17 6.32481544e-18 0.00000000e+00 3.94106961e-17 0.00000000e+00 6.32481544e-18
2.88403150e+02 2.48124018e-17 4.17876412e-18 0.00000000e+00 2.06336377e-17 0.00000000e+00 4.17876412e-18
3.31131121e+02 1.35202376e-17 2.76088208e-18 0.00000000e+00 1.07593555e-17 0.00000000e+00 2.76088208e-18
3.80189396e+02 7.40624375e-18 1.82409670e-18 0.00000000e+00 5.58214705e-18 0.00000000e+00 1.82409670e-18
4.36515832e+02 4.09107033e-18 1.20516874e-18 0.00000000e+00 2.88590159e-18 0.00000000e+00 1.20516874e-18
5.01187234e+02 2.28271425e-18 7.96247089e-19 0.00000000e+00 1.48646716e-18 0.00000000e+00 7.96247089e-19
5.75439937e+02 1.28937037e-18 5.26075235e-19 0.00000000e+00 7.63295138e-19 0.00000000e+00 5.26075235e-19
6.60693448e+02 7.38470178e-19 3.47574461e-19 0.00000000e+00 3.90895718e-19 0.00000000e+00 3.47574461e-19
7.58577575e+02 4.29352502e-19 2.29640169e-19 0.00000000e+00 1.99712333e-19 0.00000000e+00 2.29640169e-19
8.70963590e+02 2.53523443e-19 1.51721755e-19 0.00000000e+00 1.01801688e-19 0.00000000e+00 1.51721755e-19
1.00000000e+03 5.17820515e-20 0.00000000e+00 0.00000000e+00 5.17820515e-20 0.00000000e+00 0.00000000e+00
