# column 1: lambda (micron)
# column 2: total flux; lambda*F_lambda (W/m2)
# column 3: direct stellar flux; lambda*F_lambda (W/m2)
# column 4: scattered stellar flux; lambda*F_lambda (W/m2)
# column 5: total dust emission flux; lambda*F_lambda (W/m2)
# column 6: dust emission scattered flux; lambda*F_lambda (W/m2)
# column 7: transparent flux; lambda*F_lambda (W/m2)
1.00000000e-03 3.55384462e-13 3.55362434e-13 2.20277118e-17 0.00000000e+00 0.00000000e+00 3.57785423e-13
1.14815362e-03 4.18544381e-13 4.18527245e-13 1.71364632e-17 0.00000000e+00 0.00000000e+00 4.22301518e-13
1.31825674e-03 4.92824691e-13 4.92794108e-13 3.05828808e-17 0.00000000e+00 0.00000000e+00 4.98451197e-13
1.51356125e-03 5.80547633e-13 5.80468066e-13 7.95672502e-17 0.00000000e+00 0.00000000e+00 5.88332233e-13
1.73780083e-03 6.85599290e-13 6.85043155e-13 5.56134663e-16 0.00000000e+00 0.00000000e+00 6.94420676e-13
1.99526231e-03 8.05953735e-13 8.04996517e-13 9.57217977e-16 0.00000000e+00 0.00000000e+00 8.19639053e-13
2.29086765e-03 9.50059775e-13 9.49119640e-13 9.40135744e-16 0.00000000e+00 0.00000000e+00 9.67436888e-13
2.63026799e-03 1.11708329e-12 1.11602590e-12 1.05738718e-15 0.00000000e+00 0.00000000e+00 1.14188572e-12
3.01995172e-03 1.31214731e-12 1.31014290e-12 2.00441180e-15 0.00000000e+00 0.00000000e+00 1.34779128e-12
3.46736850e-03 1.54032785e-12 1.53858082e-12 1.74703173e-15 0.00000000e+00 0.00000000e+00 1.59082586e-12
3.98107171e-03 1.81012531e-12 1.80726725e-12 2.85806265e-15 0.00000000e+00 0.00000000e+00 1.87768459e-12
4.57088190e-03 2.16712063e-12 2.16047624e-12 6.64438744e-15 0.00000000e+00 0.00000000e+00 2.21626987e-12
5.24807460e-03 2.69024773e-12 2.53209270e-12 1.58155029e-13 0.00000000e+00 0.00000000e+00 2.61590907e-12
6.02559586e-03 3.21298251e-12 2.96872310e-12 2.44259405e-13 0.00000000e+00 0.00000000e+00 3.08761145e-12
6.91830971e-03 3.51126629e-12 3.48290212e-12 2.83641659e-14 0.00000000e+00 0.00000000e+00 3.64437151e-12
7.94328235e-03 4.19378197e-12 4.08944990e-12 1.04332073e-13 3.46511122e-304 1.22748810e-305 4.30152690e-12
9.12010839e-03 4.89788746e-12 4.80016514e-12 9.77223206e-14 2.67172397e-265 8.56274975e-267 5.07718096e-12
1.04712855e-02 5.57016812e-12 5.34195407e-12 2.28214051e-13 1.88300071e-231 8.37315130e-233 5.67051724e-12
1.20226443e-02 5.48885411e-12 5.32316898e-12 1.65685133e-13 4.55565689e-202 2.16892370e-203 5.67051724e-12
1.38038426e-02 5.52600094e-12 5.30097341e-12 2.25027531e-13 1.82593279e-176 1.09330909e-177 5.67051724e-12
1.58489319e-02 5.54137811e-12 5.27382348e-12 2.67554630e-13 3.44807865e-154 2.28517026e-155 5.67051724e-12
1.81970086e-02 5.52510791e-12 5.24890581e-12 2.76202099e-13 8.10337739e-135 4.82578705e-136 5.67051724e-12
2.08929613e-02 5.51278018e-12 5.22828350e-12 2.84496681e-13 5.46083173e-118 3.74845235e-119 5.67051724e-12
2.39883292e-02 5.51183428e-12 5.20168437e-12 3.10149907e-13 2.35177169e-103 1.40052665e-104 5.67051724e-12
2.75422870e-02 5.48773339e-12 5.17091514e-12 3.16818256e-13 1.27546911e-90 8.58763843e-92 5.67051724e-12
3.16227766e-02 5.48014224e-12 5.14093128e-12 3.39210956e-13 1.45626365e-79 9.90650525e-81 5.67051724e-12
3.63078055e-02 5.45494760e-12 5.11753514e-12 3.37412462e-13 5.78992849e-70 3.79228004e-71 5.67051724e-12
4.16869383e-02 5.45893652e-12 5.09738513e-12 3.61551388e-13 1.24834415e-61 9.13193035e-63 5.67051724e-12
4.78630092e-02 5.38945477e-12 5.04225193e-12 3.47202845e-13 2.08649994e-54 1.58760555e-55 5.67051724e-12
5.49540874e-02 5.32615958e-12 4.96656864e-12 3.59590947e-13 3.75442414e-48 2.97699809e-49 5.67051724e-12
6.30957344e-02 5.16537226e-12 4.78175076e-12 3.83621497e-13 1.28293530e-42 1.06068761e-43 5.67051724e-12
7.24435960e-02 4.94201508e-12 4.57170922e-12 3.70305857e-13 7.71707648e-38 6.10111781e-39 5.67051724e-12
8.31763771e-02 4.93945984e-12 4.59001976e-12 3.49440076e-13 8.42405654e-34 6.48001481e-35 5.67051724e-12
9.54992586e-02 4.98456437e-12 4.64414766e-12 3.40416705e-13 2.51827810e-30 1.93237578e-31 5.67051724e-12
1.09647820e-01 4.91715214e-12 4.58757313e-12 3.29579013e-13 2.29049030e-27 1.81639530e-28 5.41530405e-12
1.25892541e-01 4.70582014e-12 4.40882645e-12 2.96993695e-13 7.89284382e-25 6.22847808e-26 5.05385580e-12
1.44543977e-01 4.46454311e-12 4.21184127e-12 2.52701843e-13 1.13616954e-22 8.67383229e-24 4.71653266e-12
1.65958691e-01 4.21545207e-12 3.98692419e-12 2.28527872e-13 5.99715014e-21 4.80611976e-22 4.40172439e-12
1.90546072e-01 3.93514041e-12 3.69627654e-12 2.38863740e-13 1.29048725e-19 1.17216721e-20 4.10792822e-12
2.18776162e-01 3.61465356e-12 3.38711227e-12 2.27539755e-13 1.53662531e-18 1.41131256e-19 3.83374167e-12
2.51188643e-01 3.46206055e-12 3.24042701e-12 2.21614089e-13 1.94497031e-17 2.06991028e-18 3.57785591e-12
2.88403150e-01 3.26361902e-12 3.07542711e-12 1.88024756e-13 1.67157414e-16 1.75336029e-17 3.33904941e-12
3.31131121e-01 3.06662490e-12 2.90059569e-12 1.65047959e-13 9.81251116e-16 9.98268173e-17 3.11618222e-12
3.80189396e-01 2.88083655e-12 2.73074399e-12 1.45917459e-13 4.17509760e-15 4.16311845e-16 2.90819046e-12
4.36515832e-01 2.70800911e-12 2.56937105e-12 1.25140638e-13 1.34974190e-14 1.32890114e-15 2.71408126e-12
5.01187234e-01 2.56002496e-12 2.41653461e-12 1.09195158e-13 3.42951912e-14 3.33703482e-15 2.53292801e-12
5.75439937e-01 2.43606753e-12 2.27124420e-12 9.30931530e-14 7.17301737e-14 6.95839711e-15 2.36386595e-12
6.60693448e-01 2.33991849e-12 2.13304776e-12 7.94976068e-14 1.27373115e-13 1.21851937e-14 2.20608807e-12
7.58577575e-01 2.27006327e-12 2.00196052e-12 6.74557145e-14 2.00647034e-13 1.90429070e-14 2.05884118e-12
8.70963590e-01 2.22274130e-12 1.87811658e-12 5.61988720e-14 2.88425854e-13 2.76529686e-14 1.92142238e-12
1.00000000e+00 2.18919058e-12 1.76074827e-12 4.74427593e-14 3.80999550e-13 3.60318761e-14 1.79317570e-12
1.14815362e+00 2.17565782e-12 1.64964622e-12 3.79348828e-14 4.88076717e-13 4.67495909e-14 1.67348894e-12
1.31825674e+00 2.19246041e-12 1.54457007e-12 3.09900193e-14 6.16900326e-13 5.81137978e-14 1.56179075e-12
1.51356125e+00 2.24717745e-12 1.44523969e-12 2.32951438e-14 7.78642609e-13 7.13369776e-14 1.45754793e-12
1.73780083e+00 2.33975882e-12 1.35161095e-12 1.83163951e-14 9.69831482e-13 8.02578084e-14 1.36026288e-12
1.99526231e+00 2.45734219e-12 1.26348613e-12 1.35420597e-14 1.18031399e-12 8.21902680e-14 1.26947118e-12
2.29086765e+00 2.57382485e-12 1.18061294e-12 8.96733892e-15 1.38424457e-12 7.69264150e-14 1.18473944e-12
2.63026799e+00 2.65317811e-12 1.10279192e-12 6.43566264e-15 1.54395053e-12 6.63500933e-14 1.10566318e-12
3.01995172e+00 2.67756248e-12 1.02984161e-12 4.50623661e-15 1.64321463e-12 5.44398644e-14 1.03186491e-12
3.46736850e+00 2.65199278e-12 9.61543462e-13 3.12545531e-15 1.68732387e-12 4.28775694e-14 9.62992369e-13
3.98107171e+00 2.56099588e-12 8.97665999e-13 2.17156845e-15 1.66115832e-12 3.24187203e-14 8.98716770e-13
4.57088190e+00 2.43741944e-12 8.37958885e-13 1.53904058e-15 1.59792151e-12 2.30039997e-14 8.38731291e-13
5.24807460e+00 2.19395294e-12 6.92989122e-13 8.49764937e-16 1.50011405e-12 1.55567258e-14 6.93502223e-13
6.02559586e+00 1.85491754e-12 4.57910648e-13 3.85521597e-16 1.39662137e-12 9.84495057e-15 4.58192375e-13
6.70000000e+00 1.64007272e-12 3.33109500e-13 1.94559795e-16 1.30676866e-12 6.61854057e-15 3.33290895e-13
6.92422916e+00 1.57856617e-12 3.01790396e-13 1.52067522e-16 1.27662371e-12 5.77284976e-15 3.01948975e-13
7.15596261e+00 1.53128028e-12 2.73413220e-13 1.25360090e-16 1.25774170e-12 4.99164632e-15 2.73554377e-13
7.39545150e+00 1.50699984e-12 2.47699008e-13 9.51505963e-17 1.25920568e-12 4.25180665e-15 2.47829944e-13
7.64295536e+00 1.54597633e-12 2.24389426e-13 6.57460337e-17 1.32152116e-12 3.47687377e-15 2.24524577e-13
7.89874245e+00 1.67316754e-12 2.03252611e-13 4.06964322e-17 1.46987423e-12 2.68438791e-15 2.03410795e-13
8.16308998e+00 1.86193898e-12 1.84089025e-13 2.22151670e-17 1.67782774e-12 2.01058359e-15 1.84282505e-13
8.43628443e+00 2.12370890e-12 1.66709518e-13 1.21015819e-17 1.95698728e-12 1.46076716e-15 1.66952996e-13
8.71862190e+00 2.27427598e-12 1.50982123e-13 7.84527093e-18 2.12328601e-12 1.12214123e-15 1.51253114e-13
9.01040836e+00 2.44232486e-12 1.36732259e-13 4.90152560e-18 2.30558770e-12 8.38272829e-16 1.37029614e-13
9.31196005e+00 2.54063665e-12 1.23831263e-13 0.00000000e+00 2.41680539e-12 0.00000000e+00 1.24143660e-13
9.62360379e+00 2.48369978e-12 1.12179005e-13 0.00000000e+00 2.37152078e-12 0.00000000e+00 1.12469472e-13
9.94567731e+00 2.32367619e-12 1.01646162e-13 0.00000000e+00 2.22203002e-12 0.00000000e+00 1.01893097e-13
1.02785297e+01 2.14660125e-12 9.21088942e-14 0.00000000e+00 2.05449235e-12 0.00000000e+00 9.23113014e-14
1.06225216e+01 1.96129760e-12 8.34664260e-14 0.00000000e+00 1.87783118e-12 0.00000000e+00 8.36305558e-14
1.09780260e+01 1.78701773e-12 7.56378332e-14 0.00000000e+00 1.71137989e-12 0.00000000e+00 7.57661279e-14
1.13454280e+01 1.62666857e-12 6.85405703e-14 0.00000000e+00 1.55812800e-12 0.00000000e+00 6.86412529e-14
1.17251259e+01 1.49680535e-12 6.21068645e-14 0.00000000e+00 1.43469849e-12 0.00000000e+00 6.21863851e-14
1.21175312e+01 1.38033673e-12 5.62760345e-14 0.00000000e+00 1.32406070e-12 0.00000000e+00 5.63385184e-14
1.25230691e+01 1.27207361e-12 5.09916093e-14 0.00000000e+00 1.22108200e-12 0.00000000e+00 5.10405718e-14
1.29421791e+01 1.17750259e-12 4.62021970e-14 0.00000000e+00 1.13130040e-12 0.00000000e+00 4.62408321e-14
1.33753155e+01 1.09374206e-12 4.18617454e-14 0.00000000e+00 1.05188032e-12 0.00000000e+00 4.18924490e-14
1.38229477e+01 1.03659404e-12 3.79274522e-14 0.00000000e+00 9.98666584e-13 0.00000000e+00 3.79529781e-14
1.42855609e+01 1.00251769e-12 3.43617805e-14 0.00000000e+00 9.68155911e-13 0.00000000e+00 3.43839660e-14
1.47636563e+01 9.99264990e-13 3.11295203e-14 0.00000000e+00 9.68135470e-13 0.00000000e+00 3.11505758e-14
1.52577522e+01 1.00315608e-12 2.82009022e-14 0.00000000e+00 9.74955179e-13 0.00000000e+00 2.82212462e-14
1.57683840e+01 1.01749202e-12 2.55474755e-14 0.00000000e+00 9.91944543e-13 0.00000000e+00 2.55673842e-14
1.62961051e+01 1.02585772e-12 2.31436262e-14 0.00000000e+00 1.00271410e-12 0.00000000e+00 2.31630853e-14
1.68414875e+01 1.03134979e-12 2.09659042e-14 0.00000000e+00 1.01038389e-12 0.00000000e+00 2.09848813e-14
1.74051222e+01 1.03732893e-12 1.89934899e-14 0.00000000e+00 1.01833544e-12 0.00000000e+00 1.90115106e-14
1.79876201e+01 1.02534108e-12 1.72068857e-14 0.00000000e+00 1.00813419e-12 0.00000000e+00 1.72237112e-14
1.85896125e+01 1.00528743e-12 1.55888087e-14 0.00000000e+00 9.89698618e-13 0.00000000e+00 1.56040325e-14
1.92117518e+01 9.85669029e-13 1.41232924e-14 0.00000000e+00 9.71545737e-13 0.00000000e+00 1.41366646e-14
1.98547123e+01 9.53970049e-13 1.27957680e-14 0.00000000e+00 9.41174281e-13 0.00000000e+00 1.28072847e-14
2.05191907e+01 9.13131303e-13 1.15930980e-14 0.00000000e+00 9.01538205e-13 0.00000000e+00 1.16029167e-14
2.12059073e+01 8.84444952e-13 1.05034350e-14 0.00000000e+00 8.73941518e-13 0.00000000e+00 1.05118047e-14
2.19156062e+01 8.53651419e-13 9.51612905e-15 0.00000000e+00 8.44135289e-13 0.00000000e+00 9.52329842e-15
2.26490567e+01 8.21456525e-13 8.62159809e-15 0.00000000e+00 8.12834927e-13 0.00000000e+00 8.62774902e-15
2.34070535e+01 7.94620514e-13 7.81112814e-15 0.00000000e+00 7.86809386e-13 0.00000000e+00 7.81641505e-15
2.41904183e+01 7.68887434e-13 7.07682133e-15 0.00000000e+00 7.61810613e-13 0.00000000e+00 7.08137710e-15
2.50000000e+01 7.41188955e-13 6.41152626e-15 0.00000000e+00 7.34777429e-13 0.00000000e+00 6.41546044e-15
2.75422870e+01 6.60019994e-13 4.79529740e-15 0.00000000e+00 6.55224697e-13 0.00000000e+00 4.79786316e-15
3.16227766e+01 5.45112378e-13 3.16850703e-15 0.00000000e+00 5.41943871e-13 0.00000000e+00 3.16991676e-15
3.63078055e+01 4.27662224e-13 2.09357276e-15 0.00000000e+00 4.25568651e-13 0.00000000e+00 2.09434323e-15
4.16869383e+01 3.13726441e-13 1.38330891e-15 0.00000000e+00 3.12343132e-13 0.00000000e+00 1.38371885e-15
4.78630092e+01 2.15211340e-13 9.14002634e-16 0.00000000e+00 2.14297337e-13 0.00000000e+00 9.14213979e-16
5.49540874e+01 1.39949404e-13 6.03908546e-16 0.00000000e+00 1.39345495e-13 0.00000000e+00 6.04015186e-16
6.30957344e+01 8.69617880e-14 3.99015753e-16 0.00000000e+00 8.65627723e-14 0.00000000e+00 3.99068876e-16
7.24435960e+01 5.21593305e-14 2.63635918e-16 0.00000000e+00 5.18956946e-14 0.00000000e+00 2.63662192e-16
8.31763771e+01 3.04245166e-14 1.74186909e-16 0.00000000e+00 3.02503297e-14 0.00000000e+00 1.74199882e-16
9.54992586e+01 1.73914197e-14 1.15086299e-16 0.00000000e+00 1.72763334e-14 0.00000000e+00 1.15092721e-16
1.09647820e+02 9.78723904e-15 7.60378172e-17 0.00000000e+00 9.71120122e-15 0.00000000e+00 7.60410067e-17
1.25892541e+02 5.50159049e-15 5.02381871e-17 0.00000000e+00 5.45135230e-15 0.00000000e+00 5.02397949e-17
1.44543977e+02 3.07177101e-15 3.31922869e-17 0.00000000e+00 3.03857872e-15 0.00000000e+00 3.31931033e-17
1.65958691e+02 1.63209589e-15 2.19300655e-17 0.00000000e+00 1.61016582e-15 0.00000000e+00 2.19304659e-17
1.90546072e+02 8.67281259e-16 1.44891169e-17 0.00000000e+00 8.52792143e-16 0.00000000e+00 1.44893151e-17
2.18776162e+02 4.59951137e-16 9.57289681e-18 0.00000000e+00 4.50378240e-16 0.00000000e+00 9.57299556e-18
2.51188643e+02 2.43071073e-16 6.32476609e-18 0.00000000e+00 2.36746307e-16 0.00000000e+00 6.32481544e-18
2.88403150e+02 1.27889741e-16 4.17873944e-18 0.00000000e+00 1.23711002e-16 0.00000000e+00 4.17876412e-18
3.31131121e+02 6.71580576e-17 2.76086970e-18 0.00000000e+00 6.43971879e-17 0.00000000e+00 2.76088208e-18
3.80189396e+02 3.51836070e-17 1.82409049e-18 0.00000000e+00 3.33595165e-17 0.00000000e+00 1.82409670e-18
4.36515832e+02 1.84281815e-17 1.20516562e-18 0.00000000e+00 1.72230159e-17 0.00000000e+00 1.20516874e-18
5.01187234e+02 9.65700573e-18 7.96245525e-19 0.00000000e+00 8.86076021e-18 0.00000000e+00 7.96247089e-19
5.75439937e+02 5.07122692e-18 5.26074449e-19 0.00000000e+00 4.54515247e-18 0.00000000e+00 5.26075235e-19
6.60693448e+02 2.67307150e-18 3.47574066e-19 0.00000000e+00 2.32549743e-18 0.00000000e+00 3.47574461e-19
7.58577575e+02 1.41680854e-18 2.29639971e-19 0.00000000e+00 1.18716857e-18 0.00000000e+00 2.29640169e-19
8.70963590e+02 7.56441650e-19 1.51721655e-19 0.00000000e+00 6.04719994e-19 0.00000000e+00 1.51721755e-19
1.00000000e+03 3.07404728e-19 0.00000000e+00 0.00000000e+00 3.07404728e-19 0.00000000e+00 0.00000000e+00
