# column 1: lambda (micron)
# column 2: total flux; lambda*F_lambda (W/m2)
# column 3: direct stellar flux; lambda*F_lambda (W/m2)
# column 4: scattered stellar flux; lambda*F_lambda (W/m2)
# column 5: total dust emission flux; lambda*F_lambda (W/m2)
# column 6: dust emission scattered flux; lambda*F_lambda (W/m2)
# column 7: transparent flux; lambda*F_lambda (W/m2)
1.00000000e-03 9.68079828e-13 9.68073281e-13 6.54691189e-18 0.00000000e+00 0.00000000e+00 9.68073281e-13
1.14815362e-03 1.14264663e-12 1.14263687e-12 9.76024515e-18 0.00000000e+00 0.00000000e+00 1.14263687e-12
1.31825674e-03 1.34869152e-12 1.34867788e-12 1.36387020e-17 0.00000000e+00 0.00000000e+00 1.34867788e-12
1.51356125e-03 1.59189251e-12 1.59187233e-12 2.01795903e-17 0.00000000e+00 0.00000000e+00 1.59187233e-12
1.73780083e-03 1.87895577e-12 1.87891976e-12 3.60107968e-17 0.00000000e+00 0.00000000e+00 1.87891976e-12
1.99526231e-03 2.21778966e-12 2.21772777e-12 6.18940445e-17 0.00000000e+00 0.00000000e+00 2.21772777e-12
2.29086765e-03 2.61772536e-12 2.61762985e-12 9.55175693e-17 0.00000000e+00 0.00000000e+00 2.61762985e-12
2.63026799e-03 3.08983081e-12 3.08964252e-12 1.88284825e-16 0.00000000e+00 0.00000000e+00 3.08964252e-12
3.01995172e-03 3.64707144e-12 3.64676883e-12 3.02615196e-16 0.00000000e+00 0.00000000e+00 3.64676883e-12
3.46736850e-03 4.30486503e-12 4.30435650e-12 5.08531077e-16 0.00000000e+00 0.00000000e+00 4.30435650e-12
3.98107171e-03 5.08129170e-12 5.08052080e-12 7.70895990e-16 0.00000000e+00 0.00000000e+00 5.08052080e-12
4.57088190e-03 5.99847513e-12 5.99664354e-12 1.83158579e-15 0.00000000e+00 0.00000000e+00 5.99664354e-12
5.24807460e-03 7.08129931e-12 7.07796211e-12 3.33719281e-15 0.00000000e+00 0.00000000e+00 7.07796211e-12
6.02559586e-03 8.35992609e-12 8.35426474e-12 5.66134384e-15 0.00000000e+00 0.00000000e+00 8.35426474e-12
6.91830971e-03 9.86930539e-12 9.86071107e-12 8.59431990e-15 0.00000000e+00 0.00000000e+00 9.86071107e-12
7.94328235e-03 1.16515605e-11 1.16388008e-11 1.27597606e-14 5.98619334e-304 1.80133744e-305 1.16388008e-11
9.12010839e-03 1.37629501e-11 1.37375167e-11 2.54333533e-14 3.92327279e-265 1.14575850e-266 1.37375167e-11
1.04712855e-02 1.53865409e-11 1.53429287e-11 4.36122309e-14 2.35523922e-231 5.98095671e-233 1.53429287e-11
1.20226443e-02 1.54092472e-11 1.53429287e-11 6.63185085e-14 5.17051059e-202 2.79239192e-203 1.53429287e-11
1.38038426e-02 1.54068268e-11 1.53429287e-11 6.38981619e-14 1.78130553e-176 4.21391163e-178 1.53429287e-11
1.58489319e-02 1.54386841e-11 1.53429287e-11 9.57554609e-14 3.13035644e-154 1.69168164e-155 1.53429287e-11
1.81970086e-02 1.54767332e-11 1.53429287e-11 1.33804570e-13 6.67037121e-135 2.12301702e-136 1.53429287e-11
2.08929613e-02 1.55221994e-11 1.53429287e-11 1.79270747e-13 4.19178678e-118 1.70028199e-119 1.53429287e-11
2.39883292e-02 1.55519199e-11 1.53429287e-11 2.08991280e-13 1.70762223e-103 6.86326818e-105 1.53429287e-11
2.75422870e-02 1.55945838e-11 1.53429287e-11 2.51655157e-13 8.76308263e-91 4.11597768e-92 1.53429287e-11
3.16227766e-02 1.56051662e-11 1.53429287e-11 2.62237554e-13 9.55772745e-80 4.54990237e-81 1.53429287e-11
3.63078055e-02 1.56022981e-11 1.53429287e-11 2.59369445e-13 3.65747998e-70 1.76410676e-71 1.53429287e-11
4.16869383e-02 1.56593408e-11 1.53429287e-11 3.16412143e-13 7.64853407e-62 4.25204927e-63 1.53429287e-11
4.78630092e-02 1.56714799e-11 1.53429287e-11 3.28551218e-13 1.23993889e-54 7.73591763e-56 1.53429287e-11
5.49540874e-02 1.56759732e-11 1.53429287e-11 3.33044516e-13 2.19204185e-48 1.47831891e-49 1.53429287e-11
6.30957344e-02 1.56588063e-11 1.53429287e-11 3.15877602e-13 7.38381622e-43 5.40975106e-44 1.53429287e-11
7.24435960e-02 1.56203959e-11 1.53429287e-11 2.77467258e-13 4.41679569e-38 3.05544902e-39 1.53429287e-11
8.31763771e-02 1.56153754e-11 1.53429287e-11 2.72446759e-13 4.73158567e-34 3.15879436e-35 1.53429287e-11
9.54992586e-02 1.56234137e-11 1.53429287e-11 2.80485049e-13 1.39157681e-30 9.57305293e-32 1.53429287e-11
1.09647820e-01 1.49446581e-11 1.46523889e-11 2.92269207e-13 1.23930943e-27 9.24367043e-29 1.46523889e-11
1.25892541e-01 1.39715067e-11 1.36744049e-11 2.97101794e-13 4.17577766e-25 3.01187387e-26 1.36744049e-11
1.44543977e-01 1.30351934e-11 1.27616972e-11 2.73496220e-13 5.90646603e-23 4.21077672e-24 1.27616972e-11
1.65958691e-01 1.21976354e-11 1.19099088e-11 2.87726575e-13 3.09894133e-21 2.47136103e-22 1.19099088e-11
1.90546072e-01 1.14134177e-11 1.11149736e-11 2.98444015e-13 6.65373835e-20 6.09271266e-21 1.11149736e-11
2.18776162e-01 1.06328224e-11 1.03730969e-11 2.59724624e-13 7.88889976e-19 7.42948587e-20 1.03730969e-11
2.51188643e-01 9.98901331e-12 9.68073733e-12 3.08266018e-13 9.95883570e-18 1.16798256e-18 9.68073733e-12
2.88403150e-01 9.32223564e-12 9.03458975e-12 2.87561428e-13 8.44629750e-17 9.80089163e-18 9.03458975e-12
3.31131121e-01 8.70000652e-12 8.43156974e-12 2.67941986e-13 4.94789754e-16 5.66141505e-17 8.43156974e-12
3.80189396e-01 8.12321037e-12 7.86879872e-12 2.52317192e-13 2.09445442e-15 2.36568779e-16 7.86879872e-12
4.36515832e-01 7.58638253e-12 7.34359025e-12 2.36044705e-13 6.74757143e-15 7.60555113e-16 7.34359025e-12
5.01187234e-01 7.09080566e-12 6.85343719e-12 2.20263290e-13 1.71051848e-14 1.93992029e-15 6.85343719e-12
5.75439937e-01 6.63611143e-12 6.39599973e-12 2.04286336e-13 3.58253680e-14 4.14658029e-15 6.39599973e-12
6.60693448e-01 6.21938609e-12 5.96909425e-12 1.85391826e-13 6.49000107e-14 8.01135391e-15 5.96909425e-12
7.58577575e-01 5.84673280e-12 5.57068288e-12 1.67418911e-13 1.08631000e-13 1.55400449e-14 5.57068288e-12
8.70963590e-01 5.52974282e-12 5.19886376e-12 1.49642879e-13 1.81236183e-13 3.18602496e-14 5.19886376e-12
1.00000000e+00 5.29444627e-12 4.85186196e-12 1.29521658e-13 3.13062652e-13 6.67554571e-14 4.85186196e-12
1.14815362e+00 5.21695203e-12 4.52802104e-12 1.08280426e-13 5.80650561e-13 1.36313815e-13 4.52802104e-12
1.31825674e+00 5.42396743e-12 4.22579511e-12 8.77802641e-14 1.11039205e-12 2.52436808e-13 4.22579511e-12
1.51356125e+00 6.02366957e-12 3.94374146e-12 7.09677445e-14 2.00896036e-12 4.14391179e-13 3.94374146e-12
1.73780083e+00 7.10221693e-12 3.68051368e-12 5.61687921e-14 3.36553446e-12 5.79729318e-13 3.68051368e-12
1.99526231e+00 8.55194369e-12 3.43485522e-12 4.29197591e-14 5.07416871e-12 7.05807837e-13 3.43485522e-12
2.29086765e+00 1.02808013e-11 3.20559341e-12 3.16107394e-14 7.04359715e-12 7.45101743e-13 3.20559341e-12
2.63026799e+00 1.18508237e-11 2.99163384e-12 2.34517700e-14 8.83573809e-12 7.28654742e-13 2.99163384e-12
3.01995172e+00 1.34775607e-11 2.79195514e-12 1.72232153e-14 1.06683823e-11 6.83878915e-13 2.79195514e-12
3.46736850e+00 1.49015618e-11 2.60560415e-12 1.26020493e-14 1.22833556e-11 6.24754925e-13 2.60560415e-12
3.98107171e+00 1.61117476e-11 2.43169128e-12 9.43628338e-15 1.36706200e-11 5.42134557e-13 2.43169128e-12
4.57088190e+00 1.73497200e-11 2.26938634e-12 6.87145193e-15 1.50734622e-11 4.55181042e-13 2.26938634e-12
5.24807460e+00 1.82254300e-11 1.87643467e-12 4.20341166e-15 1.63447919e-11 3.54970421e-13 1.87643467e-12
6.02559586e+00 1.86339301e-11 1.23974809e-12 2.00753823e-15 1.73921745e-11 2.57175062e-13 1.23974809e-12
6.70000000e+00 1.87397380e-11 9.01797527e-13 1.09034479e-15 1.78368501e-11 1.87626186e-13 9.01797527e-13
6.92422916e+00 1.88696261e-11 8.16994532e-13 8.85271158e-16 1.80517463e-11 1.68841362e-13 8.16994532e-13
7.15596261e+00 1.86878869e-11 7.40166218e-13 7.09223975e-16 1.79470115e-11 1.48150289e-13 7.40166218e-13
7.39545150e+00 1.87294955e-11 6.70562664e-13 5.37497973e-16 1.80583953e-11 1.25285306e-13 6.70562664e-13
7.64295536e+00 1.87170770e-11 6.07504471e-13 3.55378851e-16 1.81092172e-11 9.73390759e-14 6.07504471e-13
7.89874245e+00 1.87558873e-11 5.50376127e-13 1.95838107e-16 1.82053153e-11 6.70676055e-14 5.50376127e-13
8.16308998e+00 1.86774039e-11 4.98620004e-13 1.02143906e-16 1.81786817e-11 4.44410054e-14 4.98620004e-13
8.43628443e+00 1.88485801e-11 4.51730909e-13 5.16835552e-17 1.83967975e-11 2.90026868e-14 4.51730909e-13
8.71862190e+00 1.88890195e-11 4.09251158e-13 3.24045809e-17 1.84797359e-11 2.10353495e-14 4.09251158e-13
9.01040836e+00 1.90095110e-11 3.70766106e-13 2.05164290e-17 1.86387244e-11 1.55127095e-14 3.70766106e-13
9.31196005e+00 1.91892744e-11 3.35900102e-13 0.00000000e+00 1.88533743e-11 0.00000000e+00 3.35900102e-13
9.62360379e+00 1.88966271e-11 3.04312818e-13 0.00000000e+00 1.85923143e-11 0.00000000e+00 3.04312818e-13
9.94567731e+00 1.85512027e-11 2.75695930e-13 0.00000000e+00 1.82755068e-11 0.00000000e+00 2.75695930e-13
1.02785297e+01 1.83202060e-11 2.49770110e-13 0.00000000e+00 1.80704359e-11 0.00000000e+00 2.49770110e-13
1.06225216e+01 1.79413754e-11 2.26282295e-13 0.00000000e+00 1.77150931e-11 0.00000000e+00 2.26282295e-13
1.09780260e+01 1.76097631e-11 2.05003220e-13 0.00000000e+00 1.74047599e-11 0.00000000e+00 2.05003220e-13
1.13454280e+01 1.76765429e-11 1.85725182e-13 0.00000000e+00 1.74908177e-11 0.00000000e+00 1.85725182e-13
1.17251259e+01 1.73339684e-11 1.68260007e-13 0.00000000e+00 1.71657084e-11 0.00000000e+00 1.68260007e-13
1.21175312e+01 1.71592539e-11 1.52437217e-13 0.00000000e+00 1.70068166e-11 0.00000000e+00 1.52437217e-13
1.25230691e+01 1.67546378e-11 1.38102367e-13 0.00000000e+00 1.66165355e-11 0.00000000e+00 1.38102367e-13
1.29421791e+01 1.64886732e-11 1.25115533e-13 0.00000000e+00 1.63635577e-11 0.00000000e+00 1.25115533e-13
1.33753155e+01 1.61236585e-11 1.13349952e-13 0.00000000e+00 1.60103086e-11 0.00000000e+00 1.13349952e-13
1.38229477e+01 1.57140504e-11 1.02690779e-13 0.00000000e+00 1.56113596e-11 0.00000000e+00 1.02690779e-13
1.42855609e+01 1.54817199e-11 9.30339713e-14 0.00000000e+00 1.53886859e-11 0.00000000e+00 9.30339713e-14
1.47636563e+01 1.52743408e-11 8.42852675e-14 0.00000000e+00 1.51900555e-11 0.00000000e+00 8.42852675e-14
1.52577522e+01 1.51003189e-11 7.63592720e-14 0.00000000e+00 1.50239597e-11 0.00000000e+00 7.63592720e-14
1.57683840e+01 1.48159713e-11 6.91786191e-14 0.00000000e+00 1.47467927e-11 0.00000000e+00 6.91786191e-14
1.62961051e+01 1.47616738e-11 6.26732185e-14 0.00000000e+00 1.46990006e-11 0.00000000e+00 6.26732185e-14
1.68414875e+01 1.43871593e-11 5.67795711e-14 0.00000000e+00 1.43303798e-11 0.00000000e+00 5.67795711e-14
1.74051222e+01 1.41844170e-11 5.14401489e-14 0.00000000e+00 1.41329768e-11 0.00000000e+00 5.14401489e-14
1.79876201e+01 1.39241286e-11 4.66028339e-14 0.00000000e+00 1.38775258e-11 0.00000000e+00 4.66028339e-14
1.85896125e+01 1.35215498e-11 4.22204090e-14 0.00000000e+00 1.34793294e-11 0.00000000e+00 4.22204090e-14
1.92117518e+01 1.30849274e-11 3.82500974e-14 0.00000000e+00 1.30466773e-11 0.00000000e+00 3.82500974e-14
1.98547123e+01 1.27699874e-11 3.46531450e-14 0.00000000e+00 1.27353343e-11 0.00000000e+00 3.46531450e-14
2.05191907e+01 1.22049254e-11 3.13944418e-14 0.00000000e+00 1.21735310e-11 0.00000000e+00 3.13944418e-14
2.12059073e+01 1.17094545e-11 2.84421796e-14 0.00000000e+00 1.16810124e-11 0.00000000e+00 2.84421796e-14
2.19156062e+01 1.12061425e-11 2.57675415e-14 0.00000000e+00 1.11803750e-11 0.00000000e+00 2.57675415e-14
2.26490567e+01 1.07412811e-11 2.33444203e-14 0.00000000e+00 1.07179366e-11 0.00000000e+00 2.33444203e-14
2.34070535e+01 1.02918700e-11 2.11491639e-14 0.00000000e+00 1.02707209e-11 0.00000000e+00 2.11491639e-14
2.41904183e+01 9.71165810e-12 1.91603445e-14 0.00000000e+00 9.69249776e-12 0.00000000e+00 1.91603445e-14
2.50000000e+01 9.31067739e-12 1.73585491e-14 0.00000000e+00 9.29331884e-12 0.00000000e+00 1.73585491e-14
2.75422870e+01 7.81452101e-12 1.29817562e-14 0.00000000e+00 7.80153925e-12 0.00000000e+00 1.29817562e-14
3.16227766e+01 5.94558019e-12 8.57696126e-15 0.00000000e+00 5.93700323e-12 0.00000000e+00 8.57696126e-15
3.63078055e+01 4.30868896e-12 5.66674211e-15 0.00000000e+00 4.30302222e-12 0.00000000e+00 5.66674211e-15
4.16869383e+01 2.94970779e-12 3.74397938e-15 0.00000000e+00 2.94596381e-12 0.00000000e+00 3.74397938e-15
4.78630092e+01 1.90141076e-12 2.47362265e-15 0.00000000e+00 1.89893714e-12 0.00000000e+00 2.47362265e-15
5.49540874e+01 1.16747381e-12 1.63430628e-15 0.00000000e+00 1.16583950e-12 0.00000000e+00 1.63430628e-15
6.30957344e+01 6.86311078e-13 1.07977545e-15 0.00000000e+00 6.85231303e-13 0.00000000e+00 1.07977545e-15
7.24435960e+01 3.89199918e-13 7.13400564e-16 0.00000000e+00 3.88486517e-13 0.00000000e+00 7.13400564e-16
8.31763771e+01 2.15286034e-13 4.71339078e-16 0.00000000e+00 2.14814695e-13 0.00000000e+00 4.71339078e-16
9.54992586e+01 1.16894845e-13 3.11410641e-16 0.00000000e+00 1.16583434e-13 0.00000000e+00 3.11410641e-16
1.09647820e+02 6.26513029e-14 2.05746970e-16 0.00000000e+00 6.24455559e-14 0.00000000e+00 2.05746970e-16
1.25892541e+02 3.36124722e-14 1.35935675e-16 0.00000000e+00 3.34765365e-14 0.00000000e+00 1.35935675e-16
1.44543977e+02 1.79861549e-14 8.98118099e-17 0.00000000e+00 1.78963431e-14 0.00000000e+00 8.98118099e-17
1.65958691e+02 9.21455253e-15 5.93380743e-17 0.00000000e+00 9.15521446e-15 0.00000000e+00 5.93380743e-17
1.90546072e+02 4.73304899e-15 3.92042769e-17 0.00000000e+00 4.69384471e-15 0.00000000e+00 3.92042769e-17
2.18776162e+02 2.43356881e-15 2.59020089e-17 0.00000000e+00 2.40766680e-15 0.00000000e+00 2.59020089e-17
2.51188643e+02 1.25045262e-15 1.71132876e-17 0.00000000e+00 1.23333933e-15 0.00000000e+00 1.71132876e-17
2.88403150e+02 6.41138923e-16 1.13066370e-17 0.00000000e+00 6.29832286e-16 0.00000000e+00 1.13066370e-17
3.31131121e+02 3.28824497e-16 7.47022097e-18 0.00000000e+00 3.21354276e-16 0.00000000e+00 7.47022097e-18
3.80189396e+02 1.68492294e-16 4.93552605e-18 0.00000000e+00 1.63556768e-16 0.00000000e+00 4.93552605e-18
4.36515832e+02 8.64114420e-17 3.26086972e-18 0.00000000e+00 8.31505723e-17 0.00000000e+00 3.26086972e-18
5.01187234e+02 4.43590210e-17 2.15443526e-18 0.00000000e+00 4.22045857e-17 0.00000000e+00 2.15443526e-18
5.75439937e+02 2.28179851e-17 1.42342126e-18 0.00000000e+00 2.13945638e-17 0.00000000e+00 1.42342126e-18
6.60693448e+02 1.17744014e-17 9.40445101e-19 0.00000000e+00 1.08339563e-17 0.00000000e+00 9.40445101e-19
7.58577575e+02 6.10244543e-18 6.21345916e-19 0.00000000e+00 5.48109951e-18 0.00000000e+00 6.21345916e-19
8.70963590e+02 3.18065529e-18 4.10519176e-19 0.00000000e+00 2.77013611e-18 0.00000000e+00 4.10519176e-19
1.00000000e+03 1.39855524e-18 0.00000000e+00 0.00000000e+00 1.39855524e-18 0.00000000e+00 0.00000000e+00
