# column 1: lambda (micron)
# column 2: total flux; lambda*F_lambda (W/m2)
# column 3: direct stellar flux; lambda*F_lambda (W/m2)
# column 4: scattered stellar flux; lambda*F_lambda (W/m2)
# column 5: total dust emission flux; lambda*F_lambda (W/m2)
# column 6: dust emission scattered flux; lambda*F_lambda (W/m2)
# column 7: transparent flux; lambda*F_lambda (W/m2)
1.00000000e-03 3.57787038e-13 3.57785423e-13 1.61446088e-18 0.00000000e+00 0.00000000e+00 3.57785423e-13
1.14815362e-03 4.22304424e-13 4.22301518e-13 2.90580122e-18 0.00000000e+00 0.00000000e+00 4.22301518e-13
1.31825674e-03 4.98455891e-13 4.98451197e-13 4.69466820e-18 0.00000000e+00 0.00000000e+00 4.98451197e-13
1.51356125e-03 5.88340045e-13 5.88332233e-13 7.81152946e-18 0.00000000e+00 0.00000000e+00 5.88332233e-13
1.73780083e-03 6.94432723e-13 6.94420676e-13 1.20479487e-17 0.00000000e+00 0.00000000e+00 6.94420676e-13
1.99526231e-03 8.19662255e-13 8.19639053e-13 2.32021656e-17 0.00000000e+00 0.00000000e+00 8.19639053e-13
2.29086765e-03 9.67469107e-13 9.67436888e-13 3.22184488e-17 0.00000000e+00 0.00000000e+00 9.67436888e-13
2.63026799e-03 1.14195761e-12 1.14188572e-12 7.18907395e-17 0.00000000e+00 0.00000000e+00 1.14188572e-12
3.01995172e-03 1.34793158e-12 1.34779128e-12 1.40299840e-16 0.00000000e+00 0.00000000e+00 1.34779128e-12
3.46736850e-03 1.59102337e-12 1.59082586e-12 1.97508972e-16 0.00000000e+00 0.00000000e+00 1.59082586e-12
3.98107171e-03 1.87801830e-12 1.87768459e-12 3.33710384e-16 0.00000000e+00 0.00000000e+00 1.87768459e-12
4.57088190e-03 2.21717746e-12 2.21626987e-12 9.07589368e-16 0.00000000e+00 0.00000000e+00 2.21626987e-12
5.24807460e-03 2.61718862e-12 2.61590907e-12 1.27955881e-15 0.00000000e+00 0.00000000e+00 2.61590907e-12
6.02559586e-03 3.09057798e-12 3.08761145e-12 2.96652943e-15 0.00000000e+00 0.00000000e+00 3.08761145e-12
6.91830971e-03 3.64948083e-12 3.64437151e-12 5.10931868e-15 0.00000000e+00 0.00000000e+00 3.64437151e-12
7.94328235e-03 4.31167654e-12 4.30152690e-12 1.01496443e-14 1.42278267e-303 5.61812844e-304 4.30152690e-12
9.12010839e-03 5.09310644e-12 5.07718096e-12 1.59254822e-14 4.63832785e-265 8.96146618e-266 5.07718096e-12
1.04712855e-02 5.69646759e-12 5.67051724e-12 2.59503468e-14 1.72339341e-231 1.48446914e-232 5.67051724e-12
1.20226443e-02 5.69650909e-12 5.67051724e-12 2.59918556e-14 2.72957471e-202 2.63982658e-203 5.67051724e-12
1.38038426e-02 5.70181550e-12 5.67051724e-12 3.12982644e-14 7.46458276e-177 7.71413519e-178 5.67051724e-12
1.58489319e-02 5.72264307e-12 5.67051724e-12 5.21258263e-14 1.00429086e-154 1.02683379e-155 5.67051724e-12
1.81970086e-02 5.73378115e-12 5.67051724e-12 6.32639146e-14 1.78381555e-135 1.94383984e-136 5.67051724e-12
2.08929613e-02 5.75927197e-12 5.67051724e-12 8.87547275e-14 9.18989640e-119 8.86700697e-120 5.67051724e-12
2.39883292e-02 5.77028192e-12 5.67051724e-12 9.97646778e-14 3.18789265e-104 3.11963032e-105 5.67051724e-12
2.75422870e-02 5.76771231e-12 5.67051724e-12 9.71950690e-14 1.41114311e-91 1.33405864e-92 5.67051724e-12
3.16227766e-02 5.79010935e-12 5.67051724e-12 1.19592113e-13 1.35952229e-80 1.22700104e-81 5.67051724e-12
3.63078055e-02 5.79449956e-12 5.67051724e-12 1.23982323e-13 4.63878152e-71 3.92312297e-72 5.67051724e-12
4.16869383e-02 5.81066127e-12 5.67051724e-12 1.40144034e-13 8.81761068e-63 8.02752959e-64 5.67051724e-12
4.78630092e-02 5.80852536e-12 5.67051724e-12 1.38008118e-13 1.31256007e-55 1.15781469e-56 5.67051724e-12
5.49540874e-02 5.80037644e-12 5.67051724e-12 1.29859201e-13 2.13248999e-49 1.88851964e-50 5.67051724e-12
6.30957344e-02 5.79435641e-12 5.67051724e-12 1.23839168e-13 6.60798349e-44 5.34063782e-45 5.67051724e-12
7.24435960e-02 5.78052774e-12 5.67051724e-12 1.10010502e-13 3.71216150e-39 2.65181356e-40 5.67051724e-12
8.31763771e-02 5.77768862e-12 5.67051724e-12 1.07171384e-13 3.79901098e-35 2.59404842e-36 5.67051724e-12
9.54992586e-02 5.78100365e-12 5.67051724e-12 1.10486416e-13 1.07803113e-31 7.56089711e-33 5.67051724e-12
1.09647820e-01 5.52747445e-12 5.41530405e-12 1.12170396e-13 9.36005768e-29 7.43773131e-30 5.41530405e-12
1.25892541e-01 5.16813113e-12 5.05385580e-12 1.14275339e-13 3.12606950e-26 2.62019973e-27 5.05385580e-12
1.44543977e-01 4.81992584e-12 4.71653266e-12 1.03393187e-13 4.37693030e-24 3.74326683e-25 4.71653266e-12
1.65958691e-01 4.50378558e-12 4.40172439e-12 1.02061188e-13 2.25731922e-22 2.08533725e-23 4.40172439e-12
1.90546072e-01 4.21246694e-12 4.10792822e-12 1.04538718e-13 4.72243409e-21 4.79496189e-22 4.10792822e-12
2.18776162e-01 3.92754058e-12 3.83374167e-12 9.37988469e-14 5.40516678e-20 5.24918754e-21 3.83374167e-12
2.51188643e-01 3.68191728e-12 3.57785591e-12 1.04060691e-13 6.80132172e-19 7.94635452e-20 3.57785591e-12
2.88403150e-01 3.43596828e-12 3.33904941e-12 9.69130530e-14 5.81126346e-18 6.83318132e-19 3.33904941e-12
3.31131121e-01 3.20426576e-12 3.11618222e-12 8.80493707e-14 3.41674048e-17 3.98103450e-18 3.11618222e-12
3.80189396e-01 2.98980848e-12 2.90819046e-12 8.14721088e-14 1.45904774e-16 1.67499990e-17 2.90819046e-12
4.36515832e-01 2.79024258e-12 2.71408126e-12 7.56895970e-14 4.71728912e-16 5.31569670e-17 2.71408126e-12
5.01187234e-01 2.60304593e-12 2.53292801e-12 6.88927414e-14 1.22518445e-15 1.34360567e-16 2.53292801e-12
5.75439937e-01 2.42916418e-12 2.36386595e-12 6.25771154e-14 2.72110583e-15 3.05786199e-16 2.36386595e-12
6.60693448e-01 2.26706164e-12 2.20608807e-12 5.54515547e-14 5.52201912e-15 6.70343856e-16 2.20608807e-12
7.58577575e-01 2.11990753e-12 2.05884118e-12 4.99266889e-14 1.11396659e-14 1.46215986e-15 2.05884118e-12
8.70963590e-01 1.98710917e-12 1.92142238e-12 4.26436531e-14 2.30431280e-14 3.33285931e-15 1.92142238e-12
1.00000000e+00 1.87779235e-12 1.79317570e-12 3.75025568e-14 4.71140882e-14 6.88583643e-15 1.79317570e-12
1.14815362e+00 1.79918145e-12 1.67348894e-12 3.18590420e-14 9.38334748e-14 1.30211457e-14 1.67348894e-12
1.31825674e+00 1.76498238e-12 1.56179075e-12 2.53536289e-14 1.77838005e-13 2.25832923e-14 1.56179075e-12
1.51356125e+00 1.78783971e-12 1.45754793e-12 2.03176856e-14 3.09974095e-13 3.39081074e-14 1.45754793e-12
1.73780083e+00 1.86588069e-12 1.36026288e-12 1.55017895e-14 4.90116020e-13 4.45794209e-14 1.36026288e-12
1.99526231e+00 1.97699986e-12 1.26947118e-12 1.14243094e-14 6.96104369e-13 5.02583948e-14 1.26947118e-12
2.29086765e+00 2.09354545e-12 1.18473944e-12 7.98458463e-15 9.00821431e-13 4.99356748e-14 1.18473944e-12
2.63026799e+00 2.19096788e-12 1.10566318e-12 5.53121170e-15 1.07977349e-12 4.48044233e-14 1.10566318e-12
3.01995172e+00 2.23770261e-12 1.03186491e-12 3.90047699e-15 1.20193722e-12 3.73960760e-14 1.03186491e-12
3.46736850e+00 2.22965018e-12 9.62992369e-13 2.62456874e-15 1.26403325e-12 2.93984276e-14 9.62992369e-13
3.98107171e+00 2.16287040e-12 8.98716770e-13 1.82433718e-15 1.26232929e-12 2.21035875e-14 8.98716770e-13
4.57088190e+00 2.05254075e-12 8.38731291e-13 1.25374501e-15 1.21255571e-12 1.56439745e-14 8.38731291e-13
5.24807460e+00 1.82844584e-12 6.93502223e-13 7.12200085e-16 1.13423142e-12 1.04698546e-14 6.93502223e-13
6.02559586e+00 1.50186175e-12 4.58192375e-13 3.32367230e-16 1.04333701e-12 6.62552004e-15 4.58192375e-13
6.70000000e+00 1.30474549e-12 3.33290895e-13 1.73540798e-16 9.71281059e-13 4.45037041e-15 3.33290895e-13
6.92422916e+00 1.24664289e-12 3.01948975e-13 1.45096901e-16 9.44548815e-13 3.88654401e-15 3.01948975e-13
7.15596261e+00 1.20163881e-12 2.73554377e-13 1.14393338e-16 9.27970042e-13 3.36685716e-15 2.73554377e-13
7.39545150e+00 1.17990303e-12 2.47829944e-13 8.77376442e-17 9.31985352e-13 2.84748216e-15 2.47829944e-13
7.64295536e+00 1.21504646e-12 2.24524577e-13 5.66932129e-17 9.90465190e-13 2.33775305e-15 2.24524577e-13
7.89874245e+00 1.32969886e-12 2.03410795e-13 3.36798307e-17 1.12625439e-12 1.79825366e-15 2.03410795e-13
8.16308998e+00 1.49802760e-12 1.84282505e-13 1.94134450e-17 1.31372568e-12 1.36869388e-15 1.84282505e-13
8.43628443e+00 1.73932445e-12 1.66952996e-13 1.06036430e-17 1.57236085e-12 1.01097669e-15 1.66952996e-13
8.71862190e+00 1.88687795e-12 1.51253114e-13 6.60965164e-18 1.73561823e-12 7.83696445e-16 1.51253114e-13
9.01040836e+00 2.05253258e-12 1.37029614e-13 4.60001781e-18 1.91549836e-12 6.03673157e-16 1.37029614e-13
9.31196005e+00 2.14903044e-12 1.24143660e-13 0.00000000e+00 2.02488678e-12 0.00000000e+00 1.24143660e-13
9.62360379e+00 2.10842122e-12 1.12469472e-13 0.00000000e+00 1.99595175e-12 0.00000000e+00 1.12469472e-13
9.94567731e+00 1.96860448e-12 1.01893097e-13 0.00000000e+00 1.86671138e-12 0.00000000e+00 1.01893097e-13
1.02785297e+01 1.80422187e-12 9.23113014e-14 0.00000000e+00 1.71191057e-12 0.00000000e+00 9.23113014e-14
1.06225216e+01 1.63123973e-12 8.36305558e-14 0.00000000e+00 1.54760917e-12 0.00000000e+00 8.36305558e-14
1.09780260e+01 1.46163087e-12 7.57661279e-14 0.00000000e+00 1.38586474e-12 0.00000000e+00 7.57661279e-14
1.13454280e+01 1.31789048e-12 6.86412529e-14 0.00000000e+00 1.24924923e-12 0.00000000e+00 6.86412529e-14
1.17251259e+01 1.19272583e-12 6.21863851e-14 0.00000000e+00 1.13053944e-12 0.00000000e+00 6.21863851e-14
1.21175312e+01 1.08530533e-12 5.63385184e-14 0.00000000e+00 1.02896682e-12 0.00000000e+00 5.63385184e-14
1.25230691e+01 9.92072035e-13 5.10405718e-14 0.00000000e+00 9.41031463e-13 0.00000000e+00 5.10405718e-14
1.29421791e+01 9.09007682e-13 4.62408321e-14 0.00000000e+00 8.62766850e-13 0.00000000e+00 4.62408321e-14
1.33753155e+01 8.41867607e-13 4.18924490e-14 0.00000000e+00 7.99975158e-13 0.00000000e+00 4.18924490e-14
1.38229477e+01 7.99102689e-13 3.79529781e-14 0.00000000e+00 7.61149711e-13 0.00000000e+00 3.79529781e-14
1.42855609e+01 7.74885158e-13 3.43839660e-14 0.00000000e+00 7.40501192e-13 0.00000000e+00 3.43839660e-14
1.47636563e+01 7.76534606e-13 3.11505758e-14 0.00000000e+00 7.45384030e-13 0.00000000e+00 3.11505758e-14
1.52577522e+01 7.85984145e-13 2.82212462e-14 0.00000000e+00 7.57762899e-13 0.00000000e+00 2.82212462e-14
1.57683840e+01 8.00806885e-13 2.55673842e-14 0.00000000e+00 7.75239501e-13 0.00000000e+00 2.55673842e-14
1.62961051e+01 8.16243817e-13 2.31630853e-14 0.00000000e+00 7.93080732e-13 0.00000000e+00 2.31630853e-14
1.68414875e+01 8.30516926e-13 2.09848813e-14 0.00000000e+00 8.09532044e-13 0.00000000e+00 2.09848813e-14
1.74051222e+01 8.37628239e-13 1.90115106e-14 0.00000000e+00 8.18616729e-13 0.00000000e+00 1.90115106e-14
1.79876201e+01 8.39493680e-13 1.72237112e-14 0.00000000e+00 8.22269969e-13 0.00000000e+00 1.72237112e-14
1.85896125e+01 8.39952409e-13 1.56040325e-14 0.00000000e+00 8.24348377e-13 0.00000000e+00 1.56040325e-14
1.92117518e+01 8.21823010e-13 1.41366646e-14 0.00000000e+00 8.07686346e-13 0.00000000e+00 1.41366646e-14
1.98547123e+01 8.07074479e-13 1.28072847e-14 0.00000000e+00 7.94267194e-13 0.00000000e+00 1.28072847e-14
2.05191907e+01 7.87709245e-13 1.16029167e-14 0.00000000e+00 7.76106329e-13 0.00000000e+00 1.16029167e-14
2.12059073e+01 7.73333814e-13 1.05118047e-14 0.00000000e+00 7.62822009e-13 0.00000000e+00 1.05118047e-14
2.19156062e+01 7.61200220e-13 9.52329842e-15 0.00000000e+00 7.51676922e-13 0.00000000e+00 9.52329842e-15
2.26490567e+01 7.46823905e-13 8.62774902e-15 0.00000000e+00 7.38196156e-13 0.00000000e+00 8.62774902e-15
2.34070535e+01 7.34799052e-13 7.81641505e-15 0.00000000e+00 7.26982637e-13 0.00000000e+00 7.81641505e-15
2.41904183e+01 7.24387330e-13 7.08137710e-15 0.00000000e+00 7.17305952e-13 0.00000000e+00 7.08137710e-15
2.50000000e+01 7.16219440e-13 6.41546044e-15 0.00000000e+00 7.09803980e-13 0.00000000e+00 6.41546044e-15
2.75422870e+01 6.89021973e-13 4.79786316e-15 0.00000000e+00 6.84224110e-13 0.00000000e+00 4.79786316e-15
3.16227766e+01 6.35016113e-13 3.16991676e-15 0.00000000e+00 6.31846196e-13 0.00000000e+00 3.16991676e-15
3.63078055e+01 5.57855801e-13 2.09434323e-15 0.00000000e+00 5.55761458e-13 0.00000000e+00 2.09434323e-15
4.16869383e+01 4.57682712e-13 1.38371885e-15 0.00000000e+00 4.56298993e-13 0.00000000e+00 1.38371885e-15
4.78630092e+01 3.50835424e-13 9.14213979e-16 0.00000000e+00 3.49921210e-13 0.00000000e+00 9.14213979e-16
5.49540874e+01 2.52720709e-13 6.04015186e-16 0.00000000e+00 2.52116694e-13 0.00000000e+00 6.04015186e-16
6.30957344e+01 1.71678540e-13 3.99068876e-16 0.00000000e+00 1.71279471e-13 0.00000000e+00 3.99068876e-16
7.24435960e+01 1.10927664e-13 2.63662192e-16 0.00000000e+00 1.10664002e-13 0.00000000e+00 2.63662192e-16
8.31763771e+01 6.89500576e-14 1.74199882e-16 0.00000000e+00 6.87758578e-14 0.00000000e+00 1.74199882e-16
9.54992586e+01 4.14528794e-14 1.15092721e-16 0.00000000e+00 4.13377866e-14 0.00000000e+00 1.15092721e-16
1.09647820e+02 2.42992016e-14 7.60410067e-17 0.00000000e+00 2.42231606e-14 0.00000000e+00 7.60410067e-17
1.25892541e+02 1.41033861e-14 5.02397949e-17 0.00000000e+00 1.40531464e-14 0.00000000e+00 5.02397949e-17
1.44543977e+02 8.07539433e-15 3.31931033e-17 0.00000000e+00 8.04220123e-15 0.00000000e+00 3.31931033e-17
1.65958691e+02 4.38578036e-15 2.19304659e-17 0.00000000e+00 4.36384989e-15 0.00000000e+00 2.19304659e-17
1.90546072e+02 2.36991859e-15 1.44893151e-17 0.00000000e+00 2.35542928e-15 0.00000000e+00 1.44893151e-17
2.18776162e+02 1.27262286e-15 9.57299556e-18 0.00000000e+00 1.26304986e-15 0.00000000e+00 9.57299556e-18
2.51188643e+02 6.78451619e-16 6.32481544e-18 0.00000000e+00 6.72126803e-16 0.00000000e+00 6.32481544e-18
2.88403150e+02 3.59002175e-16 4.17876412e-18 0.00000000e+00 3.54823411e-16 0.00000000e+00 4.17876412e-18
3.31131121e+02 1.89018259e-16 2.76088208e-18 0.00000000e+00 1.86257377e-16 0.00000000e+00 2.76088208e-18
3.80189396e+02 9.89922486e-17 1.82409670e-18 0.00000000e+00 9.71681519e-17 0.00000000e+00 1.82409670e-18
4.36515832e+02 5.16642069e-17 1.20516874e-18 0.00000000e+00 5.04590381e-17 0.00000000e+00 1.20516874e-18
5.01187234e+02 2.68817245e-17 7.96247089e-19 0.00000000e+00 2.60854775e-17 0.00000000e+00 7.96247089e-19
5.75439937e+02 1.39613278e-17 5.26075235e-19 0.00000000e+00 1.34352526e-17 0.00000000e+00 5.26075235e-19
6.60693448e+02 7.24524910e-18 3.47574461e-19 0.00000000e+00 6.89767464e-18 0.00000000e+00 3.47574461e-19
7.58577575e+02 3.76113556e-18 2.29640169e-19 0.00000000e+00 3.53149539e-18 0.00000000e+00 2.29640169e-19
8.70963590e+02 1.95502779e-18 1.51721755e-19 0.00000000e+00 1.80330604e-18 0.00000000e+00 1.51721755e-19
1.00000000e+03 9.18612382e-19 0.00000000e+00 0.00000000e+00 9.18612382e-19 0.00000000e+00 0.00000000e+00
