# column 1: lambda (micron)
# column 2: total flux; lambda*F_lambda (W/m2)
# column 3: direct stellar flux; lambda*F_lambda (W/m2)
# column 4: scattered stellar flux; lambda*F_lambda (W/m2)
# column 5: total dust emission flux; lambda*F_lambda (W/m2)
# column 6: dust emission scattered flux; lambda*F_lambda (W/m2)
# column 7: transparent flux; lambda*F_lambda (W/m2)
1.00000000e-03 6.93993843e-13 6.93993746e-13 9.70905435e-20 0.00000000e+00 0.00000000e+00 6.93993746e-13
1.14815362e-03 8.19135308e-13 8.19135139e-13 1.68835027e-19 0.00000000e+00 0.00000000e+00 8.19135139e-13
1.31825674e-03 9.66842360e-13 9.66842108e-13 2.52170041e-19 0.00000000e+00 0.00000000e+00 9.66842108e-13
1.51356125e-03 1.14118410e-12 1.14118369e-12 4.11652981e-19 0.00000000e+00 0.00000000e+00 1.14118369e-12
1.73780083e-03 1.34696344e-12 1.34696266e-12 7.76121907e-19 0.00000000e+00 0.00000000e+00 1.34696266e-12
1.99526231e-03 1.58984917e-12 1.58984782e-12 1.34499399e-18 0.00000000e+00 0.00000000e+00 1.58984782e-12
2.29086765e-03 1.87653219e-12 1.87653019e-12 1.99684012e-18 0.00000000e+00 0.00000000e+00 1.87653019e-12
2.63026799e-03 2.21491157e-12 2.21490731e-12 4.26211310e-18 0.00000000e+00 0.00000000e+00 2.21490731e-12
3.01995172e-03 2.61430836e-12 2.61430080e-12 7.55186396e-18 0.00000000e+00 0.00000000e+00 2.61430080e-12
3.46736850e-03 3.08572629e-12 3.08571319e-12 1.30997562e-17 0.00000000e+00 0.00000000e+00 3.08571319e-12
3.98107171e-03 3.64215081e-12 3.64213095e-12 1.98599936e-17 0.00000000e+00 0.00000000e+00 3.64213095e-12
4.57088190e-03 4.29892263e-12 4.29888232e-12 4.03063160e-17 0.00000000e+00 0.00000000e+00 4.29888232e-12
5.24807460e-03 5.07413892e-12 5.07405951e-12 7.94101879e-17 0.00000000e+00 0.00000000e+00 5.07405951e-12
6.02559586e-03 5.98915631e-12 5.98901715e-12 1.39160096e-16 0.00000000e+00 0.00000000e+00 5.98901715e-12
6.91830971e-03 7.06917339e-12 7.06896053e-12 2.12859724e-16 0.00000000e+00 0.00000000e+00 7.06896053e-12
7.94328235e-03 8.34405235e-12 8.34363998e-12 4.12370113e-16 5.63997717e-304 1.99293145e-306 8.34363998e-12
9.12010839e-03 9.84880543e-12 9.84817045e-12 6.34978950e-16 2.53267200e-265 5.28705459e-268 9.84817045e-12
1.04712855e-02 1.09999241e-11 1.09990604e-11 8.63616921e-16 1.09341654e-231 1.35838717e-234 1.09990604e-11
1.20226443e-02 1.10003206e-11 1.09990604e-11 1.26016062e-15 1.74663004e-202 3.56619045e-205 1.09990604e-11
1.38038426e-02 1.10018032e-11 1.09990604e-11 2.74273071e-15 4.83925011e-177 1.24272932e-179 1.09990604e-11
1.58489319e-02 1.10021311e-11 1.09990604e-11 3.07069864e-15 6.64515349e-155 2.43371138e-157 1.09990604e-11
1.81970086e-02 1.10023952e-11 1.09990604e-11 3.33472104e-15 1.20180953e-135 6.62650904e-138 1.09990604e-11
2.08929613e-02 1.10066523e-11 1.09990604e-11 7.59187148e-15 6.34772320e-119 4.28972267e-121 1.09990604e-11
2.39883292e-02 1.10062661e-11 1.09990604e-11 7.20567803e-15 2.25080738e-104 2.08211904e-106 1.09990604e-11
2.75422870e-02 1.10081674e-11 1.09990604e-11 9.10692563e-15 1.01745898e-91 1.28677119e-93 1.09990604e-11
3.16227766e-02 1.10105082e-11 1.09990604e-11 1.14477282e-14 9.99472617e-81 1.49163141e-82 1.09990604e-11
3.63078055e-02 1.10128535e-11 1.09990604e-11 1.37930431e-14 3.48939609e-71 5.97863971e-73 1.09990604e-11
4.16869383e-02 1.10176429e-11 1.09990604e-11 1.85824542e-14 6.68971483e-63 1.62504889e-64 1.09990604e-11
4.78630092e-02 1.10242892e-11 1.09990604e-11 2.52287646e-14 1.01949973e-55 3.41482114e-57 1.09990604e-11
5.49540874e-02 1.10320010e-11 1.09990604e-11 3.29405398e-14 1.70781256e-49 7.16071313e-51 1.09990604e-11
6.30957344e-02 1.10406254e-11 1.09990604e-11 4.15649406e-14 5.56884383e-44 2.87694289e-45 1.09990604e-11
7.24435960e-02 1.10393819e-11 1.09990604e-11 4.03214369e-14 3.24730806e-39 1.69845912e-40 1.09990604e-11
8.31763771e-02 1.10396538e-11 1.09990604e-11 4.05933325e-14 3.33265419e-35 1.72309072e-36 1.09990604e-11
9.54992586e-02 1.10424898e-11 1.09990604e-11 4.34293801e-14 9.41905033e-32 5.13258970e-33 1.09990604e-11
1.09647820e-01 1.05465466e-11 1.05040253e-11 4.25212615e-14 7.99242593e-29 4.60386685e-30 1.05040253e-11
1.25892541e-01 9.83961311e-12 9.80292679e-12 3.66863152e-14 2.58122263e-26 1.37609572e-27 9.80292679e-12
1.44543977e-01 9.18068572e-12 9.14862359e-12 3.20621306e-14 3.51177788e-24 1.78512105e-25 9.14862359e-12
1.65958691e-01 8.57062257e-12 8.53799231e-12 3.26302616e-14 1.78014729e-22 1.00398687e-23 8.53799231e-12
1.90546072e-01 8.00650767e-12 7.96811805e-12 3.83896238e-14 3.76656562e-21 2.62670482e-22 7.96811805e-12
2.18776162e-01 7.47594720e-12 7.43628044e-12 3.96667207e-14 4.48545069e-20 3.43401356e-21 7.43628044e-12
2.51188643e-01 6.98159976e-12 6.93994070e-12 4.16585128e-14 5.45121268e-19 5.12606398e-20 6.93994070e-12
2.88403150e-01 6.51551547e-12 6.47672950e-12 3.87814450e-14 4.51808426e-18 4.03346310e-19 6.47672950e-12
3.31131121e-01 6.07904785e-12 6.04443567e-12 3.45863473e-14 2.58420018e-17 2.20656990e-18 6.04443567e-12
3.80189396e-01 5.67249027e-12 5.64099558e-12 3.13871343e-14 1.07555828e-16 8.86411446e-18 5.64099558e-12
4.36515832e-01 5.29329034e-12 5.26448339e-12 2.84668877e-14 3.40067383e-16 2.74507381e-17 5.26448339e-12
5.01187234e-01 4.94031488e-12 4.91310176e-12 2.63628316e-14 8.50288835e-16 6.83393968e-17 4.91310176e-12
5.75439937e-01 4.61162319e-12 4.58517335e-12 2.46936010e-14 1.75623739e-15 1.38063756e-16 4.58517335e-12
6.60693448e-01 4.30378043e-12 4.27913275e-12 2.15061107e-14 3.14156800e-15 2.51111363e-16 4.27913275e-12
7.58577575e-01 4.01856920e-12 3.99351904e-12 1.99113367e-14 5.13882003e-15 4.13230705e-16 3.99351904e-12
8.70963590e-01 3.75177754e-12 3.72696882e-12 1.67285674e-14 8.08015484e-15 6.45304248e-16 3.72696882e-12
1.00000000e+00 3.50601781e-12 3.47820968e-12 1.50431238e-14 1.27650017e-14 9.99060580e-16 3.47820968e-12
1.14815362e+00 3.27881581e-12 3.24605414e-12 1.15246915e-14 2.12369764e-14 1.57776530e-15 3.24605414e-12
1.31825674e+00 3.07539898e-12 3.02939399e-12 9.22059703e-15 3.67843920e-14 2.50346352e-15 3.02939399e-12
1.51356125e+00 2.89768914e-12 2.82719497e-12 7.41527927e-15 6.30788893e-14 3.82083671e-15 2.82719497e-12
1.73780083e+00 2.74600243e-12 2.63849186e-12 5.38582555e-15 1.02124735e-13 5.25569142e-15 2.63849186e-12
1.99526231e+00 2.61854394e-12 2.46238388e-12 4.05940429e-15 1.52100652e-13 6.46771692e-15 2.46238388e-12
2.29086765e+00 2.50753809e-12 2.29803035e-12 2.71513279e-15 2.06792609e-13 6.91972364e-15 2.29803035e-12
2.63026799e+00 2.40501798e-12 2.14464670e-12 1.83447912e-15 2.58536801e-13 6.59485798e-15 2.14464670e-12
3.01995172e+00 2.30220002e-12 2.00150076e-12 1.26660541e-15 2.99432654e-13 5.87343306e-15 2.00150076e-12
3.46736850e+00 2.19372565e-12 1.86790919e-12 8.30438269e-16 3.24986022e-13 4.78772011e-15 1.86790919e-12
3.98107171e+00 2.07676540e-12 1.74323429e-12 5.64074425e-16 3.32967039e-13 3.75913918e-15 1.74323429e-12
4.57088190e+00 1.95145528e-12 1.62688090e-12 3.52085700e-16 3.24222294e-13 2.65724204e-15 1.62688090e-12
5.24807460e+00 1.64908867e-12 1.34518114e-12 2.15802006e-16 3.03691723e-13 1.77928941e-15 1.34518114e-12
6.02559586e+00 1.16774730e-12 8.88752369e-13 9.10056884e-17 2.78903925e-13 1.10051021e-15 8.88752369e-13
6.70000000e+00 9.03066223e-13 6.46481889e-13 4.75990533e-17 2.56536735e-13 7.31764723e-16 6.46481889e-13
6.92422916e+00 8.35328701e-13 5.85688198e-13 4.12527967e-17 2.49599251e-13 6.32315820e-16 5.85688198e-13
7.15596261e+00 7.75419912e-13 5.30611407e-13 3.08670963e-17 2.44777638e-13 5.45194039e-16 5.30611407e-13
7.39545150e+00 7.26443582e-13 4.80713913e-13 2.43710386e-17 2.45705298e-13 4.62591583e-16 4.80713913e-13
7.64295536e+00 6.99428926e-13 4.35508666e-13 1.59026321e-17 2.63904357e-13 3.83484739e-16 4.35508666e-13
7.89874245e+00 7.03786778e-13 3.94554418e-13 9.39169267e-18 3.09222969e-13 3.03916699e-16 3.94554418e-13
8.16308998e+00 7.34176210e-13 3.57451415e-13 5.71108505e-18 3.76719084e-13 2.41656644e-16 3.57451415e-13
8.43628443e+00 7.95411159e-13 3.23837494e-13 3.21175113e-18 4.71570453e-13 1.83510656e-16 3.23837494e-13
8.71862190e+00 8.31761170e-13 2.93384550e-13 1.94505768e-18 5.38374675e-13 1.45610383e-16 2.93384550e-13
9.01040836e+00 8.76673157e-13 2.65795332e-13 1.33691901e-18 6.10876489e-13 1.11880841e-16 2.65795332e-13
9.31196005e+00 9.10980654e-13 2.40800541e-13 0.00000000e+00 6.70180113e-13 0.00000000e+00 2.40800541e-13
9.62360379e+00 8.85669069e-13 2.18156204e-13 0.00000000e+00 6.67512865e-13 0.00000000e+00 2.18156204e-13
9.94567731e+00 8.14318666e-13 1.97641289e-13 0.00000000e+00 6.16677377e-13 0.00000000e+00 1.97641289e-13
1.02785297e+01 7.36458904e-13 1.79055550e-13 0.00000000e+00 5.57403353e-13 0.00000000e+00 1.79055550e-13
1.06225216e+01 6.60619323e-13 1.62217572e-13 0.00000000e+00 4.98401751e-13 0.00000000e+00 1.62217572e-13
1.09780260e+01 5.83617673e-13 1.46962999e-13 0.00000000e+00 4.36654674e-13 0.00000000e+00 1.46962999e-13
1.13454280e+01 5.17153486e-13 1.33142932e-13 0.00000000e+00 3.84010554e-13 0.00000000e+00 1.33142932e-13
1.17251259e+01 4.59674128e-13 1.20622472e-13 0.00000000e+00 3.39051656e-13 0.00000000e+00 1.20622472e-13
1.21175312e+01 4.09801244e-13 1.09279408e-13 0.00000000e+00 3.00521836e-13 0.00000000e+00 1.09279408e-13
1.25230691e+01 3.63944816e-13 9.90030204e-14 0.00000000e+00 2.64941795e-13 0.00000000e+00 9.90030204e-14
1.29421791e+01 3.25792269e-13 8.96930008e-14 0.00000000e+00 2.36099268e-13 0.00000000e+00 8.96930008e-14
1.33753155e+01 2.93331553e-13 8.12584743e-14 0.00000000e+00 2.12073079e-13 0.00000000e+00 8.12584743e-14
1.38229477e+01 2.71007641e-13 7.36171115e-14 0.00000000e+00 1.97390529e-13 0.00000000e+00 7.36171115e-14
1.42855609e+01 2.55200796e-13 6.66943252e-14 0.00000000e+00 1.88506470e-13 0.00000000e+00 6.66943252e-14
1.47636563e+01 2.50867006e-13 6.04225420e-14 0.00000000e+00 1.90444464e-13 0.00000000e+00 6.04225420e-14
1.52577522e+01 2.49890373e-13 5.47405431e-14 0.00000000e+00 1.95149830e-13 0.00000000e+00 5.47405431e-14
1.57683840e+01 2.51260019e-13 4.95928665e-14 0.00000000e+00 2.01667152e-13 0.00000000e+00 4.95928665e-14
1.62961051e+01 2.53254846e-13 4.49292657e-14 0.00000000e+00 2.08325580e-13 0.00000000e+00 4.49292657e-14
1.68414875e+01 2.55819457e-13 4.07042194e-14 0.00000000e+00 2.15115237e-13 0.00000000e+00 4.07042194e-14
1.74051222e+01 2.55075652e-13 3.68764869e-14 0.00000000e+00 2.18199165e-13 0.00000000e+00 3.68764869e-14
1.79876201e+01 2.52397298e-13 3.34087056e-14 0.00000000e+00 2.18988593e-13 0.00000000e+00 3.34087056e-14
1.85896125e+01 2.46496093e-13 3.02670267e-14 0.00000000e+00 2.16229066e-13 0.00000000e+00 3.02670267e-14
1.92117518e+01 2.36974651e-13 2.74207841e-14 0.00000000e+00 2.09553867e-13 0.00000000e+00 2.74207841e-14
1.98547123e+01 2.26709684e-13 2.48421957e-14 0.00000000e+00 2.01867489e-13 0.00000000e+00 2.48421957e-14
2.05191907e+01 2.14664328e-13 2.25060919e-14 0.00000000e+00 1.92158237e-13 0.00000000e+00 2.25060919e-14
2.12059073e+01 2.04957789e-13 2.03896700e-14 0.00000000e+00 1.84568119e-13 0.00000000e+00 2.03896700e-14
2.19156062e+01 1.96055741e-13 1.84722717e-14 0.00000000e+00 1.77583469e-13 0.00000000e+00 1.84722717e-14
2.26490567e+01 1.87648565e-13 1.67351811e-14 0.00000000e+00 1.70913384e-13 0.00000000e+00 1.67351811e-14
2.34070535e+01 1.80834087e-13 1.51614426e-14 0.00000000e+00 1.65672644e-13 0.00000000e+00 1.51614426e-14
2.41904183e+01 1.73894749e-13 1.37356949e-14 0.00000000e+00 1.60159054e-13 0.00000000e+00 1.37356949e-14
2.50000000e+01 1.67655163e-13 1.24440213e-14 0.00000000e+00 1.55211142e-13 0.00000000e+00 1.24440213e-14
2.75422870e+01 1.51567914e-13 9.30637977e-15 0.00000000e+00 1.42261534e-13 0.00000000e+00 9.30637977e-15
3.16227766e+01 1.31874957e-13 6.14866414e-15 0.00000000e+00 1.25726293e-13 0.00000000e+00 6.14866414e-15
3.63078055e+01 1.11706221e-13 4.06238211e-15 0.00000000e+00 1.07643839e-13 0.00000000e+00 4.06238211e-15
4.16869383e+01 9.07911605e-14 2.68398924e-15 0.00000000e+00 8.81071712e-14 0.00000000e+00 2.68398924e-15
4.78630092e+01 7.00929852e-14 1.77329411e-15 0.00000000e+00 6.83196911e-14 0.00000000e+00 1.77329411e-15
5.49540874e+01 5.14774659e-14 1.17160380e-15 0.00000000e+00 5.03058621e-14 0.00000000e+00 1.17160380e-15
6.30957344e+01 3.61227275e-14 7.74070953e-16 0.00000000e+00 3.53486565e-14 0.00000000e+00 7.74070953e-16
7.24435960e+01 2.43131369e-14 5.11423607e-16 0.00000000e+00 2.38017133e-14 0.00000000e+00 5.11423607e-16
8.31763771e+01 1.57995645e-14 3.37894226e-16 0.00000000e+00 1.54616703e-14 0.00000000e+00 3.37894226e-16
9.54992586e+01 9.95063557e-15 2.23244502e-16 0.00000000e+00 9.72739107e-15 0.00000000e+00 2.23244502e-16
1.09647820e+02 6.10193472e-15 1.47496179e-16 0.00000000e+00 5.95443854e-15 0.00000000e+00 1.47496179e-16
1.25892541e+02 3.69412305e-15 9.74497594e-17 0.00000000e+00 3.59667329e-15 0.00000000e+00 9.74497594e-17
1.44543977e+02 2.19946532e-15 6.43844175e-17 0.00000000e+00 2.13508090e-15 0.00000000e+00 6.43844175e-17
1.65958691e+02 1.24005623e-15 4.25383628e-17 0.00000000e+00 1.19751787e-15 0.00000000e+00 4.25383628e-17
1.90546072e+02 6.93593663e-16 2.81048176e-17 0.00000000e+00 6.65488845e-16 0.00000000e+00 2.81048176e-17
2.18776162e+02 3.84662690e-16 1.85686688e-17 0.00000000e+00 3.66094021e-16 0.00000000e+00 1.85686688e-17
2.51188643e+02 2.11499113e-16 1.22681978e-17 0.00000000e+00 1.99230916e-16 0.00000000e+00 1.22681978e-17
2.88403150e+02 1.15347563e-16 8.10551794e-18 0.00000000e+00 1.07242045e-16 0.00000000e+00 8.10551794e-18
3.31131121e+02 6.26070286e-17 5.35526259e-18 0.00000000e+00 5.72517660e-17 0.00000000e+00 5.35526259e-18
3.80189396e+02 3.38435170e-17 3.53818691e-18 0.00000000e+00 3.03053301e-17 0.00000000e+00 3.53818691e-18
4.36515832e+02 1.82756138e-17 2.33765691e-18 0.00000000e+00 1.59379568e-17 0.00000000e+00 2.33765691e-18
5.01187234e+02 9.87455147e-18 1.54447460e-18 0.00000000e+00 8.33007687e-18 0.00000000e+00 1.54447460e-18
5.75439937e+02 5.35157654e-18 1.02042425e-18 0.00000000e+00 4.33115229e-18 0.00000000e+00 1.02042425e-18
6.60693448e+02 2.91608263e-18 6.74187617e-19 0.00000000e+00 2.24189501e-18 0.00000000e+00 6.74187617e-19
7.58577575e+02 1.60140696e-18 4.45431341e-19 0.00000000e+00 1.15597562e-18 0.00000000e+00 4.45431341e-19
8.70963590e+02 8.88207424e-19 2.94293569e-19 0.00000000e+00 5.93913855e-19 0.00000000e+00 2.94293569e-19
1.00000000e+03 3.04156992e-19 0.00000000e+00 0.00000000e+00 3.04156992e-19 0.00000000e+00 0.00000000e+00
