# column 1: lambda (micron)
# column 2: total flux; lambda*F_lambda (W/m2)
# column 3: direct stellar flux; lambda*F_lambda (W/m2)
# column 4: scattered stellar flux; lambda*F_lambda (W/m2)
# column 5: total dust emission flux; lambda*F_lambda (W/m2)
# column 6: dust emission scattered flux; lambda*F_lambda (W/m2)
# column 7: transparent flux; lambda*F_lambda (W/m2)
1.00000000e-03 1.07335779e-12 1.07335627e-12 1.51703849e-18 0.00000000e+00 0.00000000e+00 1.07335627e-12
1.14815362e-03 1.26696737e-12 1.26690456e-12 6.28119103e-17 0.00000000e+00 0.00000000e+00 1.26690456e-12
1.31825674e-03 2.34964260e-12 1.49535359e-12 8.54289005e-13 0.00000000e+00 0.00000000e+00 1.49535359e-12
1.51356125e-03 1.76529413e-12 1.76499670e-12 2.97428446e-16 0.00000000e+00 0.00000000e+00 1.76499670e-12
1.73780083e-03 2.08328379e-12 2.08326203e-12 2.17644790e-17 0.00000000e+00 0.00000000e+00 2.08326203e-12
1.99526231e-03 2.45899686e-12 2.45891716e-12 7.97016922e-17 0.00000000e+00 0.00000000e+00 2.45891716e-12
2.29086765e-03 2.90465875e-12 2.90231066e-12 2.34808807e-15 0.00000000e+00 0.00000000e+00 2.90231066e-12
2.63026799e-03 3.42926802e-12 3.42565717e-12 3.61085114e-15 0.00000000e+00 0.00000000e+00 3.42565717e-12
3.01995172e-03 4.04450730e-12 4.04337385e-12 1.13345289e-15 0.00000000e+00 0.00000000e+00 4.04337385e-12
3.46736850e-03 4.77302909e-12 4.77247759e-12 5.51503726e-16 0.00000000e+00 0.00000000e+00 4.77247759e-12
3.98107171e-03 5.67362176e-12 5.63305378e-12 4.05679810e-14 0.00000000e+00 0.00000000e+00 5.63305378e-12
4.57088190e-03 6.73618267e-12 6.64880962e-12 8.73730493e-14 0.00000000e+00 0.00000000e+00 6.64880962e-12
5.24807460e-03 7.88274133e-12 7.84772720e-12 3.50141363e-14 0.00000000e+00 0.00000000e+00 7.84772720e-12
6.02559586e-03 9.41385631e-12 9.26283435e-12 1.51021953e-13 0.00000000e+00 0.00000000e+00 9.26283435e-12
6.91830971e-03 1.09760394e-11 1.09331145e-11 4.29248595e-14 0.00000000e+00 0.00000000e+00 1.09331145e-11
7.94328235e-03 1.29433380e-11 1.29045807e-11 3.87573540e-14 2.66058252e-303 8.05237389e-306 1.29045807e-11
9.12010839e-03 1.53093164e-11 1.52315429e-11 7.77735284e-14 1.32051444e-264 1.42095381e-266 1.52315429e-11
1.04712855e-02 1.70655054e-11 1.70115517e-11 5.39536687e-14 6.14537607e-231 3.54817714e-233 1.70115517e-11
1.20226443e-02 1.70827168e-11 1.70115517e-11 7.11650403e-14 1.05094253e-201 6.04925538e-204 1.70115517e-11
1.38038426e-02 1.70934428e-11 1.70115517e-11 8.18910346e-14 3.10093121e-176 2.86732078e-178 1.70115517e-11
1.58489319e-02 1.71112073e-11 1.70115517e-11 9.96556269e-14 4.48353017e-154 4.38257869e-156 1.70115517e-11
1.81970086e-02 1.71129484e-11 1.70115517e-11 1.01396672e-13 8.48878066e-135 1.02649287e-136 1.70115517e-11
2.08929613e-02 1.71343294e-11 1.70115517e-11 1.22777679e-13 4.68092416e-118 7.85796554e-120 1.70115517e-11
2.39883292e-02 1.71522993e-11 1.70115517e-11 1.40747547e-13 1.71936743e-103 3.48395653e-105 1.70115517e-11
2.75422870e-02 1.71692068e-11 1.70115517e-11 1.57655076e-13 8.02766757e-91 2.10556992e-92 1.70115517e-11
3.16227766e-02 1.71917815e-11 1.70115517e-11 1.80229821e-13 8.11079632e-80 2.49281296e-81 1.70115517e-11
3.63078055e-02 1.72109575e-11 1.70115517e-11 1.99405735e-13 2.90348167e-70 1.02524771e-71 1.70115517e-11
4.16869383e-02 1.72591434e-11 1.70115517e-11 2.47591664e-13 5.70899608e-62 2.72656212e-63 1.70115517e-11
4.78630092e-02 1.73185622e-11 1.70115517e-11 3.07010486e-13 8.90494832e-55 5.63008647e-56 1.70115517e-11
5.49540874e-02 1.73712155e-11 1.70115517e-11 3.59663787e-13 1.52345907e-48 1.19072071e-49 1.70115517e-11
6.30957344e-02 1.74173229e-11 1.70115517e-11 4.05771137e-13 5.04323009e-43 4.66687831e-44 1.70115517e-11
7.24435960e-02 1.73936606e-11 1.70115517e-11 3.82108928e-13 2.94912166e-38 2.62598034e-39 1.70115517e-11
8.31763771e-02 1.73835289e-11 1.70115517e-11 3.71977158e-13 3.05695938e-34 2.69400660e-35 1.70115517e-11
9.54992586e-02 1.73978981e-11 1.70115517e-11 3.86346346e-13 8.73590043e-31 8.02532154e-32 1.70115517e-11
1.09647820e-01 1.66416151e-11 1.62459122e-11 3.95702918e-13 7.53578152e-28 7.53596182e-29 1.62459122e-11
1.25892541e-01 1.55300691e-11 1.51615674e-11 3.68501671e-13 2.45835597e-25 2.37393908e-26 1.51615674e-11
1.44543977e-01 1.44781757e-11 1.41495980e-11 3.28577702e-13 3.36734955e-23 3.13360728e-24 1.41495980e-11
1.65958691e-01 1.35510338e-11 1.32051732e-11 3.45860593e-13 1.72838203e-21 1.79531930e-22 1.32051732e-11
1.90546072e-01 1.27060453e-11 1.23237846e-11 3.82260640e-13 3.71083205e-20 4.67875987e-21 1.23237846e-11
2.18776162e-01 1.18624313e-11 1.15012250e-11 3.61205865e-13 4.44605246e-19 6.04520081e-20 1.15012250e-11
2.51188643e-01 1.11553113e-11 1.07335677e-11 4.21737998e-13 5.53631231e-18 9.29728761e-19 1.07335677e-11
2.88403150e-01 1.04033821e-11 1.00171482e-11 3.86187749e-13 4.61281251e-17 7.57524649e-18 1.00171482e-11
3.31131121e-01 9.71143663e-12 9.34854667e-12 3.62625827e-13 2.64131249e-16 4.19020396e-17 9.34854667e-12
3.80189396e-01 9.05380848e-12 8.72457139e-12 3.28133246e-13 1.10384762e-15 1.72881910e-16 8.72457139e-12
4.36515832e-01 8.44693929e-12 8.14224377e-12 3.01190864e-13 3.50465430e-15 5.44259657e-16 8.14224377e-12
5.01187234e-01 7.88567434e-12 7.59878402e-12 2.78028072e-13 8.86224910e-15 1.39582431e-15 7.59878402e-12
5.75439937e-01 7.37049329e-12 7.09159786e-12 2.60040969e-13 1.88544531e-14 3.07390494e-15 7.09159786e-12
6.60693448e-01 6.89333244e-12 6.61826421e-12 2.38811217e-13 3.62570131e-14 6.39145432e-15 6.61826421e-12
7.58577575e-01 6.46044722e-12 6.17652353e-12 2.15073655e-13 6.88500282e-14 1.35674522e-14 6.17652353e-12
8.70963590e-01 6.09336122e-12 5.76426715e-12 1.93892896e-13 1.35201176e-13 2.94706347e-14 5.76426715e-12
1.00000000e+00 5.81591205e-12 5.37952711e-12 1.64979505e-13 2.71405436e-13 6.17171587e-14 5.37952711e-12
1.14815362e+00 5.69049415e-12 5.02046681e-12 1.34034126e-13 5.35993206e-13 1.17523736e-13 5.02046681e-12
1.31825674e+00 5.79466854e-12 4.68537225e-12 1.05038952e-13 1.00425735e-12 1.99213667e-13 4.68537225e-12
1.51356125e+00 6.18655817e-12 4.37264380e-12 8.05211697e-14 1.73339320e-12 3.01388535e-13 4.37264380e-12
1.73780083e+00 6.84914095e-12 4.08078863e-12 6.02819022e-14 2.70807042e-12 3.95835001e-13 4.08078863e-12
1.99526231e+00 7.66971640e-12 3.80841354e-12 4.48903850e-14 3.81641247e-12 4.51947078e-13 3.80841354e-12
2.29086765e+00 8.48043551e-12 3.55421832e-12 3.28178060e-14 4.89339939e-12 4.57116705e-13 3.55421832e-12
2.63026799e+00 9.18997982e-12 3.31698953e-12 2.35717828e-14 5.84941851e-12 4.29744200e-13 3.31698953e-12
3.01995172e+00 9.68995101e-12 3.09559474e-12 1.69151800e-14 6.57744109e-12 3.77884202e-13 3.09559474e-12
3.46736850e+00 9.94847125e-12 2.88897711e-12 1.21550951e-14 7.04733904e-12 3.14611134e-13 2.88897711e-12
3.98107171e+00 9.96795173e-12 2.69615031e-12 8.49523048e-15 7.26330619e-12 2.43601405e-13 2.69615031e-12
4.57088190e+00 9.81226886e-12 2.51619387e-12 5.79063688e-15 7.29028435e-12 1.77611867e-13 2.51619387e-12
5.24807460e+00 9.22037809e-12 2.08050667e-12 3.34846954e-15 7.13652296e-12 1.20190042e-13 2.08050667e-12
6.02559586e+00 8.27266356e-12 1.37457712e-12 1.48732391e-15 6.89659911e-12 7.65172578e-14 1.37457712e-12
6.70000000e+00 7.61828643e-12 9.99872685e-13 7.59635757e-16 6.61765411e-12 5.17218204e-14 9.99872685e-13
6.92422916e+00 7.42012319e-12 9.05846924e-13 6.22856238e-16 6.51365341e-12 4.51401476e-14 9.05846924e-13
7.15596261e+00 7.26737631e-12 8.20663132e-13 4.94224650e-16 6.44621896e-12 3.91279798e-14 8.20663132e-13
7.39545150e+00 7.22527216e-12 7.43489831e-13 3.76428533e-16 6.48140590e-12 3.34243255e-14 7.43489831e-13
7.64295536e+00 7.42703335e-12 6.73573732e-13 2.60511498e-16 6.75319910e-12 2.73835613e-14 6.73573732e-13
7.89874245e+00 7.96590573e-12 6.10232385e-13 1.58577425e-16 7.35551477e-12 2.11514474e-14 6.10232385e-13
8.16308998e+00 8.68087709e-12 5.52847515e-13 8.94992411e-17 8.12794008e-12 1.59099224e-14 5.52847515e-13
8.43628443e+00 9.58902479e-12 5.00858987e-13 4.88966108e-17 9.08811690e-12 1.14769647e-14 5.00858987e-13
8.71862190e+00 1.01013159e-11 4.53759343e-13 3.07091225e-17 9.64752581e-12 8.89377685e-15 4.53759343e-13
9.01040836e+00 1.05444118e-11 4.11088843e-13 1.92397977e-17 1.01333037e-11 6.76704868e-15 4.11088843e-13
9.31196005e+00 1.09105281e-11 3.72430980e-13 0.00000000e+00 1.05380971e-11 0.00000000e+00 3.72430980e-13
9.62360379e+00 1.07650901e-11 3.37408415e-13 0.00000000e+00 1.04276817e-11 0.00000000e+00 3.37408415e-13
9.94567731e+00 1.02765457e-11 3.05679292e-13 0.00000000e+00 9.97086640e-12 0.00000000e+00 3.05679292e-13
1.02785297e+01 9.74538891e-12 2.76933904e-13 0.00000000e+00 9.46845501e-12 0.00000000e+00 2.76933904e-13
1.06225216e+01 9.23271891e-12 2.50891667e-13 0.00000000e+00 8.98182724e-12 0.00000000e+00 2.50891667e-13
1.09780260e+01 8.73572010e-12 2.27298384e-13 0.00000000e+00 8.50842171e-12 0.00000000e+00 2.27298384e-13
1.13454280e+01 8.26815805e-12 2.05923759e-13 0.00000000e+00 8.06223429e-12 0.00000000e+00 2.05923759e-13
1.17251259e+01 7.79731273e-12 1.86559155e-13 0.00000000e+00 7.61075358e-12 0.00000000e+00 1.86559155e-13
1.21175312e+01 7.36964309e-12 1.69015555e-13 0.00000000e+00 7.20062754e-12 0.00000000e+00 1.69015555e-13
1.25230691e+01 6.99201287e-12 1.53121715e-13 0.00000000e+00 6.83889116e-12 0.00000000e+00 1.53121715e-13
1.29421791e+01 6.60017159e-12 1.38722496e-13 0.00000000e+00 6.46144909e-12 0.00000000e+00 1.38722496e-13
1.33753155e+01 6.25772755e-12 1.25677347e-13 0.00000000e+00 6.13205020e-12 0.00000000e+00 1.25677347e-13
1.38229477e+01 6.02798065e-12 1.13858934e-13 0.00000000e+00 5.91412172e-12 0.00000000e+00 1.13858934e-13
1.42855609e+01 5.88900677e-12 1.03151898e-13 0.00000000e+00 5.78585487e-12 0.00000000e+00 1.03151898e-13
1.47636563e+01 5.96100134e-12 9.34517274e-14 0.00000000e+00 5.86754961e-12 0.00000000e+00 9.34517274e-14
1.52577522e+01 6.06765234e-12 8.46637387e-14 0.00000000e+00 5.98298860e-12 0.00000000e+00 8.46637387e-14
1.57683840e+01 6.18421465e-12 7.67021526e-14 0.00000000e+00 6.10751250e-12 0.00000000e+00 7.67021526e-14
1.62961051e+01 6.32537060e-12 6.94892560e-14 0.00000000e+00 6.25588135e-12 0.00000000e+00 6.94892560e-14
1.68414875e+01 6.45627385e-12 6.29546439e-14 0.00000000e+00 6.39331920e-12 0.00000000e+00 6.29546439e-14
1.74051222e+01 6.54069399e-12 5.70345319e-14 0.00000000e+00 6.48365946e-12 0.00000000e+00 5.70345319e-14
1.79876201e+01 6.56773568e-12 5.16711337e-14 0.00000000e+00 6.51606454e-12 0.00000000e+00 5.16711337e-14
1.85896125e+01 6.56401638e-12 4.68120974e-14 0.00000000e+00 6.51720428e-12 0.00000000e+00 4.68120974e-14
1.92117518e+01 6.43505851e-12 4.24099939e-14 0.00000000e+00 6.39264851e-12 0.00000000e+00 4.24099939e-14
1.98547123e+01 6.29371820e-12 3.84218542e-14 0.00000000e+00 6.25529635e-12 0.00000000e+00 3.84218542e-14
2.05191907e+01 6.13006275e-12 3.48087501e-14 0.00000000e+00 6.09525400e-12 0.00000000e+00 3.48087501e-14
2.12059073e+01 5.96138337e-12 3.15354141e-14 0.00000000e+00 5.92984795e-12 0.00000000e+00 3.15354141e-14
2.19156062e+01 5.79983135e-12 2.85698952e-14 0.00000000e+00 5.77126145e-12 0.00000000e+00 2.85698952e-14
2.26490567e+01 5.62779677e-12 2.58832470e-14 0.00000000e+00 5.60191352e-12 0.00000000e+00 2.58832470e-14
2.34070535e+01 5.45296287e-12 2.34492452e-14 0.00000000e+00 5.42951362e-12 0.00000000e+00 2.34492452e-14
2.41904183e+01 5.30507735e-12 2.12441313e-14 0.00000000e+00 5.28383322e-12 0.00000000e+00 2.12441313e-14
2.50000000e+01 5.11633182e-12 1.92463813e-14 0.00000000e+00 5.09708544e-12 0.00000000e+00 1.92463813e-14
2.75422870e+01 4.58766777e-12 1.43935895e-14 0.00000000e+00 4.57327418e-12 0.00000000e+00 1.43935895e-14
3.16227766e+01 3.77779467e-12 9.50975027e-15 0.00000000e+00 3.76828492e-12 0.00000000e+00 9.50975027e-15
3.63078055e+01 2.91628716e-12 6.28302969e-15 0.00000000e+00 2.91000413e-12 0.00000000e+00 6.28302969e-15
4.16869383e+01 2.11014531e-12 4.15115655e-15 0.00000000e+00 2.10599416e-12 0.00000000e+00 4.15115655e-15
4.78630092e+01 1.42087286e-12 2.74264194e-15 0.00000000e+00 1.41813022e-12 0.00000000e+00 2.74264194e-15
5.49540874e+01 9.03311914e-13 1.81204556e-15 0.00000000e+00 9.01499869e-13 0.00000000e+00 1.81204556e-15
6.30957344e+01 5.48180367e-13 1.19720663e-15 0.00000000e+00 5.46983160e-13 0.00000000e+00 1.19720663e-15
7.24435960e+01 3.20475766e-13 7.90986575e-16 0.00000000e+00 3.19684779e-13 0.00000000e+00 7.90986575e-16
8.31763771e+01 1.82221734e-13 5.22599647e-16 0.00000000e+00 1.81699134e-13 0.00000000e+00 5.22599647e-16
9.54992586e+01 1.01700578e-13 3.45278163e-16 0.00000000e+00 1.01355300e-13 0.00000000e+00 3.45278163e-16
1.09647820e+02 5.59141947e-14 2.28123020e-16 0.00000000e+00 5.56860717e-14 0.00000000e+00 2.28123020e-16
1.25892541e+02 3.07483458e-14 1.50719385e-16 0.00000000e+00 3.05976264e-14 0.00000000e+00 1.50719385e-16
1.44543977e+02 1.68236412e-14 9.95793099e-17 0.00000000e+00 1.67240619e-14 0.00000000e+00 9.95793099e-17
1.65958691e+02 8.78128705e-15 6.57913976e-17 0.00000000e+00 8.71549565e-15 0.00000000e+00 6.57913976e-17
1.90546072e+02 4.58951657e-15 4.34679453e-17 0.00000000e+00 4.54604863e-15 0.00000000e+00 4.34679453e-17
2.18776162e+02 2.39733226e-15 2.87189867e-17 0.00000000e+00 2.36861327e-15 0.00000000e+00 2.87189867e-17
2.51188643e+02 1.24920903e-15 1.89744463e-17 0.00000000e+00 1.23023459e-15 0.00000000e+00 1.89744463e-17
2.88403150e+02 6.48660821e-16 1.25362924e-17 0.00000000e+00 6.36124529e-16 0.00000000e+00 1.25362924e-17
3.31131121e+02 3.36375660e-16 8.28264623e-18 0.00000000e+00 3.28093014e-16 0.00000000e+00 8.28264623e-18
3.80189396e+02 1.74073723e-16 5.47229010e-18 0.00000000e+00 1.68601433e-16 0.00000000e+00 5.47229010e-18
4.36515832e+02 9.00514917e-17 3.61550621e-18 0.00000000e+00 8.64359855e-17 0.00000000e+00 3.61550621e-18
5.01187234e+02 4.65853828e-17 2.38874127e-18 0.00000000e+00 4.41966415e-17 0.00000000e+00 2.38874127e-18
5.75439937e+02 2.41282947e-17 1.57822570e-18 0.00000000e+00 2.25500690e-17 0.00000000e+00 1.57822570e-18
6.60693448e+02 1.25267789e-17 1.04272338e-18 0.00000000e+00 1.14840556e-17 0.00000000e+00 1.04272338e-18
7.58577575e+02 6.52779705e-18 6.88920507e-19 0.00000000e+00 5.83887655e-18 0.00000000e+00 6.88920507e-19
8.70963590e+02 3.41889698e-18 4.55165265e-19 0.00000000e+00 2.96373172e-18 0.00000000e+00 4.55165265e-19
1.00000000e+03 1.50197240e-18 0.00000000e+00 0.00000000e+00 1.50197240e-18 0.00000000e+00 0.00000000e+00
