# column 1: lambda (micron)
# column 2: total flux; lambda*F_lambda (W/m2)
# column 3: direct stellar flux; lambda*F_lambda (W/m2)
# column 4: scattered stellar flux; lambda*F_lambda (W/m2)
# column 5: total dust emission flux; lambda*F_lambda (W/m2)
# column 6: dust emission scattered flux; lambda*F_lambda (W/m2)
# column 7: transparent flux; lambda*F_lambda (W/m2)
1.00000000e-03 1.07336766e-12 1.07335627e-12 1.13855616e-17 0.00000000e+00 0.00000000e+00 1.07335627e-12
1.14815362e-03 1.26692152e-12 1.26690456e-12 1.69677293e-17 0.00000000e+00 0.00000000e+00 1.26690456e-12
1.31825674e-03 1.49537805e-12 1.49535359e-12 2.44649307e-17 0.00000000e+00 0.00000000e+00 1.49535359e-12
1.51356125e-03 1.76503425e-12 1.76499670e-12 3.75492812e-17 0.00000000e+00 0.00000000e+00 1.76499670e-12
1.73780083e-03 2.08332872e-12 2.08326203e-12 6.66934796e-17 0.00000000e+00 0.00000000e+00 2.08326203e-12
1.99526231e-03 2.45903109e-12 2.45891716e-12 1.13931794e-16 0.00000000e+00 0.00000000e+00 2.45891716e-12
2.29086765e-03 2.90248622e-12 2.90231066e-12 1.75555022e-16 0.00000000e+00 0.00000000e+00 2.90231066e-12
2.63026799e-03 3.42600267e-12 3.42565717e-12 3.45505229e-16 0.00000000e+00 0.00000000e+00 3.42565717e-12
3.01995172e-03 4.04393128e-12 4.04337385e-12 5.57430672e-16 0.00000000e+00 0.00000000e+00 4.04337385e-12
3.46736850e-03 4.77363725e-12 4.77247759e-12 1.15965700e-15 0.00000000e+00 0.00000000e+00 4.77247759e-12
3.98107171e-03 5.63444089e-12 5.63305378e-12 1.38710652e-15 0.00000000e+00 0.00000000e+00 5.63305378e-12
4.57088190e-03 6.65219914e-12 6.64880962e-12 3.38951554e-15 0.00000000e+00 0.00000000e+00 6.64880962e-12
5.24807460e-03 7.85420379e-12 7.84772720e-12 6.47659266e-15 0.00000000e+00 0.00000000e+00 7.84772720e-12
6.02559586e-03 9.27372100e-12 9.26283435e-12 1.08866451e-14 0.00000000e+00 0.00000000e+00 9.26283435e-12
6.91830971e-03 1.09490668e-11 1.09331145e-11 1.59522486e-14 0.00000000e+00 0.00000000e+00 1.09331145e-11
7.94328235e-03 1.29329250e-11 1.29045807e-11 2.83442974e-14 0.00000000e+00 0.00000000e+00 1.29045807e-11
9.12010839e-03 1.52752457e-11 1.52315429e-11 4.37028521e-14 0.00000000e+00 0.00000000e+00 1.52315429e-11
1.04712855e-02 1.70741756e-11 1.70115517e-11 6.26238421e-14 0.00000000e+00 0.00000000e+00 1.70115517e-11
1.20226443e-02 1.71322113e-11 1.70115517e-11 1.20659624e-13 0.00000000e+00 0.00000000e+00 1.70115517e-11
1.38038426e-02 1.71435645e-11 1.70115517e-11 1.32012760e-13 1.65941345e-293 2.12610642e-294 1.70115517e-11
1.58489319e-02 1.72418685e-11 1.70115517e-11 2.30316790e-13 3.99256364e-256 6.60922034e-257 1.70115517e-11
1.81970086e-02 1.72522401e-11 1.70115517e-11 2.40688339e-13 1.26468586e-223 1.66751099e-224 1.70115517e-11
2.08929613e-02 1.73310170e-11 1.70115517e-11 3.19465303e-13 2.40324980e-195 3.48839827e-196 1.70115517e-11
2.39883292e-02 1.74204363e-11 1.70115517e-11 4.08884539e-13 9.69512254e-171 1.34089099e-171 1.70115517e-11
2.75422870e-02 1.74787695e-11 1.70115517e-11 4.67217820e-13 2.47303908e-149 3.26474438e-150 1.70115517e-11
3.16227766e-02 1.75574207e-11 1.70115517e-11 5.45868991e-13 1.03263671e-130 1.38868501e-131 1.70115517e-11
3.63078055e-02 1.75573159e-11 1.70115517e-11 5.45764203e-13 1.58605896e-114 2.13314505e-115 1.70115517e-11
4.16869383e-02 1.76665729e-11 1.70115517e-11 6.55021148e-13 1.85834637e-100 2.61513925e-101 1.70115517e-11
4.78630092e-02 1.76770260e-11 1.70115517e-11 6.65474266e-13 3.10253269e-88 4.66048994e-89 1.70115517e-11
5.49540874e-02 1.76237889e-11 1.70115517e-11 6.12237204e-13 1.23766116e-77 1.88004240e-78 1.70115517e-11
6.30957344e-02 1.74920833e-11 1.70115517e-11 4.80531549e-13 2.51703555e-68 3.82238323e-69 1.70115517e-11
7.24435960e-02 1.73591541e-11 1.70115517e-11 3.47602394e-13 2.91981859e-60 4.06779131e-61 1.70115517e-11
8.31763771e-02 1.73405070e-11 1.70115517e-11 3.28955297e-13 2.41376238e-53 3.20482908e-54 1.70115517e-11
9.54992586e-02 1.73437993e-11 1.70115517e-11 3.32247557e-13 2.33528681e-47 3.11112255e-48 1.70115517e-11
1.09647820e-01 1.66478112e-11 1.62459122e-11 4.01899053e-13 3.37159744e-42 5.00184214e-43 1.62459122e-11
1.25892541e-01 1.56309812e-11 1.51615674e-11 4.69413783e-13 9.54224485e-38 1.48672958e-38 1.51615674e-11
1.44543977e-01 1.46165247e-11 1.41495980e-11 4.66926734e-13 6.45589975e-34 1.02755517e-34 1.41495980e-11
1.65958691e-01 1.36999225e-11 1.32051732e-11 4.94749367e-13 9.81118579e-31 1.71970583e-31 1.32051732e-11
1.90546072e-01 1.27770341e-11 1.23237846e-11 4.53249409e-13 3.96232854e-28 7.84598240e-29 1.23237846e-11
2.18776162e-01 1.18376070e-11 1.15012250e-11 3.36382019e-13 5.88057580e-26 1.17848329e-26 1.15012250e-11
2.51188643e-01 1.11405774e-11 1.07335677e-11 4.07009639e-13 7.69210426e-24 2.02167633e-24 1.07335677e-11
2.88403150e-01 1.04395831e-11 1.00171482e-11 4.22434845e-13 5.20887947e-22 1.49802211e-22 1.00171482e-11
3.31131121e-01 9.76970001e-12 9.34854667e-12 4.21153316e-13 1.95095524e-20 6.15820366e-21 9.34854667e-12
3.80189396e-01 9.12221476e-12 8.72457139e-12 3.97642925e-13 4.50427571e-19 1.52407835e-19 8.72457139e-12
4.36515832e-01 8.52147126e-12 8.14224377e-12 3.79220556e-13 6.93237203e-18 2.57582570e-18 8.14224377e-12
5.01187234e-01 7.95323549e-12 7.59878402e-12 3.54377720e-13 7.37496921e-17 2.93533520e-17 7.59878402e-12
5.75439937e-01 7.40935256e-12 7.09159786e-12 3.17173654e-13 5.81040218e-16 2.32110763e-16 7.09159786e-12
6.60693448e-01 6.90972370e-12 6.61826421e-12 2.88131280e-13 3.32821320e-15 1.32197925e-15 6.61826421e-12
7.58577575e-01 6.44692428e-12 6.17652353e-12 2.55071741e-13 1.53290055e-14 5.94866492e-15 6.17652353e-12
8.70963590e-01 6.03447136e-12 5.76426715e-12 2.14957635e-13 5.52465759e-14 2.05094108e-14 5.76426715e-12
1.00000000e+00 5.72537032e-12 5.37952711e-12 1.79647333e-13 1.66195875e-13 5.58256609e-14 5.37952711e-12
1.14815362e+00 5.59343173e-12 5.02046681e-12 1.43377286e-13 4.29587627e-13 1.30405763e-13 5.02046681e-12
1.31825674e+00 5.77466080e-12 4.68537225e-12 1.12483069e-13 9.76805488e-13 2.53368673e-13 4.68537225e-12
1.51356125e+00 6.38747177e-12 4.37264380e-12 8.81720182e-14 1.92665596e-12 4.24637496e-13 4.37264380e-12
1.73780083e+00 7.56790767e-12 4.08078863e-12 6.84571506e-14 3.41866188e-12 6.15390898e-13 4.08078863e-12
1.99526231e+00 9.20384524e-12 3.80841354e-12 5.32590409e-14 5.34217266e-12 7.75000437e-13 3.80841354e-12
2.29086765e+00 1.11868194e-11 3.55421832e-12 4.19603661e-14 7.59064073e-12 8.65624231e-13 3.55421832e-12
2.63026799e+00 1.32972526e-11 3.31698953e-12 3.25442706e-14 9.94771875e-12 8.95217062e-13 3.31698953e-12
3.01995172e+00 1.53973416e-11 3.09559474e-12 2.52897627e-14 1.22764571e-11 8.57998024e-13 3.09559474e-12
3.46736850e+00 1.71521303e-11 2.88897711e-12 1.92675515e-14 1.42438856e-11 7.74437953e-13 2.88897711e-12
3.98107171e+00 1.86724353e-11 2.69615031e-12 1.43432341e-14 1.59619418e-11 6.61118386e-13 2.69615031e-12
4.57088190e+00 1.97699818e-11 2.51619387e-12 1.03954485e-14 1.72433925e-11 5.31158865e-13 2.51619387e-12
5.24807460e+00 2.02417053e-11 2.08050667e-12 6.29096442e-15 1.81549077e-11 3.87456702e-13 2.08050667e-12
6.02559586e+00 2.01211872e-11 1.37457712e-12 2.92618083e-15 1.87436839e-11 2.65975634e-13 1.37457712e-12
6.70000000e+00 1.96675174e-11 9.99872685e-13 1.55481568e-15 1.86660899e-11 1.87105065e-13 9.99872685e-13
6.92422916e+00 1.95166211e-11 9.05846924e-13 1.26957300e-15 1.86095046e-11 1.66480000e-13 9.05846924e-13
7.15596261e+00 1.94985283e-11 8.20663132e-13 1.01354542e-15 1.86768516e-11 1.45670626e-13 8.20663132e-13
7.39545150e+00 1.94353520e-11 7.43489831e-13 7.73322421e-16 1.86910889e-11 1.23830132e-13 7.43489831e-13
7.64295536e+00 1.96284930e-11 6.73573732e-13 5.17977143e-16 1.89544012e-11 9.85146215e-14 6.73573732e-13
7.89874245e+00 1.99406520e-11 6.10232385e-13 2.94471107e-16 1.93301251e-11 7.04391019e-14 6.10232385e-13
8.16308998e+00 2.01114687e-11 5.52847515e-13 1.55087867e-16 1.95584661e-11 4.81583697e-14 5.52847515e-13
8.43628443e+00 2.03063306e-11 5.00858987e-13 7.74018441e-17 1.98053942e-11 3.15854360e-14 5.00858987e-13
8.71862190e+00 2.03674503e-11 4.53759343e-13 4.61881222e-17 1.99136448e-11 2.32581056e-14 4.53759343e-13
9.01040836e+00 1.99507034e-11 4.11088843e-13 2.82377192e-17 1.95395863e-11 1.72235808e-14 4.11088843e-13
9.31196005e+00 1.98505565e-11 3.72430980e-13 0.00000000e+00 1.94781256e-11 0.00000000e+00 3.72430980e-13
9.62360379e+00 2.00884712e-11 3.37408415e-13 0.00000000e+00 1.97510628e-11 0.00000000e+00 3.37408415e-13
9.94567731e+00 1.95821341e-11 3.05679292e-13 0.00000000e+00 1.92764548e-11 0.00000000e+00 3.05679292e-13
1.02785297e+01 1.94929239e-11 2.76933904e-13 0.00000000e+00 1.92159900e-11 0.00000000e+00 2.76933904e-13
1.06225216e+01 1.95590512e-11 2.50891667e-13 0.00000000e+00 1.93081595e-11 0.00000000e+00 2.50891667e-13
1.09780260e+01 1.95056084e-11 2.27298384e-13 0.00000000e+00 1.92783101e-11 0.00000000e+00 2.27298384e-13
1.13454280e+01 1.96041957e-11 2.05923759e-13 0.00000000e+00 1.93982719e-11 0.00000000e+00 2.05923759e-13
1.17251259e+01 1.97320507e-11 1.86559155e-13 0.00000000e+00 1.95454916e-11 0.00000000e+00 1.86559155e-13
1.21175312e+01 1.98214207e-11 1.69015555e-13 0.00000000e+00 1.96524051e-11 0.00000000e+00 1.69015555e-13
1.25230691e+01 1.99064710e-11 1.53121715e-13 0.00000000e+00 1.97533493e-11 0.00000000e+00 1.53121715e-13
1.29421791e+01 1.97860176e-11 1.38722496e-13 0.00000000e+00 1.96472951e-11 0.00000000e+00 1.38722496e-13
1.33753155e+01 1.96457482e-11 1.25677347e-13 0.00000000e+00 1.95200708e-11 0.00000000e+00 1.25677347e-13
1.38229477e+01 1.95151973e-11 1.13858934e-13 0.00000000e+00 1.94013383e-11 0.00000000e+00 1.13858934e-13
1.42855609e+01 1.94770510e-11 1.03151898e-13 0.00000000e+00 1.93738991e-11 0.00000000e+00 1.03151898e-13
1.47636563e+01 1.97626884e-11 9.34517274e-14 0.00000000e+00 1.96692367e-11 0.00000000e+00 9.34517274e-14
1.52577522e+01 2.01198459e-11 8.46637387e-14 0.00000000e+00 2.00351821e-11 0.00000000e+00 8.46637387e-14
1.57683840e+01 2.04085957e-11 7.67021526e-14 0.00000000e+00 2.03318935e-11 0.00000000e+00 7.67021526e-14
1.62961051e+01 2.08010858e-11 6.94892560e-14 0.00000000e+00 2.07315966e-11 0.00000000e+00 6.94892560e-14
1.68414875e+01 2.09457564e-11 6.29546439e-14 0.00000000e+00 2.08828018e-11 0.00000000e+00 6.29546439e-14
1.74051222e+01 2.13254658e-11 5.70345319e-14 0.00000000e+00 2.12684313e-11 0.00000000e+00 5.70345319e-14
1.79876201e+01 2.14876436e-11 5.16711337e-14 0.00000000e+00 2.14359725e-11 0.00000000e+00 5.16711337e-14
1.85896125e+01 2.15813796e-11 4.68120974e-14 0.00000000e+00 2.15345675e-11 0.00000000e+00 4.68120974e-14
1.92117518e+01 2.15693016e-11 4.24099939e-14 0.00000000e+00 2.15268916e-11 0.00000000e+00 4.24099939e-14
1.98547123e+01 2.15327252e-11 3.84218542e-14 0.00000000e+00 2.14943033e-11 0.00000000e+00 3.84218542e-14
2.05191907e+01 2.14308990e-11 3.48087501e-14 0.00000000e+00 2.13960902e-11 0.00000000e+00 3.48087501e-14
2.12059073e+01 2.11217071e-11 3.15354141e-14 0.00000000e+00 2.10901717e-11 0.00000000e+00 3.15354141e-14
2.19156062e+01 2.07943218e-11 2.85698952e-14 0.00000000e+00 2.07657519e-11 0.00000000e+00 2.85698952e-14
2.26490567e+01 2.05080730e-11 2.58832470e-14 0.00000000e+00 2.04821897e-11 0.00000000e+00 2.58832470e-14
2.34070535e+01 2.02022472e-11 2.34492452e-14 0.00000000e+00 2.01787979e-11 0.00000000e+00 2.34492452e-14
2.41904183e+01 1.96983751e-11 2.12441313e-14 0.00000000e+00 1.96771310e-11 0.00000000e+00 2.12441313e-14
2.50000000e+01 1.92584886e-11 1.92463813e-14 0.00000000e+00 1.92392422e-11 0.00000000e+00 1.92463813e-14
2.75422870e+01 1.75556216e-11 1.43935895e-14 0.00000000e+00 1.75412280e-11 0.00000000e+00 1.43935895e-14
3.16227766e+01 1.48120068e-11 9.50975027e-15 0.00000000e+00 1.48024970e-11 0.00000000e+00 9.50975027e-15
3.63078055e+01 1.16600795e-11 6.28302969e-15 0.00000000e+00 1.16537964e-11 0.00000000e+00 6.28302969e-15
4.16869383e+01 8.58637197e-12 4.15115655e-15 0.00000000e+00 8.58222082e-12 0.00000000e+00 4.15115655e-15
4.78630092e+01 5.88599904e-12 2.74264194e-15 0.00000000e+00 5.88325640e-12 0.00000000e+00 2.74264194e-15
5.49540874e+01 3.80046082e-12 1.81204556e-15 0.00000000e+00 3.79864877e-12 0.00000000e+00 1.81204556e-15
6.30957344e+01 2.32951721e-12 1.19720663e-15 0.00000000e+00 2.32832001e-12 0.00000000e+00 1.19720663e-15
7.24435960e+01 1.37129735e-12 7.90986575e-16 0.00000000e+00 1.37050636e-12 0.00000000e+00 7.90986575e-16
8.31763771e+01 7.82559501e-13 5.22599647e-16 0.00000000e+00 7.82036901e-13 0.00000000e+00 5.22599647e-16
9.54992586e+01 4.37336654e-13 3.45278163e-16 0.00000000e+00 4.36991375e-13 0.00000000e+00 3.45278163e-16
1.09647820e+02 2.40327277e-13 2.28123020e-16 0.00000000e+00 2.40099154e-13 0.00000000e+00 2.28123020e-16
1.25892541e+02 1.31840842e-13 1.50719385e-16 0.00000000e+00 1.31690122e-13 0.00000000e+00 1.50719385e-16
1.44543977e+02 7.19286753e-14 9.95793099e-17 0.00000000e+00 7.18290959e-14 0.00000000e+00 9.95793099e-17
1.65958691e+02 3.74563355e-14 6.57913976e-17 0.00000000e+00 3.73905441e-14 0.00000000e+00 6.57913976e-17
1.90546072e+02 1.95213033e-14 4.34679453e-17 0.00000000e+00 1.94778354e-14 0.00000000e+00 4.34679453e-17
2.18776162e+02 1.01601688e-14 2.87189867e-17 0.00000000e+00 1.01314498e-14 0.00000000e+00 2.87189867e-17
2.51188643e+02 5.27200016e-15 1.89744463e-17 0.00000000e+00 5.25302572e-15 0.00000000e+00 1.89744463e-17
2.88403150e+02 2.72409242e-15 1.25362924e-17 0.00000000e+00 2.71155612e-15 0.00000000e+00 1.25362924e-17
3.31131121e+02 1.40450911e-15 8.28264623e-18 0.00000000e+00 1.39622646e-15 0.00000000e+00 8.28264623e-18
3.80189396e+02 7.21938070e-16 5.47229010e-18 0.00000000e+00 7.16465780e-16 0.00000000e+00 5.47229010e-18
4.36515832e+02 3.70408810e-16 3.61550621e-18 0.00000000e+00 3.66793304e-16 0.00000000e+00 3.61550621e-18
5.01187234e+02 1.89710918e-16 2.38874127e-18 0.00000000e+00 1.87322177e-16 0.00000000e+00 2.38874127e-18
5.75439937e+02 9.70449745e-17 1.57822570e-18 0.00000000e+00 9.54667488e-17 0.00000000e+00 1.57822570e-18
6.60693448e+02 4.96119729e-17 1.04272338e-18 0.00000000e+00 4.85692496e-17 0.00000000e+00 1.04272338e-18
7.58577575e+02 2.53609556e-17 6.88920507e-19 0.00000000e+00 2.46720351e-17 0.00000000e+00 6.88920507e-19
8.70963590e+02 1.29682932e-17 4.55165265e-19 0.00000000e+00 1.25131279e-17 0.00000000e+00 4.55165265e-19
1.00000000e+03 6.33696516e-18 0.00000000e+00 0.00000000e+00 6.33696516e-18 0.00000000e+00 0.00000000e+00
