# column 1: lambda (micron)
# column 2: total flux; lambda*F_lambda (W/m2)
# column 3: direct stellar flux; lambda*F_lambda (W/m2)
# column 4: scattered stellar flux; lambda*F_lambda (W/m2)
# column 5: total dust emission flux; lambda*F_lambda (W/m2)
# column 6: dust emission scattered flux; lambda*F_lambda (W/m2)
# column 7: transparent flux; lambda*F_lambda (W/m2)
1.00000000e-03 9.68074681e-13 9.68073281e-13 1.40036192e-18 0.00000000e+00 0.00000000e+00 9.68073281e-13
1.14815362e-03 1.14263911e-12 1.14263687e-12 2.24321300e-18 0.00000000e+00 0.00000000e+00 1.14263687e-12
1.31825674e-03 1.34868149e-12 1.34867788e-12 3.61766068e-18 0.00000000e+00 0.00000000e+00 1.34867788e-12
1.51356125e-03 1.59187788e-12 1.59187233e-12 5.55363123e-18 0.00000000e+00 0.00000000e+00 1.59187233e-12
1.73780083e-03 1.87892991e-12 1.87891976e-12 1.01494453e-17 0.00000000e+00 0.00000000e+00 1.87891976e-12
1.99526231e-03 2.21774600e-12 2.21772777e-12 1.82337264e-17 0.00000000e+00 0.00000000e+00 2.21772777e-12
2.29086765e-03 2.61765883e-12 2.61762985e-12 2.89891872e-17 0.00000000e+00 0.00000000e+00 2.61762985e-12
2.63026799e-03 3.08970076e-12 3.08964252e-12 5.82330954e-17 0.00000000e+00 0.00000000e+00 3.08964252e-12
3.01995172e-03 3.64687022e-12 3.64676883e-12 1.01396852e-16 0.00000000e+00 0.00000000e+00 3.64676883e-12
3.46736850e-03 4.30453105e-12 4.30435650e-12 1.74553692e-16 0.00000000e+00 0.00000000e+00 4.30435650e-12
3.98107171e-03 5.08080021e-12 5.08052080e-12 2.79408909e-16 0.00000000e+00 0.00000000e+00 5.08052080e-12
4.57088190e-03 5.99724157e-12 5.99664354e-12 5.98029683e-16 0.00000000e+00 0.00000000e+00 5.99664354e-12
5.24807460e-03 7.07903999e-12 7.07796211e-12 1.07787379e-15 0.00000000e+00 0.00000000e+00 7.07796211e-12
6.02559586e-03 8.35629875e-12 8.35426474e-12 2.03400861e-15 0.00000000e+00 0.00000000e+00 8.35426474e-12
6.91830971e-03 9.86413003e-12 9.86071107e-12 3.41896320e-15 0.00000000e+00 0.00000000e+00 9.86071107e-12
7.94328235e-03 1.16443703e-11 1.16388008e-11 5.56951418e-15 0.00000000e+00 0.00000000e+00 1.16388008e-11
9.12010839e-03 1.37467257e-11 1.37375167e-11 9.20896378e-15 0.00000000e+00 0.00000000e+00 1.37375167e-11
1.04712855e-02 1.53553994e-11 1.53429287e-11 1.24707717e-14 0.00000000e+00 0.00000000e+00 1.53429287e-11
1.20226443e-02 1.53691144e-11 1.53429287e-11 2.61857210e-14 7.17538719e-311 9.63885352e-313 1.53429287e-11
1.38038426e-02 1.53736889e-11 1.53429287e-11 3.07602120e-14 1.09506579e-271 1.17902048e-273 1.53429287e-11
1.58489319e-02 1.53830546e-11 1.53429287e-11 4.01259342e-14 1.40300514e-237 1.95519422e-239 1.53429287e-11
1.81970086e-02 1.53981476e-11 1.53429287e-11 5.52189851e-14 6.75955760e-208 1.20844203e-209 1.53429287e-11
2.08929613e-02 1.54170673e-11 1.53429287e-11 7.41386129e-14 4.30088070e-182 9.60112351e-184 1.53429287e-11
2.39883292e-02 1.54424669e-11 1.53429287e-11 9.95382838e-14 1.23705781e-159 3.44129100e-161 1.53429287e-11
2.75422870e-02 1.54742879e-11 1.53429287e-11 1.31359190e-13 4.33712876e-140 1.57704800e-141 1.53429287e-11
3.16227766e-02 1.55079541e-11 1.53429287e-11 1.65025444e-13 4.26494925e-123 1.82969375e-124 1.53429287e-11
3.63078055e-02 1.55303451e-11 1.53429287e-11 1.87416429e-13 2.50778536e-108 1.23091966e-109 1.53429287e-11
4.16869383e-02 1.56041222e-11 1.53429287e-11 2.61193532e-13 1.72411370e-95 1.12512663e-96 1.53429287e-11
4.78630092e-02 1.56893228e-11 1.53429287e-11 3.46394139e-13 2.43579833e-84 2.02541189e-85 1.53429287e-11
5.49540874e-02 1.57614476e-11 1.53429287e-11 4.18518889e-13 1.16349271e-74 1.14871673e-75 1.53429287e-11
6.30957344e-02 1.58151482e-11 1.53429287e-11 4.72219530e-13 3.88241375e-66 4.49113013e-67 1.53429287e-11
7.24435960e-02 1.57853010e-11 1.53429287e-11 4.42372382e-13 9.52351091e-59 1.09478149e-59 1.53429287e-11
8.31763771e-02 1.57806318e-11 1.53429287e-11 4.37703149e-13 2.05399550e-52 2.54686940e-53 1.53429287e-11
9.54992586e-02 1.57924639e-11 1.53429287e-11 4.49535227e-13 7.57462724e-47 1.17092467e-47 1.53429287e-11
1.09647820e-01 1.51295642e-11 1.46523889e-11 4.77175267e-13 6.49120492e-42 1.32959309e-42 1.46523889e-11
1.25892541e-01 1.41164296e-11 1.36744049e-11 4.42024622e-13 1.57287161e-37 3.54685609e-38 1.36744049e-11
1.44543977e-01 1.31641870e-11 1.27616972e-11 4.02489784e-13 1.06448414e-33 2.39997790e-34 1.27616972e-11
1.65958691e-01 1.23142546e-11 1.19099088e-11 4.04345771e-13 1.75406012e-30 4.30237109e-31 1.19099088e-11
1.90546072e-01 1.15620364e-11 1.11149736e-11 4.47062739e-13 7.72198391e-28 2.20494701e-28 1.11149736e-11
2.18776162e-01 1.08076843e-11 1.03730969e-11 4.34587370e-13 1.25791897e-25 3.75658636e-26 1.03730969e-11
2.51188643e-01 1.01713840e-11 9.68073733e-12 4.90646635e-13 1.81168172e-23 6.28081465e-24 9.68073733e-12
2.88403150e-01 9.48616287e-12 9.03458975e-12 4.51573116e-13 1.27109627e-21 4.38242755e-22 9.03458975e-12
3.31131121e-01 8.84584928e-12 8.43156974e-12 4.14279495e-13 4.76127150e-20 1.61999225e-20 8.43156974e-12
3.80189396e-01 8.23946366e-12 7.86879872e-12 3.70663879e-13 1.05290439e-18 3.57517142e-19 7.86879872e-12
4.36515832e-01 7.68506819e-12 7.34359025e-12 3.41463248e-13 1.46870348e-17 4.97882068e-18 7.34359025e-12
5.01187234e-01 7.16098222e-12 6.85343719e-12 3.07406860e-13 1.38170900e-16 4.68197563e-17 6.85343719e-12
5.75439937e-01 6.67862126e-12 6.39599973e-12 2.81705423e-13 9.16108615e-16 3.07216877e-16 6.39599973e-12
6.60693448e-01 6.22363240e-12 5.96909425e-12 2.50018551e-13 4.51959236e-15 1.48199821e-15 5.96909425e-12
7.58577575e-01 5.81496602e-12 5.57068288e-12 2.26891714e-13 1.73914183e-14 5.53641199e-15 5.57068288e-12
8.70963590e-01 5.44721735e-12 5.19886376e-12 1.94276788e-13 5.40768013e-14 1.61324334e-14 5.19886376e-12
1.00000000e+00 5.15380011e-12 4.85186196e-12 1.62978182e-13 1.38959962e-13 3.82073828e-14 4.85186196e-12
1.14815362e+00 4.97388890e-12 4.52802104e-12 1.33673906e-13 3.12193948e-13 7.65771439e-14 4.52802104e-12
1.31825674e+00 4.95233534e-12 4.22579511e-12 1.03990353e-13 6.22549871e-13 1.31246261e-13 4.22579511e-12
1.51356125e+00 5.13335961e-12 3.94374146e-12 8.02755314e-14 1.10934261e-12 1.97341815e-13 3.94374146e-12
1.73780083e+00 5.52158964e-12 3.68051368e-12 5.93668981e-14 1.78170906e-12 2.56213489e-13 3.68051368e-12
1.99526231e+00 6.02964218e-12 3.43485522e-12 4.31387413e-14 2.55164821e-12 2.88397029e-13 3.43485522e-12
2.29086765e+00 6.57804515e-12 3.20559341e-12 3.13991891e-14 3.34105255e-12 2.84095858e-13 3.20559341e-12
2.63026799e+00 7.04727317e-12 2.99163384e-12 2.16638151e-14 4.03397552e-12 2.53508961e-13 2.99163384e-12
3.01995172e+00 7.37128145e-12 2.79195514e-12 1.48308843e-14 4.56449542e-12 2.11703894e-13 2.79195514e-12
3.46736850e+00 7.51426848e-12 2.60560415e-12 1.01552587e-14 4.89850907e-12 1.65697371e-13 2.60560415e-12
3.98107171e+00 7.50468476e-12 2.43169128e-12 7.01901114e-15 5.06597447e-12 1.25175133e-13 2.43169128e-12
4.57088190e+00 7.34678146e-12 2.26938634e-12 4.71323720e-15 5.07268188e-12 9.10476518e-14 2.26938634e-12
5.24807460e+00 6.86223413e-12 1.87643467e-12 2.73287645e-15 4.98306659e-12 6.20265043e-14 1.87643467e-12
6.02559586e+00 6.08052541e-12 1.23974809e-12 1.22039909e-15 4.83955692e-12 4.10006639e-14 1.23974809e-12
6.70000000e+00 5.60801771e-12 9.01797527e-13 6.25988318e-16 4.70559419e-12 2.83711090e-14 9.01797527e-13
6.92422916e+00 5.46848616e-12 8.16994532e-13 5.18930041e-16 4.65097270e-12 2.51769058e-14 8.16994532e-13
7.15596261e+00 5.36993482e-12 7.40166218e-13 4.03425966e-16 4.62936517e-12 2.20333284e-14 7.40166218e-13
7.39545150e+00 5.33314668e-12 6.70562664e-13 3.10099205e-16 4.66227391e-12 1.89219146e-14 6.70562664e-13
7.64295536e+00 5.50987577e-12 6.07504471e-13 2.12157608e-16 4.90215914e-12 1.52993489e-14 6.07504471e-13
7.89874245e+00 5.98127815e-12 5.50376127e-13 1.27033506e-16 5.43077499e-12 1.16704661e-14 5.50376127e-13
8.16308998e+00 6.67348235e-12 4.98620004e-13 7.24548248e-17 6.17478989e-12 8.71726635e-15 4.98620004e-13
8.43628443e+00 7.65863810e-12 4.51730909e-13 3.99327997e-17 7.20686726e-12 6.35181620e-15 4.51730909e-13
8.71862190e+00 8.34429567e-12 4.09251158e-13 2.51805213e-17 7.93501933e-12 5.06096608e-15 4.09251158e-13
9.01040836e+00 9.02543151e-12 3.70766106e-13 1.63790917e-17 8.65464903e-12 3.94051595e-15 3.70766106e-13
9.31196005e+00 9.59189883e-12 3.35900102e-13 0.00000000e+00 9.25599872e-12 0.00000000e+00 3.35900102e-13
9.62360379e+00 9.60766712e-12 3.04312818e-13 0.00000000e+00 9.30335430e-12 0.00000000e+00 3.04312818e-13
9.94567731e+00 9.16446481e-12 2.75695930e-13 0.00000000e+00 8.88876888e-12 0.00000000e+00 2.75695930e-13
1.02785297e+01 8.58069756e-12 2.49770110e-13 0.00000000e+00 8.33092745e-12 0.00000000e+00 2.49770110e-13
1.06225216e+01 8.02816341e-12 2.26282295e-13 0.00000000e+00 7.80188111e-12 0.00000000e+00 2.26282295e-13
1.09780260e+01 7.41227690e-12 2.05003220e-13 0.00000000e+00 7.20727368e-12 0.00000000e+00 2.05003220e-13
1.13454280e+01 6.93781324e-12 1.85725182e-13 0.00000000e+00 6.75208806e-12 0.00000000e+00 1.85725182e-13
1.17251259e+01 6.47776255e-12 1.68260007e-13 0.00000000e+00 6.30950254e-12 0.00000000e+00 1.68260007e-13
1.21175312e+01 6.11533536e-12 1.52437217e-13 0.00000000e+00 5.96289815e-12 0.00000000e+00 1.52437217e-13
1.25230691e+01 5.78670126e-12 1.38102367e-13 0.00000000e+00 5.64859889e-12 0.00000000e+00 1.38102367e-13
1.29421791e+01 5.50736233e-12 1.25115533e-13 0.00000000e+00 5.38224680e-12 0.00000000e+00 1.25115533e-13
1.33753155e+01 5.25827474e-12 1.13349952e-13 0.00000000e+00 5.14492479e-12 0.00000000e+00 1.13349952e-13
1.38229477e+01 5.14777768e-12 1.02690779e-13 0.00000000e+00 5.04508690e-12 0.00000000e+00 1.02690779e-13
1.42855609e+01 5.13489015e-12 9.30339713e-14 0.00000000e+00 5.04185618e-12 0.00000000e+00 9.30339713e-14
1.47636563e+01 5.25263812e-12 8.42852675e-14 0.00000000e+00 5.16835285e-12 0.00000000e+00 8.42852675e-14
1.52577522e+01 5.45465558e-12 7.63592720e-14 0.00000000e+00 5.37829630e-12 0.00000000e+00 7.63592720e-14
1.57683840e+01 5.63421792e-12 6.91786191e-14 0.00000000e+00 5.56503930e-12 0.00000000e+00 6.91786191e-14
1.62961051e+01 5.85950788e-12 6.26732185e-14 0.00000000e+00 5.79683467e-12 0.00000000e+00 6.26732185e-14
1.68414875e+01 6.05626699e-12 5.67795711e-14 0.00000000e+00 5.99948742e-12 0.00000000e+00 5.67795711e-14
1.74051222e+01 6.25788394e-12 5.14401489e-14 0.00000000e+00 6.20644379e-12 0.00000000e+00 5.14401489e-14
1.79876201e+01 6.39870508e-12 4.66028339e-14 0.00000000e+00 6.35210225e-12 0.00000000e+00 4.66028339e-14
1.85896125e+01 6.48888033e-12 4.22204090e-14 0.00000000e+00 6.44665993e-12 0.00000000e+00 4.22204090e-14
1.92117518e+01 6.47918055e-12 3.82500974e-14 0.00000000e+00 6.44093045e-12 0.00000000e+00 3.82500974e-14
1.98547123e+01 6.47472687e-12 3.46531450e-14 0.00000000e+00 6.44007373e-12 0.00000000e+00 3.46531450e-14
2.05191907e+01 6.43413373e-12 3.13944418e-14 0.00000000e+00 6.40273929e-12 0.00000000e+00 3.13944418e-14
2.12059073e+01 6.42819791e-12 2.84421796e-14 0.00000000e+00 6.39975573e-12 0.00000000e+00 2.84421796e-14
2.19156062e+01 6.39230454e-12 2.57675415e-14 0.00000000e+00 6.36653700e-12 0.00000000e+00 2.57675415e-14
2.26490567e+01 6.34314545e-12 2.33444203e-14 0.00000000e+00 6.31980103e-12 0.00000000e+00 2.33444203e-14
2.34070535e+01 6.32228294e-12 2.11491639e-14 0.00000000e+00 6.30113377e-12 0.00000000e+00 2.11491639e-14
2.41904183e+01 6.29524109e-12 1.91603445e-14 0.00000000e+00 6.27608074e-12 0.00000000e+00 1.91603445e-14
2.50000000e+01 6.25117398e-12 1.73585491e-14 0.00000000e+00 6.23381543e-12 0.00000000e+00 1.73585491e-14
2.75422870e+01 5.99304717e-12 1.29817562e-14 0.00000000e+00 5.98006542e-12 0.00000000e+00 1.29817562e-14
3.16227766e+01 5.45803351e-12 8.57696126e-15 0.00000000e+00 5.44945655e-12 0.00000000e+00 8.57696126e-15
3.63078055e+01 4.65677748e-12 5.66674211e-15 0.00000000e+00 4.65111074e-12 0.00000000e+00 5.66674211e-15
4.16869383e+01 3.72176828e-12 3.74397938e-15 0.00000000e+00 3.71802430e-12 0.00000000e+00 3.74397938e-15
4.78630092e+01 2.75445101e-12 2.47362265e-15 0.00000000e+00 2.75197739e-12 0.00000000e+00 2.47362265e-15
5.49540874e+01 1.90887418e-12 1.63430628e-15 0.00000000e+00 1.90723988e-12 0.00000000e+00 1.63430628e-15
6.30957344e+01 1.25179423e-12 1.07977545e-15 0.00000000e+00 1.25071445e-12 0.00000000e+00 1.07977545e-15
7.24435960e+01 7.82156530e-13 7.13400564e-16 0.00000000e+00 7.81443129e-13 0.00000000e+00 7.13400564e-16
8.31763771e+01 4.69959524e-13 4.71339078e-16 0.00000000e+00 4.69488185e-13 0.00000000e+00 4.71339078e-16
9.54992586e+01 2.74288876e-13 3.11410641e-16 0.00000000e+00 2.73977465e-13 0.00000000e+00 3.11410641e-16
1.09647820e+02 1.56530278e-13 2.05746970e-16 0.00000000e+00 1.56324531e-13 0.00000000e+00 2.05746970e-16
1.25892541e+02 8.86636572e-14 1.35935675e-16 0.00000000e+00 8.85277215e-14 0.00000000e+00 1.35935675e-16
1.44543977e+02 4.96723585e-14 8.98118099e-17 0.00000000e+00 4.95825467e-14 0.00000000e+00 8.98118099e-17
1.65958691e+02 2.64757977e-14 5.93380743e-17 0.00000000e+00 2.64164596e-14 0.00000000e+00 5.93380743e-17
1.90546072e+02 1.40654874e-14 3.92042769e-17 0.00000000e+00 1.40262831e-14 0.00000000e+00 3.92042769e-17
2.18776162e+02 7.44060996e-15 2.59020089e-17 0.00000000e+00 7.41470795e-15 0.00000000e+00 2.59020089e-17
2.51188643e+02 3.91439998e-15 1.71132876e-17 0.00000000e+00 3.89728669e-15 0.00000000e+00 1.71132876e-17
2.88403150e+02 2.04669240e-15 1.13066370e-17 0.00000000e+00 2.03538577e-15 0.00000000e+00 1.13066370e-17
3.31131121e+02 1.06596748e-15 7.47022097e-18 0.00000000e+00 1.05849726e-15 0.00000000e+00 7.47022097e-18
3.80189396e+02 5.52677574e-16 4.93552605e-18 0.00000000e+00 5.47742048e-16 0.00000000e+00 4.93552605e-18
4.36515832e+02 2.85716804e-16 3.26086972e-18 0.00000000e+00 2.82455935e-16 0.00000000e+00 3.26086972e-18
5.01187234e+02 1.47291254e-16 2.15443526e-18 0.00000000e+00 1.45136818e-16 0.00000000e+00 2.15443526e-18
5.75439937e+02 7.57836997e-17 1.42342126e-18 0.00000000e+00 7.43602785e-17 0.00000000e+00 1.42342126e-18
6.60693448e+02 3.89427650e-17 9.40445101e-19 0.00000000e+00 3.80023199e-17 0.00000000e+00 9.40445101e-19
7.58577575e+02 2.00011798e-17 6.21345916e-19 0.00000000e+00 1.93798338e-17 0.00000000e+00 6.21345916e-19
8.70963590e+02 1.02724658e-17 4.10519176e-19 0.00000000e+00 9.86194662e-18 0.00000000e+00 4.10519176e-19
1.00000000e+03 5.00883476e-18 0.00000000e+00 0.00000000e+00 5.00883476e-18 0.00000000e+00 0.00000000e+00
