# column 1: lambda (micron)
# column 2: total flux; lambda*F_lambda (W/m2)
# column 3: direct stellar flux; lambda*F_lambda (W/m2)
# column 4: scattered stellar flux; lambda*F_lambda (W/m2)
# column 5: total dust emission flux; lambda*F_lambda (W/m2)
# column 6: dust emission scattered flux; lambda*F_lambda (W/m2)
# column 7: transparent flux; lambda*F_lambda (W/m2)
1.00000000e-03 9.67776955e-13 9.67775259e-13 1.69582106e-18 0.00000000e+00 0.00000000e+00 9.68073281e-13
1.14815362e-03 1.14217483e-12 1.14217216e-12 2.66514979e-18 0.00000000e+00 0.00000000e+00 1.14263687e-12
1.31825674e-03 1.34798470e-12 1.34798054e-12 4.16687850e-18 0.00000000e+00 0.00000000e+00 1.34867788e-12
1.51356125e-03 1.59090834e-12 1.59090198e-12 6.36010239e-18 0.00000000e+00 0.00000000e+00 1.59187233e-12
1.73780083e-03 1.87777389e-12 1.87776260e-12 1.12914280e-17 0.00000000e+00 0.00000000e+00 1.87891976e-12
1.99526231e-03 2.21593817e-12 2.21591711e-12 2.10611668e-17 0.00000000e+00 0.00000000e+00 2.21772777e-12
2.29086765e-03 2.61539559e-12 2.61536361e-12 3.19836722e-17 0.00000000e+00 0.00000000e+00 2.61762985e-12
2.63026799e-03 3.08650171e-12 3.08643733e-12 6.43740986e-17 0.00000000e+00 0.00000000e+00 3.08964252e-12
3.01995172e-03 3.64220077e-12 3.64209046e-12 1.10308041e-16 0.00000000e+00 0.00000000e+00 3.64676883e-12
3.46736850e-03 4.29803138e-12 4.29784866e-12 1.82718588e-16 0.00000000e+00 0.00000000e+00 4.30435650e-12
3.98107171e-03 5.07201672e-12 5.07172923e-12 2.87485636e-16 0.00000000e+00 0.00000000e+00 5.08052080e-12
4.57088190e-03 5.99035688e-12 5.98971969e-12 6.37188272e-16 0.00000000e+00 0.00000000e+00 5.99664354e-12
5.24807460e-03 7.06864872e-12 7.06752574e-12 1.12297961e-15 0.00000000e+00 0.00000000e+00 7.07796211e-12
6.02559586e-03 8.34265453e-12 8.33941426e-12 3.24027116e-15 0.00000000e+00 0.00000000e+00 8.35426474e-12
6.91830971e-03 9.84525878e-12 9.84048382e-12 4.77496354e-15 0.00000000e+00 0.00000000e+00 9.86071107e-12
7.94328235e-03 1.16258462e-11 1.16121679e-11 1.36783318e-14 0.00000000e+00 0.00000000e+00 1.16388008e-11
9.12010839e-03 1.37189796e-11 1.37026374e-11 1.63421950e-14 0.00000000e+00 0.00000000e+00 1.37375167e-11
1.04712855e-02 1.53236884e-11 1.53014889e-11 2.21995170e-14 0.00000000e+00 0.00000000e+00 1.53429287e-11
1.20226443e-02 1.53289553e-11 1.52990467e-11 2.99085863e-14 4.46681371e-311 2.10181684e-313 1.53429287e-11
1.38038426e-02 1.53324900e-11 1.52961505e-11 3.63395152e-14 8.31287071e-272 6.08280718e-274 1.53429287e-11
1.58489319e-02 1.53441328e-11 1.52925920e-11 5.15407370e-14 1.25821150e-237 1.08733020e-239 1.53429287e-11
1.81970086e-02 1.53528068e-11 1.52893107e-11 6.34961080e-14 7.01404383e-208 8.29255633e-210 1.53429287e-11
2.08929613e-02 1.53685416e-11 1.52865838e-11 8.19578437e-14 5.07383407e-182 8.53931092e-184 1.53429287e-11
2.39883292e-02 1.53950225e-11 1.52830513e-11 1.11971190e-13 1.63147947e-159 3.63989809e-161 1.53429287e-11
2.75422870e-02 1.54239601e-11 1.52789434e-11 1.45016661e-13 6.28996034e-140 1.80173128e-141 1.53429287e-11
3.16227766e-02 1.54425877e-11 1.52749179e-11 1.67669797e-13 6.73439482e-123 2.38046428e-124 1.53429287e-11
3.63078055e-02 1.54664888e-11 1.52717612e-11 1.94727566e-13 4.26271211e-108 1.76862272e-109 1.53429287e-11
4.16869383e-02 1.55322173e-11 1.52690315e-11 2.63185833e-13 3.12593917e-95 1.80950517e-96 1.53429287e-11
4.78630092e-02 1.55895335e-11 1.52615095e-11 3.28023980e-13 4.68018925e-84 3.59440070e-85 1.53429287e-11
5.49540874e-02 1.56496584e-11 1.52510549e-11 3.98603565e-13 2.35548973e-74 2.22225144e-75 1.53429287e-11
6.30957344e-02 1.56630370e-11 1.52248715e-11 4.38165560e-13 8.25303160e-66 9.42743449e-67 1.53429287e-11
7.24435960e-02 1.55948408e-11 1.51939150e-11 4.00925830e-13 2.09641719e-58 2.37732082e-59 1.53429287e-11
8.31763771e-02 1.55941702e-11 1.51966671e-11 3.97503054e-13 4.43606902e-52 5.16989110e-53 1.53429287e-11
9.54992586e-02 1.56113492e-11 1.52047418e-11 4.06607412e-13 1.44408585e-46 1.89409835e-47 1.53429287e-11
1.09647820e-01 1.49802657e-11 1.45426731e-11 4.37592635e-13 9.51927626e-42 1.53486176e-42 1.46523889e-11
1.25892541e-01 1.39958526e-11 1.35900640e-11 4.05788548e-13 1.77125981e-37 3.18571450e-38 1.36744049e-11
1.44543977e-01 1.30683536e-11 1.26964224e-11 3.71931147e-13 1.01172670e-33 1.91606662e-34 1.27616972e-11
1.65958691e-01 1.22479135e-11 1.18566159e-11 3.91297608e-13 1.51224961e-30 3.22849868e-31 1.19099088e-11
1.90546072e-01 1.14809003e-11 1.10619209e-11 4.18979376e-13 6.40236462e-28 1.62161572e-28 1.11149736e-11
2.18776162e-01 1.07118296e-11 1.03150423e-11 3.96787368e-13 1.03953346e-25 2.83146402e-26 1.03730969e-11
2.51188643e-01 1.00992105e-11 9.63738328e-12 4.61827245e-13 1.48554133e-23 4.79160111e-24 9.68073733e-12
2.88403150e-01 9.43396574e-12 9.00098517e-12 4.32980572e-13 1.06729658e-21 3.47674099e-22 9.03458975e-12
3.31131121e-01 8.80098938e-12 8.40422460e-12 3.96764741e-13 4.15036871e-20 1.34681824e-20 8.43156974e-12
3.80189396e-01 8.20828777e-12 7.84638385e-12 3.61902958e-13 9.57582500e-19 3.13032547e-19 7.86879872e-12
4.36515832e-01 7.66026265e-12 7.32538097e-12 3.34867579e-13 1.41035430e-17 4.63585453e-18 7.34359025e-12
5.01187234e-01 7.14721114e-12 6.83884469e-12 3.08227214e-13 1.39229989e-16 4.57129278e-17 6.85343719e-12
5.75439937e-01 6.66319761e-12 6.38442637e-12 2.77794791e-13 9.76451029e-16 3.18617331e-16 6.39599973e-12
6.60693448e-01 6.21953945e-12 5.95999489e-12 2.54521896e-13 5.02265767e-15 1.61126000e-15 5.96909425e-12
7.58577575e-01 5.81606705e-12 5.56361568e-12 2.32279163e-13 2.01722066e-14 6.34179154e-15 5.57068288e-12
8.70963590e-01 5.46139452e-12 5.19349651e-12 2.02838877e-13 6.50591294e-14 1.94121771e-14 5.19886376e-12
1.00000000e+00 5.19060253e-12 4.84785165e-12 1.69427571e-13 1.73323311e-13 4.81072564e-14 4.85186196e-12
1.14815362e+00 5.06498251e-12 4.52507787e-12 1.40266050e-13 3.99638588e-13 1.00285956e-13 4.52802104e-12
1.31825674e+00 5.15075038e-12 4.22367267e-12 1.08866333e-13 8.18211373e-13 1.79066193e-13 4.22579511e-12
1.51356125e+00 5.50904216e-12 3.94222636e-12 8.40367530e-14 1.48277905e-12 2.76014391e-13 3.94374146e-12
1.73780083e+00 6.13390673e-12 3.67944973e-12 6.31179402e-14 2.39133906e-12 3.68408807e-13 3.68051368e-12
1.99526231e+00 6.92940937e-12 3.43411980e-12 4.70488508e-14 3.44824071e-12 4.23151318e-13 3.43485522e-12
2.29086765e+00 7.73284890e-12 3.20508666e-12 3.30991511e-14 4.49466309e-12 4.24321347e-13 3.20559341e-12
2.63026799e+00 8.40455743e-12 2.99128138e-12 2.38306846e-14 5.38944536e-12 3.89250852e-13 2.99163384e-12
3.01995172e+00 8.85547509e-12 2.79170686e-12 1.65963323e-14 6.04717190e-12 3.24917977e-13 2.79195514e-12
3.46736850e+00 9.00554788e-12 2.60542638e-12 1.14864116e-14 6.38863509e-12 2.54152097e-13 2.60560415e-12
3.98107171e+00 8.88667239e-12 2.43156238e-12 7.89647823e-15 6.44721353e-12 1.86465995e-13 2.43169128e-12
4.57088190e+00 8.52567249e-12 2.26929160e-12 5.30753579e-15 6.25107336e-12 1.29352909e-13 2.26938634e-12
5.24807460e+00 7.82740339e-12 1.87637174e-12 3.02330862e-15 5.94800834e-12 8.41566568e-14 1.87643467e-12
6.02559586e+00 6.85509888e-12 1.23971354e-12 1.31979697e-15 5.61406554e-12 5.22361831e-14 1.23974809e-12
6.70000000e+00 6.20530808e-12 9.01775283e-13 6.83333789e-16 5.30284946e-12 3.47708984e-14 9.01797527e-13
6.92422916e+00 6.02759895e-12 8.16975085e-13 5.45461701e-16 5.21007840e-12 3.03972387e-14 8.16994532e-13
7.15596261e+00 5.89102291e-12 7.40148908e-13 4.33834155e-16 5.15044017e-12 2.63867006e-14 7.40166218e-13
7.39545150e+00 5.86223789e-12 6.70546607e-13 3.30397380e-16 5.19136088e-12 2.24667677e-14 6.70562664e-13
7.64295536e+00 6.06658088e-12 6.07487897e-13 2.28778432e-16 5.45886421e-12 1.85058433e-14 6.07504471e-13
7.89874245e+00 6.60410569e-12 5.50356727e-13 1.39859803e-16 6.05360910e-12 1.45127281e-14 5.50376127e-13
8.16308998e+00 7.38135826e-12 4.98596271e-13 8.15144656e-17 6.88268048e-12 1.11591748e-14 4.98620004e-13
8.43628443e+00 8.40031204e-12 4.51701037e-13 4.50842576e-17 7.94856591e-12 8.30304310e-15 4.51730909e-13
8.71862190e+00 9.02152388e-12 4.09217906e-13 2.82483988e-17 8.61227772e-12 6.56082853e-15 4.09251158e-13
9.01040836e+00 9.64416682e-12 3.70729613e-13 1.78756175e-17 9.27341933e-12 5.07180206e-15 3.70766106e-13
9.31196005e+00 1.00929898e-11 3.35861756e-13 0.00000000e+00 9.75712809e-12 0.00000000e+00 3.35900102e-13
9.62360379e+00 9.96859566e-12 3.04277163e-13 0.00000000e+00 9.66431850e-12 0.00000000e+00 3.04312818e-13
9.94567731e+00 9.42440955e-12 2.75665621e-13 0.00000000e+00 9.14874393e-12 0.00000000e+00 2.75695930e-13
1.02785297e+01 8.86299494e-12 2.49745269e-13 0.00000000e+00 8.61324967e-12 0.00000000e+00 2.49770110e-13
1.06225216e+01 8.28678541e-12 2.26262153e-13 0.00000000e+00 8.06052326e-12 0.00000000e+00 2.26282295e-13
1.09780260e+01 7.61655807e-12 2.04987479e-13 0.00000000e+00 7.41157060e-12 0.00000000e+00 2.05003220e-13
1.13454280e+01 7.08299339e-12 1.85712830e-13 0.00000000e+00 6.89728056e-12 0.00000000e+00 1.85725182e-13
1.17251259e+01 6.60372209e-12 1.68250252e-13 0.00000000e+00 6.43547183e-12 0.00000000e+00 1.68260007e-13
1.21175312e+01 6.21311395e-12 1.52429553e-13 0.00000000e+00 6.06068439e-12 0.00000000e+00 1.52437217e-13
1.25230691e+01 5.82556013e-12 1.38096361e-13 0.00000000e+00 5.68746377e-12 0.00000000e+00 1.38102367e-13
1.29421791e+01 5.49653727e-12 1.25110795e-13 0.00000000e+00 5.37142648e-12 0.00000000e+00 1.25115533e-13
1.33753155e+01 5.21711326e-12 1.13346186e-13 0.00000000e+00 5.10376707e-12 0.00000000e+00 1.13349952e-13
1.38229477e+01 5.04193559e-12 1.02687649e-13 0.00000000e+00 4.93924794e-12 0.00000000e+00 1.02690779e-13
1.42855609e+01 4.96303602e-12 9.30312505e-14 0.00000000e+00 4.87000477e-12 0.00000000e+00 9.30339713e-14
1.47636563e+01 5.06164124e-12 8.42826853e-14 0.00000000e+00 4.97735855e-12 0.00000000e+00 8.42852675e-14
1.52577522e+01 5.17750121e-12 7.63567769e-14 0.00000000e+00 5.10114443e-12 0.00000000e+00 7.63592720e-14
1.57683840e+01 5.37647813e-12 6.91761774e-14 0.00000000e+00 5.30730195e-12 0.00000000e+00 6.91786191e-14
1.62961051e+01 5.52831986e-12 6.26708319e-14 0.00000000e+00 5.46564903e-12 0.00000000e+00 6.26732185e-14
1.68414875e+01 5.70677422e-12 5.67772435e-14 0.00000000e+00 5.64999697e-12 0.00000000e+00 5.67795711e-14
1.74051222e+01 5.82501867e-12 5.14379386e-14 0.00000000e+00 5.77358073e-12 0.00000000e+00 5.14401489e-14
1.79876201e+01 5.93039123e-12 4.66007701e-14 0.00000000e+00 5.88379046e-12 0.00000000e+00 4.66028339e-14
1.85896125e+01 6.00774320e-12 4.22185417e-14 0.00000000e+00 5.96552466e-12 0.00000000e+00 4.22204090e-14
1.92117518e+01 5.94587082e-12 3.82484573e-14 0.00000000e+00 5.90762237e-12 0.00000000e+00 3.82500974e-14
1.98547123e+01 5.92331519e-12 3.46517324e-14 0.00000000e+00 5.88866345e-12 0.00000000e+00 3.46531450e-14
2.05191907e+01 5.81906237e-12 3.13932375e-14 0.00000000e+00 5.78766913e-12 0.00000000e+00 3.13944418e-14
2.12059073e+01 5.75285741e-12 2.84411531e-14 0.00000000e+00 5.72441625e-12 0.00000000e+00 2.84421796e-14
2.19156062e+01 5.67651964e-12 2.57666622e-14 0.00000000e+00 5.65075298e-12 0.00000000e+00 2.57675415e-14
2.26490567e+01 5.59380066e-12 2.33436659e-14 0.00000000e+00 5.57045700e-12 0.00000000e+00 2.33444203e-14
2.34070535e+01 5.52615982e-12 2.11485155e-14 0.00000000e+00 5.50501131e-12 0.00000000e+00 2.11491639e-14
2.41904183e+01 5.45063295e-12 1.91597858e-14 0.00000000e+00 5.43147316e-12 0.00000000e+00 1.91603445e-14
2.50000000e+01 5.35257633e-12 1.73580666e-14 0.00000000e+00 5.33521826e-12 0.00000000e+00 1.73585491e-14
2.75422870e+01 5.04941795e-12 1.29814415e-14 0.00000000e+00 5.03643651e-12 0.00000000e+00 1.29817562e-14
3.16227766e+01 4.45368935e-12 8.57678839e-15 0.00000000e+00 4.44511256e-12 0.00000000e+00 8.57696126e-15
3.63078055e+01 3.68616971e-12 5.66664763e-15 0.00000000e+00 3.68050306e-12 0.00000000e+00 5.66674211e-15
4.16869383e+01 2.84593057e-12 3.74392911e-15 0.00000000e+00 2.84218664e-12 0.00000000e+00 3.74397938e-15
4.78630092e+01 2.04011672e-12 2.47359673e-15 0.00000000e+00 2.03764312e-12 0.00000000e+00 2.47362265e-15
5.49540874e+01 1.37053850e-12 1.63429320e-15 0.00000000e+00 1.36890421e-12 0.00000000e+00 1.63430628e-15
6.30957344e+01 8.72887683e-13 1.07976893e-15 0.00000000e+00 8.71807914e-13 0.00000000e+00 1.07977545e-15
7.24435960e+01 5.32879220e-13 7.13397343e-16 0.00000000e+00 5.32165822e-13 0.00000000e+00 7.13400564e-16
8.31763771e+01 3.14211149e-13 4.71337488e-16 0.00000000e+00 3.13739812e-13 0.00000000e+00 4.71339078e-16
9.54992586e+01 1.80767254e-13 3.11409854e-16 0.00000000e+00 1.80455844e-13 0.00000000e+00 3.11410641e-16
1.09647820e+02 1.01984684e-13 2.05746579e-16 0.00000000e+00 1.01778938e-13 0.00000000e+00 2.05746970e-16
1.25892541e+02 5.72856423e-14 1.35935478e-16 0.00000000e+00 5.71497068e-14 0.00000000e+00 1.35935675e-16
1.44543977e+02 3.18991084e-14 8.98117098e-17 0.00000000e+00 3.18092967e-14 0.00000000e+00 8.98118099e-17
1.65958691e+02 1.69031322e-14 5.93380253e-17 0.00000000e+00 1.68437941e-14 0.00000000e+00 5.93380743e-17
1.90546072e+02 8.94482166e-15 3.92042526e-17 0.00000000e+00 8.90561741e-15 0.00000000e+00 3.92042769e-17
2.18776162e+02 4.71925897e-15 2.59019968e-17 0.00000000e+00 4.69335697e-15 0.00000000e+00 2.59020089e-17
2.51188643e+02 2.47810245e-15 1.71132815e-17 0.00000000e+00 2.46098917e-15 0.00000000e+00 1.71132876e-17
2.88403150e+02 1.29418673e-15 1.13066339e-17 0.00000000e+00 1.28288010e-15 0.00000000e+00 1.13066370e-17
3.31131121e+02 6.73716427e-16 7.47021945e-18 0.00000000e+00 6.66246207e-16 0.00000000e+00 7.47022097e-18
3.80189396e+02 3.49332223e-16 4.93552529e-18 0.00000000e+00 3.44396698e-16 0.00000000e+00 4.93552605e-18
4.36515832e+02 1.80708267e-16 3.26086934e-18 0.00000000e+00 1.77447398e-16 0.00000000e+00 3.26086972e-18
5.01187234e+02 9.32790028e-17 2.15443507e-18 0.00000000e+00 9.11245677e-17 0.00000000e+00 2.15443526e-18
5.75439937e+02 4.80878834e-17 1.42342116e-18 0.00000000e+00 4.66644622e-17 0.00000000e+00 1.42342126e-18
6.60693448e+02 2.47801135e-17 9.40445052e-19 0.00000000e+00 2.38396685e-17 0.00000000e+00 9.40445101e-19
7.58577575e+02 1.27752168e-17 6.21345892e-19 0.00000000e+00 1.21538709e-17 0.00000000e+00 6.21345916e-19
8.70963590e+02 6.59402009e-18 4.10519164e-19 0.00000000e+00 6.18350093e-18 0.00000000e+00 4.10519176e-19
1.00000000e+03 3.13999263e-18 0.00000000e+00 0.00000000e+00 3.13999263e-18 0.00000000e+00 0.00000000e+00
