# column 1: lambda (micron)
# column 2: total flux; lambda*F_lambda (W/m2)
# column 3: direct stellar flux; lambda*F_lambda (W/m2)
# column 4: scattered stellar flux; lambda*F_lambda (W/m2)
# column 5: total dust emission flux; lambda*F_lambda (W/m2)
# column 6: dust emission scattered flux; lambda*F_lambda (W/m2)
# column 7: transparent flux; lambda*F_lambda (W/m2)
1.00000000e-03 1.04634414e-12 1.04634360e-12 5.32865832e-19 0.00000000e+00 0.00000000e+00 1.04634360e-12
1.14815362e-03 1.23502180e-12 1.23502095e-12 8.49889513e-19 0.00000000e+00 0.00000000e+00 1.23502095e-12
1.31825674e-03 1.45772203e-12 1.45772071e-12 1.32134998e-18 0.00000000e+00 0.00000000e+00 1.45772071e-12
1.51356125e-03 1.72057994e-12 1.72057784e-12 2.10165503e-18 0.00000000e+00 0.00000000e+00 1.72057784e-12
1.73780083e-03 2.03083723e-12 2.03083353e-12 3.70057876e-18 0.00000000e+00 0.00000000e+00 2.03083353e-12
1.99526231e-03 2.39704134e-12 2.39703472e-12 6.62704514e-18 0.00000000e+00 0.00000000e+00 2.39703472e-12
2.29086765e-03 2.82927978e-12 2.82926954e-12 1.02423435e-17 0.00000000e+00 0.00000000e+00 2.82926954e-12
2.63026799e-03 3.33946591e-12 3.33944522e-12 2.06860716e-17 0.00000000e+00 0.00000000e+00 3.33944522e-12
3.01995172e-03 3.94165198e-12 3.94161611e-12 3.58748887e-17 0.00000000e+00 0.00000000e+00 3.94161611e-12
3.46736850e-03 4.65243241e-12 4.65237083e-12 6.15802601e-17 0.00000000e+00 0.00000000e+00 4.65237083e-12
3.98107171e-03 5.49138860e-12 5.49128930e-12 9.92995117e-17 0.00000000e+00 0.00000000e+00 5.49128930e-12
4.57088190e-03 6.48169824e-12 6.48148207e-12 2.16163776e-16 0.00000000e+00 0.00000000e+00 6.48148207e-12
5.24807460e-03 7.65062249e-12 7.65022704e-12 3.95451779e-16 0.00000000e+00 0.00000000e+00 7.65022704e-12
6.02559586e-03 9.03043208e-12 9.02972084e-12 7.11238458e-16 0.00000000e+00 0.00000000e+00 9.02972084e-12
6.91830971e-03 1.06590829e-11 1.06579658e-11 1.11706377e-15 0.00000000e+00 0.00000000e+00 1.06579658e-11
7.94328235e-03 1.25817627e-11 1.25798170e-11 1.94566098e-15 1.26591450e-303 1.35591784e-306 1.25798170e-11
9.12010839e-03 1.48511870e-11 1.48482176e-11 2.96934925e-15 5.41275234e-265 9.29461838e-268 1.48482176e-11
1.04712855e-02 1.65880304e-11 1.65834298e-11 4.60065825e-15 2.23752507e-231 4.41973906e-234 1.65834298e-11
1.20226443e-02 1.65900842e-11 1.65834298e-11 6.65437901e-15 3.44794190e-202 1.91466501e-204 1.65834298e-11
1.38038426e-02 1.65920761e-11 1.65834298e-11 8.64632570e-15 9.21811953e-177 3.85339826e-179 1.65834298e-11
1.58489319e-02 1.65966656e-11 1.65834298e-11 1.32358641e-14 1.22929165e-154 6.68728794e-157 1.65834298e-11
1.81970086e-02 1.66007436e-11 1.65834298e-11 1.73137825e-14 2.16870700e-135 1.75619543e-137 1.65834298e-11
2.08929613e-02 1.66119175e-11 1.65834298e-11 2.84876671e-14 1.12195228e-118 1.22408170e-120 1.65834298e-11
2.39883292e-02 1.66169857e-11 1.65834298e-11 3.35559100e-14 3.90135996e-104 5.20644979e-106 1.65834298e-11
2.75422870e-02 1.66300250e-11 1.65834298e-11 4.65952287e-14 1.73550910e-91 3.06031735e-93 1.65834298e-11
3.16227766e-02 1.66396567e-11 1.65834298e-11 5.62269142e-14 1.68266140e-80 3.62994674e-82 1.65834298e-11
3.63078055e-02 1.66516789e-11 1.65834298e-11 6.82490932e-14 5.80703505e-71 1.45414128e-72 1.65834298e-11
4.16869383e-02 1.66764051e-11 1.65834298e-11 9.29753430e-14 1.10488091e-62 3.93888406e-64 1.65834298e-11
4.78630092e-02 1.67130361e-11 1.65834298e-11 1.29606338e-13 1.67458480e-55 8.18637302e-57 1.65834298e-11
5.49540874e-02 1.67453229e-11 1.65834298e-11 1.61893096e-13 2.79512453e-49 1.73156442e-50 1.65834298e-11
6.30957344e-02 1.67797646e-11 1.65834298e-11 1.96334813e-13 9.09742820e-44 7.00651273e-45 1.65834298e-11
7.24435960e-02 1.67725650e-11 1.65834298e-11 1.89135262e-13 5.26064154e-39 4.01312758e-40 1.65834298e-11
8.31763771e-02 1.67699086e-11 1.65834298e-11 1.86478807e-13 5.36999975e-35 4.07347474e-36 1.65834298e-11
9.54992586e-02 1.67759702e-11 1.65834298e-11 1.92540395e-13 1.51273323e-31 1.20922441e-32 1.65834298e-11
1.09647820e-01 1.60407299e-11 1.58370587e-11 2.03671170e-13 1.28262071e-28 1.10015368e-29 1.58370587e-11
1.25892541e-01 1.49615385e-11 1.47800032e-11 1.81535383e-13 4.11993506e-26 3.28498440e-27 1.47800032e-11
1.44543977e-01 1.39535495e-11 1.37935015e-11 1.60048017e-13 5.58438088e-24 4.27767296e-25 1.37935015e-11
1.65958691e-01 1.30457763e-11 1.28728446e-11 1.72931705e-13 2.83527846e-22 2.43565891e-23 1.28728446e-11
1.90546072e-01 1.22051415e-11 1.20136376e-11 1.91503849e-13 6.03585796e-21 6.43208223e-22 1.20136376e-11
2.18776162e-01 1.14079158e-11 1.12117790e-11 1.96136740e-13 7.20146707e-20 8.41592476e-21 1.12117790e-11
2.51188643e-01 1.06959774e-11 1.04634409e-11 2.32535626e-13 8.86080785e-19 1.28973376e-19 1.04634409e-11
2.88403150e-01 9.97658417e-12 9.76505125e-12 2.11525588e-13 7.33212623e-18 1.03300657e-18 9.76505125e-12
3.31131121e-01 9.30087374e-12 9.11327608e-12 1.87555962e-13 4.16981753e-17 5.55990540e-18 9.11327608e-12
3.80189396e-01 8.67333186e-12 8.50500410e-12 1.68154454e-13 1.73313278e-16 2.24755564e-17 8.50500410e-12
4.36515832e-01 8.09463114e-12 7.93733165e-12 1.56750432e-13 5.49062474e-16 6.97876315e-17 7.93733165e-12
5.01187234e-01 7.55759821e-12 7.40754890e-12 1.48646920e-13 1.40239086e-15 1.83745053e-16 7.40754890e-12
5.75439937e-01 7.05229580e-12 6.91312687e-12 1.36046224e-13 3.12271201e-15 4.43670166e-16 6.91312687e-12
6.60693448e-01 6.58238922e-12 6.45170538e-12 1.23949110e-13 6.73473229e-15 1.09040926e-15 6.45170538e-12
7.58577575e-01 6.15121387e-12 6.02108180e-12 1.14592287e-13 1.55397881e-14 2.88519586e-15 6.02108180e-12
8.70963590e-01 5.75769643e-12 5.61920048e-12 1.00589713e-13 3.79062339e-14 7.49729166e-15 5.61920048e-12
1.00000000e+00 5.42069086e-12 5.24414302e-12 8.68488490e-14 8.96989978e-14 1.72328721e-14 5.24414302e-12
1.14815362e+00 5.16631823e-12 4.89411902e-12 7.25286540e-14 1.99670557e-13 3.53042826e-14 4.89411902e-12
1.31825674e+00 5.03131324e-12 4.56745763e-12 5.78823808e-14 4.05973236e-13 6.32502488e-14 4.56745763e-12
1.51356125e+00 5.04783086e-12 4.26259947e-12 4.45366141e-14 7.40694771e-13 9.83599476e-14 4.26259947e-12
1.73780083e+00 5.21248764e-12 3.97808929e-12 3.40806170e-14 1.20031774e-12 1.32712623e-13 3.97808929e-12
1.99526231e+00 5.47775828e-12 3.71256894e-12 2.47272610e-14 1.74046208e-12 1.54637457e-13 3.71256894e-12
2.29086765e+00 5.75342958e-12 3.46477093e-12 1.74517517e-14 2.27120690e-12 1.58740296e-13 3.46477093e-12
2.63026799e+00 5.98634942e-12 3.23351237e-12 1.21216358e-14 2.74071541e-12 1.48541114e-13 3.23351237e-12
3.01995172e+00 6.11274990e-12 3.01768933e-12 8.54897329e-15 3.08651160e-12 1.31026536e-13 3.01768933e-12
3.46736850e+00 6.10303874e-12 2.81627154e-12 5.99538869e-15 3.28077180e-12 1.06597001e-13 2.81627154e-12
3.98107171e+00 5.98235240e-12 2.62829753e-12 4.13430798e-15 3.34992056e-12 8.37295283e-14 2.62829753e-12
4.57088190e+00 5.77433231e-12 2.45286997e-12 2.83896529e-15 3.31862337e-12 6.18389581e-14 2.45286997e-12
5.24807460e+00 5.26096396e-12 2.02814751e-12 1.63419740e-15 3.23118225e-12 4.26654643e-14 2.02814751e-12
6.02559586e+00 4.44174952e-12 1.33998377e-12 7.46563508e-16 3.10101918e-12 2.79940459e-14 1.33998377e-12
6.70000000e+00 3.94503869e-12 9.74709347e-13 3.86724730e-16 2.96994262e-12 1.91692598e-14 9.74709347e-13
6.92422916e+00 3.81349346e-12 8.83049889e-13 3.12015703e-16 2.93013156e-12 1.69371746e-14 8.83049889e-13
7.15596261e+00 3.70203948e-12 8.00009879e-13 2.47368139e-16 2.90178223e-12 1.47689826e-14 8.00009879e-13
7.39545150e+00 3.63867294e-12 7.24778763e-13 1.86055410e-16 2.91370812e-12 1.25411205e-14 7.24778763e-13
7.64295536e+00 3.70691138e-12 6.56622211e-13 1.30823075e-16 3.05015834e-12 1.02331322e-14 6.56622211e-13
7.89874245e+00 3.97649453e-12 5.94874946e-13 7.54741372e-17 3.38154410e-12 7.81565461e-15 5.94874946e-13
8.16308998e+00 4.36542309e-12 5.38934254e-13 4.34209778e-17 3.82644542e-12 5.89230994e-15 5.38934254e-13
8.43628443e+00 4.90293465e-12 4.88254098e-13 2.36972929e-17 4.41465686e-12 4.27466371e-15 4.88254098e-13
8.71862190e+00 5.22087891e-12 4.42339790e-13 1.50936185e-17 4.77852403e-12 3.32460693e-15 4.42339790e-13
9.01040836e+00 5.56607780e-12 4.00743158e-13 9.58207420e-18 5.16532506e-12 2.52502295e-15 4.00743158e-13
9.31196005e+00 5.80810269e-12 3.63058180e-13 0.00000000e+00 5.44504451e-12 0.00000000e+00 3.63058180e-13
9.62360379e+00 5.76475194e-12 3.28917012e-13 0.00000000e+00 5.43583493e-12 0.00000000e+00 3.28917012e-13
9.94567731e+00 5.44373227e-12 2.97986401e-13 0.00000000e+00 5.14574587e-12 0.00000000e+00 2.97986401e-13
1.02785297e+01 5.07277435e-12 2.69964435e-13 0.00000000e+00 4.80280992e-12 0.00000000e+00 2.69964435e-13
1.06225216e+01 4.70716375e-12 2.44577592e-13 0.00000000e+00 4.46258616e-12 0.00000000e+00 2.44577592e-13
1.09780260e+01 4.33567527e-12 2.21578069e-13 0.00000000e+00 4.11409720e-12 0.00000000e+00 2.21578069e-13
1.13454280e+01 4.04412300e-12 2.00741370e-13 0.00000000e+00 3.84338163e-12 0.00000000e+00 2.00741370e-13
1.17251259e+01 3.74955294e-12 1.81864106e-13 0.00000000e+00 3.56768883e-12 0.00000000e+00 1.81864106e-13
1.21175312e+01 3.49760561e-12 1.64762018e-13 0.00000000e+00 3.33284359e-12 0.00000000e+00 1.64762018e-13
1.25230691e+01 3.27169927e-12 1.49268171e-13 0.00000000e+00 3.12243110e-12 0.00000000e+00 1.49268171e-13
1.29421791e+01 3.07116883e-12 1.35231331e-13 0.00000000e+00 2.93593750e-12 0.00000000e+00 1.35231331e-13
1.33753155e+01 2.90694543e-12 1.22514483e-13 0.00000000e+00 2.78443095e-12 0.00000000e+00 1.22514483e-13
1.38229477e+01 2.79125558e-12 1.10993499e-13 0.00000000e+00 2.68026209e-12 0.00000000e+00 1.10993499e-13
1.42855609e+01 2.71024027e-12 1.00555922e-13 0.00000000e+00 2.60968435e-12 0.00000000e+00 1.00555922e-13
1.47636563e+01 2.73625312e-12 9.10998706e-14 0.00000000e+00 2.64515325e-12 0.00000000e+00 9.10998706e-14
1.52577522e+01 2.76296635e-12 8.25330452e-14 0.00000000e+00 2.68043331e-12 0.00000000e+00 8.25330452e-14
1.57683840e+01 2.82243175e-12 7.47718247e-14 0.00000000e+00 2.74765993e-12 0.00000000e+00 7.47718247e-14
1.62961051e+01 2.86628437e-12 6.77404517e-14 0.00000000e+00 2.79854391e-12 0.00000000e+00 6.77404517e-14
1.68414875e+01 2.90770353e-12 6.13702932e-14 0.00000000e+00 2.84633323e-12 0.00000000e+00 6.13702932e-14
1.74051222e+01 2.92390618e-12 5.55991699e-14 0.00000000e+00 2.86830701e-12 0.00000000e+00 5.55991699e-14
1.79876201e+01 2.93051600e-12 5.03707500e-14 0.00000000e+00 2.88014525e-12 0.00000000e+00 5.03707500e-14
1.85896125e+01 2.88396675e-12 4.56339988e-14 0.00000000e+00 2.83833276e-12 0.00000000e+00 4.56339988e-14
1.92117518e+01 2.82599286e-12 4.13426810e-14 0.00000000e+00 2.78465018e-12 0.00000000e+00 4.13426810e-14
1.98547123e+01 2.75233277e-12 3.74549090e-14 0.00000000e+00 2.71487786e-12 0.00000000e+00 3.74549090e-14
2.05191907e+01 2.65206067e-12 3.39327342e-14 0.00000000e+00 2.61812794e-12 0.00000000e+00 3.39327342e-14
2.12059073e+01 2.57553120e-12 3.07417768e-14 0.00000000e+00 2.54478943e-12 0.00000000e+00 3.07417768e-14
2.19156062e+01 2.48679033e-12 2.78508898e-14 0.00000000e+00 2.45893944e-12 0.00000000e+00 2.78508898e-14
2.26490567e+01 2.40284842e-12 2.52318552e-14 0.00000000e+00 2.37761656e-12 0.00000000e+00 2.52318552e-14
2.34070535e+01 2.32474692e-12 2.28591087e-14 0.00000000e+00 2.30188781e-12 0.00000000e+00 2.28591087e-14
2.41904183e+01 2.23608247e-12 2.07094900e-14 0.00000000e+00 2.21537298e-12 0.00000000e+00 2.07094900e-14
2.50000000e+01 2.16591963e-12 1.87620165e-14 0.00000000e+00 2.14715761e-12 0.00000000e+00 1.87620165e-14
2.75422870e+01 1.91197146e-12 1.40313526e-14 0.00000000e+00 1.89794011e-12 0.00000000e+00 1.40313526e-14
3.16227766e+01 1.54564875e-12 9.27042274e-15 0.00000000e+00 1.53637833e-12 0.00000000e+00 9.27042274e-15
3.63078055e+01 1.18553536e-12 6.12490756e-15 0.00000000e+00 1.17941045e-12 0.00000000e+00 6.12490756e-15
4.16869383e+01 8.48868443e-13 4.04668630e-15 0.00000000e+00 8.44821757e-13 0.00000000e+00 4.04668630e-15
4.78630092e+01 5.70528554e-13 2.67361912e-15 0.00000000e+00 5.67854935e-13 0.00000000e+00 2.67361912e-15
5.49540874e+01 3.62043963e-13 1.76644264e-15 0.00000000e+00 3.60277521e-13 0.00000000e+00 1.76644264e-15
6.30957344e+01 2.19424867e-13 1.16707708e-15 0.00000000e+00 2.18257790e-13 0.00000000e+00 1.16707708e-15
7.24435960e+01 1.28236541e-13 7.71080178e-16 0.00000000e+00 1.27465461e-13 0.00000000e+00 7.71080178e-16
8.31763771e+01 7.28068158e-14 5.09447621e-16 0.00000000e+00 7.22973682e-14 0.00000000e+00 5.09447621e-16
9.54992586e+01 4.05402948e-14 3.36588705e-16 0.00000000e+00 4.02037061e-14 0.00000000e+00 3.36588705e-16
1.09647820e+02 2.22339122e-14 2.22381952e-16 0.00000000e+00 2.20115302e-14 0.00000000e+00 2.22381952e-16
1.25892541e+02 1.22002526e-14 1.46926299e-16 0.00000000e+00 1.20533263e-14 0.00000000e+00 1.46926299e-16
1.44543977e+02 6.66146804e-15 9.70732430e-17 0.00000000e+00 6.56439479e-15 0.00000000e+00 9.70732430e-17
1.65958691e+02 3.47237469e-15 6.41356556e-17 0.00000000e+00 3.40823903e-15 0.00000000e+00 6.41356556e-17
1.90546072e+02 1.81435431e-15 4.23740075e-17 0.00000000e+00 1.77198031e-15 0.00000000e+00 4.23740075e-17
2.18776162e+02 9.48310740e-16 2.79962291e-17 0.00000000e+00 9.20314511e-16 0.00000000e+00 2.79962291e-17
2.51188643e+02 4.95074777e-16 1.84969251e-17 0.00000000e+00 4.76577852e-16 0.00000000e+00 1.84969251e-17
2.88403150e+02 2.57980452e-16 1.22207972e-17 0.00000000e+00 2.45759655e-16 0.00000000e+00 1.22207972e-17
3.31131121e+02 1.34514114e-16 8.07420067e-18 0.00000000e+00 1.26439913e-16 0.00000000e+00 8.07420067e-18
3.80189396e+02 7.01639988e-17 5.33457148e-18 0.00000000e+00 6.48294274e-17 0.00000000e+00 5.33457148e-18
4.36515832e+02 3.66952373e-17 3.52451642e-18 0.00000000e+00 3.31707209e-17 0.00000000e+00 3.52451642e-18
5.01187234e+02 1.92596102e-17 2.32862491e-18 0.00000000e+00 1.69309853e-17 0.00000000e+00 2.32862491e-18
5.75439937e+02 1.01636888e-17 1.53850722e-18 0.00000000e+00 8.62518157e-18 0.00000000e+00 1.53850722e-18
6.60693448e+02 5.40290618e-18 1.01648164e-18 0.00000000e+00 4.38642454e-18 0.00000000e+00 1.01648164e-18
7.58577575e+02 2.89909867e-18 6.71582760e-19 0.00000000e+00 2.22751591e-18 0.00000000e+00 6.71582760e-19
8.70963590e+02 1.57316672e-18 4.43710329e-19 0.00000000e+00 1.12945639e-18 0.00000000e+00 4.43710329e-19
1.00000000e+03 5.71852514e-19 0.00000000e+00 0.00000000e+00 5.71852514e-19 0.00000000e+00 0.00000000e+00
