# column 1: lambda (micron)
# column 2: total flux; lambda*F_lambda (W/m2)
# column 3: direct stellar flux; lambda*F_lambda (W/m2)
# column 4: scattered stellar flux; lambda*F_lambda (W/m2)
# column 5: total dust emission flux; lambda*F_lambda (W/m2)
# column 6: dust emission scattered flux; lambda*F_lambda (W/m2)
# column 7: transparent flux; lambda*F_lambda (W/m2)
1.00000000e-03 3.57786618e-13 3.57785423e-13 1.19442200e-18 0.00000000e+00 0.00000000e+00 3.57785423e-13
1.14815362e-03 4.22303446e-13 4.22301518e-13 1.92716854e-18 0.00000000e+00 0.00000000e+00 4.22301518e-13
1.31825674e-03 4.98454332e-13 4.98451197e-13 3.13489949e-18 0.00000000e+00 0.00000000e+00 4.98451197e-13
1.51356125e-03 5.88337258e-13 5.88332233e-13 5.02441407e-18 0.00000000e+00 0.00000000e+00 5.88332233e-13
1.73780083e-03 6.94430301e-13 6.94420676e-13 9.62506323e-18 0.00000000e+00 0.00000000e+00 6.94420676e-13
1.99526231e-03 8.19655830e-13 8.19639053e-13 1.67767265e-17 0.00000000e+00 0.00000000e+00 8.19639053e-13
2.29086765e-03 9.67463871e-13 9.67436888e-13 2.69830886e-17 0.00000000e+00 0.00000000e+00 9.67436888e-13
2.63026799e-03 1.14194170e-12 1.14188572e-12 5.59773990e-17 0.00000000e+00 0.00000000e+00 1.14188572e-12
3.01995172e-03 1.34787758e-12 1.34779128e-12 8.62946660e-17 0.00000000e+00 0.00000000e+00 1.34779128e-12
3.46736850e-03 1.59098120e-12 1.59082586e-12 1.55341630e-16 0.00000000e+00 0.00000000e+00 1.59082586e-12
3.98107171e-03 1.87797695e-12 1.87768459e-12 2.92354860e-16 0.00000000e+00 0.00000000e+00 1.87768459e-12
4.57088190e-03 2.21674804e-12 2.21626987e-12 4.78169700e-16 0.00000000e+00 0.00000000e+00 2.21626987e-12
5.24807460e-03 2.61691845e-12 2.61590907e-12 1.00938618e-15 0.00000000e+00 0.00000000e+00 2.61590907e-12
6.02559586e-03 3.08948269e-12 3.08761145e-12 1.87124300e-15 0.00000000e+00 0.00000000e+00 3.08761145e-12
6.91830971e-03 3.64721423e-12 3.64437151e-12 2.84271547e-15 0.00000000e+00 0.00000000e+00 3.64437151e-12
7.94328235e-03 4.30645092e-12 4.30152690e-12 4.92401896e-15 9.46327266e-304 2.38287614e-306 4.30152690e-12
9.12010839e-03 5.08508210e-12 5.07718096e-12 7.90113651e-15 4.19358020e-265 3.25443069e-267 5.07718096e-12
1.04712855e-02 5.68353061e-12 5.67051724e-12 1.30133714e-14 1.77536770e-231 7.84729778e-234 5.67051724e-12
1.20226443e-02 5.69056983e-12 5.67051724e-12 2.00525873e-14 2.79997992e-202 2.12145983e-204 5.67051724e-12
1.38038426e-02 5.69885565e-12 5.67051724e-12 2.83384145e-14 7.66712571e-177 7.21588534e-179 5.67051724e-12
1.58489319e-02 5.70377250e-12 5.67051724e-12 3.32552642e-14 1.05049594e-154 2.06706737e-156 5.67051724e-12
1.81970086e-02 5.72225607e-12 5.67051724e-12 5.17388348e-14 1.87832866e-135 3.77775443e-137 5.67051724e-12
2.08929613e-02 5.73505089e-12 5.67051724e-12 6.45336473e-14 9.88821572e-119 2.63682059e-120 5.67051724e-12
2.39883292e-02 5.75332925e-12 5.67051724e-12 8.28120067e-14 3.48668655e-104 1.08027027e-105 5.67051724e-12
2.75422870e-02 5.76410517e-12 5.67051724e-12 9.35879319e-14 1.56842675e-91 5.63786934e-93 5.67051724e-12
3.16227766e-02 5.77506942e-12 5.67051724e-12 1.04552185e-13 1.53968744e-80 6.65991736e-82 5.67051724e-12
3.63078055e-02 5.77780239e-12 5.67051724e-12 1.07285154e-13 5.35210058e-71 2.47682856e-72 5.67051724e-12
4.16869383e-02 5.79961157e-12 5.67051724e-12 1.29094335e-13 1.02324218e-62 5.58069155e-64 5.67051724e-12
4.78630092e-02 5.79860829e-12 5.67051724e-12 1.28091053e-13 1.55456218e-55 1.00013076e-56 5.67051724e-12
5.49540874e-02 5.79541825e-12 5.67051724e-12 1.24901009e-13 2.58197394e-49 1.75275167e-50 5.67051724e-12
6.30957344e-02 5.77920137e-12 5.67051724e-12 1.08684129e-13 8.31015529e-44 5.68399757e-45 5.67051724e-12
7.24435960e-02 5.76491466e-12 5.67051724e-12 9.43974247e-14 4.79510203e-39 2.97363451e-40 5.67051724e-12
8.31763771e-02 5.76301504e-12 5.67051724e-12 9.24977962e-14 4.90073439e-35 2.92878594e-36 5.67051724e-12
9.54992586e-02 5.76186196e-12 5.67051724e-12 9.13447175e-14 1.38149342e-31 8.49949795e-33 5.67051724e-12
1.09647820e-01 5.51277147e-12 5.41530405e-12 9.74674148e-14 1.17480494e-28 7.98052057e-30 5.41530405e-12
1.25892541e-01 5.15302565e-12 5.05385580e-12 9.91698545e-14 3.81446505e-26 2.64690378e-27 5.05385580e-12
1.44543977e-01 4.81092571e-12 4.71653266e-12 9.43930483e-14 5.19893489e-24 3.61084747e-25 4.71653266e-12
1.65958691e-01 4.49859478e-12 4.40172439e-12 9.68703921e-14 2.63398529e-22 1.98070049e-23 4.40172439e-12
1.90546072e-01 4.20637753e-12 4.10792822e-12 9.84493048e-14 5.53582244e-21 4.60181385e-22 4.10792822e-12
2.18776162e-01 3.91971418e-12 3.83374167e-12 8.59724374e-14 6.53743753e-20 5.43076705e-21 3.83374167e-12
2.51188643e-01 3.66989780e-12 3.57785591e-12 9.20411025e-14 7.94361251e-19 7.99301273e-20 3.57785591e-12
2.88403150e-01 3.42475024e-12 3.33904941e-12 8.56942269e-14 6.59633378e-18 6.45881634e-19 3.33904941e-12
3.31131121e-01 3.19695904e-12 3.11618222e-12 8.07391064e-14 3.77056077e-17 3.53086007e-18 3.11618222e-12
3.80189396e-01 2.98027403e-12 2.90819046e-12 7.19263614e-14 1.57201160e-16 1.45550380e-17 2.90819046e-12
4.36515832e-01 2.78441030e-12 2.71408126e-12 6.98322046e-14 4.96834416e-16 4.49731131e-17 2.71408126e-12
5.01187234e-01 2.59651204e-12 2.53292801e-12 6.23435109e-14 1.24051898e-15 1.08436326e-16 2.53292801e-12
5.75439937e-01 2.42157483e-12 2.36386595e-12 5.51222901e-14 2.58658666e-15 2.25223199e-16 2.36386595e-12
6.60693448e-01 2.25852605e-12 2.20608807e-12 4.76903567e-14 4.74762686e-15 4.21688580e-16 2.20608807e-12
7.58577575e-01 2.10944602e-12 2.05884118e-12 4.23139000e-14 8.29094187e-15 7.69844746e-16 2.05884118e-12
8.70963590e-01 1.97291653e-12 1.92142238e-12 3.67226991e-14 1.47714418e-14 1.48701961e-15 1.92142238e-12
1.00000000e+00 1.85131817e-12 1.79317570e-12 3.08201360e-14 2.73223349e-14 2.96189688e-15 1.79317570e-12
1.14815362e+00 1.75087373e-12 1.67348894e-12 2.48754644e-14 5.25093285e-14 5.62541093e-15 1.67348894e-12
1.31825674e+00 1.68213970e-12 1.56179075e-12 1.98877747e-14 1.00461175e-13 1.00635822e-14 1.56179075e-12
1.51356125e+00 1.65404738e-12 1.45754793e-12 1.57625762e-14 1.80736870e-13 1.60212719e-14 1.45754793e-12
1.73780083e+00 1.67193623e-12 1.36026288e-12 1.23735307e-14 2.99299819e-13 2.24818346e-14 1.36026288e-12
1.99526231e+00 1.72585034e-12 1.26947118e-12 9.12141343e-15 4.47257748e-13 2.70189528e-14 1.26947118e-12
2.29086765e+00 1.79770408e-12 1.18473944e-12 6.25960749e-15 6.06705034e-13 2.84570695e-14 1.18473944e-12
2.63026799e+00 1.87015517e-12 1.10566318e-12 4.47524068e-15 7.60016753e-13 2.74837395e-14 1.10566318e-12
3.01995172e+00 1.91782082e-12 1.03186491e-12 2.92949409e-15 8.83026411e-13 2.45538287e-14 1.03186491e-12
3.46736850e+00 1.92815616e-12 9.62992369e-13 2.06037915e-15 9.63103408e-13 2.03603715e-14 9.62992369e-13
3.98107171e+00 1.89504636e-12 8.98716770e-13 1.42770092e-15 9.94901891e-13 1.60694042e-14 8.98716770e-13
4.57088190e+00 1.83465991e-12 8.38731291e-13 9.65514665e-16 9.94963107e-13 1.20573636e-14 8.38731291e-13
5.24807460e+00 1.65817614e-12 6.93502223e-13 5.70416815e-16 9.64103497e-13 8.60378014e-15 6.93502223e-13
6.02559586e+00 1.37813382e-12 4.58192375e-13 2.57776932e-16 9.19683669e-13 5.72300634e-15 4.58192375e-13
6.70000000e+00 1.20905889e-12 3.33290895e-13 1.37920090e-16 8.75630075e-13 3.99633795e-15 3.33290895e-13
6.92422916e+00 1.16669247e-12 3.01948975e-13 1.10271166e-16 8.64633221e-13 3.57324134e-15 3.01948975e-13
7.15596261e+00 1.12670672e-12 2.73554377e-13 8.92850078e-17 8.53063055e-13 3.13384344e-15 2.73554377e-13
7.39545150e+00 1.10651195e-12 2.47829944e-13 6.84982618e-17 8.58613512e-13 2.67383127e-15 2.47829944e-13
7.64295536e+00 1.12695824e-12 2.24524577e-13 4.57927920e-17 9.02387867e-13 2.14773234e-15 2.24524577e-13
7.89874245e+00 1.21237509e-12 2.03410795e-13 2.67553124e-17 1.00893754e-12 1.61235980e-15 2.03410795e-13
8.16308998e+00 1.34467023e-12 1.84282505e-13 1.50285779e-17 1.16037270e-12 1.17824104e-15 1.84282505e-13
8.43628443e+00 1.54413334e-12 1.66952996e-13 8.10281334e-18 1.37717224e-12 8.51274425e-16 1.66952996e-13
8.71862190e+00 1.68399100e-12 1.51253114e-13 5.10663297e-18 1.53273278e-12 6.58824025e-16 1.51253114e-13
9.01040836e+00 1.83880294e-12 1.37029614e-13 3.35674957e-18 1.70176997e-12 5.01971417e-16 1.37029614e-13
9.31196005e+00 1.93615211e-12 1.24143660e-13 0.00000000e+00 1.81200845e-12 0.00000000e+00 1.24143660e-13
9.62360379e+00 1.91443317e-12 1.12469472e-13 0.00000000e+00 1.80196370e-12 0.00000000e+00 1.12469472e-13
9.94567731e+00 1.78756942e-12 1.01893097e-13 0.00000000e+00 1.68567632e-12 0.00000000e+00 1.01893097e-13
1.02785297e+01 1.65435214e-12 9.23113014e-14 0.00000000e+00 1.56204083e-12 0.00000000e+00 9.23113014e-14
1.06225216e+01 1.50340375e-12 8.36305558e-14 0.00000000e+00 1.41977320e-12 0.00000000e+00 8.36305558e-14
1.09780260e+01 1.36289640e-12 7.57661279e-14 0.00000000e+00 1.28713027e-12 0.00000000e+00 7.57661279e-14
1.13454280e+01 1.23415216e-12 6.86412529e-14 0.00000000e+00 1.16551091e-12 0.00000000e+00 6.86412529e-14
1.17251259e+01 1.12714788e-12 6.21863851e-14 0.00000000e+00 1.06496149e-12 0.00000000e+00 6.21863851e-14
1.21175312e+01 1.03832730e-12 5.63385184e-14 0.00000000e+00 9.81988778e-13 0.00000000e+00 5.63385184e-14
1.25230691e+01 9.54314362e-13 5.10405718e-14 0.00000000e+00 9.03273790e-13 0.00000000e+00 5.10405718e-14
1.29421791e+01 8.90718507e-13 4.62408321e-14 0.00000000e+00 8.44477675e-13 0.00000000e+00 4.62408321e-14
1.33753155e+01 8.35925288e-13 4.18924490e-14 0.00000000e+00 7.94032839e-13 0.00000000e+00 4.18924490e-14
1.38229477e+01 8.03363541e-13 3.79529781e-14 0.00000000e+00 7.65410563e-13 0.00000000e+00 3.79529781e-14
1.42855609e+01 7.82881955e-13 3.43839660e-14 0.00000000e+00 7.48497989e-13 0.00000000e+00 3.43839660e-14
1.47636563e+01 7.83139891e-13 3.11505758e-14 0.00000000e+00 7.51989315e-13 0.00000000e+00 3.11505758e-14
1.52577522e+01 7.97486226e-13 2.82212462e-14 0.00000000e+00 7.69264979e-13 0.00000000e+00 2.82212462e-14
1.57683840e+01 8.12869236e-13 2.55673842e-14 0.00000000e+00 7.87301852e-13 0.00000000e+00 2.55673842e-14
1.62961051e+01 8.26558137e-13 2.31630853e-14 0.00000000e+00 8.03395052e-13 0.00000000e+00 2.31630853e-14
1.68414875e+01 8.43335357e-13 2.09848813e-14 0.00000000e+00 8.22350476e-13 0.00000000e+00 2.09848813e-14
1.74051222e+01 8.50337321e-13 1.90115106e-14 0.00000000e+00 8.31325810e-13 0.00000000e+00 1.90115106e-14
1.79876201e+01 8.48364042e-13 1.72237112e-14 0.00000000e+00 8.31140330e-13 0.00000000e+00 1.72237112e-14
1.85896125e+01 8.45154426e-13 1.56040325e-14 0.00000000e+00 8.29550393e-13 0.00000000e+00 1.56040325e-14
1.92117518e+01 8.30370563e-13 1.41366646e-14 0.00000000e+00 8.16233899e-13 0.00000000e+00 1.41366646e-14
1.98547123e+01 8.18230125e-13 1.28072847e-14 0.00000000e+00 8.05422840e-13 0.00000000e+00 1.28072847e-14
2.05191907e+01 7.98282675e-13 1.16029167e-14 0.00000000e+00 7.86679758e-13 0.00000000e+00 1.16029167e-14
2.12059073e+01 7.77002471e-13 1.05118047e-14 0.00000000e+00 7.66490666e-13 0.00000000e+00 1.05118047e-14
2.19156062e+01 7.67775782e-13 9.52329842e-15 0.00000000e+00 7.58252483e-13 0.00000000e+00 9.52329842e-15
2.26490567e+01 7.48738520e-13 8.62774902e-15 0.00000000e+00 7.40110771e-13 0.00000000e+00 8.62774902e-15
2.34070535e+01 7.35581818e-13 7.81641505e-15 0.00000000e+00 7.27765403e-13 0.00000000e+00 7.81641505e-15
2.41904183e+01 7.18371283e-13 7.08137710e-15 0.00000000e+00 7.11289906e-13 0.00000000e+00 7.08137710e-15
2.50000000e+01 7.04367885e-13 6.41546044e-15 0.00000000e+00 6.97952425e-13 0.00000000e+00 6.41546044e-15
2.75422870e+01 6.54281203e-13 4.79786316e-15 0.00000000e+00 6.49483340e-13 0.00000000e+00 4.79786316e-15
3.16227766e+01 5.70021990e-13 3.16991676e-15 0.00000000e+00 5.66852074e-13 0.00000000e+00 3.16991676e-15
3.63078055e+01 4.70665901e-13 2.09434323e-15 0.00000000e+00 4.68571558e-13 0.00000000e+00 2.09434323e-15
4.16869383e+01 3.63665871e-13 1.38371885e-15 0.00000000e+00 3.62282152e-13 0.00000000e+00 1.38371885e-15
4.78630092e+01 2.63121955e-13 9.14213979e-16 0.00000000e+00 2.62207741e-13 0.00000000e+00 9.14213979e-16
5.49540874e+01 1.78752619e-13 6.04015186e-16 0.00000000e+00 1.78148604e-13 0.00000000e+00 6.04015186e-16
6.30957344e+01 1.15117502e-13 3.99068876e-16 0.00000000e+00 1.14718433e-13 0.00000000e+00 3.99068876e-16
7.24435960e+01 7.08936747e-14 2.63662192e-16 0.00000000e+00 7.06300125e-14 0.00000000e+00 2.63662192e-16
8.31763771e+01 4.21484641e-14 1.74199882e-16 0.00000000e+00 4.19742642e-14 0.00000000e+00 1.74199882e-16
9.54992586e+01 2.43416003e-14 1.15092721e-16 0.00000000e+00 2.42265076e-14 0.00000000e+00 1.15092721e-16
1.09647820e+02 1.37755606e-14 7.60410067e-17 0.00000000e+00 1.36995196e-14 0.00000000e+00 7.60410067e-17
1.25892541e+02 7.74697361e-15 5.02397949e-17 0.00000000e+00 7.69673382e-15 0.00000000e+00 5.02397949e-17
1.44543977e+02 4.31732164e-15 3.31931033e-17 0.00000000e+00 4.28412853e-15 0.00000000e+00 3.31931033e-17
1.65958691e+02 2.28997483e-15 2.19304659e-17 0.00000000e+00 2.26804437e-15 0.00000000e+00 2.19304659e-17
1.90546072e+02 1.21235499e-15 1.44893151e-17 0.00000000e+00 1.19786568e-15 0.00000000e+00 1.44893151e-17
2.18776162e+02 6.39939310e-16 9.57299556e-18 0.00000000e+00 6.30366314e-16 0.00000000e+00 9.57299556e-18
2.51188643e+02 3.36366167e-16 6.32481544e-18 0.00000000e+00 3.30041352e-16 0.00000000e+00 6.32481544e-18
2.88403150e+02 1.75940305e-16 4.17876412e-18 0.00000000e+00 1.71761541e-16 0.00000000e+00 4.17876412e-18
3.31131121e+02 9.18258660e-17 2.76088208e-18 0.00000000e+00 8.90649839e-17 0.00000000e+00 2.76088208e-18
3.80189396e+02 4.77959417e-17 1.82409670e-18 0.00000000e+00 4.59718450e-17 0.00000000e+00 1.82409670e-18
4.36515832e+02 2.48588485e-17 1.20516874e-18 0.00000000e+00 2.36536798e-17 0.00000000e+00 1.20516874e-18
5.01187234e+02 1.29270257e-17 7.96247089e-19 0.00000000e+00 1.21307786e-17 0.00000000e+00 7.96247089e-19
5.75439937e+02 6.73088708e-18 5.26075235e-19 0.00000000e+00 6.20481185e-18 0.00000000e+00 5.26075235e-19
6.60693448e+02 3.51414392e-18 3.47574461e-19 0.00000000e+00 3.16656946e-18 0.00000000e+00 3.47574461e-19
7.58577575e+02 1.84245274e-18 2.29640169e-19 0.00000000e+00 1.61281257e-18 0.00000000e+00 2.29640169e-19
8.70963590e+02 9.71566471e-19 1.51721755e-19 0.00000000e+00 8.19844716e-19 0.00000000e+00 1.51721755e-19
1.00000000e+03 4.15996321e-19 0.00000000e+00 0.00000000e+00 4.15996321e-19 0.00000000e+00 0.00000000e+00
