# column 1: lambda (micron)
# column 2: total flux; lambda*F_lambda (W/m2)
# column 3: direct stellar flux; lambda*F_lambda (W/m2)
# column 4: scattered stellar flux; lambda*F_lambda (W/m2)
# column 5: total dust emission flux; lambda*F_lambda (W/m2)
# column 6: dust emission scattered flux; lambda*F_lambda (W/m2)
# column 7: transparent flux; lambda*F_lambda (W/m2)
1.00000000e-03 9.68074353e-13 9.68073281e-13 1.07232010e-18 0.00000000e+00 0.00000000e+00 9.68073281e-13
1.14815362e-03 1.14263854e-12 1.14263687e-12 1.67015510e-18 0.00000000e+00 0.00000000e+00 1.14263687e-12
1.31825674e-03 1.34868044e-12 1.34867788e-12 2.56278897e-18 0.00000000e+00 0.00000000e+00 1.34867788e-12
1.51356125e-03 1.59187626e-12 1.59187233e-12 3.92974944e-18 0.00000000e+00 0.00000000e+00 1.59187233e-12
1.73780083e-03 1.87892682e-12 1.87891976e-12 7.05772580e-18 0.00000000e+00 0.00000000e+00 1.87891976e-12
1.99526231e-03 2.21774000e-12 2.21772777e-12 1.22383418e-17 0.00000000e+00 0.00000000e+00 2.21772777e-12
2.29086765e-03 2.61764885e-12 2.61762985e-12 1.90010497e-17 0.00000000e+00 0.00000000e+00 2.61762985e-12
2.63026799e-03 3.08967987e-12 3.08964252e-12 3.73495260e-17 0.00000000e+00 0.00000000e+00 3.08964252e-12
3.01995172e-03 3.64683019e-12 3.64676883e-12 6.13631062e-17 0.00000000e+00 0.00000000e+00 3.64676883e-12
3.46736850e-03 4.30445619e-12 4.30435650e-12 9.96871393e-17 0.00000000e+00 0.00000000e+00 4.30435650e-12
3.98107171e-03 5.08067554e-12 5.08052080e-12 1.54743853e-16 0.00000000e+00 0.00000000e+00 5.08052080e-12
4.57088190e-03 5.99702127e-12 5.99664354e-12 3.77726019e-16 0.00000000e+00 0.00000000e+00 5.99664354e-12
5.24807460e-03 7.07859461e-12 7.07796211e-12 6.32496452e-16 0.00000000e+00 0.00000000e+00 7.07796211e-12
6.02559586e-03 8.35547174e-12 8.35426474e-12 1.20699858e-15 0.00000000e+00 0.00000000e+00 8.35426474e-12
6.91830971e-03 9.86260425e-12 9.86071107e-12 1.89317646e-15 0.00000000e+00 0.00000000e+00 9.86071107e-12
7.94328235e-03 1.16416442e-11 1.16388008e-11 2.84347801e-15 0.00000000e+00 0.00000000e+00 1.16388008e-11
9.12010839e-03 1.37422753e-11 1.37375167e-11 4.75862498e-15 0.00000000e+00 0.00000000e+00 1.37375167e-11
1.04712855e-02 1.53500197e-11 1.53429287e-11 7.09102227e-15 0.00000000e+00 0.00000000e+00 1.53429287e-11
1.20226443e-02 1.53531059e-11 1.53429287e-11 1.01772397e-14 0.00000000e+00 0.00000000e+00 1.53429287e-11
1.38038426e-02 1.53580487e-11 1.53429287e-11 1.51200519e-14 1.53980720e-288 1.15371465e-289 1.53429287e-11
1.58489319e-02 1.53683963e-11 1.53429287e-11 2.54676712e-14 8.22360613e-252 7.08599401e-253 1.53429287e-11
1.81970086e-02 1.53691049e-11 1.53429287e-11 2.61762338e-14 7.44911759e-220 5.58676374e-221 1.53429287e-11
2.08929613e-02 1.53833878e-11 1.53429287e-11 4.04590882e-14 4.62051488e-192 3.87307745e-193 1.53429287e-11
2.39883292e-02 1.53949005e-11 1.53429287e-11 5.19718103e-14 7.16912654e-168 6.53099485e-169 1.53429287e-11
2.75422870e-02 1.54103545e-11 1.53429287e-11 6.74257951e-14 8.06277147e-147 7.90817843e-148 1.53429287e-11
3.16227766e-02 1.54270560e-11 1.53429287e-11 8.41272902e-14 1.61553104e-128 1.57858159e-129 1.53429287e-11
3.63078055e-02 1.54385026e-11 1.53429287e-11 9.55739206e-14 1.31273849e-112 1.28390859e-113 1.53429287e-11
4.16869383e-02 1.54751723e-11 1.53429287e-11 1.32243683e-13 8.97624814e-99 9.95897062e-100 1.53429287e-11
4.78630092e-02 1.55204365e-11 1.53429287e-11 1.77507836e-13 9.17495358e-87 1.13116012e-87 1.53429287e-11
5.49540874e-02 1.55517457e-11 1.53429287e-11 2.08817027e-13 2.44904899e-76 3.17959158e-77 1.53429287e-11
6.30957344e-02 1.55771720e-11 1.53429287e-11 2.34243348e-13 3.52790039e-67 4.64719586e-68 1.53429287e-11
7.24435960e-02 1.55595278e-11 1.53429287e-11 2.16599185e-13 3.04787810e-59 3.70531099e-60 1.53429287e-11
8.31763771e-02 1.55551435e-11 1.53429287e-11 2.12214843e-13 1.90007845e-52 2.23745989e-53 1.53429287e-11
9.54992586e-02 1.55683111e-11 1.53429287e-11 2.25382469e-13 1.45080431e-46 1.76661399e-47 1.53429287e-11
1.09647820e-01 1.48907229e-11 1.46523889e-11 2.38333989e-13 1.68894628e-41 2.26013894e-42 1.46523889e-11
1.25892541e-01 1.39014518e-11 1.36744049e-11 2.27046894e-13 4.02415376e-37 5.53268818e-38 1.36744049e-11
1.44543977e-01 1.29692451e-11 1.27616972e-11 2.07547874e-13 2.32760269e-33 3.25010842e-34 1.27616972e-11
1.65958691e-01 1.21327260e-11 1.19099088e-11 2.22817196e-13 3.14858608e-30 4.83232960e-31 1.19099088e-11
1.90546072e-01 1.13653595e-11 1.11149736e-11 2.50385868e-13 1.15876587e-27 2.06268380e-28 1.11149736e-11
2.18776162e-01 1.06020239e-11 1.03730969e-11 2.28926920e-13 1.63903015e-25 2.98610216e-26 1.03730969e-11
2.51188643e-01 9.96071987e-12 9.68073733e-12 2.79982532e-13 1.95092933e-23 4.40661972e-24 9.68073733e-12
2.88403150e-01 9.30280650e-12 9.03458975e-12 2.68216752e-13 1.19572136e-21 2.84540655e-22 9.03458975e-12
3.31131121e-01 8.67230763e-12 8.43156974e-12 2.40737850e-13 4.07892098e-20 1.00986820e-20 8.43156974e-12
3.80189396e-01 8.09790759e-12 7.86879872e-12 2.29108022e-13 8.41726443e-19 2.14401232e-19 7.86879872e-12
4.36515832e-01 7.55298618e-12 7.34359025e-12 2.09384453e-13 1.14725839e-17 3.06562102e-18 7.34359025e-12
5.01187234e-01 7.04788825e-12 6.85343719e-12 1.94343956e-13 1.07109438e-16 2.96353491e-17 6.85343719e-12
5.75439937e-01 6.58153193e-12 6.39599973e-12 1.84806680e-13 7.25524064e-16 2.05254714e-16 6.39599973e-12
6.60693448e-01 6.14267124e-12 5.96909425e-12 1.69872162e-13 3.70481947e-15 1.05209287e-15 5.96909425e-12
7.58577575e-01 5.74499274e-12 5.57068288e-12 1.59548297e-13 1.47615618e-14 4.11007997e-15 5.57068288e-12
8.70963590e-01 5.38790921e-12 5.19886376e-12 1.41435576e-13 4.76098683e-14 1.27865351e-14 5.19886376e-12
1.00000000e+00 5.10133485e-12 4.85186196e-12 1.21513947e-13 1.27958937e-13 3.21142601e-14 4.85186196e-12
1.14815362e+00 4.92765086e-12 4.52802104e-12 1.02323944e-13 2.97305869e-13 6.79030171e-14 4.52802104e-12
1.31825674e+00 4.91060232e-12 4.22579511e-12 8.09373853e-14 6.03869823e-13 1.20311232e-13 4.22579511e-12
1.51356125e+00 5.10920666e-12 3.94374146e-12 6.33353316e-14 1.10212986e-12 1.87851156e-13 3.94374146e-12
1.73780083e+00 5.50219638e-12 3.68051368e-12 4.89816678e-14 1.77270103e-12 2.49826765e-13 3.68051368e-12
1.99526231e+00 6.03134080e-12 3.43485522e-12 3.47491453e-14 2.56173643e-12 2.85647806e-13 3.43485522e-12
2.29086765e+00 6.56448119e-12 3.20559341e-12 2.51089827e-14 3.33377880e-12 2.89479232e-13 3.20559341e-12
2.63026799e+00 7.02871045e-12 2.99163384e-12 1.75498604e-14 4.01952676e-12 2.65197159e-13 2.99163384e-12
3.01995172e+00 7.32891164e-12 2.79195514e-12 1.24502652e-14 4.52450623e-12 2.28109697e-13 2.79195514e-12
3.46736850e+00 7.42557376e-12 2.60560415e-12 8.61195166e-15 4.81135766e-12 1.83717960e-13 2.60560415e-12
3.98107171e+00 7.32130903e-12 2.43169128e-12 5.91739132e-15 4.88370037e-12 1.40502862e-13 2.43169128e-12
4.57088190e+00 7.08005767e-12 2.26938634e-12 4.02294819e-15 4.80664838e-12 1.01461455e-13 2.26938634e-12
5.24807460e+00 6.49031680e-12 1.87643467e-12 2.25849146e-15 4.61162364e-12 6.81126989e-14 1.87643467e-12
6.02559586e+00 5.59379063e-12 1.23974809e-12 9.96159894e-16 4.35304638e-12 4.31626415e-14 1.23974809e-12
6.70000000e+00 5.01285782e-12 9.01797527e-13 5.12945309e-16 4.11054735e-12 2.87717542e-14 9.01797527e-13
6.92422916e+00 4.85102194e-12 8.16994532e-13 4.14480126e-16 4.03361293e-12 2.50967765e-14 8.16994532e-13
7.15596261e+00 4.71571759e-12 7.40166218e-13 3.31093503e-16 3.97522028e-12 2.16577158e-14 7.40166218e-13
7.39545150e+00 4.65817909e-12 6.70562664e-13 2.50636873e-16 3.98736579e-12 1.84379578e-14 6.70562664e-13
7.64295536e+00 4.81622956e-12 6.07504471e-13 1.75186710e-16 4.20854990e-12 1.52894536e-14 6.07504471e-13
7.89874245e+00 5.23591532e-12 5.50376127e-13 1.06932003e-16 4.68543226e-12 1.20890090e-14 5.50376127e-13
8.16308998e+00 5.84334860e-12 4.98620004e-13 6.14508511e-17 5.34466715e-12 9.25895645e-15 4.98620004e-13
8.43628443e+00 6.61433839e-12 4.51730909e-13 3.43675467e-17 6.16257311e-12 6.86100871e-15 4.51730909e-13
8.71862190e+00 7.05375227e-12 4.09251158e-13 2.16444249e-17 6.64447946e-12 5.33872745e-15 4.09251158e-13
9.01040836e+00 7.46375914e-12 3.70766106e-13 1.44133667e-17 7.09297862e-12 4.06695180e-15 3.70766106e-13
9.31196005e+00 7.72566532e-12 3.35900102e-13 0.00000000e+00 7.38976522e-12 0.00000000e+00 3.35900102e-13
9.62360379e+00 7.58693202e-12 3.04312818e-13 0.00000000e+00 7.28261920e-12 0.00000000e+00 3.04312818e-13
9.94567731e+00 7.21809685e-12 2.75695930e-13 0.00000000e+00 6.94240092e-12 0.00000000e+00 2.75695930e-13
1.02785297e+01 6.78812865e-12 2.49770110e-13 0.00000000e+00 6.53835854e-12 0.00000000e+00 2.49770110e-13
1.06225216e+01 6.32026003e-12 2.26282295e-13 0.00000000e+00 6.09397773e-12 0.00000000e+00 2.26282295e-13
1.09780260e+01 5.83619618e-12 2.05003220e-13 0.00000000e+00 5.63119296e-12 0.00000000e+00 2.05003220e-13
1.13454280e+01 5.41955239e-12 1.85725182e-13 0.00000000e+00 5.23382721e-12 0.00000000e+00 1.85725182e-13
1.17251259e+01 5.05776023e-12 1.68260007e-13 0.00000000e+00 4.88950023e-12 0.00000000e+00 1.68260007e-13
1.21175312e+01 4.69795900e-12 1.52437217e-13 0.00000000e+00 4.54552178e-12 0.00000000e+00 1.52437217e-13
1.25230691e+01 4.34692361e-12 1.38102367e-13 0.00000000e+00 4.20882125e-12 0.00000000e+00 1.38102367e-13
1.29421791e+01 4.03790194e-12 1.25115533e-13 0.00000000e+00 3.91278641e-12 0.00000000e+00 1.25115533e-13
1.33753155e+01 3.75291003e-12 1.13349952e-13 0.00000000e+00 3.63956008e-12 0.00000000e+00 1.13349952e-13
1.38229477e+01 3.55878714e-12 1.02690779e-13 0.00000000e+00 3.45609636e-12 0.00000000e+00 1.02690779e-13
1.42855609e+01 3.43752244e-12 9.30339713e-14 0.00000000e+00 3.34448847e-12 0.00000000e+00 9.30339713e-14
1.47636563e+01 3.45522570e-12 8.42852675e-14 0.00000000e+00 3.37094044e-12 0.00000000e+00 8.42852675e-14
1.52577522e+01 3.50714160e-12 7.63592720e-14 0.00000000e+00 3.43078233e-12 0.00000000e+00 7.63592720e-14
1.57683840e+01 3.58415027e-12 6.91786191e-14 0.00000000e+00 3.51497165e-12 0.00000000e+00 6.91786191e-14
1.62961051e+01 3.65590088e-12 6.26732185e-14 0.00000000e+00 3.59322766e-12 0.00000000e+00 6.26732185e-14
1.68414875e+01 3.72917070e-12 5.67795711e-14 0.00000000e+00 3.67239113e-12 0.00000000e+00 5.67795711e-14
1.74051222e+01 3.75944105e-12 5.14401489e-14 0.00000000e+00 3.70800090e-12 0.00000000e+00 5.14401489e-14
1.79876201e+01 3.75848311e-12 4.66028339e-14 0.00000000e+00 3.71188028e-12 0.00000000e+00 4.66028339e-14
1.85896125e+01 3.72033228e-12 4.22204090e-14 0.00000000e+00 3.67811187e-12 0.00000000e+00 4.22204090e-14
1.92117518e+01 3.62492340e-12 3.82500974e-14 0.00000000e+00 3.58667330e-12 0.00000000e+00 3.82500974e-14
1.98547123e+01 3.50857352e-12 3.46531450e-14 0.00000000e+00 3.47392038e-12 0.00000000e+00 3.46531450e-14
2.05191907e+01 3.37911493e-12 3.13944418e-14 0.00000000e+00 3.34772049e-12 0.00000000e+00 3.13944418e-14
2.12059073e+01 3.25006529e-12 2.84421796e-14 0.00000000e+00 3.22162311e-12 0.00000000e+00 2.84421796e-14
2.19156062e+01 3.13373058e-12 2.57675415e-14 0.00000000e+00 3.10796304e-12 0.00000000e+00 2.57675415e-14
2.26490567e+01 3.01543247e-12 2.33444203e-14 0.00000000e+00 2.99208805e-12 0.00000000e+00 2.33444203e-14
2.34070535e+01 2.89958962e-12 2.11491639e-14 0.00000000e+00 2.87844045e-12 0.00000000e+00 2.11491639e-14
2.41904183e+01 2.79261226e-12 1.91603445e-14 0.00000000e+00 2.77345191e-12 0.00000000e+00 1.91603445e-14
2.50000000e+01 2.68303882e-12 1.73585491e-14 0.00000000e+00 2.66568028e-12 0.00000000e+00 1.73585491e-14
2.75422870e+01 2.37140772e-12 1.29817562e-14 0.00000000e+00 2.35842596e-12 0.00000000e+00 1.29817562e-14
3.16227766e+01 1.92787668e-12 8.57696126e-15 0.00000000e+00 1.91929972e-12 0.00000000e+00 8.57696126e-15
3.63078055e+01 1.49309603e-12 5.66674211e-15 0.00000000e+00 1.48742929e-12 0.00000000e+00 5.66674211e-15
4.16869383e+01 1.08287721e-12 3.74397938e-15 0.00000000e+00 1.07913323e-12 0.00000000e+00 3.74397938e-15
4.78630092e+01 7.34513115e-13 2.47362265e-15 0.00000000e+00 7.32039493e-13 0.00000000e+00 2.47362265e-15
5.49540874e+01 4.72259547e-13 1.63430628e-15 0.00000000e+00 4.70625241e-13 0.00000000e+00 1.63430628e-15
6.30957344e+01 2.90274225e-13 1.07977545e-15 0.00000000e+00 2.89194450e-13 0.00000000e+00 1.07977545e-15
7.24435960e+01 1.72468635e-13 7.13400564e-16 0.00000000e+00 1.71755235e-13 0.00000000e+00 7.13400564e-16
8.31763771e+01 9.97788963e-14 4.71339078e-16 0.00000000e+00 9.93075572e-14 0.00000000e+00 4.71339078e-16
9.54992586e+01 5.66424408e-14 3.11410641e-16 0.00000000e+00 5.63310301e-14 0.00000000e+00 3.11410641e-16
1.09647820e+02 3.16750378e-14 2.05746970e-16 0.00000000e+00 3.14692908e-14 0.00000000e+00 2.05746970e-16
1.25892541e+02 1.77053294e-14 1.35935675e-16 0.00000000e+00 1.75693937e-14 0.00000000e+00 1.35935675e-16
1.44543977e+02 9.83612718e-15 8.98118099e-17 0.00000000e+00 9.74631537e-15 0.00000000e+00 8.98118099e-17
1.65958691e+02 5.20461530e-15 5.93380743e-17 0.00000000e+00 5.14527723e-15 0.00000000e+00 5.93380743e-17
1.90546072e+02 2.75576008e-15 3.92042769e-17 0.00000000e+00 2.71655580e-15 0.00000000e+00 3.92042769e-17
2.18776162e+02 1.45646835e-15 2.59020089e-17 0.00000000e+00 1.43056634e-15 0.00000000e+00 2.59020089e-17
2.51188643e+02 7.67199920e-16 1.71132876e-17 0.00000000e+00 7.50086633e-16 0.00000000e+00 1.71132876e-17
2.88403150e+02 4.02431275e-16 1.13066370e-17 0.00000000e+00 3.91124638e-16 0.00000000e+00 1.13066370e-17
3.31131121e+02 2.10692120e-16 7.47022097e-18 0.00000000e+00 2.03221900e-16 0.00000000e+00 7.47022097e-18
3.80189396e+02 1.10043258e-16 4.93552605e-18 0.00000000e+00 1.05107732e-16 0.00000000e+00 4.93552605e-18
4.36515832e+02 5.74516978e-17 3.26086972e-18 0.00000000e+00 5.41908280e-17 0.00000000e+00 3.26086972e-18
5.01187234e+02 3.00004330e-17 2.15443526e-18 0.00000000e+00 2.78459977e-17 0.00000000e+00 2.15443526e-18
5.75439937e+02 1.56923175e-17 1.42342126e-18 0.00000000e+00 1.42688962e-17 0.00000000e+00 1.42342126e-18
6.60693448e+02 8.23452240e-18 9.40445101e-19 0.00000000e+00 7.29407730e-18 0.00000000e+00 9.40445101e-19
7.58577575e+02 4.34208327e-18 6.21345916e-19 0.00000000e+00 3.72073736e-18 0.00000000e+00 6.21345916e-19
8.70963590e+02 2.30451142e-18 4.10519176e-19 0.00000000e+00 1.89399224e-18 0.00000000e+00 4.10519176e-19
1.00000000e+03 9.62239577e-19 0.00000000e+00 0.00000000e+00 9.62239577e-19 0.00000000e+00 0.00000000e+00
