# column 1: lambda (micron)
# column 2: total flux; lambda*F_lambda (W/m2)
# column 3: direct stellar flux; lambda*F_lambda (W/m2)
# column 4: scattered stellar flux; lambda*F_lambda (W/m2)
# column 5: total dust emission flux; lambda*F_lambda (W/m2)
# column 6: dust emission scattered flux; lambda*F_lambda (W/m2)
# column 7: transparent flux; lambda*F_lambda (W/m2)
1.00000000e-03 2.06064858e-13 2.06064124e-13 7.33881813e-19 0.00000000e+00 0.00000000e+00 2.06075710e-13
1.14815362e-03 2.43218164e-13 2.43217346e-13 8.18081856e-19 0.00000000e+00 0.00000000e+00 2.43235413e-13
1.31825674e-03 2.87070088e-13 2.87068664e-13 1.42317958e-18 0.00000000e+00 0.00000000e+00 2.87095777e-13
1.51356125e-03 3.38829478e-13 3.38827341e-13 2.13664479e-18 0.00000000e+00 0.00000000e+00 3.38865070e-13
1.73780083e-03 3.99928305e-13 3.99924443e-13 3.86208418e-18 0.00000000e+00 0.00000000e+00 3.99969435e-13
1.99526231e-03 4.72028126e-13 4.72021771e-13 6.35538385e-18 0.00000000e+00 0.00000000e+00 4.72092178e-13
2.29086765e-03 5.57143022e-13 5.57132015e-13 1.10062507e-17 0.00000000e+00 0.00000000e+00 5.57220139e-13
2.63026799e-03 6.57595244e-13 6.57573785e-13 2.14588534e-17 0.00000000e+00 0.00000000e+00 6.57698429e-13
3.01995172e-03 7.76151985e-13 7.76113076e-13 3.89093968e-17 0.00000000e+00 0.00000000e+00 7.76295028e-13
3.46736850e-03 9.16083310e-13 9.16023913e-13 5.93969887e-17 0.00000000e+00 0.00000000e+00 9.16277040e-13
3.98107171e-03 1.08125912e-12 1.08115871e-12 1.00404175e-16 0.00000000e+00 0.00000000e+00 1.08150070e-12
4.57088190e-03 1.27648993e-12 1.27624832e-12 2.41610499e-16 0.00000000e+00 0.00000000e+00 1.27651759e-12
5.24807460e-03 1.50666838e-12 1.50629413e-12 3.74251815e-16 0.00000000e+00 0.00000000e+00 1.50670006e-12
6.02559586e-03 1.77854108e-12 1.77781148e-12 7.29599617e-16 0.00000000e+00 0.00000000e+00 1.77838917e-12
6.91830971e-03 2.09950271e-12 2.09828250e-12 1.22021000e-15 0.00000000e+00 0.00000000e+00 2.09906943e-12
7.94328235e-03 2.47907549e-12 2.47653873e-12 2.53676054e-15 0.00000000e+00 0.00000000e+00 2.47757497e-12
9.12010839e-03 2.92696974e-12 2.92297563e-12 3.99410301e-15 0.00000000e+00 0.00000000e+00 2.92433286e-12
1.04712855e-02 3.26987894e-12 3.26446752e-12 5.41141937e-15 0.00000000e+00 0.00000000e+00 3.26608014e-12
1.20226443e-02 3.27392149e-12 3.26437237e-12 9.54911958e-15 0.00000000e+00 0.00000000e+00 3.26608014e-12
1.38038426e-02 3.27467026e-12 3.26425952e-12 1.04107426e-14 6.49789737e-291 2.38295231e-292 3.26608014e-12
1.58489319e-02 3.27963268e-12 3.26412084e-12 1.55118459e-14 4.13362977e-254 1.71972613e-255 3.26608014e-12
1.81970086e-02 3.29282553e-12 3.26399293e-12 2.88325950e-14 4.41089360e-222 1.77395692e-223 3.26608014e-12
2.08929613e-02 3.28922710e-12 3.26388662e-12 2.53404811e-14 3.14555148e-194 1.71638569e-195 3.26608014e-12
2.39883292e-02 3.29261840e-12 3.26374888e-12 2.88695232e-14 5.41866675e-170 2.76454181e-171 3.26608014e-12
2.75422870e-02 3.29906441e-12 3.26358867e-12 3.54757419e-14 6.74435953e-149 3.82100354e-150 3.26608014e-12
3.16227766e-02 3.30349190e-12 3.26343164e-12 4.00602609e-14 1.48280291e-130 8.79377793e-132 3.26608014e-12
3.63078055e-02 3.30628615e-12 3.26330848e-12 4.29776718e-14 1.29924636e-114 7.23866029e-116 3.26608014e-12
4.16869383e-02 3.30864583e-12 3.26320196e-12 4.54438780e-14 9.37304562e-101 5.65226895e-102 3.26608014e-12
4.78630092e-02 3.30801185e-12 3.26290835e-12 4.51035043e-14 1.01536511e-88 6.29096992e-90 3.26608014e-12
5.49540874e-02 3.30603462e-12 3.26250007e-12 4.35345437e-14 2.85861339e-78 1.88682153e-79 3.26608014e-12
6.30957344e-02 3.30803718e-12 3.26147655e-12 4.65606233e-14 4.38047584e-69 2.89835271e-70 3.26608014e-12
7.24435960e-02 3.30154743e-12 3.26026459e-12 4.12828352e-14 4.01763459e-61 2.49521373e-62 3.26608014e-12
8.31763771e-02 3.29939507e-12 3.26037242e-12 3.90226458e-14 2.58152188e-54 1.52838530e-55 3.26608014e-12
9.54992586e-02 3.29724699e-12 3.26068870e-12 3.65582916e-14 1.99961547e-48 1.18589141e-49 3.26608014e-12
1.09647820e-01 3.15505428e-12 3.11480559e-12 4.02486908e-14 2.28566154e-43 1.40577514e-44 3.11908354e-12
1.25892541e-01 2.94576671e-12 2.90761136e-12 3.81553486e-14 5.32454985e-39 3.38675388e-40 2.91089813e-12
1.44543977e-01 2.74767270e-12 2.71406554e-12 3.36071597e-14 2.98860125e-35 1.76754245e-36 2.71660820e-12
1.65958691e-01 2.56747509e-12 2.53321090e-12 3.42641917e-14 3.85442588e-32 2.37295718e-33 2.53528629e-12
1.90546072e-01 2.39864454e-12 2.36400055e-12 3.46439923e-14 1.35356435e-29 9.26863381e-31 2.36606683e-12
2.18776162e-01 2.23778668e-12 2.20588018e-12 3.19065031e-14 1.87463567e-27 1.31581115e-28 2.20814205e-12
2.51188643e-01 2.09311743e-12 2.05906972e-12 3.40477052e-14 2.02513115e-25 1.56613303e-26 2.06075806e-12
2.88403150e-01 1.95211563e-12 1.92190307e-12 3.02125679e-14 1.19872919e-23 9.29526739e-25 1.92321132e-12
3.31131121e-01 1.82328927e-12 1.79378087e-12 2.95083951e-14 4.06124671e-22 3.10809773e-23 1.79484524e-12
3.80189396e-01 1.70035707e-12 1.67417472e-12 2.61823421e-14 8.70307192e-21 6.75405976e-22 1.67504704e-12
4.36515832e-01 1.58479927e-12 1.56253631e-12 2.22628392e-14 1.25400261e-19 1.02073246e-20 1.56324485e-12
5.01187234e-01 1.47951479e-12 1.45833725e-12 2.11762748e-14 1.26683086e-18 1.07600055e-19 1.45890498e-12
5.75439937e-01 1.38063012e-12 1.36107914e-12 1.95416248e-14 9.35283122e-18 8.22553824e-19 1.36152935e-12
6.60693448e-01 1.28598393e-12 1.27029919e-12 1.56325097e-14 5.22253320e-17 4.85521585e-18 1.27065312e-12
7.58577575e-01 1.20023432e-12 1.18556763e-12 1.44351341e-14 2.31551008e-16 2.22721922e-17 1.18584249e-12
8.70963590e-01 1.11974816e-12 1.10648388e-12 1.24210376e-14 8.43237298e-16 8.30457069e-17 1.10669260e-12
1.00000000e+00 1.04564423e-12 1.03266969e-12 1.04051110e-14 2.56942363e-15 2.51132313e-16 1.03282563e-12
1.14815362e+00 9.79593831e-13 9.63774526e-13 8.97508889e-15 6.84421639e-15 6.34647754e-16 9.63888963e-13
1.31825674e+00 9.22922107e-13 8.99471000e-13 7.26403720e-15 1.61870697e-14 1.38394862e-15 8.99553520e-13
1.51356125e+00 8.78915084e-13 8.39453287e-13 5.68170323e-15 3.37800936e-14 2.57599602e-15 8.39512191e-13
1.73780083e+00 8.49361149e-13 7.83437000e-13 4.37441764e-15 6.15497312e-14 3.90884428e-15 7.83478363e-13
1.99526231e+00 8.32926759e-13 7.31155962e-13 3.07353920e-15 9.86972579e-14 4.93939555e-15 7.31184552e-13
2.29086765e+00 8.26209739e-13 6.82361428e-13 2.20057340e-15 1.41647738e-13 5.39297216e-15 6.82381128e-13
2.63026799e+00 8.22099692e-13 6.36821421e-13 1.49099562e-15 1.83787275e-13 5.06229504e-15 6.36835122e-13
3.01995172e+00 8.15338154e-13 5.94319465e-13 1.00236390e-15 2.20016325e-13 4.35967348e-15 5.94329117e-13
3.46736850e+00 8.02302026e-13 5.54653294e-13 6.57371781e-16 2.46991360e-13 3.50534174e-15 5.54660204e-13
3.98107171e+00 7.79314984e-13 5.17634011e-13 4.45861632e-16 2.61235112e-13 2.70527855e-15 5.17639021e-13
4.57088190e+00 7.47556863e-13 4.83085160e-13 2.91811213e-16 2.64179892e-13 1.94923301e-15 4.83088843e-13
5.24807460e+00 6.57153075e-13 3.99437982e-13 1.65146245e-16 2.57549946e-13 1.32870913e-15 3.99440428e-13
6.02559586e+00 5.09409572e-13 2.63906331e-13 7.55398160e-17 2.45427701e-13 8.52201292e-16 2.63907674e-13
6.70000000e+00 4.25056677e-13 1.91966592e-13 3.95485219e-17 2.33050536e-13 5.86696256e-16 1.91967457e-13
6.92422916e+00 4.02363738e-13 1.73914516e-13 3.17230961e-17 2.28417499e-13 5.11738277e-16 1.73915272e-13
7.15596261e+00 3.82739202e-13 1.57560001e-13 2.39859677e-17 2.25155215e-13 4.42697849e-16 1.57560674e-13
7.39545150e+00 3.69943514e-13 1.42743401e-13 1.95886749e-17 2.27180524e-13 3.76918105e-16 1.42744025e-13
7.64295536e+00 3.70858694e-13 1.29320056e-13 1.36738570e-17 2.41524964e-13 3.06685392e-16 1.29320701e-13
7.89874245e+00 3.95302400e-13 1.17158921e-13 7.76705615e-18 2.78135712e-13 2.38580994e-16 1.17159675e-13
8.16308998e+00 4.38374075e-13 1.06141322e-13 4.50042875e-18 3.32228252e-13 1.79519179e-16 1.06142245e-13
8.43628443e+00 5.07434157e-13 9.61597075e-14 2.42221498e-18 4.11272028e-13 1.34288549e-16 9.61608686e-14
8.71862190e+00 5.57937145e-13 8.71168259e-14 1.58295901e-18 4.70818736e-13 1.06439793e-16 8.71181185e-14
9.01040836e+00 6.11153752e-13 7.89243094e-14 1.08288860e-18 5.32228360e-13 8.07513692e-17 7.89257281e-14
9.31196005e+00 6.59880426e-13 7.15022408e-14 0.00000000e+00 5.88378185e-13 0.00000000e+00 7.15037315e-14
9.62360379e+00 6.54027347e-13 6.47782966e-14 0.00000000e+00 5.89249050e-13 0.00000000e+00 6.47796826e-14
9.94567731e+00 6.09250312e-13 5.86867699e-14 0.00000000e+00 5.50563543e-13 0.00000000e+00 5.86879481e-14
1.02785297e+01 5.54919000e-13 5.31681008e-14 0.00000000e+00 5.01750900e-13 0.00000000e+00 5.31690665e-14
1.06225216e+01 5.04056895e-13 4.81683850e-14 0.00000000e+00 4.55888510e-13 0.00000000e+00 4.81691679e-14
1.09780260e+01 4.47826437e-13 4.36388366e-14 0.00000000e+00 4.04187600e-13 0.00000000e+00 4.36394486e-14
1.13454280e+01 3.99800785e-13 3.95352136e-14 0.00000000e+00 3.60265572e-13 0.00000000e+00 3.95356937e-14
1.17251259e+01 3.58372423e-13 3.58174675e-14 0.00000000e+00 3.22554956e-13 0.00000000e+00 3.58178467e-14
1.21175312e+01 3.22230756e-13 3.24493196e-14 0.00000000e+00 2.89781436e-13 0.00000000e+00 3.24496176e-14
1.25230691e+01 2.89206302e-13 2.93978956e-14 0.00000000e+00 2.59808406e-13 0.00000000e+00 2.93981291e-14
1.29421791e+01 2.61617151e-13 2.66334114e-14 0.00000000e+00 2.34983739e-13 0.00000000e+00 2.66335956e-14
1.33753155e+01 2.38201470e-13 2.41288863e-14 0.00000000e+00 2.14072583e-13 0.00000000e+00 2.41290327e-14
1.38229477e+01 2.23206649e-13 2.18598714e-14 0.00000000e+00 2.01346778e-13 0.00000000e+00 2.18599931e-14
1.42855609e+01 2.14003006e-13 1.98042231e-14 0.00000000e+00 1.94198782e-13 0.00000000e+00 1.98043289e-14
1.47636563e+01 2.15345706e-13 1.79418743e-14 0.00000000e+00 1.97403832e-13 0.00000000e+00 1.79419747e-14
1.52577522e+01 2.18703225e-13 1.62546551e-14 0.00000000e+00 2.02448570e-13 0.00000000e+00 1.62547521e-14
1.57683840e+01 2.24489222e-13 1.47260971e-14 0.00000000e+00 2.09763125e-13 0.00000000e+00 1.47261920e-14
1.62961051e+01 2.30352962e-13 1.33412815e-14 0.00000000e+00 2.17011681e-13 0.00000000e+00 1.33413743e-14
1.68414875e+01 2.37641656e-13 1.20866912e-14 0.00000000e+00 2.25554964e-13 0.00000000e+00 1.20867817e-14
1.74051222e+01 2.39555731e-13 1.09500822e-14 0.00000000e+00 2.28605649e-13 0.00000000e+00 1.09501681e-14
1.79876201e+01 2.41812714e-13 9.92035892e-15 0.00000000e+00 2.31892355e-13 0.00000000e+00 9.92043915e-15
1.85896125e+01 2.39482544e-13 8.98747095e-15 0.00000000e+00 2.30495073e-13 0.00000000e+00 8.98754353e-15
1.92117518e+01 2.32038176e-13 8.14231155e-15 0.00000000e+00 2.23895865e-13 0.00000000e+00 8.14237531e-15
1.98547123e+01 2.23260244e-13 7.37662988e-15 0.00000000e+00 2.15883614e-13 0.00000000e+00 7.37668479e-15
2.05191907e+01 2.14973300e-13 6.68295126e-15 0.00000000e+00 2.08290349e-13 0.00000000e+00 6.68299807e-15
2.12059073e+01 2.06175703e-13 6.05450417e-15 0.00000000e+00 2.00121199e-13 0.00000000e+00 6.05454408e-15
2.19156062e+01 1.99587096e-13 5.48515429e-15 0.00000000e+00 1.94101942e-13 0.00000000e+00 5.48518847e-15
2.26490567e+01 1.92848113e-13 4.96934446e-15 0.00000000e+00 1.87878768e-13 0.00000000e+00 4.96937378e-15
2.34070535e+01 1.87247285e-13 4.50203993e-15 0.00000000e+00 1.82745245e-13 0.00000000e+00 4.50206513e-15
2.41904183e+01 1.81569343e-13 4.07867941e-15 0.00000000e+00 1.77490664e-13 0.00000000e+00 4.07870113e-15
2.50000000e+01 1.76844817e-13 3.69513057e-15 0.00000000e+00 1.73149687e-13 0.00000000e+00 3.69514932e-15
2.75422870e+01 1.64797933e-13 2.76344036e-15 0.00000000e+00 1.62034493e-13 0.00000000e+00 2.76345259e-15
3.16227766e+01 1.48782638e-13 1.82578830e-15 0.00000000e+00 1.46956850e-13 0.00000000e+00 1.82579502e-15
3.63078055e+01 1.32382970e-13 1.20628714e-15 0.00000000e+00 1.31176683e-13 0.00000000e+00 1.20629081e-15
4.16869383e+01 1.14076120e-13 7.96986480e-16 0.00000000e+00 1.13279133e-13 0.00000000e+00 7.96988434e-16
4.78630092e+01 9.38524638e-14 5.26564029e-16 0.00000000e+00 9.33258998e-14 0.00000000e+00 5.26565037e-16
5.49540874e+01 7.39429671e-14 3.47897561e-16 0.00000000e+00 7.35950695e-14 0.00000000e+00 3.47898070e-16
6.30957344e+01 5.56529941e-14 2.29853722e-16 0.00000000e+00 5.54231403e-14 0.00000000e+00 2.29853975e-16
7.24435960e+01 3.99709709e-14 1.51862890e-16 0.00000000e+00 3.98191081e-14 0.00000000e+00 1.51863015e-16
8.31763771e+01 2.74624985e-14 1.00334837e-16 0.00000000e+00 2.73621636e-14 0.00000000e+00 1.00334899e-16
9.54992586e+01 1.81693377e-14 6.62905799e-17 0.00000000e+00 1.81030471e-14 0.00000000e+00 6.62906105e-17
1.09647820e+02 1.16155526e-14 4.37977568e-17 0.00000000e+00 1.15717548e-14 0.00000000e+00 4.37977720e-17
1.25892541e+02 7.26963071e-15 2.89368934e-17 0.00000000e+00 7.24069381e-15 0.00000000e+00 2.89369010e-17
1.44543977e+02 4.44712991e-15 1.91184170e-17 0.00000000e+00 4.42801149e-15 0.00000000e+00 1.91184209e-17
1.65958691e+02 2.56250561e-15 1.26314135e-17 0.00000000e+00 2.54987420e-15 0.00000000e+00 1.26314154e-17
1.90546072e+02 1.45694180e-15 8.34549247e-18 0.00000000e+00 1.44859631e-15 0.00000000e+00 8.34549342e-18
2.18776162e+02 8.16933852e-16 5.51381235e-18 0.00000000e+00 8.11420040e-16 0.00000000e+00 5.51381282e-18
2.51188643e+02 4.52013808e-16 3.64293977e-18 0.00000000e+00 4.48370868e-16 0.00000000e+00 3.64294000e-18
2.88403150e+02 2.46814436e-16 2.40686647e-18 0.00000000e+00 2.44407570e-16 0.00000000e+00 2.40686659e-18
3.31131121e+02 1.33461291e-16 1.59020093e-18 0.00000000e+00 1.31871090e-16 0.00000000e+00 1.59020099e-18
3.80189396e+02 7.14756946e-17 1.05063534e-18 0.00000000e+00 7.04250593e-17 0.00000000e+00 1.05063537e-18
4.36515832e+02 3.80095291e-17 6.94147893e-19 0.00000000e+00 3.73153813e-17 0.00000000e+00 6.94147908e-19
5.01187234e+02 2.00856240e-17 4.58618967e-19 0.00000000e+00 1.96270051e-17 0.00000000e+00 4.58618975e-19
5.75439937e+02 1.05629885e-17 3.03006548e-19 0.00000000e+00 1.02599820e-17 0.00000000e+00 3.03006552e-19
6.60693448e+02 5.53529960e-18 2.00194441e-19 0.00000000e+00 5.33510516e-18 0.00000000e+00 2.00194443e-19
7.58577575e+02 2.89384661e-18 1.32267156e-19 0.00000000e+00 2.76157945e-18 0.00000000e+00 1.32267157e-19
8.70963590e+02 1.51091850e-18 8.73880436e-20 0.00000000e+00 1.42353046e-18 0.00000000e+00 8.73880441e-20
1.00000000e+03 7.31079550e-19 0.00000000e+00 0.00000000e+00 7.31079550e-19 0.00000000e+00 0.00000000e+00
