# column 1: lambda (micron)
# column 2: total flux; lambda*F_lambda (W/m2)
# column 3: direct stellar flux; lambda*F_lambda (W/m2)
# column 4: scattered stellar flux; lambda*F_lambda (W/m2)
# column 5: total dust emission flux; lambda*F_lambda (W/m2)
# column 6: dust emission scattered flux; lambda*F_lambda (W/m2)
# column 7: transparent flux; lambda*F_lambda (W/m2)
1.00000000e-03 1.04634773e-12 1.04634360e-12 4.12075046e-18 0.00000000e+00 0.00000000e+00 1.04634360e-12
1.14815362e-03 1.23502742e-12 1.23502095e-12 6.46658130e-18 0.00000000e+00 0.00000000e+00 1.23502095e-12
1.31825674e-03 1.45773067e-12 1.45772071e-12 9.95715325e-18 0.00000000e+00 0.00000000e+00 1.45772071e-12
1.51356125e-03 1.72059340e-12 1.72057784e-12 1.55682581e-17 0.00000000e+00 0.00000000e+00 1.72057784e-12
1.73780083e-03 2.03086145e-12 2.03083353e-12 2.79276081e-17 0.00000000e+00 0.00000000e+00 2.03083353e-12
1.99526231e-03 2.39708600e-12 2.39703472e-12 5.12813038e-17 0.00000000e+00 0.00000000e+00 2.39703472e-12
2.29086765e-03 2.82934956e-12 2.82926954e-12 8.00140394e-17 0.00000000e+00 0.00000000e+00 2.82926954e-12
2.63026799e-03 3.33960662e-12 3.33944522e-12 1.61393555e-16 0.00000000e+00 0.00000000e+00 3.33944522e-12
3.01995172e-03 3.94190161e-12 3.94161611e-12 2.85496745e-16 0.00000000e+00 0.00000000e+00 3.94161611e-12
3.46736850e-03 4.65285105e-12 4.65237083e-12 4.80215385e-16 0.00000000e+00 0.00000000e+00 4.65237083e-12
3.98107171e-03 5.49209908e-12 5.49128930e-12 8.09781623e-16 0.00000000e+00 0.00000000e+00 5.49128930e-12
4.57088190e-03 6.48310672e-12 6.48148207e-12 1.62465105e-15 0.00000000e+00 0.00000000e+00 6.48148207e-12
5.24807460e-03 7.65328129e-12 7.65022704e-12 3.05425111e-15 0.00000000e+00 0.00000000e+00 7.65022704e-12
6.02559586e-03 9.03553315e-12 9.02972084e-12 5.81230863e-15 0.00000000e+00 0.00000000e+00 9.02972084e-12
6.91830971e-03 1.06669938e-11 1.06579658e-11 9.02792778e-15 0.00000000e+00 0.00000000e+00 1.06579658e-11
7.94328235e-03 1.25954964e-11 1.25798170e-11 1.56793894e-14 6.80610096e-304 1.89057635e-306 1.25798170e-11
9.12010839e-03 1.48755833e-11 1.48482176e-11 2.73657056e-14 2.82001768e-265 1.84516439e-267 1.48482176e-11
1.04712855e-02 1.66344433e-11 1.65834298e-11 5.10134849e-14 1.12827489e-231 4.79462999e-234 1.65834298e-11
1.20226443e-02 1.66395887e-11 1.65834298e-11 5.61588706e-14 1.69133399e-202 1.09725674e-204 1.65834298e-11
1.38038426e-02 1.66712383e-11 1.65834298e-11 8.78085587e-14 4.44036571e-177 4.34193019e-179 1.65834298e-11
1.58489319e-02 1.67055056e-11 1.65834298e-11 1.22075818e-13 5.81751840e-155 7.63869347e-157 1.65834298e-11
1.81970086e-02 1.67484954e-11 1.65834298e-11 1.65065657e-13 1.01197579e-135 1.91710413e-137 1.65834298e-11
2.08929613e-02 1.68069493e-11 1.65834298e-11 2.23519535e-13 5.17799582e-119 1.33045893e-120 1.65834298e-11
2.39883292e-02 1.68898540e-11 1.65834298e-11 3.06424207e-13 1.78830685e-104 6.10536545e-106 1.65834298e-11
2.75422870e-02 1.69755499e-11 1.65834298e-11 3.92120135e-13 7.91879639e-92 3.55662230e-93 1.65834298e-11
3.16227766e-02 1.70758053e-11 1.65834298e-11 4.92375479e-13 7.64896078e-81 4.17536078e-82 1.65834298e-11
3.63078055e-02 1.71338915e-11 1.65834298e-11 5.50461686e-13 2.62850887e-71 1.63101923e-72 1.65834298e-11
4.16869383e-02 1.73322878e-11 1.65834298e-11 7.48858016e-13 5.01169371e-63 4.06802053e-64 1.65834298e-11
4.78630092e-02 1.75083660e-11 1.65834298e-11 9.24936168e-13 7.61149643e-56 7.72403495e-57 1.65834298e-11
5.49540874e-02 1.76126560e-11 1.65834298e-11 1.02922625e-12 1.26570158e-49 1.46104784e-50 1.65834298e-11
6.30957344e-02 1.76883320e-11 1.65834298e-11 1.10490224e-12 4.08025254e-44 5.11096284e-45 1.65834298e-11
7.24435960e-02 1.75666610e-11 1.65834298e-11 9.83231238e-13 2.32716937e-39 2.69399611e-40 1.65834298e-11
8.31763771e-02 1.75371566e-11 1.65834298e-11 9.53726788e-13 2.36312436e-35 2.69840434e-36 1.65834298e-11
9.54992586e-02 1.75589166e-11 1.65834298e-11 9.75486853e-13 6.62261667e-32 7.72033138e-33 1.65834298e-11
1.09647820e-01 1.68760889e-11 1.58370587e-11 1.03903020e-12 5.62635043e-29 7.12560939e-30 1.58370587e-11
1.25892541e-01 1.57752908e-11 1.47800032e-11 9.95287619e-13 1.81540801e-26 2.31384748e-27 1.47800032e-11
1.44543977e-01 1.46977535e-11 1.37935015e-11 9.04252009e-13 2.45545860e-24 3.06290680e-25 1.37935015e-11
1.65958691e-01 1.37734809e-11 1.28728446e-11 9.00636301e-13 1.24585803e-22 1.67943692e-23 1.28728446e-11
1.90546072e-01 1.29668234e-11 1.20136376e-11 9.53185745e-13 2.63668255e-21 3.97478771e-22 1.20136376e-11
2.18776162e-01 1.20625430e-11 1.12117790e-11 8.50764005e-13 3.11636826e-20 4.78528337e-21 1.12117790e-11
2.51188643e-01 1.13802112e-11 1.04634409e-11 9.16769904e-13 3.81745292e-19 6.82274966e-20 1.04634409e-11
2.88403150e-01 1.06162944e-11 9.76505125e-12 8.51239964e-13 3.16819051e-18 5.63154727e-19 9.76505125e-12
3.31131121e-01 9.89721818e-12 9.11327608e-12 7.83924076e-13 1.80205694e-17 3.08322933e-18 9.11327608e-12
3.80189396e-01 9.21128265e-12 8.50500410e-12 7.06203450e-13 7.51082784e-17 1.25888205e-17 8.50500410e-12
4.36515832e-01 8.56250662e-12 7.93733165e-12 6.24932256e-13 2.42716878e-16 4.11250451e-17 7.93733165e-12
5.01187234e-01 7.96497168e-12 7.40754890e-12 5.56752808e-13 6.69970728e-16 1.23971200e-16 7.40754890e-12
5.75439937e-01 7.40779879e-12 6.91312687e-12 4.92818182e-13 1.85374381e-15 4.02950582e-16 6.91312687e-12
6.60693448e-01 6.88516686e-12 6.45170538e-12 4.27774194e-13 5.68728829e-15 1.44632638e-15 6.45170538e-12
7.58577575e-01 6.39696877e-12 6.02108180e-12 3.57464513e-13 1.84224579e-14 4.95522323e-15 6.02108180e-12
8.70963590e-01 5.97632314e-12 5.61920048e-12 3.01517207e-13 5.56054539e-14 1.45625856e-14 5.61920048e-12
1.00000000e+00 5.63977131e-12 5.24414302e-12 2.46712199e-13 1.48916099e-13 3.65276919e-14 5.24414302e-12
1.14815362e+00 5.43920128e-12 4.89411902e-12 1.93281718e-13 3.51800541e-13 7.71536941e-14 4.89411902e-12
1.31825674e+00 5.46136924e-12 4.56745763e-12 1.48322636e-13 7.45588976e-13 1.42294562e-13 4.56745763e-12
1.51356125e+00 5.78018933e-12 4.26259947e-12 1.11672074e-13 1.40591778e-12 2.29003243e-13 4.26259947e-12
1.73780083e+00 6.45481543e-12 3.97808929e-12 8.52861435e-14 2.39143999e-12 3.26235389e-13 3.97808929e-12
1.99526231e+00 7.41370203e-12 3.71256894e-12 6.25662816e-14 3.63856681e-12 3.98222403e-13 3.71256894e-12
2.29086765e+00 8.57556121e-12 3.46477093e-12 4.52262423e-14 5.06556403e-12 4.33569806e-13 3.46477093e-12
2.63026799e+00 9.72778617e-12 3.23351237e-12 3.26138432e-14 6.46165995e-12 4.25468573e-13 3.23351237e-12
3.01995172e+00 1.08684670e-11 3.01768933e-12 2.30163599e-14 7.82776134e-12 3.90277864e-13 3.01768933e-12
3.46736850e+00 1.17634053e-11 2.81627154e-12 1.61512372e-14 8.93098250e-12 3.35073627e-13 2.81627154e-12
3.98107171e+00 1.23845844e-11 2.62829753e-12 1.11718878e-14 9.74511499e-12 2.72269019e-13 2.62829753e-12
4.57088190e+00 1.28384775e-11 2.45286997e-12 7.47313574e-15 1.03781343e-11 2.09878165e-13 2.45286997e-12
5.24807460e+00 1.28279148e-11 2.02814751e-12 4.29212779e-15 1.07954752e-11 1.52413257e-13 2.02814751e-12
6.02559586e+00 1.23912937e-11 1.33998377e-12 1.90352816e-15 1.10494064e-11 1.05060965e-13 1.33998377e-12
6.70000000e+00 1.20847294e-11 9.74709347e-13 9.77903405e-16 1.11090421e-11 7.54633229e-14 9.74709347e-13
6.92422916e+00 1.19948848e-11 8.83049889e-13 7.90346936e-16 1.11110446e-11 6.76594161e-14 8.83049889e-13
7.15596261e+00 1.19646838e-11 8.00009879e-13 6.21896952e-16 1.11640520e-11 5.95206070e-14 8.00009879e-13
7.39545150e+00 1.19701700e-11 7.24778763e-13 4.77694386e-16 1.12449136e-11 5.10318911e-14 7.24778763e-13
7.64295536e+00 1.22865927e-11 6.56622211e-13 3.30500332e-16 1.16296400e-11 4.13250867e-14 6.56622211e-13
7.89874245e+00 1.30141653e-11 5.94874946e-13 1.98096954e-16 1.24190923e-11 3.10492730e-14 5.94874946e-13
8.16308998e+00 1.40664033e-11 5.38934254e-13 1.12317773e-16 1.35273567e-11 2.25390637e-14 5.38934254e-13
8.43628443e+00 1.55615052e-11 4.88254098e-13 6.03540402e-17 1.50731908e-11 1.61533901e-14 4.88254098e-13
8.71862190e+00 1.65895949e-11 4.42339790e-13 3.65585467e-17 1.61472185e-11 1.25719938e-14 4.42339790e-13
9.01040836e+00 1.75147970e-11 4.00743158e-13 2.22681125e-17 1.71140315e-11 9.62916758e-15 4.00743158e-13
9.31196005e+00 1.84165250e-11 3.63058180e-13 0.00000000e+00 1.80534669e-11 0.00000000e+00 3.63058180e-13
9.62360379e+00 1.83523528e-11 3.28917012e-13 0.00000000e+00 1.80234358e-11 0.00000000e+00 3.28917012e-13
9.94567731e+00 1.79112490e-11 2.97986401e-13 0.00000000e+00 1.76132626e-11 0.00000000e+00 2.97986401e-13
1.02785297e+01 1.70321678e-11 2.69964435e-13 0.00000000e+00 1.67622034e-11 0.00000000e+00 2.69964435e-13
1.06225216e+01 1.64760751e-11 2.44577592e-13 0.00000000e+00 1.62314975e-11 0.00000000e+00 2.44577592e-13
1.09780260e+01 1.57479982e-11 2.21578069e-13 0.00000000e+00 1.55264202e-11 0.00000000e+00 2.21578069e-13
1.13454280e+01 1.50104649e-11 2.00741370e-13 0.00000000e+00 1.48097235e-11 0.00000000e+00 2.00741370e-13
1.17251259e+01 1.45712179e-11 1.81864106e-13 0.00000000e+00 1.43893538e-11 0.00000000e+00 1.81864106e-13
1.21175312e+01 1.41729297e-11 1.64762018e-13 0.00000000e+00 1.40081677e-11 0.00000000e+00 1.64762018e-13
1.25230691e+01 1.36938784e-11 1.49268171e-13 0.00000000e+00 1.35446103e-11 0.00000000e+00 1.49268171e-13
1.29421791e+01 1.33260389e-11 1.35231331e-13 0.00000000e+00 1.31908075e-11 0.00000000e+00 1.35231331e-13
1.33753155e+01 1.30700054e-11 1.22514483e-13 0.00000000e+00 1.29474909e-11 0.00000000e+00 1.22514483e-13
1.38229477e+01 1.29119286e-11 1.10993499e-13 0.00000000e+00 1.28009351e-11 0.00000000e+00 1.10993499e-13
1.42855609e+01 1.28638977e-11 1.00555922e-13 0.00000000e+00 1.27633418e-11 0.00000000e+00 1.00555922e-13
1.47636563e+01 1.29794350e-11 9.10998706e-14 0.00000000e+00 1.28883351e-11 0.00000000e+00 9.10998706e-14
1.52577522e+01 1.32844537e-11 8.25330452e-14 0.00000000e+00 1.32019206e-11 0.00000000e+00 8.25330452e-14
1.57683840e+01 1.36106095e-11 7.47718247e-14 0.00000000e+00 1.35358377e-11 0.00000000e+00 7.47718247e-14
1.62961051e+01 1.38777773e-11 6.77404517e-14 0.00000000e+00 1.38100369e-11 0.00000000e+00 6.77404517e-14
1.68414875e+01 1.41255150e-11 6.13702932e-14 0.00000000e+00 1.40641447e-11 0.00000000e+00 6.13702932e-14
1.74051222e+01 1.43210322e-11 5.55991699e-14 0.00000000e+00 1.42654330e-11 0.00000000e+00 5.55991699e-14
1.79876201e+01 1.44349179e-11 5.03707500e-14 0.00000000e+00 1.43845471e-11 0.00000000e+00 5.03707500e-14
1.85896125e+01 1.44053146e-11 4.56339988e-14 0.00000000e+00 1.43596806e-11 0.00000000e+00 4.56339988e-14
1.92117518e+01 1.42603734e-11 4.13426810e-14 0.00000000e+00 1.42190308e-11 0.00000000e+00 4.13426810e-14
1.98547123e+01 1.40756299e-11 3.74549090e-14 0.00000000e+00 1.40381750e-11 0.00000000e+00 3.74549090e-14
2.05191907e+01 1.38608142e-11 3.39327342e-14 0.00000000e+00 1.38268815e-11 0.00000000e+00 3.39327342e-14
2.12059073e+01 1.35958110e-11 3.07417768e-14 0.00000000e+00 1.35650692e-11 0.00000000e+00 3.07417768e-14
2.19156062e+01 1.32679643e-11 2.78508898e-14 0.00000000e+00 1.32401134e-11 0.00000000e+00 2.78508898e-14
2.26490567e+01 1.30024869e-11 2.52318552e-14 0.00000000e+00 1.29772550e-11 0.00000000e+00 2.52318552e-14
2.34070535e+01 1.27230716e-11 2.28591087e-14 0.00000000e+00 1.27002125e-11 0.00000000e+00 2.28591087e-14
2.41904183e+01 1.23546881e-11 2.07094900e-14 0.00000000e+00 1.23339786e-11 0.00000000e+00 2.07094900e-14
2.50000000e+01 1.20494115e-11 1.87620165e-14 0.00000000e+00 1.20306495e-11 0.00000000e+00 1.87620165e-14
2.75422870e+01 1.08909976e-11 1.40313526e-14 0.00000000e+00 1.08769663e-11 0.00000000e+00 1.40313526e-14
3.16227766e+01 9.01271900e-12 9.27042274e-15 0.00000000e+00 9.00344857e-12 0.00000000e+00 9.27042274e-15
3.63078055e+01 7.01816235e-12 6.12490756e-15 0.00000000e+00 7.01203744e-12 0.00000000e+00 6.12490756e-15
4.16869383e+01 5.11555095e-12 4.04668630e-15 0.00000000e+00 5.11150426e-12 0.00000000e+00 4.04668630e-15
4.78630092e+01 3.48368080e-12 2.67361912e-15 0.00000000e+00 3.48100718e-12 0.00000000e+00 2.67361912e-15
5.49540874e+01 2.23685409e-12 1.76644264e-15 0.00000000e+00 2.23508765e-12 0.00000000e+00 1.76644264e-15
6.30957344e+01 1.36882957e-12 1.16707708e-15 0.00000000e+00 1.36766249e-12 0.00000000e+00 1.16707708e-15
7.24435960e+01 8.03383140e-13 7.71080178e-16 0.00000000e+00 8.02612060e-13 0.00000000e+00 7.71080178e-16
8.31763771e+01 4.57267181e-13 5.09447621e-16 0.00000000e+00 4.56757734e-13 0.00000000e+00 5.09447621e-16
9.54992586e+01 2.54952514e-13 3.36588705e-16 0.00000000e+00 2.54615925e-13 0.00000000e+00 3.36588705e-16
1.09647820e+02 1.39733360e-13 2.22381952e-16 0.00000000e+00 1.39510978e-13 0.00000000e+00 2.22381952e-16
1.25892541e+02 7.64833511e-14 1.46926299e-16 0.00000000e+00 7.63364248e-14 0.00000000e+00 1.46926299e-16
1.44543977e+02 4.16503727e-14 9.70732430e-17 0.00000000e+00 4.15532995e-14 0.00000000e+00 9.70732430e-17
1.65958691e+02 2.16272715e-14 6.41356556e-17 0.00000000e+00 2.15631359e-14 0.00000000e+00 6.41356556e-17
1.90546072e+02 1.12457904e-14 4.23740075e-17 0.00000000e+00 1.12034164e-14 0.00000000e+00 4.23740075e-17
2.18776162e+02 5.84065079e-15 2.79962291e-17 0.00000000e+00 5.81265456e-15 0.00000000e+00 2.79962291e-17
2.51188643e+02 3.02556118e-15 1.84969251e-17 0.00000000e+00 3.00706426e-15 0.00000000e+00 1.84969251e-17
2.88403150e+02 1.56122972e-15 1.22207972e-17 0.00000000e+00 1.54900893e-15 0.00000000e+00 1.22207972e-17
3.31131121e+02 8.04273317e-16 8.07420067e-18 0.00000000e+00 7.96199116e-16 0.00000000e+00 8.07420067e-18
3.80189396e+02 4.13219866e-16 5.33457148e-18 0.00000000e+00 4.07885295e-16 0.00000000e+00 5.33457148e-18
4.36515832e+02 2.12044814e-16 3.52451642e-18 0.00000000e+00 2.08520297e-16 0.00000000e+00 3.52451642e-18
5.01187234e+02 1.08682512e-16 2.32862491e-18 0.00000000e+00 1.06353887e-16 0.00000000e+00 2.32862491e-18
5.75439937e+02 5.56798162e-17 1.53850722e-18 0.00000000e+00 5.41413090e-17 0.00000000e+00 1.53850722e-18
6.60693448e+02 2.85337596e-17 1.01648164e-18 0.00000000e+00 2.75172779e-17 0.00000000e+00 1.01648164e-18
7.58577575e+02 1.46376993e-17 6.71582760e-19 0.00000000e+00 1.39661165e-17 0.00000000e+00 6.71582760e-19
8.70963590e+02 7.52158263e-18 4.43710329e-19 0.00000000e+00 7.07787230e-18 0.00000000e+00 4.43710329e-19
1.00000000e+03 3.58197494e-18 0.00000000e+00 0.00000000e+00 3.58197494e-18 0.00000000e+00 0.00000000e+00
