# column 1: lambda (micron)
# column 2: total flux; lambda*F_lambda (W/m2)
# column 3: direct stellar flux; lambda*F_lambda (W/m2)
# column 4: scattered stellar flux; lambda*F_lambda (W/m2)
# column 5: total dust emission flux; lambda*F_lambda (W/m2)
# column 6: dust emission scattered flux; lambda*F_lambda (W/m2)
# column 7: transparent flux; lambda*F_lambda (W/m2)
1.00000000e-03 5.25637262e-13 5.25636674e-13 5.88401973e-19 0.00000000e+00 0.00000000e+00 5.25636674e-13
1.14815362e-03 6.20420711e-13 6.20419813e-13 8.97676358e-19 0.00000000e+00 0.00000000e+00 6.20419813e-13
1.31825674e-03 7.32295710e-13 7.32294308e-13 1.40226280e-18 0.00000000e+00 0.00000000e+00 7.32294308e-13
1.51356125e-03 8.64344444e-13 8.64342083e-13 2.36077347e-18 0.00000000e+00 0.00000000e+00 8.64342083e-13
1.73780083e-03 1.02020505e-12 1.02020080e-12 4.25335601e-18 0.00000000e+00 0.00000000e+00 1.02020080e-12
1.99526231e-03 1.20417141e-12 1.20416405e-12 7.35303828e-18 0.00000000e+00 0.00000000e+00 1.20416405e-12
2.29086765e-03 1.42131241e-12 1.42129968e-12 1.27262009e-17 0.00000000e+00 0.00000000e+00 1.42129968e-12
2.63026799e-03 1.67761285e-12 1.67758934e-12 2.35110945e-17 0.00000000e+00 0.00000000e+00 1.67758934e-12
3.01995172e-03 1.98013683e-12 1.98009332e-12 4.35147171e-17 0.00000000e+00 0.00000000e+00 1.98009332e-12
3.46736850e-03 2.33721917e-12 2.33714500e-12 7.41641051e-17 0.00000000e+00 0.00000000e+00 2.33714500e-12
3.98107171e-03 2.75870050e-12 2.75858048e-12 1.20019709e-16 0.00000000e+00 0.00000000e+00 2.75858048e-12
4.57088190e-03 3.25625767e-12 3.25600946e-12 2.48208134e-16 0.00000000e+00 0.00000000e+00 3.25600946e-12
5.24807460e-03 3.84360535e-12 3.84313516e-12 4.70186375e-16 0.00000000e+00 0.00000000e+00 3.84313516e-12
6.02559586e-03 4.53688006e-12 4.53613173e-12 7.48323326e-16 0.00000000e+00 0.00000000e+00 4.53613173e-12
6.91830971e-03 5.35539119e-12 5.35408989e-12 1.30129919e-15 0.00000000e+00 0.00000000e+00 5.35408989e-12
7.94328235e-03 6.32172627e-12 6.31954278e-12 2.18348699e-15 0.00000000e+00 0.00000000e+00 6.31954278e-12
9.12010839e-03 7.46422991e-12 7.45908676e-12 5.14315345e-15 0.00000000e+00 0.00000000e+00 7.45908676e-12
1.04712855e-02 8.33564140e-12 8.33078048e-12 4.86092084e-15 0.00000000e+00 0.00000000e+00 8.33078048e-12
1.20226443e-02 8.33875796e-12 8.33078048e-12 7.97748406e-15 2.51811042e-312 1.20496491e-313 8.33078048e-12
1.38038426e-02 8.34301050e-12 8.33078048e-12 1.22300243e-14 5.91876131e-273 3.40914825e-274 8.33078048e-12
1.58489319e-02 8.34733538e-12 8.33078048e-12 1.65549010e-14 1.09562899e-238 7.11287707e-240 8.33078048e-12
1.81970086e-02 8.36846976e-12 8.33078048e-12 3.76892858e-14 7.23074190e-209 4.87048510e-210 8.33078048e-12
2.08929613e-02 8.35770406e-12 8.33078048e-12 2.69235804e-14 6.11217368e-183 4.87010980e-184 8.33078048e-12
2.39883292e-02 8.37083671e-12 8.33078048e-12 4.00562306e-14 2.23138057e-160 1.90454549e-161 8.33078048e-12
2.75422870e-02 8.38148346e-12 8.33078048e-12 5.07029871e-14 9.51525603e-141 8.13868698e-142 8.33078048e-12
3.16227766e-02 8.39162618e-12 8.33078048e-12 6.08456999e-14 1.12125674e-123 1.06497747e-124 8.33078048e-12
3.63078055e-02 8.40314409e-12 8.33078048e-12 7.23636148e-14 7.67609936e-109 7.46818657e-110 8.33078048e-12
4.16869383e-02 8.42392230e-12 8.33078048e-12 9.31418272e-14 6.01055339e-96 6.50753844e-97 8.33078048e-12
4.78630092e-02 8.44200249e-12 8.33078048e-12 1.11222015e-13 9.37025980e-85 1.09630527e-85 8.33078048e-12
5.49540874e-02 8.45298797e-12 8.33078048e-12 1.22207495e-13 4.84545937e-75 6.04530110e-76 8.33078048e-12
6.30957344e-02 8.46493159e-12 8.33078048e-12 1.34151110e-13 1.68322478e-66 2.21737719e-67 8.33078048e-12
7.24435960e-02 8.45796518e-12 8.33078048e-12 1.27184701e-13 4.35421868e-59 5.71250383e-60 8.33078048e-12
8.31763771e-02 8.45442806e-12 8.33078048e-12 1.23647582e-13 1.06836540e-52 1.36379930e-53 8.33078048e-12
9.54992586e-02 8.46213182e-12 8.33078048e-12 1.31351341e-13 4.47586402e-47 6.08462853e-48 8.33078048e-12
1.09647820e-01 8.08969965e-12 7.95583672e-12 1.33862936e-13 3.94873980e-42 6.05251635e-43 7.95583672e-12
1.25892541e-01 7.54972059e-12 7.42481883e-12 1.24901758e-13 8.87288096e-38 1.40486838e-38 7.42481883e-12
1.44543977e-01 7.04528292e-12 6.92924411e-12 1.16038806e-13 5.46603976e-34 8.73087019e-35 6.92924411e-12
1.65958691e-01 6.58023121e-12 6.46674687e-12 1.13484342e-13 8.26225642e-31 1.46725700e-31 6.46674687e-12
1.90546072e-01 6.15881641e-12 6.03511933e-12 1.23697082e-13 3.45406771e-28 7.25087831e-29 6.03511933e-12
2.18776162e-01 5.74875950e-12 5.63230107e-12 1.16458438e-13 5.51313463e-26 1.24359157e-26 5.63230107e-12
2.51188643e-01 5.38801067e-12 5.25636919e-12 1.31641479e-13 7.30838436e-24 1.92995945e-24 5.25636919e-12
2.88403150e-01 5.02430050e-12 4.90552916e-12 1.18771346e-13 4.82238516e-22 1.24987659e-22 4.90552916e-12
3.31131121e-01 4.68693565e-12 4.57810618e-12 1.08829449e-13 1.71322894e-20 4.32530192e-21 4.57810618e-12
3.80189396e-01 4.36538021e-12 4.27253728e-12 9.28425628e-14 3.58410707e-19 8.92822103e-20 4.27253728e-12
4.36515832e-01 4.07544042e-12 3.98736380e-12 8.80718813e-14 4.73801900e-18 1.16139293e-18 3.98736380e-12
5.01187234e-01 3.80066186e-12 3.72122441e-12 7.93954188e-14 4.20314300e-17 1.01769410e-17 3.72122441e-12
5.75439937e-01 3.54817135e-12 3.47284869e-12 7.50573617e-14 2.65304607e-16 6.33552241e-17 3.47284869e-12
6.60693448e-01 3.30805917e-12 3.24105097e-12 6.57668079e-14 1.24138699e-15 2.86939133e-16 3.24105097e-12
7.58577575e-01 3.08741784e-12 3.02472476e-12 5.81001110e-14 4.59296972e-15 1.03086752e-15 3.02472476e-12
8.70963590e-01 2.88693586e-12 2.82283739e-12 5.02240653e-14 1.38744017e-14 2.96100092e-15 2.82283739e-12
1.00000000e+00 2.71337121e-12 2.63442513e-12 4.37898207e-14 3.51562573e-14 6.98995162e-15 2.63442513e-12
1.14815362e+00 2.57197539e-12 2.45858859e-12 3.54237096e-14 7.79630921e-14 1.39148879e-14 2.45858859e-12
1.31825674e+00 2.47713014e-12 2.29448837e-12 2.86544891e-14 1.53987282e-13 2.37094264e-14 2.29448837e-12
1.51356125e+00 2.43693486e-12 2.14134114e-12 2.20285444e-14 2.73565172e-13 3.57036344e-14 2.14134114e-12
1.73780083e+00 2.44602910e-12 1.99841583e-12 1.73914370e-14 4.30221832e-13 4.53754463e-14 1.99841583e-12
1.99526231e+00 2.48732203e-12 1.86503017e-12 1.24692495e-14 6.09822607e-13 4.92211598e-14 1.86503017e-12
2.29086765e+00 2.53188662e-12 1.74054743e-12 8.41132987e-15 7.82927867e-13 4.72019948e-14 1.74054743e-12
2.63026799e+00 2.55900178e-12 1.62437337e-12 5.95123200e-15 9.28677180e-13 4.05297804e-14 1.62437337e-12
3.01995172e+00 2.54805825e-12 1.51595343e-12 3.96370051e-15 1.02814112e-12 3.26072799e-14 1.51595343e-12
3.46736850e+00 2.49938874e-12 1.41477006e-12 2.73651521e-15 1.08188217e-12 2.45719705e-14 1.41477006e-12
3.98107171e+00 2.40962109e-12 1.32034025e-12 1.83830911e-15 1.08744254e-12 1.77286609e-14 1.32034025e-12
4.57088190e+00 2.28878865e-12 1.23221321e-12 1.22197353e-15 1.05535346e-12 1.24011676e-14 1.23221321e-12
5.24807460e+00 2.02485458e-12 1.01885146e-12 7.13394369e-16 1.00528973e-12 8.11310032e-15 1.01885146e-12
6.02559586e+00 1.61553388e-12 6.73148485e-13 3.11533039e-16 9.42073860e-13 5.17165786e-15 6.73148485e-13
6.70000000e+00 1.38225894e-12 4.89650796e-13 1.65878883e-16 8.92442262e-13 3.49228678e-15 4.89650796e-13
6.92422916e+00 1.31868636e-12 4.43605145e-13 1.32588375e-16 8.74948630e-13 3.07580590e-15 4.43605145e-13
7.15596261e+00 1.26841564e-12 4.01889522e-13 1.05371766e-16 8.66420750e-13 2.66720784e-15 4.01889522e-13
7.39545150e+00 1.23594840e-12 3.64096743e-13 7.94853380e-17 8.71772172e-13 2.25425923e-15 3.64096743e-13
7.64295536e+00 1.25708616e-12 3.29857910e-13 5.51796474e-17 9.27173066e-13 1.86509055e-15 3.29857910e-13
7.89874245e+00 1.35893326e-12 2.98838820e-13 3.31787366e-17 1.06006127e-12 1.43601466e-15 2.98838820e-13
8.16308998e+00 1.52486113e-12 2.70736695e-13 1.87608949e-17 1.25410568e-12 1.10066833e-15 2.70736695e-13
8.43628443e+00 1.77264242e-12 2.45277229e-13 1.07624850e-17 1.52735443e-12 8.26862267e-16 2.45277229e-13
8.71862190e+00 1.94315406e-12 2.22211915e-13 6.86499897e-18 1.72093528e-12 6.53067970e-16 2.22211915e-13
9.01040836e+00 2.13170235e-12 2.01315610e-13 4.34080083e-18 1.93038240e-12 5.08424331e-16 2.01315610e-13
9.31196005e+00 2.27976497e-12 1.82384346e-13 0.00000000e+00 2.09738062e-12 0.00000000e+00 1.82384346e-13
9.62360379e+00 2.25765590e-12 1.65233336e-13 0.00000000e+00 2.09242256e-12 0.00000000e+00 1.65233336e-13
9.94567731e+00 2.12500219e-12 1.49695167e-13 0.00000000e+00 1.97530702e-12 0.00000000e+00 1.49695167e-13
1.02785297e+01 1.94950104e-12 1.35618173e-13 0.00000000e+00 1.81388287e-12 0.00000000e+00 1.35618173e-13
1.06225216e+01 1.78276414e-12 1.22864947e-13 0.00000000e+00 1.65989920e-12 0.00000000e+00 1.22864947e-13
1.09780260e+01 1.59755918e-12 1.11311006e-13 0.00000000e+00 1.48624817e-12 0.00000000e+00 1.11311006e-13
1.13454280e+01 1.44300553e-12 1.00843571e-13 0.00000000e+00 1.34216196e-12 0.00000000e+00 1.00843571e-13
1.17251259e+01 1.30721548e-12 9.13604705e-14 0.00000000e+00 1.21585501e-12 0.00000000e+00 9.13604705e-14
1.21175312e+01 1.19452888e-12 8.27691389e-14 0.00000000e+00 1.11175974e-12 0.00000000e+00 8.27691389e-14
1.25230691e+01 1.09119655e-12 7.49857166e-14 0.00000000e+00 1.01621084e-12 0.00000000e+00 7.49857166e-14
1.29421791e+01 1.00625577e-12 6.79342298e-14 0.00000000e+00 9.38321538e-13 0.00000000e+00 6.79342298e-14
1.33753155e+01 9.34561646e-13 6.15458488e-14 0.00000000e+00 8.73015797e-13 0.00000000e+00 6.15458488e-14
1.38229477e+01 8.93458199e-13 5.57582167e-14 0.00000000e+00 8.37699982e-13 0.00000000e+00 5.57582167e-14
1.42855609e+01 8.69320241e-13 5.05148403e-14 0.00000000e+00 8.18805401e-13 0.00000000e+00 5.05148403e-14
1.47636563e+01 8.81826340e-13 4.57645392e-14 0.00000000e+00 8.36061801e-13 0.00000000e+00 4.57645392e-14
1.52577522e+01 9.02035346e-13 4.14609457e-14 0.00000000e+00 8.60574400e-13 0.00000000e+00 4.14609457e-14
1.57683840e+01 9.36571457e-13 3.75620523e-14 0.00000000e+00 8.99009405e-13 0.00000000e+00 3.75620523e-14
1.62961051e+01 9.71180940e-13 3.40298020e-14 0.00000000e+00 9.37151138e-13 0.00000000e+00 3.40298020e-14
1.68414875e+01 1.00309884e-12 3.08297166e-14 0.00000000e+00 9.72269126e-13 0.00000000e+00 3.08297166e-14
1.74051222e+01 1.02933382e-12 2.79305599e-14 0.00000000e+00 1.00140326e-12 0.00000000e+00 2.79305599e-14
1.79876201e+01 1.04726042e-12 2.53040334e-14 0.00000000e+00 1.02195639e-12 0.00000000e+00 2.53040334e-14
1.85896125e+01 1.05219447e-12 2.29244994e-14 0.00000000e+00 1.02926998e-12 0.00000000e+00 2.29244994e-14
1.92117518e+01 1.04141353e-12 2.07687314e-14 0.00000000e+00 1.02064480e-12 0.00000000e+00 2.07687314e-14
1.98547123e+01 1.02432014e-12 1.88156870e-14 0.00000000e+00 1.00550446e-12 0.00000000e+00 1.88156870e-14
2.05191907e+01 1.00694061e-12 1.70463024e-14 0.00000000e+00 9.89894311e-13 0.00000000e+00 1.70463024e-14
2.12059073e+01 9.89008533e-13 1.54433068e-14 0.00000000e+00 9.73565226e-13 0.00000000e+00 1.54433068e-14
2.19156062e+01 9.74743092e-13 1.39910532e-14 0.00000000e+00 9.60752039e-13 0.00000000e+00 1.39910532e-14
2.26490567e+01 9.59444764e-13 1.26753663e-14 0.00000000e+00 9.46769398e-13 0.00000000e+00 1.26753663e-14
2.34070535e+01 9.52911967e-13 1.14834036e-14 0.00000000e+00 9.41428563e-13 0.00000000e+00 1.14834036e-14
2.41904183e+01 9.43675558e-13 1.04035303e-14 0.00000000e+00 9.33272028e-13 0.00000000e+00 1.04035303e-14
2.50000000e+01 9.33398565e-13 9.42520591e-15 0.00000000e+00 9.23973359e-13 0.00000000e+00 9.42520591e-15
2.75422870e+01 9.08528219e-13 7.04872996e-15 0.00000000e+00 9.01479489e-13 0.00000000e+00 7.04872996e-15
3.16227766e+01 8.56679491e-13 4.65704970e-15 0.00000000e+00 8.52022442e-13 0.00000000e+00 4.65704970e-15
3.63078055e+01 7.72510385e-13 3.07688223e-15 0.00000000e+00 7.69433503e-13 0.00000000e+00 3.07688223e-15
4.16869383e+01 6.54293820e-13 2.03287593e-15 0.00000000e+00 6.52260944e-13 0.00000000e+00 2.03287593e-15
4.78630092e+01 5.19516345e-13 1.34310781e-15 0.00000000e+00 5.18173237e-13 0.00000000e+00 1.34310781e-15
5.49540874e+01 3.87010938e-13 8.87382527e-16 0.00000000e+00 3.86123555e-13 0.00000000e+00 8.87382527e-16
6.30957344e+01 2.71636462e-13 5.86287821e-16 0.00000000e+00 2.71050174e-13 0.00000000e+00 5.86287821e-16
7.24435960e+01 1.81565443e-13 3.87356522e-16 0.00000000e+00 1.81178087e-13 0.00000000e+00 3.87356522e-16
8.31763771e+01 1.16067898e-13 2.55923916e-16 0.00000000e+00 1.15811974e-13 0.00000000e+00 2.55923916e-16
9.54992586e+01 7.16781219e-14 1.69087255e-16 0.00000000e+00 7.15090347e-14 0.00000000e+00 1.69087255e-16
1.09647820e+02 4.29847548e-14 1.11714841e-16 0.00000000e+00 4.28730400e-14 0.00000000e+00 1.11714841e-16
1.25892541e+02 2.54351487e-14 7.38092637e-17 0.00000000e+00 2.53613395e-14 0.00000000e+00 7.38092637e-17
1.44543977e+02 1.48072775e-14 4.87652969e-17 0.00000000e+00 1.47585122e-14 0.00000000e+00 4.87652969e-17
1.65958691e+02 8.16351541e-15 3.22189122e-17 0.00000000e+00 8.13129650e-15 0.00000000e+00 3.22189122e-17
1.90546072e+02 4.46667825e-15 2.12868242e-17 0.00000000e+00 4.44539143e-15 0.00000000e+00 2.12868242e-17
2.18776162e+02 2.42354824e-15 1.40640653e-17 0.00000000e+00 2.40948418e-15 0.00000000e+00 1.40640653e-17
2.51188643e+02 1.30330368e-15 9.29203577e-18 0.00000000e+00 1.29401165e-15 0.00000000e+00 9.29203577e-18
2.88403150e+02 6.94621699e-16 6.13918715e-18 0.00000000e+00 6.88482512e-16 0.00000000e+00 6.13918715e-18
3.31131121e+02 3.67846007e-16 4.05612073e-18 0.00000000e+00 3.63789886e-16 0.00000000e+00 4.05612073e-18
3.80189396e+02 1.93540010e-16 2.67985239e-18 0.00000000e+00 1.90860158e-16 0.00000000e+00 2.67985239e-18
4.36515832e+02 1.01357775e-16 1.77056092e-18 0.00000000e+00 9.95872137e-17 0.00000000e+00 1.77056092e-18
5.01187234e+02 5.28672265e-17 1.16979800e-18 0.00000000e+00 5.16974285e-17 0.00000000e+00 1.16979800e-18
5.75439937e+02 2.74934934e-17 7.72877871e-19 0.00000000e+00 2.67206156e-17 0.00000000e+00 7.72877871e-19
6.60693448e+02 1.42709173e-17 5.10635346e-19 0.00000000e+00 1.37602820e-17 0.00000000e+00 5.10635346e-19
7.58577575e+02 7.40082474e-18 3.37373427e-19 0.00000000e+00 7.06345131e-18 0.00000000e+00 3.37373427e-19
8.70963590e+02 3.83784051e-18 2.22900413e-19 0.00000000e+00 3.61494010e-18 0.00000000e+00 2.22900413e-19
1.00000000e+03 1.84504095e-18 0.00000000e+00 0.00000000e+00 1.84504095e-18 0.00000000e+00 0.00000000e+00
