# column 1: lambda (micron)
# column 2: total flux; lambda*F_lambda (W/m2)
# column 3: direct stellar flux; lambda*F_lambda (W/m2)
# column 4: scattered stellar flux; lambda*F_lambda (W/m2)
# column 5: total dust emission flux; lambda*F_lambda (W/m2)
# column 6: dust emission scattered flux; lambda*F_lambda (W/m2)
# column 7: transparent flux; lambda*F_lambda (W/m2)
1.00000000e-03 6.93997998e-13 6.93993746e-13 4.25197093e-18 0.00000000e+00 0.00000000e+00 6.93993746e-13
1.14815362e-03 8.19142120e-13 8.19135139e-13 6.98077043e-18 0.00000000e+00 0.00000000e+00 8.19135139e-13
1.31825674e-03 9.66852805e-13 9.66842108e-13 1.06973685e-17 0.00000000e+00 0.00000000e+00 9.66842108e-13
1.51356125e-03 1.14120114e-12 1.14118369e-12 1.74498925e-17 0.00000000e+00 0.00000000e+00 1.14118369e-12
1.73780083e-03 1.34699435e-12 1.34696266e-12 3.16885636e-17 0.00000000e+00 0.00000000e+00 1.34696266e-12
1.99526231e-03 1.58990499e-12 1.58984782e-12 5.71635226e-17 0.00000000e+00 0.00000000e+00 1.58984782e-12
2.29086765e-03 1.87661965e-12 1.87653019e-12 8.94604986e-17 0.00000000e+00 0.00000000e+00 1.87653019e-12
2.63026799e-03 2.21509124e-12 2.21490731e-12 1.83930456e-16 0.00000000e+00 0.00000000e+00 2.21490731e-12
3.01995172e-03 2.61461804e-12 2.61430080e-12 3.17233857e-16 0.00000000e+00 0.00000000e+00 2.61430080e-12
3.46736850e-03 3.08625449e-12 3.08571319e-12 5.41301984e-16 0.00000000e+00 0.00000000e+00 3.08571319e-12
3.98107171e-03 3.64300713e-12 3.64213095e-12 8.76181030e-16 0.00000000e+00 0.00000000e+00 3.64213095e-12
4.57088190e-03 4.30083225e-12 4.29888232e-12 1.94992941e-15 0.00000000e+00 0.00000000e+00 4.29888232e-12
5.24807460e-03 5.07733614e-12 5.07405951e-12 3.27663271e-15 0.00000000e+00 0.00000000e+00 5.07405951e-12
6.02559586e-03 5.99578261e-12 5.98901715e-12 6.76545902e-15 0.00000000e+00 0.00000000e+00 5.98901715e-12
6.91830971e-03 7.07870308e-12 7.06896053e-12 9.74255188e-15 0.00000000e+00 0.00000000e+00 7.06896053e-12
7.94328235e-03 8.36198562e-12 8.34363998e-12 1.83456356e-14 1.11387100e-303 1.01458067e-304 8.34363998e-12
9.12010839e-03 9.87532185e-12 9.84817045e-12 2.71514032e-14 5.46575288e-265 9.49024184e-266 9.84817045e-12
1.04712855e-02 1.10364914e-11 1.09990604e-11 3.74309209e-14 2.31729302e-231 3.67814335e-232 1.09990604e-11
1.20226443e-02 1.10563520e-11 1.09990604e-11 5.72916029e-14 3.80239783e-202 6.95607908e-203 1.09990604e-11
1.38038426e-02 1.10905247e-11 1.09990604e-11 9.14642704e-14 1.05346628e-176 1.96860657e-177 1.09990604e-11
1.58489319e-02 1.11118086e-11 1.09990604e-11 1.12748196e-13 1.40335915e-154 2.39111812e-155 1.09990604e-11
1.81970086e-02 1.11528618e-11 1.09990604e-11 1.53801309e-13 2.45960941e-135 3.74597453e-136 1.09990604e-11
2.08929613e-02 1.12388052e-11 1.09990604e-11 2.39744761e-13 1.29024959e-118 2.01043728e-119 1.09990604e-11
2.39883292e-02 1.12720040e-11 1.09990604e-11 2.72943537e-13 4.53985852e-104 7.22034660e-105 1.09990604e-11
2.75422870e-02 1.13188563e-11 1.09990604e-11 3.19795874e-13 1.99839878e-91 3.05464548e-92 1.09990604e-11
3.16227766e-02 1.13437963e-11 1.09990604e-11 3.44735851e-13 1.88016648e-80 2.43472475e-81 1.09990604e-11
3.63078055e-02 1.13469833e-11 1.09990604e-11 3.47922821e-13 6.40075388e-71 7.59502509e-72 1.09990604e-11
4.16869383e-02 1.13944210e-11 1.09990604e-11 3.95360577e-13 1.20762431e-62 1.39485714e-63 1.09990604e-11
4.78630092e-02 1.13903220e-11 1.09990604e-11 3.91261544e-13 1.75526086e-55 1.84916902e-56 1.09990604e-11
5.49540874e-02 1.13853175e-11 1.09990604e-11 3.86257049e-13 2.78944735e-49 2.77533386e-50 1.09990604e-11
6.30957344e-02 1.13446846e-11 1.09990604e-11 3.45624133e-13 8.28084774e-44 7.83101212e-45 1.09990604e-11
7.24435960e-02 1.12710711e-11 1.09990604e-11 2.72010696e-13 4.42879872e-39 3.69307746e-40 1.09990604e-11
8.31763771e-02 1.12663261e-11 1.09990604e-11 2.67265685e-13 4.56311254e-35 3.64740920e-36 1.09990604e-11
9.54992586e-02 1.12730878e-11 1.09990604e-11 2.74027383e-13 1.31804330e-31 1.09421815e-32 1.09990604e-11
1.09647820e-01 1.08021595e-11 1.05040253e-11 2.98134210e-13 1.19697004e-28 1.09544597e-29 1.05040253e-11
1.25892541e-01 1.01215816e-11 9.80292679e-12 3.18654770e-13 4.16528291e-26 3.98556717e-27 9.80292679e-12
1.44543977e-01 9.46260347e-12 9.14862359e-12 3.13979880e-13 6.04049838e-24 5.85993669e-25 9.14862359e-12
1.65958691e-01 8.85856633e-12 8.53799231e-12 3.20574020e-13 3.21053454e-22 3.43772852e-23 8.53799231e-12
1.90546072e-01 8.28762808e-12 7.96811805e-12 3.19510031e-13 6.63889410e-21 7.73457289e-22 7.96811805e-12
2.18776162e-01 7.71633235e-12 7.43628044e-12 2.80051840e-13 7.44897367e-20 8.48283725e-21 7.43628044e-12
2.51188643e-01 7.27006089e-12 6.93994070e-12 3.30119208e-13 9.82516230e-19 1.34499416e-19 6.93994070e-12
2.88403150e-01 6.79433813e-12 6.47672950e-12 3.17599993e-13 8.63195142e-18 1.18000644e-18 6.47672950e-12
3.31131121e-01 6.34377141e-12 6.04443567e-12 2.99284132e-13 5.16115730e-17 6.96737584e-18 6.04443567e-12
3.80189396e-01 5.92286402e-12 5.64099558e-12 2.81645390e-13 2.23051122e-16 2.94454058e-17 5.64099558e-12
4.36515832e-01 5.52637875e-12 5.26448339e-12 2.61157406e-13 7.37953957e-16 9.71962320e-17 5.26448339e-12
5.01187234e-01 5.15290110e-12 4.91310176e-12 2.37823233e-13 1.97610457e-15 2.69440349e-16 4.91310176e-12
5.75439937e-01 4.80784137e-12 4.58517335e-12 2.17958330e-13 4.70969121e-15 7.21686046e-16 4.58517335e-12
6.60693448e-01 4.48810503e-12 4.27913275e-12 1.97972799e-13 1.09994789e-14 2.05502985e-15 4.27913275e-12
7.58577575e-01 4.19900305e-12 3.99351904e-12 1.78143033e-13 2.73409801e-14 6.13395957e-15 3.99351904e-12
8.70963590e-01 3.95106594e-12 3.72696882e-12 1.55389699e-13 6.87074228e-14 1.68302852e-14 3.72696882e-12
1.00000000e+00 3.77265508e-12 3.47820968e-12 1.31576899e-13 1.62868501e-13 3.96363624e-14 3.47820968e-12
1.14815362e+00 3.71127324e-12 3.24605414e-12 1.09199749e-13 3.56019343e-13 8.06726316e-14 3.24605414e-12
1.31825674e+00 3.82812106e-12 3.02939399e-12 8.77599159e-14 7.10967153e-13 1.43284834e-13 3.02939399e-12
1.51356125e+00 4.18083464e-12 2.82719497e-12 6.75983259e-14 1.28604135e-12 2.22468213e-13 2.82719497e-12
1.73780083e+00 4.76145583e-12 2.63849186e-12 5.19468900e-14 2.07101708e-12 2.98076853e-13 2.63849186e-12
1.99526231e+00 5.49480233e-12 2.46238388e-12 3.81304088e-14 2.99428804e-12 3.48614445e-13 2.46238388e-12
2.29086765e+00 6.28225720e-12 2.29803035e-12 2.77139325e-14 3.95651292e-12 3.54742772e-13 2.29803035e-12
2.63026799e+00 6.98016684e-12 2.14464670e-12 1.97292886e-14 4.81579085e-12 3.31808574e-13 2.14464670e-12
3.01995172e+00 7.47492264e-12 2.00150076e-12 1.38992120e-14 5.45952267e-12 2.85079263e-13 2.00150076e-12
3.46736850e+00 7.78346979e-12 1.86790919e-12 9.78478294e-15 5.90577582e-12 2.29755979e-13 1.86790919e-12
3.98107171e+00 7.79469037e-12 1.74323429e-12 6.87101642e-15 6.04458507e-12 1.75948437e-13 1.74323429e-12
4.57088190e+00 7.61310305e-12 1.62688090e-12 4.77063552e-15 5.98145152e-12 1.27494473e-13 1.62688090e-12
5.24807460e+00 7.14981692e-12 1.34518114e-12 2.81356289e-15 5.80182221e-12 8.62163053e-14 1.34518114e-12
6.02559586e+00 6.41624390e-12 8.88752369e-13 1.25928547e-15 5.52623225e-12 5.59258342e-14 8.88752369e-13
6.70000000e+00 5.93577264e-12 6.46481889e-13 6.65949944e-16 5.28862480e-12 3.85224673e-14 6.46481889e-13
6.92422916e+00 5.80493814e-12 5.85688198e-13 5.41864373e-16 5.21870808e-12 3.38649519e-14 5.85688198e-13
7.15596261e+00 5.70574918e-12 5.30611407e-13 4.29312664e-16 5.17470846e-12 2.96530387e-14 5.30611407e-13
7.39545150e+00 5.64429249e-12 4.80713913e-13 3.27423620e-16 5.16325115e-12 2.51040266e-14 4.80713913e-13
7.64295536e+00 5.79034850e-12 4.35508666e-13 2.24531706e-16 5.35461531e-12 2.01864782e-14 4.35508666e-13
7.89874245e+00 6.23229495e-12 3.94554418e-13 1.30479312e-16 5.83761005e-12 1.51857856e-14 3.94554418e-13
8.16308998e+00 6.80023744e-12 3.57451415e-13 7.37575992e-17 6.44271227e-12 1.11299826e-14 3.57451415e-13
8.43628443e+00 7.56553670e-12 3.23837494e-13 3.94472640e-17 7.24165976e-12 7.90113760e-15 3.23837494e-13
8.71862190e+00 8.01008584e-12 2.93384550e-13 2.45238381e-17 7.71667677e-12 6.12449714e-15 2.93384550e-13
9.01040836e+00 8.36309882e-12 2.65795332e-13 1.63681449e-17 8.09728712e-12 4.67026632e-15 2.65795332e-13
9.31196005e+00 8.74324811e-12 2.40800541e-13 0.00000000e+00 8.50244757e-12 0.00000000e+00 2.40800541e-13
9.62360379e+00 8.58764927e-12 2.18156204e-13 0.00000000e+00 8.36949307e-12 0.00000000e+00 2.18156204e-13
9.94567731e+00 8.09068078e-12 1.97641289e-13 0.00000000e+00 7.89303949e-12 0.00000000e+00 1.97641289e-13
1.02785297e+01 7.68317185e-12 1.79055550e-13 0.00000000e+00 7.50411630e-12 0.00000000e+00 1.79055550e-13
1.06225216e+01 7.21000039e-12 1.62217572e-13 0.00000000e+00 7.04778282e-12 0.00000000e+00 1.62217572e-13
1.09780260e+01 6.73265094e-12 1.46962999e-13 0.00000000e+00 6.58568794e-12 0.00000000e+00 1.46962999e-13
1.13454280e+01 6.32872604e-12 1.33142932e-13 0.00000000e+00 6.19558311e-12 0.00000000e+00 1.33142932e-13
1.17251259e+01 5.98319293e-12 1.20622472e-13 0.00000000e+00 5.86257046e-12 0.00000000e+00 1.20622472e-13
1.21175312e+01 5.72302822e-12 1.09279408e-13 0.00000000e+00 5.61374881e-12 0.00000000e+00 1.09279408e-13
1.25230691e+01 5.39864114e-12 9.90030204e-14 0.00000000e+00 5.29963812e-12 0.00000000e+00 9.90030204e-14
1.29421791e+01 5.23583361e-12 8.96930008e-14 0.00000000e+00 5.14614061e-12 0.00000000e+00 8.96930008e-14
1.33753155e+01 5.01681373e-12 8.12584743e-14 0.00000000e+00 4.93555525e-12 0.00000000e+00 8.12584743e-14
1.38229477e+01 4.92440635e-12 7.36171115e-14 0.00000000e+00 4.85078924e-12 0.00000000e+00 7.36171115e-14
1.42855609e+01 4.87836117e-12 6.66943252e-14 0.00000000e+00 4.81166685e-12 0.00000000e+00 6.66943252e-14
1.47636563e+01 4.96705778e-12 6.04225420e-14 0.00000000e+00 4.90663524e-12 0.00000000e+00 6.04225420e-14
1.52577522e+01 5.00899876e-12 5.47405431e-14 0.00000000e+00 4.95425822e-12 0.00000000e+00 5.47405431e-14
1.57683840e+01 5.16260637e-12 4.95928665e-14 0.00000000e+00 5.11301350e-12 0.00000000e+00 4.95928665e-14
1.62961051e+01 5.27893971e-12 4.49292657e-14 0.00000000e+00 5.23401044e-12 0.00000000e+00 4.49292657e-14
1.68414875e+01 5.36394290e-12 4.07042194e-14 0.00000000e+00 5.32323868e-12 0.00000000e+00 4.07042194e-14
1.74051222e+01 5.45824085e-12 3.68764869e-14 0.00000000e+00 5.42136436e-12 0.00000000e+00 3.68764869e-14
1.79876201e+01 5.52187022e-12 3.34087056e-14 0.00000000e+00 5.48846151e-12 0.00000000e+00 3.34087056e-14
1.85896125e+01 5.52639149e-12 3.02670267e-14 0.00000000e+00 5.49612447e-12 0.00000000e+00 3.02670267e-14
1.92117518e+01 5.54979066e-12 2.74207841e-14 0.00000000e+00 5.52236987e-12 0.00000000e+00 2.74207841e-14
1.98547123e+01 5.52557807e-12 2.48421957e-14 0.00000000e+00 5.50073588e-12 0.00000000e+00 2.48421957e-14
2.05191907e+01 5.48883946e-12 2.25060919e-14 0.00000000e+00 5.46633337e-12 0.00000000e+00 2.25060919e-14
2.12059073e+01 5.43849472e-12 2.03896700e-14 0.00000000e+00 5.41810505e-12 0.00000000e+00 2.03896700e-14
2.19156062e+01 5.38842416e-12 1.84722717e-14 0.00000000e+00 5.36995189e-12 0.00000000e+00 1.84722717e-14
2.26490567e+01 5.31744700e-12 1.67351811e-14 0.00000000e+00 5.30071182e-12 0.00000000e+00 1.67351811e-14
2.34070535e+01 5.25004874e-12 1.51614426e-14 0.00000000e+00 5.23488730e-12 0.00000000e+00 1.51614426e-14
2.41904183e+01 5.17495461e-12 1.37356949e-14 0.00000000e+00 5.16121892e-12 0.00000000e+00 1.37356949e-14
2.50000000e+01 5.11305325e-12 1.24440213e-14 0.00000000e+00 5.10060923e-12 0.00000000e+00 1.24440213e-14
2.75422870e+01 4.78268734e-12 9.30637977e-15 0.00000000e+00 4.77338096e-12 0.00000000e+00 9.30637977e-15
3.16227766e+01 4.21169767e-12 6.14866414e-15 0.00000000e+00 4.20554901e-12 0.00000000e+00 6.14866414e-15
3.63078055e+01 3.45177416e-12 4.06238211e-15 0.00000000e+00 3.44771177e-12 0.00000000e+00 4.06238211e-15
4.16869383e+01 2.64589521e-12 2.68398924e-15 0.00000000e+00 2.64321123e-12 0.00000000e+00 2.68398924e-15
4.78630092e+01 1.88727261e-12 1.77329411e-15 0.00000000e+00 1.88549932e-12 0.00000000e+00 1.77329411e-15
5.49540874e+01 1.25715748e-12 1.17160380e-15 0.00000000e+00 1.25598587e-12 0.00000000e+00 1.17160380e-15
6.30957344e+01 7.95070430e-13 7.74070953e-16 0.00000000e+00 7.94296359e-13 0.00000000e+00 7.74070953e-16
7.24435960e+01 4.81331404e-13 5.11423607e-16 0.00000000e+00 4.80819980e-13 0.00000000e+00 5.11423607e-16
8.31763771e+01 2.81675351e-13 3.37894226e-16 0.00000000e+00 2.81337457e-13 0.00000000e+00 3.37894226e-16
9.54992586e+01 1.60528250e-13 2.23244502e-16 0.00000000e+00 1.60305006e-13 0.00000000e+00 2.23244502e-16
1.09647820e+02 8.97001798e-14 1.47496179e-16 0.00000000e+00 8.95526837e-14 0.00000000e+00 1.47496179e-16
1.25892541e+02 4.99703728e-14 9.74497594e-17 0.00000000e+00 4.98729230e-14 0.00000000e+00 9.74497594e-17
1.44543977e+02 2.75870725e-14 6.43844175e-17 0.00000000e+00 2.75226880e-14 0.00000000e+00 6.43844175e-17
1.65958691e+02 1.45115498e-14 4.25383628e-17 0.00000000e+00 1.44690114e-14 0.00000000e+00 4.25383628e-17
1.90546072e+02 7.62772800e-15 2.81048176e-17 0.00000000e+00 7.59962318e-15 0.00000000e+00 2.81048176e-17
2.18776162e+02 3.99854407e-15 1.85686688e-17 0.00000000e+00 3.97997540e-15 0.00000000e+00 1.85686688e-17
2.51188643e+02 2.08784647e-15 1.22681978e-17 0.00000000e+00 2.07557828e-15 0.00000000e+00 1.22681978e-17
2.88403150e+02 1.08481447e-15 8.10551794e-18 0.00000000e+00 1.07670895e-15 0.00000000e+00 8.10551794e-18
3.31131121e+02 5.62138343e-16 5.35526259e-18 0.00000000e+00 5.56783081e-16 0.00000000e+00 5.35526259e-18
3.80189396e+02 2.90263509e-16 3.53818691e-18 0.00000000e+00 2.86725322e-16 0.00000000e+00 3.53818691e-18
4.36515832e+02 1.49570763e-16 2.33765691e-18 0.00000000e+00 1.47233106e-16 0.00000000e+00 2.33765691e-18
5.01187234e+02 7.69280020e-17 1.54447460e-18 0.00000000e+00 7.53835274e-17 0.00000000e+00 1.54447460e-18
5.75439937e+02 3.95251678e-17 1.02042425e-18 0.00000000e+00 3.85047436e-17 0.00000000e+00 1.02042425e-18
6.60693448e+02 2.03010500e-17 6.74187617e-19 0.00000000e+00 1.96268623e-17 0.00000000e+00 6.74187617e-19
7.58577575e+02 1.04316688e-17 4.45431341e-19 0.00000000e+00 9.98623748e-18 0.00000000e+00 4.45431341e-19
8.70963590e+02 5.36619256e-18 2.94293569e-19 0.00000000e+00 5.07189899e-18 0.00000000e+00 2.94293569e-19
1.00000000e+03 2.57166079e-18 0.00000000e+00 0.00000000e+00 2.57166079e-18 0.00000000e+00 0.00000000e+00
