# column 1: lambda (micron)
# column 2: total flux; lambda*F_lambda (W/m2)
# column 3: direct stellar flux; lambda*F_lambda (W/m2)
# column 4: scattered stellar flux; lambda*F_lambda (W/m2)
# column 5: total dust emission flux; lambda*F_lambda (W/m2)
# column 6: dust emission scattered flux; lambda*F_lambda (W/m2)
# column 7: transparent flux; lambda*F_lambda (W/m2)
1.00000000e-03 1.07336308e-12 1.07335627e-12 6.80757220e-18 0.00000000e+00 0.00000000e+00 1.07335627e-12
1.14815362e-03 1.26691473e-12 1.26690456e-12 1.01718975e-17 0.00000000e+00 0.00000000e+00 1.26690456e-12
1.31825674e-03 1.49536944e-12 1.49535359e-12 1.58474185e-17 0.00000000e+00 0.00000000e+00 1.49535359e-12
1.51356125e-03 1.76502126e-12 1.76499670e-12 2.45615153e-17 0.00000000e+00 0.00000000e+00 1.76499670e-12
1.73780083e-03 2.08330571e-12 2.08326203e-12 4.36823639e-17 0.00000000e+00 0.00000000e+00 2.08326203e-12
1.99526231e-03 2.45899553e-12 2.45891716e-12 7.83687513e-17 0.00000000e+00 0.00000000e+00 2.45891716e-12
2.29086765e-03 2.90243132e-12 2.90231066e-12 1.20651283e-16 0.00000000e+00 0.00000000e+00 2.90231066e-12
2.63026799e-03 3.42590115e-12 3.42565717e-12 2.43984530e-16 0.00000000e+00 0.00000000e+00 3.42565717e-12
3.01995172e-03 4.04377936e-12 4.04337385e-12 4.05517650e-16 0.00000000e+00 0.00000000e+00 4.04337385e-12
3.46736850e-03 4.77332710e-12 4.77247759e-12 8.49514931e-16 0.00000000e+00 0.00000000e+00 4.77247759e-12
3.98107171e-03 5.63407111e-12 5.63305378e-12 1.01732590e-15 0.00000000e+00 0.00000000e+00 5.63305378e-12
4.57088190e-03 6.65121085e-12 6.64880962e-12 2.40122825e-15 0.00000000e+00 0.00000000e+00 6.64880962e-12
5.24807460e-03 7.85354450e-12 7.84772720e-12 5.81730262e-15 0.00000000e+00 0.00000000e+00 7.84772720e-12
6.02559586e-03 9.27064699e-12 9.26283435e-12 7.81263190e-15 0.00000000e+00 0.00000000e+00 9.26283435e-12
6.91830971e-03 1.09446270e-11 1.09331145e-11 1.15124783e-14 0.00000000e+00 0.00000000e+00 1.09331145e-11
7.94328235e-03 1.29247508e-11 1.29045807e-11 2.01701389e-14 0.00000000e+00 0.00000000e+00 1.29045807e-11
9.12010839e-03 1.53172192e-11 1.52315429e-11 8.56763205e-14 0.00000000e+00 0.00000000e+00 1.52315429e-11
1.04712855e-02 1.71038057e-11 1.70115517e-11 9.22539562e-14 0.00000000e+00 0.00000000e+00 1.70115517e-11
1.20226443e-02 1.71069597e-11 1.70115517e-11 9.54079443e-14 0.00000000e+00 0.00000000e+00 1.70115517e-11
1.38038426e-02 1.71143297e-11 1.70115517e-11 1.02777988e-13 0.00000000e+00 0.00000000e+00 1.70115517e-11
1.58489319e-02 1.71782531e-11 1.70115517e-11 1.66701346e-13 1.57460028e-287 8.01411553e-288 1.70115517e-11
1.81970086e-02 1.72348228e-11 1.70115517e-11 2.23271051e-13 9.29421817e-251 6.12883883e-251 1.70115517e-11
2.08929613e-02 1.72787294e-11 1.70115517e-11 2.67177722e-13 5.11230898e-219 2.94393962e-219 1.70115517e-11
2.39883292e-02 1.73355987e-11 1.70115517e-11 3.24047010e-13 2.69659144e-191 1.54155626e-191 1.70115517e-11
2.75422870e-02 1.74167192e-11 1.70115517e-11 4.05167532e-13 3.35231971e-167 1.78452660e-167 1.70115517e-11
3.16227766e-02 1.74667663e-11 1.70115517e-11 4.55214540e-13 2.98103069e-146 1.48153857e-146 1.70115517e-11
3.63078055e-02 1.74891716e-11 1.70115517e-11 4.77619916e-13 5.64847321e-128 2.90315797e-128 1.70115517e-11
4.16869383e-02 1.75788392e-11 1.70115517e-11 5.67287446e-13 4.41055383e-112 2.38827789e-112 1.70115517e-11
4.78630092e-02 1.75965889e-11 1.70115517e-11 5.85037144e-13 2.54867764e-98 1.36883134e-98 1.70115517e-11
5.49540874e-02 1.75420129e-11 1.70115517e-11 5.30461156e-13 2.42826994e-86 1.35695213e-86 1.70115517e-11
6.30957344e-02 1.74148840e-11 1.70115517e-11 4.03332241e-13 6.31386874e-76 3.46161643e-76 1.70115517e-11
7.24435960e-02 1.72983951e-11 1.70115517e-11 2.86843404e-13 6.60320519e-67 3.41076014e-67 1.70115517e-11
8.31763771e-02 1.72851750e-11 1.70115517e-11 2.73623246e-13 4.81848839e-59 2.33471015e-59 1.70115517e-11
9.54992586e-02 1.72861473e-11 1.70115517e-11 2.74595629e-13 3.09046647e-52 1.46792426e-52 1.70115517e-11
1.09647820e-01 1.65715995e-11 1.62459122e-11 3.25687360e-13 2.86254026e-46 1.49742888e-46 1.62459122e-11
1.25892541e-01 1.55646279e-11 1.51615674e-11 4.03060525e-13 4.15365890e-41 2.16702622e-41 1.51615674e-11
1.44543977e-01 1.45655723e-11 1.41495980e-11 4.15974316e-13 1.17812783e-36 5.91646759e-37 1.41495980e-11
1.65958691e-01 1.36282639e-11 1.32051732e-11 4.23090715e-13 6.46665213e-33 3.31526804e-33 1.32051732e-11
1.90546072e-01 1.27201373e-11 1.23237846e-11 3.96352627e-13 6.44164667e-30 3.45883204e-30 1.23237846e-11
2.18776162e-01 1.17940065e-11 1.15012250e-11 2.92781450e-13 1.91315062e-27 1.01572626e-27 1.15012250e-11
2.51188643e-01 1.10768101e-11 1.07335677e-11 3.43242412e-13 6.51518336e-25 3.64082033e-25 1.07335677e-11
2.88403150e-01 1.03815622e-11 1.00171482e-11 3.64413923e-13 8.67514128e-23 4.66948754e-23 1.00171482e-11
3.31131121e-01 9.71593347e-12 9.34854667e-12 3.67386796e-13 5.67002372e-21 2.95051963e-21 9.34854667e-12
3.80189396e-01 9.06267456e-12 8.72457139e-12 3.38102972e-13 1.97846314e-19 9.91831232e-20 8.72457139e-12
4.36515832e-01 8.46682460e-12 8.14224377e-12 3.24576840e-13 3.98814499e-18 1.88726801e-18 8.14224377e-12
5.01187234e-01 7.89291025e-12 7.59878402e-12 2.94075917e-13 5.03145485e-17 2.22109184e-17 7.59878402e-12
5.75439937e-01 7.35465887e-12 7.09159786e-12 2.62625782e-13 4.35219648e-16 1.77766575e-16 7.09159786e-12
6.60693448e-01 6.85798316e-12 6.61826421e-12 2.36992948e-13 2.72600666e-15 1.04401296e-15 6.61826421e-12
7.58577575e-01 6.38647261e-12 6.17652353e-12 1.97231489e-13 1.27175874e-14 4.46271099e-15 6.17652353e-12
8.70963590e-01 5.97852157e-12 5.76426715e-12 1.67712367e-13 4.65420500e-14 1.45170946e-14 5.76426715e-12
1.00000000e+00 5.66085589e-12 5.37952711e-12 1.38815355e-13 1.42513427e-13 3.89569300e-14 5.37952711e-12
1.14815362e+00 5.50122181e-12 5.02046681e-12 1.08792998e-13 3.71961996e-13 8.58388183e-14 5.02046681e-12
1.31825674e+00 5.61083750e-12 4.68537225e-12 8.38014860e-14 8.41663766e-13 1.60384177e-13 4.68537225e-12
1.51356125e+00 6.10091669e-12 4.37264380e-12 6.50165512e-14 1.66325634e-12 2.62548259e-13 4.37264380e-12
1.73780083e+00 7.03720108e-12 4.08078863e-12 5.03288134e-14 2.90608363e-12 3.74839692e-13 4.08078863e-12
1.99526231e+00 8.37162701e-12 3.80841354e-12 3.81468971e-14 4.52506658e-12 4.62954030e-13 3.80841354e-12
2.29086765e+00 9.89104754e-12 3.55421832e-12 2.85610555e-14 6.30826817e-12 5.15204537e-13 3.55421832e-12
2.63026799e+00 1.14970987e-11 3.31698953e-12 2.13550774e-14 8.15875409e-12 5.32675118e-13 3.31698953e-12
3.01995172e+00 1.28320192e-11 3.09559474e-12 1.59712521e-14 9.72045324e-12 5.12846724e-13 3.09559474e-12
3.46736850e+00 1.41741144e-11 2.88897711e-12 1.19596296e-14 1.12731777e-11 4.75508245e-13 2.88897711e-12
3.98107171e+00 1.54943511e-11 2.69615031e-12 8.89003062e-15 1.27893107e-11 4.34878596e-13 2.69615031e-12
4.57088190e+00 1.66752678e-11 2.51619387e-12 6.65335398e-15 1.41524205e-11 3.73729793e-13 2.51619387e-12
5.24807460e+00 1.76062473e-11 2.08050667e-12 4.15129863e-15 1.55215894e-11 2.97944545e-13 2.08050667e-12
6.02559586e+00 1.81461174e-11 1.37457712e-12 1.98536017e-15 1.67695550e-11 2.26916281e-13 1.37457712e-12
6.70000000e+00 1.86681008e-11 9.99872685e-13 1.10329949e-15 1.76671248e-11 1.73961843e-13 9.99872685e-13
6.92422916e+00 1.87545973e-11 9.05846924e-13 8.95192882e-16 1.78478552e-11 1.58391085e-13 9.05846924e-13
7.15596261e+00 1.89107144e-11 8.20663132e-13 7.23371280e-16 1.80893279e-11 1.41197654e-13 8.20663132e-13
7.39545150e+00 1.89928885e-11 7.43489831e-13 5.45295480e-16 1.82488533e-11 1.20633947e-13 7.43489831e-13
7.64295536e+00 1.90395559e-11 6.73573732e-13 3.51576708e-16 1.83656306e-11 9.40090477e-14 6.73573732e-13
7.89874245e+00 1.89053402e-11 6.10232385e-13 1.91452149e-16 1.82949163e-11 6.41593888e-14 6.10232385e-13
8.16308998e+00 1.88651292e-11 5.52847515e-13 9.68040026e-17 1.83121849e-11 4.16104617e-14 5.52847515e-13
8.43628443e+00 1.88982120e-11 5.00858987e-13 4.78757158e-17 1.83973051e-11 2.66375913e-14 5.00858987e-13
8.71862190e+00 1.92501628e-11 4.53759343e-13 2.89528129e-17 1.87963745e-11 1.96837932e-14 4.53759343e-13
9.01040836e+00 1.93109922e-11 4.11088843e-13 1.79981565e-17 1.88998854e-11 1.45329280e-14 4.11088843e-13
9.31196005e+00 1.93541115e-11 3.72430980e-13 0.00000000e+00 1.89816805e-11 0.00000000e+00 3.72430980e-13
9.62360379e+00 1.93375898e-11 3.37408415e-13 0.00000000e+00 1.90001814e-11 0.00000000e+00 3.37408415e-13
9.94567731e+00 1.93890648e-11 3.05679292e-13 0.00000000e+00 1.90833855e-11 0.00000000e+00 3.05679292e-13
1.02785297e+01 1.90982870e-11 2.76933904e-13 0.00000000e+00 1.88213531e-11 0.00000000e+00 2.76933904e-13
1.06225216e+01 1.92151644e-11 2.50891667e-13 0.00000000e+00 1.89642727e-11 0.00000000e+00 2.50891667e-13
1.09780260e+01 1.91474658e-11 2.27298384e-13 0.00000000e+00 1.89201674e-11 0.00000000e+00 2.27298384e-13
1.13454280e+01 1.92879275e-11 2.05923759e-13 0.00000000e+00 1.90820038e-11 0.00000000e+00 2.05923759e-13
1.17251259e+01 1.94862342e-11 1.86559155e-13 0.00000000e+00 1.92996751e-11 0.00000000e+00 1.86559155e-13
1.21175312e+01 1.93819242e-11 1.69015555e-13 0.00000000e+00 1.92129086e-11 0.00000000e+00 1.69015555e-13
1.25230691e+01 1.96188881e-11 1.53121715e-13 0.00000000e+00 1.94657664e-11 0.00000000e+00 1.53121715e-13
1.29421791e+01 1.98403685e-11 1.38722496e-13 0.00000000e+00 1.97016460e-11 0.00000000e+00 1.38722496e-13
1.33753155e+01 1.96242482e-11 1.25677347e-13 0.00000000e+00 1.94985708e-11 0.00000000e+00 1.25677347e-13
1.38229477e+01 1.95364009e-11 1.13858934e-13 0.00000000e+00 1.94225419e-11 0.00000000e+00 1.13858934e-13
1.42855609e+01 1.93156585e-11 1.03151898e-13 0.00000000e+00 1.92125066e-11 0.00000000e+00 1.03151898e-13
1.47636563e+01 1.92330908e-11 9.34517274e-14 0.00000000e+00 1.91396391e-11 0.00000000e+00 9.34517274e-14
1.52577522e+01 1.89684684e-11 8.46637387e-14 0.00000000e+00 1.88838046e-11 0.00000000e+00 8.46637387e-14
1.57683840e+01 1.87316316e-11 7.67021526e-14 0.00000000e+00 1.86549295e-11 0.00000000e+00 7.67021526e-14
1.62961051e+01 1.84922975e-11 6.94892560e-14 0.00000000e+00 1.84228082e-11 0.00000000e+00 6.94892560e-14
1.68414875e+01 1.83255897e-11 6.29546439e-14 0.00000000e+00 1.82626350e-11 0.00000000e+00 6.29546439e-14
1.74051222e+01 1.78564065e-11 5.70345319e-14 0.00000000e+00 1.77993720e-11 0.00000000e+00 5.70345319e-14
1.79876201e+01 1.76261185e-11 5.16711337e-14 0.00000000e+00 1.75744474e-11 0.00000000e+00 5.16711337e-14
1.85896125e+01 1.71984381e-11 4.68120974e-14 0.00000000e+00 1.71516260e-11 0.00000000e+00 4.68120974e-14
1.92117518e+01 1.67971766e-11 4.24099939e-14 0.00000000e+00 1.67547666e-11 0.00000000e+00 4.24099939e-14
1.98547123e+01 1.64431281e-11 3.84218542e-14 0.00000000e+00 1.64047062e-11 0.00000000e+00 3.84218542e-14
2.05191907e+01 1.60560012e-11 3.48087501e-14 0.00000000e+00 1.60211924e-11 0.00000000e+00 3.48087501e-14
2.12059073e+01 1.55248134e-11 3.15354141e-14 0.00000000e+00 1.54932780e-11 0.00000000e+00 3.15354141e-14
2.19156062e+01 1.49818072e-11 2.85698952e-14 0.00000000e+00 1.49532373e-11 0.00000000e+00 2.85698952e-14
2.26490567e+01 1.43708592e-11 2.58832470e-14 0.00000000e+00 1.43449760e-11 0.00000000e+00 2.58832470e-14
2.34070535e+01 1.40037462e-11 2.34492452e-14 0.00000000e+00 1.39802969e-11 0.00000000e+00 2.34492452e-14
2.41904183e+01 1.33037783e-11 2.12441313e-14 0.00000000e+00 1.32825341e-11 0.00000000e+00 2.12441313e-14
2.50000000e+01 1.28070058e-11 1.92463813e-14 0.00000000e+00 1.27877594e-11 0.00000000e+00 1.92463813e-14
2.75422870e+01 1.11238654e-11 1.43935895e-14 0.00000000e+00 1.11094719e-11 0.00000000e+00 1.43935895e-14
3.16227766e+01 8.74799869e-12 9.50975027e-15 0.00000000e+00 8.73848894e-12 0.00000000e+00 9.50975027e-15
3.63078055e+01 6.54650747e-12 6.28302969e-15 0.00000000e+00 6.54022444e-12 0.00000000e+00 6.28302969e-15
4.16869383e+01 4.66156176e-12 4.15115655e-15 0.00000000e+00 4.65741060e-12 0.00000000e+00 4.15115655e-15
4.78630092e+01 3.14556314e-12 2.74264194e-15 0.00000000e+00 3.14282050e-12 0.00000000e+00 2.74264194e-15
5.49540874e+01 2.01524860e-12 1.81204556e-15 0.00000000e+00 2.01343655e-12 0.00000000e+00 1.81204556e-15
6.30957344e+01 1.23199773e-12 1.19720663e-15 0.00000000e+00 1.23080052e-12 0.00000000e+00 1.19720663e-15
7.24435960e+01 7.22692294e-13 7.90986575e-16 0.00000000e+00 7.21901308e-13 0.00000000e+00 7.90986575e-16
8.31763771e+01 4.10897771e-13 5.22599647e-16 0.00000000e+00 4.10375171e-13 0.00000000e+00 5.22599647e-16
9.54992586e+01 2.28377967e-13 3.45278163e-16 0.00000000e+00 2.28032688e-13 0.00000000e+00 3.45278163e-16
1.09647820e+02 1.24680379e-13 2.28123020e-16 0.00000000e+00 1.24452256e-13 0.00000000e+00 2.28123020e-16
1.25892541e+02 6.77570713e-14 1.50719385e-16 0.00000000e+00 6.76063519e-14 0.00000000e+00 1.50719385e-16
1.44543977e+02 3.66245347e-14 9.95793099e-17 0.00000000e+00 3.65249554e-14 0.00000000e+00 9.95793099e-17
1.65958691e+02 1.89275265e-14 6.57913976e-17 0.00000000e+00 1.88617351e-14 0.00000000e+00 6.57913976e-17
1.90546072e+02 9.78288432e-15 4.34679453e-17 0.00000000e+00 9.73941637e-15 0.00000000e+00 4.34679453e-17
2.18776162e+02 5.05252840e-15 2.87189867e-17 0.00000000e+00 5.02380941e-15 0.00000000e+00 2.87189867e-17
2.51188643e+02 2.60306083e-15 1.89744463e-17 0.00000000e+00 2.58408638e-15 0.00000000e+00 1.89744463e-17
2.88403150e+02 1.33650851e-15 1.25362924e-17 0.00000000e+00 1.32397222e-15 0.00000000e+00 1.25362924e-17
3.31131121e+02 6.85473187e-16 8.28264623e-18 0.00000000e+00 6.77190541e-16 0.00000000e+00 8.28264623e-18
3.80189396e+02 3.50821934e-16 5.47229010e-18 0.00000000e+00 3.45349644e-16 0.00000000e+00 5.47229010e-18
4.36515832e+02 1.79441519e-16 3.61550621e-18 0.00000000e+00 1.75826013e-16 0.00000000e+00 3.61550621e-18
5.01187234e+02 9.17348854e-17 2.38874127e-18 0.00000000e+00 8.93461441e-17 0.00000000e+00 2.38874127e-18
5.75439937e+02 4.69102685e-17 1.57822570e-18 0.00000000e+00 4.53320428e-17 0.00000000e+00 1.57822570e-18
6.60693448e+02 2.40148706e-17 1.04272338e-18 0.00000000e+00 2.29721472e-17 0.00000000e+00 1.04272338e-18
7.58577575e+02 1.23177721e-17 6.88920507e-19 0.00000000e+00 1.16288516e-17 0.00000000e+00 6.88920507e-19
8.70963590e+02 6.33483081e-18 4.55165265e-19 0.00000000e+00 5.87966555e-18 0.00000000e+00 4.55165265e-19
1.00000000e+03 2.96951886e-18 0.00000000e+00 0.00000000e+00 2.96951886e-18 0.00000000e+00 0.00000000e+00
