# column 1: lambda (micron)
# column 2: total flux; lambda*F_lambda (W/m2)
# column 3: direct stellar flux; lambda*F_lambda (W/m2)
# column 4: scattered stellar flux; lambda*F_lambda (W/m2)
# column 5: total dust emission flux; lambda*F_lambda (W/m2)
# column 6: dust emission scattered flux; lambda*F_lambda (W/m2)
# column 7: transparent flux; lambda*F_lambda (W/m2)
1.00000000e-03 8.46397699e-13 8.46390624e-13 7.07451365e-18 0.00000000e+00 0.00000000e+00 8.46529401e-13
1.14815362e-03 9.99054809e-13 9.98959719e-13 9.50895421e-17 0.00000000e+00 0.00000000e+00 9.99176121e-13
1.31825674e-03 1.18018393e-12 1.17902345e-12 1.16047954e-15 0.00000000e+00 0.00000000e+00 1.17934819e-12
1.51356125e-03 1.39161607e-12 1.39155713e-12 5.89441708e-17 0.00000000e+00 0.00000000e+00 1.39200901e-12
1.73780083e-03 1.64272995e-12 1.64247808e-12 2.51870113e-16 0.00000000e+00 0.00000000e+00 1.64301696e-12
1.99526231e-03 1.94047139e-12 1.93844357e-12 2.02782032e-15 0.00000000e+00 0.00000000e+00 1.93928682e-12
2.29086765e-03 2.28827976e-12 2.28792482e-12 3.54938038e-16 0.00000000e+00 0.00000000e+00 2.28898025e-12
2.63026799e-03 2.70112438e-12 2.70023785e-12 8.86534522e-16 0.00000000e+00 0.00000000e+00 2.70173063e-12
3.01995172e-03 3.23102329e-12 3.18672940e-12 4.42938978e-14 0.00000000e+00 0.00000000e+00 3.18890841e-12
3.46736850e-03 3.77401660e-12 3.76090312e-12 1.31134737e-14 0.00000000e+00 0.00000000e+00 3.76393440e-12
3.98107171e-03 4.44601756e-12 4.43855422e-12 7.46334030e-15 0.00000000e+00 0.00000000e+00 4.44264945e-12
4.57088190e-03 5.27491647e-12 5.24052603e-12 3.43904358e-14 0.00000000e+00 0.00000000e+00 5.24375082e-12
5.24807460e-03 6.22674825e-12 6.18444619e-12 4.23020657e-14 0.00000000e+00 0.00000000e+00 6.18930730e-12
6.02559586e-03 7.38333553e-12 7.29844950e-12 8.48860324e-14 0.00000000e+00 0.00000000e+00 7.30536713e-12
6.91830971e-03 8.73844074e-12 8.61325274e-12 1.25187997e-13 0.00000000e+00 0.00000000e+00 8.62267558e-12
7.94328235e-03 1.06209834e-11 1.01651143e-11 4.55869084e-13 0.00000000e+00 0.00000000e+00 1.01775219e-11
9.12010839e-03 1.22556419e-11 1.19964888e-11 2.59153111e-13 0.00000000e+00 0.00000000e+00 1.20127391e-11
1.04712855e-02 1.39068136e-11 1.33972802e-11 5.09533411e-13 0.00000000e+00 0.00000000e+00 1.34165878e-11
1.20226443e-02 1.38264205e-11 1.33961416e-11 4.30278849e-13 2.65641014e-311 3.36534190e-313 1.34165878e-11
1.38038426e-02 1.38752360e-11 1.33947912e-11 4.80444758e-13 5.61059654e-272 7.28039384e-274 1.34165878e-11
1.58489319e-02 1.38280315e-11 1.33931318e-11 4.34899652e-13 9.54031336e-238 1.76233062e-239 1.34165878e-11
1.81970086e-02 1.38773558e-11 1.33916015e-11 4.85754253e-13 5.86703993e-208 1.30005383e-209 1.34165878e-11
2.08929613e-02 1.39167447e-11 1.33903297e-11 5.26415004e-13 4.64112840e-182 1.45280975e-183 1.34165878e-11
2.39883292e-02 1.39199660e-11 1.33886819e-11 5.31284020e-13 1.61164990e-159 6.37778158e-161 1.34165878e-11
2.75422870e-02 1.39429553e-11 1.33867656e-11 5.56189686e-13 6.66276825e-140 3.38643381e-141 1.34165878e-11
3.16227766e-02 1.39560411e-11 1.33848874e-11 5.71153623e-13 7.54898882e-123 4.37727119e-124 1.34165878e-11
3.63078055e-02 1.39609208e-11 1.33834145e-11 5.77506335e-13 5.02509595e-108 3.28298917e-109 1.34165878e-11
4.16869383e-02 1.40316442e-11 1.33821406e-11 6.49503530e-13 3.85480121e-95 3.22113445e-96 1.34165878e-11
4.78630092e-02 1.40616961e-11 1.33786299e-11 6.83066232e-13 5.97465722e-84 5.95471818e-85 1.34165878e-11
5.49540874e-02 1.40816244e-11 1.33737490e-11 7.07875363e-13 3.09600221e-74 3.48167887e-75 1.34165878e-11
6.30957344e-02 1.40661680e-11 1.33615182e-11 7.04649829e-13 1.11036624e-65 1.33827197e-66 1.34165878e-11
7.24435960e-02 1.39620343e-11 1.33470451e-11 6.14989278e-13 2.95620818e-58 3.38591733e-59 1.34165878e-11
8.31763771e-02 1.39295135e-11 1.33483323e-11 5.81181133e-13 7.01432816e-52 8.52370674e-53 1.34165878e-11
9.54992586e-02 1.39381076e-11 1.33521085e-11 5.85999119e-13 2.75073389e-46 3.89428319e-47 1.34165878e-11
1.09647820e-01 1.33747833e-11 1.27615708e-11 6.13212568e-13 2.24246332e-41 3.83778476e-42 1.28127470e-11
1.25892541e-01 1.25164350e-11 1.19182232e-11 5.98211792e-13 4.69035247e-37 8.53400082e-38 1.19575512e-11
1.44543977e-01 1.16816452e-11 1.11290061e-11 5.52639088e-13 2.68853677e-33 4.89864445e-34 1.11594361e-11
1.65958691e-01 1.09278563e-11 1.03897512e-11 5.38105090e-13 3.79103949e-30 7.54683648e-31 1.04145917e-11
1.90546072e-01 1.02462162e-11 9.69473221e-12 5.51484020e-13 1.47781273e-27 3.44247702e-28 9.71946251e-12
2.18776162e-01 9.53466224e-12 9.04366302e-12 4.90999219e-13 2.20236617e-25 5.45679596e-26 9.07073019e-12
2.51188643e-01 8.97523721e-12 8.44509005e-12 5.30147156e-13 2.76828137e-23 8.07251628e-24 8.46529796e-12
2.88403150e-01 8.38341864e-12 7.88461497e-12 4.98803665e-13 1.75833297e-21 5.13975277e-22 7.90027573e-12
3.31131121e-01 7.81056124e-12 7.36022405e-12 4.50337130e-13 6.14278363e-20 1.81550451e-20 7.37296631e-12
3.80189396e-01 7.28313144e-12 6.87040863e-12 4.12721527e-13 1.28852968e-18 3.83184837e-19 6.88085251e-12
4.36515832e-01 6.78172306e-12 6.41310158e-12 3.68603932e-13 1.75465415e-17 5.34276075e-18 6.42158520e-12
5.01187234e-01 6.32292931e-12 5.98617399e-12 3.36592420e-13 1.62893715e-16 5.04957477e-17 5.99297201e-12
5.75439937e-01 5.88706162e-12 5.58757577e-12 2.98382290e-13 1.10356021e-15 3.43998894e-16 5.59296690e-12
6.60693448e-01 5.48558993e-12 5.21542201e-12 2.64702531e-13 5.46539069e-15 1.70129407e-15 5.21966041e-12
7.58577575e-01 5.12251223e-12 4.86797889e-12 2.32874952e-13 2.16583894e-14 6.61586615e-15 4.87127053e-12
8.70963590e-01 4.81489452e-12 4.54363444e-12 2.01557127e-13 6.97029502e-14 2.03965950e-14 4.54613417e-12
1.00000000e+00 4.59274539e-12 4.24083160e-12 1.67369129e-13 1.84544660e-13 5.05171640e-14 4.24269927e-12
1.14815362e+00 4.51754243e-12 3.95814672e-12 1.36286220e-13 4.23109491e-13 1.04445909e-13 3.95951734e-12
1.31825674e+00 4.67005209e-12 3.69424821e-12 1.06332065e-13 8.69471817e-13 1.87523724e-13 3.69523659e-12
1.51356125e+00 5.10470727e-12 3.44788990e-12 8.35714223e-14 1.57324594e-12 2.89048360e-13 3.44859544e-12
1.73780083e+00 5.81199982e-12 3.21792108e-12 6.18877362e-14 2.53219100e-12 3.88816049e-13 3.21841652e-12
1.99526231e+00 6.66086010e-12 3.00325861e-12 4.54250869e-14 3.61217639e-12 4.42858561e-13 3.00360106e-12
2.29086765e+00 7.56338949e-12 2.80288764e-12 3.23376474e-14 4.72816420e-12 4.45263846e-13 2.80312361e-12
2.63026799e+00 8.27529471e-12 2.61586305e-12 2.28114686e-14 5.63662019e-12 4.04490073e-13 2.61602716e-12
3.01995172e+00 8.75060923e-12 2.44130299e-12 1.60227473e-14 6.29328350e-12 3.38970376e-13 2.44141860e-12
3.46736850e+00 8.96051746e-12 2.27838164e-12 1.10052285e-14 6.67113059e-12 2.66255385e-13 2.27846441e-12
3.98107171e+00 8.90653307e-12 2.12632669e-12 7.79102055e-15 6.77241536e-12 1.98342676e-13 2.12638671e-12
4.57088190e+00 8.55195077e-12 1.98441543e-12 5.30089329e-15 6.56223444e-12 1.38922725e-13 1.98445954e-12
5.24807460e+00 7.91724867e-12 1.64081458e-12 3.02357400e-15 6.27341052e-12 9.18727211e-14 1.64084388e-12
6.02559586e+00 7.00890918e-12 1.08407871e-12 1.35168729e-15 5.92347878e-12 5.75518396e-14 1.08409480e-12
6.70000000e+00 6.39727292e-12 7.88564366e-13 6.98337827e-16 5.60801021e-12 3.86413789e-14 7.88574724e-13
6.92422916e+00 6.23197183e-12 7.14409889e-13 5.69029177e-16 5.51699291e-12 3.38140278e-14 7.14418944e-13
7.15596261e+00 6.09955038e-12 6.47228546e-13 4.51175460e-16 5.45187066e-12 2.93570759e-14 6.47236606e-13
7.39545150e+00 6.06287860e-12 5.86364466e-13 3.42658991e-16 5.47617147e-12 2.49060905e-14 5.86371942e-13
7.64295536e+00 6.26782329e-12 5.31223136e-13 2.39149205e-16 5.73636100e-12 2.04352146e-14 5.31230854e-13
7.89874245e+00 6.80992745e-12 4.81266075e-13 1.41519444e-16 6.32851986e-12 1.57811716e-14 4.81275108e-13
8.16308998e+00 7.54741026e-12 4.36006037e-13 8.06687401e-17 7.11132356e-12 1.17896653e-14 4.36017088e-13
8.43628443e+00 8.46296529e-12 3.95001120e-13 4.38588686e-17 8.06792031e-12 8.66116883e-15 3.95015029e-13
8.71862190e+00 9.06720042e-12 3.57853228e-13 2.81712786e-17 8.70931902e-12 6.67137002e-15 3.57868711e-13
9.01040836e+00 9.66919442e-12 3.24198556e-13 1.80417309e-17 9.34497782e-12 5.20241206e-15 3.24215549e-13
9.31196005e+00 1.00778598e-11 2.93709198e-13 0.00000000e+00 9.78415065e-12 0.00000000e+00 2.93727053e-13
9.62360379e+00 9.91744303e-12 2.66089024e-13 0.00000000e+00 9.65135400e-12 0.00000000e+00 2.66105627e-13
9.94567731e+00 9.39555370e-12 2.41067544e-13 0.00000000e+00 9.15448616e-12 0.00000000e+00 2.41081657e-13
1.02785297e+01 8.79350232e-12 2.18399317e-13 0.00000000e+00 8.57510301e-12 0.00000000e+00 2.18410884e-13
1.06225216e+01 8.27289845e-12 1.97862641e-13 0.00000000e+00 8.07503581e-12 0.00000000e+00 1.97872020e-13
1.09780260e+01 7.68275814e-12 1.79257254e-13 0.00000000e+00 7.50350088e-12 0.00000000e+00 1.79264583e-13
1.13454280e+01 7.08811420e-12 1.62401197e-13 0.00000000e+00 6.92571301e-12 0.00000000e+00 1.62406948e-13
1.17251259e+01 6.70259521e-12 1.47130025e-13 0.00000000e+00 6.55546518e-12 0.00000000e+00 1.47134567e-13
1.21175312e+01 6.30497754e-12 1.33294797e-13 0.00000000e+00 6.17168275e-12 0.00000000e+00 1.33298366e-13
1.25230691e+01 5.94472043e-12 1.20760493e-13 0.00000000e+00 5.82395994e-12 0.00000000e+00 1.20763289e-13
1.29421791e+01 5.65587698e-12 1.09404777e-13 0.00000000e+00 5.54647220e-12 0.00000000e+00 1.09406983e-13
1.33753155e+01 5.39822535e-12 9.91168453e-14 0.00000000e+00 5.29910851e-12 0.00000000e+00 9.91185987e-14
1.38229477e+01 5.23215697e-12 8.97962526e-14 0.00000000e+00 5.14236072e-12 0.00000000e+00 8.97977103e-14
1.42855609e+01 5.17063764e-12 8.13520702e-14 0.00000000e+00 5.08928557e-12 0.00000000e+00 8.13533371e-14
1.47636563e+01 5.24841289e-12 7.37018513e-14 0.00000000e+00 5.17471104e-12 0.00000000e+00 7.37030537e-14
1.52577522e+01 5.38459320e-12 6.67710238e-14 0.00000000e+00 5.31782217e-12 0.00000000e+00 6.67721855e-14
1.57683840e+01 5.55845844e-12 6.04919436e-14 0.00000000e+00 5.49796649e-12 0.00000000e+00 6.04930805e-14
1.62961051e+01 5.71331127e-12 5.48033371e-14 0.00000000e+00 5.65850793e-12 0.00000000e+00 5.48044484e-14
1.68414875e+01 5.88807283e-12 4.96496784e-14 0.00000000e+00 5.83842315e-12 0.00000000e+00 4.96507622e-14
1.74051222e+01 6.00217135e-12 4.49806879e-14 0.00000000e+00 5.95719067e-12 0.00000000e+00 4.49817171e-14
1.79876201e+01 6.09924744e-12 4.07507774e-14 0.00000000e+00 6.05849667e-12 0.00000000e+00 4.07517384e-14
1.85896125e+01 6.13406602e-12 3.69186678e-14 0.00000000e+00 6.09714736e-12 0.00000000e+00 3.69195372e-14
1.92117518e+01 6.18244349e-12 3.34469439e-14 0.00000000e+00 6.14899654e-12 0.00000000e+00 3.34477076e-14
1.98547123e+01 6.12817838e-12 3.03017033e-14 0.00000000e+00 6.09787667e-12 0.00000000e+00 3.03023610e-14
2.05191907e+01 6.06509790e-12 2.74522349e-14 0.00000000e+00 6.03764567e-12 0.00000000e+00 2.74527957e-14
2.12059073e+01 6.03700115e-12 2.48707190e-14 0.00000000e+00 6.01213043e-12 0.00000000e+00 2.48711970e-14
2.19156062e+01 5.99498027e-12 2.25319566e-14 0.00000000e+00 5.97244832e-12 0.00000000e+00 2.25323660e-14
2.26490567e+01 5.92747461e-12 2.04131221e-14 0.00000000e+00 5.90706149e-12 0.00000000e+00 2.04134733e-14
2.34070535e+01 5.87562385e-12 1.84935347e-14 0.00000000e+00 5.85713031e-12 0.00000000e+00 1.84938366e-14
2.41904183e+01 5.81871356e-12 1.67544580e-14 0.00000000e+00 5.80195910e-12 0.00000000e+00 1.67547181e-14
2.50000000e+01 5.76343289e-12 1.51789177e-14 0.00000000e+00 5.74825397e-12 0.00000000e+00 1.51791424e-14
2.75422870e+01 5.47540632e-12 1.13517196e-14 0.00000000e+00 5.46405460e-12 0.00000000e+00 1.13518661e-14
3.16227766e+01 4.90602078e-12 7.50002308e-15 0.00000000e+00 4.89852076e-12 0.00000000e+00 7.50010357e-15
3.63078055e+01 4.11684851e-12 4.95522530e-15 0.00000000e+00 4.11189329e-12 0.00000000e+00 4.95526929e-15
4.16869383e+01 3.20999208e-12 3.27389055e-15 0.00000000e+00 3.20671819e-12 0.00000000e+00 3.27391395e-15
4.78630092e+01 2.32128425e-12 2.16304143e-15 0.00000000e+00 2.31912121e-12 0.00000000e+00 2.16305350e-15
5.49540874e+01 1.57722776e-12 1.42910919e-15 0.00000000e+00 1.57579865e-12 0.00000000e+00 1.42911527e-15
6.30957344e+01 1.01315348e-12 9.44204065e-16 0.00000000e+00 1.01220928e-12 0.00000000e+00 9.44207098e-16
7.24435960e+01 6.22078474e-13 6.23829943e-16 0.00000000e+00 6.21454644e-13 0.00000000e+00 6.23831443e-16
8.31763771e+01 3.68803681e-13 4.12160607e-16 0.00000000e+00 3.68391521e-13 0.00000000e+00 4.12161347e-16
9.54992586e+01 2.12807928e-13 2.72311935e-16 0.00000000e+00 2.12535616e-13 0.00000000e+00 2.72312302e-16
1.09647820e+02 1.20358031e-13 1.79914771e-16 0.00000000e+00 1.20178116e-13 0.00000000e+00 1.79914953e-16
1.25892541e+02 6.77176380e-14 1.18868539e-16 0.00000000e+00 6.75987695e-14 0.00000000e+00 1.18868631e-16
1.44543977e+02 3.77569557e-14 7.85356790e-17 0.00000000e+00 3.76784200e-14 0.00000000e+00 7.85357256e-17
1.65958691e+02 2.00300068e-14 5.18880165e-17 0.00000000e+00 1.99781188e-14 0.00000000e+00 5.18880394e-17
1.90546072e+02 1.06052173e-14 3.42820763e-17 0.00000000e+00 1.05709352e-14 0.00000000e+00 3.42820876e-17
2.18776162e+02 5.59524488e-15 2.26499451e-17 0.00000000e+00 5.57259493e-15 0.00000000e+00 2.26499507e-17
2.51188643e+02 2.93812631e-15 1.49646712e-17 0.00000000e+00 2.92316164e-15 0.00000000e+00 1.49646740e-17
2.88403150e+02 1.53395651e-15 9.88706067e-18 0.00000000e+00 1.52406945e-15 0.00000000e+00 9.88706207e-18
3.31131121e+02 7.98174291e-16 6.53231643e-18 0.00000000e+00 7.91641974e-16 0.00000000e+00 6.53231713e-18
3.80189396e+02 4.13564135e-16 4.31585878e-18 0.00000000e+00 4.09248277e-16 0.00000000e+00 4.31585913e-18
4.36515832e+02 2.13725540e-16 2.85145967e-18 0.00000000e+00 2.10874081e-16 0.00000000e+00 2.85145985e-18
5.01187234e+02 1.10171935e-16 1.88394075e-18 0.00000000e+00 1.08287994e-16 0.00000000e+00 1.88394084e-18
5.75439937e+02 5.66990481e-17 1.24470732e-18 0.00000000e+00 5.54543408e-17 0.00000000e+00 1.24470737e-18
6.60693448e+02 2.91523907e-17 8.22369981e-19 0.00000000e+00 2.83300207e-17 0.00000000e+00 8.22370004e-19
7.58577575e+02 1.49862185e-17 5.43334462e-19 0.00000000e+00 1.44428841e-17 0.00000000e+00 5.43334473e-19
8.70963590e+02 7.70685545e-18 3.58977521e-19 0.00000000e+00 7.34787793e-18 0.00000000e+00 3.58977527e-19
1.00000000e+03 3.73119892e-18 0.00000000e+00 0.00000000e+00 3.73119892e-18 0.00000000e+00 0.00000000e+00
