# column 1: lambda (micron)
# column 2: total flux; lambda*F_lambda (W/m2)
# column 3: direct stellar flux; lambda*F_lambda (W/m2)
# column 4: scattered stellar flux; lambda*F_lambda (W/m2)
# column 5: total dust emission flux; lambda*F_lambda (W/m2)
# column 6: dust emission scattered flux; lambda*F_lambda (W/m2)
# column 7: transparent flux; lambda*F_lambda (W/m2)
1.00000000e-03 9.68073330e-13 9.68073281e-13 4.89701452e-20 0.00000000e+00 0.00000000e+00 9.68073281e-13
1.14815362e-03 1.14263694e-12 1.14263687e-12 7.08244334e-20 0.00000000e+00 0.00000000e+00 1.14263687e-12
1.31825674e-03 1.34867801e-12 1.34867788e-12 1.37232138e-19 0.00000000e+00 0.00000000e+00 1.34867788e-12
1.51356125e-03 1.59187253e-12 1.59187233e-12 2.03238161e-19 0.00000000e+00 0.00000000e+00 1.59187233e-12
1.73780083e-03 1.87892009e-12 1.87891976e-12 3.25432947e-19 0.00000000e+00 0.00000000e+00 1.87891976e-12
1.99526231e-03 2.21772841e-12 2.21772777e-12 6.44278588e-19 0.00000000e+00 0.00000000e+00 2.21772777e-12
2.29086765e-03 2.61763091e-12 2.61762985e-12 1.06185110e-18 0.00000000e+00 0.00000000e+00 2.61762985e-12
2.63026799e-03 3.08964470e-12 3.08964252e-12 2.17877898e-18 0.00000000e+00 0.00000000e+00 3.08964252e-12
3.01995172e-03 3.64677263e-12 3.64676883e-12 3.80677764e-18 0.00000000e+00 0.00000000e+00 3.64676883e-12
3.46736850e-03 4.30437282e-12 4.30435650e-12 1.63237986e-17 0.00000000e+00 0.00000000e+00 4.30435650e-12
3.98107171e-03 5.08053072e-12 5.08052080e-12 9.91616431e-18 0.00000000e+00 0.00000000e+00 5.08052080e-12
4.57088190e-03 5.99666417e-12 5.99664354e-12 2.06254231e-17 0.00000000e+00 0.00000000e+00 5.99664354e-12
5.24807460e-03 7.07800351e-12 7.07796211e-12 4.13961732e-17 0.00000000e+00 0.00000000e+00 7.07796211e-12
6.02559586e-03 8.35433961e-12 8.35426474e-12 7.48661772e-17 0.00000000e+00 0.00000000e+00 8.35426474e-12
6.91830971e-03 9.86082151e-12 9.86071107e-12 1.10442476e-16 0.00000000e+00 0.00000000e+00 9.86071107e-12
7.94328235e-03 1.16389933e-11 1.16388008e-11 1.92496533e-16 1.50501491e-303 7.07757213e-306 1.16388008e-11
9.12010839e-03 1.37378258e-11 1.37375167e-11 3.09116829e-16 6.79978809e-265 1.40399082e-267 1.37375167e-11
1.04712855e-02 1.53433624e-11 1.53429287e-11 4.33732614e-16 2.96227558e-231 1.08503157e-233 1.53429287e-11
1.20226443e-02 1.53435689e-11 1.53429287e-11 6.40234858e-16 4.77971150e-202 4.31318184e-204 1.53429287e-11
1.38038426e-02 1.53438991e-11 1.53429287e-11 9.70392802e-16 1.32445287e-176 6.34764023e-179 1.53429287e-11
1.58489319e-02 1.53441253e-11 1.53429287e-11 1.19663896e-15 1.82900129e-154 1.38334456e-156 1.53429287e-11
1.81970086e-02 1.53445843e-11 1.53429287e-11 1.65561600e-15 3.31677869e-135 2.77140265e-137 1.53429287e-11
2.08929613e-02 1.53452961e-11 1.53429287e-11 2.36738988e-15 1.75947720e-118 1.94967466e-120 1.53429287e-11
2.39883292e-02 1.53464867e-11 1.53429287e-11 3.55807969e-15 6.25645687e-104 8.65858142e-106 1.53429287e-11
2.75422870e-02 1.53474125e-11 1.53429287e-11 4.48388021e-15 2.83146032e-91 4.64823936e-93 1.53429287e-11
3.16227766e-02 1.53489701e-11 1.53429287e-11 6.04139888e-15 2.79055036e-80 5.60761485e-82 1.53429287e-11
3.63078055e-02 1.53502064e-11 1.53429287e-11 7.27772150e-15 9.75725598e-71 2.15978133e-72 1.53429287e-11
4.16869383e-02 1.53523437e-11 1.53429287e-11 9.41499186e-15 1.87292233e-62 5.47867320e-64 1.53429287e-11
4.78630092e-02 1.53571647e-11 1.53429287e-11 1.42360401e-14 2.85865944e-55 1.11927792e-56 1.53429287e-11
5.49540874e-02 1.53612846e-11 1.53429287e-11 1.83559840e-14 4.79202625e-49 2.30622736e-50 1.53429287e-11
6.30957344e-02 1.53673644e-11 1.53429287e-11 2.44357258e-14 1.56105514e-43 9.19622420e-45 1.53429287e-11
7.24435960e-02 1.53682857e-11 1.53429287e-11 2.53570618e-14 9.06956532e-39 5.26030460e-40 1.53429287e-11
8.31763771e-02 1.53677905e-11 1.53429287e-11 2.48618220e-14 9.31585175e-35 5.33418979e-36 1.53429287e-11
9.54992586e-02 1.53701051e-11 1.53429287e-11 2.71764016e-14 2.63451509e-31 1.55575839e-32 1.53429287e-11
1.09647820e-01 1.46782128e-11 1.46523889e-11 2.58239203e-14 2.24280460e-28 1.39582915e-29 1.46523889e-11
1.25892541e-01 1.36966693e-11 1.36744049e-11 2.22643767e-14 7.26654729e-26 4.23067159e-27 1.36744049e-11
1.44543977e-01 1.27814480e-11 1.27616972e-11 1.97507747e-14 9.89013065e-24 5.33028477e-25 1.27616972e-11
1.65958691e-01 1.19304917e-11 1.19099088e-11 2.05829169e-14 5.01979085e-22 2.96853819e-23 1.19099088e-11
1.90546072e-01 1.11394513e-11 1.11149736e-11 2.44776620e-14 1.05911719e-20 7.40907795e-22 1.11149736e-11
2.18776162e-01 1.03986707e-11 1.03730969e-11 2.55736139e-14 1.25981009e-19 9.68231910e-21 1.03730969e-11
2.51188643e-01 9.70926045e-12 9.68073733e-12 2.85215830e-14 1.52832598e-18 1.38478065e-19 9.68073733e-12
2.88403150e-01 9.05951782e-12 9.03458975e-12 2.49153867e-14 1.26782387e-17 1.07856570e-18 9.03458975e-12
3.31131121e-01 8.45459665e-12 8.43156974e-12 2.29543795e-14 7.25278203e-17 5.82281585e-18 8.43156974e-12
3.80189396e-01 7.89066663e-12 7.86879872e-12 2.15659895e-14 3.01918780e-16 2.31880414e-17 7.86879872e-12
4.36515832e-01 7.36344751e-12 7.34359025e-12 1.89032330e-14 9.54027927e-16 7.10227648e-17 7.34359025e-12
5.01187234e-01 6.87327448e-12 6.85343719e-12 1.74622331e-14 2.37506197e-15 1.70367663e-16 6.85343719e-12
5.75439937e-01 6.41674856e-12 6.39599973e-12 1.58816090e-14 4.86722187e-15 3.39815252e-16 6.39599973e-12
6.60693448e-01 5.99233909e-12 5.96909425e-12 1.47582400e-14 8.48659205e-15 5.77115037e-16 5.96909425e-12
7.58577575e-01 5.59781674e-12 5.57068288e-12 1.40323910e-14 1.31014671e-14 8.53448457e-16 5.57068288e-12
8.70963590e-01 5.22966408e-12 5.19886376e-12 1.24619216e-14 1.83383962e-14 1.13058164e-15 5.19886376e-12
1.00000000e+00 4.88606284e-12 4.85186196e-12 1.05163424e-14 2.36845380e-14 1.34054823e-15 4.85186196e-12
1.14815362e+00 4.56710814e-12 4.52802104e-12 9.39983100e-15 2.96872635e-14 1.52821023e-15 4.52802104e-12
1.31825674e+00 4.27097699e-12 4.22579511e-12 7.60809828e-15 3.75737753e-14 1.77546080e-15 4.22579511e-12
1.51356125e+00 3.99885972e-12 3.94374146e-12 6.00078617e-15 4.91174667e-14 2.09500141e-15 3.94374146e-12
1.73780083e+00 3.75155066e-12 3.68051368e-12 4.53959943e-15 6.64973796e-14 2.59282492e-15 3.68051368e-12
1.99526231e+00 3.52870250e-12 3.43485522e-12 3.21667230e-15 9.06306029e-14 3.00381642e-15 3.43485522e-12
2.29086765e+00 3.32821540e-12 3.20559341e-12 2.28808147e-15 1.20333905e-13 3.30595589e-15 3.20559341e-12
2.63026799e+00 3.14551725e-12 2.99163384e-12 1.42174658e-15 1.52461666e-13 3.35159199e-15 2.99163384e-12
3.01995172e+00 2.97505687e-12 2.79195514e-12 1.03383175e-15 1.82067898e-13 3.17517558e-15 2.79195514e-12
3.46736850e+00 2.81260223e-12 2.60560415e-12 6.70168128e-16 2.06327915e-13 2.78234695e-15 2.60560415e-12
3.98107171e+00 2.65361528e-12 2.43169128e-12 4.50258273e-16 2.21473750e-13 2.31523077e-15 2.43169128e-12
4.57088190e+00 2.49562782e-12 2.26938634e-12 3.11605984e-16 2.25929873e-13 1.78852801e-15 2.26938634e-12
5.24807460e+00 2.09854489e-12 1.87643467e-12 1.69501840e-16 2.21940720e-13 1.29336629e-15 1.87643467e-12
6.02559586e+00 1.45247119e-12 1.23974809e-12 7.80653453e-17 2.12645036e-13 8.57451906e-16 1.23974809e-12
6.70000000e+00 1.10437174e-12 9.01797527e-13 4.08485721e-17 2.02533366e-13 6.04902918e-16 9.01797527e-13
6.92422916e+00 1.01557498e-12 8.16994532e-13 3.21500537e-17 1.98548299e-13 5.33752211e-16 8.16994532e-13
7.15596261e+00 9.36864871e-13 7.40166218e-13 2.53597093e-17 1.96673294e-13 4.64470838e-16 7.40166218e-13
7.39545150e+00 8.68658686e-13 6.70562664e-13 1.97897065e-17 1.98076233e-13 3.92685018e-16 6.70562664e-13
7.64295536e+00 8.19148142e-13 6.07504471e-13 1.43052123e-17 2.11629366e-13 3.26383963e-16 6.07504471e-13
7.89874245e+00 7.93343814e-13 5.50376127e-13 7.82782201e-18 2.42959859e-13 2.49245181e-16 5.50376127e-13
8.16308998e+00 7.90456629e-13 4.98620004e-13 4.79454290e-18 2.91831831e-13 1.91737122e-16 4.98620004e-13
8.43628443e+00 8.14758671e-13 4.51730909e-13 2.72609749e-18 3.63025037e-13 1.41595364e-16 4.51730909e-13
8.71862190e+00 8.24928226e-13 4.09251158e-13 1.70751466e-18 4.15675361e-13 1.09880817e-16 4.09251158e-13
9.01040836e+00 8.44387712e-13 3.70766106e-13 1.10092690e-18 4.73620505e-13 8.52336786e-17 3.70766106e-13
9.31196005e+00 8.55523528e-13 3.35900102e-13 0.00000000e+00 5.19623426e-13 0.00000000e+00 3.35900102e-13
9.62360379e+00 8.26471905e-13 3.04312818e-13 0.00000000e+00 5.22159087e-13 0.00000000e+00 3.04312818e-13
9.94567731e+00 7.65494141e-13 2.75695930e-13 0.00000000e+00 4.89798211e-13 0.00000000e+00 2.75695930e-13
1.02785297e+01 6.98028639e-13 2.49770110e-13 0.00000000e+00 4.48258529e-13 0.00000000e+00 2.49770110e-13
1.06225216e+01 6.33542513e-13 2.26282295e-13 0.00000000e+00 4.07260219e-13 0.00000000e+00 2.26282295e-13
1.09780260e+01 5.64336592e-13 2.05003220e-13 0.00000000e+00 3.59333372e-13 0.00000000e+00 2.05003220e-13
1.13454280e+01 5.06365866e-13 1.85725182e-13 0.00000000e+00 3.20640684e-13 0.00000000e+00 1.85725182e-13
1.17251259e+01 4.55291791e-13 1.68260007e-13 0.00000000e+00 2.87031785e-13 0.00000000e+00 1.68260007e-13
1.21175312e+01 4.11001512e-13 1.52437217e-13 0.00000000e+00 2.58564295e-13 0.00000000e+00 1.52437217e-13
1.25230691e+01 3.70796855e-13 1.38102367e-13 0.00000000e+00 2.32694488e-13 0.00000000e+00 1.38102367e-13
1.29421791e+01 3.35337472e-13 1.25115533e-13 0.00000000e+00 2.10221939e-13 0.00000000e+00 1.25115533e-13
1.33753155e+01 3.05602482e-13 1.13349952e-13 0.00000000e+00 1.92252530e-13 0.00000000e+00 1.13349952e-13
1.38229477e+01 2.83417277e-13 1.02690779e-13 0.00000000e+00 1.80726497e-13 0.00000000e+00 1.02690779e-13
1.42855609e+01 2.67281656e-13 9.30339713e-14 0.00000000e+00 1.74247685e-13 0.00000000e+00 9.30339713e-14
1.47636563e+01 2.60834647e-13 8.42852675e-14 0.00000000e+00 1.76549379e-13 0.00000000e+00 8.42852675e-14
1.52577522e+01 2.58192942e-13 7.63592720e-14 0.00000000e+00 1.81833670e-13 0.00000000e+00 7.63592720e-14
1.57683840e+01 2.57611273e-13 6.91786191e-14 0.00000000e+00 1.88432653e-13 0.00000000e+00 6.91786191e-14
1.62961051e+01 2.57600473e-13 6.26732185e-14 0.00000000e+00 1.94927254e-13 0.00000000e+00 6.26732185e-14
1.68414875e+01 2.57817128e-13 5.67795711e-14 0.00000000e+00 2.01037557e-13 0.00000000e+00 5.67795711e-14
1.74051222e+01 2.56133670e-13 5.14401489e-14 0.00000000e+00 2.04693521e-13 0.00000000e+00 5.14401489e-14
1.79876201e+01 2.53442416e-13 4.66028339e-14 0.00000000e+00 2.06839582e-13 0.00000000e+00 4.66028339e-14
1.85896125e+01 2.45983409e-13 4.22204090e-14 0.00000000e+00 2.03763000e-13 0.00000000e+00 4.22204090e-14
1.92117518e+01 2.37049058e-13 3.82500974e-14 0.00000000e+00 1.98798960e-13 0.00000000e+00 3.82500974e-14
1.98547123e+01 2.26696386e-13 3.46531450e-14 0.00000000e+00 1.92043241e-13 0.00000000e+00 3.46531450e-14
2.05191907e+01 2.15233911e-13 3.13944418e-14 0.00000000e+00 1.83839470e-13 0.00000000e+00 3.13944418e-14
2.12059073e+01 2.05744965e-13 2.84421796e-14 0.00000000e+00 1.77302785e-13 0.00000000e+00 2.84421796e-14
2.19156062e+01 1.96713319e-13 2.57675415e-14 0.00000000e+00 1.70945778e-13 0.00000000e+00 2.57675415e-14
2.26490567e+01 1.88903460e-13 2.33444203e-14 0.00000000e+00 1.65559039e-13 0.00000000e+00 2.33444203e-14
2.34070535e+01 1.81103246e-13 2.11491639e-14 0.00000000e+00 1.59954082e-13 0.00000000e+00 2.11491639e-14
2.41904183e+01 1.74260666e-13 1.91603445e-14 0.00000000e+00 1.55100322e-13 0.00000000e+00 1.91603445e-14
2.50000000e+01 1.67457006e-13 1.73585491e-14 0.00000000e+00 1.50098457e-13 0.00000000e+00 1.73585491e-14
2.75422870e+01 1.49770669e-13 1.29817562e-14 0.00000000e+00 1.36788913e-13 0.00000000e+00 1.29817562e-14
3.16227766e+01 1.26785871e-13 8.57696126e-15 0.00000000e+00 1.18208910e-13 0.00000000e+00 8.57696126e-15
3.63078055e+01 1.03676807e-13 5.66674211e-15 0.00000000e+00 9.80100653e-14 0.00000000e+00 5.66674211e-15
4.16869383e+01 8.05888756e-14 3.74397938e-15 0.00000000e+00 7.68448962e-14 0.00000000e+00 3.74397938e-15
4.78630092e+01 5.91117558e-14 2.47362265e-15 0.00000000e+00 5.66381331e-14 0.00000000e+00 2.47362265e-15
5.49540874e+01 4.10741234e-14 1.63430628e-15 0.00000000e+00 3.94398171e-14 0.00000000e+00 1.63430628e-15
6.30957344e+01 2.72401439e-14 1.07977545e-15 0.00000000e+00 2.61603684e-14 0.00000000e+00 1.07977545e-15
7.24435960e+01 1.73342361e-14 7.13400564e-16 0.00000000e+00 1.66208356e-14 0.00000000e+00 7.13400564e-16
8.31763771e+01 1.06609542e-14 4.71339078e-16 0.00000000e+00 1.01896151e-14 0.00000000e+00 4.71339078e-16
9.54992586e+01 6.38468204e-15 3.11410641e-16 0.00000000e+00 6.07327140e-15 0.00000000e+00 3.11410641e-16
1.09647820e+02 3.74583078e-15 2.05746970e-16 0.00000000e+00 3.54008381e-15 0.00000000e+00 2.05746970e-16
1.25892541e+02 2.18161580e-15 1.35935675e-16 0.00000000e+00 2.04568012e-15 0.00000000e+00 1.35935675e-16
1.44543977e+02 1.25757626e-15 8.98118099e-17 0.00000000e+00 1.16776445e-15 0.00000000e+00 8.98118099e-17
1.65958691e+02 6.91682274e-16 5.93380743e-17 0.00000000e+00 6.32344200e-16 0.00000000e+00 5.93380743e-17
1.90546072e+02 3.80115709e-16 3.92042769e-17 0.00000000e+00 3.40911432e-16 0.00000000e+00 3.92042769e-17
2.18776162e+02 2.08570208e-16 2.59020089e-17 0.00000000e+00 1.82668200e-16 0.00000000e+00 2.59020089e-17
2.51188643e+02 1.14280257e-16 1.71132876e-17 0.00000000e+00 9.71669691e-17 0.00000000e+00 1.71132876e-17
2.88403150e+02 6.25862703e-17 1.13066370e-17 0.00000000e+00 5.12796333e-17 0.00000000e+00 1.13066370e-17
3.31131121e+02 3.43846730e-17 7.47022097e-18 0.00000000e+00 2.69144520e-17 0.00000000e+00 7.47022097e-18
3.80189396e+02 1.89754706e-17 4.93552605e-18 0.00000000e+00 1.40399445e-17 0.00000000e+00 4.93552605e-18
4.36515832e+02 1.05518398e-17 3.26086972e-18 0.00000000e+00 7.29097008e-18 0.00000000e+00 3.26086972e-18
5.01187234e+02 5.92380694e-18 2.15443526e-18 0.00000000e+00 3.76937168e-18 0.00000000e+00 2.15443526e-18
5.75439937e+02 3.36497916e-18 1.42342126e-18 0.00000000e+00 1.94155790e-18 0.00000000e+00 1.42342126e-18
6.60693448e+02 1.93733342e-18 9.40445101e-19 0.00000000e+00 9.96888316e-19 0.00000000e+00 9.40445101e-19
7.58577575e+02 1.13177972e-18 6.21345916e-19 0.00000000e+00 5.10433806e-19 0.00000000e+00 6.21345916e-19
8.70963590e+02 6.71186463e-19 4.10519176e-19 0.00000000e+00 2.60667287e-19 0.00000000e+00 4.10519176e-19
1.00000000e+03 1.32796917e-19 0.00000000e+00 0.00000000e+00 1.32796917e-19 0.00000000e+00 0.00000000e+00
