# column 1: lambda (micron)
# column 2: total flux; lambda*F_lambda (W/m2)
# column 3: direct stellar flux; lambda*F_lambda (W/m2)
# column 4: scattered stellar flux; lambda*F_lambda (W/m2)
# column 5: total dust emission flux; lambda*F_lambda (W/m2)
# column 6: dust emission scattered flux; lambda*F_lambda (W/m2)
# column 7: transparent flux; lambda*F_lambda (W/m2)
1.00000000e-03 9.68076247e-13 9.68073281e-13 2.96559383e-18 0.00000000e+00 0.00000000e+00 9.68073281e-13
1.14815362e-03 1.14264159e-12 1.14263687e-12 4.72131579e-18 0.00000000e+00 0.00000000e+00 1.14263687e-12
1.31825674e-03 1.34868566e-12 1.34867788e-12 7.78114684e-18 0.00000000e+00 0.00000000e+00 1.34867788e-12
1.51356125e-03 1.59188684e-12 1.59187233e-12 1.45149084e-17 0.00000000e+00 0.00000000e+00 1.59187233e-12
1.73780083e-03 1.87894125e-12 1.87891976e-12 2.14935351e-17 0.00000000e+00 0.00000000e+00 1.87891976e-12
1.99526231e-03 2.21776817e-12 2.21772777e-12 4.04004187e-17 0.00000000e+00 0.00000000e+00 2.21772777e-12
2.29086765e-03 2.61769215e-12 2.61762985e-12 6.23028806e-17 0.00000000e+00 0.00000000e+00 2.61762985e-12
2.63026799e-03 3.08976984e-12 3.08964252e-12 1.27315243e-16 0.00000000e+00 0.00000000e+00 3.08964252e-12
3.01995172e-03 3.64699315e-12 3.64676883e-12 2.24325104e-16 0.00000000e+00 0.00000000e+00 3.64676883e-12
3.46736850e-03 4.30474580e-12 4.30435650e-12 3.89302110e-16 0.00000000e+00 0.00000000e+00 4.30435650e-12
3.98107171e-03 5.08113810e-12 5.08052080e-12 6.17301590e-16 0.00000000e+00 0.00000000e+00 5.08052080e-12
4.57088190e-03 5.99795657e-12 5.99664354e-12 1.31303211e-15 0.00000000e+00 0.00000000e+00 5.99664354e-12
5.24807460e-03 7.08039386e-12 7.07796211e-12 2.43174168e-15 0.00000000e+00 0.00000000e+00 7.07796211e-12
6.02559586e-03 8.35881191e-12 8.35426474e-12 4.54717089e-15 0.00000000e+00 0.00000000e+00 8.35426474e-12
6.91830971e-03 9.86763773e-12 9.86071107e-12 6.92665547e-15 0.00000000e+00 0.00000000e+00 9.86071107e-12
7.94328235e-03 1.16508516e-11 1.16388008e-11 1.20508564e-14 8.25952538e-304 3.55055675e-306 1.16388008e-11
9.12010839e-03 1.37599110e-11 1.37375167e-11 2.23942700e-14 3.59088295e-265 1.92967834e-267 1.37375167e-11
1.04712855e-02 1.53710165e-11 1.53429287e-11 2.80878284e-14 1.50804246e-231 1.07210625e-233 1.53429287e-11
1.20226443e-02 1.53864982e-11 1.53429287e-11 4.35695302e-14 2.34548805e-202 1.77033268e-204 1.53429287e-11
1.38038426e-02 1.54061618e-11 1.53429287e-11 6.32331143e-14 6.37972014e-177 8.06567307e-179 1.53429287e-11
1.58489319e-02 1.54396148e-11 1.53429287e-11 9.66861022e-14 8.59685799e-155 1.28355503e-156 1.53429287e-11
1.81970086e-02 1.54628415e-11 1.53429287e-11 1.19912812e-13 1.53594383e-135 3.38205525e-137 1.53429287e-11
2.08929613e-02 1.54993164e-11 1.53429287e-11 1.56387700e-13 8.02006182e-119 2.16363430e-120 1.53429287e-11
2.39883292e-02 1.55614590e-11 1.53429287e-11 2.18530290e-13 2.83176979e-104 1.08058231e-105 1.53429287e-11
2.75422870e-02 1.56185915e-11 1.53429287e-11 2.75662871e-13 1.27101129e-91 5.84596004e-93 1.53429287e-11
3.16227766e-02 1.56827305e-11 1.53429287e-11 3.39801861e-13 1.24432283e-80 6.79762328e-82 1.53429287e-11
3.63078055e-02 1.57276896e-11 1.53429287e-11 3.84760922e-13 4.31546125e-71 2.53649941e-72 1.53429287e-11
4.16869383e-02 1.58413884e-11 1.53429287e-11 4.98459688e-13 8.29494893e-63 6.25082640e-64 1.53429287e-11
4.78630092e-02 1.59469701e-11 1.53429287e-11 6.04041389e-13 1.26380899e-55 1.14326525e-56 1.53429287e-11
5.49540874e-02 1.60040761e-11 1.53429287e-11 6.61147474e-13 2.10912286e-49 2.12922395e-50 1.53429287e-11
6.30957344e-02 1.60373953e-11 1.53429287e-11 6.94466616e-13 6.78921724e-44 7.09512254e-45 1.53429287e-11
7.24435960e-02 1.59483409e-11 1.53429287e-11 6.05412260e-13 3.88366091e-39 3.63131888e-40 1.53429287e-11
8.31763771e-02 1.59234926e-11 1.53429287e-11 5.80563961e-13 3.96807410e-35 3.65966216e-36 1.53429287e-11
9.54992586e-02 1.59498261e-11 1.53429287e-11 6.06897389e-13 1.11961450e-31 1.07312301e-32 1.53429287e-11
1.09647820e-01 1.53093541e-11 1.46523889e-11 6.56965165e-13 9.56408045e-29 1.01469760e-29 1.46523889e-11
1.25892541e-01 1.43175024e-11 1.36744049e-11 6.43097477e-13 3.10626413e-26 3.35368485e-27 1.36744049e-11
1.44543977e-01 1.33615366e-11 1.27616972e-11 5.99839387e-13 4.22630637e-24 4.50298580e-25 1.27616972e-11
1.65958691e-01 1.25329770e-11 1.19099088e-11 6.23068203e-13 2.14895666e-22 2.48366539e-23 1.19099088e-11
1.90546072e-01 1.17572254e-11 1.11149736e-11 6.42251758e-13 4.56307085e-21 6.06384451e-22 1.11149736e-11
2.18776162e-01 1.09621896e-11 1.03730969e-11 5.89092627e-13 5.36843429e-20 7.02451119e-21 1.03730969e-11
2.51188643e-01 1.03261211e-11 9.68073733e-12 6.45383079e-13 6.59633460e-19 1.03256263e-19 9.68073733e-12
2.88403150e-01 9.65325638e-12 9.03458975e-12 6.18661136e-13 5.48960336e-18 8.54765389e-19 9.03458975e-12
3.31131121e-01 8.99853432e-12 8.43156974e-12 5.66933113e-13 3.14620459e-17 4.83558469e-18 8.43156974e-12
3.80189396e-01 8.38697131e-12 7.86879872e-12 5.18041022e-13 1.31564177e-16 2.01674769e-17 7.86879872e-12
4.36515832e-01 7.82298819e-12 7.34359025e-12 4.78975471e-13 4.22466285e-16 6.52505303e-17 7.34359025e-12
5.01187234e-01 7.28108531e-12 6.85343719e-12 4.26525346e-13 1.12277843e-15 1.83745458e-16 6.85343719e-12
5.75439937e-01 6.78019170e-12 6.39599973e-12 3.81366311e-13 2.82566264e-15 5.43940096e-16 6.39599973e-12
6.60693448e-01 6.31633784e-12 5.96909425e-12 3.39607735e-13 7.63584644e-15 1.79228833e-15 5.96909425e-12
7.58577575e-01 5.89237140e-12 5.57068288e-12 2.99497087e-13 2.21914282e-14 5.79113583e-15 5.57068288e-12
8.70963590e-01 5.51493254e-12 5.19886376e-12 2.52723290e-13 6.33454878e-14 1.66724128e-14 5.19886376e-12
1.00000000e+00 5.22313354e-12 4.85186196e-12 2.08098065e-13 1.63173510e-13 4.10976007e-14 4.85186196e-12
1.14815362e+00 5.07254368e-12 4.52802104e-12 1.67535665e-13 3.76986972e-13 8.49073557e-14 4.52802104e-12
1.31825674e+00 5.13515429e-12 4.22579511e-12 1.28848284e-13 7.80510889e-13 1.53949173e-13 4.22579511e-12
1.51356125e+00 5.49136283e-12 3.94374146e-12 9.88846441e-14 1.44873672e-12 2.42973733e-13 3.94374146e-12
1.73780083e+00 6.15215800e-12 3.68051368e-12 7.39215083e-14 2.39772281e-12 3.33227213e-13 3.68051368e-12
1.99526231e+00 7.04784304e-12 3.43485522e-12 5.44056772e-14 3.55858214e-12 3.93392444e-13 3.43485522e-12
2.29086765e+00 8.05181543e-12 3.20559341e-12 3.79211664e-14 4.80830085e-12 4.15203552e-13 3.20559341e-12
2.63026799e+00 9.00554650e-12 2.99163384e-12 2.69636433e-14 5.98694902e-12 3.91321640e-13 2.99163384e-12
3.01995172e+00 9.83085820e-12 2.79195514e-12 1.88382168e-14 7.02006484e-12 3.44035351e-13 2.79195514e-12
3.46736850e+00 1.04248811e-11 2.60560415e-12 1.33766863e-14 7.80590022e-12 2.85634244e-13 2.60560415e-12
3.98107171e+00 1.06475997e-11 2.43169128e-12 9.25905053e-15 8.20664936e-12 2.25595975e-13 2.43169128e-12
4.57088190e+00 1.06858259e-11 2.26938634e-12 6.33427186e-15 8.41010532e-12 1.68932109e-13 2.26938634e-12
5.24807460e+00 1.03021602e-11 1.87643467e-12 3.74383742e-15 8.42198167e-12 1.19775056e-13 1.87643467e-12
6.02559586e+00 9.57743432e-12 1.23974809e-12 1.70645774e-15 8.33597977e-12 8.13049936e-14 1.23974809e-12
6.70000000e+00 9.12172516e-12 9.01797527e-13 8.95017712e-16 8.21903261e-12 5.83277514e-14 9.01797527e-13
6.92422916e+00 8.99185998e-12 8.16994532e-13 7.23534144e-16 8.17414192e-12 5.21081638e-14 8.16994532e-13
7.15596261e+00 8.84713615e-12 7.40166218e-13 5.78336758e-16 8.10639159e-12 4.55577441e-14 7.40166218e-13
7.39545150e+00 8.88438687e-12 6.70562664e-13 4.40315438e-16 8.21338389e-12 3.92160496e-14 6.70562664e-13
7.64295536e+00 9.15808391e-12 6.07504471e-13 2.97703473e-16 8.55028174e-12 3.15674683e-14 6.07504471e-13
7.89874245e+00 9.72685179e-12 5.50376127e-13 1.73519923e-16 9.17630214e-12 2.32125421e-14 5.50376127e-13
8.16308998e+00 1.06883977e-11 4.98620004e-13 9.79476832e-17 1.01896797e-11 1.69039751e-14 4.98620004e-13
8.43628443e+00 1.18607861e-11 4.51730909e-13 5.30003933e-17 1.14090022e-11 1.20726297e-14 4.51730909e-13
8.71862190e+00 1.26878108e-11 4.09251158e-13 3.36812458e-17 1.22785259e-11 9.43676729e-15 4.09251158e-13
9.01040836e+00 1.36076747e-11 3.70766106e-13 2.18315800e-17 1.32368867e-11 7.40499826e-15 3.70766106e-13
9.31196005e+00 1.42842470e-11 3.35900102e-13 0.00000000e+00 1.39483469e-11 0.00000000e+00 3.35900102e-13
9.62360379e+00 1.41338764e-11 3.04312818e-13 0.00000000e+00 1.38295636e-11 0.00000000e+00 3.04312818e-13
9.94567731e+00 1.34470995e-11 2.75695930e-13 0.00000000e+00 1.31714035e-11 0.00000000e+00 2.75695930e-13
1.02785297e+01 1.29045893e-11 2.49770110e-13 0.00000000e+00 1.26548191e-11 0.00000000e+00 2.49770110e-13
1.06225216e+01 1.21627466e-11 2.26282295e-13 0.00000000e+00 1.19364643e-11 0.00000000e+00 2.26282295e-13
1.09780260e+01 1.15333681e-11 2.05003220e-13 0.00000000e+00 1.13283649e-11 0.00000000e+00 2.05003220e-13
1.13454280e+01 1.09847759e-11 1.85725182e-13 0.00000000e+00 1.07990508e-11 0.00000000e+00 1.85725182e-13
1.17251259e+01 1.05667330e-11 1.68260007e-13 0.00000000e+00 1.03984730e-11 0.00000000e+00 1.68260007e-13
1.21175312e+01 1.01309164e-11 1.52437217e-13 0.00000000e+00 9.97847916e-12 0.00000000e+00 1.52437217e-13
1.25230691e+01 9.85951788e-12 1.38102367e-13 0.00000000e+00 9.72141551e-12 0.00000000e+00 1.38102367e-13
1.29421791e+01 9.60782787e-12 1.25115533e-13 0.00000000e+00 9.48271234e-12 0.00000000e+00 1.25115533e-13
1.33753155e+01 9.40430401e-12 1.13349952e-13 0.00000000e+00 9.29095405e-12 0.00000000e+00 1.13349952e-13
1.38229477e+01 9.37187077e-12 1.02690779e-13 0.00000000e+00 9.26917999e-12 0.00000000e+00 1.02690779e-13
1.42855609e+01 9.38151428e-12 9.30339713e-14 0.00000000e+00 9.28848031e-12 0.00000000e+00 9.30339713e-14
1.47636563e+01 9.53478116e-12 8.42852675e-14 0.00000000e+00 9.45049590e-12 0.00000000e+00 8.42852675e-14
1.52577522e+01 9.77535167e-12 7.63592720e-14 0.00000000e+00 9.69899240e-12 0.00000000e+00 7.63592720e-14
1.57683840e+01 9.99156709e-12 6.91786191e-14 0.00000000e+00 9.92238847e-12 0.00000000e+00 6.91786191e-14
1.62961051e+01 1.02978709e-11 6.26732185e-14 0.00000000e+00 1.02351976e-11 0.00000000e+00 6.26732185e-14
1.68414875e+01 1.04760634e-11 5.67795711e-14 0.00000000e+00 1.04192838e-11 0.00000000e+00 5.67795711e-14
1.74051222e+01 1.05742856e-11 5.14401489e-14 0.00000000e+00 1.05228455e-11 0.00000000e+00 5.14401489e-14
1.79876201e+01 1.06765102e-11 4.66028339e-14 0.00000000e+00 1.06299074e-11 0.00000000e+00 4.66028339e-14
1.85896125e+01 1.08032878e-11 4.22204090e-14 0.00000000e+00 1.07610674e-11 0.00000000e+00 4.22204090e-14
1.92117518e+01 1.08555740e-11 3.82500974e-14 0.00000000e+00 1.08173239e-11 0.00000000e+00 3.82500974e-14
1.98547123e+01 1.08247455e-11 3.46531450e-14 0.00000000e+00 1.07900924e-11 0.00000000e+00 3.46531450e-14
2.05191907e+01 1.07284178e-11 3.13944418e-14 0.00000000e+00 1.06970234e-11 0.00000000e+00 3.13944418e-14
2.12059073e+01 1.05429656e-11 2.84421796e-14 0.00000000e+00 1.05145234e-11 0.00000000e+00 2.84421796e-14
2.19156062e+01 1.04887434e-11 2.57675415e-14 0.00000000e+00 1.04629758e-11 0.00000000e+00 2.57675415e-14
2.26490567e+01 1.04169634e-11 2.33444203e-14 0.00000000e+00 1.03936189e-11 0.00000000e+00 2.33444203e-14
2.34070535e+01 1.02989695e-11 2.11491639e-14 0.00000000e+00 1.02778204e-11 0.00000000e+00 2.11491639e-14
2.41904183e+01 1.01086430e-11 1.91603445e-14 0.00000000e+00 1.00894826e-11 0.00000000e+00 1.91603445e-14
2.50000000e+01 9.93239836e-12 1.73585491e-14 0.00000000e+00 9.91503981e-12 0.00000000e+00 1.73585491e-14
2.75422870e+01 9.28479816e-12 1.29817562e-14 0.00000000e+00 9.27181641e-12 0.00000000e+00 1.29817562e-14
3.16227766e+01 8.01149621e-12 8.57696126e-15 0.00000000e+00 8.00291925e-12 0.00000000e+00 8.57696126e-15
3.63078055e+01 6.55908013e-12 5.66674211e-15 0.00000000e+00 6.55341339e-12 0.00000000e+00 5.66674211e-15
4.16869383e+01 4.99381834e-12 3.74397938e-15 0.00000000e+00 4.99007436e-12 0.00000000e+00 3.74397938e-15
4.78630092e+01 3.54596625e-12 2.47362265e-15 0.00000000e+00 3.54349263e-12 0.00000000e+00 2.47362265e-15
5.49540874e+01 2.37892479e-12 1.63430628e-15 0.00000000e+00 2.37729049e-12 0.00000000e+00 1.63430628e-15
6.30957344e+01 1.51181864e-12 1.07977545e-15 0.00000000e+00 1.51073886e-12 0.00000000e+00 1.07977545e-15
7.24435960e+01 9.16122905e-13 7.13400564e-16 0.00000000e+00 9.15409504e-13 0.00000000e+00 7.13400564e-16
8.31763771e+01 5.36441414e-13 4.71339078e-16 0.00000000e+00 5.35970074e-13 0.00000000e+00 4.71339078e-16
9.54992586e+01 3.05785484e-13 3.11410641e-16 0.00000000e+00 3.05474073e-13 0.00000000e+00 3.11410641e-16
1.09647820e+02 1.70653935e-13 2.05746970e-16 0.00000000e+00 1.70448188e-13 0.00000000e+00 2.05746970e-16
1.25892541e+02 9.48241412e-14 1.35935675e-16 0.00000000e+00 9.46882055e-14 0.00000000e+00 1.35935675e-16
1.44543977e+02 5.22422157e-14 8.98118099e-17 0.00000000e+00 5.21524039e-14 0.00000000e+00 8.98118099e-17
1.65958691e+02 2.74173745e-14 5.93380743e-17 0.00000000e+00 2.73580364e-14 0.00000000e+00 5.93380743e-17
1.90546072e+02 1.43717306e-14 3.92042769e-17 0.00000000e+00 1.43325263e-14 0.00000000e+00 3.92042769e-17
2.18776162e+02 7.51337827e-15 2.59020089e-17 0.00000000e+00 7.48747626e-15 0.00000000e+00 2.59020089e-17
2.51188643e+02 3.91196924e-15 1.71132876e-17 0.00000000e+00 3.89485595e-15 0.00000000e+00 1.71132876e-17
2.88403150e+02 2.02701560e-15 1.13066370e-17 0.00000000e+00 2.01570896e-15 0.00000000e+00 1.13066370e-17
3.31131121e+02 1.04754485e-15 7.47022097e-18 0.00000000e+00 1.04007463e-15 0.00000000e+00 7.47022097e-18
3.80189396e+02 5.39449021e-16 4.93552605e-18 0.00000000e+00 5.34513494e-16 0.00000000e+00 4.93552605e-18
4.36515832e+02 2.77226887e-16 3.26086972e-18 0.00000000e+00 2.73966017e-16 0.00000000e+00 3.26086972e-18
5.01187234e+02 1.42197452e-16 2.15443526e-18 0.00000000e+00 1.40043016e-16 0.00000000e+00 2.15443526e-18
5.75439937e+02 7.28452685e-17 1.42342126e-18 0.00000000e+00 7.14218472e-17 0.00000000e+00 1.42342126e-18
6.60693448e+02 3.72978629e-17 9.40445101e-19 0.00000000e+00 3.63574178e-17 0.00000000e+00 9.40445101e-19
7.58577575e+02 1.90980421e-17 6.21345916e-19 0.00000000e+00 1.84766962e-17 0.00000000e+00 6.21345916e-19
8.70963590e+02 9.78476605e-18 4.10519176e-19 0.00000000e+00 9.37424687e-18 0.00000000e+00 4.10519176e-19
1.00000000e+03 4.74863182e-18 0.00000000e+00 0.00000000e+00 4.74863182e-18 0.00000000e+00 0.00000000e+00
