# column 1: lambda (micron)
# column 2: total flux; lambda*F_lambda (W/m2)
# column 3: direct stellar flux; lambda*F_lambda (W/m2)
# column 4: scattered stellar flux; lambda*F_lambda (W/m2)
# column 5: total dust emission flux; lambda*F_lambda (W/m2)
# column 6: dust emission scattered flux; lambda*F_lambda (W/m2)
# column 7: transparent flux; lambda*F_lambda (W/m2)
1.00000000e-03 5.25445668e-13 5.25445547e-13 1.20591865e-19 0.00000000e+00 0.00000000e+00 5.25636674e-13
1.14815362e-03 6.20122009e-13 6.20121790e-13 2.19320151e-19 0.00000000e+00 0.00000000e+00 6.20419813e-13
1.31825674e-03 7.31847416e-13 7.31847100e-13 3.16341077e-19 0.00000000e+00 0.00000000e+00 7.32294308e-13
1.51356125e-03 8.63720337e-13 8.63719799e-13 5.37628982e-19 0.00000000e+00 0.00000000e+00 8.64342083e-13
1.73780083e-03 1.01945973e-12 1.01945871e-12 1.01944770e-18 0.00000000e+00 0.00000000e+00 1.02020080e-12
1.99526231e-03 1.20300479e-12 1.20300290e-12 1.88377419e-18 0.00000000e+00 0.00000000e+00 1.20416405e-12
2.29086765e-03 1.41984890e-12 1.41984638e-12 2.51885342e-18 0.00000000e+00 0.00000000e+00 1.42129968e-12
2.63026799e-03 1.67553947e-12 1.67553394e-12 5.53565025e-18 0.00000000e+00 0.00000000e+00 1.67758934e-12
3.01995172e-03 1.97710283e-12 1.97709327e-12 9.55202168e-18 0.00000000e+00 0.00000000e+00 1.98009332e-12
3.46736850e-03 2.33298770e-12 2.33297188e-12 1.58192619e-17 0.00000000e+00 0.00000000e+00 2.33714500e-12
3.98107171e-03 2.75297013e-12 2.75294303e-12 2.71003264e-17 0.00000000e+00 0.00000000e+00 2.75858048e-12
4.57088190e-03 3.25162488e-12 3.25156943e-12 5.54501845e-17 0.00000000e+00 0.00000000e+00 3.25600946e-12
5.24807460e-03 3.83657366e-12 3.83644285e-12 1.30808165e-16 0.00000000e+00 0.00000000e+00 3.84313516e-12
6.02559586e-03 4.53071317e-12 4.52660915e-12 4.10401979e-15 0.00000000e+00 0.00000000e+00 4.53613173e-12
6.91830971e-03 5.34291312e-12 5.34111988e-12 1.79323302e-15 0.00000000e+00 0.00000000e+00 5.35408989e-12
7.94328235e-03 6.30511860e-12 6.30246577e-12 2.65282957e-15 1.91673147e-303 2.46538044e-306 6.31954278e-12
9.12010839e-03 7.44001440e-12 7.43672262e-12 3.29177955e-15 8.33555737e-265 1.73810176e-267 7.45908676e-12
1.04712855e-02 8.31370900e-12 8.30421025e-12 9.49874758e-15 3.49736494e-231 8.88002194e-234 8.33078048e-12
1.20226443e-02 8.31134798e-12 8.30264478e-12 8.70320214e-15 5.44441619e-202 1.99019246e-204 8.33078048e-12
1.38038426e-02 8.30915560e-12 8.30078834e-12 8.36726142e-15 1.47542130e-176 6.88486117e-179 8.33078048e-12
1.58489319e-02 8.30960456e-12 8.29850748e-12 1.10970808e-14 1.99310060e-154 1.80630098e-156 8.33078048e-12
1.81970086e-02 8.30911431e-12 8.29640436e-12 1.27099489e-14 3.54166315e-135 3.75117692e-137 8.33078048e-12
2.08929613e-02 8.30915402e-12 8.29465662e-12 1.44974018e-14 1.84219389e-118 2.15959097e-120 8.33078048e-12
2.39883292e-02 8.31008755e-12 8.29239268e-12 1.76948728e-14 6.45741069e-104 1.02260504e-105 8.33078048e-12
2.75422870e-02 8.31000076e-12 8.28976010e-12 2.02406650e-14 2.88847932e-91 5.82206012e-93 8.33078048e-12
3.16227766e-02 8.31173441e-12 8.28718041e-12 2.45540003e-14 2.81385272e-80 6.77439772e-82 8.33078048e-12
3.63078055e-02 8.31230689e-12 8.28515760e-12 2.71492908e-14 9.74479178e-71 2.62508402e-72 8.33078048e-12
4.16869383e-02 8.31676883e-12 8.28340841e-12 3.33604192e-14 1.85411737e-62 6.31433987e-64 8.33078048e-12
4.78630092e-02 8.31834043e-12 8.27858874e-12 3.97516947e-14 2.80942191e-55 1.24532857e-56 8.33078048e-12
5.49540874e-02 8.31719083e-12 8.27189072e-12 4.53001040e-14 4.67896451e-49 2.48917449e-50 8.33078048e-12
6.30957344e-02 8.30912162e-12 8.25511928e-12 5.40023400e-14 1.51202371e-43 9.06004677e-45 8.33078048e-12
7.24435960e-02 8.28810002e-12 8.23529728e-12 5.28027406e-14 8.73105203e-39 4.93403023e-40 8.33078048e-12
8.31763771e-02 8.28678439e-12 8.23705922e-12 4.97251736e-14 8.91608453e-35 4.91993274e-36 8.33078048e-12
9.54992586e-02 8.29294505e-12 8.24222905e-12 5.07160005e-14 2.51350205e-31 1.45387605e-32 8.33078048e-12
1.09647820e-01 7.93531635e-12 7.88552009e-12 4.97962688e-14 2.13045711e-28 1.31389515e-29 7.95583672e-12
1.25892541e-01 7.41817420e-12 7.37075843e-12 4.74157744e-14 6.89712591e-26 4.22103727e-27 7.42481883e-12
1.44543977e-01 6.92781922e-12 6.88740060e-12 4.04186117e-14 9.36347782e-24 5.41881292e-25 6.92924411e-12
1.65958691e-01 6.47217786e-12 6.43258218e-12 3.95956846e-14 4.73641994e-22 2.96647161e-23 6.46674687e-12
1.90546072e-01 6.04507387e-12 6.00110954e-12 4.39643175e-14 9.99808715e-21 7.56859574e-22 6.03511933e-12
2.18776162e-01 5.63738569e-12 5.59508755e-12 4.22980242e-14 1.18421286e-19 9.39023001e-21 5.63230107e-12
2.51188643e-01 5.27412791e-12 5.22857607e-12 4.55504089e-14 1.43306360e-18 1.33423954e-19 5.25636919e-12
2.88403150e-01 4.92540772e-12 4.88398467e-12 4.14111326e-14 1.19175613e-17 1.09505955e-18 4.90552916e-12
3.31131121e-01 4.59640133e-12 4.56057397e-12 3.57593281e-14 6.80316510e-17 5.89590682e-18 4.57810618e-12
3.80189396e-01 4.29127047e-12 4.25816558e-12 3.28219848e-14 2.82902587e-16 2.36162537e-17 4.27253728e-12
4.36515832e-01 4.00465333e-12 3.97568819e-12 2.80704554e-14 8.94685174e-16 7.41304865e-17 3.98736380e-12
5.01187234e-01 3.74084986e-12 3.71186756e-12 2.67542428e-14 2.22805506e-15 1.80458759e-16 3.72122441e-12
5.75439937e-01 3.49267720e-12 3.46542752e-12 2.26839153e-14 4.56576306e-15 3.57559129e-16 3.47284869e-12
6.60693448e-01 3.26381810e-12 3.23521605e-12 2.06140236e-14 7.98802623e-15 6.06805008e-16 3.24105097e-12
7.58577575e-01 3.05118060e-12 3.02019285e-12 1.84902447e-14 1.24975055e-14 9.39013663e-16 3.02472476e-12
8.70963590e-01 2.85308003e-12 2.81939552e-12 1.57355232e-14 1.79489945e-14 1.27503823e-15 2.82283739e-12
1.00000000e+00 2.66984905e-12 2.63185338e-12 1.35096145e-14 2.44860602e-14 1.66170406e-15 2.63442513e-12
1.14815362e+00 2.50110581e-12 2.45670114e-12 1.08099388e-14 3.35947272e-14 2.12629466e-15 2.45858859e-12
1.31825674e+00 2.34977077e-12 2.29312724e-12 8.58769453e-15 4.80558290e-14 2.85262948e-15 2.29448837e-12
1.51356125e+00 2.21816846e-12 2.14036949e-12 6.71320583e-15 7.10857635e-14 3.91182130e-15 2.14134114e-12
1.73780083e+00 2.10799959e-12 1.99773350e-12 5.30711564e-15 1.04958975e-13 5.09614379e-15 1.99841583e-12
1.99526231e+00 2.01729776e-12 1.86455853e-12 3.86337684e-15 1.48875850e-13 6.02676023e-15 1.86503017e-12
2.29086765e+00 1.94081021e-12 1.74022243e-12 2.55653598e-15 1.98031242e-13 6.48363545e-15 1.74054743e-12
2.63026799e+00 1.87189710e-12 1.62414733e-12 1.80533937e-15 2.45944425e-13 6.26468823e-15 1.62437337e-12
3.01995172e+00 1.80243736e-12 1.51579420e-12 1.23667593e-15 2.85406489e-13 5.53895518e-15 1.51595343e-12
3.46736850e+00 1.72593757e-12 1.41465606e-12 7.75260763e-16 3.10506252e-13 4.60601964e-15 1.41477006e-12
3.98107171e+00 1.64042979e-12 1.32025758e-12 5.36916703e-16 3.19635291e-13 3.54206366e-15 1.32034025e-12
4.57088190e+00 1.54524910e-12 1.23215245e-12 3.71275615e-16 3.12725375e-13 2.55045238e-15 1.23221321e-12
5.24807460e+00 1.31316404e-12 1.01881110e-12 2.12542290e-16 2.94140393e-13 1.67556382e-15 1.01885146e-12
6.02559586e+00 9.43633114e-13 6.73126328e-13 9.21727237e-17 2.70414614e-13 1.03991265e-15 6.73148485e-13
6.70000000e+00 7.38810790e-13 4.89636530e-13 4.77347905e-17 2.49126525e-13 6.82921927e-16 4.89650796e-13
6.92422916e+00 6.85922328e-13 4.43592673e-13 3.71128078e-17 2.42292542e-13 5.87296596e-16 4.43605145e-13
7.15596261e+00 6.39623664e-13 4.01878421e-13 2.97942289e-17 2.37715449e-13 5.06858175e-16 4.01889522e-13
7.39545150e+00 6.02505866e-13 3.64086445e-13 2.18788619e-17 2.38397542e-13 4.33883222e-16 3.64096743e-13
7.64295536e+00 5.86262430e-13 3.29847281e-13 1.50787978e-17 2.56400071e-13 3.60127307e-16 3.29857910e-13
7.89874245e+00 5.98689344e-13 2.98826378e-13 9.42510752e-18 2.99853541e-13 2.85659361e-16 2.98838820e-13
8.16308998e+00 6.34955907e-13 2.70721474e-13 5.45556882e-18 3.64228978e-13 2.26659214e-16 2.70736695e-13
8.43628443e+00 7.00560860e-13 2.45258072e-13 3.10307713e-18 4.55299685e-13 1.74004744e-16 2.45277229e-13
8.71862190e+00 7.41521290e-13 2.22190589e-13 2.00150075e-18 5.19328699e-13 1.36084459e-16 2.22211915e-13
9.01040836e+00 7.90193476e-13 2.01292205e-13 1.33723346e-18 5.88899933e-13 1.02049851e-16 2.01315610e-13
9.31196005e+00 8.29271173e-13 1.82359754e-13 0.00000000e+00 6.46911419e-13 0.00000000e+00 1.82384346e-13
9.62360379e+00 8.05879728e-13 1.65210469e-13 0.00000000e+00 6.40669259e-13 0.00000000e+00 1.65233336e-13
9.94567731e+00 7.45524297e-13 1.49675729e-13 0.00000000e+00 5.95848568e-13 0.00000000e+00 1.49695167e-13
1.02785297e+01 6.71741456e-13 1.35602242e-13 0.00000000e+00 5.36139214e-13 0.00000000e+00 1.35618173e-13
1.06225216e+01 6.04040997e-13 1.22852030e-13 0.00000000e+00 4.81188967e-13 0.00000000e+00 1.22864947e-13
1.09780260e+01 5.32067302e-13 1.11300911e-13 0.00000000e+00 4.20766392e-13 0.00000000e+00 1.11311006e-13
1.13454280e+01 4.71942952e-13 1.00835649e-13 0.00000000e+00 3.71107303e-13 0.00000000e+00 1.00843571e-13
1.17251259e+01 4.19160806e-13 9.13542142e-14 0.00000000e+00 3.27806592e-13 0.00000000e+00 9.13604705e-14
1.21175312e+01 3.72597924e-13 8.27642234e-14 0.00000000e+00 2.89833701e-13 0.00000000e+00 8.27691389e-14
1.25230691e+01 3.30999137e-13 7.49818651e-14 0.00000000e+00 2.56017271e-13 0.00000000e+00 7.49857166e-14
1.29421791e+01 2.97139932e-13 6.79311908e-14 0.00000000e+00 2.29208741e-13 0.00000000e+00 6.79342298e-14
1.33753155e+01 2.67563688e-13 6.15434338e-14 0.00000000e+00 2.06020254e-13 0.00000000e+00 6.15458488e-14
1.38229477e+01 2.46782409e-13 5.57562090e-14 0.00000000e+00 1.91026200e-13 0.00000000e+00 5.57582167e-14
1.42855609e+01 2.32519139e-13 5.05130954e-14 0.00000000e+00 1.82006044e-13 0.00000000e+00 5.05148403e-14
1.47636563e+01 2.30323374e-13 4.57628832e-14 0.00000000e+00 1.84560491e-13 0.00000000e+00 4.57645392e-14
1.52577522e+01 2.30135456e-13 4.14593455e-14 0.00000000e+00 1.88676111e-13 0.00000000e+00 4.14609457e-14
1.57683840e+01 2.32146795e-13 3.75604864e-14 0.00000000e+00 1.94586308e-13 0.00000000e+00 3.75620523e-14
1.62961051e+01 2.35246325e-13 3.40282714e-14 0.00000000e+00 2.01218053e-13 0.00000000e+00 3.40298020e-14
1.68414875e+01 2.38246050e-13 3.08282238e-14 0.00000000e+00 2.07417826e-13 0.00000000e+00 3.08297166e-14
1.74051222e+01 2.38590898e-13 2.79291424e-14 0.00000000e+00 2.10661756e-13 0.00000000e+00 2.79305599e-14
1.79876201e+01 2.36653463e-13 2.53027098e-14 0.00000000e+00 2.11350754e-13 0.00000000e+00 2.53040334e-14
1.85896125e+01 2.30558806e-13 2.29233019e-14 0.00000000e+00 2.07635505e-13 0.00000000e+00 2.29244994e-14
1.92117518e+01 2.22291100e-13 2.07676795e-14 0.00000000e+00 2.01523421e-13 0.00000000e+00 2.07687314e-14
1.98547123e+01 2.12597017e-13 1.88147811e-14 0.00000000e+00 1.93782236e-13 0.00000000e+00 1.88156870e-14
2.05191907e+01 2.02236213e-13 1.70455301e-14 0.00000000e+00 1.85190682e-13 0.00000000e+00 1.70463024e-14
2.12059073e+01 1.92154591e-13 1.54426485e-14 0.00000000e+00 1.76711942e-13 0.00000000e+00 1.54433068e-14
2.19156062e+01 1.83891193e-13 1.39904893e-14 0.00000000e+00 1.69900703e-13 0.00000000e+00 1.39910532e-14
2.26490567e+01 1.76579906e-13 1.26748825e-14 0.00000000e+00 1.63905023e-13 0.00000000e+00 1.26753663e-14
2.34070535e+01 1.69696710e-13 1.14829877e-14 0.00000000e+00 1.58213723e-13 0.00000000e+00 1.14834036e-14
2.41904183e+01 1.63531051e-13 1.04031720e-14 0.00000000e+00 1.53127879e-13 0.00000000e+00 1.04035303e-14
2.50000000e+01 1.57497741e-13 9.42489649e-15 0.00000000e+00 1.48072844e-13 0.00000000e+00 9.42520591e-15
2.75422870e+01 1.42691012e-13 7.04852817e-15 0.00000000e+00 1.35642484e-13 0.00000000e+00 7.04872996e-15
3.16227766e+01 1.24335458e-13 4.65693884e-15 0.00000000e+00 1.19678519e-13 0.00000000e+00 4.65704970e-15
3.63078055e+01 1.05136893e-13 3.07682163e-15 0.00000000e+00 1.02060071e-13 0.00000000e+00 3.07688223e-15
4.16869383e+01 8.52493648e-14 2.03284369e-15 0.00000000e+00 8.32165211e-14 0.00000000e+00 2.03287593e-15
4.78630092e+01 6.55902247e-14 1.34309119e-15 0.00000000e+00 6.42471335e-14 0.00000000e+00 1.34310781e-15
5.49540874e+01 4.80144611e-14 8.87374141e-16 0.00000000e+00 4.71270869e-14 0.00000000e+00 8.87382527e-16
6.30957344e+01 3.35794279e-14 5.86283644e-16 0.00000000e+00 3.29931443e-14 0.00000000e+00 5.86287821e-16
7.24435960e+01 2.25159479e-14 3.87354456e-16 0.00000000e+00 2.21285935e-14 0.00000000e+00 3.87356522e-16
8.31763771e+01 1.45565965e-14 2.55922896e-16 0.00000000e+00 1.43006736e-14 0.00000000e+00 2.55923916e-16
9.54992586e+01 9.12720814e-15 1.69086750e-16 0.00000000e+00 8.95812139e-15 0.00000000e+00 1.69087255e-16
1.09647820e+02 5.57214566e-15 1.11714591e-16 0.00000000e+00 5.46043107e-15 0.00000000e+00 1.11714841e-16
1.25892541e+02 3.36155031e-15 7.38091373e-17 0.00000000e+00 3.28774117e-15 0.00000000e+00 7.38092637e-17
1.44543977e+02 1.99398643e-15 4.87652327e-17 0.00000000e+00 1.94522119e-15 0.00000000e+00 4.87652969e-17
1.65958691e+02 1.11984780e-15 3.22188807e-17 0.00000000e+00 1.08762892e-15 0.00000000e+00 3.22189122e-17
1.90546072e+02 6.24300452e-16 2.12868086e-17 0.00000000e+00 6.03013643e-16 0.00000000e+00 2.12868242e-17
2.18776162e+02 3.45069776e-16 1.40640575e-17 0.00000000e+00 3.31005719e-16 0.00000000e+00 1.40640653e-17
2.51188643e+02 1.89100731e-16 9.29203189e-18 0.00000000e+00 1.79808699e-16 0.00000000e+00 9.29203577e-18
2.88403150e+02 1.02766001e-16 6.13918521e-18 0.00000000e+00 9.66268154e-17 0.00000000e+00 6.13918715e-18
3.31131121e+02 5.55715403e-17 4.05611975e-18 0.00000000e+00 5.15154205e-17 0.00000000e+00 4.05612073e-18
3.80189396e+02 2.99163747e-17 2.67985190e-18 0.00000000e+00 2.72365227e-17 0.00000000e+00 2.67985239e-18
4.36515832e+02 1.60799935e-17 1.77056067e-18 0.00000000e+00 1.43094329e-17 0.00000000e+00 1.77056092e-18
5.01187234e+02 8.64232523e-18 1.16979787e-18 0.00000000e+00 7.47252736e-18 0.00000000e+00 1.16979800e-18
5.75439937e+02 4.65529566e-18 7.72877810e-19 0.00000000e+00 3.88241785e-18 0.00000000e+00 7.72877871e-19
6.60693448e+02 2.51902521e-18 5.10635315e-19 0.00000000e+00 2.00838990e-18 0.00000000e+00 5.10635346e-19
7.58577575e+02 1.37238165e-18 3.37373412e-19 0.00000000e+00 1.03500823e-18 0.00000000e+00 3.37373427e-19
8.70963590e+02 7.54414804e-19 2.22900405e-19 0.00000000e+00 5.31514399e-19 0.00000000e+00 2.22900413e-19
1.00000000e+03 2.72090929e-19 0.00000000e+00 0.00000000e+00 2.72090929e-19 0.00000000e+00 0.00000000e+00
