# column 1: lambda (micron)
# column 2: total flux; lambda*F_lambda (W/m2)
# column 3: direct stellar flux; lambda*F_lambda (W/m2)
# column 4: scattered stellar flux; lambda*F_lambda (W/m2)
# column 5: total dust emission flux; lambda*F_lambda (W/m2)
# column 6: dust emission scattered flux; lambda*F_lambda (W/m2)
# column 7: transparent flux; lambda*F_lambda (W/m2)
1.00000000e-03 2.04598939e-13 2.04595712e-13 3.22737780e-18 0.00000000e+00 0.00000000e+00 2.06075710e-13
1.14815362e-03 2.40939501e-13 2.40930182e-13 9.31829532e-18 0.00000000e+00 0.00000000e+00 2.43235413e-13
1.31825674e-03 2.83653890e-13 2.83640826e-13 1.30641180e-17 0.00000000e+00 0.00000000e+00 2.87095777e-13
1.51356125e-03 3.34080433e-13 3.34062487e-13 1.79459999e-17 0.00000000e+00 0.00000000e+00 3.38865070e-13
1.73780083e-03 3.94284177e-13 3.94242683e-13 4.14936277e-17 0.00000000e+00 0.00000000e+00 3.99969435e-13
1.99526231e-03 4.63293439e-13 4.63151333e-13 1.42105979e-16 0.00000000e+00 0.00000000e+00 4.72092178e-13
2.29086765e-03 5.46207276e-13 5.46035854e-13 1.71421387e-16 0.00000000e+00 0.00000000e+00 5.57220139e-13
2.63026799e-03 6.42098474e-13 6.41910544e-13 1.87929037e-16 0.00000000e+00 0.00000000e+00 6.57698429e-13
3.01995172e-03 7.53613839e-13 7.53313767e-13 3.00072534e-16 0.00000000e+00 0.00000000e+00 7.76295028e-13
3.46736850e-03 9.35916304e-13 8.84390559e-13 5.15257444e-14 0.00000000e+00 0.00000000e+00 9.16277040e-13
3.98107171e-03 1.04767932e-12 1.03852943e-12 9.14989682e-15 0.00000000e+00 0.00000000e+00 1.08150070e-12
4.57088190e-03 1.24440617e-12 1.24245724e-12 1.94892510e-15 0.00000000e+00 0.00000000e+00 1.27651759e-12
5.24807460e-03 1.48769430e-12 1.45554353e-12 3.21507760e-14 0.00000000e+00 0.00000000e+00 1.50670006e-12
6.02559586e-03 1.73117640e-12 1.70584136e-12 2.53350387e-14 0.00000000e+00 0.00000000e+00 1.77838917e-12
6.91830971e-03 2.01963703e-12 2.00055574e-12 1.90812920e-14 0.00000000e+00 0.00000000e+00 2.09906943e-12
7.94328235e-03 2.40764220e-12 2.34820544e-12 5.94367610e-14 0.00000000e+00 0.00000000e+00 2.47757497e-12
9.12010839e-03 2.80244353e-12 2.75537779e-12 4.70657392e-14 0.00000000e+00 0.00000000e+00 2.92433286e-12
1.04712855e-02 3.16694993e-12 3.06570711e-12 1.01242814e-13 0.00000000e+00 0.00000000e+00 3.26608014e-12
1.20226443e-02 3.16856919e-12 3.05427327e-12 1.14295929e-13 0.00000000e+00 0.00000000e+00 3.26608014e-12
1.38038426e-02 3.15108207e-12 3.04076674e-12 1.10315336e-13 1.46462645e-289 2.14700400e-290 3.26608014e-12
1.58489319e-02 3.18990519e-12 3.02425002e-12 1.65655167e-13 9.88570113e-253 1.43214610e-253 3.26608014e-12
1.81970086e-02 3.16896280e-12 3.00909585e-12 1.59866942e-13 1.10254634e-220 1.43780683e-221 3.26608014e-12
2.08929613e-02 3.15172727e-12 2.99655730e-12 1.55169970e-13 8.01370178e-193 9.51698157e-194 3.26608014e-12
2.39883292e-02 3.13684204e-12 2.98038921e-12 1.56452832e-13 1.42359694e-168 1.49096430e-169 3.26608014e-12
2.75422870e-02 3.10894897e-12 2.96169261e-12 1.47256359e-13 1.83284790e-147 2.02057788e-148 3.26608014e-12
3.16227766e-02 3.03500668e-12 2.94347974e-12 9.15269361e-14 4.06566751e-129 4.12111460e-130 3.26608014e-12
3.63078055e-02 3.03121852e-12 2.92927287e-12 1.01945651e-13 3.65233919e-113 3.59839231e-114 3.26608014e-12
4.16869383e-02 3.00165147e-12 2.91704031e-12 8.46111556e-14 2.70088647e-99 2.71551052e-100 3.26608014e-12
4.78630092e-02 2.94893770e-12 2.88358539e-12 6.53523122e-14 2.91080684e-87 2.85518429e-88 3.26608014e-12
5.49540874e-02 2.89807490e-12 2.83769683e-12 6.03780696e-14 8.27410703e-77 8.21446094e-78 3.26608014e-12
6.30957344e-02 2.77131747e-12 2.72581699e-12 4.55004861e-14 1.25067679e-67 1.24722381e-68 3.26608014e-12
7.24435960e-02 2.63443542e-12 2.59898688e-12 3.54485409e-14 1.12657288e-59 1.04621655e-60 3.26608014e-12
8.31763771e-02 2.64330812e-12 2.61002956e-12 3.32785671e-14 7.38741004e-53 6.78853602e-54 3.26608014e-12
9.54992586e-02 2.67869026e-12 2.64268848e-12 3.60017785e-14 5.79740984e-47 5.38737696e-48 3.26608014e-12
1.09647820e-01 2.65588309e-12 2.61585653e-12 4.00265632e-14 6.82195499e-42 6.64481308e-43 3.11908354e-12
1.25892541e-01 2.56203736e-12 2.51841511e-12 4.36222558e-14 1.62884341e-37 1.61296808e-38 2.91089813e-12
1.44543977e-01 2.45141827e-12 2.40930850e-12 4.21097725e-14 9.41748434e-34 9.35150463e-35 2.71660820e-12
1.65958691e-01 2.32632418e-12 2.28261520e-12 4.37089828e-14 1.24632163e-30 1.35662112e-31 2.53528629e-12
1.90546072e-01 2.15741706e-12 2.11536222e-12 4.20548383e-14 4.36206444e-28 5.28920323e-29 2.36606683e-12
2.18776162e-01 1.97160628e-12 1.93628012e-12 3.53261615e-14 5.80033275e-26 7.10020123e-27 2.20814205e-12
2.51188643e-01 1.89588550e-12 1.85521737e-12 4.06681313e-14 6.29701636e-24 9.20559018e-25 2.06075806e-12
2.88403150e-01 1.80310726e-12 1.76254959e-12 4.05576717e-14 3.47102252e-22 4.98739279e-23 1.92321132e-12
3.31131121e-01 1.70147966e-12 1.66341741e-12 3.80622362e-14 1.04198571e-20 1.47629535e-21 1.79484524e-12
3.80189396e-01 1.60385862e-12 1.56684248e-12 3.70159501e-14 1.86287460e-19 2.71034459e-20 1.67504704e-12
4.36515832e-01 1.50840301e-12 1.47498102e-12 3.34198475e-14 2.14330303e-18 3.15898679e-19 1.56324485e-12
5.01187234e-01 1.41977021e-12 1.38789615e-12 3.18567952e-14 1.72679222e-17 2.69279226e-18 1.45890498e-12
5.75439937e-01 1.33382001e-12 1.30501108e-12 2.87053184e-14 1.03610923e-16 1.71357654e-17 1.36152935e-12
6.60693448e-01 1.25240766e-12 1.22607513e-12 2.58455073e-14 4.87015875e-16 8.40333887e-17 1.27065312e-12
7.58577575e-01 1.17637193e-12 1.15112117e-12 2.33760159e-14 1.87474275e-15 3.28691012e-16 1.18584249e-12
8.70963590e-01 1.10762453e-12 1.08025355e-12 2.12668718e-14 6.10411031e-15 1.03748308e-15 1.10669260e-12
1.00000000e+00 1.04843083e-12 1.01302532e-12 1.85124948e-14 1.68930158e-14 2.66657783e-15 1.03282563e-12
1.14815362e+00 1.00518000e-12 9.49328804e-13 1.49736224e-14 4.08775709e-14 5.70675059e-15 9.63888963e-13
1.31825674e+00 9.88423483e-13 8.89036237e-13 1.18337396e-14 8.75535062e-14 1.03547429e-14 8.99553520e-13
1.51356125e+00 1.00754705e-12 8.31994518e-13 9.86938510e-15 1.65683147e-13 1.60861056e-14 8.39512191e-13
1.73780083e+00 1.05853113e-12 7.78193569e-13 7.29364332e-15 2.73043913e-13 2.09046735e-14 7.83478363e-13
1.99526231e+00 1.13050962e-12 7.27528567e-13 5.38065415e-15 3.97600400e-13 2.26905461e-14 7.31184552e-13
2.29086765e+00 1.19830860e-12 6.79860349e-13 3.58699505e-15 5.14861260e-13 2.13749507e-14 6.82381128e-13
2.63026799e+00 1.24213348e-12 6.35081090e-13 2.46694240e-15 6.04585452e-13 1.80363846e-14 6.36835122e-13
3.01995172e+00 1.24517349e-12 5.93093072e-13 1.65617899e-15 6.50424240e-13 1.37745527e-14 5.94329117e-13
3.46736850e+00 1.21018626e-12 5.53775048e-13 1.14316717e-15 6.55268044e-13 1.00171290e-14 5.54660204e-13
3.98107171e+00 1.13896048e-12 5.16997085e-13 7.31478597e-16 6.21231913e-13 6.76159175e-15 5.17639021e-13
4.57088190e+00 1.04840596e-12 4.82616962e-13 4.65418691e-16 5.65323577e-13 4.27385286e-15 4.83088843e-13
5.24807460e+00 9.00439869e-13 3.99126961e-13 2.64964636e-16 5.01047943e-13 2.64905436e-15 3.99440428e-13
6.02559586e+00 7.03797943e-13 2.63735559e-13 1.11676876e-16 4.39950707e-13 1.55814183e-15 2.63907674e-13
6.70000000e+00 5.87555625e-13 1.91856637e-13 5.48513227e-17 3.95644137e-13 9.80501945e-16 1.91967457e-13
6.92422916e+00 5.55699183e-13 1.73818391e-13 4.47567454e-17 3.81836035e-13 8.50218889e-16 1.73915272e-13
7.15596261e+00 5.29847431e-13 1.57474437e-13 3.42398206e-17 3.72338754e-13 7.25809444e-16 1.57560674e-13
7.39545150e+00 5.16174570e-13 1.42664033e-13 2.62934088e-17 3.73484244e-13 6.07286275e-16 1.42744025e-13
7.64295536e+00 5.31346790e-13 1.29238133e-13 1.79019169e-17 4.02090755e-13 5.07996061e-16 1.29320701e-13
7.89874245e+00 5.88533692e-13 1.17063037e-13 1.15347733e-17 4.71459120e-13 4.10666454e-16 1.17159675e-13
8.16308998e+00 6.76564949e-13 1.06024044e-13 6.55082802e-18 5.70534355e-13 3.23130937e-16 1.06142245e-13
8.43628443e+00 7.98759560e-13 9.60121248e-14 3.85089281e-18 7.02743584e-13 2.49715655e-16 9.61608686e-14
8.71862190e+00 8.76086834e-13 8.69525678e-14 2.36533810e-18 7.89131901e-13 1.91935823e-16 8.71181185e-14
9.01040836e+00 9.53490767e-13 7.87440736e-14 1.49861862e-18 8.74745195e-13 1.46314006e-16 7.89257281e-14
9.31196005e+00 1.00591155e-12 7.13128898e-14 0.00000000e+00 9.34598656e-13 0.00000000e+00 7.15037315e-14
9.62360379e+00 9.84168872e-13 6.46022386e-14 0.00000000e+00 9.19566633e-13 0.00000000e+00 6.47796826e-14
9.94567731e+00 9.06491472e-13 5.85370962e-14 0.00000000e+00 8.47954376e-13 0.00000000e+00 5.86879481e-14
1.02785297e+01 8.15502439e-13 5.30454159e-14 0.00000000e+00 7.62457023e-13 0.00000000e+00 5.31690665e-14
1.06225216e+01 7.34639153e-13 4.80689003e-14 0.00000000e+00 6.86570252e-13 0.00000000e+00 4.81691679e-14
1.09780260e+01 6.46402791e-13 4.35610721e-14 0.00000000e+00 6.02841719e-13 0.00000000e+00 4.36394486e-14
1.13454280e+01 5.69509184e-13 3.94741853e-14 0.00000000e+00 5.30034999e-13 0.00000000e+00 3.95356937e-14
1.17251259e+01 5.03973777e-13 3.57692662e-14 0.00000000e+00 4.68204511e-13 0.00000000e+00 3.58178467e-14
1.21175312e+01 4.46227925e-13 3.24114449e-14 0.00000000e+00 4.13816480e-13 0.00000000e+00 3.24496176e-14
1.25230691e+01 3.96112147e-13 2.93682168e-14 0.00000000e+00 3.66743930e-13 0.00000000e+00 2.93981291e-14
1.29421791e+01 3.53863690e-13 2.66099925e-14 0.00000000e+00 3.27253697e-13 0.00000000e+00 2.66335956e-14
1.33753155e+01 3.16972521e-13 2.41102750e-14 0.00000000e+00 2.92862246e-13 0.00000000e+00 2.41290327e-14
1.38229477e+01 2.92898338e-13 2.18443986e-14 0.00000000e+00 2.71053940e-13 0.00000000e+00 2.18599931e-14
1.42855609e+01 2.77837923e-13 1.97907751e-14 0.00000000e+00 2.58047148e-13 0.00000000e+00 1.98043289e-14
1.47636563e+01 2.77052538e-13 1.79291113e-14 0.00000000e+00 2.59123427e-13 0.00000000e+00 1.79419747e-14
1.52577522e+01 2.78628869e-13 1.62423233e-14 0.00000000e+00 2.62386546e-13 0.00000000e+00 1.62547521e-14
1.57683840e+01 2.84070213e-13 1.47140293e-14 0.00000000e+00 2.69356184e-13 0.00000000e+00 1.47261920e-14
1.62961051e+01 2.87626701e-13 1.33294862e-14 0.00000000e+00 2.74297215e-13 0.00000000e+00 1.33413743e-14
1.68414875e+01 2.91207157e-13 1.20751881e-14 0.00000000e+00 2.79131968e-13 0.00000000e+00 1.20867817e-14
1.74051222e+01 2.92527717e-13 1.09391588e-14 0.00000000e+00 2.81588558e-13 0.00000000e+00 1.09501681e-14
1.79876201e+01 2.89317850e-13 9.91016003e-15 0.00000000e+00 2.79407690e-13 0.00000000e+00 9.92043915e-15
1.85896125e+01 2.82177452e-13 8.97824300e-15 0.00000000e+00 2.73199209e-13 0.00000000e+00 8.98754353e-15
1.92117518e+01 2.71181569e-13 8.13420589e-15 0.00000000e+00 2.63047363e-13 0.00000000e+00 8.14237531e-15
1.98547123e+01 2.58044978e-13 7.36964893e-15 0.00000000e+00 2.50675329e-13 0.00000000e+00 7.37668479e-15
2.05191907e+01 2.44696983e-13 6.67699957e-15 0.00000000e+00 2.38019984e-13 0.00000000e+00 6.68299807e-15
2.12059073e+01 2.32436382e-13 6.04943078e-15 0.00000000e+00 2.26386951e-13 0.00000000e+00 6.05454408e-15
2.19156062e+01 2.21637705e-13 5.48080852e-15 0.00000000e+00 2.16156897e-13 0.00000000e+00 5.48518847e-15
2.26490567e+01 2.11142156e-13 4.96561601e-15 0.00000000e+00 2.06176540e-13 0.00000000e+00 4.96937378e-15
2.34070535e+01 2.02232845e-13 4.49883521e-15 0.00000000e+00 1.97734010e-13 0.00000000e+00 4.50206513e-15
2.41904183e+01 1.93876677e-13 4.07591788e-15 0.00000000e+00 1.89800759e-13 0.00000000e+00 4.07870113e-15
2.50000000e+01 1.85833549e-13 3.69274581e-15 0.00000000e+00 1.82140803e-13 0.00000000e+00 3.69514932e-15
2.75422870e+01 1.64569459e-13 2.76188509e-15 0.00000000e+00 1.61807574e-13 0.00000000e+00 2.76345259e-15
3.16227766e+01 1.36968401e-13 1.82493378e-15 0.00000000e+00 1.35143467e-13 0.00000000e+00 1.82579502e-15
3.63078055e+01 1.10522738e-13 1.20582010e-15 0.00000000e+00 1.09316918e-13 0.00000000e+00 1.20629081e-15
4.16869383e+01 8.47907120e-14 7.96737984e-16 0.00000000e+00 8.39939740e-14 0.00000000e+00 7.96988434e-16
4.78630092e+01 6.14845614e-14 5.26435918e-16 0.00000000e+00 6.09581255e-14 0.00000000e+00 5.26565037e-16
5.49540874e+01 4.26111278e-14 3.47832919e-16 0.00000000e+00 4.22632949e-14 0.00000000e+00 3.47898070e-16
6.30957344e+01 2.83613293e-14 2.29821521e-16 0.00000000e+00 2.81315078e-14 0.00000000e+00 2.29853975e-16
7.24435960e+01 1.82527769e-14 1.51846964e-16 0.00000000e+00 1.81009300e-14 0.00000000e+00 1.51863015e-16
8.31763771e+01 1.14220436e-14 1.00326973e-16 0.00000000e+00 1.13217167e-14 0.00000000e+00 1.00334899e-16
9.54992586e+01 6.98362653e-15 6.62866874e-17 0.00000000e+00 6.91733984e-15 0.00000000e+00 6.62906105e-17
1.09647820e+02 4.18535643e-15 4.37958235e-17 0.00000000e+00 4.14156061e-15 0.00000000e+00 4.37977720e-17
1.25892541e+02 2.49031943e-15 2.89359188e-17 0.00000000e+00 2.46138351e-15 0.00000000e+00 2.89369010e-17
1.44543977e+02 1.46299575e-15 1.91179221e-17 0.00000000e+00 1.44387783e-15 0.00000000e+00 1.91184209e-17
1.65958691e+02 8.14151457e-16 1.26311709e-17 0.00000000e+00 8.01520286e-16 0.00000000e+00 1.26314154e-17
1.90546072e+02 4.50550819e-16 8.34537231e-18 0.00000000e+00 4.42205447e-16 0.00000000e+00 8.34549342e-18
2.18776162e+02 2.47492954e-16 5.51375249e-18 0.00000000e+00 2.41979202e-16 0.00000000e+00 5.51381282e-18
2.51188643e+02 1.34814233e-16 3.64290985e-18 0.00000000e+00 1.31171323e-16 0.00000000e+00 3.64294000e-18
2.88403150e+02 7.28035444e-17 2.40685151e-18 0.00000000e+00 7.03966928e-17 0.00000000e+00 2.40686659e-18
3.31131121e+02 3.90901490e-17 1.59019343e-18 0.00000000e+00 3.74999556e-17 0.00000000e+00 1.59020099e-18
3.80189396e+02 2.08683524e-17 1.05063158e-18 0.00000000e+00 1.98177208e-17 0.00000000e+00 1.05063537e-18
4.36515832e+02 1.11034681e-17 6.94146005e-19 0.00000000e+00 1.04093221e-17 0.00000000e+00 6.94147908e-19
5.01187234e+02 5.89403852e-18 4.58618019e-19 0.00000000e+00 5.43542050e-18 0.00000000e+00 4.58618975e-19
5.75439937e+02 3.12712815e-18 3.03006072e-19 0.00000000e+00 2.82412208e-18 0.00000000e+00 3.03006552e-19
6.60693448e+02 1.66123827e-18 2.00194202e-19 0.00000000e+00 1.46104407e-18 0.00000000e+00 2.00194443e-19
7.58577575e+02 8.85308204e-19 1.32267036e-19 0.00000000e+00 7.53041168e-19 0.00000000e+00 1.32267157e-19
8.70963590e+02 4.74158876e-19 8.73879832e-20 0.00000000e+00 3.86770892e-19 0.00000000e+00 8.73880441e-20
1.00000000e+03 1.98026093e-19 0.00000000e+00 0.00000000e+00 1.98026093e-19 0.00000000e+00 0.00000000e+00
