# column 1: lambda (micron)
# column 2: total flux; lambda*F_lambda (W/m2)
# column 3: direct stellar flux; lambda*F_lambda (W/m2)
# column 4: scattered stellar flux; lambda*F_lambda (W/m2)
# column 5: total dust emission flux; lambda*F_lambda (W/m2)
# column 6: dust emission scattered flux; lambda*F_lambda (W/m2)
# column 7: transparent flux; lambda*F_lambda (W/m2)
1.00000000e-03 1.07335632e-12 1.07335627e-12 5.45407635e-20 0.00000000e+00 0.00000000e+00 1.07335627e-12
1.14815362e-03 1.26690465e-12 1.26690456e-12 9.01803169e-20 0.00000000e+00 0.00000000e+00 1.26690456e-12
1.31825674e-03 1.49535373e-12 1.49535359e-12 1.40662494e-19 0.00000000e+00 0.00000000e+00 1.49535359e-12
1.51356125e-03 1.76499692e-12 1.76499670e-12 2.15608177e-19 0.00000000e+00 0.00000000e+00 1.76499670e-12
1.73780083e-03 2.08326240e-12 2.08326203e-12 3.69513791e-19 0.00000000e+00 0.00000000e+00 2.08326203e-12
1.99526231e-03 2.45891788e-12 2.45891716e-12 7.20359718e-19 0.00000000e+00 0.00000000e+00 2.45891716e-12
2.29086765e-03 2.90231184e-12 2.90231066e-12 1.17165867e-18 0.00000000e+00 0.00000000e+00 2.90231066e-12
2.63026799e-03 3.42565935e-12 3.42565717e-12 2.17805302e-18 0.00000000e+00 0.00000000e+00 3.42565717e-12
3.01995172e-03 4.04337774e-12 4.04337385e-12 3.89300476e-18 0.00000000e+00 0.00000000e+00 4.04337385e-12
3.46736850e-03 4.77248449e-12 4.77247759e-12 6.90404727e-18 0.00000000e+00 0.00000000e+00 4.77247759e-12
3.98107171e-03 5.63306422e-12 5.63305378e-12 1.04433756e-17 0.00000000e+00 0.00000000e+00 5.63305378e-12
4.57088190e-03 6.64883246e-12 6.64880962e-12 2.28424540e-17 0.00000000e+00 0.00000000e+00 6.64880962e-12
5.24807460e-03 7.84776876e-12 7.84772720e-12 4.15640403e-17 0.00000000e+00 0.00000000e+00 7.84772720e-12
6.02559586e-03 9.26309616e-12 9.26283435e-12 2.61809951e-16 0.00000000e+00 0.00000000e+00 9.26283435e-12
6.91830971e-03 1.09332409e-11 1.09331145e-11 1.26338981e-16 0.00000000e+00 0.00000000e+00 1.09331145e-11
7.94328235e-03 1.29047795e-11 1.29045807e-11 1.98791930e-16 0.00000000e+00 0.00000000e+00 1.29045807e-11
9.12010839e-03 1.52318654e-11 1.52315429e-11 3.22540088e-16 0.00000000e+00 0.00000000e+00 1.52315429e-11
1.04712855e-02 1.70119966e-11 1.70115517e-11 4.44925346e-16 0.00000000e+00 0.00000000e+00 1.70115517e-11
1.20226443e-02 1.70122228e-11 1.70115517e-11 6.71065601e-16 0.00000000e+00 0.00000000e+00 1.70115517e-11
1.38038426e-02 1.70124729e-11 1.70115517e-11 9.21209537e-16 9.42204462e-291 1.47702819e-293 1.70115517e-11
1.58489319e-02 1.70128871e-11 1.70115517e-11 1.33538040e-15 5.66401583e-254 1.40772676e-256 1.70115517e-11
1.81970086e-02 1.70133753e-11 1.70115517e-11 1.82361001e-15 5.78068667e-222 1.78851910e-224 1.70115517e-11
2.08929613e-02 1.70140282e-11 1.70115517e-11 2.47643974e-15 3.90242354e-194 1.68168842e-196 1.70115517e-11
2.39883292e-02 1.70149704e-11 1.70115517e-11 3.41866620e-15 6.51794642e-170 3.87024239e-172 1.70115517e-11
2.75422870e-02 1.70162796e-11 1.70115517e-11 4.72783723e-15 7.83181263e-149 6.16762979e-151 1.70115517e-11
3.16227766e-02 1.70178961e-11 1.70115517e-11 6.34443211e-15 1.67527308e-130 1.66912221e-132 1.70115517e-11
3.63078055e-02 1.70187037e-11 1.70115517e-11 7.15201614e-15 1.43881352e-114 1.67359395e-116 1.70115517e-11
4.16869383e-02 1.70213860e-11 1.70115517e-11 9.83431317e-15 1.01403379e-100 1.65784274e-102 1.70115517e-11
4.78630092e-02 1.70268629e-11 1.70115517e-11 1.53111574e-14 1.08647506e-88 2.47998699e-90 1.70115517e-11
5.49540874e-02 1.70304484e-11 1.70115517e-11 1.88966989e-14 3.03462704e-78 9.09052164e-80 1.70115517e-11
6.30957344e-02 1.70381952e-11 1.70115517e-11 2.66434428e-14 4.71414774e-69 1.88754348e-70 1.70115517e-11
7.24435960e-02 1.70390809e-11 1.70115517e-11 2.75291458e-14 4.39655763e-61 1.84920241e-62 1.70115517e-11
8.31763771e-02 1.70398408e-11 1.70115517e-11 2.82890824e-14 2.78324675e-54 1.17377835e-55 1.70115517e-11
9.54992586e-02 1.70412344e-11 1.70115517e-11 2.96827118e-14 2.11354931e-48 9.24933050e-50 1.70115517e-11
1.09647820e-01 1.62748886e-11 1.62459122e-11 2.89764501e-14 2.33718583e-43 1.03443382e-44 1.62459122e-11
1.25892541e-01 1.51854255e-11 1.51615674e-11 2.38581569e-14 5.25683088e-39 2.05817774e-40 1.51615674e-11
1.44543977e-01 1.41709846e-11 1.41495980e-11 2.13866636e-14 2.88472889e-35 1.05293263e-36 1.41495980e-11
1.65958691e-01 1.32267467e-11 1.32051732e-11 2.15735566e-14 3.66372251e-32 1.47849416e-33 1.32051732e-11
1.90546072e-01 1.23502080e-11 1.23237846e-11 2.64233637e-14 1.28858496e-29 6.53186080e-31 1.23237846e-11
2.18776162e-01 1.15292894e-11 1.15012250e-11 2.80644183e-14 1.81053828e-27 1.06058730e-28 1.15012250e-11
2.51188643e-01 1.07669423e-11 1.07335677e-11 3.33745926e-14 1.93468298e-25 1.36184270e-26 1.07335677e-11
2.88403150e-01 1.00463985e-11 1.00171482e-11 2.92502561e-14 1.13296065e-23 7.71415588e-25 1.00171482e-11
3.31131121e-01 9.37354730e-12 9.34854667e-12 2.50006311e-14 3.83109472e-22 2.54714492e-23 9.34854667e-12
3.80189396e-01 8.74821077e-12 8.72457139e-12 2.36393743e-14 8.18115196e-21 5.43651994e-22 8.72457139e-12
4.36515832e-01 8.16298918e-12 8.14224377e-12 2.07452955e-14 1.16921111e-19 8.11425214e-21 8.14224377e-12
5.01187234e-01 7.61787639e-12 7.59878402e-12 1.90912073e-14 1.16742608e-18 8.60592267e-20 7.59878402e-12
5.75439937e-01 7.10972929e-12 7.09159786e-12 1.81229394e-14 8.48890415e-18 6.74269217e-19 7.09159786e-12
6.60693448e-01 6.63621928e-12 6.61826421e-12 1.79083856e-14 4.66838538e-17 4.04802936e-18 6.61826421e-12
7.58577575e-01 6.19238017e-12 6.17652353e-12 1.56523300e-14 2.04308640e-16 1.90596805e-17 6.17652353e-12
8.70963590e-01 5.77931542e-12 5.76426715e-12 1.43121962e-14 7.36070947e-16 7.26954750e-17 5.76426715e-12
1.00000000e+00 5.39435239e-12 5.37952711e-12 1.25980684e-14 2.22721315e-15 2.23647187e-16 5.37952711e-12
1.14815362e+00 5.03751913e-12 5.02046681e-12 1.10829559e-14 5.96936539e-15 5.92568192e-16 5.02046681e-12
1.31825674e+00 4.70835019e-12 4.68537225e-12 8.81309056e-15 1.41648586e-14 1.30683772e-15 4.68537225e-12
1.51356125e+00 4.40939261e-12 4.37264380e-12 6.92535357e-15 2.98234546e-14 2.43155667e-15 4.37264380e-12
1.73780083e+00 4.14118769e-12 4.08078863e-12 5.29269544e-15 5.51063586e-14 3.74734496e-15 4.08078863e-12
1.99526231e+00 3.90219978e-12 3.80841354e-12 3.79240553e-15 8.99938327e-14 4.87064063e-15 3.80841354e-12
2.29086765e+00 3.68791060e-12 3.55421832e-12 2.55125925e-15 1.31141029e-13 5.32019528e-15 3.55421832e-12
2.63026799e+00 3.49247639e-12 3.31698953e-12 1.72855717e-15 1.73758300e-13 5.19880724e-15 3.31698953e-12
3.01995172e+00 3.30780582e-12 3.09559474e-12 1.18573417e-15 2.11025341e-13 4.59401222e-15 3.09559474e-12
3.46736850e+00 3.12971575e-12 2.88897711e-12 7.50371739e-16 2.39988271e-13 3.79609379e-15 2.88897711e-12
3.98107171e+00 2.95334532e-12 2.69615031e-12 5.11126773e-16 2.56683883e-13 2.92234490e-15 2.69615031e-12
4.57088190e+00 2.77823377e-12 2.51619387e-12 3.53692518e-16 2.61686205e-13 2.11639874e-15 2.51619387e-12
5.24807460e+00 2.33775217e-12 2.08050667e-12 1.95784970e-16 2.57049716e-13 1.43446686e-15 2.08050667e-12
6.02559586e+00 1.62060408e-12 1.37457712e-12 8.67678088e-17 2.45940188e-13 9.24977761e-16 1.37457712e-12
6.70000000e+00 1.23335353e-12 9.99872685e-13 4.38717480e-17 2.33436974e-13 6.25640881e-16 9.99872685e-13
6.92422916e+00 1.13517733e-12 9.05846924e-13 3.50440042e-17 2.29295366e-13 5.43381079e-16 9.05846924e-13
7.15596261e+00 1.04778301e-12 8.20663132e-13 2.72749894e-17 2.27092604e-13 4.72943754e-16 8.20663132e-13
7.39545150e+00 9.72143987e-13 7.43489831e-13 2.23989115e-17 2.28631757e-13 4.03462966e-16 7.43489831e-13
7.64295536e+00 9.17888760e-13 6.73573732e-13 1.44887963e-17 2.44300539e-13 3.29680087e-16 6.73573732e-13
7.89874245e+00 8.91593868e-13 6.10232385e-13 8.89635705e-18 2.81352586e-13 2.58477920e-16 6.10232385e-13
8.16308998e+00 8.90764131e-13 5.52847515e-13 5.21148538e-18 3.37911405e-13 2.01397234e-16 5.52847515e-13
8.43628443e+00 9.20027799e-13 5.00858987e-13 3.00585716e-18 4.19165806e-13 1.53375510e-16 5.00858987e-13
8.71862190e+00 9.32292986e-13 4.53759343e-13 1.96712850e-18 4.78531676e-13 1.19680233e-16 4.53759343e-13
9.01040836e+00 9.58819834e-13 4.11088843e-13 1.21329953e-18 5.47729777e-13 9.15634664e-17 4.11088843e-13
9.31196005e+00 9.79373421e-13 3.72430980e-13 0.00000000e+00 6.06942441e-13 0.00000000e+00 3.72430980e-13
9.62360379e+00 9.47805164e-13 3.37408415e-13 0.00000000e+00 6.10396749e-13 0.00000000e+00 3.37408415e-13
9.94567731e+00 8.79311897e-13 3.05679292e-13 0.00000000e+00 5.73632605e-13 0.00000000e+00 3.05679292e-13
1.02785297e+01 8.02304925e-13 2.76933904e-13 0.00000000e+00 5.25371021e-13 0.00000000e+00 2.76933904e-13
1.06225216e+01 7.29543611e-13 2.50891667e-13 0.00000000e+00 4.78651944e-13 0.00000000e+00 2.50891667e-13
1.09780260e+01 6.52265703e-13 2.27298384e-13 0.00000000e+00 4.24967320e-13 0.00000000e+00 2.27298384e-13
1.13454280e+01 5.86067220e-13 2.05923759e-13 0.00000000e+00 3.80143461e-13 0.00000000e+00 2.05923759e-13
1.17251259e+01 5.27264230e-13 1.86559155e-13 0.00000000e+00 3.40705075e-13 0.00000000e+00 1.86559155e-13
1.21175312e+01 4.74465634e-13 1.69015555e-13 0.00000000e+00 3.05450079e-13 0.00000000e+00 1.69015555e-13
1.25230691e+01 4.26835764e-13 1.53121715e-13 0.00000000e+00 2.73714049e-13 0.00000000e+00 1.53121715e-13
1.29421791e+01 3.86832115e-13 1.38722496e-13 0.00000000e+00 2.48109619e-13 0.00000000e+00 1.38722496e-13
1.33753155e+01 3.52064763e-13 1.25677347e-13 0.00000000e+00 2.26387416e-13 0.00000000e+00 1.25677347e-13
1.38229477e+01 3.26368379e-13 1.13858934e-13 0.00000000e+00 2.12509445e-13 0.00000000e+00 1.13858934e-13
1.42855609e+01 3.08823326e-13 1.03151898e-13 0.00000000e+00 2.05671428e-13 0.00000000e+00 1.03151898e-13
1.47636563e+01 3.03367281e-13 9.34517274e-14 0.00000000e+00 2.09915554e-13 0.00000000e+00 9.34517274e-14
1.52577522e+01 3.01567199e-13 8.46637387e-14 0.00000000e+00 2.16903460e-13 0.00000000e+00 8.46637387e-14
1.57683840e+01 3.03357214e-13 7.67021526e-14 0.00000000e+00 2.26655061e-13 0.00000000e+00 7.67021526e-14
1.62961051e+01 3.06089509e-13 6.94892560e-14 0.00000000e+00 2.36600253e-13 0.00000000e+00 6.94892560e-14
1.68414875e+01 3.09098379e-13 6.29546439e-14 0.00000000e+00 2.46143735e-13 0.00000000e+00 6.29546439e-14
1.74051222e+01 3.10057585e-13 5.70345319e-14 0.00000000e+00 2.53023053e-13 0.00000000e+00 5.70345319e-14
1.79876201e+01 3.08810079e-13 5.16711337e-14 0.00000000e+00 2.57138945e-13 0.00000000e+00 5.16711337e-14
1.85896125e+01 3.03204516e-13 4.68120974e-14 0.00000000e+00 2.56392418e-13 0.00000000e+00 4.68120974e-14
1.92117518e+01 2.93488569e-13 4.24099939e-14 0.00000000e+00 2.51078575e-13 0.00000000e+00 4.24099939e-14
1.98547123e+01 2.81507575e-13 3.84218542e-14 0.00000000e+00 2.43085721e-13 0.00000000e+00 3.84218542e-14
2.05191907e+01 2.68484337e-13 3.48087501e-14 0.00000000e+00 2.33675587e-13 0.00000000e+00 3.48087501e-14
2.12059073e+01 2.57924472e-13 3.15354141e-14 0.00000000e+00 2.26389058e-13 0.00000000e+00 3.15354141e-14
2.19156062e+01 2.47573304e-13 2.85698952e-14 0.00000000e+00 2.19003408e-13 0.00000000e+00 2.85698952e-14
2.26490567e+01 2.38330281e-13 2.58832470e-14 0.00000000e+00 2.12447034e-13 0.00000000e+00 2.58832470e-14
2.34070535e+01 2.30095464e-13 2.34492452e-14 0.00000000e+00 2.06646219e-13 0.00000000e+00 2.34492452e-14
2.41904183e+01 2.22611172e-13 2.12441313e-14 0.00000000e+00 2.01367040e-13 0.00000000e+00 2.12441313e-14
2.50000000e+01 2.15976097e-13 1.92463813e-14 0.00000000e+00 1.96729716e-13 0.00000000e+00 1.92463813e-14
2.75422870e+01 1.97986869e-13 1.43935895e-14 0.00000000e+00 1.83593280e-13 0.00000000e+00 1.43935895e-14
3.16227766e+01 1.75859722e-13 9.50975027e-15 0.00000000e+00 1.66349972e-13 0.00000000e+00 9.50975027e-15
3.63078055e+01 1.53108960e-13 6.28302969e-15 0.00000000e+00 1.46825930e-13 0.00000000e+00 6.28302969e-15
4.16869383e+01 1.28374441e-13 4.15115655e-15 0.00000000e+00 1.24223284e-13 0.00000000e+00 4.15115655e-15
4.78630092e+01 1.02995746e-13 2.74264194e-15 0.00000000e+00 1.00253104e-13 0.00000000e+00 2.74264194e-15
5.49540874e+01 7.90904448e-14 1.81204556e-15 0.00000000e+00 7.72783993e-14 0.00000000e+00 1.81204556e-15
6.30957344e+01 5.81334400e-14 1.19720663e-15 0.00000000e+00 5.69362334e-14 0.00000000e+00 1.19720663e-15
7.24435960e+01 4.09195008e-14 7.90986575e-16 0.00000000e+00 4.01285142e-14 0.00000000e+00 7.90986575e-16
8.31763771e+01 2.77003636e-14 5.22599647e-16 0.00000000e+00 2.71777640e-14 0.00000000e+00 5.22599647e-16
9.54992586e+01 1.81134348e-14 3.45278163e-16 0.00000000e+00 1.77681566e-14 0.00000000e+00 3.45278163e-16
1.09647820e+02 1.14811518e-14 2.28123020e-16 0.00000000e+00 1.12530288e-14 0.00000000e+00 2.28123020e-16
1.25892541e+02 7.15129978e-15 1.50719385e-16 0.00000000e+00 7.00058039e-15 0.00000000e+00 1.50719385e-16
1.44543977e+02 4.36043668e-15 9.95793099e-17 0.00000000e+00 4.26085737e-15 0.00000000e+00 9.95793099e-17
1.65958691e+02 2.51003416e-15 6.57913976e-17 0.00000000e+00 2.44424276e-15 0.00000000e+00 6.57913976e-17
1.90546072e+02 1.42804623e-15 4.34679453e-17 0.00000000e+00 1.38457829e-15 0.00000000e+00 4.34679453e-17
2.18776162e+02 8.02790228e-16 2.87189867e-17 0.00000000e+00 7.74071241e-16 0.00000000e+00 2.87189867e-17
2.51188643e+02 4.46032920e-16 1.89744463e-17 0.00000000e+00 4.27058474e-16 0.00000000e+00 1.89744463e-17
2.88403150e+02 2.45070539e-16 1.25362924e-17 0.00000000e+00 2.32534247e-16 0.00000000e+00 1.25362924e-17
3.31131121e+02 1.33647162e-16 8.28264623e-18 0.00000000e+00 1.25364516e-16 0.00000000e+00 8.28264623e-18
3.80189396e+02 7.23863498e-17 5.47229010e-18 0.00000000e+00 6.69140597e-17 0.00000000e+00 5.47229010e-18
4.36515832e+02 3.90551979e-17 3.61550621e-18 0.00000000e+00 3.54396917e-17 0.00000000e+00 3.61550621e-18
5.01187234e+02 2.10235378e-17 2.38874127e-18 0.00000000e+00 1.86347966e-17 0.00000000e+00 2.38874127e-18
5.75439937e+02 1.13171846e-17 1.57822570e-18 0.00000000e+00 9.73895886e-18 0.00000000e+00 1.57822570e-18
6.60693448e+02 6.10607651e-18 1.04272338e-18 0.00000000e+00 5.06335313e-18 0.00000000e+00 1.04272338e-18
7.58577575e+02 3.30952364e-18 6.88920507e-19 0.00000000e+00 2.62060313e-18 0.00000000e+00 6.88920507e-19
8.70963590e+02 1.80592220e-18 4.55165265e-19 0.00000000e+00 1.35075693e-18 0.00000000e+00 4.55165265e-19
1.00000000e+03 6.93670523e-19 0.00000000e+00 0.00000000e+00 6.93670523e-19 0.00000000e+00 0.00000000e+00
