# column 1: lambda (micron)
# column 2: total flux; lambda*F_lambda (W/m2)
# column 3: direct stellar flux; lambda*F_lambda (W/m2)
# column 4: scattered stellar flux; lambda*F_lambda (W/m2)
# column 5: total dust emission flux; lambda*F_lambda (W/m2)
# column 6: dust emission scattered flux; lambda*F_lambda (W/m2)
# column 7: transparent flux; lambda*F_lambda (W/m2)
1.00000000e-03 6.93997382e-13 6.93993746e-13 3.63652533e-18 0.00000000e+00 0.00000000e+00 6.93993746e-13
1.14815362e-03 8.19140981e-13 8.19135139e-13 5.84184285e-18 0.00000000e+00 0.00000000e+00 8.19135139e-13
1.31825674e-03 9.66852512e-13 9.66842108e-13 1.04037093e-17 0.00000000e+00 0.00000000e+00 9.66842108e-13
1.51356125e-03 1.14119948e-12 1.14118369e-12 1.57864054e-17 0.00000000e+00 0.00000000e+00 1.14118369e-12
1.73780083e-03 1.34699099e-12 1.34696266e-12 2.83259218e-17 0.00000000e+00 0.00000000e+00 1.34696266e-12
1.99526231e-03 1.58990048e-12 1.58984782e-12 5.26522500e-17 0.00000000e+00 0.00000000e+00 1.58984782e-12
2.29086765e-03 1.87661760e-12 1.87653019e-12 8.74050862e-17 0.00000000e+00 0.00000000e+00 1.87653019e-12
2.63026799e-03 2.21509109e-12 2.21490731e-12 1.83782750e-16 0.00000000e+00 0.00000000e+00 2.21490731e-12
3.01995172e-03 2.61463979e-12 2.61430080e-12 3.38984873e-16 0.00000000e+00 0.00000000e+00 2.61430080e-12
3.46736850e-03 3.08628940e-12 3.08571319e-12 5.76215713e-16 0.00000000e+00 0.00000000e+00 3.08571319e-12
3.98107171e-03 3.64308378e-12 3.64213095e-12 9.52829129e-16 0.00000000e+00 0.00000000e+00 3.64213095e-12
4.57088190e-03 4.30077195e-12 4.29888232e-12 1.88963316e-15 0.00000000e+00 0.00000000e+00 4.29888232e-12
5.24807460e-03 5.07751420e-12 5.07405951e-12 3.45468571e-15 0.00000000e+00 0.00000000e+00 5.07405951e-12
6.02559586e-03 6.00425480e-12 5.98901715e-12 1.52376492e-14 0.00000000e+00 0.00000000e+00 5.98901715e-12
6.91830971e-03 7.08044221e-12 7.06896053e-12 1.14816797e-14 0.00000000e+00 0.00000000e+00 7.06896053e-12
7.94328235e-03 8.36143483e-12 8.34363998e-12 1.77948508e-14 0.00000000e+00 0.00000000e+00 8.34363998e-12
9.12010839e-03 9.88062656e-12 9.84817045e-12 3.24561145e-14 0.00000000e+00 0.00000000e+00 9.84817045e-12
1.04712855e-02 1.10421520e-11 1.09990604e-11 4.30915776e-14 0.00000000e+00 0.00000000e+00 1.09990604e-11
1.20226443e-02 1.10741215e-11 1.09990604e-11 7.50610711e-14 7.21354427e-311 9.43667484e-313 1.09990604e-11
1.38038426e-02 1.10972384e-11 1.09990604e-11 9.81779289e-14 1.10817785e-271 1.84191197e-273 1.09990604e-11
1.58489319e-02 1.11432287e-11 1.09990604e-11 1.44168247e-13 1.42356278e-237 3.10174993e-239 1.09990604e-11
1.81970086e-02 1.11750649e-11 1.09990604e-11 1.76004432e-13 6.88959085e-208 2.04831399e-209 1.09990604e-11
2.08929613e-02 1.12344563e-11 1.09990604e-11 2.35395824e-13 4.40613649e-182 1.70598444e-183 1.09990604e-11
2.39883292e-02 1.12968322e-11 1.09990604e-11 2.97771730e-13 1.27508434e-159 6.31359252e-161 1.09990604e-11
2.75422870e-02 1.13710654e-11 1.09990604e-11 3.72004973e-13 4.48089094e-140 2.66890158e-141 1.09990604e-11
3.16227766e-02 1.14193783e-11 1.09990604e-11 4.20317902e-13 4.41520007e-123 2.97346451e-124 1.09990604e-11
3.63078055e-02 1.14380315e-11 1.09990604e-11 4.38971057e-13 2.59518815e-108 1.88679881e-109 1.09990604e-11
4.16869383e-02 1.15074184e-11 1.09990604e-11 5.08357916e-13 1.78909368e-95 1.62053704e-96 1.09990604e-11
4.78630092e-02 1.15332758e-11 1.09990604e-11 5.34215379e-13 2.49791386e-84 2.41228629e-85 1.09990604e-11
5.49540874e-02 1.15362897e-11 1.09990604e-11 5.37229220e-13 1.18362839e-74 1.22584386e-75 1.09990604e-11
6.30957344e-02 1.15052511e-11 1.09990604e-11 5.06190630e-13 3.90393434e-66 4.18691556e-67 1.09990604e-11
7.24435960e-02 1.14260434e-11 1.09990604e-11 4.26982997e-13 9.55420985e-59 9.62739857e-60 1.09990604e-11
8.31763771e-02 1.14145610e-11 1.09990604e-11 4.15500527e-13 2.06608319e-52 2.29588994e-53 1.09990604e-11
9.54992586e-02 1.14153863e-11 1.09990604e-11 4.16325905e-13 7.65747372e-47 1.10359498e-47 1.09990604e-11
1.09647820e-01 1.09642414e-11 1.05040253e-11 4.60216125e-13 6.61039095e-42 1.32018836e-42 1.05040253e-11
1.25892541e-01 1.02686731e-11 9.80292679e-12 4.65746280e-13 1.60883026e-37 3.62179841e-38 9.80292679e-12
1.44543977e-01 9.58514752e-12 9.14862359e-12 4.36523930e-13 1.08852790e-33 2.48191773e-34 9.14862359e-12
1.65958691e-01 8.95630326e-12 8.53799231e-12 4.18310951e-13 1.78273538e-30 4.36443918e-31 8.53799231e-12
1.90546072e-01 8.40172683e-12 7.96811805e-12 4.33608782e-13 7.83928930e-28 2.22539040e-28 7.96811805e-12
2.18776162e-01 7.82344764e-12 7.43628044e-12 3.87167201e-13 1.27961017e-25 3.77313851e-26 7.43628044e-12
2.51188643e-01 7.36783244e-12 6.93994070e-12 4.27891743e-13 1.82784594e-23 6.24169647e-24 6.93994070e-12
2.88403150e-01 6.87689550e-12 6.47672950e-12 4.00165992e-13 1.28140036e-21 4.37212591e-22 6.47672950e-12
3.31131121e-01 6.41918980e-12 6.04443567e-12 3.74754083e-13 4.79961030e-20 1.61981752e-20 6.04443567e-12
3.80189396e-01 5.97779379e-12 5.64099558e-12 3.36797157e-13 1.05770017e-18 3.55054283e-19 5.64099558e-12
4.36515832e-01 5.57205500e-12 5.26448339e-12 3.07556841e-13 1.47707008e-17 4.97936989e-18 5.26448339e-12
5.01187234e-01 5.18579040e-12 4.91310176e-12 2.72550168e-13 1.38472312e-16 4.64599644e-17 4.91310176e-12
5.75439937e-01 4.83273892e-12 4.58517335e-12 2.46648464e-13 9.17108057e-16 3.05323238e-16 4.58517335e-12
6.60693448e-01 4.49833223e-12 4.27913275e-12 2.14686724e-13 4.51276206e-15 1.46669289e-15 4.27913275e-12
7.58577575e-01 4.20340749e-12 3.99351904e-12 1.92567635e-13 1.73208186e-14 5.45268196e-15 3.99351904e-12
8.70963590e-01 3.94479322e-12 3.72696882e-12 1.64114608e-13 5.37097896e-14 1.58650042e-14 3.72696882e-12
1.00000000e+00 3.75303107e-12 3.47820968e-12 1.37531414e-13 1.37289978e-13 3.74170649e-14 3.47820968e-12
1.14815362e+00 3.66756777e-12 3.24605414e-12 1.13351966e-13 3.08161657e-13 7.51055434e-14 3.24605414e-12
1.31825674e+00 3.72989998e-12 3.02939399e-12 8.91716685e-14 6.11334321e-13 1.28476126e-13 3.02939399e-12
1.51356125e+00 3.98074492e-12 2.82719497e-12 7.02050293e-14 1.08334492e-12 1.92542045e-13 2.82719497e-12
1.73780083e+00 4.42190663e-12 2.63849186e-12 5.28835378e-14 1.73053123e-12 2.48971417e-13 2.63849186e-12
1.99526231e+00 4.96816078e-12 2.46238388e-12 3.84648029e-14 2.46731210e-12 2.79390310e-13 2.46238388e-12
2.29086765e+00 5.55033347e-12 2.29803035e-12 2.82121708e-14 3.22409095e-12 2.73987836e-13 2.29803035e-12
2.63026799e+00 6.03939206e-12 2.14464670e-12 1.96138766e-14 3.87513148e-12 2.41980675e-13 2.14464670e-12
3.01995172e+00 6.40117957e-12 2.00150076e-12 1.34327967e-14 4.38624602e-12 2.01101146e-13 2.00150076e-12
3.46736850e+00 6.56994927e-12 1.86790919e-12 9.26028350e-15 4.69277979e-12 1.56792744e-13 1.86790919e-12
3.98107171e+00 6.58971942e-12 1.74323429e-12 6.41234503e-15 4.84007278e-12 1.17868474e-13 1.74323429e-12
4.57088190e+00 6.45367411e-12 1.62688090e-12 4.30446619e-15 4.82248875e-12 8.49923772e-14 1.62688090e-12
5.24807460e+00 6.04609403e-12 1.34518114e-12 2.53342728e-15 4.69837946e-12 5.79188495e-14 1.34518114e-12
6.02559586e+00 5.43148323e-12 8.88752369e-13 1.13350593e-15 4.54159735e-12 3.79684062e-14 8.88752369e-13
6.70000000e+00 5.02739011e-12 6.46481889e-13 5.85235260e-16 4.38032298e-12 2.61401957e-14 6.46481889e-13
6.92422916e+00 4.92103218e-12 5.85688198e-13 4.86810134e-16 4.33485717e-12 2.32826892e-14 5.85688198e-13
7.15596261e+00 4.82160069e-12 5.30611407e-13 3.77185416e-16 4.29061209e-12 2.03010630e-14 5.30611407e-13
7.39545150e+00 4.80495670e-12 4.80713913e-13 2.90963382e-16 4.32395182e-12 1.74267811e-14 4.80713913e-13
7.64295536e+00 4.97179730e-12 4.35508666e-13 1.98141764e-16 4.53609049e-12 1.39971611e-14 4.35508666e-13
7.89874245e+00 5.38306521e-12 3.94554418e-13 1.17357425e-16 4.98839343e-12 1.05853851e-14 3.94554418e-13
8.16308998e+00 5.98140047e-12 3.57451415e-13 6.68222444e-17 5.62388224e-12 7.86874794e-15 3.57451415e-13
8.43628443e+00 6.85105968e-12 3.23837494e-13 3.64875042e-17 6.52718570e-12 5.70440409e-15 3.23837494e-13
8.71862190e+00 7.45411276e-12 2.93384550e-13 2.29073282e-17 7.16070530e-12 4.52637441e-15 2.93384550e-13
9.01040836e+00 8.05323409e-12 2.65795332e-13 1.48946939e-17 7.78742386e-12 3.51316503e-15 2.65795332e-13
9.31196005e+00 8.50370306e-12 2.40800541e-13 0.00000000e+00 8.26290252e-12 0.00000000e+00 2.40800541e-13
9.62360379e+00 8.49361556e-12 2.18156204e-13 0.00000000e+00 8.27545936e-12 0.00000000e+00 2.18156204e-13
9.94567731e+00 8.05581666e-12 1.97641289e-13 0.00000000e+00 7.85817537e-12 0.00000000e+00 1.97641289e-13
1.02785297e+01 7.52262522e-12 1.79055550e-13 0.00000000e+00 7.34356967e-12 0.00000000e+00 1.79055550e-13
1.06225216e+01 7.03194935e-12 1.62217572e-13 0.00000000e+00 6.86973178e-12 0.00000000e+00 1.62217572e-13
1.09780260e+01 6.45775171e-12 1.46962999e-13 0.00000000e+00 6.31078871e-12 0.00000000e+00 1.46962999e-13
1.13454280e+01 6.04872500e-12 1.33142932e-13 0.00000000e+00 5.91558206e-12 0.00000000e+00 1.33142932e-13
1.17251259e+01 5.64918225e-12 1.20622472e-13 0.00000000e+00 5.52855978e-12 0.00000000e+00 1.20622472e-13
1.21175312e+01 5.32732092e-12 1.09279408e-13 0.00000000e+00 5.21804151e-12 0.00000000e+00 1.09279408e-13
1.25230691e+01 5.05514180e-12 9.90030204e-14 0.00000000e+00 4.95613878e-12 0.00000000e+00 9.90030204e-14
1.29421791e+01 4.82728711e-12 8.96930008e-14 0.00000000e+00 4.73759411e-12 0.00000000e+00 8.96930008e-14
1.33753155e+01 4.61461028e-12 8.12584743e-14 0.00000000e+00 4.53335180e-12 0.00000000e+00 8.12584743e-14
1.38229477e+01 4.52454522e-12 7.36171115e-14 0.00000000e+00 4.45092811e-12 0.00000000e+00 7.36171115e-14
1.42855609e+01 4.51153992e-12 6.66943252e-14 0.00000000e+00 4.44484559e-12 0.00000000e+00 6.66943252e-14
1.47636563e+01 4.61513873e-12 6.04225420e-14 0.00000000e+00 4.55471619e-12 0.00000000e+00 6.04225420e-14
1.52577522e+01 4.76921616e-12 5.47405431e-14 0.00000000e+00 4.71447562e-12 0.00000000e+00 5.47405431e-14
1.57683840e+01 4.93450620e-12 4.95928665e-14 0.00000000e+00 4.88491334e-12 0.00000000e+00 4.95928665e-14
1.62961051e+01 5.09308611e-12 4.49292657e-14 0.00000000e+00 5.04815685e-12 0.00000000e+00 4.49292657e-14
1.68414875e+01 5.28207920e-12 4.07042194e-14 0.00000000e+00 5.24137498e-12 0.00000000e+00 4.07042194e-14
1.74051222e+01 5.44629723e-12 3.68764869e-14 0.00000000e+00 5.40942075e-12 0.00000000e+00 3.68764869e-14
1.79876201e+01 5.56075339e-12 3.34087056e-14 0.00000000e+00 5.52734469e-12 0.00000000e+00 3.34087056e-14
1.85896125e+01 5.67317747e-12 3.02670267e-14 0.00000000e+00 5.64291044e-12 0.00000000e+00 3.02670267e-14
1.92117518e+01 5.66763063e-12 2.74207841e-14 0.00000000e+00 5.64020985e-12 0.00000000e+00 2.74207841e-14
1.98547123e+01 5.72317310e-12 2.48421957e-14 0.00000000e+00 5.69833090e-12 0.00000000e+00 2.48421957e-14
2.05191907e+01 5.68839945e-12 2.25060919e-14 0.00000000e+00 5.66589335e-12 0.00000000e+00 2.25060919e-14
2.12059073e+01 5.72152133e-12 2.03896700e-14 0.00000000e+00 5.70113166e-12 0.00000000e+00 2.03896700e-14
2.19156062e+01 5.70389351e-12 1.84722717e-14 0.00000000e+00 5.68542124e-12 0.00000000e+00 1.84722717e-14
2.26490567e+01 5.70301529e-12 1.67351811e-14 0.00000000e+00 5.68628011e-12 0.00000000e+00 1.67351811e-14
2.34070535e+01 5.71226206e-12 1.51614426e-14 0.00000000e+00 5.69710062e-12 0.00000000e+00 1.51614426e-14
2.41904183e+01 5.71081849e-12 1.37356949e-14 0.00000000e+00 5.69708280e-12 0.00000000e+00 1.37356949e-14
2.50000000e+01 5.70025746e-12 1.24440213e-14 0.00000000e+00 5.68781344e-12 0.00000000e+00 1.24440213e-14
2.75422870e+01 5.54397235e-12 9.30637977e-15 0.00000000e+00 5.53466597e-12 0.00000000e+00 9.30637977e-15
3.16227766e+01 5.14196277e-12 6.14866414e-15 0.00000000e+00 5.13581411e-12 0.00000000e+00 6.14866414e-15
3.63078055e+01 4.45014457e-12 4.06238211e-15 0.00000000e+00 4.44608219e-12 0.00000000e+00 4.06238211e-15
4.16869383e+01 3.59533701e-12 2.68398924e-15 0.00000000e+00 3.59265302e-12 0.00000000e+00 2.68398924e-15
4.78630092e+01 2.68325997e-12 1.77329411e-15 0.00000000e+00 2.68148668e-12 0.00000000e+00 1.77329411e-15
5.49540874e+01 1.87368301e-12 1.17160380e-15 0.00000000e+00 1.87251140e-12 0.00000000e+00 1.17160380e-15
6.30957344e+01 1.23369685e-12 7.74070953e-16 0.00000000e+00 1.23292278e-12 0.00000000e+00 7.74070953e-16
7.24435960e+01 7.75114619e-13 5.11423607e-16 0.00000000e+00 7.74603195e-13 0.00000000e+00 5.11423607e-16
8.31763771e+01 4.66747761e-13 3.37894226e-16 0.00000000e+00 4.66409867e-13 0.00000000e+00 3.37894226e-16
9.54992586e+01 2.72839168e-13 2.23244502e-16 0.00000000e+00 2.72615924e-13 0.00000000e+00 2.23244502e-16
1.09647820e+02 1.55956062e-13 1.47496179e-16 0.00000000e+00 1.55808566e-13 0.00000000e+00 1.47496179e-16
1.25892541e+02 8.84189909e-14 9.74497594e-17 0.00000000e+00 8.83215412e-14 0.00000000e+00 9.74497594e-17
1.44543977e+02 4.95575354e-14 6.43844175e-17 0.00000000e+00 4.94931510e-14 0.00000000e+00 6.43844175e-17
1.65958691e+02 2.64251722e-14 4.25383628e-17 0.00000000e+00 2.63826338e-14 0.00000000e+00 4.25383628e-17
1.90546072e+02 1.40420815e-14 2.81048176e-17 0.00000000e+00 1.40139767e-14 0.00000000e+00 2.81048176e-17
2.18776162e+02 7.42791836e-15 1.85686688e-17 0.00000000e+00 7.40934970e-15 0.00000000e+00 1.85686688e-17
2.51188643e+02 3.90759616e-15 1.22681978e-17 0.00000000e+00 3.89532796e-15 0.00000000e+00 1.22681978e-17
2.88403150e+02 2.04271876e-15 8.10551794e-18 0.00000000e+00 2.03461324e-15 0.00000000e+00 8.10551794e-18
3.31131121e+02 1.06357776e-15 5.35526259e-18 0.00000000e+00 1.05822249e-15 0.00000000e+00 5.35526259e-18
3.80189396e+02 5.51172247e-16 3.53818691e-18 0.00000000e+00 5.47634060e-16 0.00000000e+00 3.53818691e-18
4.36515832e+02 2.84756826e-16 2.33765691e-18 0.00000000e+00 2.82419170e-16 0.00000000e+00 2.33765691e-18
5.01187234e+02 1.46661614e-16 1.54447460e-18 0.00000000e+00 1.45117139e-16 0.00000000e+00 1.54447460e-18
5.75439937e+02 7.53733169e-17 1.02042425e-18 0.00000000e+00 7.43528926e-17 0.00000000e+00 1.02042425e-18
6.60693448e+02 3.86739701e-17 6.74187617e-19 0.00000000e+00 3.79997825e-17 0.00000000e+00 6.74187617e-19
7.58577575e+02 1.98241220e-17 4.45431341e-19 0.00000000e+00 1.93786906e-17 0.00000000e+00 4.45431341e-19
8.70963590e+02 1.01559184e-17 2.94293569e-19 0.00000000e+00 9.86162486e-18 0.00000000e+00 2.94293569e-19
1.00000000e+03 5.00868396e-18 0.00000000e+00 0.00000000e+00 5.00868396e-18 0.00000000e+00 0.00000000e+00
