# column 1: lambda (micron)
# column 2: total flux; lambda*F_lambda (W/m2)
# column 3: direct stellar flux; lambda*F_lambda (W/m2)
# column 4: scattered stellar flux; lambda*F_lambda (W/m2)
# column 5: total dust emission flux; lambda*F_lambda (W/m2)
# column 6: dust emission scattered flux; lambda*F_lambda (W/m2)
# column 7: transparent flux; lambda*F_lambda (W/m2)
1.00000000e-03 3.57787103e-13 3.57785423e-13 1.67962190e-18 0.00000000e+00 0.00000000e+00 3.57785423e-13
1.14815362e-03 4.22304240e-13 4.22301518e-13 2.72174419e-18 0.00000000e+00 0.00000000e+00 4.22301518e-13
1.31825674e-03 4.98455311e-13 4.98451197e-13 4.11461019e-18 0.00000000e+00 0.00000000e+00 4.98451197e-13
1.51356125e-03 5.88338697e-13 5.88332233e-13 6.46397880e-18 0.00000000e+00 0.00000000e+00 5.88332233e-13
1.73780083e-03 6.94433798e-13 6.94420676e-13 1.31228812e-17 0.00000000e+00 0.00000000e+00 6.94420676e-13
1.99526231e-03 8.19664295e-13 8.19639053e-13 2.52419959e-17 0.00000000e+00 0.00000000e+00 8.19639053e-13
2.29086765e-03 9.67472445e-13 9.67436888e-13 3.55569551e-17 0.00000000e+00 0.00000000e+00 9.67436888e-13
2.63026799e-03 1.14195506e-12 1.14188572e-12 6.93330350e-17 0.00000000e+00 0.00000000e+00 1.14188572e-12
3.01995172e-03 1.34789227e-12 1.34779128e-12 1.00990847e-16 0.00000000e+00 0.00000000e+00 1.34779128e-12
3.46736850e-03 1.59101467e-12 1.59082586e-12 1.88802680e-16 0.00000000e+00 0.00000000e+00 1.59082586e-12
3.98107171e-03 1.87796682e-12 1.87768459e-12 2.82228056e-16 0.00000000e+00 0.00000000e+00 1.87768459e-12
4.57088190e-03 2.21700821e-12 2.21626987e-12 7.38336624e-16 0.00000000e+00 0.00000000e+00 2.21626987e-12
5.24807460e-03 2.61700793e-12 2.61590907e-12 1.09886602e-15 0.00000000e+00 0.00000000e+00 2.61590907e-12
6.02559586e-03 3.09034904e-12 3.08761145e-12 2.73759270e-15 0.00000000e+00 0.00000000e+00 3.08761145e-12
6.91830971e-03 3.64797064e-12 3.64437151e-12 3.59913163e-15 0.00000000e+00 0.00000000e+00 3.64437151e-12
7.94328235e-03 4.30808332e-12 4.30152690e-12 6.55642281e-15 5.22391545e-304 5.84960246e-305 4.30152690e-12
9.12010839e-03 5.08612694e-12 5.07718096e-12 8.94597483e-15 2.17871776e-265 1.29898740e-266 5.07718096e-12
1.04712855e-02 5.68348872e-12 5.67051724e-12 1.29714805e-14 9.61685705e-232 8.52142473e-233 5.67051724e-12
1.20226443e-02 5.69001148e-12 5.67051724e-12 1.94942423e-14 1.46148924e-202 7.99186983e-204 5.67051724e-12
1.38038426e-02 5.69697086e-12 5.67051724e-12 2.64536221e-14 4.11990057e-177 3.40691381e-178 5.67051724e-12
1.58489319e-02 5.71831782e-12 5.67051724e-12 4.78005821e-14 5.69821738e-155 5.68023238e-156 5.67051724e-12
1.81970086e-02 5.73010509e-12 5.67051724e-12 5.95878469e-14 1.00164617e-135 8.71495558e-137 5.67051724e-12
2.08929613e-02 5.73640144e-12 5.67051724e-12 6.58841970e-14 5.22509120e-119 4.30223498e-120 5.67051724e-12
2.39883292e-02 5.75997042e-12 5.67051724e-12 8.94531787e-14 1.82358847e-104 1.50505594e-105 5.67051724e-12
2.75422870e-02 5.77150234e-12 5.67051724e-12 1.00985102e-13 8.06931067e-92 5.83601738e-93 5.67051724e-12
3.16227766e-02 5.78981379e-12 5.67051724e-12 1.19296553e-13 7.87188502e-81 6.24980435e-82 5.67051724e-12
3.63078055e-02 5.78437276e-12 5.67051724e-12 1.13855518e-13 2.68894879e-71 1.82337252e-72 5.67051724e-12
4.16869383e-02 5.79687185e-12 5.67051724e-12 1.26354607e-13 5.12750881e-63 3.74838763e-64 5.67051724e-12
4.78630092e-02 5.79499968e-12 5.67051724e-12 1.24482444e-13 7.57483460e-56 5.24914358e-57 5.67051724e-12
5.49540874e-02 5.79997005e-12 5.67051724e-12 1.29452815e-13 1.23248251e-49 8.37087177e-51 5.67051724e-12
6.30957344e-02 5.78305039e-12 5.67051724e-12 1.12533154e-13 3.81703674e-44 2.46829960e-45 5.67051724e-12
7.24435960e-02 5.76685577e-12 5.67051724e-12 9.63385357e-14 2.12706295e-39 1.18287787e-40 5.67051724e-12
8.31763771e-02 5.76320362e-12 5.67051724e-12 9.26863834e-14 2.18609978e-35 1.19320575e-36 5.67051724e-12
9.54992586e-02 5.76664547e-12 5.67051724e-12 9.61282333e-14 6.23754026e-32 3.49731479e-33 5.67051724e-12
1.09647820e-01 5.51524906e-12 5.41530405e-12 9.99450065e-14 5.45649569e-29 3.47175733e-30 5.41530405e-12
1.25892541e-01 5.15235053e-12 5.05385580e-12 9.84947367e-14 1.82346408e-26 1.18383865e-27 5.05385580e-12
1.44543977e-01 4.81010413e-12 4.71653266e-12 9.35714758e-14 2.55952702e-24 1.68990000e-25 4.71653266e-12
1.65958691e-01 4.49627679e-12 4.40172439e-12 9.45524039e-14 1.32249179e-22 9.57995543e-24 4.40172439e-12
1.90546072e-01 4.20283934e-12 4.10792822e-12 9.49111214e-14 2.76158075e-21 2.22915003e-22 4.10792822e-12
2.18776162e-01 3.92034896e-12 3.83374167e-12 8.66072545e-14 3.18009938e-20 2.53906205e-21 3.83374167e-12
2.51188643e-01 3.67378902e-12 3.57785591e-12 9.59327136e-14 3.98862299e-19 3.83178811e-20 3.57785591e-12
2.88403150e-01 3.43371602e-12 3.33904941e-12 9.46631814e-14 3.42505642e-18 3.35234549e-19 3.33904941e-12
3.31131121e-01 3.20174489e-12 3.11618222e-12 8.55426929e-14 1.99768727e-17 1.90899461e-18 3.11618222e-12
3.80189396e-01 2.98759826e-12 2.90819046e-12 7.93228409e-14 8.49537910e-17 7.80507818e-18 2.90819046e-12
4.36515832e-01 2.78484622e-12 2.71408126e-12 7.04911603e-14 2.73804797e-16 2.49931951e-17 2.71408126e-12
5.01187234e-01 2.59935741e-12 2.53292801e-12 6.57151059e-14 7.14299291e-16 6.66616334e-17 2.53292801e-12
5.75439937e-01 2.42346369e-12 2.36386595e-12 5.79892620e-14 1.60847481e-15 1.61692407e-16 2.36386595e-12
6.60693448e-01 2.26353255e-12 2.20608807e-12 5.40223224e-14 3.42216185e-15 3.96450717e-16 2.20608807e-12
7.58577575e-01 2.11385008e-12 2.05884118e-12 4.75003932e-14 7.50850351e-15 1.02057469e-15 2.05884118e-12
8.70963590e-01 1.98004060e-12 1.92142238e-12 4.16722158e-14 1.69459953e-14 2.55009516e-15 1.92142238e-12
1.00000000e+00 1.86732339e-12 1.79317570e-12 3.66484837e-14 3.74991976e-14 5.67690000e-15 1.79317570e-12
1.14815362e+00 1.78343738e-12 1.67348894e-12 3.08868786e-14 7.90615631e-14 1.13902112e-14 1.67348894e-12
1.31825674e+00 1.74298832e-12 1.56179075e-12 2.53689211e-14 1.55828654e-13 2.00485425e-14 1.56179075e-12
1.51356125e+00 1.75846229e-12 1.45754793e-12 2.06012359e-14 2.80313117e-13 3.09168798e-14 1.45754793e-12
1.73780083e+00 1.82696200e-12 1.36026288e-12 1.50881210e-14 4.51611002e-13 4.16079362e-14 1.36026288e-12
1.99526231e+00 1.93235031e-12 1.26947118e-12 1.12908797e-14 6.51588248e-13 4.67607628e-14 1.26947118e-12
2.29086765e+00 2.04991815e-12 1.18473944e-12 8.05605735e-15 8.57122652e-13 4.71988820e-14 1.18473944e-12
2.63026799e+00 2.14494850e-12 1.10566318e-12 5.59809096e-15 1.03368723e-12 4.28059313e-14 1.10566318e-12
3.01995172e+00 2.19582192e-12 1.03186491e-12 4.03444540e-15 1.15992256e-12 3.63574402e-14 1.03186491e-12
3.46736850e+00 2.19655285e-12 9.62992369e-13 2.73535584e-15 1.23082513e-12 2.88311880e-14 9.62992369e-13
3.98107171e+00 2.13630763e-12 8.98716770e-13 1.81373962e-15 1.23577712e-12 2.17717344e-14 8.98716770e-13
4.57088190e+00 2.03428980e-12 8.38731291e-13 1.25274712e-15 1.19430576e-12 1.52352766e-14 8.38731291e-13
5.24807460e+00 1.81053139e-12 6.93502223e-13 7.38483933e-16 1.11629068e-12 1.01658304e-14 6.93502223e-13
6.02559586e+00 1.48806682e-12 4.58192375e-13 3.25475352e-16 1.02954897e-12 6.41680598e-15 4.58192375e-13
6.70000000e+00 1.28908685e-12 3.33290895e-13 1.70997526e-16 9.55624954e-13 4.28573920e-15 3.33290895e-13
6.92422916e+00 1.23587544e-12 3.01948975e-13 1.41007858e-16 9.33785459e-13 3.74488039e-15 3.01948975e-13
7.15596261e+00 1.19158450e-12 2.73554377e-13 1.10944142e-16 9.17919174e-13 3.23182869e-15 2.73554377e-13
7.39545150e+00 1.16910518e-12 2.47829944e-13 8.57820413e-17 9.21189450e-13 2.75720690e-15 2.47829944e-13
7.64295536e+00 1.19965378e-12 2.24524577e-13 5.75007355e-17 9.75071706e-13 2.26089498e-15 2.24524577e-13
7.89874245e+00 1.31618134e-12 2.03410795e-13 3.46195099e-17 1.11273593e-12 1.75971623e-15 2.03410795e-13
8.16308998e+00 1.48158231e-12 1.84282505e-13 1.96019311e-17 1.29728020e-12 1.34141362e-15 1.84282505e-13
8.43628443e+00 1.71942030e-12 1.66952996e-13 1.06773372e-17 1.55245662e-12 9.94832353e-16 1.66952996e-13
8.71862190e+00 1.87635265e-12 1.51253114e-13 6.62261300e-18 1.72509291e-12 7.73707589e-16 1.51253114e-13
9.01040836e+00 2.03316242e-12 1.37029614e-13 4.42962137e-18 1.89612837e-12 5.94144307e-16 1.37029614e-13
9.31196005e+00 2.15037439e-12 1.24143660e-13 0.00000000e+00 2.02623073e-12 0.00000000e+00 1.24143660e-13
9.62360379e+00 2.09903606e-12 1.12469472e-13 0.00000000e+00 1.98656659e-12 0.00000000e+00 1.12469472e-13
9.94567731e+00 1.95922466e-12 1.01893097e-13 0.00000000e+00 1.85733157e-12 0.00000000e+00 1.01893097e-13
1.02785297e+01 1.77648628e-12 9.23113014e-14 0.00000000e+00 1.68417498e-12 0.00000000e+00 9.23113014e-14
1.06225216e+01 1.62614191e-12 8.36305558e-14 0.00000000e+00 1.54251135e-12 0.00000000e+00 8.36305558e-14
1.09780260e+01 1.45638079e-12 7.57661279e-14 0.00000000e+00 1.38061466e-12 0.00000000e+00 7.57661279e-14
1.13454280e+01 1.30889257e-12 6.86412529e-14 0.00000000e+00 1.24025132e-12 0.00000000e+00 6.86412529e-14
1.17251259e+01 1.19106077e-12 6.21863851e-14 0.00000000e+00 1.12887439e-12 0.00000000e+00 6.21863851e-14
1.21175312e+01 1.07819158e-12 5.63385184e-14 0.00000000e+00 1.02185306e-12 0.00000000e+00 5.63385184e-14
1.25230691e+01 9.85124669e-13 5.10405718e-14 0.00000000e+00 9.34084097e-13 0.00000000e+00 5.10405718e-14
1.29421791e+01 9.05059501e-13 4.62408321e-14 0.00000000e+00 8.58818669e-13 0.00000000e+00 4.62408321e-14
1.33753155e+01 8.35823638e-13 4.18924490e-14 0.00000000e+00 7.93931189e-13 0.00000000e+00 4.18924490e-14
1.38229477e+01 7.93258199e-13 3.79529781e-14 0.00000000e+00 7.55305221e-13 0.00000000e+00 3.79529781e-14
1.42855609e+01 7.65544334e-13 3.43839660e-14 0.00000000e+00 7.31160368e-13 0.00000000e+00 3.43839660e-14
1.47636563e+01 7.70907603e-13 3.11505758e-14 0.00000000e+00 7.39757027e-13 0.00000000e+00 3.11505758e-14
1.52577522e+01 7.80078677e-13 2.82212462e-14 0.00000000e+00 7.51857430e-13 0.00000000e+00 2.82212462e-14
1.57683840e+01 7.96833773e-13 2.55673842e-14 0.00000000e+00 7.71266389e-13 0.00000000e+00 2.55673842e-14
1.62961051e+01 8.11149256e-13 2.31630853e-14 0.00000000e+00 7.87986170e-13 0.00000000e+00 2.31630853e-14
1.68414875e+01 8.26448821e-13 2.09848813e-14 0.00000000e+00 8.05463939e-13 0.00000000e+00 2.09848813e-14
1.74051222e+01 8.34364663e-13 1.90115106e-14 0.00000000e+00 8.15353152e-13 0.00000000e+00 1.90115106e-14
1.79876201e+01 8.38009534e-13 1.72237112e-14 0.00000000e+00 8.20785823e-13 0.00000000e+00 1.72237112e-14
1.85896125e+01 8.33404812e-13 1.56040325e-14 0.00000000e+00 8.17800780e-13 0.00000000e+00 1.56040325e-14
1.92117518e+01 8.18475572e-13 1.41366646e-14 0.00000000e+00 8.04338907e-13 0.00000000e+00 1.41366646e-14
1.98547123e+01 8.01708540e-13 1.28072847e-14 0.00000000e+00 7.88901255e-13 0.00000000e+00 1.28072847e-14
2.05191907e+01 7.86425680e-13 1.16029167e-14 0.00000000e+00 7.74822763e-13 0.00000000e+00 1.16029167e-14
2.12059073e+01 7.71219561e-13 1.05118047e-14 0.00000000e+00 7.60707757e-13 0.00000000e+00 1.05118047e-14
2.19156062e+01 7.53402367e-13 9.52329842e-15 0.00000000e+00 7.43879069e-13 0.00000000e+00 9.52329842e-15
2.26490567e+01 7.38436645e-13 8.62774902e-15 0.00000000e+00 7.29808896e-13 0.00000000e+00 8.62774902e-15
2.34070535e+01 7.29115995e-13 7.81641505e-15 0.00000000e+00 7.21299580e-13 0.00000000e+00 7.81641505e-15
2.41904183e+01 7.18081689e-13 7.08137710e-15 0.00000000e+00 7.11000312e-13 0.00000000e+00 7.08137710e-15
2.50000000e+01 7.07670842e-13 6.41546044e-15 0.00000000e+00 7.01255381e-13 0.00000000e+00 6.41546044e-15
2.75422870e+01 6.75175657e-13 4.79786316e-15 0.00000000e+00 6.70377794e-13 0.00000000e+00 4.79786316e-15
3.16227766e+01 6.19356166e-13 3.16991676e-15 0.00000000e+00 6.16186249e-13 0.00000000e+00 3.16991676e-15
3.63078055e+01 5.39734745e-13 2.09434323e-15 0.00000000e+00 5.37640402e-13 0.00000000e+00 2.09434323e-15
4.16869383e+01 4.41305603e-13 1.38371885e-15 0.00000000e+00 4.39921884e-13 0.00000000e+00 1.38371885e-15
4.78630092e+01 3.35957601e-13 9.14213979e-16 0.00000000e+00 3.35043387e-13 0.00000000e+00 9.14213979e-16
5.49540874e+01 2.40281425e-13 6.04015186e-16 0.00000000e+00 2.39677409e-13 0.00000000e+00 6.04015186e-16
6.30957344e+01 1.62412687e-13 3.99068876e-16 0.00000000e+00 1.62013618e-13 0.00000000e+00 3.99068876e-16
7.24435960e+01 1.04611243e-13 2.63662192e-16 0.00000000e+00 1.04347581e-13 0.00000000e+00 2.63662192e-16
8.31763771e+01 6.46923762e-14 1.74199882e-16 0.00000000e+00 6.45181763e-14 0.00000000e+00 1.74199882e-16
9.54992586e+01 3.88254412e-14 1.15092721e-16 0.00000000e+00 3.87103485e-14 0.00000000e+00 1.15092721e-16
1.09647820e+02 2.27017193e-14 7.60410067e-17 0.00000000e+00 2.26256783e-14 0.00000000e+00 7.60410067e-17
1.25892541e+02 1.31436921e-14 5.02397949e-17 0.00000000e+00 1.30934523e-14 0.00000000e+00 5.02397949e-17
1.44543977e+02 7.51613589e-15 3.31931033e-17 0.00000000e+00 7.48294279e-15 0.00000000e+00 3.31931033e-17
1.65958691e+02 4.07688408e-15 2.19304659e-17 0.00000000e+00 4.05495362e-15 0.00000000e+00 2.19304659e-17
1.90546072e+02 2.20078170e-15 1.44893151e-17 0.00000000e+00 2.18629238e-15 0.00000000e+00 1.44893151e-17
2.18776162e+02 1.18093943e-15 9.57299556e-18 0.00000000e+00 1.17136643e-15 0.00000000e+00 9.57299556e-18
2.51188643e+02 6.29295881e-16 6.32481544e-18 0.00000000e+00 6.22971066e-16 0.00000000e+00 6.32481544e-18
2.88403150e+02 3.32864860e-16 4.17876412e-18 0.00000000e+00 3.28686095e-16 0.00000000e+00 4.17876412e-18
3.31131121e+02 1.75221426e-16 2.76088208e-18 0.00000000e+00 1.72460544e-16 0.00000000e+00 2.76088208e-18
3.80189396e+02 9.17581766e-17 1.82409670e-18 0.00000000e+00 8.99340799e-17 0.00000000e+00 1.82409670e-18
4.36515832e+02 4.78940210e-17 1.20516874e-18 0.00000000e+00 4.66888522e-17 0.00000000e+00 1.20516874e-18
5.01187234e+02 2.49268522e-17 7.96247089e-19 0.00000000e+00 2.41306051e-17 0.00000000e+00 7.96247089e-19
5.75439937e+02 1.29521762e-17 5.26075235e-19 0.00000000e+00 1.24261010e-17 0.00000000e+00 5.26075235e-19
6.60693448e+02 6.72602408e-18 3.47574461e-19 0.00000000e+00 6.37844962e-18 0.00000000e+00 3.47574461e-19
7.58577575e+02 3.49485611e-18 2.29640169e-19 0.00000000e+00 3.26521594e-18 0.00000000e+00 2.29640169e-19
8.70963590e+02 1.81883205e-18 1.51721755e-19 0.00000000e+00 1.66711029e-18 0.00000000e+00 1.51721755e-19
1.00000000e+03 8.49159703e-19 0.00000000e+00 0.00000000e+00 8.49159703e-19 0.00000000e+00 0.00000000e+00
