# column 1: lambda (micron)
# column 2: total flux; lambda*F_lambda (W/m2)
# column 3: direct stellar flux; lambda*F_lambda (W/m2)
# column 4: scattered stellar flux; lambda*F_lambda (W/m2)
# column 5: total dust emission flux; lambda*F_lambda (W/m2)
# column 6: dust emission scattered flux; lambda*F_lambda (W/m2)
# column 7: transparent flux; lambda*F_lambda (W/m2)
1.00000000e-03 5.25639484e-13 5.25636674e-13 2.81002535e-18 0.00000000e+00 0.00000000e+00 5.25636674e-13
1.14815362e-03 6.20424111e-13 6.20419813e-13 4.29789876e-18 0.00000000e+00 0.00000000e+00 6.20419813e-13
1.31825674e-03 7.32301281e-13 7.32294308e-13 6.97335913e-18 0.00000000e+00 0.00000000e+00 7.32294308e-13
1.51356125e-03 8.64352665e-13 8.64342083e-13 1.05821603e-17 0.00000000e+00 0.00000000e+00 8.64342083e-13
1.73780083e-03 1.02021903e-12 1.02020080e-12 1.82333982e-17 0.00000000e+00 0.00000000e+00 1.02020080e-12
1.99526231e-03 1.20420032e-12 1.20416405e-12 3.62654195e-17 0.00000000e+00 0.00000000e+00 1.20416405e-12
2.29086765e-03 1.42135214e-12 1.42129968e-12 5.24587722e-17 0.00000000e+00 0.00000000e+00 1.42129968e-12
2.63026799e-03 1.67770125e-12 1.67758934e-12 1.11909074e-16 0.00000000e+00 0.00000000e+00 1.67758934e-12
3.01995172e-03 1.98028219e-12 1.98009332e-12 1.88875841e-16 0.00000000e+00 0.00000000e+00 1.98009332e-12
3.46736850e-03 2.33747335e-12 2.33714500e-12 3.28347943e-16 0.00000000e+00 0.00000000e+00 2.33714500e-12
3.98107171e-03 2.75910523e-12 2.75858048e-12 5.24749941e-16 0.00000000e+00 0.00000000e+00 2.75858048e-12
4.57088190e-03 3.25719474e-12 3.25600946e-12 1.18527928e-15 0.00000000e+00 0.00000000e+00 3.25600946e-12
5.24807460e-03 3.84548604e-12 3.84313516e-12 2.35087763e-15 0.00000000e+00 0.00000000e+00 3.84313516e-12
6.02559586e-03 4.54016974e-12 4.53613173e-12 4.03800530e-15 0.00000000e+00 0.00000000e+00 4.53613173e-12
6.91830971e-03 5.36041691e-12 5.35408989e-12 6.32701397e-15 0.00000000e+00 0.00000000e+00 5.35408989e-12
7.94328235e-03 6.33018219e-12 6.31954278e-12 1.06394071e-14 1.90044647e-303 1.75141856e-304 6.31954278e-12
9.12010839e-03 7.48351082e-12 7.45908676e-12 2.44240653e-14 8.86693029e-265 1.31560201e-265 7.45908676e-12
1.04712855e-02 8.35589559e-12 8.33078048e-12 2.51151141e-14 3.91759913e-231 7.24675837e-232 8.33078048e-12
1.20226443e-02 8.36597542e-12 8.33078048e-12 3.51949437e-14 5.86398809e-202 8.26756099e-203 8.33078048e-12
1.38038426e-02 8.38994284e-12 8.33078048e-12 5.91623692e-14 1.64083333e-176 2.77601493e-177 8.33078048e-12
1.58489319e-02 8.40778073e-12 8.33078048e-12 7.70002500e-14 2.23805442e-154 4.03923940e-155 8.33078048e-12
1.81970086e-02 8.42756442e-12 8.33078048e-12 9.67839441e-14 3.81291999e-135 5.70754303e-136 8.33078048e-12
2.08929613e-02 8.45886696e-12 8.33078048e-12 1.28086485e-13 1.99989991e-118 3.18922599e-119 8.33078048e-12
2.39883292e-02 8.49640101e-12 8.33078048e-12 1.65620532e-13 6.94691327e-104 1.06438795e-104 8.33078048e-12
2.75422870e-02 8.52854404e-12 8.33078048e-12 1.97763562e-13 3.03608947e-91 4.42046363e-92 8.33078048e-12
3.16227766e-02 8.55741071e-12 8.33078048e-12 2.26630234e-13 2.86112950e-80 3.75056293e-81 8.33078048e-12
3.63078055e-02 8.56333009e-12 8.33078048e-12 2.32549613e-13 9.77747033e-71 1.22441163e-71 8.33078048e-12
4.16869383e-02 8.58321275e-12 8.33078048e-12 2.52432274e-13 1.83419572e-62 2.24645847e-63 8.33078048e-12
4.78630092e-02 8.59501848e-12 8.33078048e-12 2.64238004e-13 2.66916405e-55 3.15146220e-56 8.33078048e-12
5.49540874e-02 8.59798233e-12 8.33078048e-12 2.67201853e-13 4.25120988e-49 4.72078728e-50 8.33078048e-12
6.30957344e-02 8.56601052e-12 8.33078048e-12 2.35230044e-13 1.26611050e-43 1.32241670e-44 8.33078048e-12
7.24435960e-02 8.52203116e-12 8.33078048e-12 1.91250682e-13 6.79110293e-39 6.24670804e-40 8.33078048e-12
8.31763771e-02 8.52233389e-12 8.33078048e-12 1.91553418e-13 7.08767617e-35 6.34677779e-36 8.33078048e-12
9.54992586e-02 8.52456750e-12 8.33078048e-12 1.93787019e-13 2.02182889e-31 1.85429572e-32 8.33078048e-12
1.09647820e-01 8.16601460e-12 7.95583672e-12 2.10177878e-13 1.81983541e-28 1.86412917e-29 7.95583672e-12
1.25892541e-01 7.64313151e-12 7.42481883e-12 2.18312671e-13 6.28314302e-26 6.65526550e-27 7.42481883e-12
1.44543977e-01 7.13565000e-12 6.92924411e-12 2.06405890e-13 9.06152660e-24 9.50641007e-25 6.92924411e-12
1.65958691e-01 6.67630008e-12 6.46674687e-12 2.09553209e-13 4.76228599e-22 5.46583733e-23 6.46674687e-12
1.90546072e-01 6.24963772e-12 6.03511933e-12 2.14518380e-13 9.93984710e-21 1.26431396e-21 6.03511933e-12
2.18776162e-01 5.81019492e-12 5.63230107e-12 1.77893741e-13 1.11474371e-19 1.38525199e-20 5.63230107e-12
2.51188643e-01 5.46788462e-12 5.25636919e-12 2.11513964e-13 1.45877185e-18 2.12952844e-19 5.25636919e-12
2.88403150e-01 5.10384977e-12 4.90552916e-12 1.98307818e-13 1.27940768e-17 1.85981721e-18 4.90552916e-12
3.31131121e-01 4.76620560e-12 4.57810618e-12 1.88023080e-13 7.63388625e-17 1.07020520e-17 4.57810618e-12
3.80189396e-01 4.44377767e-12 4.27253728e-12 1.70912024e-13 3.28360387e-16 4.45860350e-17 4.27253728e-12
4.36515832e-01 4.14398408e-12 3.98736380e-12 1.55540586e-13 1.07970223e-15 1.40829398e-16 3.98736380e-12
5.01187234e-01 3.86769971e-12 3.72122441e-12 1.43644788e-13 2.83050988e-15 3.66653928e-16 3.72122441e-12
5.75439937e-01 3.60894928e-12 3.47284869e-12 1.29826900e-13 6.27369014e-15 8.17960441e-16 3.47284869e-12
6.60693448e-01 3.37117182e-12 3.24105097e-12 1.17521975e-13 1.25988770e-14 1.78036219e-15 3.24105097e-12
7.58577575e-01 3.15365330e-12 3.02472476e-12 1.03954716e-13 2.49738238e-14 4.07396009e-15 3.02472476e-12
8.70963590e-01 2.96375489e-12 2.82283739e-12 9.06434680e-14 5.02740267e-14 9.22489835e-15 2.82283739e-12
1.00000000e+00 2.81163870e-12 2.63442513e-12 7.55599866e-14 1.01653579e-13 1.96141760e-14 2.63442513e-12
1.14815362e+00 2.72465226e-12 2.45858859e-12 6.41033802e-14 2.01960295e-13 3.82336459e-14 2.45858859e-12
1.31825674e+00 2.72870621e-12 2.29448837e-12 5.23079755e-14 3.81909858e-13 6.58672781e-14 2.29448837e-12
1.51356125e+00 2.85329901e-12 2.14134114e-12 4.09862754e-14 6.70971589e-13 1.01337867e-13 2.14134114e-12
1.73780083e+00 3.09870333e-12 1.99841583e-12 3.19741369e-14 1.06831336e-12 1.34929697e-13 1.99841583e-12
1.99526231e+00 3.42910285e-12 1.86503017e-12 2.31519482e-14 1.54092073e-12 1.55997451e-13 1.86503017e-12
2.29086765e+00 3.77958728e-12 1.74054743e-12 1.68650880e-14 2.02217476e-12 1.59322539e-13 1.74054743e-12
2.63026799e+00 4.10865906e-12 1.62437337e-12 1.19852505e-14 2.47230044e-12 1.45685740e-13 1.62437337e-12
3.01995172e+00 4.32475183e-12 1.51595343e-12 8.51355833e-15 2.80028484e-12 1.24782995e-13 1.51595343e-12
3.46736850e+00 4.42878674e-12 1.41477006e-12 5.92913825e-15 3.00808754e-12 9.92898143e-14 1.41477006e-12
3.98107171e+00 4.38016325e-12 1.32034025e-12 4.07154822e-15 3.05575146e-12 7.39283738e-14 1.32034025e-12
4.57088190e+00 4.21006209e-12 1.23221321e-12 2.78553608e-15 2.97506334e-12 5.20073593e-14 1.23221321e-12
5.24807460e+00 3.85474382e-12 1.01885146e-12 1.61035830e-15 2.83428200e-12 3.41474426e-14 1.01885146e-12
6.02559586e+00 3.32797834e-12 6.73148485e-13 7.21868788e-16 2.65410799e-12 2.12631269e-14 6.73148485e-13
6.70000000e+00 2.98658245e-12 4.89650796e-13 3.74331969e-16 2.49655732e-12 1.41411940e-14 4.89650796e-13
6.92422916e+00 2.89473123e-12 4.43605145e-13 3.04015791e-16 2.45082207e-12 1.24409173e-14 4.43605145e-13
7.15596261e+00 2.81645033e-12 4.01889522e-13 2.38243484e-16 2.41432257e-12 1.07466658e-14 4.01889522e-13
7.39545150e+00 2.78091968e-12 3.64096743e-13 1.81956157e-16 2.41664098e-12 9.13752071e-15 3.64096743e-13
7.64295536e+00 2.88568477e-12 3.29857910e-13 1.26316928e-16 2.55570054e-12 7.53203520e-15 3.29857910e-13
7.89874245e+00 3.15360138e-12 2.98838820e-13 7.40594287e-17 2.85468850e-12 5.85760177e-15 2.98838820e-13
8.16308998e+00 3.50195375e-12 2.70736695e-13 4.26399282e-17 3.23117442e-12 4.45688554e-15 2.70736695e-13
8.43628443e+00 3.98605410e-12 2.45277229e-13 2.32518121e-17 3.74075362e-12 3.26006492e-15 2.45277229e-13
8.71862190e+00 4.27937298e-12 2.22211915e-13 1.46707696e-17 4.05714639e-12 2.53490476e-15 2.22211915e-13
9.01040836e+00 4.60622095e-12 2.01315610e-13 9.33077249e-18 4.40489601e-12 1.94045906e-15 2.01315610e-13
9.31196005e+00 4.80806083e-12 1.82384346e-13 0.00000000e+00 4.62567648e-12 0.00000000e+00 1.82384346e-13
9.62360379e+00 4.70496038e-12 1.65233336e-13 0.00000000e+00 4.53972705e-12 0.00000000e+00 1.65233336e-13
9.94567731e+00 4.41968212e-12 1.49695167e-13 0.00000000e+00 4.26998695e-12 0.00000000e+00 1.49695167e-13
1.02785297e+01 4.11770092e-12 1.35618173e-13 0.00000000e+00 3.98208275e-12 0.00000000e+00 1.35618173e-13
1.06225216e+01 3.80541183e-12 1.22864947e-13 0.00000000e+00 3.68254688e-12 0.00000000e+00 1.22864947e-13
1.09780260e+01 3.47927487e-12 1.11311006e-13 0.00000000e+00 3.36796387e-12 0.00000000e+00 1.11311006e-13
1.13454280e+01 3.20441871e-12 1.00843571e-13 0.00000000e+00 3.10357514e-12 0.00000000e+00 1.00843571e-13
1.17251259e+01 2.97056255e-12 9.13604705e-14 0.00000000e+00 2.87920207e-12 0.00000000e+00 9.13604705e-14
1.21175312e+01 2.75699426e-12 8.27691389e-14 0.00000000e+00 2.67422512e-12 0.00000000e+00 8.27691389e-14
1.25230691e+01 2.55883521e-12 7.49857166e-14 0.00000000e+00 2.48384949e-12 0.00000000e+00 7.49857166e-14
1.29421791e+01 2.40823834e-12 6.79342298e-14 0.00000000e+00 2.34030411e-12 0.00000000e+00 6.79342298e-14
1.33753155e+01 2.26338435e-12 6.15458488e-14 0.00000000e+00 2.20183850e-12 0.00000000e+00 6.15458488e-14
1.38229477e+01 2.16980076e-12 5.57582167e-14 0.00000000e+00 2.11404255e-12 0.00000000e+00 5.57582167e-14
1.42855609e+01 2.12357191e-12 5.05148403e-14 0.00000000e+00 2.07305706e-12 0.00000000e+00 5.05148403e-14
1.47636563e+01 2.15352603e-12 4.57645392e-14 0.00000000e+00 2.10776149e-12 0.00000000e+00 4.57645392e-14
1.52577522e+01 2.19278328e-12 4.14609457e-14 0.00000000e+00 2.15132233e-12 0.00000000e+00 4.14609457e-14
1.57683840e+01 2.23775888e-12 3.75620523e-14 0.00000000e+00 2.20019683e-12 0.00000000e+00 3.75620523e-14
1.62961051e+01 2.29098767e-12 3.40298020e-14 0.00000000e+00 2.25695787e-12 0.00000000e+00 3.40298020e-14
1.68414875e+01 2.34484704e-12 3.08297166e-14 0.00000000e+00 2.31401732e-12 0.00000000e+00 3.08297166e-14
1.74051222e+01 2.38516857e-12 2.79305599e-14 0.00000000e+00 2.35723801e-12 0.00000000e+00 2.79305599e-14
1.79876201e+01 2.40006685e-12 2.53040334e-14 0.00000000e+00 2.37476281e-12 0.00000000e+00 2.53040334e-14
1.85896125e+01 2.39628201e-12 2.29244994e-14 0.00000000e+00 2.37335751e-12 0.00000000e+00 2.29244994e-14
1.92117518e+01 2.38701351e-12 2.07687314e-14 0.00000000e+00 2.36624478e-12 0.00000000e+00 2.07687314e-14
1.98547123e+01 2.34450847e-12 1.88156870e-14 0.00000000e+00 2.32569278e-12 0.00000000e+00 1.88156870e-14
2.05191907e+01 2.31543721e-12 1.70463024e-14 0.00000000e+00 2.29839091e-12 0.00000000e+00 1.70463024e-14
2.12059073e+01 2.27379515e-12 1.54433068e-14 0.00000000e+00 2.25835184e-12 0.00000000e+00 1.54433068e-14
2.19156062e+01 2.24352663e-12 1.39910532e-14 0.00000000e+00 2.22953557e-12 0.00000000e+00 1.39910532e-14
2.26490567e+01 2.20885550e-12 1.26753663e-14 0.00000000e+00 2.19618013e-12 0.00000000e+00 1.26753663e-14
2.34070535e+01 2.17124171e-12 1.14834036e-14 0.00000000e+00 2.15975831e-12 0.00000000e+00 1.14834036e-14
2.41904183e+01 2.13483328e-12 1.04035303e-14 0.00000000e+00 2.12442975e-12 0.00000000e+00 1.04035303e-14
2.50000000e+01 2.09794904e-12 9.42520591e-15 0.00000000e+00 2.08852384e-12 0.00000000e+00 9.42520591e-15
2.75422870e+01 1.97020171e-12 7.04872996e-15 0.00000000e+00 1.96315298e-12 0.00000000e+00 7.04872996e-15
3.16227766e+01 1.74023430e-12 4.65704970e-15 0.00000000e+00 1.73557725e-12 0.00000000e+00 4.65704970e-15
3.63078055e+01 1.44250883e-12 3.07688223e-15 0.00000000e+00 1.43943195e-12 0.00000000e+00 3.07688223e-15
4.16869383e+01 1.11642835e-12 2.03287593e-15 0.00000000e+00 1.11439547e-12 0.00000000e+00 2.03287593e-15
4.78630092e+01 8.00797234e-13 1.34310781e-15 0.00000000e+00 7.99454126e-13 0.00000000e+00 1.34310781e-15
5.49540874e+01 5.40496589e-13 8.87382527e-16 0.00000000e+00 5.39609206e-13 0.00000000e+00 8.87382527e-16
6.30957344e+01 3.45599818e-13 5.86287821e-16 0.00000000e+00 3.45013530e-13 0.00000000e+00 5.86287821e-16
7.24435960e+01 2.11360956e-13 3.87356522e-16 0.00000000e+00 2.10973600e-13 0.00000000e+00 3.87356522e-16
8.31763771e+01 1.24871795e-13 2.55923916e-16 0.00000000e+00 1.24615871e-13 0.00000000e+00 2.55923916e-16
9.54992586e+01 7.18284541e-14 1.69087255e-16 0.00000000e+00 7.16593669e-14 0.00000000e+00 1.69087255e-16
1.09647820e+02 4.05559895e-14 1.11714841e-16 0.00000000e+00 4.04442747e-14 0.00000000e+00 1.11714841e-16
1.25892541e+02 2.27917768e-14 7.38092637e-17 0.00000000e+00 2.27179675e-14 0.00000000e+00 7.38092637e-17
1.44543977e+02 1.27005688e-14 4.87652969e-17 0.00000000e+00 1.26518035e-14 0.00000000e+00 4.87652969e-17
1.65958691e+02 6.73317358e-15 3.22189122e-17 0.00000000e+00 6.70095467e-15 0.00000000e+00 3.22189122e-17
1.90546072e+02 3.56475996e-15 2.12868242e-17 0.00000000e+00 3.54347314e-15 0.00000000e+00 2.12868242e-17
2.18776162e+02 1.88101414e-15 1.40640653e-17 0.00000000e+00 1.86695008e-15 0.00000000e+00 1.40640653e-17
2.51188643e+02 9.88249280e-16 9.29203577e-18 0.00000000e+00 9.78957244e-16 0.00000000e+00 9.29203577e-18
2.88403150e+02 5.16460669e-16 6.13918715e-18 0.00000000e+00 5.10321482e-16 0.00000000e+00 6.13918715e-18
3.31131121e+02 2.69063782e-16 4.05612073e-18 0.00000000e+00 2.65007661e-16 0.00000000e+00 4.05612073e-18
3.80189396e+02 1.39650452e-16 2.67985239e-18 0.00000000e+00 1.36970600e-16 0.00000000e+00 2.67985239e-18
4.36515832e+02 7.23381604e-17 1.77056092e-18 0.00000000e+00 7.05675994e-17 0.00000000e+00 1.77056092e-18
5.01187234e+02 3.74043461e-17 1.16979800e-18 0.00000000e+00 3.62345481e-17 0.00000000e+00 1.16979800e-18
5.75439937e+02 1.93269271e-17 7.72877871e-19 0.00000000e+00 1.85540492e-17 0.00000000e+00 7.72877871e-19
6.60693448e+02 9.98890815e-18 5.10635346e-19 0.00000000e+00 9.47827281e-18 0.00000000e+00 5.10635346e-19
7.58577575e+02 5.16918163e-18 3.37373427e-19 0.00000000e+00 4.83180820e-18 0.00000000e+00 3.37373427e-19
8.70963590e+02 2.68103230e-18 2.22900413e-19 0.00000000e+00 2.45813189e-18 0.00000000e+00 2.22900413e-19
1.00000000e+03 1.24817424e-18 0.00000000e+00 0.00000000e+00 1.24817424e-18 0.00000000e+00 0.00000000e+00
