# column 1: lambda (micron)
# column 2: total flux; lambda*F_lambda (W/m2)
# column 3: direct stellar flux; lambda*F_lambda (W/m2)
# column 4: scattered stellar flux; lambda*F_lambda (W/m2)
# column 5: total dust emission flux; lambda*F_lambda (W/m2)
# column 6: dust emission scattered flux; lambda*F_lambda (W/m2)
# column 7: transparent flux; lambda*F_lambda (W/m2)
1.00000000e-03 1.03999166e-12 1.03997487e-12 1.67842013e-17 0.00000000e+00 0.00000000e+00 1.04634360e-12
1.14815362e-03 1.22512338e-12 1.22509932e-12 2.40564275e-17 0.00000000e+00 0.00000000e+00 1.23502095e-12
1.31825674e-03 1.44295114e-12 1.44284780e-12 1.03346924e-16 0.00000000e+00 0.00000000e+00 1.45772071e-12
1.51356125e-03 1.70013659e-12 1.69990021e-12 2.36383833e-16 0.00000000e+00 0.00000000e+00 1.72057784e-12
1.73780083e-03 2.00628902e-12 2.00617659e-12 1.12432716e-16 0.00000000e+00 0.00000000e+00 2.03083353e-12
1.99526231e-03 2.35877355e-12 2.35852552e-12 2.48034149e-16 0.00000000e+00 0.00000000e+00 2.39703472e-12
2.29086765e-03 2.78281617e-12 2.78109336e-12 1.72280491e-15 0.00000000e+00 0.00000000e+00 2.82926954e-12
2.63026799e-03 3.28260185e-12 3.27141832e-12 1.11835343e-14 0.00000000e+00 0.00000000e+00 3.33944522e-12
3.01995172e-03 3.84740732e-12 3.84255113e-12 4.85618282e-15 0.00000000e+00 0.00000000e+00 3.94161611e-12
3.46736850e-03 4.52677385e-12 4.51486237e-12 1.19114750e-14 0.00000000e+00 0.00000000e+00 4.65237083e-12
3.98107171e-03 5.31244896e-12 5.30590659e-12 6.54237543e-15 0.00000000e+00 0.00000000e+00 5.49128930e-12
4.57088190e-03 6.34087864e-12 6.33469208e-12 6.18655561e-15 0.00000000e+00 0.00000000e+00 6.48148207e-12
5.24807460e-03 7.47177782e-12 7.42963235e-12 4.21454658e-14 0.00000000e+00 0.00000000e+00 7.65022704e-12
6.02559586e-03 8.75935467e-12 8.71671563e-12 4.26390431e-14 0.00000000e+00 0.00000000e+00 9.02972084e-12
6.91830971e-03 1.02953641e-11 1.02327258e-11 6.26383335e-14 0.00000000e+00 0.00000000e+00 1.06579658e-11
7.94328235e-03 1.21971036e-11 1.20211522e-11 1.75951446e-13 1.39591428e-304 1.49560373e-306 1.25798170e-11
9.12010839e-03 1.44355570e-11 1.41182854e-11 3.17271640e-13 1.29426458e-265 2.00268347e-267 1.48482176e-11
1.04712855e-02 1.60188612e-11 1.57175165e-11 3.01344743e-13 1.06372785e-231 3.34850760e-233 1.65834298e-11
1.20226443e-02 1.58959459e-11 1.56678487e-11 2.28097194e-13 2.90986443e-202 7.12996390e-204 1.65834298e-11
1.38038426e-02 1.59203977e-11 1.56091406e-11 3.11257073e-13 1.29902256e-176 3.59180436e-178 1.65834298e-11
1.58489319e-02 1.58954107e-11 1.55372941e-11 3.58116566e-13 2.70127595e-154 8.42310642e-156 1.65834298e-11
1.81970086e-02 1.58043786e-11 1.54713218e-11 3.33056759e-13 7.01647948e-135 2.51661267e-136 1.65834298e-11
2.08929613e-02 1.58417778e-11 1.54166979e-11 4.25079865e-13 5.09162987e-118 2.11871045e-119 1.65834298e-11
2.39883292e-02 1.58301556e-11 1.53462104e-11 4.83945210e-13 2.37741480e-103 1.12875447e-104 1.65834298e-11
2.75422870e-02 1.57948499e-11 1.52646264e-11 5.30223521e-13 1.36422276e-90 7.35236481e-92 1.65834298e-11
3.16227766e-02 1.57634018e-11 1.51850775e-11 5.78324352e-13 1.65078338e-79 9.79322914e-81 1.65834298e-11
3.63078055e-02 1.57195780e-11 1.51229734e-11 5.96604648e-13 6.89520963e-70 4.28868003e-71 1.65834298e-11
4.16869383e-02 1.57499634e-11 1.50694629e-11 6.80500490e-13 1.55736127e-61 1.19690210e-62 1.65834298e-11
4.78630092e-02 1.56735833e-11 1.49229408e-11 7.50642484e-13 2.72078171e-54 2.46513771e-55 1.65834298e-11
5.49540874e-02 1.55125376e-11 1.47215393e-11 7.90998351e-13 5.09799309e-48 5.08056806e-49 1.65834298e-11
6.30957344e-02 1.50285824e-11 1.42283971e-11 8.00185233e-13 1.80867345e-42 2.00932909e-43 1.65834298e-11
7.24435960e-02 1.44021391e-11 1.36655923e-11 7.36546826e-13 1.12138739e-37 1.21729177e-38 1.65834298e-11
8.31763771e-02 1.44062277e-11 1.37147581e-11 6.91469597e-13 1.24467076e-33 1.31259474e-34 1.65834298e-11
9.54992586e-02 1.45581326e-11 1.38599813e-11 6.98151359e-13 3.78939007e-30 4.05782517e-31 1.65834298e-11
1.09647820e-01 1.43450939e-11 1.36442411e-11 7.00852742e-13 3.49719069e-27 3.95988113e-28 1.58370587e-11
1.25892541e-01 1.37493037e-11 1.30736185e-11 6.75685163e-13 1.21098749e-24 1.32186078e-25 1.47800032e-11
1.44543977e-01 1.30618761e-11 1.24598927e-11 6.01983326e-13 1.74597335e-22 1.84079551e-23 1.37935015e-11
1.65958691e-01 1.23650135e-11 1.17775298e-11 5.87483765e-13 9.33176360e-21 1.07084148e-21 1.28728446e-11
1.90546072e-01 1.15218789e-11 1.09262833e-11 5.95595384e-13 2.04626720e-19 2.69691354e-20 1.20136376e-11
2.18776162e-01 1.05646296e-11 1.00309779e-11 5.33649156e-13 2.47558854e-18 3.35611786e-19 1.12117790e-11
2.51188643e-01 1.01391669e-11 9.57242792e-12 5.66707126e-13 3.18656418e-17 5.27497951e-18 1.04634409e-11
2.88403150e-01 9.59019310e-12 9.06950857e-12 5.20411515e-13 2.73016704e-16 4.39062650e-17 9.76505125e-12
3.31131121e-01 9.02901997e-12 8.54476842e-12 4.82648642e-13 1.60291165e-15 2.52155980e-16 9.11327608e-12
3.80189396e-01 8.48486220e-12 8.03727590e-12 4.40764871e-13 6.82143012e-15 1.05182504e-15 8.50500410e-12
4.36515832e-01 7.97928573e-12 7.55604756e-12 4.01269044e-13 2.19691229e-14 3.33759668e-15 7.93733165e-12
5.01187234e-01 7.52212171e-12 7.10099296e-12 3.65280963e-13 5.58477816e-14 8.52806287e-15 7.40754890e-12
5.75439937e-01 7.11355511e-12 6.66926683e-12 3.27869340e-13 1.16418931e-13 1.76308163e-14 6.91312687e-12
6.60693448e-01 6.75901656e-12 6.25946134e-12 2.93076950e-13 2.06478263e-13 3.11728202e-14 6.45170538e-12
7.58577575e-01 6.45605240e-12 5.87141292e-12 2.58286313e-13 3.26353163e-13 5.01916430e-14 6.02108180e-12
8.70963590e-01 6.20735669e-12 5.50528078e-12 2.27399243e-13 4.74676671e-13 7.60385295e-14 5.61920048e-12
1.00000000e+00 6.01239633e-12 5.15885937e-12 1.87930229e-13 6.65606724e-13 1.14056997e-13 5.24414302e-12
1.14815362e+00 5.93738214e-12 4.83142542e-12 1.51799731e-13 9.54156988e-13 1.78168670e-13 4.89411902e-12
1.31825674e+00 6.09438187e-12 4.52218390e-12 1.18706484e-13 1.45349148e-12 2.78023511e-13 4.56745763e-12
1.51356125e+00 6.61792821e-12 4.23024498e-12 9.24652175e-14 2.29521802e-12 4.22481277e-13 4.26259947e-12
1.73780083e+00 7.59843593e-12 3.95534851e-12 7.21871948e-14 3.57090022e-12 5.64769654e-13 3.97808929e-12
1.99526231e+00 9.13667190e-12 3.69683913e-12 5.45998319e-14 5.38523294e-12 6.96594579e-13 3.71256894e-12
2.29086765e+00 1.08802338e-11 3.45392641e-12 4.14149520e-14 7.38489245e-12 7.55655951e-13 3.46477093e-12
2.63026799e+00 1.28508887e-11 3.22596698e-12 3.11002254e-14 9.59382150e-12 7.57158803e-13 3.23351237e-12
3.01995172e+00 1.47332486e-11 3.01237246e-12 2.30640540e-14 1.16978121e-11 7.35280522e-13 3.01768933e-12
3.46736850e+00 1.63358842e-11 2.81246417e-12 1.71788056e-14 1.35062412e-11 6.76690603e-13 2.81627154e-12
3.98107171e+00 1.77448938e-11 2.62553641e-12 1.25323321e-14 1.51068250e-11 5.97577837e-13 2.62829753e-12
4.57088190e+00 1.88589275e-11 2.45084034e-12 8.92520846e-15 1.63991619e-11 4.93826175e-13 2.45286997e-12
5.24807460e+00 1.94767143e-11 2.02679926e-12 5.38910474e-15 1.74445259e-11 3.70607646e-13 2.02814751e-12
6.02559586e+00 1.94065347e-11 1.33924350e-12 2.48352184e-15 1.80648077e-11 2.58132303e-13 1.33998377e-12
6.70000000e+00 1.91682907e-11 9.74232707e-13 1.32456566e-15 1.81927334e-11 1.82353285e-13 9.74709347e-13
6.92422916e+00 1.90857701e-11 8.82633204e-13 1.07446037e-15 1.82020624e-11 1.62311070e-13 8.83049889e-13
7.15596261e+00 1.88997500e-11 7.99638970e-13 8.51845145e-16 1.80992591e-11 1.41584671e-13 8.00009879e-13
7.39545150e+00 1.89123617e-11 7.24434713e-13 6.50157801e-16 1.81872768e-11 1.20019233e-13 7.24778763e-13
7.64295536e+00 1.91287209e-11 6.56267083e-13 4.37234448e-16 1.84720166e-11 9.56745121e-14 6.56622211e-13
7.89874245e+00 1.96298767e-11 5.94459293e-13 2.49572492e-16 1.90351679e-11 6.89083143e-14 5.94874946e-13
8.16308998e+00 2.00950025e-11 5.38425848e-13 1.34493427e-16 1.95564422e-11 4.73856928e-14 5.38934254e-13
8.43628443e+00 2.07350574e-11 4.87614300e-13 6.92565062e-17 2.02473739e-11 3.15026758e-14 4.88254098e-13
8.71862190e+00 2.06757451e-11 4.41627680e-13 4.26908423e-17 2.02340747e-11 2.30087612e-14 4.42339790e-13
9.01040836e+00 2.09869245e-11 3.99961755e-13 2.60107822e-17 2.05869368e-11 1.71858016e-14 4.00743158e-13
9.31196005e+00 2.10202696e-11 3.62237234e-13 0.00000000e+00 2.06580324e-11 0.00000000e+00 3.63058180e-13
9.62360379e+00 2.08710485e-11 3.28153694e-13 0.00000000e+00 2.05428948e-11 0.00000000e+00 3.28917012e-13
9.94567731e+00 2.07260969e-11 2.97337484e-13 0.00000000e+00 2.04287594e-11 0.00000000e+00 2.97986401e-13
1.02785297e+01 2.02344539e-11 2.69432540e-13 0.00000000e+00 1.99650214e-11 0.00000000e+00 2.69964435e-13
1.06225216e+01 2.00806930e-11 2.44146288e-13 0.00000000e+00 1.98365467e-11 0.00000000e+00 2.44577592e-13
1.09780260e+01 1.97160308e-11 2.21240939e-13 0.00000000e+00 1.94947899e-11 0.00000000e+00 2.21578069e-13
1.13454280e+01 1.95622789e-11 2.00476801e-13 0.00000000e+00 1.93618021e-11 0.00000000e+00 2.00741370e-13
1.17251259e+01 1.92109073e-11 1.81655148e-13 0.00000000e+00 1.90292521e-11 0.00000000e+00 1.81864106e-13
1.21175312e+01 1.88946032e-11 1.64597829e-13 0.00000000e+00 1.87300053e-11 0.00000000e+00 1.64762018e-13
1.25230691e+01 1.85009593e-11 1.49139513e-13 0.00000000e+00 1.83518198e-11 0.00000000e+00 1.49268171e-13
1.29421791e+01 1.80109709e-11 1.35129810e-13 0.00000000e+00 1.78758411e-11 0.00000000e+00 1.35231331e-13
1.33753155e+01 1.76110728e-11 1.22433804e-13 0.00000000e+00 1.74886390e-11 0.00000000e+00 1.22514483e-13
1.38229477e+01 1.70896273e-11 1.10926426e-13 0.00000000e+00 1.69787009e-11 0.00000000e+00 1.10993499e-13
1.42855609e+01 1.67737948e-11 1.00497626e-13 0.00000000e+00 1.66732971e-11 0.00000000e+00 1.00555922e-13
1.47636563e+01 1.67653952e-11 9.10445441e-14 0.00000000e+00 1.66743506e-11 0.00000000e+00 9.10998706e-14
1.52577522e+01 1.68925788e-11 8.24795881e-14 0.00000000e+00 1.68100992e-11 0.00000000e+00 8.25330452e-14
1.57683840e+01 1.69546366e-11 7.47195114e-14 0.00000000e+00 1.68799171e-11 0.00000000e+00 7.47718247e-14
1.62961051e+01 1.70919671e-11 6.76893196e-14 0.00000000e+00 1.70242778e-11 0.00000000e+00 6.77404517e-14
1.68414875e+01 1.71792175e-11 6.13204275e-14 0.00000000e+00 1.71178971e-11 0.00000000e+00 6.13702932e-14
1.74051222e+01 1.71788743e-11 5.55518171e-14 0.00000000e+00 1.71233224e-11 0.00000000e+00 5.55991699e-14
1.79876201e+01 1.70592087e-11 5.03265377e-14 0.00000000e+00 1.70088821e-11 0.00000000e+00 5.03707500e-14
1.85896125e+01 1.68131151e-11 4.55939956e-14 0.00000000e+00 1.67675211e-11 0.00000000e+00 4.56339988e-14
1.92117518e+01 1.64364562e-11 4.13075430e-14 0.00000000e+00 1.63951487e-11 0.00000000e+00 4.13426810e-14
1.98547123e+01 1.60779943e-11 3.74246467e-14 0.00000000e+00 1.60405697e-11 0.00000000e+00 3.74549090e-14
2.05191907e+01 1.56001941e-11 3.39069339e-14 0.00000000e+00 1.55662871e-11 0.00000000e+00 3.39327342e-14
2.12059073e+01 1.50133719e-11 3.07197839e-14 0.00000000e+00 1.49826521e-11 0.00000000e+00 3.07417768e-14
2.19156062e+01 1.45171843e-11 2.78320512e-14 0.00000000e+00 1.44893522e-11 0.00000000e+00 2.78508898e-14
2.26490567e+01 1.39146670e-11 2.52156927e-14 0.00000000e+00 1.38894514e-11 0.00000000e+00 2.52318552e-14
2.34070535e+01 1.33727985e-11 2.28452166e-14 0.00000000e+00 1.33499533e-11 0.00000000e+00 2.28591087e-14
2.41904183e+01 1.28444937e-11 2.06975190e-14 0.00000000e+00 1.28237962e-11 0.00000000e+00 2.07094900e-14
2.50000000e+01 1.22845488e-11 1.87516789e-14 0.00000000e+00 1.22657971e-11 0.00000000e+00 1.87620165e-14
2.75422870e+01 1.05605488e-11 1.40246107e-14 0.00000000e+00 1.05465242e-11 0.00000000e+00 1.40313526e-14
3.16227766e+01 8.23087182e-12 9.26671852e-15 0.00000000e+00 8.22160510e-12 0.00000000e+00 9.27042274e-15
3.63078055e+01 6.04690020e-12 6.12288306e-15 0.00000000e+00 6.04077731e-12 0.00000000e+00 6.12490756e-15
4.16869383e+01 4.17463415e-12 4.04560913e-15 0.00000000e+00 4.17058854e-12 0.00000000e+00 4.04668630e-15
4.78630092e+01 2.69698082e-12 2.67306379e-15 0.00000000e+00 2.69430776e-12 0.00000000e+00 2.67361912e-15
5.49540874e+01 1.65265982e-12 1.76616243e-15 0.00000000e+00 1.65089366e-12 0.00000000e+00 1.76644264e-15
6.30957344e+01 9.68130759e-13 1.16693749e-15 0.00000000e+00 9.66963822e-13 0.00000000e+00 1.16707708e-15
7.24435960e+01 5.48295616e-13 7.71011142e-16 0.00000000e+00 5.47524605e-13 0.00000000e+00 7.71080178e-16
8.31763771e+01 3.03415933e-13 5.09413532e-16 0.00000000e+00 3.02906520e-13 0.00000000e+00 5.09447621e-16
9.54992586e+01 1.64934669e-13 3.36571833e-16 0.00000000e+00 1.64598097e-13 0.00000000e+00 3.36588705e-16
1.09647820e+02 8.86951360e-14 2.22373572e-16 0.00000000e+00 8.84727624e-14 0.00000000e+00 2.22381952e-16
1.25892541e+02 4.78212367e-14 1.46922074e-16 0.00000000e+00 4.76743146e-14 0.00000000e+00 1.46926299e-16
1.44543977e+02 2.57195640e-14 9.70710977e-17 0.00000000e+00 2.56224929e-14 0.00000000e+00 9.70732430e-17
1.65958691e+02 1.32258319e-14 6.41346037e-17 0.00000000e+00 1.31616973e-14 0.00000000e+00 6.41356556e-17
1.90546072e+02 6.82248708e-15 4.23734866e-17 0.00000000e+00 6.78011359e-15 0.00000000e+00 4.23740075e-17
2.18776162e+02 3.52197773e-15 2.79959696e-17 0.00000000e+00 3.49398176e-15 0.00000000e+00 2.79962291e-17
2.51188643e+02 1.81619080e-15 1.84967954e-17 0.00000000e+00 1.79769400e-15 0.00000000e+00 1.84969251e-17
2.88403150e+02 9.34157522e-16 1.22207324e-17 0.00000000e+00 9.21936789e-16 0.00000000e+00 1.22207972e-17
3.31131121e+02 4.80208955e-16 8.07416815e-18 0.00000000e+00 4.72134786e-16 0.00000000e+00 8.07420067e-18
3.80189396e+02 2.46469137e-16 5.33455517e-18 0.00000000e+00 2.41134582e-16 0.00000000e+00 5.33457148e-18
4.36515832e+02 1.26492119e-16 3.52450824e-18 0.00000000e+00 1.22967610e-16 0.00000000e+00 3.52451642e-18
5.01187234e+02 6.49155920e-17 2.32862080e-18 0.00000000e+00 6.25869712e-17 0.00000000e+00 2.32862491e-18
5.75439937e+02 3.33442438e-17 1.53850516e-18 0.00000000e+00 3.18057386e-17 0.00000000e+00 1.53850722e-18
6.60693448e+02 1.71579715e-17 1.01648060e-18 0.00000000e+00 1.61414909e-17 0.00000000e+00 1.01648164e-18
7.58577575e+02 8.85381483e-18 6.71582239e-19 0.00000000e+00 8.18223259e-18 0.00000000e+00 6.71582760e-19
8.70963590e+02 4.58608704e-18 4.43710067e-19 0.00000000e+00 4.14237697e-18 0.00000000e+00 4.43710329e-19
1.00000000e+03 2.09454232e-18 0.00000000e+00 0.00000000e+00 2.09454232e-18 0.00000000e+00 0.00000000e+00
