# column 1: lambda (micron)
# column 2: total flux; lambda*F_lambda (W/m2)
# column 3: direct stellar flux; lambda*F_lambda (W/m2)
# column 4: scattered stellar flux; lambda*F_lambda (W/m2)
# column 5: total dust emission flux; lambda*F_lambda (W/m2)
# column 6: dust emission scattered flux; lambda*F_lambda (W/m2)
# column 7: transparent flux; lambda*F_lambda (W/m2)
1.00000000e-03 5.25638884e-13 5.25636674e-13 2.21000175e-18 0.00000000e+00 0.00000000e+00 5.25636674e-13
1.14815362e-03 6.20423584e-13 6.20419813e-13 3.77131494e-18 0.00000000e+00 0.00000000e+00 6.20419813e-13
1.31825674e-03 7.32300034e-13 7.32294308e-13 5.72635353e-18 0.00000000e+00 0.00000000e+00 7.32294308e-13
1.51356125e-03 8.64351213e-13 8.64342083e-13 9.12996103e-18 0.00000000e+00 0.00000000e+00 8.64342083e-13
1.73780083e-03 1.02021715e-12 1.02020080e-12 1.63573677e-17 0.00000000e+00 0.00000000e+00 1.02020080e-12
1.99526231e-03 1.20419414e-12 1.20416405e-12 3.00822283e-17 0.00000000e+00 0.00000000e+00 1.20416405e-12
2.29086765e-03 1.42134337e-12 1.42129968e-12 4.36866835e-17 0.00000000e+00 0.00000000e+00 1.42129968e-12
2.63026799e-03 1.67768964e-12 1.67758934e-12 1.00293517e-16 0.00000000e+00 0.00000000e+00 1.67758934e-12
3.01995172e-03 1.98024912e-12 1.98009332e-12 1.55800403e-16 0.00000000e+00 0.00000000e+00 1.98009332e-12
3.46736850e-03 2.33743824e-12 2.33714500e-12 2.93239396e-16 0.00000000e+00 0.00000000e+00 2.33714500e-12
3.98107171e-03 2.75903666e-12 2.75858048e-12 4.56180920e-16 0.00000000e+00 0.00000000e+00 2.75858048e-12
4.57088190e-03 3.25688585e-12 3.25600946e-12 8.76384926e-16 0.00000000e+00 0.00000000e+00 3.25600946e-12
5.24807460e-03 3.84494048e-12 3.84313516e-12 1.80532450e-15 0.00000000e+00 0.00000000e+00 3.84313516e-12
6.02559586e-03 4.53941875e-12 4.53613173e-12 3.28701746e-15 0.00000000e+00 0.00000000e+00 4.53613173e-12
6.91830971e-03 5.35923862e-12 5.35408989e-12 5.14872501e-15 0.00000000e+00 0.00000000e+00 5.35408989e-12
7.94328235e-03 6.32827881e-12 6.31954278e-12 8.73602412e-15 1.26805943e-303 3.46683568e-306 6.31954278e-12
9.12010839e-03 7.47284147e-12 7.45908676e-12 1.37547141e-14 5.42388991e-265 2.02814192e-267 7.45908676e-12
1.04712855e-02 8.35320969e-12 8.33078048e-12 2.24292177e-14 2.24303517e-231 9.84412504e-234 8.33078048e-12
1.20226443e-02 8.36269266e-12 8.33078048e-12 3.19121879e-14 3.45551586e-202 2.66104897e-204 8.33078048e-12
1.38038426e-02 8.36652472e-12 8.33078048e-12 3.57442396e-14 9.27667896e-177 9.67849992e-179 8.33078048e-12
1.58489319e-02 8.41344452e-12 8.33078048e-12 8.26640478e-14 1.23756039e-154 1.49093865e-156 8.33078048e-12
1.81970086e-02 8.41804587e-12 8.33078048e-12 8.72653934e-14 2.18751573e-135 3.62847476e-137 8.33078048e-12
2.08929613e-02 8.43812127e-12 8.33078048e-12 1.07340791e-13 1.13400284e-118 2.42376456e-120 8.33078048e-12
2.39883292e-02 8.46981612e-12 8.33078048e-12 1.39035642e-13 3.95945847e-104 1.09940430e-105 8.33078048e-12
2.75422870e-02 8.49200927e-12 8.33078048e-12 1.61228796e-13 1.76602194e-91 6.10345010e-93 8.33078048e-12
3.16227766e-02 8.50859277e-12 8.33078048e-12 1.77812297e-13 1.71238922e-80 6.59462994e-82 8.33078048e-12
3.63078055e-02 8.54231694e-12 8.33078048e-12 2.11536460e-13 5.92675870e-71 2.64791048e-72 8.33078048e-12
4.16869383e-02 8.53517094e-12 8.33078048e-12 2.04390468e-13 1.12846094e-62 6.29031101e-64 8.33078048e-12
4.78630092e-02 8.55424106e-12 8.33078048e-12 2.23460589e-13 1.70658359e-55 1.13760295e-56 8.33078048e-12
5.49540874e-02 8.53645999e-12 8.33078048e-12 2.05679511e-13 2.82552468e-49 2.03380919e-50 8.33078048e-12
6.30957344e-02 8.51853148e-12 8.33078048e-12 1.87751000e-13 9.09572803e-44 6.98020386e-45 8.33078048e-12
7.24435960e-02 8.47798977e-12 8.33078048e-12 1.47209291e-13 5.22771743e-39 3.67846626e-40 8.33078048e-12
8.31763771e-02 8.47641649e-12 8.33078048e-12 1.45636019e-13 5.32785348e-35 3.64702438e-36 8.33078048e-12
9.54992586e-02 8.47783119e-12 8.33078048e-12 1.47050713e-13 1.49817658e-31 1.06207765e-32 8.33078048e-12
1.09647820e-01 8.12517807e-12 7.95583672e-12 1.69341356e-13 1.27070706e-28 9.79984011e-30 7.95583672e-12
1.25892541e-01 7.59941888e-12 7.42481883e-12 1.74600048e-13 4.11016108e-26 3.18471506e-27 7.42481883e-12
1.44543977e-01 7.09478917e-12 6.92924411e-12 1.65545065e-13 5.58762232e-24 4.30731808e-25 6.92924411e-12
1.65958691e-01 6.64201848e-12 6.46674687e-12 1.75271614e-13 2.83190556e-22 2.40047492e-23 6.46674687e-12
1.90546072e-01 6.20386450e-12 6.03511933e-12 1.68745171e-13 5.97899819e-21 5.86081746e-22 6.03511933e-12
2.18776162e-01 5.78163121e-12 5.63230107e-12 1.49330076e-13 7.05938654e-20 6.99092825e-21 5.63230107e-12
2.51188643e-01 5.43646589e-12 5.25636919e-12 1.80095838e-13 8.61742819e-19 1.04589570e-19 5.25636919e-12
2.88403150e-01 5.07837305e-12 4.90552916e-12 1.72836719e-13 7.17004913e-18 8.70673080e-19 4.90552916e-12
3.31131121e-01 4.73282427e-12 4.57810618e-12 1.54677207e-13 4.08809565e-17 4.74213294e-18 4.57810618e-12
3.80189396e-01 4.41611690e-12 4.27253728e-12 1.43409282e-13 1.70329310e-16 1.95111574e-17 4.27253728e-12
4.36515832e-01 4.12204342e-12 3.98736380e-12 1.34139830e-13 5.39791297e-16 6.08493872e-17 3.98736380e-12
5.01187234e-01 3.84823301e-12 3.72122441e-12 1.25636955e-13 1.37164710e-15 1.57300866e-16 3.72122441e-12
5.75439937e-01 3.59008198e-12 3.47284869e-12 1.14216148e-13 3.01714883e-15 3.74911551e-16 3.47284869e-12
6.60693448e-01 3.34705218e-12 3.24105097e-12 9.96710106e-14 6.33019536e-15 9.10938507e-16 3.24105097e-12
7.58577575e-01 3.12983439e-12 3.02472476e-12 9.10569899e-14 1.40526358e-14 2.40744297e-15 3.02472476e-12
8.70963590e-01 2.93381391e-12 2.82283739e-12 7.79129382e-14 3.30635827e-14 6.21584107e-15 2.82283739e-12
1.00000000e+00 2.77782783e-12 2.63442513e-12 6.68295075e-14 7.65731831e-14 1.42954539e-14 2.63442513e-12
1.14815362e+00 2.68253110e-12 2.45858859e-12 5.55917445e-14 1.68350765e-13 2.92767505e-14 2.45858859e-12
1.31825674e+00 2.68187649e-12 2.29448837e-12 4.46659490e-14 3.42722164e-13 5.27133561e-14 2.29448837e-12
1.51356125e+00 2.80013877e-12 2.14134114e-12 3.48610519e-14 6.23936578e-13 8.20130712e-14 2.14134114e-12
1.73780083e+00 3.03886670e-12 1.99841583e-12 2.75458146e-14 1.01290506e-12 1.11733490e-13 1.99841583e-12
1.99526231e+00 3.36553012e-12 1.86503017e-12 1.98047199e-14 1.48069523e-12 1.29757662e-13 1.86503017e-12
2.29086765e+00 3.68773076e-12 1.74054743e-12 1.41722601e-14 1.93301108e-12 1.32330700e-13 1.74054743e-12
2.63026799e+00 3.97723086e-12 1.62437337e-12 9.75818772e-15 2.34309930e-12 1.23954007e-13 1.62437337e-12
3.01995172e+00 4.17605449e-12 1.51595343e-12 7.04927988e-15 2.65305178e-12 1.08392991e-13 1.51595343e-12
3.46736850e+00 4.24108759e-12 1.41477006e-12 4.99684742e-15 2.82132068e-12 8.87937652e-14 1.41477006e-12
3.98107171e+00 4.20395049e-12 1.32034025e-12 3.42133661e-15 2.88018891e-12 6.94357522e-14 1.32034025e-12
4.57088190e+00 4.09130188e-12 1.23221321e-12 2.39541891e-15 2.85669325e-12 5.15805423e-14 1.23221321e-12
5.24807460e+00 3.80480520e-12 1.01885146e-12 1.38856207e-15 2.78456517e-12 3.58042843e-14 1.01885146e-12
6.02559586e+00 3.34663212e-12 6.73148485e-13 6.45202457e-16 2.67283843e-12 2.35931262e-14 6.73148485e-13
6.70000000e+00 3.05431982e-12 4.89650796e-13 3.39813938e-16 2.56432921e-12 1.63653547e-14 4.89650796e-13
6.92422916e+00 2.96958276e-12 4.43605145e-13 2.72305981e-16 2.52570531e-12 1.44179892e-14 4.43605145e-13
7.15596261e+00 2.90248638e-12 4.01889522e-13 2.17412067e-16 2.50037945e-12 1.25685951e-14 4.01889522e-13
7.39545150e+00 2.86872130e-12 3.64096743e-13 1.63915517e-16 2.50446064e-12 1.06849718e-14 3.64096743e-13
7.64295536e+00 2.93242796e-12 3.29857910e-13 1.14367077e-16 2.60245568e-12 8.63646809e-15 3.29857910e-13
7.89874245e+00 3.12065014e-12 2.98838820e-13 6.42326555e-17 2.82174709e-12 6.40802102e-15 2.98838820e-13
8.16308998e+00 3.43181040e-12 2.70736695e-13 3.62918742e-17 3.16103741e-12 4.72475279e-15 2.70736695e-13
8.43628443e+00 3.83567290e-12 2.45277229e-13 1.94723752e-17 3.59037620e-12 3.33564524e-15 2.45277229e-13
8.71862190e+00 4.06934952e-12 2.22211915e-13 1.25279720e-17 3.84712508e-12 2.55978696e-15 2.22211915e-13
9.01040836e+00 4.32243293e-12 2.01315610e-13 7.73956871e-18 4.12110958e-12 1.91926184e-15 2.01315610e-13
9.31196005e+00 4.51519873e-12 1.82384346e-13 0.00000000e+00 4.33281438e-12 0.00000000e+00 1.82384346e-13
9.62360379e+00 4.47247075e-12 1.65233336e-13 0.00000000e+00 4.30723741e-12 0.00000000e+00 1.65233336e-13
9.94567731e+00 4.19364181e-12 1.49695167e-13 0.00000000e+00 4.04394664e-12 0.00000000e+00 1.49695167e-13
1.02785297e+01 3.90474469e-12 1.35618173e-13 0.00000000e+00 3.76912652e-12 0.00000000e+00 1.35618173e-13
1.06225216e+01 3.62380012e-12 1.22864947e-13 0.00000000e+00 3.50093517e-12 0.00000000e+00 1.22864947e-13
1.09780260e+01 3.34481461e-12 1.11311006e-13 0.00000000e+00 3.23350361e-12 0.00000000e+00 1.11311006e-13
1.13454280e+01 3.11268840e-12 1.00843571e-13 0.00000000e+00 3.01184483e-12 0.00000000e+00 1.00843571e-13
1.17251259e+01 2.91460508e-12 9.13604705e-14 0.00000000e+00 2.82324461e-12 0.00000000e+00 9.13604705e-14
1.21175312e+01 2.73788786e-12 8.27691389e-14 0.00000000e+00 2.65511872e-12 0.00000000e+00 8.27691389e-14
1.25230691e+01 2.58008397e-12 7.49857166e-14 0.00000000e+00 2.50509825e-12 0.00000000e+00 7.49857166e-14
1.29421791e+01 2.45818473e-12 6.79342298e-14 0.00000000e+00 2.39025050e-12 0.00000000e+00 6.79342298e-14
1.33753155e+01 2.35001490e-12 6.15458488e-14 0.00000000e+00 2.28846905e-12 0.00000000e+00 6.15458488e-14
1.38229477e+01 2.27325416e-12 5.57582167e-14 0.00000000e+00 2.21749595e-12 0.00000000e+00 5.57582167e-14
1.42855609e+01 2.21878438e-12 5.05148403e-14 0.00000000e+00 2.16826954e-12 0.00000000e+00 5.05148403e-14
1.47636563e+01 2.24108474e-12 4.57645392e-14 0.00000000e+00 2.19532020e-12 0.00000000e+00 4.57645392e-14
1.52577522e+01 2.25635379e-12 4.14609457e-14 0.00000000e+00 2.21489284e-12 0.00000000e+00 4.14609457e-14
1.57683840e+01 2.28720843e-12 3.75620523e-14 0.00000000e+00 2.24964638e-12 0.00000000e+00 3.75620523e-14
1.62961051e+01 2.31755218e-12 3.40298020e-14 0.00000000e+00 2.28352238e-12 0.00000000e+00 3.40298020e-14
1.68414875e+01 2.34540712e-12 3.08297166e-14 0.00000000e+00 2.31457741e-12 0.00000000e+00 3.08297166e-14
1.74051222e+01 2.36628888e-12 2.79305599e-14 0.00000000e+00 2.33835832e-12 0.00000000e+00 2.79305599e-14
1.79876201e+01 2.35280501e-12 2.53040334e-14 0.00000000e+00 2.32750098e-12 0.00000000e+00 2.53040334e-14
1.85896125e+01 2.33433755e-12 2.29244994e-14 0.00000000e+00 2.31141305e-12 0.00000000e+00 2.29244994e-14
1.92117518e+01 2.29868857e-12 2.07687314e-14 0.00000000e+00 2.27791984e-12 0.00000000e+00 2.07687314e-14
1.98547123e+01 2.26278230e-12 1.88156870e-14 0.00000000e+00 2.24396662e-12 0.00000000e+00 1.88156870e-14
2.05191907e+01 2.20147718e-12 1.70463024e-14 0.00000000e+00 2.18443088e-12 0.00000000e+00 1.70463024e-14
2.12059073e+01 2.14595221e-12 1.54433068e-14 0.00000000e+00 2.13050890e-12 0.00000000e+00 1.54433068e-14
2.19156062e+01 2.08140132e-12 1.39910532e-14 0.00000000e+00 2.06741027e-12 0.00000000e+00 1.39910532e-14
2.26490567e+01 2.03523128e-12 1.26753663e-14 0.00000000e+00 2.02255592e-12 0.00000000e+00 1.26753663e-14
2.34070535e+01 1.97870620e-12 1.14834036e-14 0.00000000e+00 1.96722280e-12 0.00000000e+00 1.14834036e-14
2.41904183e+01 1.90457730e-12 1.04035303e-14 0.00000000e+00 1.89417377e-12 0.00000000e+00 1.04035303e-14
2.50000000e+01 1.85947233e-12 9.42520591e-15 0.00000000e+00 1.85004713e-12 0.00000000e+00 9.42520591e-15
2.75422870e+01 1.67282688e-12 7.04872996e-15 0.00000000e+00 1.66577815e-12 0.00000000e+00 7.04872996e-15
3.16227766e+01 1.38426777e-12 4.65704970e-15 0.00000000e+00 1.37961072e-12 0.00000000e+00 4.65704970e-15
3.63078055e+01 1.08006208e-12 3.07688223e-15 0.00000000e+00 1.07698520e-12 0.00000000e+00 3.07688223e-15
4.16869383e+01 7.88247522e-13 2.03287593e-15 0.00000000e+00 7.86214646e-13 0.00000000e+00 2.03287593e-15
4.78630092e+01 5.38144712e-13 1.34310781e-15 0.00000000e+00 5.36801604e-13 0.00000000e+00 1.34310781e-15
5.49540874e+01 3.46077347e-13 8.87382527e-16 0.00000000e+00 3.45189965e-13 0.00000000e+00 8.87382527e-16
6.30957344e+01 2.11902462e-13 5.86287821e-16 0.00000000e+00 2.11316174e-13 0.00000000e+00 5.86287821e-16
7.24435960e+01 1.24711408e-13 3.87356522e-16 0.00000000e+00 1.24324052e-13 0.00000000e+00 3.87356522e-16
8.31763771e+01 7.12545915e-14 2.55923916e-16 0.00000000e+00 7.09986676e-14 0.00000000e+00 2.55923916e-16
9.54992586e+01 3.98438385e-14 1.69087255e-16 0.00000000e+00 3.96747512e-14 0.00000000e+00 1.69087255e-16
1.09647820e+02 2.18976706e-14 1.11714841e-16 0.00000000e+00 2.17859557e-14 0.00000000e+00 1.11714841e-16
1.25892541e+02 1.20338855e-14 7.38092637e-17 0.00000000e+00 1.19600762e-14 0.00000000e+00 7.38092637e-17
1.44543977e+02 6.57322739e-15 4.87652969e-17 0.00000000e+00 6.52446209e-15 0.00000000e+00 4.87652969e-17
1.65958691e+02 3.42556014e-15 3.22189122e-17 0.00000000e+00 3.39334123e-15 0.00000000e+00 3.22189122e-17
1.90546072e+02 1.78754544e-15 2.12868242e-17 0.00000000e+00 1.76625862e-15 0.00000000e+00 2.12868242e-17
2.18776162e+02 9.32049377e-16 1.40640653e-17 0.00000000e+00 9.17985311e-16 0.00000000e+00 1.40640653e-17
2.51188643e+02 4.84952165e-16 9.29203577e-18 0.00000000e+00 4.75660129e-16 0.00000000e+00 9.29203577e-18
2.88403150e+02 2.51542108e-16 6.13918715e-18 0.00000000e+00 2.45402921e-16 0.00000000e+00 6.13918715e-18
3.31131121e+02 1.30362198e-16 4.05612073e-18 0.00000000e+00 1.26306078e-16 0.00000000e+00 4.05612073e-18
3.80189396e+02 6.74575716e-17 2.67985239e-18 0.00000000e+00 6.47777193e-17 0.00000000e+00 2.67985239e-18
4.36515832e+02 3.49214527e-17 1.77056092e-18 0.00000000e+00 3.31508918e-17 0.00000000e+00 1.77056092e-18
5.01187234e+02 1.80932872e-17 1.16979800e-18 0.00000000e+00 1.69234892e-17 0.00000000e+00 1.16979800e-18
5.75439937e+02 9.39509291e-18 7.72877871e-19 0.00000000e+00 8.62221504e-18 0.00000000e+00 7.72877871e-19
6.60693448e+02 4.89595195e-18 5.10635346e-19 0.00000000e+00 4.38531661e-18 0.00000000e+00 5.10635346e-19
7.58577575e+02 2.56443310e-18 3.37373427e-19 0.00000000e+00 2.22705967e-18 0.00000000e+00 3.37373427e-19
8.70963590e+02 1.35218108e-18 2.22900413e-19 0.00000000e+00 1.12928066e-18 0.00000000e+00 2.22900413e-19
1.00000000e+03 5.71786789e-19 0.00000000e+00 0.00000000e+00 5.71786789e-19 0.00000000e+00 0.00000000e+00
