# column 1: lambda (micron)
# column 2: total flux; lambda*F_lambda (W/m2)
# column 3: direct stellar flux; lambda*F_lambda (W/m2)
# column 4: scattered stellar flux; lambda*F_lambda (W/m2)
# column 5: total dust emission flux; lambda*F_lambda (W/m2)
# column 6: dust emission scattered flux; lambda*F_lambda (W/m2)
# column 7: transparent flux; lambda*F_lambda (W/m2)
1.00000000e-03 8.46530082e-13 8.46529401e-13 6.81008308e-19 0.00000000e+00 0.00000000e+00 8.46529401e-13
1.14815362e-03 9.99177292e-13 9.99176121e-13 1.17121889e-18 0.00000000e+00 0.00000000e+00 9.99176121e-13
1.31825674e-03 1.17934998e-12 1.17934819e-12 1.78295300e-18 0.00000000e+00 0.00000000e+00 1.17934819e-12
1.51356125e-03 1.39201193e-12 1.39200901e-12 2.91810160e-18 0.00000000e+00 0.00000000e+00 1.39200901e-12
1.73780083e-03 1.64302214e-12 1.64301696e-12 5.18157144e-18 0.00000000e+00 0.00000000e+00 1.64301696e-12
1.99526231e-03 1.93929630e-12 1.93928682e-12 9.48197406e-18 0.00000000e+00 0.00000000e+00 1.93928682e-12
2.29086765e-03 2.28899499e-12 2.28898025e-12 1.47335227e-17 0.00000000e+00 0.00000000e+00 2.28898025e-12
2.63026799e-03 2.70176132e-12 2.70173063e-12 3.06878015e-17 0.00000000e+00 0.00000000e+00 2.70173063e-12
3.01995172e-03 3.18896224e-12 3.18890841e-12 5.38265528e-17 0.00000000e+00 0.00000000e+00 3.18890841e-12
3.46736850e-03 3.76402209e-12 3.76393440e-12 8.76860397e-17 0.00000000e+00 0.00000000e+00 3.76393440e-12
3.98107171e-03 4.44279387e-12 4.44264945e-12 1.44416202e-16 0.00000000e+00 0.00000000e+00 4.44264945e-12
4.57088190e-03 5.24405828e-12 5.24375082e-12 3.07460288e-16 0.00000000e+00 0.00000000e+00 5.24375082e-12
5.24807460e-03 6.18987650e-12 6.18930730e-12 5.69195416e-16 0.00000000e+00 0.00000000e+00 6.18930730e-12
6.02559586e-03 7.30640357e-12 7.30536713e-12 1.03644263e-15 0.00000000e+00 0.00000000e+00 7.30536713e-12
6.91830971e-03 8.62435439e-12 8.62267558e-12 1.67881102e-15 0.00000000e+00 0.00000000e+00 8.62267558e-12
7.94328235e-03 1.01803548e-11 1.01775219e-11 2.83288100e-15 3.74558988e-304 5.29076334e-307 1.01775219e-11
9.12010839e-03 1.20171163e-11 1.20127391e-11 4.37713665e-15 1.62271047e-265 2.54596501e-268 1.20127391e-11
1.04712855e-02 1.34285499e-11 1.34165878e-11 1.19620702e-14 6.79518967e-232 1.94647896e-234 1.34165878e-11
1.20226443e-02 1.34265091e-11 1.34165878e-11 9.92124477e-15 1.05453170e-202 3.36256094e-205 1.34165878e-11
1.38038426e-02 1.34297267e-11 1.34165878e-11 1.31388347e-14 2.85214292e-177 1.24135636e-179 1.34165878e-11
1.58489319e-02 1.34361566e-11 1.34165878e-11 1.95687144e-14 3.84253334e-155 3.04333562e-157 1.34165878e-11
1.81970086e-02 1.34455242e-11 1.34165878e-11 2.89363597e-14 6.81265955e-136 5.89673058e-138 1.34165878e-11
2.08929613e-02 1.34555119e-11 1.34165878e-11 3.89240685e-14 3.54810218e-119 4.31387721e-121 1.34165878e-11
2.39883292e-02 1.34734794e-11 1.34165878e-11 5.68915469e-14 1.24235265e-104 2.01732929e-106 1.34165878e-11
2.75422870e-02 1.34874878e-11 1.34165878e-11 7.08999554e-14 5.55569041e-92 1.17506690e-93 1.34165878e-11
3.16227766e-02 1.35024499e-11 1.34165878e-11 8.58621056e-14 5.41799283e-81 1.45386744e-82 1.34165878e-11
3.63078055e-02 1.35115058e-11 1.34165878e-11 9.49180047e-14 1.87695609e-71 5.74753482e-73 1.34165878e-11
4.16869383e-02 1.35493192e-11 1.34165878e-11 1.32731380e-13 3.58735639e-63 1.52786459e-64 1.34165878e-11
4.78630092e-02 1.35872869e-11 1.34165878e-11 1.70699026e-13 5.45458563e-56 3.06035613e-57 1.34165878e-11
5.49540874e-02 1.36154743e-11 1.34165878e-11 1.98886433e-13 9.11062580e-50 6.13337578e-51 1.34165878e-11
6.30957344e-02 1.36361893e-11 1.34165878e-11 2.19601441e-13 2.95857118e-44 2.29894812e-45 1.34165878e-11
7.24435960e-02 1.36168331e-11 1.34165878e-11 2.00245255e-13 1.70944647e-39 1.26228264e-40 1.34165878e-11
8.31763771e-02 1.36166405e-11 1.34165878e-11 2.00052663e-13 1.74747723e-35 1.28328130e-36 1.34165878e-11
9.54992586e-02 1.36229296e-11 1.34165878e-11 2.06341807e-13 4.92095411e-32 3.75090561e-33 1.34165878e-11
1.09647820e-01 1.30358811e-11 1.28127470e-11 2.23134175e-13 4.17615137e-29 3.44523763e-30 1.28127470e-11
1.25892541e-01 1.21623259e-11 1.19575512e-11 2.04774748e-13 1.34877967e-26 1.09398517e-27 1.19575512e-11
1.44543977e-01 1.13447055e-11 1.11594361e-11 1.85269390e-13 1.83200167e-24 1.45730047e-25 1.11594361e-11
1.65958691e-01 1.06097761e-11 1.04145917e-11 1.95184350e-13 9.28844399e-23 8.09330947e-24 1.04145917e-11
1.90546072e-01 9.93165373e-12 9.71946251e-12 2.12191210e-13 1.97272404e-21 2.07093968e-22 9.71946251e-12
2.18776162e-01 9.27614286e-12 9.07073019e-12 2.05412644e-13 2.34436723e-20 2.60066709e-21 9.07073019e-12
2.51188643e-01 8.70061687e-12 8.46529796e-12 2.35318616e-13 2.87007327e-19 3.88825010e-20 8.46529796e-12
2.88403150e-01 8.12229590e-12 7.90027573e-12 2.22017784e-13 2.38163666e-18 3.17024882e-19 7.90027573e-12
3.31131121e-01 7.57380402e-12 7.37296631e-12 2.00824107e-13 1.36106712e-17 1.76174973e-18 7.37296631e-12
3.80189396e-01 7.06519940e-12 6.88085251e-12 1.84290263e-13 5.66185771e-17 7.11158458e-18 6.88085251e-12
4.36515832e-01 6.58766654e-12 6.42158520e-12 1.65900160e-13 1.81182167e-16 2.28391159e-17 6.42158520e-12
5.01187234e-01 6.14629678e-12 5.99297201e-12 1.52849283e-13 4.75484859e-16 6.29831039e-17 5.99297201e-12
5.75439937e-01 5.73691616e-12 5.59296690e-12 1.42789139e-13 1.16012185e-15 1.76477583e-16 5.59296690e-12
6.60693448e-01 5.35205385e-12 5.21966041e-12 1.29387005e-13 3.00642976e-15 5.56224735e-16 5.21966041e-12
7.58577575e-01 4.99305057e-12 4.87127053e-12 1.13227943e-13 8.55209657e-15 1.76744423e-15 4.87127053e-12
8.70963590e-01 4.67302313e-12 4.54613417e-12 1.02451699e-13 2.44372623e-14 5.11179555e-15 4.54613417e-12
1.00000000e+00 4.39258655e-12 4.24269927e-12 8.68356550e-14 6.30516259e-14 1.24455444e-14 4.24269927e-12
1.14815362e+00 4.17567667e-12 3.95951734e-12 6.91307214e-14 1.47028612e-13 2.61087291e-14 3.95951734e-12
1.31825674e+00 4.05958661e-12 3.69523659e-12 5.59252437e-14 3.08424782e-13 4.71406639e-14 3.69523659e-12
1.51356125e+00 4.06647699e-12 3.44859544e-12 4.21887432e-14 5.75692815e-13 7.44611248e-14 3.44859544e-12
1.73780083e+00 4.20666437e-12 3.21841652e-12 3.19551472e-14 9.56292702e-13 1.01375663e-13 3.21841652e-12
1.99526231e+00 4.43499923e-12 3.00360106e-12 2.29700841e-14 1.40842808e-12 1.18163687e-13 3.00360106e-12
2.29086765e+00 4.70613435e-12 2.80312361e-12 1.61029126e-14 1.88690783e-12 1.22790878e-13 2.80312361e-12
2.63026799e+00 4.94393732e-12 2.61602716e-12 1.12862295e-14 2.31662393e-12 1.15684887e-13 2.61602716e-12
3.01995172e+00 5.09038442e-12 2.44141860e-12 7.75838268e-15 2.64120743e-12 1.01181970e-13 2.44141860e-12
3.46736850e+00 5.15143234e-12 2.27846441e-12 5.35200019e-15 2.86761593e-12 8.41136953e-14 2.27846441e-12
3.98107171e+00 5.11360331e-12 2.12638671e-12 3.66219272e-15 2.98355441e-12 6.63364857e-14 2.12638671e-12
4.57088190e+00 4.96240697e-12 1.98445954e-12 2.52862277e-15 2.97541880e-12 4.99673923e-14 1.98445954e-12
5.24807460e+00 4.56464492e-12 1.64084388e-12 1.48198457e-15 2.92231906e-12 3.54731933e-14 1.64084388e-12
6.02559586e+00 3.92499508e-12 1.08409480e-12 6.69539197e-16 2.84023074e-12 2.41499751e-14 1.08409480e-12
6.70000000e+00 3.55412919e-12 7.88574724e-13 3.48648759e-16 2.76520582e-12 1.73116116e-14 7.88574724e-13
6.92422916e+00 3.44281390e-12 7.14418944e-13 2.87071607e-16 2.72810788e-12 1.54560722e-14 7.14418944e-13
7.15596261e+00 3.36986049e-12 6.47236606e-13 2.27434056e-16 2.72239645e-12 1.35290198e-14 6.47236606e-13
7.39545150e+00 3.32522207e-12 5.86371942e-13 1.75863285e-16 2.73867426e-12 1.15912620e-14 5.86371942e-13
7.64295536e+00 3.39557113e-12 5.31230854e-13 1.18556022e-16 2.86422172e-12 9.33792496e-15 5.31230854e-13
7.89874245e+00 3.63086895e-12 4.81275108e-13 6.83725544e-17 3.14952547e-12 6.89164903e-15 4.81275108e-13
8.16308998e+00 3.99893360e-12 4.36017088e-13 3.89846995e-17 3.56287753e-12 4.96676231e-15 4.36017088e-13
8.43628443e+00 4.50871653e-12 3.95015029e-13 2.14571334e-17 4.11368005e-12 3.57413167e-15 3.95015029e-13
8.71862190e+00 4.85474917e-12 3.57868711e-13 1.35803207e-17 4.49686688e-12 2.78702080e-15 3.57868711e-13
9.01040836e+00 5.21258423e-12 3.24215549e-13 9.13792769e-18 4.88835954e-12 2.16379633e-15 3.24215549e-13
9.31196005e+00 5.48138193e-12 2.93727053e-13 0.00000000e+00 5.18765488e-12 0.00000000e+00 2.93727053e-13
9.62360379e+00 5.45627070e-12 2.66105627e-13 0.00000000e+00 5.19016508e-12 0.00000000e+00 2.66105627e-13
9.94567731e+00 5.15501686e-12 2.41081657e-13 0.00000000e+00 4.91393521e-12 0.00000000e+00 2.41081657e-13
1.02785297e+01 4.82271881e-12 2.18410884e-13 0.00000000e+00 4.60430792e-12 0.00000000e+00 2.18410884e-13
1.06225216e+01 4.48220729e-12 1.97872020e-13 0.00000000e+00 4.28433527e-12 0.00000000e+00 1.97872020e-13
1.09780260e+01 4.15180596e-12 1.79264583e-13 0.00000000e+00 3.97254137e-12 0.00000000e+00 1.79264583e-13
1.13454280e+01 3.83848981e-12 1.62406948e-13 0.00000000e+00 3.67608286e-12 0.00000000e+00 1.62406948e-13
1.17251259e+01 3.59091809e-12 1.47134567e-13 0.00000000e+00 3.44378353e-12 0.00000000e+00 1.47134567e-13
1.21175312e+01 3.35413587e-12 1.33298366e-13 0.00000000e+00 3.22083751e-12 0.00000000e+00 1.33298366e-13
1.25230691e+01 3.19197822e-12 1.20763289e-13 0.00000000e+00 3.07121493e-12 0.00000000e+00 1.20763289e-13
1.29421791e+01 3.03694238e-12 1.09406983e-13 0.00000000e+00 2.92753539e-12 0.00000000e+00 1.09406983e-13
1.33753155e+01 2.90481197e-12 9.91185987e-14 0.00000000e+00 2.80569337e-12 0.00000000e+00 9.91185987e-14
1.38229477e+01 2.81819919e-12 8.97977103e-14 0.00000000e+00 2.72840147e-12 0.00000000e+00 8.97977103e-14
1.42855609e+01 2.78693748e-12 8.13533371e-14 0.00000000e+00 2.70558414e-12 0.00000000e+00 8.13533371e-14
1.47636563e+01 2.80203505e-12 7.37030537e-14 0.00000000e+00 2.72833200e-12 0.00000000e+00 7.37030537e-14
1.52577522e+01 2.85284687e-12 6.67721855e-14 0.00000000e+00 2.78607469e-12 0.00000000e+00 6.67721855e-14
1.57683840e+01 2.90974068e-12 6.04930805e-14 0.00000000e+00 2.84924760e-12 0.00000000e+00 6.04930805e-14
1.62961051e+01 2.96930990e-12 5.48044484e-14 0.00000000e+00 2.91450545e-12 0.00000000e+00 5.48044484e-14
1.68414875e+01 3.01107270e-12 4.96507622e-14 0.00000000e+00 2.96142194e-12 0.00000000e+00 4.96507622e-14
1.74051222e+01 3.02652301e-12 4.49817171e-14 0.00000000e+00 2.98154129e-12 0.00000000e+00 4.49817171e-14
1.79876201e+01 3.04561724e-12 4.07517384e-14 0.00000000e+00 3.00486550e-12 0.00000000e+00 4.07517384e-14
1.85896125e+01 3.03553445e-12 3.69195372e-14 0.00000000e+00 2.99861491e-12 0.00000000e+00 3.69195372e-14
1.92117518e+01 2.98089757e-12 3.34477076e-14 0.00000000e+00 2.94744986e-12 0.00000000e+00 3.34477076e-14
1.98547123e+01 2.92708186e-12 3.03023610e-14 0.00000000e+00 2.89677950e-12 0.00000000e+00 3.03023610e-14
2.05191907e+01 2.86588465e-12 2.74527957e-14 0.00000000e+00 2.83843185e-12 0.00000000e+00 2.74527957e-14
2.12059073e+01 2.80245487e-12 2.48711970e-14 0.00000000e+00 2.77758368e-12 0.00000000e+00 2.48711970e-14
2.19156062e+01 2.71072041e-12 2.25323660e-14 0.00000000e+00 2.68818805e-12 0.00000000e+00 2.25323660e-14
2.26490567e+01 2.66481850e-12 2.04134733e-14 0.00000000e+00 2.64440503e-12 0.00000000e+00 2.04134733e-14
2.34070535e+01 2.60066728e-12 1.84938366e-14 0.00000000e+00 2.58217344e-12 0.00000000e+00 1.84938366e-14
2.41904183e+01 2.51662128e-12 1.67547181e-14 0.00000000e+00 2.49986656e-12 0.00000000e+00 1.67547181e-14
2.50000000e+01 2.46628268e-12 1.51791424e-14 0.00000000e+00 2.45110354e-12 0.00000000e+00 1.51791424e-14
2.75422870e+01 2.23053379e-12 1.13518661e-14 0.00000000e+00 2.21918192e-12 0.00000000e+00 1.13518661e-14
3.16227766e+01 1.86495177e-12 7.50010357e-15 0.00000000e+00 1.85745167e-12 0.00000000e+00 7.50010357e-15
3.63078055e+01 1.48000732e-12 4.95526929e-15 0.00000000e+00 1.47505205e-12 0.00000000e+00 4.95526929e-15
4.16869383e+01 1.10007225e-12 3.27391395e-15 0.00000000e+00 1.09679834e-12 0.00000000e+00 3.27391395e-15
4.78630092e+01 7.66360250e-13 2.16305350e-15 0.00000000e+00 7.64197197e-13 0.00000000e+00 2.16305350e-15
5.49540874e+01 5.04767436e-13 1.42911527e-15 0.00000000e+00 5.03338320e-13 0.00000000e+00 1.42911527e-15
6.30957344e+01 3.16173374e-13 9.44207098e-16 0.00000000e+00 3.15229167e-13 0.00000000e+00 9.44207098e-16
7.24435960e+01 1.89868956e-13 6.23831443e-16 0.00000000e+00 1.89245125e-13 0.00000000e+00 6.23831443e-16
8.31763771e+01 1.10251272e-13 4.12161347e-16 0.00000000e+00 1.09839111e-13 0.00000000e+00 4.12161347e-16
9.54992586e+01 6.24552815e-14 2.72312302e-16 0.00000000e+00 6.21829692e-14 0.00000000e+00 2.72312302e-16
1.09647820e+02 3.47053524e-14 1.79914953e-16 0.00000000e+00 3.45254374e-14 0.00000000e+00 1.79914953e-16
1.25892541e+02 1.92253353e-14 1.18868631e-16 0.00000000e+00 1.91064666e-14 0.00000000e+00 1.18868631e-16
1.44543977e+02 1.05726454e-14 7.85357256e-17 0.00000000e+00 1.04941096e-14 0.00000000e+00 7.85357256e-17
1.65958691e+02 5.53900940e-15 5.18880394e-17 0.00000000e+00 5.48712136e-15 0.00000000e+00 5.18880394e-17
1.90546072e+02 2.90405037e-15 3.42820876e-17 0.00000000e+00 2.86976828e-15 0.00000000e+00 3.42820876e-17
2.18776162e+02 1.51890687e-15 2.26499507e-17 0.00000000e+00 1.49625692e-15 0.00000000e+00 2.26499507e-17
2.51188643e+02 7.92204347e-16 1.49646740e-17 0.00000000e+00 7.77239673e-16 0.00000000e+00 1.49646740e-17
2.88403150e+02 4.11698589e-16 9.88706207e-18 0.00000000e+00 4.01811527e-16 0.00000000e+00 9.88706207e-18
3.31131121e+02 2.13656712e-16 6.53231713e-18 0.00000000e+00 2.07124395e-16 0.00000000e+00 6.53231713e-18
3.80189396e+02 1.10666815e-16 4.31585913e-18 0.00000000e+00 1.06350955e-16 0.00000000e+00 4.31585913e-18
4.36515832e+02 5.73266939e-17 2.85145985e-18 0.00000000e+00 5.44752341e-17 0.00000000e+00 2.85145985e-18
5.01187234e+02 2.97135816e-17 1.88394084e-18 0.00000000e+00 2.78296408e-17 0.00000000e+00 1.88394084e-18
5.75439937e+02 1.54317968e-17 1.24470737e-18 0.00000000e+00 1.41870894e-17 0.00000000e+00 1.24470737e-18
6.60693448e+02 8.04119041e-18 8.22370004e-19 0.00000000e+00 7.21882040e-18 0.00000000e+00 8.22370004e-19
7.58577575e+02 4.21072005e-18 5.43334473e-19 0.00000000e+00 3.66738558e-18 0.00000000e+00 5.43334473e-19
8.70963590e+02 2.21914246e-18 3.58977527e-19 0.00000000e+00 1.86016493e-18 0.00000000e+00 3.58977527e-19
1.00000000e+03 9.42062097e-19 0.00000000e+00 0.00000000e+00 9.42062097e-19 0.00000000e+00 0.00000000e+00
