# column 1: lambda (micron)
# column 2: total flux; lambda*F_lambda (W/m2)
# column 3: direct stellar flux; lambda*F_lambda (W/m2)
# column 4: scattered stellar flux; lambda*F_lambda (W/m2)
# column 5: total dust emission flux; lambda*F_lambda (W/m2)
# column 6: dust emission scattered flux; lambda*F_lambda (W/m2)
# column 7: transparent flux; lambda*F_lambda (W/m2)
1.00000000e-03 1.04634370e-12 1.04634360e-12 9.47344220e-20 0.00000000e+00 0.00000000e+00 1.04634360e-12
1.14815362e-03 1.23502111e-12 1.23502095e-12 1.59032235e-19 0.00000000e+00 0.00000000e+00 1.23502095e-12
1.31825674e-03 1.45772096e-12 1.45772071e-12 2.46660324e-19 0.00000000e+00 0.00000000e+00 1.45772071e-12
1.51356125e-03 1.72057822e-12 1.72057784e-12 3.84360507e-19 0.00000000e+00 0.00000000e+00 1.72057784e-12
1.73780083e-03 2.03083423e-12 2.03083353e-12 7.04402796e-19 0.00000000e+00 0.00000000e+00 2.03083353e-12
1.99526231e-03 2.39703604e-12 2.39703472e-12 1.31940731e-18 0.00000000e+00 0.00000000e+00 2.39703472e-12
2.29086765e-03 2.82927155e-12 2.82926954e-12 2.00853309e-18 0.00000000e+00 0.00000000e+00 2.82926954e-12
2.63026799e-03 3.33944930e-12 3.33944522e-12 4.07358217e-18 0.00000000e+00 0.00000000e+00 3.33944522e-12
3.01995172e-03 3.94162346e-12 3.94161611e-12 7.34964853e-18 0.00000000e+00 0.00000000e+00 3.94161611e-12
3.46736850e-03 4.65238274e-12 4.65237083e-12 1.19090787e-17 0.00000000e+00 0.00000000e+00 4.65237083e-12
3.98107171e-03 5.49130900e-12 5.49128930e-12 1.97039453e-17 0.00000000e+00 0.00000000e+00 5.49128930e-12
4.57088190e-03 6.48152359e-12 6.48148207e-12 4.15151776e-17 0.00000000e+00 0.00000000e+00 6.48148207e-12
5.24807460e-03 7.65030430e-12 7.65022704e-12 7.72604100e-17 0.00000000e+00 0.00000000e+00 7.65022704e-12
6.02559586e-03 9.02987000e-12 9.02972084e-12 1.49156295e-16 0.00000000e+00 0.00000000e+00 9.02972084e-12
6.91830971e-03 1.06581887e-11 1.06579658e-11 2.22834784e-16 0.00000000e+00 0.00000000e+00 1.06579658e-11
7.94328235e-03 1.25801937e-11 1.25798170e-11 3.76716345e-16 0.00000000e+00 0.00000000e+00 1.25798170e-11
9.12010839e-03 1.48488185e-11 1.48482176e-11 6.00919331e-16 0.00000000e+00 0.00000000e+00 1.48482176e-11
1.04712855e-02 1.65842820e-11 1.65834298e-11 8.52240954e-16 0.00000000e+00 0.00000000e+00 1.65834298e-11
1.20226443e-02 1.65846677e-11 1.65834298e-11 1.23790169e-15 0.00000000e+00 0.00000000e+00 1.65834298e-11
1.38038426e-02 1.65853929e-11 1.65834298e-11 1.96309084e-15 6.27991436e-289 1.31745416e-290 1.65834298e-11
1.58489319e-02 1.65860700e-11 1.65834298e-11 2.64024768e-15 3.14391328e-252 7.78945221e-254 1.65834298e-11
1.81970086e-02 1.65866713e-11 1.65834298e-11 3.24154924e-15 2.74377120e-220 7.06806262e-222 1.65834298e-11
2.08929613e-02 1.65882052e-11 1.65834298e-11 4.77537798e-15 1.63142852e-192 4.96283951e-194 1.65834298e-11
2.39883292e-02 1.65909214e-11 1.65834298e-11 7.49160544e-15 2.44010658e-168 8.02432477e-170 1.65834298e-11
2.75422870e-02 1.65920278e-11 1.65834298e-11 8.59799444e-15 2.69290074e-147 1.11731244e-148 1.65834298e-11
3.16227766e-02 1.65952485e-11 1.65834298e-11 1.18187533e-14 5.31869854e-129 2.28505305e-130 1.65834298e-11
3.63078055e-02 1.65970637e-11 1.65834298e-11 1.36339403e-14 4.29690609e-113 2.01857118e-114 1.65834298e-11
4.16869383e-02 1.66026951e-11 1.65834298e-11 1.92653456e-14 2.88680096e-99 1.67557597e-100 1.65834298e-11
4.78630092e-02 1.66098904e-11 1.65834298e-11 2.64605829e-14 2.96302420e-87 2.07614843e-88 1.65834298e-11
5.49540874e-02 1.66178594e-11 1.65834298e-11 3.44296365e-14 7.97130741e-77 6.45099601e-78 1.65834298e-11
6.30957344e-02 1.66271410e-11 1.65834298e-11 4.37112243e-14 1.18292634e-67 1.08369495e-68 1.65834298e-11
7.24435960e-02 1.66249404e-11 1.65834298e-11 4.15106351e-14 1.04760212e-59 8.95543175e-61 1.65834298e-11
8.31763771e-02 1.66261951e-11 1.65834298e-11 4.27652934e-14 6.48616084e-53 5.43863595e-54 1.65834298e-11
9.54992586e-02 1.66280291e-11 1.65834298e-11 4.45993623e-14 4.86432419e-47 4.23897650e-48 1.65834298e-11
1.09647820e-01 1.58833416e-11 1.58370587e-11 4.62828831e-14 5.40211258e-42 5.12100143e-43 1.58370587e-11
1.25892541e-01 1.48210298e-11 1.47800032e-11 4.10266147e-14 1.21543142e-37 1.11028669e-38 1.47800032e-11
1.44543977e-01 1.38295648e-11 1.37935015e-11 3.60632424e-14 6.65120780e-34 5.90817138e-35 1.37935015e-11
1.65958691e-01 1.29128771e-11 1.28728446e-11 4.00325152e-14 8.42729220e-31 8.13470586e-32 1.28728446e-11
1.90546072e-01 1.20589963e-11 1.20136376e-11 4.53587303e-14 2.92945323e-28 3.32078722e-29 1.20136376e-11
2.18776162e-01 1.12596251e-11 1.12117790e-11 4.78461204e-14 3.97274538e-26 4.78781723e-27 1.12117790e-11
2.51188643e-01 1.05219212e-11 1.04634409e-11 5.84803090e-14 4.17290760e-24 6.15005013e-25 1.04634409e-11
2.88403150e-01 9.81788865e-12 9.76505125e-12 5.28373936e-14 2.28955177e-22 3.35119931e-23 9.76505125e-12
3.31131121e-01 9.15907705e-12 9.11327608e-12 4.58009640e-14 7.00342676e-21 1.01396774e-21 9.11327608e-12
3.80189396e-01 8.54545824e-12 8.50500410e-12 4.04540115e-14 1.33265290e-19 1.98675183e-20 8.50500410e-12
4.36515832e-01 7.97661663e-12 7.93733165e-12 3.92832882e-14 1.69034420e-18 2.59892799e-19 7.93733165e-12
5.01187234e-01 7.44267613e-12 7.40754890e-12 3.51120615e-14 1.51734122e-17 2.39478651e-18 7.40754890e-12
5.75439937e-01 6.94801782e-12 6.91312687e-12 3.47902979e-14 1.00654316e-16 1.61658592e-17 6.91312687e-12
6.60693448e-01 6.48372537e-12 6.45170538e-12 3.15114045e-14 5.08586887e-16 8.20945826e-17 6.45170538e-12
7.58577575e-01 6.05185998e-12 6.02108180e-12 2.87490958e-14 2.02909240e-15 3.15803242e-16 6.02108180e-12
8.70963590e-01 5.65123841e-12 5.61920048e-12 2.54493493e-14 6.58858420e-15 9.65390576e-16 5.61920048e-12
1.00000000e+00 5.28479209e-12 5.24414302e-12 2.29051154e-14 1.77439620e-14 2.41827621e-15 5.24414302e-12
1.14815362e+00 4.95451496e-12 4.89411902e-12 1.90310494e-14 4.13648907e-14 5.02357118e-15 4.89411902e-12
1.31825674e+00 4.66787988e-12 4.56745763e-12 1.53205775e-14 8.51016748e-14 8.94660951e-15 4.56745763e-12
1.51356125e+00 4.42975528e-12 4.26259947e-12 1.20512023e-14 1.55104599e-13 1.38186262e-14 4.26259947e-12
1.73780083e+00 4.23519827e-12 3.97808929e-12 8.54453414e-15 2.48564445e-13 1.80765398e-14 3.97808929e-12
1.99526231e+00 4.07405867e-12 3.71256894e-12 6.08347380e-15 3.55406251e-13 2.01923827e-14 3.71256894e-12
2.29086765e+00 3.92546105e-12 3.46477093e-12 4.21976627e-15 4.56470357e-13 1.97893760e-14 3.46477093e-12
2.63026799e+00 3.77284139e-12 3.23351237e-12 2.80732609e-15 5.36521692e-13 1.72618552e-14 3.23351237e-12
3.01995172e+00 3.60300334e-12 3.01768933e-12 1.82737499e-15 5.83486641e-13 1.35990566e-14 3.01768933e-12
3.46736850e+00 3.41284059e-12 2.81627154e-12 1.22000191e-15 5.95349045e-13 1.00947443e-14 2.81627154e-12
3.98107171e+00 3.20323853e-12 2.62829753e-12 8.32666236e-16 5.74108330e-13 6.99447614e-15 2.62829753e-12
4.57088190e+00 2.98217089e-12 2.45286997e-12 5.11413730e-16 5.28789499e-13 4.47881128e-15 2.45286997e-12
5.24807460e+00 2.50072934e-12 2.02814751e-12 2.69997262e-16 4.72311832e-13 2.75136752e-15 2.02814751e-12
6.02559586e+00 1.75556229e-12 1.33998377e-12 1.12004590e-16 4.15466509e-13 1.57434898e-15 1.33998377e-12
6.70000000e+00 1.34754531e-12 9.74709347e-13 5.61155209e-17 3.72779848e-13 9.89489260e-16 9.74709347e-13
6.92422916e+00 1.24247293e-12 8.83049889e-13 4.67336693e-17 3.59376307e-13 8.51509396e-16 8.83049889e-13
7.15596261e+00 1.15043740e-12 8.00009879e-13 3.71219848e-17 3.50390400e-13 7.24502710e-16 8.00009879e-13
7.39545150e+00 1.07697614e-12 7.24778763e-13 2.94239798e-17 3.52167956e-13 6.13655819e-16 7.24778763e-13
7.64295536e+00 1.03903275e-12 6.56622211e-13 1.96631982e-17 3.82390875e-13 5.22086394e-16 6.56622211e-13
7.89874245e+00 1.05248812e-12 5.94874946e-13 1.21429861e-17 4.57601031e-13 4.34384936e-16 5.94874946e-13
8.16308998e+00 1.10708624e-12 5.38934254e-13 7.24873014e-18 5.68144742e-13 3.64759257e-16 5.38934254e-13
8.43628443e+00 1.21200624e-12 4.88254098e-13 4.37956598e-18 7.23747765e-13 2.94828665e-16 4.88254098e-13
8.71862190e+00 1.27243089e-12 4.42339790e-13 2.81210468e-18 8.30088284e-13 2.31766644e-16 4.42339790e-13
9.01040836e+00 1.34275001e-12 4.00743158e-13 1.86132605e-18 9.42004988e-13 1.82511870e-16 4.00743158e-13
9.31196005e+00 1.39145950e-12 3.63058180e-13 0.00000000e+00 1.02840132e-12 0.00000000e+00 3.63058180e-13
9.62360379e+00 1.34901327e-12 3.28917012e-13 0.00000000e+00 1.02009626e-12 0.00000000e+00 3.28917012e-13
9.94567731e+00 1.23519690e-12 2.97986401e-13 0.00000000e+00 9.37210496e-13 0.00000000e+00 2.97986401e-13
1.02785297e+01 1.11080096e-12 2.69964435e-13 0.00000000e+00 8.40836524e-13 0.00000000e+00 2.69964435e-13
1.06225216e+01 9.89275209e-13 2.44577592e-13 0.00000000e+00 7.44697618e-13 0.00000000e+00 2.44577592e-13
1.09780260e+01 8.66888211e-13 2.21578069e-13 0.00000000e+00 6.45310142e-13 0.00000000e+00 2.21578069e-13
1.13454280e+01 7.60088202e-13 2.00741370e-13 0.00000000e+00 5.59346833e-13 0.00000000e+00 2.00741370e-13
1.17251259e+01 6.70229063e-13 1.81864106e-13 0.00000000e+00 4.88364956e-13 0.00000000e+00 1.81864106e-13
1.21175312e+01 5.90677200e-13 1.64762018e-13 0.00000000e+00 4.25915182e-13 0.00000000e+00 1.64762018e-13
1.25230691e+01 5.20638412e-13 1.49268171e-13 0.00000000e+00 3.71370241e-13 0.00000000e+00 1.49268171e-13
1.29421791e+01 4.61391058e-13 1.35231331e-13 0.00000000e+00 3.26159728e-13 0.00000000e+00 1.35231331e-13
1.33753155e+01 4.11040752e-13 1.22514483e-13 0.00000000e+00 2.88526269e-13 0.00000000e+00 1.22514483e-13
1.38229477e+01 3.75457552e-13 1.10993499e-13 0.00000000e+00 2.64464054e-13 0.00000000e+00 1.10993499e-13
1.42855609e+01 3.50987571e-13 1.00555922e-13 0.00000000e+00 2.50431649e-13 0.00000000e+00 1.00555922e-13
1.47636563e+01 3.44192774e-13 9.10998706e-14 0.00000000e+00 2.53092903e-13 0.00000000e+00 9.10998706e-14
1.52577522e+01 3.41486725e-13 8.25330452e-14 0.00000000e+00 2.58953679e-13 0.00000000e+00 8.25330452e-14
1.57683840e+01 3.42313372e-13 7.47718247e-14 0.00000000e+00 2.67541548e-13 0.00000000e+00 7.47718247e-14
1.62961051e+01 3.44275256e-13 6.77404517e-14 0.00000000e+00 2.76534804e-13 0.00000000e+00 6.77404517e-14
1.68414875e+01 3.46568120e-13 6.13702932e-14 0.00000000e+00 2.85197826e-13 0.00000000e+00 6.13702932e-14
1.74051222e+01 3.44732665e-13 5.55991699e-14 0.00000000e+00 2.89133495e-13 0.00000000e+00 5.55991699e-14
1.79876201e+01 3.39928624e-13 5.03707500e-14 0.00000000e+00 2.89557874e-13 0.00000000e+00 5.03707500e-14
1.85896125e+01 3.30206339e-13 4.56339988e-14 0.00000000e+00 2.84572340e-13 0.00000000e+00 4.56339988e-14
1.92117518e+01 3.14647191e-13 4.13426810e-14 0.00000000e+00 2.73304510e-13 0.00000000e+00 4.13426810e-14
1.98547123e+01 2.97337759e-13 3.74549090e-14 0.00000000e+00 2.59882850e-13 0.00000000e+00 3.74549090e-14
2.05191907e+01 2.80091635e-13 3.39327342e-14 0.00000000e+00 2.46158900e-13 0.00000000e+00 3.39327342e-14
2.12059073e+01 2.64247808e-13 3.07417768e-14 0.00000000e+00 2.33506031e-13 0.00000000e+00 3.07417768e-14
2.19156062e+01 2.50092542e-13 2.78508898e-14 0.00000000e+00 2.22241652e-13 0.00000000e+00 2.78508898e-14
2.26490567e+01 2.37528536e-13 2.52318552e-14 0.00000000e+00 2.12296681e-13 0.00000000e+00 2.52318552e-14
2.34070535e+01 2.26282186e-13 2.28591087e-14 0.00000000e+00 2.03423077e-13 0.00000000e+00 2.28591087e-14
2.41904183e+01 2.15860413e-13 2.07094900e-14 0.00000000e+00 1.95150923e-13 0.00000000e+00 2.07094900e-14
2.50000000e+01 2.06552133e-13 1.87620165e-14 0.00000000e+00 1.87790116e-13 0.00000000e+00 1.87620165e-14
2.75422870e+01 1.82623567e-13 1.40313526e-14 0.00000000e+00 1.68592214e-13 0.00000000e+00 1.40313526e-14
3.16227766e+01 1.53721901e-13 9.27042274e-15 0.00000000e+00 1.44451478e-13 0.00000000e+00 9.27042274e-15
3.63078055e+01 1.27046953e-13 6.12490756e-15 0.00000000e+00 1.20922045e-13 0.00000000e+00 6.12490756e-15
4.16869383e+01 1.00812821e-13 4.04668630e-15 0.00000000e+00 9.67661349e-14 0.00000000e+00 4.04668630e-15
4.78630092e+01 7.61776470e-14 2.67361912e-15 0.00000000e+00 7.35040278e-14 0.00000000e+00 2.67361912e-15
5.49540874e+01 5.50905518e-14 1.76644264e-15 0.00000000e+00 5.33241091e-14 0.00000000e+00 1.76644264e-15
6.30957344e+01 3.82975341e-14 1.16707708e-15 0.00000000e+00 3.71304570e-14 0.00000000e+00 1.16707708e-15
7.24435960e+01 2.56984626e-14 7.71080178e-16 0.00000000e+00 2.49273824e-14 0.00000000e+00 7.71080178e-16
8.31763771e+01 1.67078754e-14 5.09447621e-16 0.00000000e+00 1.61984278e-14 0.00000000e+00 5.09447621e-16
9.54992586e+01 1.05759010e-14 3.36588705e-16 0.00000000e+00 1.02393123e-14 0.00000000e+00 3.36588705e-16
1.09647820e+02 6.53271411e-15 2.22381952e-16 0.00000000e+00 6.31033216e-15 0.00000000e+00 2.22381952e-16
1.25892541e+02 3.98978984e-15 1.46926299e-16 0.00000000e+00 3.84286355e-15 0.00000000e+00 1.46926299e-16
1.44543977e+02 2.39808513e-15 9.70732430e-17 0.00000000e+00 2.30101189e-15 0.00000000e+00 9.70732430e-17
1.65958691e+02 1.36461218e-15 6.41356556e-17 0.00000000e+00 1.30047653e-15 0.00000000e+00 6.41356556e-17
1.90546072e+02 7.70599352e-16 4.23740075e-17 0.00000000e+00 7.28225345e-16 0.00000000e+00 4.23740075e-17
2.18776162e+02 4.31465961e-16 2.79962291e-17 0.00000000e+00 4.03469732e-16 0.00000000e+00 2.79962291e-17
2.51188643e+02 2.39497851e-16 1.84969251e-17 0.00000000e+00 2.21000926e-16 0.00000000e+00 1.84969251e-17
2.88403150e+02 1.31863907e-16 1.22207972e-17 0.00000000e+00 1.19643110e-16 0.00000000e+00 1.22207972e-17
3.31131121e+02 7.22773116e-17 8.07420067e-18 0.00000000e+00 6.42031109e-17 0.00000000e+00 8.07420067e-18
3.80189396e+02 3.94747035e-17 5.33457148e-18 0.00000000e+00 3.41401320e-17 0.00000000e+00 5.33457148e-18
4.36515832e+02 2.15505282e-17 3.52451642e-18 0.00000000e+00 1.80260118e-17 0.00000000e+00 3.52451642e-18
5.01187234e+02 1.17830835e-17 2.32862491e-18 0.00000000e+00 9.45445855e-18 0.00000000e+00 2.32862491e-18
5.75439937e+02 6.46937072e-18 1.53850722e-18 0.00000000e+00 4.93086350e-18 0.00000000e+00 1.53850722e-18
6.60693448e+02 3.57562801e-18 1.01648164e-18 0.00000000e+00 2.55914637e-18 0.00000000e+00 1.01648164e-18
7.58577575e+02 1.99421523e-18 6.71582760e-19 0.00000000e+00 1.32263247e-18 0.00000000e+00 6.71582760e-19
8.70963590e+02 1.12462466e-18 4.43710329e-19 0.00000000e+00 6.80914328e-19 0.00000000e+00 4.43710329e-19
1.00000000e+03 3.49327992e-19 0.00000000e+00 0.00000000e+00 3.49327992e-19 0.00000000e+00 0.00000000e+00
