# column 1: lambda (micron)
# column 2: total flux; lambda*F_lambda (W/m2)
# column 3: direct stellar flux; lambda*F_lambda (W/m2)
# column 4: scattered stellar flux; lambda*F_lambda (W/m2)
# column 5: total dust emission flux; lambda*F_lambda (W/m2)
# column 6: dust emission scattered flux; lambda*F_lambda (W/m2)
# column 7: transparent flux; lambda*F_lambda (W/m2)
1.00000000e-03 6.93994862e-13 6.93993746e-13 1.11674887e-18 0.00000000e+00 0.00000000e+00 6.93993746e-13
1.14815362e-03 8.19136911e-13 8.19135139e-13 1.77155788e-18 0.00000000e+00 0.00000000e+00 8.19135139e-13
1.31825674e-03 9.66845164e-13 9.66842108e-13 3.05609056e-18 0.00000000e+00 0.00000000e+00 9.66842108e-13
1.51356125e-03 1.14118822e-12 1.14118369e-12 4.52597246e-18 0.00000000e+00 0.00000000e+00 1.14118369e-12
1.73780083e-03 1.34697073e-12 1.34696266e-12 8.06987868e-18 0.00000000e+00 0.00000000e+00 1.34696266e-12
1.99526231e-03 1.58986265e-12 1.58984782e-12 1.48222874e-17 0.00000000e+00 0.00000000e+00 1.58984782e-12
2.29086765e-03 1.87655399e-12 1.87653019e-12 2.37954164e-17 0.00000000e+00 0.00000000e+00 1.87653019e-12
2.63026799e-03 2.21495454e-12 2.21490731e-12 4.72306131e-17 0.00000000e+00 0.00000000e+00 2.21490731e-12
3.01995172e-03 2.61438405e-12 2.61430080e-12 8.32417066e-17 0.00000000e+00 0.00000000e+00 2.61430080e-12
3.46736850e-03 3.08585468e-12 3.08571319e-12 1.41490103e-16 0.00000000e+00 0.00000000e+00 3.08571319e-12
3.98107171e-03 3.64235525e-12 3.64213095e-12 2.24300957e-16 0.00000000e+00 0.00000000e+00 3.64213095e-12
4.57088190e-03 4.29936626e-12 4.29888232e-12 4.83943338e-16 0.00000000e+00 0.00000000e+00 4.29888232e-12
5.24807460e-03 5.07494451e-12 5.07405951e-12 8.84997509e-16 0.00000000e+00 0.00000000e+00 5.07405951e-12
6.02559586e-03 5.99978034e-12 5.98901715e-12 1.07631913e-14 0.00000000e+00 0.00000000e+00 5.98901715e-12
6.91830971e-03 7.07171748e-12 7.06896053e-12 2.75695065e-15 0.00000000e+00 0.00000000e+00 7.06896053e-12
7.94328235e-03 8.34812939e-12 8.34363998e-12 4.48940363e-15 0.00000000e+00 0.00000000e+00 8.34363998e-12
9.12010839e-03 9.85569960e-12 9.84817045e-12 7.52914802e-15 0.00000000e+00 0.00000000e+00 9.84817045e-12
1.04712855e-02 1.10092435e-11 1.09990604e-11 1.01830339e-14 0.00000000e+00 0.00000000e+00 1.09990604e-11
1.20226443e-02 1.10555578e-11 1.09990604e-11 5.64973540e-14 5.07533307e-312 3.51692689e-314 1.09990604e-11
1.38038426e-02 1.10218708e-11 1.09990604e-11 2.28103113e-14 1.00245061e-272 9.31093702e-275 1.09990604e-11
1.58489319e-02 1.10327912e-11 1.09990604e-11 3.37307627e-14 1.60589796e-238 2.44998555e-240 1.09990604e-11
1.81970086e-02 1.10422895e-11 1.09990604e-11 4.32290309e-14 9.35908668e-209 1.64754424e-210 1.09990604e-11
2.08929613e-02 1.10619816e-11 1.09990604e-11 6.29211837e-14 7.03538814e-183 1.51655443e-184 1.09990604e-11
2.39883292e-02 1.10812824e-11 1.09990604e-11 8.22219434e-14 2.34857513e-160 7.06172209e-162 1.09990604e-11
2.75422870e-02 1.11098024e-11 1.09990604e-11 1.10741909e-13 9.32806007e-141 3.38774180e-142 1.09990604e-11
3.16227766e-02 1.11260185e-11 1.09990604e-11 1.26958014e-13 1.02616585e-123 4.51974291e-125 1.09990604e-11
3.63078055e-02 1.11478685e-11 1.09990604e-11 1.48808029e-13 6.64583923e-109 3.34625689e-110 1.09990604e-11
4.16869383e-02 1.11945837e-11 1.09990604e-11 1.95523232e-13 4.96794342e-96 3.28179836e-97 1.09990604e-11
4.78630092e-02 1.12351499e-11 1.09990604e-11 2.36089412e-13 7.52708775e-85 5.99644913e-86 1.09990604e-11
5.49540874e-02 1.12711232e-11 1.09990604e-11 2.72062801e-13 3.83179392e-75 3.48707998e-76 1.09990604e-11
6.30957344e-02 1.12870129e-11 1.09990604e-11 2.87952452e-13 1.37131127e-66 1.42681785e-67 1.09990604e-11
7.24435960e-02 1.12673366e-11 1.09990604e-11 2.68276205e-13 3.74570880e-59 3.93667257e-60 1.09990604e-11
8.31763771e-02 1.12593277e-11 1.09990604e-11 2.60267297e-13 9.72453986e-53 1.18158357e-53 1.09990604e-11
9.54992586e-02 1.12642672e-11 1.09990604e-11 2.65206792e-13 4.55239681e-47 6.84648302e-48 1.09990604e-11
1.09647820e-01 1.07853761e-11 1.05040253e-11 2.81350759e-13 4.47942219e-42 8.07318651e-43 1.05040253e-11
1.25892541e-01 1.00641431e-11 9.80292679e-12 2.61216322e-13 1.07732275e-37 2.01285862e-38 9.80292679e-12
1.44543977e-01 9.38907988e-12 9.14862359e-12 2.40456286e-13 6.85079981e-34 1.25678779e-34 9.14862359e-12
1.65958691e-01 8.78625117e-12 8.53799231e-12 2.48258857e-13 1.05913339e-30 2.12787884e-31 8.53799231e-12
1.90546072e-01 8.23301871e-12 7.96811805e-12 2.64900659e-13 4.53711292e-28 1.07651656e-28 7.96811805e-12
2.18776162e-01 7.68013065e-12 7.43628044e-12 2.43850218e-13 7.42087457e-26 1.91556175e-26 7.43628044e-12
2.51188643e-01 7.21307158e-12 6.93994070e-12 2.73130879e-13 1.02422677e-23 3.11104513e-24 6.93994070e-12
2.88403150e-01 6.73058406e-12 6.47672950e-12 2.53854552e-13 7.09830079e-22 2.16540178e-22 6.47672950e-12
3.31131121e-01 6.27910434e-12 6.04443567e-12 2.34668649e-13 2.64796059e-20 7.97918098e-21 6.04443567e-12
3.80189396e-01 5.84779678e-12 5.64099558e-12 2.06800620e-13 5.83312367e-19 1.76225090e-19 5.64099558e-12
4.36515832e-01 5.45283986e-12 5.26448339e-12 1.88348283e-13 8.19540431e-18 2.47314532e-18 5.26448339e-12
5.01187234e-01 5.08767028e-12 4.91310176e-12 1.74491344e-13 7.71772003e-17 2.33594547e-17 4.91310176e-12
5.75439937e-01 4.74003174e-12 4.58517335e-12 1.54347433e-13 5.10959293e-16 1.52867049e-16 4.58517335e-12
6.60693448e-01 4.42030801e-12 4.27913275e-12 1.38661293e-13 2.51396850e-15 7.33603936e-16 4.27913275e-12
7.58577575e-01 4.12789776e-12 3.99351904e-12 1.24701858e-13 9.67686513e-15 2.74579151e-15 3.99351904e-12
8.70963590e-01 3.86522446e-12 3.72696882e-12 1.08232681e-13 3.00229583e-14 8.07352728e-15 3.72696882e-12
1.00000000e+00 3.64860881e-12 3.47820968e-12 9.29362434e-14 7.74628853e-14 1.91607041e-14 3.47820968e-12
1.14815362e+00 3.49503208e-12 3.24605414e-12 7.48878893e-14 1.74090046e-13 3.84132917e-14 3.24605414e-12
1.31825674e+00 3.43618046e-12 3.02939399e-12 5.96100884e-14 3.47176383e-13 6.62199470e-14 3.02939399e-12
1.51356125e+00 3.49357709e-12 2.82719497e-12 4.70894131e-14 6.19292712e-13 9.96962764e-14 2.82719497e-12
1.73780083e+00 3.65821766e-12 2.63849186e-12 3.48901824e-14 9.84835613e-13 1.28205181e-13 2.63849186e-12
1.99526231e+00 3.89885526e-12 2.46238388e-12 2.56236254e-14 1.41084775e-12 1.42556846e-13 2.46238388e-12
2.29086765e+00 4.14557492e-12 2.29803035e-12 1.81409685e-14 1.82940360e-12 1.37879966e-13 2.29803035e-12
2.63026799e+00 4.34303641e-12 2.14464670e-12 1.26559450e-14 2.18573376e-12 1.20631237e-13 2.14464670e-12
3.01995172e+00 4.47348935e-12 2.00150076e-12 8.71540374e-15 2.46327319e-12 9.84462737e-14 2.00150076e-12
3.46736850e+00 4.48950746e-12 1.86790919e-12 5.96728984e-15 2.61563098e-12 7.66549285e-14 1.86790919e-12
3.98107171e+00 4.39752099e-12 1.74323429e-12 4.13144134e-15 2.65015526e-12 5.60950933e-14 1.74323429e-12
4.57088190e+00 4.24319176e-12 1.62688090e-12 2.72509290e-15 2.61358577e-12 3.94575180e-14 1.62688090e-12
5.24807460e+00 3.86689569e-12 1.34518114e-12 1.59956784e-15 2.52011498e-12 2.64786819e-14 1.34518114e-12
6.02559586e+00 3.29973509e-12 8.88752369e-13 7.11199318e-16 2.41027152e-12 1.71437148e-14 8.88752369e-13
6.70000000e+00 2.94677583e-12 6.46481889e-13 3.67249275e-16 2.29992669e-12 1.17475968e-14 6.46481889e-13
6.92422916e+00 2.85169365e-12 5.85688198e-13 3.02409227e-16 2.26570304e-12 1.03480637e-14 5.85688198e-13
7.15596261e+00 2.77318458e-12 5.30611407e-13 2.39486197e-16 2.24233368e-12 9.00879383e-15 5.30611407e-13
7.39545150e+00 2.74629663e-12 4.80713913e-13 1.79874633e-16 2.26540284e-12 7.73078227e-15 4.80713913e-13
7.64295536e+00 2.82891619e-12 4.35508666e-13 1.25448465e-16 2.39328208e-12 6.28478498e-15 4.35508666e-13
7.89874245e+00 3.07771698e-12 3.94554418e-13 7.43819418e-17 2.68308818e-12 4.82481388e-15 3.94554418e-13
8.16308998e+00 3.46431389e-12 3.57451415e-13 4.30938155e-17 3.10681938e-12 3.64826200e-15 3.57451415e-13
8.43628443e+00 4.01618730e-12 3.23837494e-13 2.33548027e-17 3.69232645e-12 2.71836702e-15 3.23837494e-13
8.71862190e+00 4.38638096e-12 2.93384550e-13 1.52266301e-17 4.09298119e-12 2.13267430e-15 2.93384550e-13
9.01040836e+00 4.79814973e-12 2.65795332e-13 9.88834575e-18 4.53234451e-12 1.67482538e-15 2.65795332e-13
9.31196005e+00 5.12581320e-12 2.40800541e-13 0.00000000e+00 4.88501266e-12 0.00000000e+00 2.40800541e-13
9.62360379e+00 5.09693053e-12 2.18156204e-13 0.00000000e+00 4.87877432e-12 0.00000000e+00 2.18156204e-13
9.94567731e+00 4.81655336e-12 1.97641289e-13 0.00000000e+00 4.61891207e-12 0.00000000e+00 1.97641289e-13
1.02785297e+01 4.46658674e-12 1.79055550e-13 0.00000000e+00 4.28753119e-12 0.00000000e+00 1.79055550e-13
1.06225216e+01 4.12033775e-12 1.62217572e-13 0.00000000e+00 3.95812018e-12 0.00000000e+00 1.62217572e-13
1.09780260e+01 3.77133850e-12 1.46962999e-13 0.00000000e+00 3.62437550e-12 0.00000000e+00 1.46962999e-13
1.13454280e+01 3.43973349e-12 1.33142932e-13 0.00000000e+00 3.30659056e-12 0.00000000e+00 1.33142932e-13
1.17251259e+01 3.18982794e-12 1.20622472e-13 0.00000000e+00 3.06920547e-12 0.00000000e+00 1.20622472e-13
1.21175312e+01 2.95075996e-12 1.09279408e-13 0.00000000e+00 2.84148055e-12 0.00000000e+00 1.09279408e-13
1.25230691e+01 2.74877361e-12 9.90030204e-14 0.00000000e+00 2.64977059e-12 0.00000000e+00 9.90030204e-14
1.29421791e+01 2.57382975e-12 8.96930008e-14 0.00000000e+00 2.48413675e-12 0.00000000e+00 8.96930008e-14
1.33753155e+01 2.43265417e-12 8.12584743e-14 0.00000000e+00 2.35139569e-12 0.00000000e+00 8.12584743e-14
1.38229477e+01 2.34581308e-12 7.36171115e-14 0.00000000e+00 2.27219597e-12 0.00000000e+00 7.36171115e-14
1.42855609e+01 2.31734068e-12 6.66943252e-14 0.00000000e+00 2.25064636e-12 0.00000000e+00 6.66943252e-14
1.47636563e+01 2.36879494e-12 6.04225420e-14 0.00000000e+00 2.30837240e-12 0.00000000e+00 6.04225420e-14
1.52577522e+01 2.43905937e-12 5.47405431e-14 0.00000000e+00 2.38431883e-12 0.00000000e+00 5.47405431e-14
1.57683840e+01 2.52745064e-12 4.95928665e-14 0.00000000e+00 2.47785778e-12 0.00000000e+00 4.95928665e-14
1.62961051e+01 2.62484918e-12 4.49292657e-14 0.00000000e+00 2.57991991e-12 0.00000000e+00 4.49292657e-14
1.68414875e+01 2.71069200e-12 4.07042194e-14 0.00000000e+00 2.66998778e-12 0.00000000e+00 4.07042194e-14
1.74051222e+01 2.79436089e-12 3.68764869e-14 0.00000000e+00 2.75748440e-12 0.00000000e+00 3.68764869e-14
1.79876201e+01 2.85691269e-12 3.34087056e-14 0.00000000e+00 2.82350399e-12 0.00000000e+00 3.34087056e-14
1.85896125e+01 2.86826313e-12 3.02670267e-14 0.00000000e+00 2.83799610e-12 0.00000000e+00 3.02670267e-14
1.92117518e+01 2.88859021e-12 2.74207841e-14 0.00000000e+00 2.86116943e-12 0.00000000e+00 2.74207841e-14
1.98547123e+01 2.85907216e-12 2.48421957e-14 0.00000000e+00 2.83422997e-12 0.00000000e+00 2.48421957e-14
2.05191907e+01 2.83199235e-12 2.25060919e-14 0.00000000e+00 2.80948625e-12 0.00000000e+00 2.25060919e-14
2.12059073e+01 2.81572249e-12 2.03896700e-14 0.00000000e+00 2.79533282e-12 0.00000000e+00 2.03896700e-14
2.19156062e+01 2.80383944e-12 1.84722717e-14 0.00000000e+00 2.78536717e-12 0.00000000e+00 1.84722717e-14
2.26490567e+01 2.79608604e-12 1.67351811e-14 0.00000000e+00 2.77935086e-12 0.00000000e+00 1.67351811e-14
2.34070535e+01 2.78029344e-12 1.51614426e-14 0.00000000e+00 2.76513200e-12 0.00000000e+00 1.51614426e-14
2.41904183e+01 2.76502473e-12 1.37356949e-14 0.00000000e+00 2.75128903e-12 0.00000000e+00 1.37356949e-14
2.50000000e+01 2.75222731e-12 1.24440213e-14 0.00000000e+00 2.73978328e-12 0.00000000e+00 1.24440213e-14
2.75422870e+01 2.67868096e-12 9.30637977e-15 0.00000000e+00 2.66937458e-12 0.00000000e+00 9.30637977e-15
3.16227766e+01 2.51697671e-12 6.14866414e-15 0.00000000e+00 2.51082804e-12 0.00000000e+00 6.14866414e-15
3.63078055e+01 2.21755198e-12 4.06238211e-15 0.00000000e+00 2.21348960e-12 0.00000000e+00 4.06238211e-15
4.16869383e+01 1.82740678e-12 2.68398924e-15 0.00000000e+00 1.82472279e-12 0.00000000e+00 2.68398924e-15
4.78630092e+01 1.39934985e-12 1.77329411e-15 0.00000000e+00 1.39757656e-12 0.00000000e+00 1.77329411e-15
5.49540874e+01 1.00300332e-12 1.17160380e-15 0.00000000e+00 1.00183171e-12 0.00000000e+00 1.17160380e-15
6.30957344e+01 6.77956525e-13 7.74070953e-16 0.00000000e+00 6.77182454e-13 0.00000000e+00 7.74070953e-16
7.24435960e+01 4.36065514e-13 5.11423607e-16 0.00000000e+00 4.35554090e-13 0.00000000e+00 5.11423607e-16
8.31763771e+01 2.68575650e-13 3.37894226e-16 0.00000000e+00 2.68237756e-13 0.00000000e+00 3.37894226e-16
9.54992586e+01 1.60327974e-13 2.23244502e-16 0.00000000e+00 1.60104730e-13 0.00000000e+00 2.23244502e-16
1.09647820e+02 9.32856797e-14 1.47496179e-16 0.00000000e+00 9.31381835e-14 0.00000000e+00 1.47496179e-16
1.25892541e+02 5.37529701e-14 9.74497594e-17 0.00000000e+00 5.36555204e-14 0.00000000e+00 9.74497594e-17
1.44543977e+02 3.05733325e-14 6.43844175e-17 0.00000000e+00 3.05089481e-14 0.00000000e+00 6.43844175e-17
1.65958691e+02 1.65052601e-14 4.25383628e-17 0.00000000e+00 1.64627217e-14 0.00000000e+00 4.25383628e-17
1.90546072e+02 8.86871456e-15 2.81048176e-17 0.00000000e+00 8.84060974e-15 0.00000000e+00 2.81048176e-17
2.18776162e+02 4.73667700e-15 1.85686688e-17 0.00000000e+00 4.71810833e-15 0.00000000e+00 1.85686688e-17
2.51188643e+02 2.51290080e-15 1.22681978e-17 0.00000000e+00 2.50063260e-15 0.00000000e+00 1.22681978e-17
2.88403150e+02 1.32351828e-15 8.10551794e-18 0.00000000e+00 1.31541276e-15 0.00000000e+00 8.10551794e-18
3.31131121e+02 6.93632476e-16 5.35526259e-18 0.00000000e+00 6.88277213e-16 0.00000000e+00 5.35526259e-18
3.80189396e+02 3.61601100e-16 3.53818691e-18 0.00000000e+00 3.58062913e-16 0.00000000e+00 3.53818691e-18
4.36515832e+02 1.87827761e-16 2.33765691e-18 0.00000000e+00 1.85490104e-16 0.00000000e+00 2.33765691e-18
5.01187234e+02 9.72353804e-17 1.54447460e-18 0.00000000e+00 9.56909058e-17 0.00000000e+00 1.54447460e-18
5.75439937e+02 5.02131878e-17 1.02042425e-18 0.00000000e+00 4.91927635e-17 0.00000000e+00 1.02042425e-18
6.60693448e+02 2.58886978e-17 6.74187617e-19 0.00000000e+00 2.52145102e-17 0.00000000e+00 6.74187617e-19
7.58577575e+02 1.33367328e-17 4.45431341e-19 0.00000000e+00 1.28913014e-17 0.00000000e+00 4.45431341e-19
8.70963590e+02 6.86892999e-18 2.94293569e-19 0.00000000e+00 6.57463643e-18 0.00000000e+00 2.94293569e-19
1.00000000e+03 3.34557212e-18 0.00000000e+00 0.00000000e+00 3.34557212e-18 0.00000000e+00 0.00000000e+00
