# column 1: lambda (micron)
# column 2: total flux; lambda*F_lambda (W/m2)
# column 3: direct stellar flux; lambda*F_lambda (W/m2)
# column 4: scattered stellar flux; lambda*F_lambda (W/m2)
# column 5: total dust emission flux; lambda*F_lambda (W/m2)
# column 6: dust emission scattered flux; lambda*F_lambda (W/m2)
# column 7: transparent flux; lambda*F_lambda (W/m2)
1.00000000e-03 8.46533747e-13 8.46524740e-13 9.00668136e-18 0.00000000e+00 0.00000000e+00 8.46529401e-13
1.14815362e-03 9.99183209e-13 9.99168853e-13 1.43556777e-17 0.00000000e+00 0.00000000e+00 9.99176121e-13
1.31825674e-03 1.17935874e-12 1.17933729e-12 2.14517071e-17 0.00000000e+00 0.00000000e+00 1.17934819e-12
1.51356125e-03 1.39202737e-12 1.39199383e-12 3.35364987e-17 0.00000000e+00 0.00000000e+00 1.39200901e-12
1.73780083e-03 1.64305840e-12 1.64299886e-12 5.95429504e-17 0.00000000e+00 0.00000000e+00 1.64301696e-12
1.99526231e-03 1.93935777e-12 1.93925850e-12 9.92702413e-17 0.00000000e+00 0.00000000e+00 1.93928682e-12
2.29086765e-03 2.28911159e-12 2.28894481e-12 1.66786581e-16 0.00000000e+00 0.00000000e+00 2.28898025e-12
2.63026799e-03 2.70199586e-12 2.70168049e-12 3.15369171e-16 0.00000000e+00 0.00000000e+00 2.70173063e-12
3.01995172e-03 3.18935889e-12 3.18883522e-12 5.23671725e-16 0.00000000e+00 0.00000000e+00 3.18890841e-12
3.46736850e-03 3.76467707e-12 3.76383258e-12 8.44492010e-16 0.00000000e+00 0.00000000e+00 3.76393440e-12
3.98107171e-03 4.44382756e-12 4.44251187e-12 1.31568435e-15 0.00000000e+00 0.00000000e+00 4.44264945e-12
4.57088190e-03 5.24677363e-12 5.24364250e-12 3.13112876e-15 0.00000000e+00 0.00000000e+00 5.24375082e-12
5.24807460e-03 6.19478031e-12 6.18914401e-12 5.63630128e-15 0.00000000e+00 0.00000000e+00 6.18930730e-12
6.02559586e-03 7.31429889e-12 7.30513473e-12 9.16415944e-15 0.00000000e+00 0.00000000e+00 7.30536713e-12
6.91830971e-03 8.63805005e-12 8.62235899e-12 1.56910573e-14 0.00000000e+00 0.00000000e+00 8.62267558e-12
7.94328235e-03 1.02038160e-11 1.01771050e-11 2.67109443e-14 0.00000000e+00 0.00000000e+00 1.01775219e-11
9.12010839e-03 1.20525431e-11 1.20121931e-11 4.03499860e-14 0.00000000e+00 0.00000000e+00 1.20127391e-11
1.04712855e-02 1.34839805e-11 1.34159390e-11 6.80414980e-14 0.00000000e+00 0.00000000e+00 1.34165878e-11
1.20226443e-02 1.35176114e-11 1.34159008e-11 1.01710601e-13 0.00000000e+00 0.00000000e+00 1.34165878e-11
1.38038426e-02 1.35554549e-11 1.34158553e-11 1.39599535e-13 1.24985197e-287 1.57934142e-288 1.34165878e-11
1.58489319e-02 1.36061012e-11 1.34157995e-11 1.90301657e-13 4.19261368e-251 3.80841464e-252 1.34165878e-11
1.81970086e-02 1.36430489e-11 1.34157480e-11 2.27300889e-13 2.82424501e-219 3.85665980e-220 1.34165878e-11
2.08929613e-02 1.37492406e-11 1.34157053e-11 3.33535300e-13 1.23788404e-191 1.39089982e-192 1.34165878e-11
2.39883292e-02 1.37878983e-11 1.34156498e-11 3.72248470e-13 1.47441150e-167 1.72021699e-168 1.34165878e-11
2.75422870e-02 1.38440861e-11 1.34155853e-11 4.28500748e-13 1.31542962e-146 1.48611125e-147 1.34165878e-11
3.16227766e-02 1.38556064e-11 1.34155221e-11 4.40084252e-13 2.20311488e-128 2.49472420e-129 1.34165878e-11
3.63078055e-02 1.38707197e-11 1.34154726e-11 4.55247139e-13 1.56027765e-112 1.75452173e-113 1.34165878e-11
4.16869383e-02 1.39116398e-11 1.34154297e-11 4.96210145e-13 9.43918323e-99 1.13479650e-99 1.34165878e-11
4.78630092e-02 1.39160832e-11 1.34153115e-11 5.00771711e-13 8.75644096e-87 1.09458482e-87 1.34165878e-11
5.49540874e-02 1.38606027e-11 1.34151471e-11 4.45455584e-13 2.17741789e-76 2.88990055e-77 1.34165878e-11
6.30957344e-02 1.38097358e-11 1.34147349e-11 3.95000817e-13 2.96997702e-67 3.98301935e-68 1.34165878e-11
7.24435960e-02 1.37293085e-11 1.34142467e-11 3.15061719e-13 2.47611595e-59 3.11228388e-60 1.34165878e-11
8.31763771e-02 1.37211035e-11 1.34142902e-11 3.06813275e-13 1.50160920e-52 1.83718576e-53 1.34165878e-11
9.54992586e-02 1.37346706e-11 1.34144176e-11 3.20253055e-13 1.14785433e-46 1.45254925e-47 1.34165878e-11
1.09647820e-01 1.31659316e-11 1.28110251e-11 3.54906453e-13 1.34235944e-41 1.88179976e-42 1.28127470e-11
1.25892541e-01 1.23240002e-11 1.19562285e-11 3.67771746e-13 3.21366412e-37 4.68765643e-38 1.19575512e-11
1.44543977e-01 1.15256519e-11 1.11584129e-11 3.67238998e-13 1.88437927e-33 2.73440199e-34 1.11594361e-11
1.65958691e-01 1.07924315e-11 1.04137566e-11 3.78674866e-13 2.60824367e-30 4.24402088e-31 1.04145917e-11
1.90546072e-01 1.00991912e-11 9.71863105e-12 3.80560153e-13 9.72074125e-28 1.85493131e-28 9.71946251e-12
2.18776162e-01 9.38733483e-12 9.06981997e-12 3.17514856e-13 1.38097880e-25 2.72671020e-26 9.07073019e-12
2.51188643e-01 8.85192260e-12 8.46461860e-12 3.87303993e-13 1.71261453e-23 4.26079077e-24 8.46529796e-12
2.88403150e-01 8.28195359e-12 7.89974934e-12 3.82204247e-13 1.10045300e-21 2.85802153e-22 7.90027573e-12
3.31131121e-01 7.73733391e-12 7.37253807e-12 3.64795811e-13 3.90110689e-20 1.05462922e-20 7.37296631e-12
3.80189396e-01 7.22829196e-12 6.88050155e-12 3.47789553e-13 8.49504575e-19 2.37986990e-19 6.88085251e-12
4.36515832e-01 6.74697814e-12 6.42130014e-12 3.25665871e-13 1.21244167e-17 3.59866364e-18 6.42158520e-12
5.01187234e-01 6.30310759e-12 5.99274361e-12 3.10244558e-13 1.19424226e-16 3.65281234e-17 5.99297201e-12
5.75439937e-01 5.88277936e-12 5.59278578e-12 2.89141526e-13 8.52049634e-16 2.69591935e-16 5.59296690e-12
6.60693448e-01 5.49479444e-12 5.21951803e-12 2.70719252e-13 4.55715156e-15 1.45123106e-15 5.21966041e-12
7.58577575e-01 5.13709150e-12 4.87115996e-12 2.46550029e-13 1.93815109e-14 6.17351536e-15 4.87127053e-12
8.70963590e-01 4.83536935e-12 4.54605021e-12 2.22923105e-13 6.63960393e-14 2.04468157e-14 4.54613417e-12
1.00000000e+00 4.62943790e-12 4.24263654e-12 1.94879801e-13 1.91921561e-13 5.63003075e-14 4.24269927e-12
1.14815362e+00 4.60208638e-12 3.95947131e-12 1.63645005e-13 4.78970073e-13 1.30036713e-13 3.95951734e-12
1.31825674e+00 4.87768927e-12 3.69520339e-12 1.34605280e-13 1.04788060e-12 2.51697263e-13 3.69523659e-12
1.51356125e+00 5.57475234e-12 3.44857174e-12 1.06448662e-13 2.01973193e-12 4.19654074e-13 3.44859544e-12
1.73780083e+00 6.74754627e-12 3.21839988e-12 8.32360948e-14 3.44591029e-12 6.00278604e-13 3.21841652e-12
1.99526231e+00 8.24729181e-12 3.00358956e-12 6.22901694e-14 5.18141208e-12 7.22390179e-13 3.00360106e-12
2.29086765e+00 9.86945967e-12 2.80311568e-12 4.64006696e-14 7.01994331e-12 7.64184155e-13 2.80312361e-12
2.63026799e+00 1.14025946e-11 2.61602165e-12 3.33350159e-14 8.75323795e-12 7.29571639e-13 2.61602716e-12
3.01995172e+00 1.25971726e-11 2.44141472e-12 2.38332046e-14 1.01319247e-11 6.55042211e-13 2.44141860e-12
3.46736850e+00 1.34684040e-11 2.27846163e-12 1.66498848e-14 1.11732924e-11 5.48404586e-13 2.27846441e-12
3.98107171e+00 1.38983310e-11 2.12638469e-12 1.15314847e-14 1.17604148e-11 4.38807190e-13 2.12638671e-12
4.57088190e+00 1.39106419e-11 1.98445806e-12 7.66368452e-15 1.19185201e-11 3.21852621e-13 1.98445954e-12
5.24807460e+00 1.34876215e-11 1.64084289e-12 4.40568364e-15 1.18423730e-11 2.17349823e-13 1.64084388e-12
6.02559586e+00 1.25153910e-11 1.08409426e-12 1.91906242e-15 1.14293776e-11 1.36322280e-13 1.08409480e-12
6.70000000e+00 1.17689593e-11 7.88574376e-13 9.80507216e-16 1.09794044e-11 9.04934270e-14 7.88574724e-13
6.92422916e+00 1.15340369e-11 7.14418640e-13 7.88843729e-16 1.08188295e-11 7.88181494e-14 7.14418944e-13
7.15596261e+00 1.13573937e-11 6.47236335e-13 6.24009336e-16 1.07095333e-11 6.78984342e-14 6.47236606e-13
7.39545150e+00 1.12883397e-11 5.86371691e-13 4.77186050e-16 1.07014909e-11 5.75166174e-14 5.86371942e-13
7.64295536e+00 1.15991663e-11 5.31230595e-13 3.36320217e-16 1.10675993e-11 4.73772060e-14 5.31230854e-13
7.89874245e+00 1.23854445e-11 4.81274805e-13 2.06162238e-16 1.19039635e-11 3.69247084e-14 4.81275108e-13
8.16308998e+00 1.32670468e-11 4.36016717e-13 1.18914059e-16 1.28309111e-11 2.75700890e-14 4.36017088e-13
8.43628443e+00 1.42995533e-11 3.95014562e-13 6.60631023e-17 1.39044727e-11 1.94711603e-14 3.95015029e-13
8.71862190e+00 1.49505837e-11 3.57868191e-13 4.06202266e-17 1.45926749e-11 1.46929399e-14 3.57868711e-13
9.01040836e+00 1.53742717e-11 3.24214978e-13 2.39303464e-17 1.50500328e-11 1.07591891e-14 3.24215549e-13
9.31196005e+00 1.56478186e-11 2.93726454e-13 0.00000000e+00 1.53540922e-11 0.00000000e+00 2.93727053e-13
9.62360379e+00 1.54245499e-11 2.66105069e-13 0.00000000e+00 1.51584449e-11 0.00000000e+00 2.66105627e-13
9.94567731e+00 1.48734854e-11 2.41081183e-13 0.00000000e+00 1.46324042e-11 0.00000000e+00 2.41081657e-13
1.02785297e+01 1.42626369e-11 2.18410496e-13 0.00000000e+00 1.40442264e-11 0.00000000e+00 2.18410884e-13
1.06225216e+01 1.36151416e-11 1.97871705e-13 0.00000000e+00 1.34172699e-11 0.00000000e+00 1.97872020e-13
1.09780260e+01 1.30066090e-11 1.79264337e-13 0.00000000e+00 1.28273446e-11 0.00000000e+00 1.79264583e-13
1.13454280e+01 1.24003271e-11 1.62406755e-13 0.00000000e+00 1.22379204e-11 0.00000000e+00 1.62406948e-13
1.17251259e+01 1.18937705e-11 1.47134414e-13 0.00000000e+00 1.17466360e-11 0.00000000e+00 1.47134567e-13
1.21175312e+01 1.13003624e-11 1.33298246e-13 0.00000000e+00 1.11670641e-11 0.00000000e+00 1.33298366e-13
1.25230691e+01 1.07531556e-11 1.20763196e-13 0.00000000e+00 1.06323924e-11 0.00000000e+00 1.20763289e-13
1.29421791e+01 1.02091431e-11 1.09406909e-13 0.00000000e+00 1.00997362e-11 0.00000000e+00 1.09406983e-13
1.33753155e+01 9.66757287e-12 9.91185398e-14 0.00000000e+00 9.56845433e-12 0.00000000e+00 9.91185987e-14
1.38229477e+01 9.27055481e-12 8.97976613e-14 0.00000000e+00 9.18075714e-12 0.00000000e+00 8.97977103e-14
1.42855609e+01 9.04130422e-12 8.13532946e-14 0.00000000e+00 8.95995093e-12 0.00000000e+00 8.13533371e-14
1.47636563e+01 9.10928688e-12 7.37030133e-14 0.00000000e+00 9.03558386e-12 0.00000000e+00 7.37030537e-14
1.52577522e+01 9.24135246e-12 6.67721465e-14 0.00000000e+00 9.17458032e-12 0.00000000e+00 6.67721855e-14
1.57683840e+01 9.39937253e-12 6.04930424e-14 0.00000000e+00 9.33887949e-12 0.00000000e+00 6.04930805e-14
1.62961051e+01 9.59325880e-12 5.48044110e-14 0.00000000e+00 9.53845439e-12 0.00000000e+00 5.48044484e-14
1.68414875e+01 9.72949608e-12 4.96507258e-14 0.00000000e+00 9.67984536e-12 0.00000000e+00 4.96507622e-14
1.74051222e+01 9.81010785e-12 4.49816825e-14 0.00000000e+00 9.76512617e-12 0.00000000e+00 4.49817171e-14
1.79876201e+01 9.83917963e-12 4.07517061e-14 0.00000000e+00 9.79842793e-12 0.00000000e+00 4.07517384e-14
1.85896125e+01 9.76542214e-12 3.69195080e-14 0.00000000e+00 9.72850263e-12 0.00000000e+00 3.69195372e-14
1.92117518e+01 9.61099072e-12 3.34476820e-14 0.00000000e+00 9.57754304e-12 0.00000000e+00 3.34477076e-14
1.98547123e+01 9.35168762e-12 3.03023389e-14 0.00000000e+00 9.32138528e-12 0.00000000e+00 3.03023610e-14
2.05191907e+01 9.02909260e-12 2.74527768e-14 0.00000000e+00 9.00163983e-12 0.00000000e+00 2.74527957e-14
2.12059073e+01 8.73029496e-12 2.48711809e-14 0.00000000e+00 8.70542378e-12 0.00000000e+00 2.48711970e-14
2.19156062e+01 8.44828607e-12 2.25323522e-14 0.00000000e+00 8.42575372e-12 0.00000000e+00 2.25323660e-14
2.26490567e+01 8.12779821e-12 2.04134616e-14 0.00000000e+00 8.10738474e-12 0.00000000e+00 2.04134733e-14
2.34070535e+01 7.85247520e-12 1.84938264e-14 0.00000000e+00 7.83398138e-12 0.00000000e+00 1.84938366e-14
2.41904183e+01 7.54682531e-12 1.67547094e-14 0.00000000e+00 7.53007060e-12 0.00000000e+00 1.67547181e-14
2.50000000e+01 7.24189330e-12 1.51791348e-14 0.00000000e+00 7.22671416e-12 0.00000000e+00 1.51791424e-14
2.75422870e+01 6.34534322e-12 1.13518612e-14 0.00000000e+00 6.33399136e-12 0.00000000e+00 1.13518661e-14
3.16227766e+01 5.07159411e-12 7.50010087e-15 0.00000000e+00 5.06409401e-12 0.00000000e+00 7.50010357e-15
3.63078055e+01 3.81838909e-12 4.95526781e-15 0.00000000e+00 3.81343382e-12 0.00000000e+00 4.95526929e-15
4.16869383e+01 2.67531374e-12 3.27391317e-15 0.00000000e+00 2.67203983e-12 0.00000000e+00 3.27391395e-15
4.78630092e+01 1.75481342e-12 2.16305309e-15 0.00000000e+00 1.75265037e-12 0.00000000e+00 2.16305350e-15
5.49540874e+01 1.08764817e-12 1.42911507e-15 0.00000000e+00 1.08621905e-12 0.00000000e+00 1.42911527e-15
6.30957344e+01 6.46054399e-13 9.44206996e-16 0.00000000e+00 6.45110192e-13 0.00000000e+00 9.44207098e-16
7.24435960e+01 3.70779329e-13 6.23831393e-16 0.00000000e+00 3.70155498e-13 0.00000000e+00 6.23831443e-16
8.31763771e+01 2.07704878e-13 4.12161322e-16 0.00000000e+00 2.07292717e-13 0.00000000e+00 4.12161347e-16
9.54992586e+01 1.14464600e-13 2.72312289e-16 0.00000000e+00 1.14192288e-13 0.00000000e+00 2.72312302e-16
1.09647820e+02 6.23042271e-14 1.79914947e-16 0.00000000e+00 6.21243121e-14 0.00000000e+00 1.79914953e-16
1.25892541e+02 3.40016392e-14 1.18868628e-16 0.00000000e+00 3.38827705e-14 0.00000000e+00 1.18868631e-16
1.44543977e+02 1.84919898e-14 7.85357241e-17 0.00000000e+00 1.84134541e-14 0.00000000e+00 7.85357256e-17
1.65958691e+02 9.59595700e-15 5.18880386e-17 0.00000000e+00 9.54406897e-15 0.00000000e+00 5.18880394e-17
1.90546072e+02 4.99298352e-15 3.42820873e-17 0.00000000e+00 4.95870143e-15 0.00000000e+00 3.42820876e-17
2.18776162e+02 2.59761169e-15 2.26499505e-17 0.00000000e+00 2.57496174e-15 0.00000000e+00 2.26499507e-17
2.51188643e+02 1.34888311e-15 1.49646739e-17 0.00000000e+00 1.33391844e-15 0.00000000e+00 1.49646740e-17
2.88403150e+02 6.98196730e-16 9.88706203e-18 0.00000000e+00 6.88309668e-16 0.00000000e+00 9.88706207e-18
3.31131121e+02 3.60931917e-16 6.53231711e-18 0.00000000e+00 3.54399600e-16 0.00000000e+00 6.53231713e-18
3.80189396e+02 1.86178479e-16 4.31585912e-18 0.00000000e+00 1.81862620e-16 0.00000000e+00 4.31585913e-18
4.36515832e+02 9.59798858e-17 2.85145984e-18 0.00000000e+00 9.31284260e-17 0.00000000e+00 2.85145985e-18
5.01187234e+02 4.94572079e-17 1.88394084e-18 0.00000000e+00 4.75732670e-17 0.00000000e+00 1.88394084e-18
5.75439937e+02 2.54983416e-17 1.24470737e-18 0.00000000e+00 2.42536342e-17 0.00000000e+00 1.24470737e-18
6.60693448e+02 1.31658220e-17 8.22370003e-19 0.00000000e+00 1.23434520e-17 0.00000000e+00 8.22370004e-19
7.58577575e+02 6.81579774e-18 5.43334473e-19 0.00000000e+00 6.27246327e-18 0.00000000e+00 5.43334473e-19
8.70963590e+02 3.54133305e-18 3.58977526e-19 0.00000000e+00 3.18235553e-18 0.00000000e+00 3.58977527e-19
1.00000000e+03 1.61215244e-18 0.00000000e+00 0.00000000e+00 1.61215244e-18 0.00000000e+00 0.00000000e+00
