# column 1: lambda (micron)
# column 2: total flux; lambda*F_lambda (W/m2)
# column 3: direct stellar flux; lambda*F_lambda (W/m2)
# column 4: scattered stellar flux; lambda*F_lambda (W/m2)
# column 5: total dust emission flux; lambda*F_lambda (W/m2)
# column 6: dust emission scattered flux; lambda*F_lambda (W/m2)
# column 7: transparent flux; lambda*F_lambda (W/m2)
1.00000000e-03 1.04420486e-12 1.04419023e-12 1.46300278e-17 0.00000000e+00 0.00000000e+00 1.04634360e-12
1.14815362e-03 1.23169309e-12 1.23166410e-12 2.89923485e-17 0.00000000e+00 0.00000000e+00 1.23502095e-12
1.31825674e-03 1.45279306e-12 1.45268502e-12 1.08040060e-16 0.00000000e+00 0.00000000e+00 1.45772071e-12
1.51356125e-03 1.71377208e-12 1.71357253e-12 1.99559477e-16 0.00000000e+00 0.00000000e+00 1.72057784e-12
1.73780083e-03 2.02278041e-12 2.02247973e-12 3.00677090e-16 0.00000000e+00 0.00000000e+00 2.03083353e-12
1.99526231e-03 2.38416216e-12 2.38397060e-12 1.91553657e-16 0.00000000e+00 0.00000000e+00 2.39703472e-12
2.29086765e-03 2.82655756e-12 2.81292066e-12 1.36369044e-14 0.00000000e+00 0.00000000e+00 2.82926954e-12
2.63026799e-03 3.31698195e-12 3.31633392e-12 6.48035463e-16 0.00000000e+00 0.00000000e+00 3.33944522e-12
3.01995172e-03 3.90959898e-12 3.90790590e-12 1.69307710e-15 0.00000000e+00 0.00000000e+00 3.94161611e-12
3.46736850e-03 4.60888177e-12 4.60550881e-12 3.37296494e-15 0.00000000e+00 0.00000000e+00 4.65237083e-12
3.98107171e-03 5.43312084e-12 5.42802178e-12 5.09906217e-15 0.00000000e+00 0.00000000e+00 5.49128930e-12
4.57088190e-03 6.43932075e-12 6.43157370e-12 7.74704464e-15 0.00000000e+00 0.00000000e+00 6.48148207e-12
5.24807460e-03 7.59308241e-12 7.57506814e-12 1.80142729e-14 0.00000000e+00 0.00000000e+00 7.65022704e-12
6.02559586e-03 8.94940885e-12 8.92286535e-12 2.65434975e-14 0.00000000e+00 0.00000000e+00 9.02972084e-12
6.91830971e-03 1.05795230e-11 1.05125355e-11 6.69875436e-14 0.00000000e+00 0.00000000e+00 1.06579658e-11
7.94328235e-03 1.24814198e-11 1.23884605e-11 9.29593341e-14 1.01256149e-303 1.28203579e-305 1.25798170e-11
9.12010839e-03 1.47783144e-11 1.45977891e-11 1.80525313e-13 5.39204525e-265 9.12275423e-267 1.48482176e-11
1.04712855e-02 1.64136829e-11 1.62860349e-11 1.27647977e-13 2.71721203e-231 7.20056775e-233 1.65834298e-11
1.20226443e-02 1.64636465e-11 1.62686508e-11 1.94995682e-13 4.94646502e-202 1.59952107e-203 1.65834298e-11
1.38038426e-02 1.65613853e-11 1.62480555e-11 3.13329837e-13 1.52750343e-176 4.97065493e-178 1.65834298e-11
1.58489319e-02 1.65327271e-11 1.62227811e-11 3.09946057e-13 2.32417522e-154 9.64220287e-156 1.65834298e-11
1.81970086e-02 1.66054903e-11 1.61995048e-11 4.05985488e-13 4.58235777e-135 2.17857225e-136 1.65834298e-11
2.08929613e-02 1.67006967e-11 1.61801827e-11 5.20514040e-13 2.63379569e-118 1.60060800e-119 1.65834298e-11
2.39883292e-02 1.67660593e-11 1.61551819e-11 6.10877372e-13 9.99901562e-104 6.96705236e-105 1.65834298e-11
2.75422870e-02 1.68258356e-11 1.61261503e-11 6.99685329e-13 4.78001500e-91 3.61152259e-92 1.65834298e-11
3.16227766e-02 1.68715956e-11 1.60977437e-11 7.73851888e-13 4.92461903e-80 3.87833336e-81 1.65834298e-11
3.63078055e-02 1.68875888e-11 1.60754979e-11 8.12090922e-13 1.79046847e-70 1.45450480e-71 1.65834298e-11
4.16869383e-02 1.69805719e-11 1.60562818e-11 9.24290115e-13 3.56478272e-62 3.20727751e-63 1.65834298e-11
4.78630092e-02 1.69375694e-11 1.60034319e-11 9.34137469e-13 5.55448178e-55 5.17996043e-56 1.65834298e-11
5.49540874e-02 1.68253673e-11 1.59302232e-11 8.95144113e-13 9.40384177e-49 8.49817067e-50 1.65834298e-11
6.30957344e-02 1.65035674e-11 1.57481216e-11 7.55445763e-13 3.05246574e-43 2.58033829e-44 1.65834298e-11
7.24435960e-02 1.61274283e-11 1.55351113e-11 5.92316956e-13 1.76442877e-38 1.25786392e-39 1.65834298e-11
8.31763771e-02 1.61118586e-11 1.55539488e-11 5.57909835e-13 1.84491198e-34 1.28127615e-35 1.65834298e-11
9.54992586e-02 1.61827760e-11 1.56093298e-11 5.73446278e-13 5.31730470e-31 3.83944877e-32 1.65834298e-11
1.09647820e-01 1.57135484e-11 1.50603141e-11 6.53234228e-13 4.66033466e-28 3.83639552e-29 1.58370587e-11
1.25892541e-01 1.48701459e-11 1.41806601e-11 6.89485771e-13 1.55596794e-25 1.37770518e-26 1.47800032e-11
1.44543977e-01 1.39908190e-11 1.33282565e-11 6.62562487e-13 2.16166815e-23 1.92622665e-24 1.37935015e-11
1.65958691e-01 1.31665429e-11 1.24923085e-11 6.74234393e-13 1.11675091e-21 1.10131322e-22 1.28728446e-11
1.90546072e-01 1.22823196e-11 1.16351377e-11 6.47181877e-13 2.36546556e-20 2.53468886e-21 1.20136376e-11
2.18776162e-01 1.13196386e-11 1.07985612e-11 5.21077062e-13 2.78309699e-19 2.84572958e-20 1.12117790e-11
2.51188643e-01 1.07322878e-11 1.01538762e-11 5.78408086e-13 3.45838176e-18 4.36074773e-19 1.04634409e-11
2.88403150e-01 1.01026532e-11 9.52458349e-12 5.78040574e-13 2.91669950e-17 3.70811586e-18 9.76505125e-12
3.31131121e-01 9.46286463e-12 8.91733447e-12 5.45361163e-13 1.69000038e-16 2.15876750e-17 9.11327608e-12
3.80189396e-01 8.85906383e-12 8.34421006e-12 5.14145496e-13 7.08274144e-16 8.83954194e-17 8.50500410e-12
4.36515832e-01 8.27406404e-12 7.80656949e-12 4.65233205e-13 2.26134282e-15 2.83425423e-16 7.93733165e-12
5.01187234e-01 7.73151188e-12 7.30265471e-12 4.23125215e-13 5.73195850e-15 7.35694940e-16 7.40754890e-12
5.75439937e-01 7.22160018e-12 6.82985922e-12 3.79439324e-13 1.23016329e-14 1.70842711e-15 6.91312687e-12
6.60693448e-01 6.74690185e-12 6.38618447e-12 3.36366657e-13 2.43507234e-14 4.08889337e-15 6.45170538e-12
7.58577575e-01 6.31531785e-12 5.97015664e-12 2.95322725e-13 4.98384879e-14 1.07102881e-14 6.02108180e-12
8.70963590e-01 5.94373716e-12 5.58049893e-12 2.53327237e-13 1.09910999e-13 2.82090728e-14 5.61920048e-12
1.00000000e+00 5.67776022e-12 5.21520892e-12 2.13905877e-13 2.48645428e-13 6.72267843e-14 5.24414302e-12
1.14815362e+00 5.59510583e-12 4.87287362e-12 1.71147011e-13 5.51085199e-13 1.44465706e-13 4.89411902e-12
1.31825674e+00 5.82676912e-12 4.55213027e-12 1.34629933e-13 1.14000892e-12 2.66713186e-13 4.56745763e-12
1.51356125e+00 6.50161471e-12 4.25165438e-12 1.06278784e-13 2.14368155e-12 4.33670523e-13 4.26259947e-12
1.73780083e+00 7.66542741e-12 3.97040119e-12 8.38008772e-14 3.61122535e-12 6.11041265e-13 3.97808929e-12
1.99526231e+00 9.33174039e-12 3.70725369e-12 6.51448078e-14 5.55934189e-12 7.67137674e-13 3.71256894e-12
2.29086765e+00 1.12599791e-11 3.46110781e-12 5.02351499e-14 7.74863612e-12 8.51316101e-13 3.46477093e-12
2.63026799e+00 1.31902166e-11 3.23096433e-12 3.83043301e-14 9.92094791e-12 8.63027321e-13 3.23351237e-12
3.01995172e+00 1.52189476e-11 3.01589418e-12 2.86582097e-14 1.21743952e-11 8.27631735e-13 3.01768933e-12
3.46736850e+00 1.68071983e-11 2.81498623e-12 2.07787090e-14 1.39714333e-11 7.30480181e-13 2.81627154e-12
3.98107171e+00 1.81784218e-11 2.62736551e-12 1.46594626e-14 1.55363968e-11 6.06676123e-13 2.62829753e-12
4.57088190e+00 1.90294868e-11 2.45218492e-12 9.90032619e-15 1.65674016e-11 4.64489928e-13 2.45286997e-12
5.24807460e+00 1.92912684e-11 2.02769246e-12 5.75924295e-15 1.72578167e-11 3.25368366e-13 2.02814751e-12
6.02559586e+00 1.88843377e-11 1.33973393e-12 2.53142994e-15 1.75420723e-11 2.12838347e-13 1.33998377e-12
6.70000000e+00 1.83705150e-11 9.74548486e-13 1.30243473e-15 1.73946640e-11 1.45422232e-13 9.74709347e-13
6.92422916e+00 1.81326375e-11 8.82909263e-13 1.05133561e-15 1.72486769e-11 1.27842437e-13 8.83049889e-13
7.15596261e+00 1.80614372e-11 7.99884702e-13 8.31069015e-16 1.72607215e-11 1.10998610e-13 8.00009879e-13
7.39545150e+00 1.80050310e-11 7.24662650e-13 6.34402374e-16 1.72797339e-11 9.43192006e-14 7.24778763e-13
7.64295536e+00 1.83761990e-11 6.56502357e-13 4.39071623e-16 1.77192576e-11 7.70395858e-14 6.56622211e-13
7.89874245e+00 1.92023025e-11 5.94734658e-13 2.65054026e-16 1.86073028e-11 5.86568612e-14 5.94874946e-13
8.16308998e+00 2.00563982e-11 5.38762647e-13 1.50880823e-16 1.95174847e-11 4.29136935e-14 5.38934254e-13
8.43628443e+00 2.09343633e-11 4.88038115e-13 7.73742852e-17 2.04462478e-11 2.98420550e-14 4.88254098e-13
8.71862190e+00 2.12548091e-11 4.42099371e-13 4.65183120e-17 2.08126632e-11 2.21176101e-14 4.42339790e-13
9.01040836e+00 2.16138065e-11 4.00479315e-13 2.53555698e-17 2.12133018e-11 1.61576348e-14 4.00743158e-13
9.31196005e+00 2.17882851e-11 3.62780957e-13 0.00000000e+00 2.14255042e-11 0.00000000e+00 3.63058180e-13
9.62360379e+00 2.17849628e-11 3.28659244e-13 0.00000000e+00 2.14563035e-11 0.00000000e+00 3.28917012e-13
9.94567731e+00 2.13057599e-11 2.97767276e-13 0.00000000e+00 2.10079926e-11 0.00000000e+00 2.97986401e-13
1.02785297e+01 2.09793107e-11 2.69784838e-13 0.00000000e+00 2.07095259e-11 0.00000000e+00 2.69964435e-13
1.06225216e+01 2.05267405e-11 2.44431970e-13 0.00000000e+00 2.02823085e-11 0.00000000e+00 2.44577592e-13
1.09780260e+01 2.01241823e-11 2.21464252e-13 0.00000000e+00 1.99027181e-11 0.00000000e+00 2.21578069e-13
1.13454280e+01 1.97670465e-11 2.00652056e-13 0.00000000e+00 1.95663944e-11 0.00000000e+00 2.00741370e-13
1.17251259e+01 1.94402311e-11 1.81793570e-13 0.00000000e+00 1.92584376e-11 0.00000000e+00 1.81864106e-13
1.21175312e+01 1.90191560e-11 1.64706597e-13 0.00000000e+00 1.88544494e-11 0.00000000e+00 1.64762018e-13
1.25230691e+01 1.85191663e-11 1.49224745e-13 0.00000000e+00 1.83699416e-11 0.00000000e+00 1.49268171e-13
1.29421791e+01 1.79549147e-11 1.35197066e-13 0.00000000e+00 1.78197176e-11 0.00000000e+00 1.35231331e-13
1.33753155e+01 1.74029775e-11 1.22487253e-13 0.00000000e+00 1.72804903e-11 0.00000000e+00 1.22514483e-13
1.38229477e+01 1.69419824e-11 1.10970861e-13 0.00000000e+00 1.68310115e-11 0.00000000e+00 1.10993499e-13
1.42855609e+01 1.66701640e-11 1.00536247e-13 0.00000000e+00 1.65696277e-11 0.00000000e+00 1.00555922e-13
1.47636563e+01 1.68122403e-11 9.10811977e-14 0.00000000e+00 1.67211591e-11 0.00000000e+00 9.10998706e-14
1.52577522e+01 1.70595431e-11 8.25150031e-14 0.00000000e+00 1.69770281e-11 0.00000000e+00 8.25330452e-14
1.57683840e+01 1.73846108e-11 7.47541683e-14 0.00000000e+00 1.73098567e-11 0.00000000e+00 7.47718247e-14
1.62961051e+01 1.75719376e-11 6.77231937e-14 0.00000000e+00 1.75042144e-11 0.00000000e+00 6.77404517e-14
1.68414875e+01 1.77867912e-11 6.13534623e-14 0.00000000e+00 1.77254377e-11 0.00000000e+00 6.13702932e-14
1.74051222e+01 1.79233447e-11 5.55831869e-14 0.00000000e+00 1.78677615e-11 0.00000000e+00 5.55991699e-14
1.79876201e+01 1.79321157e-11 5.03558269e-14 0.00000000e+00 1.78817599e-11 0.00000000e+00 5.03707500e-14
1.85896125e+01 1.77775244e-11 4.56204964e-14 0.00000000e+00 1.77319039e-11 0.00000000e+00 4.56339988e-14
1.92117518e+01 1.74667224e-11 4.13308209e-14 0.00000000e+00 1.74253915e-11 0.00000000e+00 4.13426810e-14
1.98547123e+01 1.70846295e-11 3.74446947e-14 0.00000000e+00 1.70471848e-11 0.00000000e+00 3.74549090e-14
2.05191907e+01 1.65961231e-11 3.39240261e-14 0.00000000e+00 1.65621990e-11 0.00000000e+00 3.39327342e-14
2.12059073e+01 1.60188727e-11 3.07343539e-14 0.00000000e+00 1.59881383e-11 0.00000000e+00 3.07417768e-14
2.19156062e+01 1.55498916e-11 2.78445316e-14 0.00000000e+00 1.55220471e-11 0.00000000e+00 2.78508898e-14
2.26490567e+01 1.49845095e-11 2.52264003e-14 0.00000000e+00 1.49592831e-11 0.00000000e+00 2.52318552e-14
2.34070535e+01 1.44551866e-11 2.28544201e-14 0.00000000e+00 1.44323322e-11 0.00000000e+00 2.28591087e-14
2.41904183e+01 1.38411883e-11 2.07054498e-14 0.00000000e+00 1.38204828e-11 0.00000000e+00 2.07094900e-14
2.50000000e+01 1.33046836e-11 1.87585276e-14 0.00000000e+00 1.32859250e-11 0.00000000e+00 1.87620165e-14
2.75422870e+01 1.15000940e-11 1.40290773e-14 0.00000000e+00 1.14860650e-11 0.00000000e+00 1.40313526e-14
3.16227766e+01 9.04382284e-12 9.26917264e-15 0.00000000e+00 9.03455367e-12 0.00000000e+00 9.27042274e-15
3.63078055e+01 6.69591051e-12 6.12422435e-15 0.00000000e+00 6.68978628e-12 0.00000000e+00 6.12490756e-15
4.16869383e+01 4.61656968e-12 4.04632279e-15 0.00000000e+00 4.61252336e-12 0.00000000e+00 4.04668630e-15
4.78630092e+01 2.98414556e-12 2.67343172e-15 0.00000000e+00 2.98147213e-12 0.00000000e+00 2.67361912e-15
5.49540874e+01 1.82621067e-12 1.76634808e-15 0.00000000e+00 1.82444432e-12 0.00000000e+00 1.76644264e-15
6.30957344e+01 1.06953437e-12 1.16702997e-15 0.00000000e+00 1.06836734e-12 0.00000000e+00 1.16707708e-15
7.24435960e+01 6.06121584e-13 7.71056882e-16 0.00000000e+00 6.05350527e-13 0.00000000e+00 7.71080178e-16
8.31763771e+01 3.35082141e-13 5.09436118e-16 0.00000000e+00 3.34572705e-13 0.00000000e+00 5.09447621e-16
9.54992586e+01 1.82224911e-13 3.36583012e-16 0.00000000e+00 1.81888328e-13 0.00000000e+00 3.36588705e-16
1.09647820e+02 9.79572684e-14 2.22379124e-16 0.00000000e+00 9.77348893e-14 0.00000000e+00 2.22381952e-16
1.25892541e+02 5.28544580e-14 1.46924873e-16 0.00000000e+00 5.27075331e-14 0.00000000e+00 1.46926299e-16
1.44543977e+02 2.84458635e-14 9.70725191e-17 0.00000000e+00 2.83487910e-14 0.00000000e+00 9.70732430e-17
1.65958691e+02 1.46235726e-14 6.41353007e-17 0.00000000e+00 1.45594373e-14 0.00000000e+00 6.41356556e-17
1.90546072e+02 7.54433552e-15 4.23738317e-17 0.00000000e+00 7.50196169e-15 0.00000000e+00 4.23740075e-17
2.18776162e+02 3.89474168e-15 2.79961415e-17 0.00000000e+00 3.86674554e-15 0.00000000e+00 2.79962291e-17
2.51188643e+02 2.00840699e-15 1.84968814e-17 0.00000000e+00 1.98991011e-15 0.00000000e+00 1.84969251e-17
2.88403150e+02 1.03296404e-15 1.22207754e-17 0.00000000e+00 1.02074327e-15 0.00000000e+00 1.22207972e-17
3.31131121e+02 5.30923444e-16 8.07418970e-18 0.00000000e+00 5.22849254e-16 0.00000000e+00 8.07420067e-18
3.80189396e+02 2.72427670e-16 5.33456598e-18 0.00000000e+00 2.67093104e-16 0.00000000e+00 5.33457148e-18
4.36515832e+02 1.39750448e-16 3.52451366e-18 0.00000000e+00 1.36225935e-16 0.00000000e+00 3.52451642e-18
5.01187234e+02 7.16747045e-17 2.32862352e-18 0.00000000e+00 6.93460810e-17 0.00000000e+00 2.32862491e-18
5.75439937e+02 3.67844072e-17 1.53850652e-18 0.00000000e+00 3.52459007e-17 0.00000000e+00 1.53850722e-18
6.60693448e+02 1.89062713e-17 1.01648129e-18 0.00000000e+00 1.78897900e-17 0.00000000e+00 1.01648164e-18
7.58577575e+02 9.74112168e-18 6.71582584e-19 0.00000000e+00 9.06953910e-18 0.00000000e+00 6.71582760e-19
8.70963590e+02 5.03577562e-18 4.43710241e-19 0.00000000e+00 4.59206538e-18 0.00000000e+00 4.43710329e-19
1.00000000e+03 2.32214561e-18 0.00000000e+00 0.00000000e+00 2.32214561e-18 0.00000000e+00 0.00000000e+00
