# column 1: lambda (micron)
# column 2: total flux; lambda*F_lambda (W/m2)
# column 3: direct stellar flux; lambda*F_lambda (W/m2)
# column 4: scattered stellar flux; lambda*F_lambda (W/m2)
# column 5: total dust emission flux; lambda*F_lambda (W/m2)
# column 6: dust emission scattered flux; lambda*F_lambda (W/m2)
# column 7: transparent flux; lambda*F_lambda (W/m2)
1.00000000e-03 9.68077812e-13 9.68073281e-13 4.53085646e-18 0.00000000e+00 0.00000000e+00 9.68073281e-13
1.14815362e-03 1.14264363e-12 1.14263687e-12 6.76173295e-18 0.00000000e+00 0.00000000e+00 1.14263687e-12
1.31825674e-03 1.34868828e-12 1.34867788e-12 1.04050150e-17 0.00000000e+00 0.00000000e+00 1.34867788e-12
1.51356125e-03 1.59188776e-12 1.59187233e-12 1.54259831e-17 0.00000000e+00 0.00000000e+00 1.59187233e-12
1.73780083e-03 1.87894767e-12 1.87891976e-12 2.79112405e-17 0.00000000e+00 0.00000000e+00 1.87891976e-12
1.99526231e-03 2.21777613e-12 2.21772777e-12 4.83679516e-17 0.00000000e+00 0.00000000e+00 2.21772777e-12
2.29086765e-03 2.61770520e-12 2.61762985e-12 7.53520267e-17 0.00000000e+00 0.00000000e+00 2.61762985e-12
2.63026799e-03 3.08978803e-12 3.08964252e-12 1.45511175e-16 0.00000000e+00 0.00000000e+00 3.08964252e-12
3.01995172e-03 3.64700848e-12 3.64676883e-12 2.39655985e-16 0.00000000e+00 0.00000000e+00 3.64676883e-12
3.46736850e-03 4.30474206e-12 4.30435650e-12 3.85562259e-16 0.00000000e+00 0.00000000e+00 4.30435650e-12
3.98107171e-03 5.08111231e-12 5.08052080e-12 5.91513046e-16 0.00000000e+00 0.00000000e+00 5.08052080e-12
4.57088190e-03 5.99811432e-12 5.99664354e-12 1.47077609e-15 0.00000000e+00 0.00000000e+00 5.99664354e-12
5.24807460e-03 7.08051157e-12 7.07796211e-12 2.54945816e-15 0.00000000e+00 0.00000000e+00 7.07796211e-12
6.02559586e-03 8.35869204e-12 8.35426474e-12 4.42729584e-15 0.00000000e+00 0.00000000e+00 8.35426474e-12
6.91830971e-03 9.86829761e-12 9.86071107e-12 7.58654307e-15 0.00000000e+00 0.00000000e+00 9.86071107e-12
7.94328235e-03 1.16570784e-11 1.16388008e-11 1.82776295e-14 0.00000000e+00 0.00000000e+00 1.16388008e-11
9.12010839e-03 1.37559752e-11 1.37375167e-11 1.84585093e-14 0.00000000e+00 0.00000000e+00 1.37375167e-11
1.04712855e-02 1.53669387e-11 1.53429287e-11 2.40099956e-14 0.00000000e+00 0.00000000e+00 1.53429287e-11
1.20226443e-02 1.53799775e-11 1.53429287e-11 3.70487946e-14 0.00000000e+00 0.00000000e+00 1.53429287e-11
1.38038426e-02 1.53961594e-11 1.53429287e-11 5.32307522e-14 1.87239493e-291 1.03416946e-292 1.53429287e-11
1.58489319e-02 1.54131072e-11 1.53429287e-11 7.01785169e-14 2.25919590e-254 1.66061794e-255 1.53429287e-11
1.81970086e-02 1.54504778e-11 1.53429287e-11 1.07549146e-13 4.18936310e-222 2.86359484e-223 1.53429287e-11
2.08929613e-02 1.54777617e-11 1.53429287e-11 1.34833033e-13 4.86704965e-194 3.58545867e-195 1.53429287e-11
2.39883292e-02 1.55217450e-11 1.53429287e-11 1.78816384e-13 1.34027097e-169 1.13673340e-170 1.53429287e-11
2.75422870e-02 1.55642500e-11 1.53429287e-11 2.21321324e-13 2.51785292e-148 2.12117740e-149 1.53429287e-11
3.16227766e-02 1.55919464e-11 1.53429287e-11 2.49017784e-13 8.23673258e-130 8.15556496e-131 1.53429287e-11
3.63078055e-02 1.56173215e-11 1.53429287e-11 2.74392853e-13 1.03769874e-113 1.08516099e-114 1.53429287e-11
4.16869383e-02 1.56990463e-11 1.53429287e-11 3.56117615e-13 1.06314977e-99 1.34747365e-100 1.53429287e-11
4.78630092e-02 1.57555509e-11 1.53429287e-11 4.12622265e-13 1.57661959e-87 2.30465314e-88 1.53429287e-11
5.49540874e-02 1.57825211e-11 1.53429287e-11 4.39592419e-13 5.87847399e-77 9.72145408e-78 1.53429287e-11
6.30957344e-02 1.57677870e-11 1.53429287e-11 4.24858312e-13 1.14467288e-67 2.05249529e-68 1.53429287e-11
7.24435960e-02 1.56916237e-11 1.53429287e-11 3.48695041e-13 1.27136050e-59 2.19867759e-60 1.53429287e-11
8.31763771e-02 1.56838452e-11 1.53429287e-11 3.40916565e-13 9.99119434e-53 1.72976017e-53 1.53429287e-11
9.54992586e-02 1.56974283e-11 1.53429287e-11 3.54499677e-13 9.33686794e-47 1.64758053e-47 1.53429287e-11
1.09647820e-01 1.50481749e-11 1.46523889e-11 3.95786038e-13 1.29869187e-41 2.47018448e-42 1.46523889e-11
1.25892541e-01 1.40844134e-11 1.36744049e-11 4.10008468e-13 3.57504279e-37 6.72823937e-38 1.36744049e-11
1.44543977e-01 1.31499742e-11 1.27616972e-11 3.88276950e-13 2.33171860e-33 4.27150114e-34 1.27616972e-11
1.65958691e-01 1.23176010e-11 1.19099088e-11 4.07692177e-13 3.50042370e-30 6.96227480e-31 1.19099088e-11
1.90546072e-01 1.15432867e-11 1.11149736e-11 4.28313097e-13 1.40573862e-27 3.20597882e-28 1.11149736e-11
2.18776162e-01 1.07443364e-11 1.03730969e-11 3.71239424e-13 2.13104636e-25 5.08832223e-26 1.03730969e-11
2.51188643e-01 1.01279723e-11 9.68073733e-12 4.47234944e-13 2.69607780e-23 7.61871577e-24 9.68073733e-12
2.88403150e-01 9.47138556e-12 9.03458975e-12 4.36795807e-13 1.74159865e-21 4.97615584e-22 9.03458975e-12
3.31131121e-01 8.84483439e-12 8.43156974e-12 4.13264586e-13 6.16663663e-20 1.78279584e-20 8.43156974e-12
3.80189396e-01 8.25834547e-12 7.86879872e-12 3.89545430e-13 1.31642486e-18 3.87242180e-19 7.86879872e-12
4.36515832e-01 7.70973845e-12 7.34359025e-12 3.66129864e-13 1.83329432e-17 5.55253564e-18 7.34359025e-12
5.01187234e-01 7.19168271e-12 6.85343719e-12 3.38069030e-13 1.76492224e-16 5.51877759e-17 6.85343719e-12
5.75439937e-01 6.71637204e-12 6.39599973e-12 3.19150497e-13 1.22181930e-15 3.89538011e-16 6.39599973e-12
6.60693448e-01 6.27090563e-12 5.96909425e-12 2.95415584e-13 6.39579441e-15 2.05672757e-15 5.96909425e-12
7.58577575e-01 5.86533385e-12 5.57068288e-12 2.68276424e-13 2.63745403e-14 8.43302087e-15 5.57068288e-12
8.70963590e-01 5.52408377e-12 5.19886376e-12 2.36887237e-13 8.83327744e-14 2.75562880e-14 5.19886376e-12
1.00000000e+00 5.30030850e-12 4.85186196e-12 2.03020077e-13 2.45426459e-13 7.26772647e-14 4.85186196e-12
1.14815362e+00 5.28670012e-12 4.52802104e-12 1.66119257e-13 5.92559823e-13 1.61439463e-13 4.52802104e-12
1.31825674e+00 5.60605631e-12 4.22579511e-12 1.32767114e-13 1.24749408e-12 2.98478968e-13 4.22579511e-12
1.51356125e+00 6.38157170e-12 3.94374146e-12 1.02469515e-13 2.33536072e-12 4.82290032e-13 3.94374146e-12
1.73780083e+00 7.62388042e-12 3.68051368e-12 7.97380057e-14 3.86362873e-12 6.74591335e-13 3.68051368e-12
1.99526231e+00 9.14044850e-12 3.43485522e-12 5.92940295e-14 5.64629924e-12 7.93228179e-13 3.43485522e-12
2.29086765e+00 1.08224272e-11 3.20559341e-12 4.44664049e-14 7.57236735e-12 8.38253788e-13 3.20559341e-12
2.63026799e+00 1.22874848e-11 2.99163384e-12 3.23969220e-14 9.26345403e-12 7.96912651e-13 2.99163384e-12
3.01995172e+00 1.34318918e-11 2.79195514e-12 2.35862852e-14 1.06163504e-11 6.98881906e-13 2.79195514e-12
3.46736850e+00 1.41790958e-11 2.60560415e-12 1.69052681e-14 1.15565863e-11 5.79285045e-13 2.60560415e-12
3.98107171e+00 1.45671611e-11 2.43169128e-12 1.21776580e-14 1.21232922e-11 4.53667763e-13 2.43169128e-12
4.57088190e+00 1.44951814e-11 2.26938634e-12 8.40104245e-15 1.22173940e-11 3.34118710e-13 2.26938634e-12
5.24807460e+00 1.39435376e-11 1.87643467e-12 4.90782795e-15 1.20621951e-11 2.27259924e-13 1.87643467e-12
6.02559586e+00 1.29172211e-11 1.23974809e-12 2.23142265e-15 1.16752416e-11 1.47115196e-13 1.23974809e-12
6.70000000e+00 1.21605250e-11 9.01797527e-13 1.17290567e-15 1.12575546e-11 1.00448640e-13 9.01797527e-13
6.92422916e+00 1.19728773e-11 8.16994532e-13 9.58397955e-16 1.11549243e-11 8.80414057e-14 8.16994532e-13
7.15596261e+00 1.17883016e-11 7.40166218e-13 7.59490309e-16 1.10473759e-11 7.62935024e-14 7.40166218e-13
7.39545150e+00 1.17386115e-11 6.70562664e-13 5.80858605e-16 1.10674680e-11 6.50127060e-14 6.70562664e-13
7.64295536e+00 1.20456218e-11 6.07504471e-13 3.94574952e-16 1.14377228e-11 5.23037524e-14 6.07504471e-13
7.89874245e+00 1.27429528e-11 5.50376127e-13 2.34868128e-16 1.21923418e-11 3.93989875e-14 5.50376127e-13
8.16308998e+00 1.36911660e-11 4.98620004e-13 1.28969092e-16 1.31924170e-11 2.88818277e-14 4.98620004e-13
8.43628443e+00 1.45832649e-11 4.51730909e-13 6.83006939e-17 1.41314657e-11 2.01539324e-14 4.51730909e-13
8.71862190e+00 1.49690360e-11 4.09251158e-13 4.28009900e-17 1.45597421e-11 1.52916387e-14 4.09251158e-13
9.01040836e+00 1.54852024e-11 3.70766106e-13 2.77624923e-17 1.51144085e-11 1.17041753e-14 3.70766106e-13
9.31196005e+00 1.55791382e-11 3.35900102e-13 0.00000000e+00 1.52432380e-11 0.00000000e+00 3.35900102e-13
9.62360379e+00 1.54933276e-11 3.04312818e-13 0.00000000e+00 1.51890148e-11 0.00000000e+00 3.04312818e-13
9.94567731e+00 1.49179539e-11 2.75695930e-13 0.00000000e+00 1.46422580e-11 0.00000000e+00 2.75695930e-13
1.02785297e+01 1.43097121e-11 2.49770110e-13 0.00000000e+00 1.40599420e-11 0.00000000e+00 2.49770110e-13
1.06225216e+01 1.37589326e-11 2.26282295e-13 0.00000000e+00 1.35326503e-11 0.00000000e+00 2.26282295e-13
1.09780260e+01 1.32725039e-11 2.05003220e-13 0.00000000e+00 1.30675007e-11 0.00000000e+00 2.05003220e-13
1.13454280e+01 1.28285492e-11 1.85725182e-13 0.00000000e+00 1.26428241e-11 0.00000000e+00 1.85725182e-13
1.17251259e+01 1.23232893e-11 1.68260007e-13 0.00000000e+00 1.21550293e-11 0.00000000e+00 1.68260007e-13
1.21175312e+01 1.18266095e-11 1.52437217e-13 0.00000000e+00 1.16741723e-11 0.00000000e+00 1.52437217e-13
1.25230691e+01 1.14904587e-11 1.38102367e-13 0.00000000e+00 1.13523563e-11 0.00000000e+00 1.38102367e-13
1.29421791e+01 1.11044585e-11 1.25115533e-13 0.00000000e+00 1.09793429e-11 0.00000000e+00 1.25115533e-13
1.33753155e+01 1.07198511e-11 1.13349952e-13 0.00000000e+00 1.06065012e-11 0.00000000e+00 1.13349952e-13
1.38229477e+01 1.04564220e-11 1.02690779e-13 0.00000000e+00 1.03537312e-11 0.00000000e+00 1.02690779e-13
1.42855609e+01 1.03503168e-11 9.30339713e-14 0.00000000e+00 1.02572828e-11 0.00000000e+00 9.30339713e-14
1.47636563e+01 1.05069715e-11 8.42852675e-14 0.00000000e+00 1.04226863e-11 0.00000000e+00 8.42852675e-14
1.52577522e+01 1.07212925e-11 7.63592720e-14 0.00000000e+00 1.06449332e-11 0.00000000e+00 7.63592720e-14
1.57683840e+01 1.08741418e-11 6.91786191e-14 0.00000000e+00 1.08049632e-11 0.00000000e+00 6.91786191e-14
1.62961051e+01 1.11483835e-11 6.26732185e-14 0.00000000e+00 1.10857102e-11 0.00000000e+00 6.26732185e-14
1.68414875e+01 1.14210555e-11 5.67795711e-14 0.00000000e+00 1.13642760e-11 0.00000000e+00 5.67795711e-14
1.74051222e+01 1.15491722e-11 5.14401489e-14 0.00000000e+00 1.14977320e-11 0.00000000e+00 5.14401489e-14
1.79876201e+01 1.16253211e-11 4.66028339e-14 0.00000000e+00 1.15787183e-11 0.00000000e+00 4.66028339e-14
1.85896125e+01 1.16884971e-11 4.22204090e-14 0.00000000e+00 1.16462767e-11 0.00000000e+00 4.22204090e-14
1.92117518e+01 1.16549086e-11 3.82500974e-14 0.00000000e+00 1.16166585e-11 0.00000000e+00 3.82500974e-14
1.98547123e+01 1.15875167e-11 3.46531450e-14 0.00000000e+00 1.15528636e-11 0.00000000e+00 3.46531450e-14
2.05191907e+01 1.14035129e-11 3.13944418e-14 0.00000000e+00 1.13721185e-11 0.00000000e+00 3.13944418e-14
2.12059073e+01 1.11997831e-11 2.84421796e-14 0.00000000e+00 1.11713409e-11 0.00000000e+00 2.84421796e-14
2.19156062e+01 1.10944074e-11 2.57675415e-14 0.00000000e+00 1.10686399e-11 0.00000000e+00 2.57675415e-14
2.26490567e+01 1.09197463e-11 2.33444203e-14 0.00000000e+00 1.08964019e-11 0.00000000e+00 2.33444203e-14
2.34070535e+01 1.06826643e-11 2.11491639e-14 0.00000000e+00 1.06615152e-11 0.00000000e+00 2.11491639e-14
2.41904183e+01 1.04757998e-11 1.91603445e-14 0.00000000e+00 1.04566394e-11 0.00000000e+00 1.91603445e-14
2.50000000e+01 1.02421100e-11 1.73585491e-14 0.00000000e+00 1.02247514e-11 0.00000000e+00 1.73585491e-14
2.75422870e+01 9.43243652e-12 1.29817562e-14 0.00000000e+00 9.41945476e-12 0.00000000e+00 1.29817562e-14
3.16227766e+01 8.06039483e-12 8.57696126e-15 0.00000000e+00 8.05181787e-12 0.00000000e+00 8.57696126e-15
3.63078055e+01 6.48772581e-12 5.66674211e-15 0.00000000e+00 6.48205907e-12 0.00000000e+00 5.66674211e-15
4.16869383e+01 4.83307439e-12 3.74397938e-15 0.00000000e+00 4.82933041e-12 0.00000000e+00 3.74397938e-15
4.78630092e+01 3.35989385e-12 2.47362265e-15 0.00000000e+00 3.35742023e-12 0.00000000e+00 2.47362265e-15
5.49540874e+01 2.19182290e-12 1.63430628e-15 0.00000000e+00 2.19018859e-12 0.00000000e+00 1.63430628e-15
6.30957344e+01 1.35970898e-12 1.07977545e-15 0.00000000e+00 1.35862921e-12 0.00000000e+00 1.07977545e-15
7.24435960e+01 8.10085985e-13 7.13400564e-16 0.00000000e+00 8.09372585e-13 0.00000000e+00 7.13400564e-16
8.31763771e+01 4.67635860e-13 4.71339078e-16 0.00000000e+00 4.67164521e-13 0.00000000e+00 4.71339078e-16
9.54992586e+01 2.64086875e-13 3.11410641e-16 0.00000000e+00 2.63775464e-13 0.00000000e+00 3.11410641e-16
1.09647820e+02 1.46558141e-13 2.05746970e-16 0.00000000e+00 1.46352394e-13 0.00000000e+00 2.05746970e-16
1.25892541e+02 8.11841796e-14 1.35935675e-16 0.00000000e+00 8.10482439e-14 0.00000000e+00 1.35935675e-16
1.44543977e+02 4.46592609e-14 8.98118099e-17 0.00000000e+00 4.45694491e-14 0.00000000e+00 8.98118099e-17
1.65958691e+02 2.34212433e-14 5.93380743e-17 0.00000000e+00 2.33619052e-14 0.00000000e+00 5.93380743e-17
1.90546072e+02 1.22840748e-14 3.92042769e-17 0.00000000e+00 1.22448705e-14 0.00000000e+00 3.92042769e-17
2.18776162e+02 6.43013398e-15 2.59020089e-17 0.00000000e+00 6.40423197e-15 0.00000000e+00 2.59020089e-17
2.51188643e+02 3.35389427e-15 1.71132876e-17 0.00000000e+00 3.33678099e-15 0.00000000e+00 1.71132876e-17
2.88403150e+02 1.74127113e-15 1.13066370e-17 0.00000000e+00 1.72996450e-15 0.00000000e+00 1.13066370e-17
3.31131121e+02 9.01675250e-16 7.47022097e-18 0.00000000e+00 8.94205029e-16 0.00000000e+00 7.47022097e-18
3.80189396e+02 4.65288186e-16 4.93552605e-18 0.00000000e+00 4.60352660e-16 0.00000000e+00 4.93552605e-18
4.36515832e+02 2.39635324e-16 3.26086972e-18 0.00000000e+00 2.36374454e-16 0.00000000e+00 3.26086972e-18
5.01187234e+02 1.23175404e-16 2.15443526e-18 0.00000000e+00 1.21020968e-16 0.00000000e+00 2.15443526e-18
5.75439937e+02 6.32381163e-17 1.42342126e-18 0.00000000e+00 6.18146951e-17 0.00000000e+00 1.42342126e-18
6.60693448e+02 3.24498285e-17 9.40445101e-19 0.00000000e+00 3.15093834e-17 0.00000000e+00 9.40445101e-19
7.58577575e+02 1.66545398e-17 6.21345916e-19 0.00000000e+00 1.60331939e-17 0.00000000e+00 6.21345916e-19
8.70963590e+02 8.55422105e-18 4.10519176e-19 0.00000000e+00 8.14370188e-18 0.00000000e+00 4.10519176e-19
1.00000000e+03 4.12947658e-18 0.00000000e+00 0.00000000e+00 4.12947658e-18 0.00000000e+00 0.00000000e+00
