# column 1: lambda (micron)
# column 2: total flux; lambda*F_lambda (W/m2)
# column 3: direct stellar flux; lambda*F_lambda (W/m2)
# column 4: scattered stellar flux; lambda*F_lambda (W/m2)
# column 5: total dust emission flux; lambda*F_lambda (W/m2)
# column 6: dust emission scattered flux; lambda*F_lambda (W/m2)
# column 7: transparent flux; lambda*F_lambda (W/m2)
1.00000000e-03 1.04634382e-12 1.04634360e-12 2.12530064e-19 0.00000000e+00 0.00000000e+00 1.04634360e-12
1.14815362e-03 1.23502129e-12 1.23502095e-12 3.41707178e-19 0.00000000e+00 0.00000000e+00 1.23502095e-12
1.31825674e-03 1.45772127e-12 1.45772071e-12 5.63603475e-19 0.00000000e+00 0.00000000e+00 1.45772071e-12
1.51356125e-03 1.72057870e-12 1.72057784e-12 8.66363894e-19 0.00000000e+00 0.00000000e+00 1.72057784e-12
1.73780083e-03 2.03083505e-12 2.03083353e-12 1.52744276e-18 0.00000000e+00 0.00000000e+00 2.03083353e-12
1.99526231e-03 2.39703763e-12 2.39703472e-12 2.91636881e-18 0.00000000e+00 0.00000000e+00 2.39703472e-12
2.29086765e-03 2.82927399e-12 2.82926954e-12 4.45025185e-18 0.00000000e+00 0.00000000e+00 2.82926954e-12
2.63026799e-03 3.33945431e-12 3.33944522e-12 9.09138660e-18 0.00000000e+00 0.00000000e+00 3.33944522e-12
3.01995172e-03 3.94163101e-12 3.94161611e-12 1.48970008e-17 0.00000000e+00 0.00000000e+00 3.94161611e-12
3.46736850e-03 4.65239679e-12 4.65237083e-12 2.59626187e-17 0.00000000e+00 0.00000000e+00 4.65237083e-12
3.98107171e-03 5.49133084e-12 5.49128930e-12 4.15394328e-17 0.00000000e+00 0.00000000e+00 5.49128930e-12
4.57088190e-03 6.48157146e-12 6.48148207e-12 8.93889879e-17 0.00000000e+00 0.00000000e+00 6.48148207e-12
5.24807460e-03 7.65039103e-12 7.65022704e-12 1.63986203e-16 0.00000000e+00 0.00000000e+00 7.65022704e-12
6.02559586e-03 9.03001826e-12 9.02972084e-12 2.97412124e-16 0.00000000e+00 0.00000000e+00 9.02972084e-12
6.91830971e-03 1.06584311e-11 1.06579658e-11 4.65216933e-16 0.00000000e+00 0.00000000e+00 1.06579658e-11
7.94328235e-03 1.25806441e-11 1.25798170e-11 8.27071557e-16 1.40445132e-303 3.75831027e-306 1.25798170e-11
9.12010839e-03 1.48494645e-11 1.48482176e-11 1.24683754e-15 6.22063699e-265 8.30172286e-268 1.48482176e-11
1.04712855e-02 1.65851925e-11 1.65834298e-11 1.76268310e-15 2.65764716e-231 5.54032407e-234 1.65834298e-11
1.20226443e-02 1.65859899e-11 1.65834298e-11 2.56014603e-15 4.20258609e-202 1.37540823e-204 1.65834298e-11
1.38038426e-02 1.65870052e-11 1.65834298e-11 3.57537645e-15 1.15410053e-176 4.69645256e-179 1.65834298e-11
1.58489319e-02 1.65889053e-11 1.65834298e-11 5.47550437e-15 1.57284716e-154 8.94177816e-157 1.65834298e-11
1.81970086e-02 1.65911677e-11 1.65834298e-11 7.73796320e-15 2.82194399e-135 1.86320631e-137 1.65834298e-11
2.08929613e-02 1.65930134e-11 1.65834298e-11 9.58363505e-15 1.48465768e-118 1.47783084e-120 1.65834298e-11
2.39883292e-02 1.65971345e-11 1.65834298e-11 1.37046921e-14 5.23281662e-104 6.17455742e-106 1.65834298e-11
2.75422870e-02 1.66026846e-11 1.65834298e-11 1.92548412e-14 2.35572372e-91 3.71407260e-93 1.65834298e-11
3.16227766e-02 1.66077419e-11 1.65834298e-11 2.43120929e-14 2.30751837e-80 4.44464755e-82 1.65834298e-11
3.63078055e-02 1.66113277e-11 1.65834298e-11 2.78979341e-14 8.03518856e-71 1.81285664e-72 1.65834298e-11
4.16869383e-02 1.66229098e-11 1.65834298e-11 3.94799914e-14 1.53866133e-62 4.85761550e-64 1.65834298e-11
4.78630092e-02 1.66398614e-11 1.65834298e-11 5.64315881e-14 2.34222898e-55 9.94522061e-57 1.65834298e-11
5.49540874e-02 1.66588171e-11 1.65834298e-11 7.53872712e-14 3.92757660e-49 2.13410287e-50 1.65834298e-11
6.30957344e-02 1.66751952e-11 1.65834298e-11 9.17654523e-14 1.28152108e-43 8.65881424e-45 1.65834298e-11
7.24435960e-02 1.66796774e-11 1.65834298e-11 9.62475837e-14 7.44419859e-39 5.02643885e-40 1.65834298e-11
8.31763771e-02 1.66753201e-11 1.65834298e-11 9.18903565e-14 7.63082897e-35 5.12055607e-36 1.65834298e-11
9.54992586e-02 1.66825607e-11 1.65834298e-11 9.91309305e-14 2.15291529e-31 1.48625265e-32 1.65834298e-11
1.09647820e-01 1.59368072e-11 1.58370587e-11 9.97484682e-14 1.82797500e-28 1.32871727e-29 1.58370587e-11
1.25892541e-01 1.48657755e-11 1.47800032e-11 8.57723083e-14 5.89998079e-26 4.01062030e-27 1.47800032e-11
1.44543977e-01 1.38701205e-11 1.37935015e-11 7.66189664e-14 8.00980318e-24 5.09921849e-25 1.37935015e-11
1.65958691e-01 1.29542344e-11 1.28728446e-11 8.13897902e-14 4.06227932e-22 2.83921379e-23 1.28728446e-11
1.90546072e-01 1.21065963e-11 1.20136376e-11 9.29586397e-14 8.60917669e-21 7.34446863e-22 1.20136376e-11
2.18776162e-01 1.13115835e-11 1.12117790e-11 9.98044446e-14 1.02579866e-19 9.60475335e-21 1.12117790e-11
2.51188643e-01 1.05784209e-11 1.04634409e-11 1.14978733e-13 1.24981628e-18 1.40927266e-19 1.04634409e-11
2.88403150e-01 9.86800990e-12 9.76505125e-12 1.02948296e-13 1.03482102e-17 1.10845384e-18 9.76505125e-12
3.31131121e-01 9.20266767e-12 9.11327608e-12 8.93325004e-14 5.90916751e-17 6.01456383e-18 9.11327608e-12
3.80189396e-01 8.58629546e-12 8.50500410e-12 8.10457607e-14 2.45608904e-16 2.39487599e-17 8.50500410e-12
4.36515832e-01 8.01217712e-12 7.93733165e-12 7.40677882e-14 7.77679379e-16 7.49482767e-17 7.93733165e-12
5.01187234e-01 7.48106858e-12 7.40754890e-12 7.15674076e-14 1.95227718e-15 1.88497110e-16 7.40754890e-12
5.75439937e-01 6.98182047e-12 6.91312687e-12 6.46108853e-14 4.08271445e-15 3.97227679e-16 6.91312687e-12
6.60693448e-01 6.51967614e-12 6.45170538e-12 6.04281810e-14 7.54257407e-15 7.82020266e-16 6.45170538e-12
7.58577575e-01 6.09100447e-12 6.02108180e-12 5.68312337e-14 1.30914384e-14 1.46768462e-15 6.02108180e-12
8.70963590e-01 5.69324772e-12 5.61920048e-12 5.14590666e-14 2.25881718e-14 2.83351795e-15 5.61920048e-12
1.00000000e+00 5.32834840e-12 5.24414302e-12 4.48040201e-14 3.94013650e-14 5.36150701e-15 5.24414302e-12
1.14815362e+00 5.00154118e-12 4.89411902e-12 3.72625991e-14 7.01595553e-14 9.58909874e-15 4.89411902e-12
1.31825674e+00 4.72257528e-12 4.56745763e-12 3.01657342e-14 1.24951922e-13 1.59430160e-14 4.56745763e-12
1.51356125e+00 4.49817478e-12 4.26259947e-12 2.31975026e-14 2.12377799e-13 2.38793472e-14 4.26259947e-12
1.73780083e+00 4.33122485e-12 3.97808929e-12 1.75299858e-14 3.35605567e-13 3.14692017e-14 3.97808929e-12
1.99526231e+00 4.21450007e-12 3.71256894e-12 1.30321589e-14 4.88898967e-13 3.59133131e-14 3.71256894e-12
2.29086765e+00 4.12427813e-12 3.46477093e-12 8.93796664e-15 6.50569230e-13 3.64327580e-14 3.46477093e-12
2.63026799e+00 4.04582795e-12 3.23351237e-12 6.08499805e-15 8.06230581e-13 3.39712153e-14 3.23351237e-12
3.01995172e+00 3.95444141e-12 3.01768933e-12 4.21550552e-15 9.32536578e-13 2.90655641e-14 3.01768933e-12
3.46736850e+00 3.83941930e-12 2.81627154e-12 2.92878173e-15 1.02021897e-12 2.34357327e-14 2.81627154e-12
3.98107171e+00 3.68933342e-12 2.62829753e-12 2.00022650e-15 1.05903566e-12 1.80932365e-14 2.62829753e-12
4.57088190e+00 3.51301710e-12 2.45286997e-12 1.32315268e-15 1.05882397e-12 1.30543397e-14 2.45286997e-12
5.24807460e+00 3.05533757e-12 2.02814751e-12 7.46718676e-16 1.02644334e-12 9.03381997e-15 2.02814751e-12
6.02559586e+00 2.31931018e-12 1.33998377e-12 3.45517214e-16 9.78980890e-13 5.88144524e-15 1.33998377e-12
6.70000000e+00 1.91111239e-12 9.74709347e-13 1.74551193e-16 9.36228490e-13 4.05181450e-15 9.74709347e-13
6.92422916e+00 1.80342567e-12 8.83049889e-13 1.43239750e-16 9.20232545e-13 3.56454435e-15 8.83049889e-13
7.15596261e+00 1.71187859e-12 8.00009879e-13 1.14529320e-16 9.11754186e-13 3.12733321e-15 8.00009879e-13
7.39545150e+00 1.64503091e-12 7.24778763e-13 8.51525744e-17 9.20166990e-13 2.67875567e-15 7.24778763e-13
7.64295536e+00 1.63323371e-12 6.56622211e-13 6.00516460e-17 9.76551447e-13 2.19088811e-15 6.56622211e-13
7.89874245e+00 1.71021369e-12 5.94874946e-13 3.49214395e-17 1.11530382e-12 1.67954360e-15 5.94874946e-13
8.16308998e+00 1.85241325e-12 5.38934254e-13 2.00979545e-17 1.31345890e-12 1.28430928e-15 5.38934254e-13
8.43628443e+00 2.08835248e-12 4.88254098e-13 1.12178354e-17 1.60008717e-12 9.51038582e-16 4.88254098e-13
8.71862190e+00 2.24307635e-12 4.42339790e-13 7.34477077e-18 1.80072922e-12 7.46084186e-16 4.42339790e-13
9.01040836e+00 2.42273962e-12 4.00743158e-13 4.92748947e-18 2.02199154e-12 5.86235190e-16 4.00743158e-13
9.31196005e+00 2.55894373e-12 3.63058180e-13 0.00000000e+00 2.19588555e-12 0.00000000e+00 3.63058180e-13
9.62360379e+00 2.53095870e-12 3.28917012e-13 0.00000000e+00 2.20204169e-12 0.00000000e+00 3.28917012e-13
9.94567731e+00 2.37877382e-12 2.97986401e-13 0.00000000e+00 2.08078742e-12 0.00000000e+00 2.97986401e-13
1.02785297e+01 2.19483912e-12 2.69964435e-13 0.00000000e+00 1.92487469e-12 0.00000000e+00 2.69964435e-13
1.06225216e+01 2.01420919e-12 2.44577592e-13 0.00000000e+00 1.76963160e-12 0.00000000e+00 2.44577592e-13
1.09780260e+01 1.81393969e-12 2.21578069e-13 0.00000000e+00 1.59236162e-12 0.00000000e+00 2.21578069e-13
1.13454280e+01 1.64135225e-12 2.00741370e-13 0.00000000e+00 1.44061088e-12 0.00000000e+00 2.00741370e-13
1.17251259e+01 1.50052089e-12 1.81864106e-13 0.00000000e+00 1.31865678e-12 0.00000000e+00 1.81864106e-13
1.21175312e+01 1.36798491e-12 1.64762018e-13 0.00000000e+00 1.20322290e-12 0.00000000e+00 1.64762018e-13
1.25230691e+01 1.25725385e-12 1.49268171e-13 0.00000000e+00 1.10798568e-12 0.00000000e+00 1.49268171e-13
1.29421791e+01 1.16291166e-12 1.35231331e-13 0.00000000e+00 1.02768033e-12 0.00000000e+00 1.35231331e-13
1.33753155e+01 1.08252134e-12 1.22514483e-13 0.00000000e+00 9.60006860e-13 0.00000000e+00 1.22514483e-13
1.38229477e+01 1.02777674e-12 1.10993499e-13 0.00000000e+00 9.16783240e-13 0.00000000e+00 1.10993499e-13
1.42855609e+01 9.99578029e-13 1.00555922e-13 0.00000000e+00 8.99022108e-13 0.00000000e+00 1.00555922e-13
1.47636563e+01 1.01257615e-12 9.10998706e-14 0.00000000e+00 9.21476279e-13 0.00000000e+00 9.10998706e-14
1.52577522e+01 1.03859322e-12 8.25330452e-14 0.00000000e+00 9.56060170e-13 0.00000000e+00 8.25330452e-14
1.57683840e+01 1.06935561e-12 7.47718247e-14 0.00000000e+00 9.94583783e-13 0.00000000e+00 7.47718247e-14
1.62961051e+01 1.09973071e-12 6.77404517e-14 0.00000000e+00 1.03199025e-12 0.00000000e+00 6.77404517e-14
1.68414875e+01 1.14114330e-12 6.13702932e-14 0.00000000e+00 1.07977301e-12 0.00000000e+00 6.13702932e-14
1.74051222e+01 1.16028187e-12 5.55991699e-14 0.00000000e+00 1.10468270e-12 0.00000000e+00 5.55991699e-14
1.79876201e+01 1.18012732e-12 5.03707500e-14 0.00000000e+00 1.12975657e-12 0.00000000e+00 5.03707500e-14
1.85896125e+01 1.18118595e-12 4.56339988e-14 0.00000000e+00 1.13555195e-12 0.00000000e+00 4.56339988e-14
1.92117518e+01 1.16994699e-12 4.13426810e-14 0.00000000e+00 1.12860431e-12 0.00000000e+00 4.13426810e-14
1.98547123e+01 1.14651914e-12 3.74549090e-14 0.00000000e+00 1.10906423e-12 0.00000000e+00 3.74549090e-14
2.05191907e+01 1.11647734e-12 3.39327342e-14 0.00000000e+00 1.08254460e-12 0.00000000e+00 3.39327342e-14
2.12059073e+01 1.09651528e-12 3.07417768e-14 0.00000000e+00 1.06577350e-12 0.00000000e+00 3.07417768e-14
2.19156062e+01 1.08000926e-12 2.78508898e-14 0.00000000e+00 1.05215837e-12 0.00000000e+00 2.78508898e-14
2.26490567e+01 1.05927955e-12 2.52318552e-14 0.00000000e+00 1.03404769e-12 0.00000000e+00 2.52318552e-14
2.34070535e+01 1.04413713e-12 2.28591087e-14 0.00000000e+00 1.02127803e-12 0.00000000e+00 2.28591087e-14
2.41904183e+01 1.02713616e-12 2.07094900e-14 0.00000000e+00 1.00642667e-12 0.00000000e+00 2.07094900e-14
2.50000000e+01 1.00992001e-12 1.87620165e-14 0.00000000e+00 9.91157995e-13 0.00000000e+00 1.87620165e-14
2.75422870e+01 9.58085700e-13 1.40313526e-14 0.00000000e+00 9.44054348e-13 0.00000000e+00 1.40313526e-14
3.16227766e+01 8.67100054e-13 9.27042274e-15 0.00000000e+00 8.57829632e-13 0.00000000e+00 9.27042274e-15
3.63078055e+01 7.47160489e-13 6.12490756e-15 0.00000000e+00 7.41035581e-13 0.00000000e+00 6.12490756e-15
4.16869383e+01 6.03177864e-13 4.04668630e-15 0.00000000e+00 5.99131177e-13 0.00000000e+00 4.04668630e-15
4.78630092e+01 4.55837390e-13 2.67361912e-15 0.00000000e+00 4.53163771e-13 0.00000000e+00 2.67361912e-15
5.49540874e+01 3.23726866e-13 1.76644264e-15 0.00000000e+00 3.21960423e-13 0.00000000e+00 1.76644264e-15
6.30957344e+01 2.17813614e-13 1.16707708e-15 0.00000000e+00 2.16646537e-13 0.00000000e+00 1.16707708e-15
7.24435960e+01 1.39660494e-13 7.71080178e-16 0.00000000e+00 1.38889414e-13 0.00000000e+00 7.71080178e-16
8.31763771e+01 8.62109746e-14 5.09447621e-16 0.00000000e+00 8.57015270e-14 0.00000000e+00 5.09447621e-16
9.54992586e+01 5.16510093e-14 3.36588705e-16 0.00000000e+00 5.13144206e-14 0.00000000e+00 3.36588705e-16
1.09647820e+02 3.01489813e-14 2.22381952e-16 0.00000000e+00 2.99265993e-14 0.00000000e+00 2.22381952e-16
1.25892541e+02 1.74621582e-14 1.46926299e-16 0.00000000e+00 1.73152319e-14 0.00000000e+00 1.46926299e-16
1.44543977e+02 9.97926004e-15 9.70732430e-17 0.00000000e+00 9.88218679e-15 0.00000000e+00 9.70732430e-17
1.65958691e+02 5.41383458e-15 6.41356556e-17 0.00000000e+00 5.34969893e-15 0.00000000e+00 6.41356556e-17
1.90546072e+02 2.92399258e-15 4.23740075e-17 0.00000000e+00 2.88161857e-15 0.00000000e+00 4.23740075e-17
2.18776162e+02 1.57035413e-15 2.79962291e-17 0.00000000e+00 1.54235790e-15 0.00000000e+00 2.79962291e-17
2.51188643e+02 8.38227517e-16 1.84969251e-17 0.00000000e+00 8.19730592e-16 0.00000000e+00 1.84969251e-17
2.88403150e+02 4.44372386e-16 1.22207972e-17 0.00000000e+00 4.32151589e-16 0.00000000e+00 1.22207972e-17
3.31131121e+02 2.34676662e-16 8.07420067e-18 0.00000000e+00 2.26602461e-16 0.00000000e+00 8.07420067e-18
3.80189396e+02 1.23427894e-16 5.33457148e-18 0.00000000e+00 1.18093323e-16 0.00000000e+00 5.33457148e-18
4.36515832e+02 6.47987724e-17 3.52451642e-18 0.00000000e+00 6.12742560e-17 0.00000000e+00 3.52451642e-18
5.01187234e+02 3.39826832e-17 2.32862491e-18 0.00000000e+00 3.16540583e-17 0.00000000e+00 2.32862491e-18
5.75439937e+02 1.78314434e-17 1.53850722e-18 0.00000000e+00 1.62929362e-17 0.00000000e+00 1.53850722e-18
6.60693448e+02 9.37681104e-18 1.01648164e-18 0.00000000e+00 8.36032940e-18 0.00000000e+00 1.01648164e-18
7.58577575e+02 4.94984702e-18 6.71582760e-19 0.00000000e+00 4.27826426e-18 0.00000000e+00 6.71582760e-19
8.70963590e+02 2.62741928e-18 4.43710329e-19 0.00000000e+00 2.18370895e-18 0.00000000e+00 4.43710329e-19
1.00000000e+03 1.11199380e-18 0.00000000e+00 0.00000000e+00 1.11199380e-18 0.00000000e+00 0.00000000e+00
