# column 1: lambda (micron)
# column 2: total flux; lambda*F_lambda (W/m2)
# column 3: direct stellar flux; lambda*F_lambda (W/m2)
# column 4: scattered stellar flux; lambda*F_lambda (W/m2)
# column 5: total dust emission flux; lambda*F_lambda (W/m2)
# column 6: dust emission scattered flux; lambda*F_lambda (W/m2)
# column 7: transparent flux; lambda*F_lambda (W/m2)
1.00000000e-03 5.25636785e-13 5.25636674e-13 1.10778138e-19 0.00000000e+00 0.00000000e+00 5.25636674e-13
1.14815362e-03 6.20419982e-13 6.20419813e-13 1.68896811e-19 0.00000000e+00 0.00000000e+00 6.20419813e-13
1.31825674e-03 7.32294587e-13 7.32294308e-13 2.78911476e-19 0.00000000e+00 0.00000000e+00 7.32294308e-13
1.51356125e-03 8.64342496e-13 8.64342083e-13 4.13316678e-19 0.00000000e+00 0.00000000e+00 8.64342083e-13
1.73780083e-03 1.02020167e-12 1.02020080e-12 8.73228820e-19 0.00000000e+00 0.00000000e+00 1.02020080e-12
1.99526231e-03 1.20416561e-12 1.20416405e-12 1.55942593e-18 0.00000000e+00 0.00000000e+00 1.20416405e-12
2.29086765e-03 1.42130211e-12 1.42129968e-12 2.42667909e-18 0.00000000e+00 0.00000000e+00 1.42129968e-12
2.63026799e-03 1.67759411e-12 1.67758934e-12 4.76294463e-18 0.00000000e+00 0.00000000e+00 1.67758934e-12
3.01995172e-03 1.98010168e-12 1.98009332e-12 8.36426854e-18 0.00000000e+00 0.00000000e+00 1.98009332e-12
3.46736850e-03 2.33715956e-12 2.33714500e-12 1.45510311e-17 0.00000000e+00 0.00000000e+00 2.33714500e-12
3.98107171e-03 2.75860393e-12 2.75858048e-12 2.34570312e-17 0.00000000e+00 0.00000000e+00 2.75858048e-12
4.57088190e-03 3.25605981e-12 3.25600946e-12 5.03485132e-17 0.00000000e+00 0.00000000e+00 3.25600946e-12
5.24807460e-03 3.84322340e-12 3.84313516e-12 8.82425211e-17 0.00000000e+00 0.00000000e+00 3.84313516e-12
6.02559586e-03 4.53630095e-12 4.53613173e-12 1.69212815e-16 0.00000000e+00 0.00000000e+00 4.53613173e-12
6.91830971e-03 5.35434753e-12 5.35408989e-12 2.57638186e-16 0.00000000e+00 0.00000000e+00 5.35408989e-12
7.94328235e-03 6.31998731e-12 6.31954278e-12 4.44529908e-16 0.00000000e+00 0.00000000e+00 6.31954278e-12
9.12010839e-03 7.45983582e-12 7.45908676e-12 7.49065042e-16 0.00000000e+00 0.00000000e+00 7.45908676e-12
1.04712855e-02 8.33181770e-12 8.33078048e-12 1.03722485e-15 0.00000000e+00 0.00000000e+00 8.33078048e-12
1.20226443e-02 8.33244139e-12 8.33078048e-12 1.66091023e-15 0.00000000e+00 0.00000000e+00 8.33078048e-12
1.38038426e-02 8.33293066e-12 8.33078048e-12 2.15018462e-15 1.09415401e-290 8.54712751e-293 8.33078048e-12
1.58489319e-02 8.33388129e-12 8.33078048e-12 3.10081285e-15 6.33252105e-254 6.25607529e-256 8.33078048e-12
1.81970086e-02 8.33800493e-12 8.33078048e-12 7.22445010e-15 6.24206155e-222 6.06999930e-224 8.33078048e-12
2.08929613e-02 8.34055184e-12 8.33078048e-12 9.77136367e-15 4.10114417e-194 5.53360810e-196 8.33078048e-12
2.39883292e-02 8.34101995e-12 8.33078048e-12 1.02394772e-14 6.68122495e-170 1.07798493e-171 8.33078048e-12
2.75422870e-02 8.34106611e-12 8.33078048e-12 1.02856349e-14 7.86414270e-149 1.59779499e-150 8.33078048e-12
3.16227766e-02 8.34422864e-12 8.33078048e-12 1.34481658e-14 1.64996540e-130 3.79744153e-132 8.33078048e-12
3.63078055e-02 8.34785458e-12 8.33078048e-12 1.70741059e-14 1.39430749e-114 3.59410481e-116 8.33078048e-12
4.16869383e-02 8.35241143e-12 8.33078048e-12 2.16309560e-14 9.70333328e-101 3.19820355e-102 8.33078048e-12
4.78630092e-02 8.36068767e-12 8.33078048e-12 2.99071969e-14 1.02942523e-88 4.45674442e-90 8.33078048e-12
5.49540874e-02 8.36429384e-12 8.33078048e-12 3.35133621e-14 2.83905715e-78 1.43915792e-79 8.33078048e-12
6.30957344e-02 8.37380772e-12 8.33078048e-12 4.30272427e-14 4.34268398e-69 2.60063407e-70 8.33078048e-12
7.24435960e-02 8.37157646e-12 8.33078048e-12 4.07959876e-14 3.98646002e-61 2.39290625e-62 8.33078048e-12
8.31763771e-02 8.37238064e-12 8.33078048e-12 4.16001687e-14 2.50059099e-54 1.44903851e-55 8.33078048e-12
9.54992586e-02 8.37450526e-12 8.33078048e-12 4.37247845e-14 1.88855546e-48 1.11145922e-49 8.33078048e-12
1.09647820e-01 7.99596062e-12 7.95583672e-12 4.01239027e-14 2.08967056e-43 1.27957983e-44 7.95583672e-12
1.25892541e-01 7.46249174e-12 7.42481883e-12 3.76729058e-14 4.70895984e-39 2.76562566e-40 7.42481883e-12
1.44543977e-01 6.96112444e-12 6.92924411e-12 3.18803255e-14 2.57703916e-35 1.40664976e-36 6.92924411e-12
1.65958691e-01 6.49989209e-12 6.46674687e-12 3.31452223e-14 3.26727033e-32 1.89524157e-33 6.46674687e-12
1.90546072e-01 6.07144694e-12 6.03511933e-12 3.63276195e-14 1.14560116e-29 7.79345380e-31 6.03511933e-12
2.18776162e-01 5.66965915e-12 5.63230107e-12 3.73580791e-14 1.60291851e-27 1.18032161e-28 5.63230107e-12
2.51188643e-01 5.29483272e-12 5.25636919e-12 3.84635264e-14 1.72427502e-25 1.46283640e-26 5.25636919e-12
2.88403150e-01 4.93970087e-12 4.90552916e-12 3.41717183e-14 1.02213204e-23 8.57061287e-25 4.90552916e-12
3.31131121e-01 4.60963315e-12 4.57810618e-12 3.15269649e-14 3.50988411e-22 2.86584726e-23 4.57810618e-12
3.80189396e-01 4.30047757e-12 4.27253728e-12 2.79402761e-14 7.64045195e-21 6.26949756e-22 4.27253728e-12
4.36515832e-01 4.01339088e-12 3.98736380e-12 2.60269756e-14 1.11331122e-19 9.26757843e-21 3.98736380e-12
5.01187234e-01 3.74520655e-12 3.72122441e-12 2.39810093e-14 1.13333308e-18 9.85577090e-20 3.72122441e-12
5.75439937e-01 3.49276865e-12 3.47284869e-12 1.99115781e-14 8.38472439e-18 7.61024201e-19 3.47284869e-12
6.60693448e-01 3.25975953e-12 3.24105097e-12 1.86616359e-14 4.69173245e-17 4.53593582e-18 3.24105097e-12
7.58577575e-01 3.04161065e-12 3.02472476e-12 1.66777767e-14 2.08115389e-16 2.09684903e-17 3.02472476e-12
8.70963590e-01 2.83889041e-12 2.82283739e-12 1.52931078e-14 7.59914419e-16 7.82257064e-17 2.82283739e-12
1.00000000e+00 2.64927879e-12 2.63442513e-12 1.25217796e-14 2.33187495e-15 2.40833910e-16 2.63442513e-12
1.14815362e+00 2.47513642e-12 2.45858859e-12 1.02763480e-14 6.27148681e-15 6.21957666e-16 2.45858859e-12
1.31825674e+00 2.31786641e-12 2.29448837e-12 8.38175737e-15 1.49962802e-14 1.35990179e-15 2.29448837e-12
1.51356125e+00 2.17941277e-12 2.14134114e-12 6.41002943e-15 3.16616022e-14 2.53983017e-15 2.14134114e-12
1.73780083e+00 2.06135201e-12 1.99841583e-12 4.64542001e-15 5.82907618e-14 3.92758796e-15 1.99841583e-12
1.99526231e+00 1.96314028e-12 1.86503017e-12 3.54963201e-15 9.45604817e-14 5.02798795e-15 1.86503017e-12
2.29086765e+00 1.87991836e-12 1.74054743e-12 2.41517801e-15 1.36955752e-13 5.43392599e-15 1.74054743e-12
2.63026799e+00 1.80537146e-12 1.62437337e-12 1.70173771e-15 1.79296355e-13 5.21566320e-15 1.62437337e-12
3.01995172e+00 1.73367327e-12 1.51595343e-12 1.06542777e-15 2.16654412e-13 4.55069882e-15 1.51595343e-12
3.46736850e+00 1.66052118e-12 1.41477006e-12 7.12166738e-16 2.45038953e-13 3.70759980e-15 1.41477006e-12
3.98107171e+00 1.58135981e-12 1.32034025e-12 4.80985964e-16 2.60538580e-13 2.81452798e-15 1.32034025e-12
4.57088190e+00 1.49676316e-12 1.23221321e-12 3.17786031e-16 2.64232163e-13 2.04655356e-15 1.23221321e-12
5.24807460e+00 1.27783511e-12 1.01885146e-12 1.79467853e-16 2.58804180e-13 1.38949103e-15 1.01885146e-12
6.02559586e+00 9.20613740e-13 6.73148485e-13 8.63377630e-17 2.47378916e-13 8.87388280e-16 6.73148485e-13
6.70000000e+00 7.24798382e-13 4.89650796e-13 4.16103209e-17 2.35105975e-13 6.01785811e-16 4.89650796e-13
6.92422916e+00 6.73966867e-13 4.43605145e-13 3.41274050e-17 2.30327595e-13 5.27224160e-16 4.43605145e-13
7.15596261e+00 6.29729610e-13 4.01889522e-13 2.68257926e-17 2.27813262e-13 4.53064316e-16 4.01889522e-13
7.39545150e+00 5.93531198e-13 3.64096743e-13 1.95765724e-17 2.29414879e-13 3.86833353e-16 3.64096743e-13
7.64295536e+00 5.74432209e-13 3.29857910e-13 1.45178728e-17 2.44559781e-13 3.17600869e-16 3.29857910e-13
7.89874245e+00 5.81051431e-13 2.98838820e-13 8.67880839e-18 2.82203932e-13 2.48170959e-16 2.98838820e-13
8.16308998e+00 6.09211376e-13 2.70736695e-13 4.77280869e-18 3.38469908e-13 1.91135416e-16 2.70736695e-13
8.43628443e+00 6.66483675e-13 2.45277229e-13 2.92784007e-18 4.21203518e-13 1.45124175e-16 2.45277229e-13
8.71862190e+00 7.07730172e-13 2.22211915e-13 1.77135635e-18 4.85516486e-13 1.14466209e-16 2.22211915e-13
9.01040836e+00 7.53369455e-13 2.01315610e-13 1.07825369e-18 5.52052767e-13 8.52270024e-17 2.01315610e-13
9.31196005e+00 7.90929382e-13 1.82384346e-13 0.00000000e+00 6.08545036e-13 0.00000000e+00 1.82384346e-13
9.62360379e+00 7.76950005e-13 1.65233336e-13 0.00000000e+00 6.11716669e-13 0.00000000e+00 1.65233336e-13
9.94567731e+00 7.24899903e-13 1.49695167e-13 0.00000000e+00 5.75204736e-13 0.00000000e+00 1.49695167e-13
1.02785297e+01 6.62119016e-13 1.35618173e-13 0.00000000e+00 5.26500843e-13 0.00000000e+00 1.35618173e-13
1.06225216e+01 6.00874643e-13 1.22864947e-13 0.00000000e+00 4.78009696e-13 0.00000000e+00 1.22864947e-13
1.09780260e+01 5.35152015e-13 1.11311006e-13 0.00000000e+00 4.23841009e-13 0.00000000e+00 1.11311006e-13
1.13454280e+01 4.77854513e-13 1.00843571e-13 0.00000000e+00 3.77010941e-13 0.00000000e+00 1.00843571e-13
1.17251259e+01 4.29588048e-13 9.13604705e-14 0.00000000e+00 3.38227578e-13 0.00000000e+00 9.13604705e-14
1.21175312e+01 3.86398554e-13 8.27691389e-14 0.00000000e+00 3.03629415e-13 0.00000000e+00 8.27691389e-14
1.25230691e+01 3.46649592e-13 7.49857166e-14 0.00000000e+00 2.71663876e-13 0.00000000e+00 7.49857166e-14
1.29421791e+01 3.14182829e-13 6.79342298e-14 0.00000000e+00 2.46248599e-13 0.00000000e+00 6.79342298e-14
1.33753155e+01 2.85540180e-13 6.15458488e-14 0.00000000e+00 2.23994331e-13 0.00000000e+00 6.15458488e-14
1.38229477e+01 2.65691557e-13 5.57582167e-14 0.00000000e+00 2.09933340e-13 0.00000000e+00 5.57582167e-14
1.42855609e+01 2.53516829e-13 5.05148403e-14 0.00000000e+00 2.03001989e-13 0.00000000e+00 5.05148403e-14
1.47636563e+01 2.52968083e-13 4.57645392e-14 0.00000000e+00 2.07203544e-13 0.00000000e+00 4.57645392e-14
1.52577522e+01 2.54914867e-13 4.14609457e-14 0.00000000e+00 2.13453921e-13 0.00000000e+00 4.14609457e-14
1.57683840e+01 2.60217601e-13 3.75620523e-14 0.00000000e+00 2.22655549e-13 0.00000000e+00 3.75620523e-14
1.62961051e+01 2.65862640e-13 3.40298020e-14 0.00000000e+00 2.31832838e-13 0.00000000e+00 3.40298020e-14
1.68414875e+01 2.72169244e-13 3.08297166e-14 0.00000000e+00 2.41339527e-13 0.00000000e+00 3.08297166e-14
1.74051222e+01 2.75411110e-13 2.79305599e-14 0.00000000e+00 2.47480550e-13 0.00000000e+00 2.79305599e-14
1.79876201e+01 2.76380358e-13 2.53040334e-14 0.00000000e+00 2.51076324e-13 0.00000000e+00 2.53040334e-14
1.85896125e+01 2.72752561e-13 2.29244994e-14 0.00000000e+00 2.49828061e-13 0.00000000e+00 2.29244994e-14
1.92117518e+01 2.65092362e-13 2.07687314e-14 0.00000000e+00 2.44323631e-13 0.00000000e+00 2.07687314e-14
1.98547123e+01 2.55552116e-13 1.88156870e-14 0.00000000e+00 2.36736429e-13 0.00000000e+00 1.88156870e-14
2.05191907e+01 2.44984427e-13 1.70463024e-14 0.00000000e+00 2.27938125e-13 0.00000000e+00 1.70463024e-14
2.12059073e+01 2.35034450e-13 1.54433068e-14 0.00000000e+00 2.19591143e-13 0.00000000e+00 1.54433068e-14
2.19156062e+01 2.26652508e-13 1.39910532e-14 0.00000000e+00 2.12661455e-13 0.00000000e+00 1.39910532e-14
2.26490567e+01 2.18838327e-13 1.26753663e-14 0.00000000e+00 2.06162961e-13 0.00000000e+00 1.26753663e-14
2.34070535e+01 2.12039399e-13 1.14834036e-14 0.00000000e+00 2.00555995e-13 0.00000000e+00 1.14834036e-14
2.41904183e+01 2.05771763e-13 1.04035303e-14 0.00000000e+00 1.95368233e-13 0.00000000e+00 1.04035303e-14
2.50000000e+01 1.99920376e-13 9.42520591e-15 0.00000000e+00 1.90495170e-13 0.00000000e+00 9.42520591e-15
2.75422870e+01 1.84704496e-13 7.04872996e-15 0.00000000e+00 1.77655766e-13 0.00000000e+00 7.04872996e-15
3.16227766e+01 1.64831216e-13 4.65704970e-15 0.00000000e+00 1.60174166e-13 0.00000000e+00 4.65704970e-15
3.63078055e+01 1.44604607e-13 3.07688223e-15 0.00000000e+00 1.41527725e-13 0.00000000e+00 3.07688223e-15
4.16869383e+01 1.22077448e-13 2.03287593e-15 0.00000000e+00 1.20044572e-13 0.00000000e+00 2.03287593e-15
4.78630092e+01 9.83813685e-14 1.34310781e-15 0.00000000e+00 9.70382607e-14 0.00000000e+00 1.34310781e-15
5.49540874e+01 7.58223115e-14 8.87382527e-16 0.00000000e+00 7.49349290e-14 0.00000000e+00 8.87382527e-16
6.30957344e+01 5.58171606e-14 5.86287821e-16 0.00000000e+00 5.52308728e-14 0.00000000e+00 5.86287821e-16
7.24435960e+01 3.93636658e-14 3.87356522e-16 0.00000000e+00 3.89763092e-14 0.00000000e+00 3.87356522e-16
8.31763771e+01 2.66574708e-14 2.55923916e-16 0.00000000e+00 2.64015469e-14 0.00000000e+00 2.55923916e-16
9.54992586e+01 1.74371048e-14 1.69087255e-16 0.00000000e+00 1.72680176e-14 0.00000000e+00 1.69087255e-16
1.09647820e+02 1.10352798e-14 1.11714841e-16 0.00000000e+00 1.09235650e-14 0.00000000e+00 1.11714841e-16
1.25892541e+02 6.86027706e-15 7.38092637e-17 0.00000000e+00 6.78646780e-15 0.00000000e+00 7.38092637e-17
1.44543977e+02 4.17719761e-15 4.87652969e-17 0.00000000e+00 4.12843231e-15 0.00000000e+00 4.87652969e-17
1.65958691e+02 2.39838483e-15 3.22189122e-17 0.00000000e+00 2.36616592e-15 0.00000000e+00 3.22189122e-17
1.90546072e+02 1.36059142e-15 2.12868242e-17 0.00000000e+00 1.33930460e-15 0.00000000e+00 2.12868242e-17
2.18776162e+02 7.62160358e-16 1.40640653e-17 0.00000000e+00 7.48096293e-16 0.00000000e+00 1.40640653e-17
2.51188643e+02 4.21747451e-16 9.29203577e-18 0.00000000e+00 4.12455415e-16 0.00000000e+00 9.29203577e-18
2.88403150e+02 2.30579329e-16 6.13918715e-18 0.00000000e+00 2.24440142e-16 0.00000000e+00 6.13918715e-18
3.31131121e+02 1.24983827e-16 4.05612073e-18 0.00000000e+00 1.20927707e-16 0.00000000e+00 4.05612073e-18
3.80189396e+02 6.71937429e-17 2.67985239e-18 0.00000000e+00 6.45138905e-17 0.00000000e+00 2.67985239e-18
4.36515832e+02 3.59239263e-17 1.77056092e-18 0.00000000e+00 3.41533654e-17 0.00000000e+00 1.77056092e-18
5.01187234e+02 1.91215536e-17 1.16979800e-18 0.00000000e+00 1.79517556e-17 0.00000000e+00 1.16979800e-18
5.75439937e+02 1.01514726e-17 7.72877871e-19 0.00000000e+00 9.37859468e-18 0.00000000e+00 7.72877871e-19
6.60693448e+02 5.38511371e-18 5.10635346e-19 0.00000000e+00 4.87447837e-18 0.00000000e+00 5.10635346e-19
7.58577575e+02 2.85956627e-18 3.37373427e-19 0.00000000e+00 2.52219285e-18 0.00000000e+00 3.37373427e-19
8.70963590e+02 1.52261435e-18 2.22900413e-19 0.00000000e+00 1.29971394e-18 0.00000000e+00 2.22900413e-19
1.00000000e+03 6.67325999e-19 0.00000000e+00 0.00000000e+00 6.67325999e-19 0.00000000e+00 0.00000000e+00
