# column 1: lambda (micron)
# column 2: total flux; lambda*F_lambda (W/m2)
# column 3: direct stellar flux; lambda*F_lambda (W/m2)
# column 4: scattered stellar flux; lambda*F_lambda (W/m2)
# column 5: total dust emission flux; lambda*F_lambda (W/m2)
# column 6: dust emission scattered flux; lambda*F_lambda (W/m2)
# column 7: transparent flux; lambda*F_lambda (W/m2)
1.00000000e-03 5.25636808e-13 5.25636674e-13 1.34454680e-19 0.00000000e+00 0.00000000e+00 5.25636674e-13
1.14815362e-03 6.20420053e-13 6.20419813e-13 2.39927043e-19 0.00000000e+00 0.00000000e+00 6.20419813e-13
1.31825674e-03 7.32294665e-13 7.32294308e-13 3.56886482e-19 0.00000000e+00 0.00000000e+00 7.32294308e-13
1.51356125e-03 8.64342665e-13 8.64342083e-13 5.82296917e-19 0.00000000e+00 0.00000000e+00 8.64342083e-13
1.73780083e-03 1.02020191e-12 1.02020080e-12 1.11688824e-18 0.00000000e+00 0.00000000e+00 1.02020080e-12
1.99526231e-03 1.20416596e-12 1.20416405e-12 1.90439935e-18 0.00000000e+00 0.00000000e+00 1.20416405e-12
2.29086765e-03 1.42130249e-12 1.42129968e-12 2.81428786e-18 0.00000000e+00 0.00000000e+00 1.42129968e-12
2.63026799e-03 1.67759537e-12 1.67758934e-12 6.03083281e-18 0.00000000e+00 0.00000000e+00 1.67758934e-12
3.01995172e-03 1.98010383e-12 1.98009332e-12 1.05122715e-17 0.00000000e+00 0.00000000e+00 1.98009332e-12
3.46736850e-03 2.33716381e-12 2.33714500e-12 1.88058663e-17 0.00000000e+00 0.00000000e+00 2.33714500e-12
3.98107171e-03 2.75860939e-12 2.75858048e-12 2.89104671e-17 0.00000000e+00 0.00000000e+00 2.75858048e-12
4.57088190e-03 3.25606511e-12 3.25600946e-12 5.56470167e-17 0.00000000e+00 0.00000000e+00 3.25600946e-12
5.24807460e-03 3.84324619e-12 3.84313516e-12 1.11028116e-16 0.00000000e+00 0.00000000e+00 3.84313516e-12
6.02559586e-03 4.53632232e-12 4.53613173e-12 1.90588585e-16 0.00000000e+00 0.00000000e+00 4.53613173e-12
6.91830971e-03 5.35437589e-12 5.35408989e-12 2.85993835e-16 0.00000000e+00 0.00000000e+00 5.35408989e-12
7.94328235e-03 6.32010796e-12 6.31954278e-12 5.65171703e-16 5.62529972e-304 5.25043736e-307 6.31954278e-12
9.12010839e-03 7.45993818e-12 7.45908676e-12 8.51423954e-16 2.54019169e-265 1.28055448e-267 7.45908676e-12
1.04712855e-02 8.33256207e-12 8.33078048e-12 1.78159813e-15 1.09375852e-231 1.70084101e-234 8.33078048e-12
1.20226443e-02 8.33254599e-12 8.33078048e-12 1.76551853e-15 1.74726887e-202 4.20599610e-205 8.33078048e-12
1.38038426e-02 8.33579455e-12 8.33078048e-12 5.01407485e-15 4.84291299e-177 1.60845607e-179 8.33078048e-12
1.58489319e-02 8.33418750e-12 8.33078048e-12 3.40702477e-15 6.65192311e-155 3.11106555e-157 8.33078048e-12
1.81970086e-02 8.33540688e-12 8.33078048e-12 4.62640591e-15 1.20324625e-135 8.06417090e-138 8.33078048e-12
2.08929613e-02 8.33953336e-12 8.33078048e-12 8.75288657e-15 6.35848841e-119 5.36569056e-121 8.33078048e-12
2.39883292e-02 8.34114950e-12 8.33078048e-12 1.03690219e-14 2.25540604e-104 2.54241245e-106 8.33078048e-12
2.75422870e-02 8.34351080e-12 8.33078048e-12 1.27303210e-14 1.02021554e-91 1.56263893e-93 8.33078048e-12
3.16227766e-02 8.34640051e-12 8.33078048e-12 1.56200348e-14 1.00303218e-80 1.84761181e-82 8.33078048e-12
3.63078055e-02 8.34989216e-12 8.33078048e-12 1.91116836e-14 3.50266160e-71 7.30519972e-73 8.33078048e-12
4.16869383e-02 8.35474939e-12 8.33078048e-12 2.39689193e-14 6.72414656e-63 1.96940231e-64 8.33078048e-12
4.78630092e-02 8.36130670e-12 8.33078048e-12 3.05262221e-14 1.02542819e-55 4.00749025e-57 8.33078048e-12
5.49540874e-02 8.36930063e-12 8.33078048e-12 3.85201565e-14 1.71745656e-49 8.12498486e-51 8.33078048e-12
6.30957344e-02 8.37705909e-12 8.33078048e-12 4.62786104e-14 5.59307231e-44 3.11902129e-45 8.33078048e-12
7.24435960e-02 8.37398845e-12 8.33078048e-12 4.32079773e-14 3.25816216e-39 1.80692693e-40 8.33078048e-12
8.31763771e-02 8.37376310e-12 8.33078048e-12 4.29826202e-14 3.34243901e-35 1.82091345e-36 8.33078048e-12
9.54992586e-02 8.37639965e-12 8.33078048e-12 4.56191726e-14 9.44641012e-32 5.40602634e-33 8.33078048e-12
1.09647820e-01 8.00109113e-12 7.95583672e-12 4.52544122e-14 8.01887028e-29 4.86822148e-30 7.95583672e-12
1.25892541e-01 7.46562737e-12 7.42481883e-12 4.08085405e-14 2.59302702e-26 1.49413375e-27 7.42481883e-12
1.44543977e-01 6.96484021e-12 6.92924411e-12 3.55961000e-14 3.52864757e-24 1.95388522e-25 6.92924411e-12
1.65958691e-01 6.50230197e-12 6.46674687e-12 3.55551051e-14 1.78899617e-22 1.09245791e-23 6.46674687e-12
1.90546072e-01 6.07624956e-12 6.03511933e-12 4.11302319e-14 3.78276755e-21 2.78877295e-22 6.03511933e-12
2.18776162e-01 5.67312926e-12 5.63230107e-12 4.08281511e-14 4.49609626e-20 3.54044419e-21 5.63230107e-12
2.51188643e-01 5.29843217e-12 5.25636919e-12 4.20624332e-14 5.46081222e-19 5.22213870e-20 5.25636919e-12
2.88403150e-01 4.94516492e-12 4.90552916e-12 3.96312317e-14 4.52895968e-18 4.14219550e-19 4.90552916e-12
3.31131121e-01 4.61408705e-12 4.57810618e-12 3.59549469e-14 2.59183413e-17 2.28293072e-18 4.57810618e-12
3.80189396e-01 4.30506262e-12 4.27253728e-12 3.24174608e-14 1.07873506e-16 9.18184244e-18 4.27253728e-12
4.36515832e-01 4.01710516e-12 3.98736380e-12 2.94003960e-14 3.40965185e-16 2.83546602e-17 3.98736380e-12
5.01187234e-01 3.74924145e-12 3.72122441e-12 2.71649316e-14 8.52107525e-16 7.02177313e-17 3.72122441e-12
5.75439937e-01 3.49975315e-12 3.47284869e-12 2.51460882e-14 1.75837476e-15 1.40619086e-16 3.47284869e-12
6.60693448e-01 3.26582633e-12 3.24105097e-12 2.16347072e-14 3.14064579e-15 2.52296663e-16 3.24105097e-12
7.58577575e-01 3.04962229e-12 3.02472476e-12 1.97682059e-14 5.12932293e-15 4.11183367e-16 3.02472476e-12
8.70963590e-01 2.84725478e-12 2.82283739e-12 1.63730702e-14 8.04432298e-15 6.34220842e-16 2.82283739e-12
1.00000000e+00 2.66184551e-12 2.63442513e-12 1.47444460e-14 1.26759247e-14 9.73610116e-16 2.63442513e-12
1.14815362e+00 2.49075568e-12 2.45858859e-12 1.11308994e-14 2.10361895e-14 1.52805550e-15 2.45858859e-12
1.31825674e+00 2.33979797e-12 2.29448837e-12 8.89933673e-15 3.64102560e-14 2.41978377e-15 2.29448837e-12
1.51356125e+00 2.21090247e-12 2.14134114e-12 7.14565935e-15 6.24156640e-14 3.68516339e-15 2.14134114e-12
1.73780083e+00 2.10459240e-12 1.99841583e-12 5.17577838e-15 1.01000789e-13 5.06859727e-15 1.99841583e-12
1.99526231e+00 2.01946358e-12 1.86503017e-12 3.92834222e-15 1.50505068e-13 6.24151141e-15 1.86503017e-12
2.29086765e+00 1.94772286e-12 1.74054743e-12 2.64029828e-15 2.04535139e-13 6.67886908e-15 1.74054743e-12
2.63026799e+00 1.88169269e-12 1.62437337e-12 1.76832852e-15 2.55550986e-13 6.34557149e-15 1.62437337e-12
3.01995172e+00 1.81301509e-12 1.51595343e-12 1.23287921e-15 2.95828777e-13 5.65063844e-15 1.51595343e-12
3.46736850e+00 1.73643558e-12 1.41477006e-12 8.03774027e-16 3.20861740e-13 4.62883256e-15 1.41477006e-12
3.98107171e+00 1.64953284e-12 1.32034025e-12 5.48025594e-16 3.28644564e-13 3.63682395e-15 1.32034025e-12
4.57088190e+00 1.55271614e-12 1.23221321e-12 3.38266663e-16 3.20164665e-13 2.58109621e-15 1.23221321e-12
5.24807460e+00 1.31903400e-12 1.01885146e-12 2.09501357e-16 2.99973040e-13 1.73204325e-15 1.01885146e-12
6.02559586e+00 9.48698163e-13 6.73148485e-13 8.88253759e-17 2.75460852e-13 1.07458390e-15 6.73148485e-13
6.70000000e+00 7.43202957e-13 4.89650796e-13 4.63494231e-17 2.53505811e-13 7.15973824e-16 4.89650796e-13
6.92422916e+00 6.90260075e-13 4.43605145e-13 4.02508758e-17 2.46614679e-13 6.18731750e-16 4.43605145e-13
7.15596261e+00 6.43774592e-13 4.01889522e-13 3.01715632e-17 2.41854898e-13 5.33785462e-16 4.01889522e-13
7.39545150e+00 6.06838029e-13 3.64096743e-13 2.34876718e-17 2.42717798e-13 4.52650326e-16 3.64096743e-13
7.64295536e+00 5.90535947e-13 3.29857910e-13 1.54239109e-17 2.60662613e-13 3.74923601e-16 3.29857910e-13
7.89874245e+00 6.03466106e-13 2.98838820e-13 9.17041533e-18 3.04618115e-13 2.95641213e-16 2.98838820e-13
8.16308998e+00 6.41403107e-13 2.70736695e-13 5.54522125e-18 3.70660867e-13 2.34063156e-16 2.70736695e-13
8.43628443e+00 7.08562058e-13 2.45277229e-13 3.12384129e-18 4.63281705e-13 1.76899615e-16 2.45277229e-13
8.71862190e+00 7.50632677e-13 2.22211915e-13 1.87842067e-18 5.28418884e-13 1.39802131e-16 2.22211915e-13
9.01040836e+00 8.00465689e-13 2.01315610e-13 1.29253231e-18 5.99148787e-13 1.07104360e-16 2.01315610e-13
9.31196005e+00 8.38883923e-13 1.82384346e-13 0.00000000e+00 6.56499577e-13 0.00000000e+00 1.82384346e-13
9.62360379e+00 8.19061616e-13 1.65233336e-13 0.00000000e+00 6.53828281e-13 0.00000000e+00 1.65233336e-13
9.94567731e+00 7.53637854e-13 1.49695167e-13 0.00000000e+00 6.03942687e-13 0.00000000e+00 1.49695167e-13
1.02785297e+01 6.81313024e-13 1.35618173e-13 0.00000000e+00 5.45694851e-13 0.00000000e+00 1.35618173e-13
1.06225216e+01 6.10814902e-13 1.22864947e-13 0.00000000e+00 4.87949955e-13 0.00000000e+00 1.22864947e-13
1.09780260e+01 5.38590368e-13 1.11311006e-13 0.00000000e+00 4.27279362e-13 0.00000000e+00 1.11311006e-13
1.13454280e+01 4.76984094e-13 1.00843571e-13 0.00000000e+00 3.76140522e-13 0.00000000e+00 1.00843571e-13
1.17251259e+01 4.23510166e-13 9.13604705e-14 0.00000000e+00 3.32149696e-13 0.00000000e+00 9.13604705e-14
1.21175312e+01 3.77111220e-13 8.27691389e-14 0.00000000e+00 2.94342081e-13 0.00000000e+00 8.27691389e-14
1.25230691e+01 3.34721252e-13 7.49857166e-14 0.00000000e+00 2.59735535e-13 0.00000000e+00 7.49857166e-14
1.29421791e+01 2.99507878e-13 6.79342298e-14 0.00000000e+00 2.31573649e-13 0.00000000e+00 6.79342298e-14
1.33753155e+01 2.69615798e-13 6.15458488e-14 0.00000000e+00 2.08069949e-13 0.00000000e+00 6.15458488e-14
1.38229477e+01 2.49345489e-13 5.57582167e-14 0.00000000e+00 1.93587272e-13 0.00000000e+00 5.57582167e-14
1.42855609e+01 2.35512089e-13 5.05148403e-14 0.00000000e+00 1.84997249e-13 0.00000000e+00 5.05148403e-14
1.47636563e+01 2.32609848e-13 4.57645392e-14 0.00000000e+00 1.86845308e-13 0.00000000e+00 4.57645392e-14
1.52577522e+01 2.32603509e-13 4.14609457e-14 0.00000000e+00 1.91142563e-13 0.00000000e+00 4.14609457e-14
1.57683840e+01 2.34856620e-13 3.75620523e-14 0.00000000e+00 1.97294568e-13 0.00000000e+00 3.75620523e-14
1.62961051e+01 2.37544031e-13 3.40298020e-14 0.00000000e+00 2.03514228e-13 0.00000000e+00 3.40298020e-14
1.68414875e+01 2.40735942e-13 3.08297166e-14 0.00000000e+00 2.09906226e-13 0.00000000e+00 3.08297166e-14
1.74051222e+01 2.40706816e-13 2.79305599e-14 0.00000000e+00 2.12776256e-13 0.00000000e+00 2.79305599e-14
1.79876201e+01 2.38526555e-13 2.53040334e-14 0.00000000e+00 2.13222522e-13 0.00000000e+00 2.53040334e-14
1.85896125e+01 2.33273111e-13 2.29244994e-14 0.00000000e+00 2.10348612e-13 0.00000000e+00 2.29244994e-14
1.92117518e+01 2.24656077e-13 2.07687314e-14 0.00000000e+00 2.03887345e-13 0.00000000e+00 2.07687314e-14
1.98547123e+01 2.15174860e-13 1.88156870e-14 0.00000000e+00 1.96359173e-13 0.00000000e+00 1.88156870e-14
2.05191907e+01 2.04049250e-13 1.70463024e-14 0.00000000e+00 1.87002948e-13 0.00000000e+00 1.70463024e-14
2.12059073e+01 1.95146433e-13 1.54433068e-14 0.00000000e+00 1.79703126e-13 0.00000000e+00 1.54433068e-14
2.19156062e+01 1.86793961e-13 1.39910532e-14 0.00000000e+00 1.72802908e-13 0.00000000e+00 1.39910532e-14
2.26490567e+01 1.78963255e-13 1.26753663e-14 0.00000000e+00 1.66287888e-13 0.00000000e+00 1.26753663e-14
2.34070535e+01 1.72729483e-13 1.14834036e-14 0.00000000e+00 1.61246079e-13 0.00000000e+00 1.14834036e-14
2.41904183e+01 1.66478297e-13 1.04035303e-14 0.00000000e+00 1.56074766e-13 0.00000000e+00 1.04035303e-14
2.50000000e+01 1.60607834e-13 9.42520591e-15 0.00000000e+00 1.51182628e-13 0.00000000e+00 9.42520591e-15
2.75422870e+01 1.45830516e-13 7.04872996e-15 0.00000000e+00 1.38781786e-13 0.00000000e+00 7.04872996e-15
3.16227766e+01 1.27619827e-13 4.65704970e-15 0.00000000e+00 1.22962778e-13 0.00000000e+00 4.65704970e-15
3.63078055e+01 1.08453996e-13 3.07688223e-15 0.00000000e+00 1.05377113e-13 0.00000000e+00 3.07688223e-15
4.16869383e+01 8.85834277e-14 2.03287593e-15 0.00000000e+00 8.65505518e-14 0.00000000e+00 2.03287593e-15
4.78630092e+01 6.85914888e-14 1.34310781e-15 0.00000000e+00 6.72483810e-14 0.00000000e+00 1.34310781e-15
5.49540874e+01 5.05682768e-14 8.87382527e-16 0.00000000e+00 4.96808943e-14 0.00000000e+00 8.87382527e-16
6.30957344e+01 3.55959207e-14 5.86287821e-16 0.00000000e+00 3.50096329e-14 0.00000000e+00 5.86287821e-16
7.24435960e+01 2.40167947e-14 3.87356522e-16 0.00000000e+00 2.36294381e-14 0.00000000e+00 3.87356522e-16
8.31763771e+01 1.56302843e-14 2.55923916e-16 0.00000000e+00 1.53743604e-14 0.00000000e+00 2.55923916e-16
9.54992586e+01 9.85300528e-15 1.69087255e-16 0.00000000e+00 9.68391802e-15 0.00000000e+00 1.69087255e-16
1.09647820e+02 6.04712459e-15 1.11714841e-16 0.00000000e+00 5.93540975e-15 0.00000000e+00 1.11714841e-16
1.25892541e+02 3.66189015e-15 7.38092637e-17 0.00000000e+00 3.58808089e-15 0.00000000e+00 7.38092637e-17
1.44543977e+02 2.17979002e-15 4.87652969e-17 0.00000000e+00 2.13102472e-15 0.00000000e+00 4.87652969e-17
1.65958691e+02 1.22790165e-15 3.22189122e-17 0.00000000e+00 1.19568274e-15 0.00000000e+00 3.22189122e-17
1.90546072e+02 6.86043922e-16 2.12868242e-17 0.00000000e+00 6.64757098e-16 0.00000000e+00 2.12868242e-17
2.18776162e+02 3.79843739e-16 1.40640653e-17 0.00000000e+00 3.65779674e-16 0.00000000e+00 1.40640653e-17
2.51188643e+02 2.08401329e-16 9.29203577e-18 0.00000000e+00 1.99109293e-16 0.00000000e+00 9.29203577e-18
2.88403150e+02 1.13331252e-16 6.13918715e-18 0.00000000e+00 1.07192065e-16 0.00000000e+00 6.13918715e-18
3.31131121e+02 6.12870030e-17 4.05612073e-18 0.00000000e+00 5.72308823e-17 0.00000000e+00 4.05612073e-18
3.80189396e+02 3.29766741e-17 2.67985239e-18 0.00000000e+00 3.02968217e-17 0.00000000e+00 2.67985239e-18
4.36515832e+02 1.77051235e-17 1.77056092e-18 0.00000000e+00 1.59345626e-17 0.00000000e+00 1.77056092e-18
5.01187234e+02 9.49851649e-18 1.16979800e-18 0.00000000e+00 8.32871849e-18 0.00000000e+00 1.16979800e-18
5.75439937e+02 5.10348260e-18 7.72877871e-19 0.00000000e+00 4.33060473e-18 0.00000000e+00 7.72877871e-19
6.60693448e+02 2.75232078e-18 5.10635346e-19 0.00000000e+00 2.24168544e-18 0.00000000e+00 5.10635346e-19
7.58577575e+02 1.49326977e-18 3.37373427e-19 0.00000000e+00 1.15589635e-18 0.00000000e+00 3.37373427e-19
8.70963590e+02 8.16783378e-19 2.22900413e-19 0.00000000e+00 5.93882965e-19 0.00000000e+00 2.22900413e-19
1.00000000e+03 3.04144814e-19 0.00000000e+00 0.00000000e+00 3.04144814e-19 0.00000000e+00 0.00000000e+00
