# column 1: lambda (micron)
# column 2: total flux; lambda*F_lambda (W/m2)
# column 3: direct stellar flux; lambda*F_lambda (W/m2)
# column 4: scattered stellar flux; lambda*F_lambda (W/m2)
# column 5: total dust emission flux; lambda*F_lambda (W/m2)
# column 6: dust emission scattered flux; lambda*F_lambda (W/m2)
# column 7: transparent flux; lambda*F_lambda (W/m2)
1.00000000e-03 8.46530098e-13 8.46529401e-13 6.97444471e-19 0.00000000e+00 0.00000000e+00 8.46529401e-13
1.14815362e-03 9.99177238e-13 9.99176121e-13 1.11703607e-18 0.00000000e+00 0.00000000e+00 9.99176121e-13
1.31825674e-03 1.17934993e-12 1.17934819e-12 1.73143040e-18 0.00000000e+00 0.00000000e+00 1.17934819e-12
1.51356125e-03 1.39201189e-12 1.39200901e-12 2.88477595e-18 0.00000000e+00 0.00000000e+00 1.39200901e-12
1.73780083e-03 1.64302212e-12 1.64301696e-12 5.15760881e-18 0.00000000e+00 0.00000000e+00 1.64301696e-12
1.99526231e-03 1.93929627e-12 1.93928682e-12 9.44483989e-18 0.00000000e+00 0.00000000e+00 1.93928682e-12
2.29086765e-03 2.28899453e-12 2.28898025e-12 1.42805891e-17 0.00000000e+00 0.00000000e+00 2.28898025e-12
2.63026799e-03 2.70176071e-12 2.70173063e-12 3.00784466e-17 0.00000000e+00 0.00000000e+00 2.70173063e-12
3.01995172e-03 3.18896056e-12 3.18890841e-12 5.21504131e-17 0.00000000e+00 0.00000000e+00 3.18890841e-12
3.46736850e-03 3.76402221e-12 3.76393440e-12 8.78040497e-17 0.00000000e+00 0.00000000e+00 3.76393440e-12
3.98107171e-03 4.44278693e-12 4.44264945e-12 1.37479310e-16 0.00000000e+00 0.00000000e+00 4.44264945e-12
4.57088190e-03 5.24404825e-12 5.24375082e-12 2.97431307e-16 0.00000000e+00 0.00000000e+00 5.24375082e-12
5.24807460e-03 6.18985534e-12 6.18930730e-12 5.48032499e-16 0.00000000e+00 0.00000000e+00 6.18930730e-12
6.02559586e-03 7.30640913e-12 7.30536713e-12 1.04200081e-15 0.00000000e+00 0.00000000e+00 7.30536713e-12
6.91830971e-03 8.62438801e-12 8.62267558e-12 1.71243794e-15 0.00000000e+00 0.00000000e+00 8.62267558e-12
7.94328235e-03 1.01804462e-11 1.01775219e-11 2.92426497e-15 1.36553752e-303 8.74784502e-306 1.01775219e-11
9.12010839e-03 1.20170373e-11 1.20127391e-11 4.29820580e-15 6.08100008e-265 1.75097900e-266 1.20127391e-11
1.04712855e-02 1.34229500e-11 1.34165878e-11 6.36211710e-15 2.50419998e-231 2.27525190e-233 1.34165878e-11
1.20226443e-02 1.34278817e-11 1.34165878e-11 1.12938957e-14 3.91478649e-202 4.86992587e-204 1.34165878e-11
1.38038426e-02 1.34296466e-11 1.34165878e-11 1.30587350e-14 1.06686917e-176 1.95155491e-178 1.34165878e-11
1.58489319e-02 1.34401771e-11 1.34165878e-11 2.35892210e-14 1.44551339e-154 3.62154563e-156 1.34165878e-11
1.81970086e-02 1.34446744e-11 1.34165878e-11 2.80865123e-14 2.57850292e-135 7.75721880e-137 1.34165878e-11
2.08929613e-02 1.34526447e-11 1.34165878e-11 3.60568188e-14 1.34535456e-118 4.50901348e-120 1.34165878e-11
2.39883292e-02 1.34649225e-11 1.34165878e-11 4.83346795e-14 4.71400075e-104 1.73845325e-105 1.34165878e-11
2.75422870e-02 1.34800699e-11 1.34165878e-11 6.34820571e-14 2.11330251e-91 9.32661387e-93 1.34165878e-11
3.16227766e-02 1.34975595e-11 1.34165878e-11 8.09716611e-14 2.06282876e-80 1.03731398e-81 1.34165878e-11
3.63078055e-02 1.35104415e-11 1.34165878e-11 9.38537056e-14 7.14766249e-71 3.85617493e-72 1.34165878e-11
4.16869383e-02 1.35393275e-11 1.34165878e-11 1.22739644e-13 1.37109780e-62 9.50191541e-64 1.34165878e-11
4.78630092e-02 1.35775089e-11 1.34165878e-11 1.60921085e-13 2.07103751e-55 1.62147956e-56 1.34165878e-11
5.49540874e-02 1.36092140e-11 1.34165878e-11 1.92626200e-13 3.43634594e-49 2.96245626e-50 1.34165878e-11
6.30957344e-02 1.36319701e-11 1.34165878e-11 2.15382305e-13 1.09506956e-43 9.72239188e-45 1.34165878e-11
7.24435960e-02 1.36146684e-11 1.34165878e-11 1.98080598e-13 6.22380362e-39 4.97206528e-40 1.34165878e-11
8.31763771e-02 1.36093994e-11 1.34165878e-11 1.92811522e-13 6.35926991e-35 4.97070611e-36 1.34165878e-11
9.54992586e-02 1.36249334e-11 1.34165878e-11 2.08345566e-13 1.79569432e-31 1.44091173e-32 1.34165878e-11
1.09647820e-01 1.30302083e-11 1.28127470e-11 2.17461387e-13 1.54490609e-28 1.39065291e-29 1.28127470e-11
1.25892541e-01 1.21601698e-11 1.19575512e-11 2.02618553e-13 5.06180306e-26 4.68916404e-27 1.19575512e-11
1.44543977e-01 1.13459596e-11 1.11594361e-11 1.86523558e-13 6.92704651e-24 6.26547992e-25 1.11594361e-11
1.65958691e-01 1.06069143e-11 1.04145917e-11 1.92322530e-13 3.53273914e-22 3.48487855e-23 1.04145917e-11
1.90546072e-01 9.92901135e-12 9.71946251e-12 2.09548828e-13 7.45744875e-21 8.39327998e-22 9.71946251e-12
2.18776162e-01 9.27494668e-12 9.07073019e-12 2.04216394e-13 8.75488100e-20 9.82786474e-21 9.07073019e-12
2.51188643e-01 8.70254385e-12 8.46529796e-12 2.37244808e-13 1.07694153e-18 1.44429929e-19 8.46529796e-12
2.88403150e-01 8.12246373e-12 7.90027573e-12 2.22178980e-13 9.01339832e-18 1.20714954e-18 7.90027573e-12
3.31131121e-01 7.57226777e-12 7.37296631e-12 1.99249703e-13 5.17575830e-17 6.79424563e-18 7.37296631e-12
3.80189396e-01 7.05845591e-12 6.88085251e-12 1.77387625e-13 2.15767444e-16 2.74180200e-17 6.88085251e-12
4.36515832e-01 6.58986763e-12 6.42158520e-12 1.67597804e-13 6.84628128e-16 8.56395477e-17 6.42158520e-12
5.01187234e-01 6.15076606e-12 5.99297201e-12 1.56064115e-13 1.72993362e-15 2.16505645e-16 5.99297201e-12
5.75439937e-01 5.73783551e-12 5.59296690e-12 1.41146109e-13 3.72250125e-15 4.78038050e-16 5.59296690e-12
6.60693448e-01 5.35344939e-12 5.21966041e-12 1.26416223e-13 7.37275261e-15 1.03918863e-15 5.21966041e-12
7.58577575e-01 4.99943692e-12 4.87127053e-12 1.13261267e-13 1.49051270e-14 2.38966324e-15 4.87127053e-12
8.70963590e-01 4.67567565e-12 4.54613417e-12 9.73553209e-14 3.21861539e-14 5.68502764e-15 4.54613417e-12
1.00000000e+00 4.39660837e-12 4.24269927e-12 8.33330940e-14 7.05760115e-14 1.26464346e-14 4.24269927e-12
1.14815362e+00 4.17890670e-12 3.95951734e-12 6.90486701e-14 1.50340691e-13 2.53214136e-14 3.95951734e-12
1.31825674e+00 4.05326763e-12 3.69523659e-12 5.43737785e-14 3.03657267e-13 4.52748948e-14 3.69523659e-12
1.51356125e+00 4.04486840e-12 3.44859544e-12 4.20781099e-14 5.54194854e-13 7.10273619e-14 3.44859544e-12
1.73780083e+00 4.16361077e-12 3.21841652e-12 3.10423599e-14 9.14151891e-13 9.72476356e-14 3.21841652e-12
1.99526231e+00 4.38297222e-12 3.00360106e-12 2.27886873e-14 1.35658248e-12 1.14937773e-13 3.00360106e-12
2.29086765e+00 4.64445580e-12 2.80312361e-12 1.57677017e-14 1.82556449e-12 1.19298911e-13 2.80312361e-12
2.63026799e+00 4.86471628e-12 2.61602716e-12 1.10640077e-14 2.23762511e-12 1.12771842e-13 2.61602716e-12
3.01995172e+00 5.03107563e-12 2.44141860e-12 7.68970408e-15 2.58196733e-12 9.99568795e-14 2.44141860e-12
3.46736850e+00 5.08876994e-12 2.27846441e-12 5.32184145e-15 2.80498369e-12 8.31139023e-14 2.27846441e-12
3.98107171e+00 5.06096813e-12 2.12638671e-12 3.66786707e-15 2.93091355e-12 6.59966036e-14 2.12638671e-12
4.57088190e+00 4.93000954e-12 1.98445954e-12 2.52866913e-15 2.94302133e-12 4.97602741e-14 1.98445954e-12
5.24807460e+00 4.54491368e-12 1.64084388e-12 1.47914850e-15 2.90259065e-12 3.48499335e-14 1.64084388e-12
6.02559586e+00 3.90320002e-12 1.08409480e-12 6.63574542e-16 2.81844164e-12 2.37075766e-14 1.08409480e-12
6.70000000e+00 3.52946661e-12 7.88574724e-13 3.51515866e-16 2.74054037e-12 1.67802600e-14 7.88574724e-13
6.92422916e+00 3.42524502e-12 7.14418944e-13 2.87445726e-16 2.71053863e-12 1.49756448e-14 7.14418944e-13
7.15596261e+00 3.34099184e-12 6.47236606e-13 2.22490345e-16 2.69353275e-12 1.31619890e-14 6.47236606e-13
7.39545150e+00 3.30298463e-12 5.86371942e-13 1.69172020e-16 2.71644352e-12 1.12104540e-14 5.86371942e-13
7.64295536e+00 3.36465329e-12 5.31230854e-13 1.17158158e-16 2.83330528e-12 9.09304086e-15 5.31230854e-13
7.89874245e+00 3.59087005e-12 4.81275108e-13 6.82905582e-17 3.10952665e-12 6.75332926e-15 4.81275108e-13
8.16308998e+00 3.96206091e-12 4.36017088e-13 3.87621465e-17 3.52600506e-12 4.92433488e-15 4.36017088e-13
8.43628443e+00 4.47483684e-12 3.95015029e-13 2.10309375e-17 4.07980078e-12 3.55181784e-15 3.95015029e-13
8.71862190e+00 4.83586020e-12 3.57868711e-13 1.36174403e-17 4.47797787e-12 2.75047360e-15 3.57868711e-13
9.01040836e+00 5.17865810e-12 3.24215549e-13 8.68805232e-18 4.85443387e-12 2.11764093e-15 3.24215549e-13
9.31196005e+00 5.45156282e-12 2.93727053e-13 0.00000000e+00 5.15783576e-12 0.00000000e+00 2.93727053e-13
9.62360379e+00 5.44159432e-12 2.66105627e-13 0.00000000e+00 5.17548870e-12 0.00000000e+00 2.66105627e-13
9.94567731e+00 5.11755197e-12 2.41081657e-13 0.00000000e+00 4.87647032e-12 0.00000000e+00 2.41081657e-13
1.02785297e+01 4.80805473e-12 2.18410884e-13 0.00000000e+00 4.58964385e-12 0.00000000e+00 2.18410884e-13
1.06225216e+01 4.49045830e-12 1.97872020e-13 0.00000000e+00 4.29258628e-12 0.00000000e+00 1.97872020e-13
1.09780260e+01 4.11784462e-12 1.79264583e-13 0.00000000e+00 3.93858004e-12 0.00000000e+00 1.79264583e-13
1.13454280e+01 3.77268687e-12 1.62406948e-13 0.00000000e+00 3.61027993e-12 0.00000000e+00 1.62406948e-13
1.17251259e+01 3.55237118e-12 1.47134567e-13 0.00000000e+00 3.40523661e-12 0.00000000e+00 1.47134567e-13
1.21175312e+01 3.33886404e-12 1.33298366e-13 0.00000000e+00 3.20556567e-12 0.00000000e+00 1.33298366e-13
1.25230691e+01 3.15466604e-12 1.20763289e-13 0.00000000e+00 3.03390275e-12 0.00000000e+00 1.20763289e-13
1.29421791e+01 2.98183562e-12 1.09406983e-13 0.00000000e+00 2.87242864e-12 0.00000000e+00 1.09406983e-13
1.33753155e+01 2.85266045e-12 9.91185987e-14 0.00000000e+00 2.75354185e-12 0.00000000e+00 9.91185987e-14
1.38229477e+01 2.75798124e-12 8.97977103e-14 0.00000000e+00 2.66818353e-12 0.00000000e+00 8.97977103e-14
1.42855609e+01 2.72399761e-12 8.13533371e-14 0.00000000e+00 2.64264427e-12 0.00000000e+00 8.13533371e-14
1.47636563e+01 2.75571347e-12 7.37030537e-14 0.00000000e+00 2.68201042e-12 0.00000000e+00 7.37030537e-14
1.52577522e+01 2.78667855e-12 6.67721855e-14 0.00000000e+00 2.71990636e-12 0.00000000e+00 6.67721855e-14
1.57683840e+01 2.83961544e-12 6.04930805e-14 0.00000000e+00 2.77912236e-12 0.00000000e+00 6.04930805e-14
1.62961051e+01 2.89844433e-12 5.48044484e-14 0.00000000e+00 2.84363988e-12 0.00000000e+00 5.48044484e-14
1.68414875e+01 2.93557363e-12 4.96507622e-14 0.00000000e+00 2.88592286e-12 0.00000000e+00 4.96507622e-14
1.74051222e+01 2.96184912e-12 4.49817171e-14 0.00000000e+00 2.91686741e-12 0.00000000e+00 4.49817171e-14
1.79876201e+01 2.98281026e-12 4.07517384e-14 0.00000000e+00 2.94205852e-12 0.00000000e+00 4.07517384e-14
1.85896125e+01 2.96803226e-12 3.69195372e-14 0.00000000e+00 2.93111273e-12 0.00000000e+00 3.69195372e-14
1.92117518e+01 2.92086761e-12 3.34477076e-14 0.00000000e+00 2.88741990e-12 0.00000000e+00 3.34477076e-14
1.98547123e+01 2.86161223e-12 3.03023610e-14 0.00000000e+00 2.83130987e-12 0.00000000e+00 3.03023610e-14
2.05191907e+01 2.78906828e-12 2.74527957e-14 0.00000000e+00 2.76161548e-12 0.00000000e+00 2.74527957e-14
2.12059073e+01 2.71256363e-12 2.48711970e-14 0.00000000e+00 2.68769243e-12 0.00000000e+00 2.48711970e-14
2.19156062e+01 2.64428351e-12 2.25323660e-14 0.00000000e+00 2.62175115e-12 0.00000000e+00 2.25323660e-14
2.26490567e+01 2.56379251e-12 2.04134733e-14 0.00000000e+00 2.54337903e-12 0.00000000e+00 2.04134733e-14
2.34070535e+01 2.49227145e-12 1.84938366e-14 0.00000000e+00 2.47377761e-12 0.00000000e+00 1.84938366e-14
2.41904183e+01 2.43686614e-12 1.67547181e-14 0.00000000e+00 2.42011142e-12 0.00000000e+00 1.67547181e-14
2.50000000e+01 2.34952983e-12 1.51791424e-14 0.00000000e+00 2.33435069e-12 0.00000000e+00 1.51791424e-14
2.75422870e+01 2.13682962e-12 1.13518661e-14 0.00000000e+00 2.12547775e-12 0.00000000e+00 1.13518661e-14
3.16227766e+01 1.76628051e-12 7.50010357e-15 0.00000000e+00 1.75878041e-12 0.00000000e+00 7.50010357e-15
3.63078055e+01 1.39226366e-12 4.95526929e-15 0.00000000e+00 1.38730839e-12 0.00000000e+00 4.95526929e-15
4.16869383e+01 1.02440122e-12 3.27391395e-15 0.00000000e+00 1.02112730e-12 0.00000000e+00 3.27391395e-15
4.78630092e+01 7.08376499e-13 2.16305350e-15 0.00000000e+00 7.06213445e-13 0.00000000e+00 2.16305350e-15
5.49540874e+01 4.60964344e-13 1.42911527e-15 0.00000000e+00 4.59535228e-13 0.00000000e+00 1.42911527e-15
6.30957344e+01 2.86620610e-13 9.44207098e-16 0.00000000e+00 2.85676403e-13 0.00000000e+00 9.44207098e-16
7.24435960e+01 1.70650335e-13 6.23831443e-16 0.00000000e+00 1.70026504e-13 0.00000000e+00 6.23831443e-16
8.31763771e+01 9.84034328e-14 4.12161347e-16 0.00000000e+00 9.79912715e-14 0.00000000e+00 4.12161347e-16
9.54992586e+01 5.54697716e-14 2.72312302e-16 0.00000000e+00 5.51974593e-14 0.00000000e+00 2.72312302e-16
1.09647820e+02 3.07061117e-14 1.79914953e-16 0.00000000e+00 3.05261968e-14 0.00000000e+00 1.79914953e-16
1.25892541e+02 1.69489125e-14 1.18868631e-16 0.00000000e+00 1.68300439e-14 0.00000000e+00 1.18868631e-16
1.44543977e+02 9.29425576e-15 7.85357256e-17 0.00000000e+00 9.21572003e-15 0.00000000e+00 7.85357256e-17
1.65958691e+02 4.86228742e-15 5.18880394e-17 0.00000000e+00 4.81039938e-15 0.00000000e+00 5.18880394e-17
1.90546072e+02 2.54476636e-15 3.42820876e-17 0.00000000e+00 2.51048427e-15 0.00000000e+00 3.42820876e-17
2.18776162e+02 1.33004284e-15 2.26499507e-17 0.00000000e+00 1.30739289e-15 0.00000000e+00 2.26499507e-17
2.51188643e+02 6.93359431e-16 1.49646740e-17 0.00000000e+00 6.78394757e-16 0.00000000e+00 1.49646740e-17
2.88403150e+02 3.60280863e-16 9.88706207e-18 0.00000000e+00 3.50393801e-16 0.00000000e+00 9.88706207e-18
3.31131121e+02 1.87020339e-16 6.53231713e-18 0.00000000e+00 1.80488022e-16 0.00000000e+00 6.53231713e-18
3.80189396e+02 9.69485365e-17 4.31585913e-18 0.00000000e+00 9.26326773e-17 0.00000000e+00 4.31585913e-18
4.36515832e+02 5.02812463e-17 2.85145985e-18 0.00000000e+00 4.74297864e-17 0.00000000e+00 2.85145985e-18
5.01187234e+02 2.61058118e-17 1.88394084e-18 0.00000000e+00 2.42218710e-17 0.00000000e+00 1.88394084e-18
5.75439937e+02 1.35891241e-17 1.24470737e-18 0.00000000e+00 1.23444168e-17 0.00000000e+00 1.24470737e-18
6.60693448e+02 7.10230254e-18 8.22370004e-19 0.00000000e+00 6.27993254e-18 0.00000000e+00 8.22370004e-19
7.58577575e+02 3.73323447e-18 5.43334473e-19 0.00000000e+00 3.18990000e-18 0.00000000e+00 5.43334473e-19
8.70963590e+02 1.97669209e-18 3.58977527e-19 0.00000000e+00 1.61771457e-18 0.00000000e+00 3.58977527e-19
1.00000000e+03 8.19184409e-19 0.00000000e+00 0.00000000e+00 8.19184409e-19 0.00000000e+00 0.00000000e+00
