# column 1: lambda (micron)
# column 2: total flux; lambda*F_lambda (W/m2)
# column 3: direct stellar flux; lambda*F_lambda (W/m2)
# column 4: scattered stellar flux; lambda*F_lambda (W/m2)
# column 5: total dust emission flux; lambda*F_lambda (W/m2)
# column 6: dust emission scattered flux; lambda*F_lambda (W/m2)
# column 7: transparent flux; lambda*F_lambda (W/m2)
1.00000000e-03 1.04634396e-12 1.04634360e-12 3.52615390e-19 0.00000000e+00 0.00000000e+00 1.04634360e-12
1.14815362e-03 1.23502151e-12 1.23502095e-12 5.60222229e-19 0.00000000e+00 0.00000000e+00 1.23502095e-12
1.31825674e-03 1.45772160e-12 1.45772071e-12 8.88124796e-19 0.00000000e+00 0.00000000e+00 1.45772071e-12
1.51356125e-03 1.72057922e-12 1.72057784e-12 1.38735507e-18 0.00000000e+00 0.00000000e+00 1.72057784e-12
1.73780083e-03 2.03083604e-12 2.03083353e-12 2.51587634e-18 0.00000000e+00 0.00000000e+00 2.03083353e-12
1.99526231e-03 2.39703913e-12 2.39703472e-12 4.41357229e-18 0.00000000e+00 0.00000000e+00 2.39703472e-12
2.29086765e-03 2.82927632e-12 2.82926954e-12 6.78041884e-18 0.00000000e+00 0.00000000e+00 2.82926954e-12
2.63026799e-03 3.33945903e-12 3.33944522e-12 1.38024611e-17 0.00000000e+00 0.00000000e+00 3.33944522e-12
3.01995172e-03 3.94163916e-12 3.94161611e-12 2.30531595e-17 0.00000000e+00 0.00000000e+00 3.94161611e-12
3.46736850e-03 4.65240945e-12 4.65237083e-12 3.86147647e-17 0.00000000e+00 0.00000000e+00 4.65237083e-12
3.98107171e-03 5.49135192e-12 5.49128930e-12 6.26282431e-17 0.00000000e+00 0.00000000e+00 5.49128930e-12
4.57088190e-03 6.48162120e-12 6.48148207e-12 1.39131038e-16 0.00000000e+00 0.00000000e+00 6.48148207e-12
5.24807460e-03 7.65047918e-12 7.65022704e-12 2.52142658e-16 0.00000000e+00 0.00000000e+00 7.65022704e-12
6.02559586e-03 9.03015935e-12 9.02972084e-12 4.38503902e-16 0.00000000e+00 0.00000000e+00 9.02972084e-12
6.91830971e-03 1.06586660e-11 1.06579658e-11 7.00180429e-16 0.00000000e+00 0.00000000e+00 1.06579658e-11
7.94328235e-03 1.25809614e-11 1.25798170e-11 1.14438336e-15 0.00000000e+00 0.00000000e+00 1.25798170e-11
9.12010839e-03 1.48501429e-11 1.48482176e-11 1.92525413e-15 0.00000000e+00 0.00000000e+00 1.48482176e-11
1.04712855e-02 1.65859551e-11 1.65834298e-11 2.52533295e-15 0.00000000e+00 0.00000000e+00 1.65834298e-11
1.20226443e-02 1.65876442e-11 1.65834298e-11 4.21442996e-15 1.44494144e-311 6.61809214e-312 1.65834298e-11
1.38038426e-02 1.65901404e-11 1.65834298e-11 6.71062878e-15 3.48116429e-272 1.50149049e-272 1.65834298e-11
1.58489319e-02 1.65922009e-11 1.65834298e-11 8.77116307e-15 6.27486336e-238 2.40524371e-238 1.65834298e-11
1.81970086e-02 1.65936916e-11 1.65834298e-11 1.02618051e-14 4.66419571e-208 1.95940291e-208 1.65834298e-11
2.08929613e-02 1.65982919e-11 1.65834298e-11 1.48620881e-14 3.88100887e-182 1.50035107e-182 1.65834298e-11
2.39883292e-02 1.66026616e-11 1.65834298e-11 1.92317934e-14 1.40961822e-159 5.14776072e-160 1.65834298e-11
2.75422870e-02 1.66109837e-11 1.65834298e-11 2.75539272e-14 6.07385089e-140 2.17938025e-140 1.65834298e-11
3.16227766e-02 1.66187365e-11 1.65834298e-11 3.53066936e-14 6.95242902e-123 2.25520947e-123 1.65834298e-11
3.63078055e-02 1.66220013e-11 1.65834298e-11 3.85715442e-14 4.72477249e-108 1.44524119e-108 1.65834298e-11
4.16869383e-02 1.66401716e-11 1.65834298e-11 5.67418106e-14 3.80652587e-95 1.18093755e-95 1.65834298e-11
4.78630092e-02 1.66598550e-11 1.65834298e-11 7.64252546e-14 5.70690992e-84 1.69843152e-84 1.65834298e-11
5.49540874e-02 1.66776813e-11 1.65834298e-11 9.42514877e-14 2.77164069e-74 7.71797410e-75 1.65834298e-11
6.30957344e-02 1.67000447e-11 1.65834298e-11 1.16614931e-13 8.67144592e-66 2.10577305e-66 1.65834298e-11
7.24435960e-02 1.66929929e-11 1.65834298e-11 1.09563133e-13 1.99148725e-58 3.87329065e-59 1.65834298e-11
8.31763771e-02 1.66950380e-11 1.65834298e-11 1.11608239e-13 4.81382537e-52 8.94844643e-53 1.65834298e-11
9.54992586e-02 1.67042473e-11 1.65834298e-11 1.20817541e-13 1.84629823e-46 3.26496471e-47 1.65834298e-11
1.09647820e-01 1.59605312e-11 1.58370587e-11 1.23472460e-13 1.45267699e-41 2.75562603e-42 1.58370587e-11
1.25892541e-01 1.48888134e-11 1.47800032e-11 1.08810201e-13 2.83305930e-37 5.22479284e-38 1.47800032e-11
1.44543977e-01 1.38955732e-11 1.37935015e-11 1.02071660e-13 1.50878635e-33 2.54570959e-34 1.37935015e-11
1.65958691e-01 1.29809345e-11 1.28728446e-11 1.08089901e-13 1.99753831e-30 3.49310817e-31 1.28728446e-11
1.90546072e-01 1.21380907e-11 1.20136376e-11 1.24453059e-13 7.37289153e-28 1.42759604e-28 1.20136376e-11
2.18776162e-01 1.13370332e-11 1.12117790e-11 1.25254234e-13 1.07312449e-25 2.13471175e-26 1.12117790e-11
2.51188643e-01 1.06147453e-11 1.04634409e-11 1.51304378e-13 1.31981050e-23 3.17837195e-24 1.04634409e-11
2.88403150e-01 9.90604360e-12 9.76505125e-12 1.40992350e-13 8.36006124e-22 2.04321577e-22 9.76505125e-12
3.31131121e-01 9.23991662e-12 9.11327608e-12 1.26640514e-13 2.90718343e-20 7.14626648e-21 9.11327608e-12
3.80189396e-01 8.62000173e-12 8.50500410e-12 1.14997024e-13 6.06949502e-19 1.48129758e-19 8.50500410e-12
4.36515832e-01 8.04429387e-12 7.93733165e-12 1.06954041e-13 8.18198717e-18 2.00692085e-18 7.93733165e-12
5.01187234e-01 7.51104116e-12 7.40754890e-12 1.03417464e-13 7.47942371e-17 1.84328109e-17 7.40754890e-12
5.75439937e-01 7.00862599e-12 6.91312687e-12 9.50116258e-14 4.87493447e-16 1.19196955e-16 6.91312687e-12
6.60693448e-01 6.54388798e-12 6.45170538e-12 8.98159757e-14 2.36661903e-15 5.70129014e-16 6.45170538e-12
7.58577575e-01 6.11234402e-12 6.02108180e-12 8.22189142e-14 9.04331466e-15 2.12066325e-15 6.02108180e-12
8.70963590e-01 5.72115721e-12 5.61920048e-12 7.40086231e-14 2.79481071e-14 6.21685841e-15 5.61920048e-12
1.00000000e+00 5.38088651e-12 5.24414302e-12 6.46922112e-14 7.20512826e-14 1.49575199e-14 5.24414302e-12
1.14815362e+00 5.11026806e-12 4.89411902e-12 5.42972305e-14 1.61851807e-13 3.01886403e-14 4.89411902e-12
1.31825674e+00 4.93493803e-12 4.56745763e-12 4.47305331e-14 3.22749873e-13 5.22880924e-14 4.56745763e-12
1.51356125e+00 4.86781609e-12 4.26259947e-12 3.39396041e-14 5.71277013e-13 7.89999131e-14 4.26259947e-12
1.73780083e+00 4.90500047e-12 3.97808929e-12 2.56829699e-14 9.01228209e-13 1.01934840e-13 3.97808929e-12
1.99526231e+00 4.99628336e-12 3.71256894e-12 1.84112824e-14 1.26530313e-12 1.12291807e-13 3.71256894e-12
2.29086765e+00 5.08603724e-12 3.46477093e-12 1.29530516e-14 1.60831325e-12 1.08902221e-13 3.46477093e-12
2.63026799e+00 5.11211289e-12 3.23351237e-12 8.84357751e-15 1.86975694e-12 9.58147491e-14 3.23351237e-12
3.01995172e+00 5.04036098e-12 3.01768933e-12 6.26676273e-15 2.01640489e-12 7.68087854e-14 3.01768933e-12
3.46736850e+00 4.87637682e-12 2.81627154e-12 4.25726815e-15 2.05584801e-12 5.82221432e-14 2.81627154e-12
3.98107171e+00 4.61124687e-12 2.62829753e-12 2.84108483e-15 1.98010826e-12 4.11740221e-14 2.62829753e-12
4.57088190e+00 4.29570263e-12 2.45286997e-12 1.86273139e-15 1.84096992e-12 2.75434592e-14 2.45286997e-12
5.24807460e+00 3.69839274e-12 2.02814751e-12 1.06706815e-15 1.66917816e-12 1.73656579e-14 2.02814751e-12
6.02559586e+00 2.83873342e-12 1.33998377e-12 4.59708767e-16 1.49828994e-12 1.04411780e-14 1.33998377e-12
6.70000000e+00 2.34580921e-12 9.74709347e-13 2.32725440e-16 1.37086714e-12 6.75572153e-15 9.74709347e-13
6.92422916e+00 2.21220340e-12 8.83049889e-13 1.88926117e-16 1.32896458e-12 5.85707091e-15 8.83049889e-13
7.15596261e+00 2.10559876e-12 8.00009879e-13 1.53322759e-16 1.30543556e-12 5.02511899e-15 8.00009879e-13
7.39545150e+00 2.03475138e-12 7.24778763e-13 1.17572620e-16 1.30985505e-12 4.28131044e-15 7.24778763e-13
7.64295536e+00 2.06324672e-12 6.56622211e-13 7.98559974e-17 1.40654466e-12 3.57453078e-15 6.56622211e-13
7.89874245e+00 2.22525734e-12 5.94874946e-13 5.07293467e-17 1.63033167e-12 2.88873106e-15 5.94874946e-13
8.16308998e+00 2.49467349e-12 5.38934254e-13 2.91275978e-17 1.95571010e-12 2.31181337e-15 5.38934254e-13
8.43628443e+00 2.86654520e-12 4.88254098e-13 1.67698033e-17 2.37827433e-12 1.78061166e-15 4.88254098e-13
8.71862190e+00 3.10538009e-12 4.42339790e-13 1.06887398e-17 2.66302962e-12 1.41370453e-15 4.42339790e-13
9.01040836e+00 3.33578159e-12 4.00743158e-13 7.04902533e-18 2.93503138e-12 1.10302658e-15 4.00743158e-13
9.31196005e+00 3.48054354e-12 3.63058180e-13 0.00000000e+00 3.11748536e-12 0.00000000e+00 3.63058180e-13
9.62360379e+00 3.41791624e-12 3.28917012e-13 0.00000000e+00 3.08899923e-12 0.00000000e+00 3.28917012e-13
9.94567731e+00 3.17428013e-12 2.97986401e-13 0.00000000e+00 2.87629373e-12 0.00000000e+00 2.97986401e-13
1.02785297e+01 2.89802473e-12 2.69964435e-13 0.00000000e+00 2.62806030e-12 0.00000000e+00 2.69964435e-13
1.06225216e+01 2.63061622e-12 2.44577592e-13 0.00000000e+00 2.38603863e-12 0.00000000e+00 2.44577592e-13
1.09780260e+01 2.35044977e-12 2.21578069e-13 0.00000000e+00 2.12887170e-12 0.00000000e+00 2.21578069e-13
1.13454280e+01 2.10505963e-12 2.00741370e-13 0.00000000e+00 1.90431826e-12 0.00000000e+00 2.00741370e-13
1.17251259e+01 1.89559088e-12 1.81864106e-13 0.00000000e+00 1.71372677e-12 0.00000000e+00 1.81864106e-13
1.21175312e+01 1.70784468e-12 1.64762018e-13 0.00000000e+00 1.54308266e-12 0.00000000e+00 1.64762018e-13
1.25230691e+01 1.54028405e-12 1.49268171e-13 0.00000000e+00 1.39101588e-12 0.00000000e+00 1.49268171e-13
1.29421791e+01 1.40306719e-12 1.35231331e-13 0.00000000e+00 1.26783586e-12 0.00000000e+00 1.35231331e-13
1.33753155e+01 1.27909331e-12 1.22514483e-13 0.00000000e+00 1.15657883e-12 0.00000000e+00 1.22514483e-13
1.38229477e+01 1.20294788e-12 1.10993499e-13 0.00000000e+00 1.09195438e-12 0.00000000e+00 1.10993499e-13
1.42855609e+01 1.15165286e-12 1.00555922e-13 0.00000000e+00 1.05109694e-12 0.00000000e+00 1.00555922e-13
1.47636563e+01 1.15560318e-12 9.10998706e-14 0.00000000e+00 1.06450331e-12 0.00000000e+00 9.10998706e-14
1.52577522e+01 1.17736875e-12 8.25330452e-14 0.00000000e+00 1.09483570e-12 0.00000000e+00 8.25330452e-14
1.57683840e+01 1.20599075e-12 7.47718247e-14 0.00000000e+00 1.13121893e-12 0.00000000e+00 7.47718247e-14
1.62961051e+01 1.23674876e-12 6.77404517e-14 0.00000000e+00 1.16900831e-12 0.00000000e+00 6.77404517e-14
1.68414875e+01 1.26871037e-12 6.13702932e-14 0.00000000e+00 1.20734008e-12 0.00000000e+00 6.13702932e-14
1.74051222e+01 1.28361896e-12 5.55991699e-14 0.00000000e+00 1.22801979e-12 0.00000000e+00 5.55991699e-14
1.79876201e+01 1.29032060e-12 5.03707500e-14 0.00000000e+00 1.23994985e-12 0.00000000e+00 5.03707500e-14
1.85896125e+01 1.28213267e-12 4.56339988e-14 0.00000000e+00 1.23649867e-12 0.00000000e+00 4.56339988e-14
1.92117518e+01 1.25110214e-12 4.13426810e-14 0.00000000e+00 1.20975946e-12 0.00000000e+00 4.13426810e-14
1.98547123e+01 1.21597586e-12 3.74549090e-14 0.00000000e+00 1.17852095e-12 0.00000000e+00 3.74549090e-14
2.05191907e+01 1.17425022e-12 3.39327342e-14 0.00000000e+00 1.14031748e-12 0.00000000e+00 3.39327342e-14
2.12059073e+01 1.13729131e-12 3.07417768e-14 0.00000000e+00 1.10654954e-12 0.00000000e+00 3.07417768e-14
2.19156062e+01 1.10453129e-12 2.78508898e-14 0.00000000e+00 1.07668040e-12 0.00000000e+00 2.78508898e-14
2.26490567e+01 1.07330565e-12 2.52318552e-14 0.00000000e+00 1.04807379e-12 0.00000000e+00 2.52318552e-14
2.34070535e+01 1.04245818e-12 2.28591087e-14 0.00000000e+00 1.01959907e-12 0.00000000e+00 2.28591087e-14
2.41904183e+01 1.01836753e-12 2.07094900e-14 0.00000000e+00 9.97658036e-13 0.00000000e+00 2.07094900e-14
2.50000000e+01 9.92144966e-13 1.87620165e-14 0.00000000e+00 9.73382950e-13 0.00000000e+00 1.87620165e-14
2.75422870e+01 9.15234759e-13 1.40313526e-14 0.00000000e+00 9.01203407e-13 0.00000000e+00 1.40313526e-14
3.16227766e+01 8.02764656e-13 9.27042274e-15 0.00000000e+00 7.93494233e-13 0.00000000e+00 9.27042274e-15
3.63078055e+01 6.71299484e-13 6.12490756e-15 0.00000000e+00 6.65174577e-13 0.00000000e+00 6.12490756e-15
4.16869383e+01 5.29030667e-13 4.04668630e-15 0.00000000e+00 5.24983980e-13 0.00000000e+00 4.04668630e-15
4.78630092e+01 3.90473554e-13 2.67361912e-15 0.00000000e+00 3.87799935e-13 0.00000000e+00 2.67361912e-15
5.49540874e+01 2.72184826e-13 1.76644264e-15 0.00000000e+00 2.70418383e-13 0.00000000e+00 1.76644264e-15
6.30957344e+01 1.80945016e-13 1.16707708e-15 0.00000000e+00 1.79777939e-13 0.00000000e+00 1.16707708e-15
7.24435960e+01 1.15506188e-13 7.71080178e-16 0.00000000e+00 1.14735108e-13 0.00000000e+00 7.71080178e-16
8.31763771e+01 7.12916499e-14 5.09447621e-16 0.00000000e+00 7.07822023e-14 0.00000000e+00 5.09447621e-16
9.54992586e+01 4.28593853e-14 3.36588705e-16 0.00000000e+00 4.25227966e-14 0.00000000e+00 3.36588705e-16
1.09647820e+02 2.52004213e-14 2.22381952e-16 0.00000000e+00 2.49780393e-14 0.00000000e+00 2.22381952e-16
1.25892541e+02 1.47067210e-14 1.46926299e-16 0.00000000e+00 1.45597947e-14 0.00000000e+00 1.46926299e-16
1.44543977e+02 8.47811395e-15 9.70732430e-17 0.00000000e+00 8.38104070e-15 0.00000000e+00 9.70732430e-17
1.65958691e+02 4.63602626e-15 6.41356556e-17 0.00000000e+00 4.57189061e-15 0.00000000e+00 6.41356556e-17
1.90546072e+02 2.52424843e-15 4.23740075e-17 0.00000000e+00 2.48187442e-15 0.00000000e+00 4.23740075e-17
2.18776162e+02 1.36635451e-15 2.79962291e-17 0.00000000e+00 1.33835828e-15 0.00000000e+00 2.79962291e-17
2.51188643e+02 7.34569703e-16 1.84969251e-17 0.00000000e+00 7.16072777e-16 0.00000000e+00 1.84969251e-17
2.88403150e+02 3.92101053e-16 1.22207972e-17 0.00000000e+00 3.79880255e-16 0.00000000e+00 1.22207972e-17
3.31131121e+02 2.08390477e-16 8.07420067e-18 0.00000000e+00 2.00316276e-16 0.00000000e+00 8.07420067e-18
3.80189396e+02 1.10255733e-16 5.33457148e-18 0.00000000e+00 1.04921161e-16 0.00000000e+00 5.33457148e-18
4.36515832e+02 5.82081687e-17 3.52451642e-18 0.00000000e+00 5.46836522e-17 0.00000000e+00 3.52451642e-18
5.01187234e+02 3.06899188e-17 2.32862491e-18 0.00000000e+00 2.83612939e-17 0.00000000e+00 2.32862491e-18
5.75439937e+02 1.61876810e-17 1.53850722e-18 0.00000000e+00 1.46491738e-17 0.00000000e+00 1.53850722e-18
6.60693448e+02 8.55647574e-18 1.01648164e-18 0.00000000e+00 7.53999410e-18 0.00000000e+00 1.01648164e-18
7.58577575e+02 4.54050940e-18 6.71582760e-19 0.00000000e+00 3.86892664e-18 0.00000000e+00 6.71582760e-19
8.70963590e+02 2.42318361e-18 4.43710329e-19 0.00000000e+00 1.97947328e-18 0.00000000e+00 4.43710329e-19
1.00000000e+03 1.01008912e-18 0.00000000e+00 0.00000000e+00 1.01008912e-18 0.00000000e+00 0.00000000e+00
