# column 1: lambda (micron)
# column 2: total flux; lambda*F_lambda (W/m2)
# column 3: direct stellar flux; lambda*F_lambda (W/m2)
# column 4: scattered stellar flux; lambda*F_lambda (W/m2)
# column 5: total dust emission flux; lambda*F_lambda (W/m2)
# column 6: dust emission scattered flux; lambda*F_lambda (W/m2)
# column 7: transparent flux; lambda*F_lambda (W/m2)
1.00000000e-03 2.05949698e-13 2.05947468e-13 2.22998411e-18 0.00000000e+00 0.00000000e+00 2.06075710e-13
1.14815362e-03 2.43040675e-13 2.43035453e-13 5.22209174e-18 0.00000000e+00 0.00000000e+00 2.43235413e-13
1.31825674e-03 2.86814403e-13 2.86795736e-13 1.86676195e-17 0.00000000e+00 0.00000000e+00 2.87095777e-13
1.51356125e-03 3.38476869e-13 3.38447583e-13 2.92861893e-17 0.00000000e+00 0.00000000e+00 3.38865070e-13
1.73780083e-03 3.99903601e-13 3.99471577e-13 4.32024142e-16 0.00000000e+00 0.00000000e+00 3.99969435e-13
1.99526231e-03 4.71358844e-13 4.71313235e-13 4.56089349e-17 0.00000000e+00 0.00000000e+00 4.72092178e-13
2.29086765e-03 5.56369259e-13 5.56245232e-13 1.24027299e-16 0.00000000e+00 0.00000000e+00 5.57220139e-13
2.63026799e-03 6.56543614e-13 6.56319716e-13 2.23898247e-16 0.00000000e+00 0.00000000e+00 6.57698429e-13
3.01995172e-03 7.75572952e-13 7.74282882e-13 1.29007010e-15 0.00000000e+00 0.00000000e+00 7.76295028e-13
3.46736850e-03 9.14486778e-13 9.13478374e-13 1.00840339e-15 0.00000000e+00 0.00000000e+00 9.16277040e-13
3.98107171e-03 1.07999357e-12 1.07772035e-12 2.27322217e-15 0.00000000e+00 0.00000000e+00 1.08150070e-12
4.57088190e-03 1.28548025e-12 1.27353948e-12 1.19407754e-14 0.00000000e+00 0.00000000e+00 1.27651759e-12
5.24807460e-03 1.56084006e-12 1.50221185e-12 5.86282037e-14 0.00000000e+00 0.00000000e+00 1.50670006e-12
6.02559586e-03 1.82508384e-12 1.77200365e-12 5.30801849e-14 0.00000000e+00 0.00000000e+00 1.77838917e-12
6.91830971e-03 2.10181341e-12 2.09037319e-12 1.14402210e-14 0.00000000e+00 0.00000000e+00 2.09906943e-12
7.94328235e-03 2.50713193e-12 2.46612617e-12 4.10057612e-14 2.03044774e-304 4.54036778e-306 2.47757497e-12
9.12010839e-03 2.94660757e-12 2.90934104e-12 3.72665317e-14 1.67813504e-265 4.53086174e-267 2.92433286e-12
1.04712855e-02 3.30258472e-12 3.24826997e-12 5.43147490e-14 1.22905827e-231 3.91326298e-233 3.26608014e-12
1.20226443e-02 3.34223153e-12 3.24722189e-12 9.50096398e-14 3.10622118e-202 8.91877286e-204 3.26608014e-12
1.38038426e-02 3.35719170e-12 3.24597919e-12 1.11212509e-13 1.30530173e-176 5.88502625e-178 3.26608014e-12
1.58489319e-02 3.35929592e-12 3.24445266e-12 1.14843266e-13 2.54519401e-154 1.23233920e-155 3.26608014e-12
1.81970086e-02 3.36907393e-12 3.24304534e-12 1.26028589e-13 6.14692503e-135 2.50936580e-136 3.26608014e-12
2.08929613e-02 3.38905717e-12 3.24187602e-12 1.47181145e-13 4.24666279e-118 1.96078302e-119 3.26608014e-12
2.39883292e-02 3.39452324e-12 3.24036161e-12 1.54161629e-13 1.90803912e-103 1.08863778e-104 3.26608014e-12
2.75422870e-02 3.40893955e-12 3.23860097e-12 1.70338583e-13 1.05219753e-90 6.55984327e-92 3.26608014e-12
3.16227766e-02 3.39303390e-12 3.23687609e-12 1.56157812e-13 1.22768801e-79 7.81872203e-81 3.26608014e-12
3.63078055e-02 3.38395316e-12 3.23552382e-12 1.48429340e-13 4.98164606e-70 3.20928214e-71 3.26608014e-12
4.16869383e-02 3.39422407e-12 3.23435466e-12 1.59869401e-13 1.09141590e-61 7.94672010e-63 3.26608014e-12
4.78630092e-02 3.39741997e-12 3.23113410e-12 1.66285862e-13 1.84600872e-54 1.44004268e-55 3.26608014e-12
5.49540874e-02 3.39345425e-12 3.22666064e-12 1.66793609e-13 3.35442920e-48 2.62411585e-49 3.26608014e-12
6.30957344e-02 3.40134476e-12 3.21547063e-12 1.85874134e-13 1.16438960e-42 9.80757155e-44 3.26608014e-12
7.24435960e-02 3.39055467e-12 3.20226613e-12 1.88288546e-13 7.09790906e-38 5.65279000e-39 3.26608014e-12
8.31763771e-02 3.38417152e-12 3.20343893e-12 1.80732584e-13 7.80096972e-34 6.03306715e-35 3.26608014e-12
9.54992586e-02 3.38854726e-12 3.20688119e-12 1.81666074e-13 2.34617177e-30 1.82459728e-31 3.26608014e-12
1.09647820e-01 3.23996856e-12 3.07204490e-12 1.67923663e-13 2.14324585e-27 1.73794365e-28 3.11908354e-12
1.25892541e-01 3.02204430e-12 2.87471403e-12 1.47330272e-13 7.38806003e-25 6.02286511e-26 2.91089813e-12
1.44543977e-01 2.81261424e-12 2.68858877e-12 1.24025465e-13 1.05702961e-22 8.42844677e-24 2.71660820e-12
1.65958691e-01 2.62691958e-12 2.51240261e-12 1.14516962e-13 5.59623816e-21 4.66891380e-22 2.53528629e-12
1.90546072e-01 2.46204718e-12 2.34328977e-12 1.18757280e-13 1.20696814e-19 1.11527023e-20 2.36606683e-12
2.18776162e-01 2.30133042e-12 2.18322803e-12 1.18100944e-13 1.44772411e-18 1.35352919e-19 2.20814205e-12
2.51188643e-01 2.15857760e-12 2.04214212e-12 1.16417209e-13 1.82706636e-17 1.97128578e-18 2.06075806e-12
2.88403150e-01 2.00781347e-12 1.90877613e-12 9.88804314e-14 1.56910028e-16 1.68627646e-17 1.92321132e-12
3.31131121e-01 1.86770830e-12 1.78309599e-12 8.36928894e-14 9.19418348e-16 9.67260302e-17 1.79484524e-12
3.80189396e-01 1.74380775e-12 1.66541421e-12 7.44840543e-14 3.90948391e-15 4.00450611e-16 1.67504704e-12
4.36515832e-01 1.62972808e-12 1.55541791e-12 6.16655767e-14 1.26446008e-14 1.27488115e-15 1.56324485e-12
5.01187234e-01 1.53897772e-12 1.45263153e-12 5.43660253e-14 3.19801689e-14 3.20770015e-15 1.45890498e-12
5.75439937e-01 1.46844988e-12 1.35655303e-12 4.54511506e-14 6.64456973e-14 6.45202506e-15 1.36152935e-12
6.60693448e-01 1.42280415e-12 1.26674000e-12 3.83168554e-14 1.17747293e-13 1.11647250e-14 1.27065312e-12
7.58577575e-01 1.39835707e-12 1.18280289e-12 3.23654702e-14 1.83188708e-13 1.70432457e-14 1.18584249e-12
8.70963590e-01 1.38658422e-12 1.10438388e-12 2.60677688e-14 2.56132573e-13 2.28801424e-14 1.10669260e-12
1.00000000e+00 1.37710224e-12 1.03110041e-12 2.04012909e-14 3.25600545e-13 2.75808328e-14 1.03282563e-12
1.14815362e+00 1.36566297e-12 9.62622706e-13 1.62088644e-14 3.86831395e-13 3.03422908e-14 9.63888963e-13
1.31825674e+00 1.35339764e-12 8.98640302e-13 1.25531480e-14 4.42204187e-13 3.19385014e-14 8.99553520e-13
1.51356125e+00 1.34014021e-12 8.38860253e-13 9.13611152e-15 4.92143849e-13 3.20716947e-14 8.39512191e-13
1.73780083e+00 1.32530333e-12 7.83020527e-13 6.80099757e-15 5.35481809e-13 3.00395751e-14 7.83478363e-13
1.99526231e+00 1.31098832e-12 7.30868078e-13 4.75744039e-15 5.75362802e-13 2.59299800e-14 7.31184552e-13
2.29086765e+00 1.29601716e-12 6.82163051e-13 2.98917273e-15 6.10864936e-13 2.08085959e-14 6.82381128e-13
2.63026799e+00 1.27249518e-12 6.36683444e-13 1.92241729e-15 6.33889316e-13 1.60787495e-14 6.36835122e-13
3.01995172e+00 1.23134317e-12 5.94222264e-13 1.39869103e-15 6.35722213e-13 1.19703475e-14 5.94329117e-13
3.46736850e+00 1.17239904e-12 5.54583702e-13 9.01312967e-16 6.16914028e-13 8.57768738e-15 5.54660204e-13
3.98107171e+00 1.09604209e-12 5.17583549e-13 5.84375438e-16 5.77874162e-13 6.02334677e-15 5.17639021e-13
4.57088190e+00 1.01143696e-12 4.83048070e-13 4.06355690e-16 5.27982534e-13 4.10821284e-15 4.83088843e-13
5.24807460e+00 8.75310334e-13 3.99413346e-13 2.36527993e-16 4.75660460e-13 2.63824251e-15 3.99440428e-13
6.02559586e+00 6.90196334e-13 2.63892805e-13 9.95820732e-17 4.26203947e-13 1.63940781e-15 2.63907674e-13
6.70000000e+00 5.82170453e-13 1.91957883e-13 5.24525516e-17 3.90160117e-13 1.08721855e-15 1.91967457e-13
6.92422916e+00 5.52853134e-13 1.73906903e-13 4.11958451e-17 3.78905035e-13 9.44643235e-16 1.73915272e-13
7.15596261e+00 5.28834551e-13 1.57553224e-13 3.21657717e-17 3.71249161e-13 8.12042742e-16 1.57560674e-13
7.39545150e+00 5.14255811e-13 1.42737115e-13 2.42457039e-17 3.71494450e-13 6.83200006e-16 1.42744025e-13
7.64295536e+00 5.22438287e-13 1.29313568e-13 1.68005311e-17 3.93107919e-13 5.57421903e-16 1.29320701e-13
7.89874245e+00 5.64521344e-13 1.17151326e-13 1.04771044e-17 4.47359541e-13 4.34192021e-16 1.17159675e-13
8.16308998e+00 6.33577808e-13 1.06132031e-13 6.19954819e-18 5.27439577e-13 3.24513826e-16 1.06142245e-13
8.43628443e+00 7.34150843e-13 9.61480132e-14 3.20935929e-18 6.37999620e-13 2.39634389e-16 9.61608686e-14
8.71862190e+00 7.95979554e-13 8.71038082e-14 2.07429356e-18 7.08873671e-13 1.82308640e-16 8.71181185e-14
9.01040836e+00 8.63322915e-13 7.89100229e-14 1.35003198e-18 7.84411542e-13 1.35393530e-16 7.89257281e-14
9.31196005e+00 9.08494135e-13 7.14872292e-14 0.00000000e+00 8.37006906e-13 0.00000000e+00 7.15037315e-14
9.62360379e+00 8.91196463e-13 6.47643384e-14 0.00000000e+00 8.26432125e-13 0.00000000e+00 6.47796826e-14
9.94567731e+00 8.24946426e-13 5.86749044e-14 0.00000000e+00 7.66271522e-13 0.00000000e+00 5.86879481e-14
1.02785297e+01 7.47911060e-13 5.31583760e-14 0.00000000e+00 6.94752684e-13 0.00000000e+00 5.31690665e-14
1.06225216e+01 6.74863600e-13 4.81605000e-14 0.00000000e+00 6.26703100e-13 0.00000000e+00 4.81691679e-14
1.09780260e+01 5.98018182e-13 4.36326740e-14 0.00000000e+00 5.54385508e-13 0.00000000e+00 4.36394486e-14
1.13454280e+01 5.33100743e-13 3.95303777e-14 0.00000000e+00 4.93570366e-13 0.00000000e+00 3.95356937e-14
1.17251259e+01 4.76902705e-13 3.58136484e-14 0.00000000e+00 4.41089057e-13 0.00000000e+00 3.58178467e-14
1.21175312e+01 4.30124223e-13 3.24463190e-14 0.00000000e+00 3.97677904e-13 0.00000000e+00 3.24496176e-14
1.25230691e+01 3.86335004e-13 2.93955445e-14 0.00000000e+00 3.56939460e-13 0.00000000e+00 2.93981291e-14
1.29421791e+01 3.49409404e-13 2.66315563e-14 0.00000000e+00 3.22777848e-13 0.00000000e+00 2.66335956e-14
1.33753155e+01 3.18898877e-13 2.41274121e-14 0.00000000e+00 2.94771465e-13 0.00000000e+00 2.41290327e-14
1.38229477e+01 2.97988468e-13 2.18586459e-14 0.00000000e+00 2.76129822e-13 0.00000000e+00 2.18599931e-14
1.42855609e+01 2.84779041e-13 1.98031580e-14 0.00000000e+00 2.64975883e-13 0.00000000e+00 1.98043289e-14
1.47636563e+01 2.83119245e-13 1.79408634e-14 0.00000000e+00 2.65178381e-13 0.00000000e+00 1.79419747e-14
1.52577522e+01 2.84028247e-13 1.62536783e-14 0.00000000e+00 2.67774568e-13 0.00000000e+00 1.62547521e-14
1.57683840e+01 2.87401692e-13 1.47251412e-14 0.00000000e+00 2.72676551e-13 0.00000000e+00 1.47261920e-14
1.62961051e+01 2.90453650e-13 1.33403472e-14 0.00000000e+00 2.77113303e-13 0.00000000e+00 1.33413743e-14
1.68414875e+01 2.94086424e-13 1.20857800e-14 0.00000000e+00 2.82000644e-13 0.00000000e+00 1.20867817e-14
1.74051222e+01 2.93404904e-13 1.09492169e-14 0.00000000e+00 2.82455687e-13 0.00000000e+00 1.09501681e-14
1.79876201e+01 2.89721808e-13 9.91955097e-15 0.00000000e+00 2.79802257e-13 0.00000000e+00 9.92043915e-15
1.85896125e+01 2.84058608e-13 8.98673991e-15 0.00000000e+00 2.75071868e-13 0.00000000e+00 8.98754353e-15
1.92117518e+01 2.73431729e-13 8.14166943e-15 0.00000000e+00 2.65290060e-13 0.00000000e+00 8.14237531e-15
1.98547123e+01 2.61786322e-13 7.37607687e-15 0.00000000e+00 2.54410245e-13 0.00000000e+00 7.37668479e-15
2.05191907e+01 2.49944614e-13 6.68247979e-15 0.00000000e+00 2.43262134e-13 0.00000000e+00 6.68299807e-15
2.12059073e+01 2.38245721e-13 6.05410229e-15 0.00000000e+00 2.32191618e-13 0.00000000e+00 6.05454408e-15
2.19156062e+01 2.27976188e-13 5.48481006e-15 0.00000000e+00 2.22491378e-13 0.00000000e+00 5.48518847e-15
2.26490567e+01 2.18494490e-13 4.96904913e-15 0.00000000e+00 2.13525441e-13 0.00000000e+00 4.96937378e-15
2.34070535e+01 2.09717658e-13 4.50178609e-15 0.00000000e+00 2.05215872e-13 0.00000000e+00 4.50206513e-15
2.41904183e+01 2.00899959e-13 4.07846068e-15 0.00000000e+00 1.96821499e-13 0.00000000e+00 4.07870113e-15
2.50000000e+01 1.92775417e-13 3.69494168e-15 0.00000000e+00 1.89080475e-13 0.00000000e+00 3.69514932e-15
2.75422870e+01 1.70570820e-13 2.76331718e-15 0.00000000e+00 1.67807503e-13 0.00000000e+00 2.76345259e-15
3.16227766e+01 1.39619001e-13 1.82572063e-15 0.00000000e+00 1.37793280e-13 0.00000000e+00 1.82579502e-15
3.63078055e+01 1.09228224e-13 1.20625015e-15 0.00000000e+00 1.08021974e-13 0.00000000e+00 1.20629081e-15
4.16869383e+01 8.03739577e-14 7.96966801e-16 0.00000000e+00 7.95769909e-14 0.00000000e+00 7.96988434e-16
4.78630092e+01 5.57224359e-14 5.26553884e-16 0.00000000e+00 5.51958820e-14 0.00000000e+00 5.26565037e-16
5.49540874e+01 3.67634825e-14 3.47892442e-16 0.00000000e+00 3.64155901e-14 0.00000000e+00 3.47898070e-16
6.30957344e+01 2.33443282e-14 2.29851172e-16 0.00000000e+00 2.31144770e-14 0.00000000e+00 2.29853975e-16
7.24435960e+01 1.43471260e-14 1.51861629e-16 0.00000000e+00 1.41952643e-14 0.00000000e+00 1.51863015e-16
8.31763771e+01 8.60861953e-15 1.00334215e-16 0.00000000e+00 8.50828532e-15 0.00000000e+00 1.00334899e-16
9.54992586e+01 5.06414697e-15 6.62902717e-17 0.00000000e+00 4.99785670e-15 0.00000000e+00 6.62906105e-17
1.09647820e+02 2.93204030e-15 4.37976038e-17 0.00000000e+00 2.88824269e-15 0.00000000e+00 4.37977720e-17
1.25892541e+02 1.69388288e-15 2.89368162e-17 0.00000000e+00 1.66494606e-15 0.00000000e+00 2.89369010e-17
1.44543977e+02 9.70330901e-16 1.91183778e-17 0.00000000e+00 9.51212523e-16 0.00000000e+00 1.91184209e-17
1.65958691e+02 5.27649565e-16 1.26313943e-17 0.00000000e+00 5.15018171e-16 0.00000000e+00 1.26314154e-17
1.90546072e+02 2.86504302e-16 8.34548296e-18 0.00000000e+00 2.78158819e-16 0.00000000e+00 8.34549342e-18
2.18776162e+02 1.54980899e-16 5.51380761e-18 0.00000000e+00 1.49467092e-16 0.00000000e+00 5.51381282e-18
2.51188643e+02 8.34109489e-17 3.64293740e-18 0.00000000e+00 7.97680115e-17 0.00000000e+00 3.64294000e-18
2.88403150e+02 4.46512930e-17 2.40686529e-18 0.00000000e+00 4.22444277e-17 0.00000000e+00 2.40686659e-18
3.31131121e+02 2.38388930e-17 1.59020033e-18 0.00000000e+00 2.22486926e-17 0.00000000e+00 1.59020099e-18
3.80189396e+02 1.26940526e-17 1.05063505e-18 0.00000000e+00 1.16434175e-17 0.00000000e+00 1.05063537e-18
4.36515832e+02 6.75883255e-18 6.94147743e-19 0.00000000e+00 6.06468480e-18 0.00000000e+00 6.94147908e-19
5.01187234e+02 3.60275815e-18 4.58618892e-19 0.00000000e+00 3.14413926e-18 0.00000000e+00 4.58618975e-19
5.75439937e+02 1.92657331e-18 3.03006510e-19 0.00000000e+00 1.62356680e-18 0.00000000e+00 3.03006552e-19
6.60693448e+02 1.03569865e-18 2.00194423e-19 0.00000000e+00 8.35504227e-19 0.00000000e+00 2.00194443e-19
7.58577575e+02 5.60935218e-19 1.32267147e-19 0.00000000e+00 4.28668071e-19 0.00000000e+00 1.32267157e-19
8.70963590e+02 3.06695259e-19 8.73880388e-20 0.00000000e+00 2.19307220e-19 0.00000000e+00 8.73880441e-20
1.00000000e+03 1.11905217e-19 0.00000000e+00 0.00000000e+00 1.11905217e-19 0.00000000e+00 0.00000000e+00
