# column 1: lambda (micron)
# column 2: total flux; lambda*F_lambda (W/m2)
# column 3: direct stellar flux; lambda*F_lambda (W/m2)
# column 4: scattered stellar flux; lambda*F_lambda (W/m2)
# column 5: total dust emission flux; lambda*F_lambda (W/m2)
# column 6: dust emission scattered flux; lambda*F_lambda (W/m2)
# column 7: transparent flux; lambda*F_lambda (W/m2)
1.00000000e-03 9.68079967e-13 9.68073281e-13 6.68598744e-18 0.00000000e+00 0.00000000e+00 9.68073281e-13
1.14815362e-03 1.14264753e-12 1.14263687e-12 1.06613313e-17 0.00000000e+00 0.00000000e+00 1.14263687e-12
1.31825674e-03 1.34869462e-12 1.34867788e-12 1.67423886e-17 0.00000000e+00 0.00000000e+00 1.34867788e-12
1.51356125e-03 1.59189928e-12 1.59187233e-12 2.69536764e-17 0.00000000e+00 0.00000000e+00 1.59187233e-12
1.73780083e-03 1.87896622e-12 1.87891976e-12 4.64625932e-17 0.00000000e+00 0.00000000e+00 1.87891976e-12
1.99526231e-03 2.21781550e-12 2.21772777e-12 8.77387666e-17 0.00000000e+00 0.00000000e+00 2.21772777e-12
2.29086765e-03 2.61777524e-12 2.61762985e-12 1.45398900e-16 0.00000000e+00 0.00000000e+00 2.61762985e-12
2.63026799e-03 3.08991617e-12 3.08964252e-12 2.73646682e-16 0.00000000e+00 0.00000000e+00 3.08964252e-12
3.01995172e-03 3.64729497e-12 3.64676883e-12 5.26145773e-16 0.00000000e+00 0.00000000e+00 3.64676883e-12
3.46736850e-03 4.30525155e-12 4.30435650e-12 8.95047844e-16 0.00000000e+00 0.00000000e+00 4.30435650e-12
3.98107171e-03 5.08192644e-12 5.08052080e-12 1.40563995e-15 0.00000000e+00 0.00000000e+00 5.08052080e-12
4.57088190e-03 5.99942273e-12 5.99664354e-12 2.77919090e-15 0.00000000e+00 0.00000000e+00 5.99664354e-12
5.24807460e-03 7.08369394e-12 7.07796211e-12 5.73182750e-15 0.00000000e+00 0.00000000e+00 7.07796211e-12
6.02559586e-03 8.36543116e-12 8.35426474e-12 1.11664170e-14 0.00000000e+00 0.00000000e+00 8.35426474e-12
6.91830971e-03 9.87861081e-12 9.86071107e-12 1.78997426e-14 0.00000000e+00 0.00000000e+00 9.86071107e-12
7.94328235e-03 1.16654287e-11 1.16388008e-11 2.66279439e-14 6.09034989e-304 3.18913286e-306 1.16388008e-11
9.12010839e-03 1.37861205e-11 1.37375167e-11 4.86038383e-14 2.59899838e-265 4.61855036e-267 1.37375167e-11
1.04712855e-02 1.54245519e-11 1.53429287e-11 8.16232253e-14 1.06046722e-231 1.81105685e-233 1.53429287e-11
1.20226443e-02 1.54676659e-11 1.53429287e-11 1.24737231e-13 1.62030495e-202 3.66075056e-204 1.53429287e-11
1.38038426e-02 1.55017091e-11 1.53429287e-11 1.58780404e-13 4.31509032e-177 1.15499928e-178 1.53429287e-11
1.58489319e-02 1.55795458e-11 1.53429287e-11 2.36617124e-13 5.71793534e-155 1.70646633e-156 1.53429287e-11
1.81970086e-02 1.56233823e-11 1.53429287e-11 2.80453586e-13 1.00522217e-135 3.63368411e-137 1.53429287e-11
2.08929613e-02 1.57538115e-11 1.53429287e-11 4.10882818e-13 5.22126031e-119 2.56888831e-120 1.53429287e-11
2.39883292e-02 1.58468315e-11 1.53429287e-11 5.03902827e-13 1.81418050e-104 1.02155787e-105 1.53429287e-11
2.75422870e-02 1.59490841e-11 1.53429287e-11 6.06155476e-13 8.07028775e-92 5.22967226e-93 1.53429287e-11
3.16227766e-02 1.60452924e-11 1.53429287e-11 7.02363774e-13 7.84505054e-81 5.92259076e-82 1.53429287e-11
3.63078055e-02 1.60846767e-11 1.53429287e-11 7.41748028e-13 2.69967154e-71 2.15784282e-72 1.53429287e-11
4.16869383e-02 1.62555930e-11 1.53429287e-11 9.12664317e-13 5.14813569e-63 4.90248980e-64 1.53429287e-11
4.78630092e-02 1.63215374e-11 1.53429287e-11 9.78608767e-13 7.71131367e-56 7.79017701e-57 1.53429287e-11
5.49540874e-02 1.63699768e-11 1.53429287e-11 1.02704811e-12 1.27027990e-49 1.34098839e-50 1.53429287e-11
6.30957344e-02 1.62850520e-11 1.53429287e-11 9.42123356e-13 4.03911216e-44 4.25810896e-45 1.53429287e-11
7.24435960e-02 1.61357885e-11 1.53429287e-11 7.92859819e-13 2.28477686e-39 2.09331138e-40 1.53429287e-11
8.31763771e-02 1.60981335e-11 1.53429287e-11 7.55204835e-13 2.32439300e-35 2.06721369e-36 1.53429287e-11
9.54992586e-02 1.61141406e-11 1.53429287e-11 7.71211946e-13 6.54217100e-32 6.03852505e-33 1.53429287e-11
1.09647820e-01 1.54980930e-11 1.46523889e-11 8.45704133e-13 5.59346425e-29 5.71495366e-30 1.46523889e-11
1.25892541e-01 1.45412399e-11 1.36744049e-11 8.66835006e-13 1.82318309e-26 1.94503402e-27 1.36744049e-11
1.44543977e-01 1.35613876e-11 1.27616972e-11 7.99690390e-13 2.48452055e-24 2.62625647e-25 1.27616972e-11
1.65958691e-01 1.27309548e-11 1.19099088e-11 8.21046002e-13 1.26308444e-22 1.44744879e-23 1.19099088e-11
1.90546072e-01 1.19322147e-11 1.11149736e-11 8.17241086e-13 2.65937940e-21 3.37172962e-22 1.11149736e-11
2.18776162e-01 1.10879746e-11 1.03730969e-11 7.14877671e-13 3.11381355e-20 3.84713578e-21 1.03730969e-11
2.51188643e-01 1.04667706e-11 9.68073733e-12 7.86032890e-13 3.81692400e-19 5.56331428e-20 9.68073733e-12
2.88403150e-01 9.76918987e-12 9.03458975e-12 7.34596935e-13 3.17829934e-18 4.59298788e-19 9.03458975e-12
3.31131121e-01 9.11684189e-12 8.43156974e-12 6.85253893e-13 1.82554956e-17 2.62154000e-18 8.43156974e-12
3.80189396e-01 8.48024540e-12 7.86879872e-12 6.11370288e-13 7.63846508e-17 1.08286479e-17 7.86879872e-12
4.36515832e-01 7.90415006e-12 7.34359025e-12 5.60311941e-13 2.47865081e-16 3.59430066e-17 7.34359025e-12
5.01187234e-01 7.34829191e-12 6.85343719e-12 4.94160558e-13 6.94162543e-16 1.13513963e-16 6.85343719e-12
5.75439937e-01 6.84002493e-12 6.39599973e-12 4.42060443e-13 1.96476125e-15 3.99384508e-16 6.39599973e-12
6.60693448e-01 6.35955488e-12 5.96909425e-12 3.84177079e-13 6.28354898e-15 1.53319020e-15 5.96909425e-12
7.58577575e-01 5.92063210e-12 5.57068288e-12 3.29362987e-13 2.05862287e-14 5.39873968e-15 5.57068288e-12
8.70963590e-01 5.53878719e-12 5.19886376e-12 2.76456678e-13 6.34667523e-14 1.63616756e-14 5.19886376e-12
1.00000000e+00 5.24713026e-12 4.85186196e-12 2.27204305e-13 1.68063992e-13 4.01759381e-14 4.85186196e-12
1.14815362e+00 5.10330467e-12 4.52802104e-12 1.78497469e-13 3.96786154e-13 8.50525968e-14 4.52802104e-12
1.31825674e+00 5.20187570e-12 4.22579511e-12 1.36965338e-13 8.39115250e-13 1.55460577e-13 4.22579511e-12
1.51356125e+00 5.61988653e-12 3.94374146e-12 1.05485889e-13 1.57065918e-12 2.50254778e-13 3.94374146e-12
1.73780083e+00 6.39159823e-12 3.68051368e-12 7.86456998e-14 2.63243885e-12 3.47376709e-13 3.68051368e-12
1.99526231e+00 7.45563669e-12 3.43485522e-12 5.88428749e-14 3.96193859e-12 4.24083430e-13 3.43485522e-12
2.29086765e+00 8.63928255e-12 3.20559341e-12 4.23594141e-14 5.39132973e-12 4.50312631e-13 3.20559341e-12
2.63026799e+00 9.82341564e-12 2.99163384e-12 3.05046458e-14 6.80127716e-12 4.39928122e-13 2.99163384e-12
3.01995172e+00 1.08127381e-11 2.79195514e-12 2.15157104e-14 7.99926729e-12 3.96475554e-13 2.79195514e-12
3.46736850e+00 1.16161029e-11 2.60560415e-12 1.53307783e-14 8.99516801e-12 3.39695990e-13 2.60560415e-12
3.98107171e+00 1.21794870e-11 2.43169128e-12 1.07721783e-14 9.73702351e-12 2.76219098e-13 2.43169128e-12
4.57088190e+00 1.24964432e-11 2.26938634e-12 7.46109821e-15 1.02195958e-11 2.14420792e-13 2.26938634e-12
5.24807460e+00 1.23976533e-11 1.87643467e-12 4.35076116e-15 1.05168679e-11 1.55901277e-13 1.87643467e-12
6.02559586e+00 1.19682241e-11 1.23974809e-12 1.97068419e-15 1.07265053e-11 1.08508679e-13 1.23974809e-12
6.70000000e+00 1.16773267e-11 9.01797527e-13 1.02837835e-15 1.07745008e-11 7.91502745e-14 9.01797527e-13
6.92422916e+00 1.15977019e-11 8.16994532e-13 8.39491019e-16 1.07798679e-11 7.09652451e-14 8.16994532e-13
7.15596261e+00 1.15531957e-11 7.40166218e-13 6.64004288e-16 1.08123655e-11 6.27884964e-14 7.40166218e-13
7.39545150e+00 1.16234002e-11 6.70562664e-13 5.07872608e-16 1.09523296e-11 5.39500741e-14 6.70562664e-13
7.64295536e+00 1.18183686e-11 6.07504471e-13 3.41966424e-16 1.12105222e-11 4.30088012e-14 6.07504471e-13
7.89874245e+00 1.24317268e-11 5.50376127e-13 2.03077767e-16 1.18811476e-11 3.14616676e-14 5.50376127e-13
8.16308998e+00 1.33487690e-11 4.98620004e-13 1.12877054e-16 1.28500361e-11 2.25572191e-14 4.98620004e-13
8.43628443e+00 1.45581945e-11 4.51730909e-13 5.89243308e-17 1.41064047e-11 1.58929466e-14 4.51730909e-13
8.71862190e+00 1.54384686e-11 4.09251158e-13 3.65162448e-17 1.50291810e-11 1.21171122e-14 4.09251158e-13
9.01040836e+00 1.62350664e-11 3.70766106e-13 2.27294678e-17 1.58642776e-11 9.43083433e-15 3.70766106e-13
9.31196005e+00 1.71113425e-11 3.35900102e-13 0.00000000e+00 1.67754424e-11 0.00000000e+00 3.35900102e-13
9.62360379e+00 1.70058376e-11 3.04312818e-13 0.00000000e+00 1.67015247e-11 0.00000000e+00 3.04312818e-13
9.94567731e+00 1.64063832e-11 2.75695930e-13 0.00000000e+00 1.61306873e-11 0.00000000e+00 2.75695930e-13
1.02785297e+01 1.57778267e-11 2.49770110e-13 0.00000000e+00 1.55280565e-11 0.00000000e+00 2.49770110e-13
1.06225216e+01 1.52018053e-11 2.26282295e-13 0.00000000e+00 1.49755230e-11 0.00000000e+00 2.26282295e-13
1.09780260e+01 1.47427303e-11 2.05003220e-13 0.00000000e+00 1.45377271e-11 0.00000000e+00 2.05003220e-13
1.13454280e+01 1.41123846e-11 1.85725182e-13 0.00000000e+00 1.39266594e-11 0.00000000e+00 1.85725182e-13
1.17251259e+01 1.38608106e-11 1.68260007e-13 0.00000000e+00 1.36925506e-11 0.00000000e+00 1.68260007e-13
1.21175312e+01 1.35750850e-11 1.52437217e-13 0.00000000e+00 1.34226478e-11 0.00000000e+00 1.52437217e-13
1.25230691e+01 1.33663905e-11 1.38102367e-13 0.00000000e+00 1.32282882e-11 0.00000000e+00 1.38102367e-13
1.29421791e+01 1.31861976e-11 1.25115533e-13 0.00000000e+00 1.30610820e-11 0.00000000e+00 1.25115533e-13
1.33753155e+01 1.31027970e-11 1.13349952e-13 0.00000000e+00 1.29894470e-11 0.00000000e+00 1.13349952e-13
1.38229477e+01 1.30194782e-11 1.02690779e-13 0.00000000e+00 1.29167874e-11 0.00000000e+00 1.02690779e-13
1.42855609e+01 1.31258650e-11 9.30339713e-14 0.00000000e+00 1.30328310e-11 0.00000000e+00 9.30339713e-14
1.47636563e+01 1.33463911e-11 8.42852675e-14 0.00000000e+00 1.32621058e-11 0.00000000e+00 8.42852675e-14
1.52577522e+01 1.36125145e-11 7.63592720e-14 0.00000000e+00 1.35361553e-11 0.00000000e+00 7.63592720e-14
1.57683840e+01 1.39085856e-11 6.91786191e-14 0.00000000e+00 1.38394070e-11 0.00000000e+00 6.91786191e-14
1.62961051e+01 1.41972946e-11 6.26732185e-14 0.00000000e+00 1.41346214e-11 0.00000000e+00 6.26732185e-14
1.68414875e+01 1.44085718e-11 5.67795711e-14 0.00000000e+00 1.43517923e-11 0.00000000e+00 5.67795711e-14
1.74051222e+01 1.46089175e-11 5.14401489e-14 0.00000000e+00 1.45574774e-11 0.00000000e+00 5.14401489e-14
1.79876201e+01 1.47999043e-11 4.66028339e-14 0.00000000e+00 1.47533015e-11 0.00000000e+00 4.66028339e-14
1.85896125e+01 1.48307930e-11 4.22204090e-14 0.00000000e+00 1.47885726e-11 0.00000000e+00 4.22204090e-14
1.92117518e+01 1.48671022e-11 3.82500974e-14 0.00000000e+00 1.48288521e-11 0.00000000e+00 3.82500974e-14
1.98547123e+01 1.47494085e-11 3.46531450e-14 0.00000000e+00 1.47147553e-11 0.00000000e+00 3.46531450e-14
2.05191907e+01 1.45877665e-11 3.13944418e-14 0.00000000e+00 1.45563721e-11 0.00000000e+00 3.13944418e-14
2.12059073e+01 1.43948207e-11 2.84421796e-14 0.00000000e+00 1.43663785e-11 0.00000000e+00 2.84421796e-14
2.19156062e+01 1.42984727e-11 2.57675415e-14 0.00000000e+00 1.42727051e-11 0.00000000e+00 2.57675415e-14
2.26490567e+01 1.39756897e-11 2.33444203e-14 0.00000000e+00 1.39523453e-11 0.00000000e+00 2.33444203e-14
2.34070535e+01 1.38398286e-11 2.11491639e-14 0.00000000e+00 1.38186795e-11 0.00000000e+00 2.11491639e-14
2.41904183e+01 1.34314443e-11 1.91603445e-14 0.00000000e+00 1.34122840e-11 0.00000000e+00 1.91603445e-14
2.50000000e+01 1.31415628e-11 1.73585491e-14 0.00000000e+00 1.31242042e-11 0.00000000e+00 1.73585491e-14
2.75422870e+01 1.21233674e-11 1.29817562e-14 0.00000000e+00 1.21103857e-11 0.00000000e+00 1.29817562e-14
3.16227766e+01 1.02011143e-11 8.57696126e-15 0.00000000e+00 1.01925374e-11 0.00000000e+00 8.57696126e-15
3.63078055e+01 8.08266292e-12 5.66674211e-15 0.00000000e+00 8.07699618e-12 0.00000000e+00 5.66674211e-15
4.16869383e+01 5.98398251e-12 3.74397938e-15 0.00000000e+00 5.98023854e-12 0.00000000e+00 3.74397938e-15
4.78630092e+01 4.15536564e-12 2.47362265e-15 0.00000000e+00 4.15289201e-12 0.00000000e+00 2.47362265e-15
5.49540874e+01 2.71603806e-12 1.63430628e-15 0.00000000e+00 2.71440376e-12 0.00000000e+00 1.63430628e-15
6.30957344e+01 1.68564708e-12 1.07977545e-15 0.00000000e+00 1.68456730e-12 0.00000000e+00 1.07977545e-15
7.24435960e+01 1.00175843e-12 7.13400564e-16 0.00000000e+00 1.00104502e-12 0.00000000e+00 7.13400564e-16
8.31763771e+01 5.76219081e-13 4.71339078e-16 0.00000000e+00 5.75747742e-13 0.00000000e+00 4.71339078e-16
9.54992586e+01 3.23666521e-13 3.11410641e-16 0.00000000e+00 3.23355110e-13 0.00000000e+00 3.11410641e-16
1.09647820e+02 1.78548108e-13 2.05746970e-16 0.00000000e+00 1.78342361e-13 0.00000000e+00 2.05746970e-16
1.25892541e+02 9.81426252e-14 1.35935675e-16 0.00000000e+00 9.80066895e-14 0.00000000e+00 1.35935675e-16
1.44543977e+02 5.36194877e-14 8.98118099e-17 0.00000000e+00 5.35296759e-14 0.00000000e+00 8.98118099e-17
1.65958691e+02 2.79349745e-14 5.93380743e-17 0.00000000e+00 2.78756364e-14 0.00000000e+00 5.93380743e-17
1.90546072e+02 1.45534249e-14 3.92042769e-17 0.00000000e+00 1.45142207e-14 0.00000000e+00 3.92042769e-17
2.18776162e+02 7.56996009e-15 2.59020089e-17 0.00000000e+00 7.54405809e-15 0.00000000e+00 2.59020089e-17
2.51188643e+02 3.92539305e-15 1.71132876e-17 0.00000000e+00 3.90827976e-15 0.00000000e+00 1.71132876e-17
2.88403150e+02 2.02688796e-15 1.13066370e-17 0.00000000e+00 2.01558132e-15 0.00000000e+00 1.13066370e-17
3.31131121e+02 1.04430678e-15 7.47022097e-18 0.00000000e+00 1.03683656e-15 0.00000000e+00 7.47022097e-18
3.80189396e+02 5.36443181e-16 4.93552605e-18 0.00000000e+00 5.31507655e-16 0.00000000e+00 4.93552605e-18
4.36515832e+02 2.75133463e-16 3.26086972e-18 0.00000000e+00 2.71872593e-16 0.00000000e+00 3.26086972e-18
5.01187234e+02 1.40871010e-16 2.15443526e-18 0.00000000e+00 1.38716575e-16 0.00000000e+00 2.15443526e-18
5.75439937e+02 7.20638198e-17 1.42342126e-18 0.00000000e+00 7.06403985e-17 0.00000000e+00 1.42342126e-18
6.60693448e+02 3.68529686e-17 9.40445101e-19 0.00000000e+00 3.59125235e-17 0.00000000e+00 9.40445101e-19
7.58577575e+02 1.88518681e-17 6.21345916e-19 0.00000000e+00 1.82305222e-17 0.00000000e+00 6.21345916e-19
8.70963590e+02 9.65108443e-18 4.10519176e-19 0.00000000e+00 9.24056526e-18 0.00000000e+00 4.10519176e-19
1.00000000e+03 4.67713279e-18 0.00000000e+00 0.00000000e+00 4.67713279e-18 0.00000000e+00 0.00000000e+00
