# column 1: lambda (micron)
# column 2: total flux; lambda*F_lambda (W/m2)
# column 3: direct stellar flux; lambda*F_lambda (W/m2)
# column 4: scattered stellar flux; lambda*F_lambda (W/m2)
# column 5: total dust emission flux; lambda*F_lambda (W/m2)
# column 6: dust emission scattered flux; lambda*F_lambda (W/m2)
# column 7: transparent flux; lambda*F_lambda (W/m2)
1.00000000e-03 1.04634368e-12 1.04634360e-12 7.38951295e-20 0.00000000e+00 0.00000000e+00 1.04634360e-12
1.14815362e-03 1.23502107e-12 1.23502095e-12 1.17058993e-19 0.00000000e+00 0.00000000e+00 1.23502095e-12
1.31825674e-03 1.45772089e-12 1.45772071e-12 1.83914050e-19 0.00000000e+00 0.00000000e+00 1.45772071e-12
1.51356125e-03 1.72057813e-12 1.72057784e-12 2.94360703e-19 0.00000000e+00 0.00000000e+00 1.72057784e-12
1.73780083e-03 2.03083406e-12 2.03083353e-12 5.29885420e-19 0.00000000e+00 0.00000000e+00 2.03083353e-12
1.99526231e-03 2.39703568e-12 2.39703472e-12 9.62874389e-19 0.00000000e+00 0.00000000e+00 2.39703472e-12
2.29086765e-03 2.82927100e-12 2.82926954e-12 1.45829815e-18 0.00000000e+00 0.00000000e+00 2.82926954e-12
2.63026799e-03 3.33944827e-12 3.33944522e-12 3.05081012e-18 0.00000000e+00 0.00000000e+00 3.33944522e-12
3.01995172e-03 3.94162154e-12 3.94161611e-12 5.43115172e-18 0.00000000e+00 0.00000000e+00 3.94161611e-12
3.46736850e-03 4.65238000e-12 4.65237083e-12 9.16924101e-18 0.00000000e+00 0.00000000e+00 4.65237083e-12
3.98107171e-03 5.49130442e-12 5.49128930e-12 1.51212390e-17 0.00000000e+00 0.00000000e+00 5.49128930e-12
4.57088190e-03 6.48151376e-12 6.48148207e-12 3.16907873e-17 0.00000000e+00 0.00000000e+00 6.48148207e-12
5.24807460e-03 7.65028659e-12 7.65022704e-12 5.95485778e-17 0.00000000e+00 0.00000000e+00 7.65022704e-12
6.02559586e-03 9.02983026e-12 9.02972084e-12 1.09414868e-16 0.00000000e+00 0.00000000e+00 9.02972084e-12
6.91830971e-03 1.06581318e-11 1.06579658e-11 1.65996683e-16 0.00000000e+00 0.00000000e+00 1.06579658e-11
7.94328235e-03 1.25800969e-11 1.25798170e-11 2.79906141e-16 0.00000000e+00 0.00000000e+00 1.25798170e-11
9.12010839e-03 1.48486765e-11 1.48482176e-11 4.58917429e-16 0.00000000e+00 0.00000000e+00 1.48482176e-11
1.04712855e-02 1.65840687e-11 1.65834298e-11 6.38962920e-16 0.00000000e+00 0.00000000e+00 1.65834298e-11
1.20226443e-02 1.65845681e-11 1.65834298e-11 1.13829195e-15 0.00000000e+00 0.00000000e+00 1.65834298e-11
1.38038426e-02 1.65847692e-11 1.65834298e-11 1.33941997e-15 5.90604997e-290 4.36792281e-292 1.65834298e-11
1.58489319e-02 1.65857322e-11 1.65834298e-11 2.30237683e-15 3.39847269e-253 2.50992639e-255 1.65834298e-11
1.81970086e-02 1.65859457e-11 1.65834298e-11 2.51592920e-15 3.34734630e-221 3.17239358e-223 1.65834298e-11
2.08929613e-02 1.65872013e-11 1.65834298e-11 3.77152696e-15 2.18832838e-193 2.37629393e-195 1.65834298e-11
2.39883292e-02 1.65883548e-11 1.65834298e-11 4.92502121e-15 3.56191526e-169 5.22195616e-171 1.65834298e-11
2.75422870e-02 1.65900277e-11 1.65834298e-11 6.59791724e-15 4.18224371e-148 7.52666546e-150 1.65834298e-11
3.16227766e-02 1.65925656e-11 1.65834298e-11 9.13584867e-15 8.76074813e-130 1.79976646e-131 1.65834298e-11
3.63078055e-02 1.65935536e-11 1.65834298e-11 1.01238015e-14 7.39921917e-114 1.77531160e-115 1.65834298e-11
4.16869383e-02 1.65987841e-11 1.65834298e-11 1.53542862e-14 5.14420608e-100 1.60210001e-101 1.65834298e-11
4.78630092e-02 1.66048154e-11 1.65834298e-11 2.13856546e-14 5.45566943e-88 2.27556982e-89 1.65834298e-11
5.49540874e-02 1.66123526e-11 1.65834298e-11 2.89228352e-14 1.50909811e-77 7.85938586e-79 1.65834298e-11
6.30957344e-02 1.66206959e-11 1.65834298e-11 3.72660831e-14 2.31994556e-68 1.51297990e-69 1.65834298e-11
7.24435960e-02 1.66218380e-11 1.65834298e-11 3.84082348e-14 2.13452960e-60 1.42495254e-61 1.65834298e-11
8.31763771e-02 1.66220648e-11 1.65834298e-11 3.86350280e-14 1.34020347e-53 8.86893045e-55 1.65834298e-11
9.54992586e-02 1.66241946e-11 1.65834298e-11 4.07648281e-14 1.01355148e-47 7.02152282e-49 1.65834298e-11
1.09647820e-01 1.58770079e-11 1.58370587e-11 3.99492093e-14 1.11965683e-42 7.97284523e-44 1.58370587e-11
1.25892541e-01 1.48145951e-11 1.47800032e-11 3.45919041e-14 2.50919979e-38 1.64125341e-39 1.47800032e-11
1.44543977e-01 1.38220880e-11 1.37935015e-11 2.85865204e-14 1.36927587e-34 8.20077552e-36 1.37935015e-11
1.65958691e-01 1.29035941e-11 1.28728446e-11 3.07495330e-14 1.73766803e-31 1.14560695e-32 1.28728446e-11
1.90546072e-01 1.20493354e-11 1.20136376e-11 3.56977985e-14 6.10971960e-29 4.93900024e-30 1.20136376e-11
2.18776162e-01 1.12507105e-11 1.12117790e-11 3.89314983e-14 8.54306014e-27 7.86132822e-28 1.12117790e-11
2.51188643e-01 1.05088751e-11 1.04634409e-11 4.54342102e-14 9.15261847e-25 1.00873963e-25 1.04634409e-11
2.88403150e-01 9.80537224e-12 9.76505125e-12 4.03209915e-14 5.31977764e-23 5.72511074e-24 9.76505125e-12
3.31131121e-01 9.15029109e-12 9.11327608e-12 3.70150099e-14 1.78501235e-21 1.91225041e-22 9.11327608e-12
3.80189396e-01 8.53666416e-12 8.50500410e-12 3.16600316e-14 3.78034508e-20 4.05770113e-21 8.50500410e-12
4.36515832e-01 7.96590040e-12 7.93733165e-12 2.85682157e-14 5.35640454e-19 5.92397680e-20 7.93733165e-12
5.01187234e-01 7.43428826e-12 7.40754890e-12 2.67340991e-14 5.26058343e-18 5.92804840e-19 7.40754890e-12
5.75439937e-01 6.93832285e-12 6.91312687e-12 2.51587644e-14 3.72150660e-17 4.19479505e-18 6.91312687e-12
6.60693448e-01 6.47521612e-12 6.45170538e-12 2.33141974e-14 1.96542200e-16 2.23869311e-17 6.45170538e-12
7.58577575e-01 6.04371984e-12 6.02108180e-12 2.18241278e-14 8.13916613e-16 9.25094271e-17 6.02108180e-12
8.70963590e-01 5.64131681e-12 5.61920048e-12 1.93834808e-14 2.73285116e-15 3.04550692e-16 5.61920048e-12
1.00000000e+00 5.26910527e-12 5.24414302e-12 1.73270939e-14 7.63515772e-15 8.21790443e-16 5.24414302e-12
1.14815362e+00 4.92695259e-12 4.89411902e-12 1.42263926e-14 1.86071724e-14 1.87325990e-15 4.89411902e-12
1.31825674e+00 4.61934058e-12 4.56745763e-12 1.14932865e-14 4.03896633e-14 3.68133354e-15 4.56745763e-12
1.51356125e+00 4.34935020e-12 4.26259947e-12 8.91614591e-15 7.78345810e-14 6.16134711e-15 4.26259947e-12
1.73780083e+00 4.11722756e-12 3.97808929e-12 6.58011000e-15 1.32558158e-13 8.83911335e-15 3.97808929e-12
1.99526231e+00 3.91787221e-12 3.71256894e-12 4.70695502e-15 2.00596311e-13 1.07229039e-14 3.71256894e-12
2.29086765e+00 3.74029997e-12 3.46477093e-12 3.18059177e-15 2.72348447e-13 1.09635092e-14 3.46477093e-12
2.63026799e+00 3.57344364e-12 3.23351237e-12 2.10678062e-15 3.37824489e-13 1.02221600e-14 3.23351237e-12
3.01995172e+00 3.40568045e-12 3.01768933e-12 1.46777599e-15 3.86523342e-13 8.68006127e-15 3.01768933e-12
3.46736850e+00 3.23136871e-12 2.81627154e-12 9.76608240e-16 4.14120556e-13 6.75541129e-15 2.81627154e-12
3.98107171e+00 3.04589544e-12 2.62829753e-12 6.82430392e-16 4.16915481e-13 4.92818929e-15 2.62829753e-12
4.57088190e+00 2.85329092e-12 2.45286997e-12 4.15217404e-16 4.00005729e-13 3.36420858e-15 2.45286997e-12
5.24807460e+00 2.39847068e-12 2.02814751e-12 2.34326935e-16 3.70088847e-13 2.17647135e-15 2.02814751e-12
6.02559586e+00 1.67519706e-12 1.33998377e-12 1.01288725e-16 3.35111998e-13 1.31986388e-15 1.33998377e-12
6.70000000e+00 1.28106024e-12 9.74709347e-13 5.23576403e-17 3.06298534e-13 8.50778573e-16 9.74709347e-13
6.92422916e+00 1.17978170e-12 8.83049889e-13 4.00817170e-17 2.96691728e-13 7.32625377e-16 8.83049889e-13
7.15596261e+00 1.09087390e-12 8.00009879e-13 3.42077495e-17 2.90829815e-13 6.26954486e-16 8.00009879e-13
7.39545150e+00 1.01722694e-12 7.24778763e-13 2.54902168e-17 2.92422687e-13 5.30729237e-16 7.24778763e-13
7.64295536e+00 9.71619412e-13 6.56622211e-13 1.77458268e-17 3.14979456e-13 4.42372149e-16 6.56622211e-13
7.89874245e+00 9.66268123e-13 5.94874946e-13 1.10450148e-17 3.71382132e-13 3.60511502e-16 5.94874946e-13
8.16308998e+00 9.94563537e-13 5.38934254e-13 6.29583894e-18 4.55622987e-13 2.91528994e-16 5.38934254e-13
8.43628443e+00 1.06164706e-12 4.88254098e-13 3.60822874e-18 5.73389357e-13 2.28313195e-16 4.88254098e-13
8.71862190e+00 1.09781002e-12 4.42339790e-13 2.28597338e-18 6.55467944e-13 1.78522525e-16 4.42339790e-13
9.01040836e+00 1.14603401e-12 4.00743158e-13 1.56043092e-18 7.45289295e-13 1.39093580e-16 4.00743158e-13
9.31196005e+00 1.18043432e-12 3.63058180e-13 0.00000000e+00 8.17376141e-13 0.00000000e+00 3.63058180e-13
9.62360379e+00 1.13807304e-12 3.28917012e-13 0.00000000e+00 8.09156024e-13 0.00000000e+00 3.28917012e-13
9.94567731e+00 1.04941874e-12 2.97986401e-13 0.00000000e+00 7.51432334e-13 0.00000000e+00 2.97986401e-13
1.02785297e+01 9.48070017e-13 2.69964435e-13 0.00000000e+00 6.78105582e-13 0.00000000e+00 2.69964435e-13
1.06225216e+01 8.49287966e-13 2.44577592e-13 0.00000000e+00 6.04710374e-13 0.00000000e+00 2.44577592e-13
1.09780260e+01 7.48085470e-13 2.21578069e-13 0.00000000e+00 5.26507400e-13 0.00000000e+00 2.21578069e-13
1.13454280e+01 6.61077020e-13 2.00741370e-13 0.00000000e+00 4.60335650e-13 0.00000000e+00 2.00741370e-13
1.17251259e+01 5.87060894e-13 1.81864106e-13 0.00000000e+00 4.05196788e-13 0.00000000e+00 1.81864106e-13
1.21175312e+01 5.20930562e-13 1.64762018e-13 0.00000000e+00 3.56168544e-13 0.00000000e+00 1.64762018e-13
1.25230691e+01 4.63455402e-13 1.49268171e-13 0.00000000e+00 3.14187230e-13 0.00000000e+00 1.49268171e-13
1.29421791e+01 4.13315295e-13 1.35231331e-13 0.00000000e+00 2.78083965e-13 0.00000000e+00 1.35231331e-13
1.33753155e+01 3.70973468e-13 1.22514483e-13 0.00000000e+00 2.48458985e-13 0.00000000e+00 1.22514483e-13
1.38229477e+01 3.40204331e-13 1.10993499e-13 0.00000000e+00 2.29210832e-13 0.00000000e+00 1.10993499e-13
1.42855609e+01 3.19244471e-13 1.00555922e-13 0.00000000e+00 2.18688549e-13 0.00000000e+00 1.00555922e-13
1.47636563e+01 3.11916567e-13 9.10998706e-14 0.00000000e+00 2.20816696e-13 0.00000000e+00 9.10998706e-14
1.52577522e+01 3.09617479e-13 8.25330452e-14 0.00000000e+00 2.27084433e-13 0.00000000e+00 8.25330452e-14
1.57683840e+01 3.09604914e-13 7.47718247e-14 0.00000000e+00 2.34833089e-13 0.00000000e+00 7.47718247e-14
1.62961051e+01 3.10179334e-13 6.77404517e-14 0.00000000e+00 2.42438882e-13 0.00000000e+00 6.77404517e-14
1.68414875e+01 3.12741367e-13 6.13702932e-14 0.00000000e+00 2.51371074e-13 0.00000000e+00 6.13702932e-14
1.74051222e+01 3.10227683e-13 5.55991699e-14 0.00000000e+00 2.54628513e-13 0.00000000e+00 5.55991699e-14
1.79876201e+01 3.07074444e-13 5.03707500e-14 0.00000000e+00 2.56703694e-13 0.00000000e+00 5.03707500e-14
1.85896125e+01 2.98910543e-13 4.56339988e-14 0.00000000e+00 2.53276544e-13 0.00000000e+00 4.56339988e-14
1.92117518e+01 2.86501396e-13 4.13426810e-14 0.00000000e+00 2.45158715e-13 0.00000000e+00 4.13426810e-14
1.98547123e+01 2.72426196e-13 3.74549090e-14 0.00000000e+00 2.34971287e-13 0.00000000e+00 3.74549090e-14
2.05191907e+01 2.58153750e-13 3.39327342e-14 0.00000000e+00 2.24221016e-13 0.00000000e+00 3.39327342e-14
2.12059073e+01 2.45139511e-13 3.07417768e-14 0.00000000e+00 2.14397735e-13 0.00000000e+00 3.07417768e-14
2.19156062e+01 2.33607938e-13 2.78508898e-14 0.00000000e+00 2.05757048e-13 0.00000000e+00 2.78508898e-14
2.26490567e+01 2.23342485e-13 2.52318552e-14 0.00000000e+00 1.98110630e-13 0.00000000e+00 2.52318552e-14
2.34070535e+01 2.14119779e-13 2.28591087e-14 0.00000000e+00 1.91260670e-13 0.00000000e+00 2.28591087e-14
2.41904183e+01 2.05944348e-13 2.07094900e-14 0.00000000e+00 1.85234858e-13 0.00000000e+00 2.07094900e-14
2.50000000e+01 1.98541978e-13 1.87620165e-14 0.00000000e+00 1.79779962e-13 0.00000000e+00 1.87620165e-14
2.75422870e+01 1.79275837e-13 1.40313526e-14 0.00000000e+00 1.65244485e-13 0.00000000e+00 1.40313526e-14
3.16227766e+01 1.56942215e-13 9.27042274e-15 0.00000000e+00 1.47671792e-13 0.00000000e+00 9.27042274e-15
3.63078055e+01 1.34799071e-13 6.12490756e-15 0.00000000e+00 1.28674163e-13 0.00000000e+00 6.12490756e-15
4.16869383e+01 1.11626588e-13 4.04668630e-15 0.00000000e+00 1.07579902e-13 0.00000000e+00 4.04668630e-15
4.78630092e+01 8.81083333e-14 2.67361912e-15 0.00000000e+00 8.54347142e-14 0.00000000e+00 2.67361912e-15
5.49540874e+01 6.64460210e-14 1.76644264e-15 0.00000000e+00 6.46795784e-14 0.00000000e+00 1.76644264e-15
6.30957344e+01 4.80714820e-14 1.16707708e-15 0.00000000e+00 4.69044049e-14 0.00000000e+00 1.16707708e-15
7.24435960e+01 3.33852759e-14 7.71080178e-16 0.00000000e+00 3.26141957e-14 0.00000000e+00 7.71080178e-16
8.31763771e+01 2.23511447e-14 5.09447621e-16 0.00000000e+00 2.18416970e-14 0.00000000e+00 5.09447621e-16
9.54992586e+01 1.44936176e-14 3.36588705e-16 0.00000000e+00 1.41570289e-14 0.00000000e+00 3.36588705e-16
1.09647820e+02 9.12933811e-15 2.22381952e-16 0.00000000e+00 8.90695616e-15 0.00000000e+00 2.22381952e-16
1.25892541e+02 5.66122411e-15 1.46926299e-16 0.00000000e+00 5.51429781e-15 0.00000000e+00 1.46926299e-16
1.44543977e+02 3.44247968e-15 9.70732430e-17 0.00000000e+00 3.34540644e-15 0.00000000e+00 9.70732430e-17
1.65958691e+02 1.97769287e-15 6.41356556e-17 0.00000000e+00 1.91355721e-15 0.00000000e+00 6.41356556e-17
1.90546072e+02 1.12418836e-15 4.23740075e-17 0.00000000e+00 1.08181436e-15 0.00000000e+00 4.23740075e-17
2.18776162e+02 6.32028152e-16 2.79962291e-17 0.00000000e+00 6.04031923e-16 0.00000000e+00 2.79962291e-17
2.51188643e+02 3.51414056e-16 1.84969251e-17 0.00000000e+00 3.32917131e-16 0.00000000e+00 1.84969251e-17
2.88403150e+02 1.93395444e-16 1.22207972e-17 0.00000000e+00 1.81174647e-16 0.00000000e+00 1.22207972e-17
3.31131121e+02 1.05713588e-16 8.07420067e-18 0.00000000e+00 9.76393870e-17 0.00000000e+00 8.07420067e-18
3.80189396e+02 5.74385307e-17 5.33457148e-18 0.00000000e+00 5.21039592e-17 0.00000000e+00 5.33457148e-18
4.36515832e+02 3.11168894e-17 3.52451642e-18 0.00000000e+00 2.75923730e-17 0.00000000e+00 3.52451642e-18
5.01187234e+02 1.68362413e-17 2.32862491e-18 0.00000000e+00 1.45076164e-17 0.00000000e+00 2.32862491e-18
5.75439937e+02 9.12039642e-18 1.53850722e-18 0.00000000e+00 7.58188920e-18 0.00000000e+00 1.53850722e-18
6.60693448e+02 4.95840304e-18 1.01648164e-18 0.00000000e+00 3.94192140e-18 0.00000000e+00 1.01648164e-18
7.58577575e+02 2.71187135e-18 6.71582760e-19 0.00000000e+00 2.04028859e-18 0.00000000e+00 6.71582760e-19
8.70963590e+02 1.49539827e-18 4.43710329e-19 0.00000000e+00 1.05168794e-18 0.00000000e+00 4.43710329e-19
1.00000000e+03 5.40117525e-19 0.00000000e+00 0.00000000e+00 5.40117525e-19 0.00000000e+00 0.00000000e+00
