# column 1: lambda (micron)
# column 2: total flux; lambda*F_lambda (W/m2)
# column 3: direct stellar flux; lambda*F_lambda (W/m2)
# column 4: scattered stellar flux; lambda*F_lambda (W/m2)
# column 5: total dust emission flux; lambda*F_lambda (W/m2)
# column 6: dust emission scattered flux; lambda*F_lambda (W/m2)
# column 7: transparent flux; lambda*F_lambda (W/m2)
1.00000000e-03 8.46529808e-13 8.46529401e-13 4.07338579e-19 0.00000000e+00 0.00000000e+00 8.46529401e-13
1.14815362e-03 9.99176738e-13 9.99176121e-13 6.17246384e-19 0.00000000e+00 0.00000000e+00 9.99176121e-13
1.31825674e-03 1.17934915e-12 1.17934819e-12 9.58801742e-19 0.00000000e+00 0.00000000e+00 1.17934819e-12
1.51356125e-03 1.39201045e-12 1.39200901e-12 1.43705730e-18 0.00000000e+00 0.00000000e+00 1.39200901e-12
1.73780083e-03 1.64301957e-12 1.64301696e-12 2.60668513e-18 0.00000000e+00 0.00000000e+00 1.64301696e-12
1.99526231e-03 1.93929150e-12 1.93928682e-12 4.67487085e-18 0.00000000e+00 0.00000000e+00 1.93928682e-12
2.29086765e-03 2.28898724e-12 2.28898025e-12 6.99007961e-18 0.00000000e+00 0.00000000e+00 2.28898025e-12
2.63026799e-03 2.70174539e-12 2.70173063e-12 1.47614577e-17 0.00000000e+00 0.00000000e+00 2.70173063e-12
3.01995172e-03 3.18893283e-12 3.18890841e-12 2.44170857e-17 0.00000000e+00 0.00000000e+00 3.18890841e-12
3.46736850e-03 3.76397429e-12 3.76393440e-12 3.98900592e-17 0.00000000e+00 0.00000000e+00 3.76393440e-12
3.98107171e-03 4.44271355e-12 4.44264945e-12 6.41053050e-17 0.00000000e+00 0.00000000e+00 4.44264945e-12
4.57088190e-03 5.24389656e-12 5.24375082e-12 1.45740059e-16 0.00000000e+00 0.00000000e+00 5.24375082e-12
5.24807460e-03 6.18956527e-12 6.18930730e-12 2.57966921e-16 0.00000000e+00 0.00000000e+00 6.18930730e-12
6.02559586e-03 7.30584374e-12 7.30536713e-12 4.76612115e-16 0.00000000e+00 0.00000000e+00 7.30536713e-12
6.91830971e-03 8.62339661e-12 8.62267558e-12 7.21034055e-16 0.00000000e+00 0.00000000e+00 8.62267558e-12
7.94328235e-03 1.01787253e-11 1.01775219e-11 1.20337891e-15 6.70675783e-304 1.81308081e-305 1.01775219e-11
9.12010839e-03 1.20146091e-11 1.20127391e-11 1.86993526e-15 4.07261804e-265 4.69212835e-266 1.20127391e-11
1.04712855e-02 1.34191555e-11 1.34165878e-11 2.56767146e-15 1.95626697e-231 9.28767798e-233 1.34165878e-11
1.20226443e-02 1.34204732e-11 1.34165878e-11 3.88538320e-15 3.97503861e-202 4.94360712e-203 1.34165878e-11
1.38038426e-02 1.34221116e-11 1.34165878e-11 5.52375184e-15 1.18824047e-176 8.57143835e-178 1.34165878e-11
1.58489319e-02 1.34240604e-11 1.34165878e-11 7.47259578e-15 1.82694482e-154 1.25478293e-155 1.34165878e-11
1.81970086e-02 1.34283513e-11 1.34165878e-11 1.17634500e-14 3.71224771e-135 3.11333239e-136 1.34165878e-11
2.08929613e-02 1.34319674e-11 1.34165878e-11 1.53795170e-14 2.12222467e-118 1.67237059e-119 1.34165878e-11
2.39883292e-02 1.34365889e-11 1.34165878e-11 2.00010767e-14 8.13689376e-104 6.79646443e-105 1.34165878e-11
2.75422870e-02 1.34426783e-11 1.34165878e-11 2.60904856e-14 3.92072361e-91 3.43948237e-92 1.34165878e-11
3.16227766e-02 1.34537388e-11 1.34165878e-11 3.71509687e-14 4.03813573e-80 3.39213402e-81 1.34165878e-11
3.63078055e-02 1.34564517e-11 1.34165878e-11 3.98638299e-14 1.47326790e-70 1.22593861e-71 1.34165878e-11
4.16869383e-02 1.34743090e-11 1.34165878e-11 5.77211725e-14 2.95527851e-62 2.69095589e-63 1.34165878e-11
4.78630092e-02 1.34944928e-11 1.34165878e-11 7.79049397e-14 4.59038137e-55 4.28022388e-56 1.34165878e-11
5.49540874e-02 1.35100373e-11 1.34165878e-11 9.34494900e-14 7.78813823e-49 7.24585406e-50 1.34165878e-11
6.30957344e-02 1.35282999e-11 1.34165878e-11 1.11712090e-13 2.48190109e-43 2.09256072e-44 1.34165878e-11
7.24435960e-02 1.35225835e-11 1.34165878e-11 1.05995706e-13 1.41798928e-38 9.85925940e-40 1.34165878e-11
8.31763771e-02 1.35235824e-11 1.34165878e-11 1.06994519e-13 1.49141077e-34 1.01440324e-35 1.34165878e-11
9.54992586e-02 1.35282757e-11 1.34165878e-11 1.11687828e-13 4.34275290e-31 3.07953164e-32 1.34165878e-11
1.09647820e-01 1.29258565e-11 1.28127470e-11 1.13109510e-13 3.87841217e-28 3.16080302e-29 1.28127470e-11
1.25892541e-01 1.20587443e-11 1.19575512e-11 1.01193146e-13 1.32065517e-25 1.17828975e-26 1.19575512e-11
1.44543977e-01 1.12518848e-11 1.11594361e-11 9.24486846e-14 1.88146606e-23 1.74836202e-24 1.11594361e-11
1.65958691e-01 1.05124643e-11 1.04145917e-11 9.78726106e-14 9.83986642e-22 9.88759426e-23 1.04145917e-11
1.90546072e-01 9.83298627e-12 9.71946251e-12 1.13523732e-13 2.08045201e-20 2.30521527e-21 9.71946251e-12
2.18776162e-01 9.17975040e-12 9.07073019e-12 1.09019964e-13 2.41443996e-19 2.48723081e-20 9.07073019e-12
2.51188643e-01 8.59334731e-12 8.46529796e-12 1.28046280e-13 3.07018593e-18 3.93414335e-19 8.46529796e-12
2.88403150e-01 8.02235669e-12 7.90027573e-12 1.22054482e-13 2.64800827e-17 3.49895451e-18 7.90027573e-12
3.31131121e-01 7.47974252e-12 7.37296631e-12 1.06620957e-13 1.55254146e-16 2.02324342e-17 7.37296631e-12
3.80189396e-01 6.98231445e-12 6.88085251e-12 1.00801125e-13 6.60809327e-16 8.53554889e-17 6.88085251e-12
4.36515832e-01 6.51641252e-12 6.42158520e-12 9.27002860e-14 2.12703422e-15 2.67392257e-16 6.42158520e-12
5.01187234e-01 6.08331074e-12 5.99297201e-12 8.49178207e-14 5.42090869e-15 6.80150955e-16 5.99297201e-12
5.75439937e-01 5.68298408e-12 5.59296690e-12 7.85836266e-14 1.14335573e-14 1.39631931e-15 5.59296690e-12
6.60693448e-01 5.31467003e-12 5.21966041e-12 7.39886960e-14 2.10209224e-14 2.59200866e-15 5.21966041e-12
7.58577575e-01 4.97475073e-12 4.87127053e-12 6.78058351e-14 3.56743632e-14 4.53905047e-15 4.87127053e-12
8.70963590e-01 4.66536447e-12 4.54613417e-12 6.04672393e-14 5.87630625e-14 7.72167680e-15 4.54613417e-12
1.00000000e+00 4.39110852e-12 4.24269927e-12 5.17268244e-14 9.66824307e-14 1.31529992e-14 4.24269927e-12
1.14815362e+00 4.16782817e-12 3.95951734e-12 4.50065273e-14 1.63304304e-13 2.20918819e-14 3.95951734e-12
1.31825674e+00 4.00656873e-12 3.69523659e-12 3.55015925e-14 2.75830548e-13 3.47196202e-14 3.69523659e-12
1.51356125e+00 3.92655351e-12 3.44859544e-12 2.71735888e-14 4.50784486e-13 5.07374912e-14 3.44859544e-12
1.73780083e+00 3.92282985e-12 3.21841652e-12 2.05683435e-14 6.83844987e-13 6.47973647e-14 3.21841652e-12
1.99526231e+00 3.96627885e-12 3.00360106e-12 1.52454177e-14 9.47432375e-13 7.18856268e-14 3.00360106e-12
2.29086765e+00 4.01849756e-12 2.80312361e-12 1.06245276e-14 1.20474942e-12 7.13079565e-14 2.80312361e-12
2.63026799e+00 4.03563793e-12 2.61602716e-12 7.67697565e-15 1.41193379e-12 6.41377825e-14 2.61602716e-12
3.01995172e+00 3.99188096e-12 2.44141860e-12 5.20658964e-15 1.54525577e-12 5.38374324e-14 2.44141860e-12
3.46736850e+00 3.87792707e-12 2.27846441e-12 3.68351719e-15 1.59577914e-12 4.21440633e-14 2.27846441e-12
3.98107171e+00 3.70731269e-12 2.12638671e-12 2.44579640e-15 1.57848018e-12 3.11931397e-14 2.12638671e-12
4.57088190e+00 3.47960122e-12 1.98445954e-12 1.62672855e-15 1.49351495e-12 2.14735191e-14 1.98445954e-12
5.24807460e+00 3.02364548e-12 1.64084388e-12 9.31303013e-16 1.38187030e-12 1.39299875e-14 1.64084388e-12
6.02559586e+00 2.34372383e-12 1.08409480e-12 4.00540223e-16 1.25922850e-12 8.52288889e-15 1.08409480e-12
6.70000000e+00 1.95143153e-12 7.88574724e-13 2.14663778e-16 1.16264214e-12 5.54850994e-15 7.88574724e-13
6.92422916e+00 1.84406839e-12 7.14418944e-13 1.68287293e-16 1.12948116e-12 4.81878746e-15 7.14418944e-13
7.15596261e+00 1.75873797e-12 6.47236606e-13 1.34004004e-16 1.11136736e-12 4.16846877e-15 6.47236606e-13
7.39545150e+00 1.70465486e-12 5.86371942e-13 1.01035704e-16 1.11818189e-12 3.54167612e-15 5.86371942e-13
7.64295536e+00 1.72657440e-12 5.31230854e-13 7.11035051e-17 1.19527245e-12 2.97670668e-15 5.31230854e-13
7.89874245e+00 1.86022373e-12 4.81275108e-13 4.43543147e-17 1.37890427e-12 2.40578566e-15 4.81275108e-13
8.16308998e+00 2.07705397e-12 4.36017088e-13 2.61594700e-17 1.64101072e-12 1.90699520e-15 4.36017088e-13
8.43628443e+00 2.37805312e-12 3.95015029e-13 1.46586855e-17 1.98302343e-12 1.47047675e-15 3.95015029e-13
8.71862190e+00 2.57509501e-12 3.57868711e-13 9.36851668e-18 2.21721693e-12 1.15389480e-15 3.57868711e-13
9.01040836e+00 2.76193035e-12 3.24215549e-13 6.05909051e-18 2.43770874e-12 8.86676084e-16 3.24215549e-13
9.31196005e+00 2.90042701e-12 2.93727053e-13 0.00000000e+00 2.60669996e-12 0.00000000e+00 2.93727053e-13
9.62360379e+00 2.83394963e-12 2.66105627e-13 0.00000000e+00 2.56784400e-12 0.00000000e+00 2.66105627e-13
9.94567731e+00 2.63693951e-12 2.41081657e-13 0.00000000e+00 2.39585785e-12 0.00000000e+00 2.41081657e-13
1.02785297e+01 2.41609585e-12 2.18410884e-13 0.00000000e+00 2.19768496e-12 0.00000000e+00 2.18410884e-13
1.06225216e+01 2.20004700e-12 1.97872020e-13 0.00000000e+00 2.00217498e-12 0.00000000e+00 1.97872020e-13
1.09780260e+01 1.96595645e-12 1.79264583e-13 0.00000000e+00 1.78669186e-12 0.00000000e+00 1.79264583e-13
1.13454280e+01 1.76904717e-12 1.62406948e-13 0.00000000e+00 1.60664022e-12 0.00000000e+00 1.62406948e-13
1.17251259e+01 1.60331022e-12 1.47134567e-13 0.00000000e+00 1.45617565e-12 0.00000000e+00 1.47134567e-13
1.21175312e+01 1.44774385e-12 1.33298366e-13 0.00000000e+00 1.31444549e-12 0.00000000e+00 1.33298366e-13
1.25230691e+01 1.31088892e-12 1.20763289e-13 0.00000000e+00 1.19012563e-12 0.00000000e+00 1.20763289e-13
1.29421791e+01 1.19473271e-12 1.09406983e-13 0.00000000e+00 1.08532573e-12 0.00000000e+00 1.09406983e-13
1.33753155e+01 1.09446179e-12 9.91185987e-14 0.00000000e+00 9.95343191e-13 0.00000000e+00 9.91185987e-14
1.38229477e+01 1.02700184e-12 8.97977103e-14 0.00000000e+00 9.37204129e-13 0.00000000e+00 8.97977103e-14
1.42855609e+01 9.86202885e-13 8.13533371e-14 0.00000000e+00 9.04849548e-13 0.00000000e+00 8.13533371e-14
1.47636563e+01 9.90651952e-13 7.37030537e-14 0.00000000e+00 9.16948898e-13 0.00000000e+00 7.37030537e-14
1.52577522e+01 1.00486640e-12 6.67721855e-14 0.00000000e+00 9.38094218e-13 0.00000000e+00 6.67721855e-14
1.57683840e+01 1.02662895e-12 6.04930805e-14 0.00000000e+00 9.66135870e-13 0.00000000e+00 6.04930805e-14
1.62961051e+01 1.05011233e-12 5.48044484e-14 0.00000000e+00 9.95307882e-13 0.00000000e+00 5.48044484e-14
1.68414875e+01 1.07162587e-12 4.96507622e-14 0.00000000e+00 1.02197511e-12 0.00000000e+00 4.96507622e-14
1.74051222e+01 1.08490984e-12 4.49817171e-14 0.00000000e+00 1.03992812e-12 0.00000000e+00 4.49817171e-14
1.79876201e+01 1.08508302e-12 4.07517384e-14 0.00000000e+00 1.04433128e-12 0.00000000e+00 4.07517384e-14
1.85896125e+01 1.07520425e-12 3.69195372e-14 0.00000000e+00 1.03828472e-12 0.00000000e+00 3.69195372e-14
1.92117518e+01 1.04646004e-12 3.34477076e-14 0.00000000e+00 1.01301234e-12 0.00000000e+00 3.34477076e-14
1.98547123e+01 1.01400015e-12 3.03023610e-14 0.00000000e+00 9.83697789e-13 0.00000000e+00 3.03023610e-14
2.05191907e+01 9.77183969e-13 2.74527957e-14 0.00000000e+00 9.49731173e-13 0.00000000e+00 2.74527957e-14
2.12059073e+01 9.41208029e-13 2.48711970e-14 0.00000000e+00 9.16336832e-13 0.00000000e+00 2.48711970e-14
2.19156062e+01 9.09956207e-13 2.25323660e-14 0.00000000e+00 8.87423841e-13 0.00000000e+00 2.25323660e-14
2.26490567e+01 8.78817207e-13 2.04134733e-14 0.00000000e+00 8.58403733e-13 0.00000000e+00 2.04134733e-14
2.34070535e+01 8.52802558e-13 1.84938366e-14 0.00000000e+00 8.34308722e-13 0.00000000e+00 1.84938366e-14
2.41904183e+01 8.26110327e-13 1.67547181e-14 0.00000000e+00 8.09355609e-13 0.00000000e+00 1.67547181e-14
2.50000000e+01 8.00798221e-13 1.51791424e-14 0.00000000e+00 7.85619078e-13 0.00000000e+00 1.51791424e-14
2.75422870e+01 7.26942615e-13 1.13518661e-14 0.00000000e+00 7.15590749e-13 0.00000000e+00 1.13518661e-14
3.16227766e+01 6.18560663e-13 7.50010357e-15 0.00000000e+00 6.11060560e-13 0.00000000e+00 7.50010357e-15
3.63078055e+01 5.00913918e-13 4.95526929e-15 0.00000000e+00 4.95958649e-13 0.00000000e+00 4.95526929e-15
4.16869383e+01 3.81020584e-13 3.27391395e-15 0.00000000e+00 3.77746670e-13 0.00000000e+00 3.27391395e-15
4.78630092e+01 2.71465532e-13 2.16305350e-15 0.00000000e+00 2.69302478e-13 0.00000000e+00 2.16305350e-15
5.49540874e+01 1.82533226e-13 1.42911527e-15 0.00000000e+00 1.81104110e-13 0.00000000e+00 1.42911527e-15
6.30957344e+01 1.17201812e-13 9.44207098e-16 0.00000000e+00 1.16257605e-13 0.00000000e+00 9.44207098e-16
7.24435960e+01 7.23889041e-14 6.23831443e-16 0.00000000e+00 7.17650726e-14 0.00000000e+00 6.23831443e-16
8.31763771e+01 4.33377329e-14 4.12161347e-16 0.00000000e+00 4.29255715e-14 0.00000000e+00 4.12161347e-16
9.54992586e+01 2.53416915e-14 2.72312302e-16 0.00000000e+00 2.50693792e-14 0.00000000e+00 2.72312302e-16
1.09647820e+02 1.45374319e-14 1.79914953e-16 0.00000000e+00 1.43575169e-14 0.00000000e+00 1.79914953e-16
1.25892541e+02 8.30437281e-15 1.18868631e-16 0.00000000e+00 8.18550418e-15 0.00000000e+00 1.18868631e-16
1.44543977e+02 4.70079933e-15 7.85357256e-17 0.00000000e+00 4.62226360e-15 0.00000000e+00 7.85357256e-17
1.65958691e+02 2.53051134e-15 5.18880394e-17 0.00000000e+00 2.47862330e-15 0.00000000e+00 5.18880394e-17
1.90546072e+02 1.36011024e-15 3.42820876e-17 0.00000000e+00 1.32582815e-15 0.00000000e+00 3.42820876e-17
2.18776162e+02 7.28600231e-16 2.26499507e-17 0.00000000e+00 7.05950280e-16 0.00000000e+00 2.26499507e-17
2.51188643e+02 3.88584904e-16 1.49646740e-17 0.00000000e+00 3.73620230e-16 0.00000000e+00 1.49646740e-17
2.88403150e+02 2.06251901e-16 9.88706207e-18 0.00000000e+00 1.96364839e-16 0.00000000e+00 9.88706207e-18
3.31131121e+02 1.09247105e-16 6.53231713e-18 0.00000000e+00 1.02714788e-16 0.00000000e+00 6.53231713e-18
3.80189396e+02 5.77476059e-17 4.31585913e-18 0.00000000e+00 5.34317468e-17 0.00000000e+00 4.31585913e-18
4.36515832e+02 3.05338151e-17 2.85145985e-18 0.00000000e+00 2.76823553e-17 0.00000000e+00 2.85145985e-18
5.01187234e+02 1.61682372e-17 1.88394084e-18 0.00000000e+00 1.42842964e-17 0.00000000e+00 1.88394084e-18
5.75439937e+02 8.59056129e-18 1.24470737e-18 0.00000000e+00 7.34585392e-18 0.00000000e+00 1.24470737e-18
6.60693448e+02 4.58899890e-18 8.22370004e-19 0.00000000e+00 3.76662889e-18 0.00000000e+00 8.22370004e-19
7.58577575e+02 2.46978530e-18 5.43334473e-19 0.00000000e+00 1.92645082e-18 0.00000000e+00 5.43334473e-19
8.70963590e+02 1.34183905e-18 3.58977527e-19 0.00000000e+00 9.82861526e-19 0.00000000e+00 3.58977527e-19
1.00000000e+03 5.00315022e-19 0.00000000e+00 0.00000000e+00 5.00315022e-19 0.00000000e+00 0.00000000e+00
