# column 1: lambda (micron)
# column 2: total flux; lambda*F_lambda (W/m2)
# column 3: direct stellar flux; lambda*F_lambda (W/m2)
# column 4: scattered stellar flux; lambda*F_lambda (W/m2)
# column 5: total dust emission flux; lambda*F_lambda (W/m2)
# column 6: dust emission scattered flux; lambda*F_lambda (W/m2)
# column 7: transparent flux; lambda*F_lambda (W/m2)
1.00000000e-03 6.93995471e-13 6.93993746e-13 1.72518705e-18 0.00000000e+00 0.00000000e+00 6.93993746e-13
1.14815362e-03 8.19137806e-13 8.19135139e-13 2.66729448e-18 0.00000000e+00 0.00000000e+00 8.19135139e-13
1.31825674e-03 9.66846212e-13 9.66842108e-13 4.10414479e-18 0.00000000e+00 0.00000000e+00 9.66842108e-13
1.51356125e-03 1.14119004e-12 1.14118369e-12 6.34449728e-18 0.00000000e+00 0.00000000e+00 1.14118369e-12
1.73780083e-03 1.34697301e-12 1.34696266e-12 1.03532534e-17 0.00000000e+00 0.00000000e+00 1.34696266e-12
1.99526231e-03 1.58986672e-12 1.58984782e-12 1.89006243e-17 0.00000000e+00 0.00000000e+00 1.58984782e-12
2.29086765e-03 1.87656035e-12 1.87653019e-12 3.01568081e-17 0.00000000e+00 0.00000000e+00 1.87653019e-12
2.63026799e-03 2.21496671e-12 2.21490731e-12 5.94024633e-17 0.00000000e+00 0.00000000e+00 2.21490731e-12
3.01995172e-03 2.61439548e-12 2.61430080e-12 9.46738137e-17 0.00000000e+00 0.00000000e+00 2.61430080e-12
3.46736850e-03 3.08587165e-12 3.08571319e-12 1.58462464e-16 0.00000000e+00 0.00000000e+00 3.08571319e-12
3.98107171e-03 3.64236814e-12 3.64213095e-12 2.37194046e-16 0.00000000e+00 0.00000000e+00 3.64213095e-12
4.57088190e-03 4.29948079e-12 4.29888232e-12 5.98474623e-16 0.00000000e+00 0.00000000e+00 4.29888232e-12
5.24807460e-03 5.07505425e-12 5.07405951e-12 9.94736022e-16 0.00000000e+00 0.00000000e+00 5.07405951e-12
6.02559586e-03 5.99120116e-12 5.98901715e-12 2.18400774e-15 0.00000000e+00 0.00000000e+00 5.98901715e-12
6.91830971e-03 7.07192166e-12 7.06896053e-12 2.96112915e-15 0.00000000e+00 0.00000000e+00 7.06896053e-12
7.94328235e-03 8.34840037e-12 8.34363998e-12 4.76038311e-15 2.22144506e-305 2.79962757e-306 8.34363998e-12
9.12010839e-03 9.85538361e-12 9.84817045e-12 7.21316213e-15 2.10629556e-266 2.89906019e-267 9.84817045e-12
1.04712855e-02 1.10112277e-11 1.09990604e-11 1.21672164e-14 1.69894773e-232 2.17133959e-233 1.09990604e-11
1.20226443e-02 1.10153659e-11 1.09990604e-11 1.63054146e-14 4.55885534e-203 4.28155530e-204 1.09990604e-11
1.38038426e-02 1.10200641e-11 1.09990604e-11 2.10036896e-14 2.12702491e-177 2.68739506e-178 1.09990604e-11
1.58489319e-02 1.10382915e-11 1.09990604e-11 3.92310826e-14 4.51119829e-155 6.40569829e-156 1.09990604e-11
1.81970086e-02 1.10451340e-11 1.09990604e-11 4.60735799e-14 1.12203913e-135 1.24665465e-136 1.09990604e-11
2.08929613e-02 1.10634684e-11 1.09990604e-11 6.44079061e-14 8.38669996e-119 1.14941905e-119 1.09990604e-11
2.39883292e-02 1.10760000e-11 1.09990604e-11 7.69395323e-14 3.82885367e-104 4.55163740e-105 1.09990604e-11
2.75422870e-02 1.10961594e-11 1.09990604e-11 9.70989413e-14 2.17581641e-91 2.57553573e-92 1.09990604e-11
3.16227766e-02 1.11161907e-11 1.09990604e-11 1.17130258e-13 2.58282361e-80 2.80433657e-81 1.09990604e-11
3.63078055e-02 1.11258867e-11 1.09990604e-11 1.26826295e-13 1.08289869e-70 1.17098328e-71 1.09990604e-11
4.16869383e-02 1.11585682e-11 1.09990604e-11 1.59507804e-13 2.39335150e-62 2.59968726e-63 1.09990604e-11
4.78630092e-02 1.11897130e-11 1.09990604e-11 1.90652555e-13 4.06822351e-55 4.26585298e-56 1.09990604e-11
5.49540874e-02 1.12081636e-11 1.09990604e-11 2.09103177e-13 7.40411064e-49 7.66862736e-50 1.09990604e-11
6.30957344e-02 1.12163314e-11 1.09990604e-11 2.17270940e-13 2.51421181e-43 2.48973475e-44 1.09990604e-11
7.24435960e-02 1.11970110e-11 1.09990604e-11 1.97950601e-13 1.50607596e-38 1.34042049e-39 1.09990604e-11
8.31763771e-02 1.11865287e-11 1.09990604e-11 1.87468236e-13 1.68355078e-34 1.47622983e-35 1.09990604e-11
9.54992586e-02 1.11962320e-11 1.09990604e-11 1.97171560e-13 5.20089560e-31 4.63677295e-32 1.09990604e-11
1.09647820e-01 1.07117785e-11 1.05040253e-11 2.07753196e-13 4.93504195e-28 4.72135901e-29 1.05040253e-11
1.25892541e-01 9.99915457e-12 9.80292679e-12 1.96227776e-13 1.76474987e-25 1.72158851e-26 9.80292679e-12
1.44543977e-01 9.32974142e-12 9.14862359e-12 1.81117832e-13 2.62247888e-23 2.60537991e-24 9.14862359e-12
1.65958691e-01 8.72555437e-12 8.53799231e-12 1.87562060e-13 1.42996134e-21 1.52648035e-22 8.53799231e-12
1.90546072e-01 8.16996554e-12 7.96811805e-12 2.01847461e-13 3.07733876e-20 3.57395242e-21 7.96811805e-12
2.18776162e-01 7.62275495e-12 7.43628044e-12 1.86474149e-13 3.62218566e-19 4.11002583e-20 7.43628044e-12
2.51188643e-01 7.15533623e-12 6.93994070e-12 2.15390761e-13 4.77508228e-18 6.45502152e-19 6.93994070e-12
2.88403150e-01 6.68025777e-12 6.47672950e-12 2.03485692e-13 4.25732611e-17 5.86388654e-18 6.47672950e-12
3.31131121e-01 6.23348988e-12 6.04443567e-12 1.88797545e-13 2.56672760e-16 3.50363057e-17 6.04443567e-12
3.80189396e-01 5.81744771e-12 5.64099558e-12 1.75336003e-13 1.11613083e-15 1.50042044e-16 5.64099558e-12
4.36515832e-01 5.43159570e-12 5.26448339e-12 1.63418013e-13 3.69430386e-15 4.93950696e-16 5.26448339e-12
5.01187234e-01 5.07191257e-12 4.91310176e-12 1.49164060e-13 9.64674925e-15 1.30017834e-15 4.91310176e-12
5.75439937e-01 4.74682788e-12 4.58517335e-12 1.40693053e-13 2.09614749e-14 2.79833625e-15 4.58517335e-12
6.60693448e-01 4.44707676e-12 4.27913275e-12 1.28328129e-13 3.96158846e-14 5.46180731e-15 4.27913275e-12
7.58577575e-01 4.18060109e-12 3.99351904e-12 1.17519286e-13 6.95627593e-14 1.01757463e-14 3.99351904e-12
8.70963590e-01 3.95117340e-12 3.72696882e-12 1.05092979e-13 1.19111596e-13 1.91616670e-14 3.72696882e-12
1.00000000e+00 3.77100291e-12 3.47820968e-12 8.92840104e-14 2.03509217e-13 3.53015868e-14 3.47820968e-12
1.14815362e+00 3.67945174e-12 3.24605414e-12 7.75318619e-14 3.55865731e-13 6.31764623e-14 3.24605414e-12
1.31825674e+00 3.71069772e-12 3.02939399e-12 6.20774298e-14 6.19226305e-13 1.05439718e-13 3.02939399e-12
1.51356125e+00 3.90910362e-12 2.82719497e-12 4.98729253e-14 1.03203573e-12 1.56885883e-13 2.82719497e-12
1.73780083e+00 4.27560914e-12 2.63849186e-12 3.83726238e-14 1.59874466e-12 2.06865645e-13 2.63849186e-12
1.99526231e+00 4.72216064e-12 2.46238388e-12 2.81359039e-14 2.23164085e-12 2.32320189e-13 2.46238388e-12
2.29086765e+00 5.17962831e-12 2.29803035e-12 2.00210492e-14 2.86157691e-12 2.28984920e-13 2.29803035e-12
2.63026799e+00 5.55916899e-12 2.14464670e-12 1.40506521e-14 3.40047163e-12 2.07564883e-13 2.14464670e-12
3.01995172e+00 5.81286562e-12 2.00150076e-12 1.00135520e-14 3.80135131e-12 1.78128275e-13 2.00150076e-12
3.46736850e+00 5.91917640e-12 1.86790919e-12 7.01285499e-15 4.04425436e-12 1.45495986e-13 1.86790919e-12
3.98107171e+00 5.90691448e-12 1.74323429e-12 5.02079344e-15 4.15865940e-12 1.16312674e-13 1.74323429e-12
4.57088190e+00 5.76551780e-12 1.62688090e-12 3.43747267e-15 4.13519943e-12 8.72052231e-14 1.62688090e-12
5.24807460e+00 5.40299266e-12 1.34518114e-12 2.00101982e-15 4.05581049e-12 6.11095410e-14 1.34518114e-12
6.02559586e+00 4.79395385e-12 8.88752369e-13 9.14191937e-16 3.90428729e-12 4.03832460e-14 8.88752369e-13
6.70000000e+00 4.38998388e-12 6.46481889e-13 4.72767847e-16 3.74302922e-12 2.76717526e-14 6.46481889e-13
6.92422916e+00 4.27892201e-12 5.85688198e-13 3.82560883e-16 3.69285125e-12 2.43188189e-14 5.85688198e-13
7.15596261e+00 4.19573576e-12 5.30611407e-13 3.01991275e-16 3.66482237e-12 2.11627730e-14 5.30611407e-13
7.39545150e+00 4.15520839e-12 4.80713913e-13 2.33477215e-16 3.67426100e-12 1.80160170e-14 4.80713913e-13
7.64295536e+00 4.25717399e-12 4.35508666e-13 1.58140487e-16 3.82150718e-12 1.46103536e-14 4.35508666e-13
7.89874245e+00 4.54347856e-12 3.94554418e-13 9.33793133e-17 4.14883076e-12 1.10138007e-14 3.94554418e-13
8.16308998e+00 4.93864095e-12 3.57451415e-13 5.29141955e-17 4.58113662e-12 8.13378709e-15 3.57451415e-13
8.43628443e+00 5.49980357e-12 3.23837494e-13 2.79598921e-17 5.17593812e-12 5.72478310e-15 3.23837494e-13
8.71862190e+00 5.82707682e-12 2.93384550e-13 1.77300996e-17 5.53367454e-12 4.38298138e-15 2.93384550e-13
9.01040836e+00 6.09379103e-12 2.65795332e-13 1.19119867e-17 5.82798379e-12 3.31849496e-15 2.65795332e-13
9.31196005e+00 6.35370411e-12 2.40800541e-13 0.00000000e+00 6.11290357e-12 0.00000000e+00 2.40800541e-13
9.62360379e+00 6.22530480e-12 2.18156204e-13 0.00000000e+00 6.00714860e-12 0.00000000e+00 2.18156204e-13
9.94567731e+00 5.92325041e-12 1.97641289e-13 0.00000000e+00 5.72560912e-12 0.00000000e+00 1.97641289e-13
1.02785297e+01 5.55400922e-12 1.79055550e-13 0.00000000e+00 5.37495367e-12 0.00000000e+00 1.79055550e-13
1.06225216e+01 5.19412223e-12 1.62217572e-13 0.00000000e+00 5.03190466e-12 0.00000000e+00 1.62217572e-13
1.09780260e+01 4.86437374e-12 1.46962999e-13 0.00000000e+00 4.71741074e-12 0.00000000e+00 1.46962999e-13
1.13454280e+01 4.55051620e-12 1.33142932e-13 0.00000000e+00 4.41737326e-12 0.00000000e+00 1.33142932e-13
1.17251259e+01 4.28572758e-12 1.20622472e-13 0.00000000e+00 4.16510510e-12 0.00000000e+00 1.20622472e-13
1.21175312e+01 4.02349871e-12 1.09279408e-13 0.00000000e+00 3.91421930e-12 0.00000000e+00 1.09279408e-13
1.25230691e+01 3.79348797e-12 9.90030204e-14 0.00000000e+00 3.69448495e-12 0.00000000e+00 9.90030204e-14
1.29421791e+01 3.55790467e-12 8.96930008e-14 0.00000000e+00 3.46821167e-12 0.00000000e+00 8.96930008e-14
1.33753155e+01 3.38388525e-12 8.12584743e-14 0.00000000e+00 3.30262678e-12 0.00000000e+00 8.12584743e-14
1.38229477e+01 3.22429873e-12 7.36171115e-14 0.00000000e+00 3.15068162e-12 0.00000000e+00 7.36171115e-14
1.42855609e+01 3.13572420e-12 6.66943252e-14 0.00000000e+00 3.06902987e-12 0.00000000e+00 6.66943252e-14
1.47636563e+01 3.13297691e-12 6.04225420e-14 0.00000000e+00 3.07255436e-12 0.00000000e+00 6.04225420e-14
1.52577522e+01 3.17069796e-12 5.47405431e-14 0.00000000e+00 3.11595742e-12 0.00000000e+00 5.47405431e-14
1.57683840e+01 3.21087161e-12 4.95928665e-14 0.00000000e+00 3.16127875e-12 0.00000000e+00 4.95928665e-14
1.62961051e+01 3.24545931e-12 4.49292657e-14 0.00000000e+00 3.20053004e-12 0.00000000e+00 4.49292657e-14
1.68414875e+01 3.27814775e-12 4.07042194e-14 0.00000000e+00 3.23744353e-12 0.00000000e+00 4.07042194e-14
1.74051222e+01 3.26999385e-12 3.68764869e-14 0.00000000e+00 3.23311736e-12 0.00000000e+00 3.68764869e-14
1.79876201e+01 3.28048656e-12 3.34087056e-14 0.00000000e+00 3.24707786e-12 0.00000000e+00 3.34087056e-14
1.85896125e+01 3.22547562e-12 3.02670267e-14 0.00000000e+00 3.19520859e-12 0.00000000e+00 3.02670267e-14
1.92117518e+01 3.16213062e-12 2.74207841e-14 0.00000000e+00 3.13470984e-12 0.00000000e+00 2.74207841e-14
1.98547123e+01 3.06306587e-12 2.48421957e-14 0.00000000e+00 3.03822368e-12 0.00000000e+00 2.48421957e-14
2.05191907e+01 2.97073390e-12 2.25060919e-14 0.00000000e+00 2.94822781e-12 0.00000000e+00 2.25060919e-14
2.12059073e+01 2.86784558e-12 2.03896700e-14 0.00000000e+00 2.84745591e-12 0.00000000e+00 2.03896700e-14
2.19156062e+01 2.77009788e-12 1.84722717e-14 0.00000000e+00 2.75162561e-12 0.00000000e+00 1.84722717e-14
2.26490567e+01 2.68355208e-12 1.67351811e-14 0.00000000e+00 2.66681690e-12 0.00000000e+00 1.67351811e-14
2.34070535e+01 2.57723050e-12 1.51614426e-14 0.00000000e+00 2.56206906e-12 0.00000000e+00 1.51614426e-14
2.41904183e+01 2.49494719e-12 1.37356949e-14 0.00000000e+00 2.48121150e-12 0.00000000e+00 1.37356949e-14
2.50000000e+01 2.40193016e-12 1.24440213e-14 0.00000000e+00 2.38948614e-12 0.00000000e+00 1.24440213e-14
2.75422870e+01 2.12522351e-12 9.30637977e-15 0.00000000e+00 2.11591713e-12 0.00000000e+00 9.30637977e-15
3.16227766e+01 1.72965287e-12 6.14866414e-15 0.00000000e+00 1.72350421e-12 0.00000000e+00 6.14866414e-15
3.63078055e+01 1.33042132e-12 4.06238211e-15 0.00000000e+00 1.32635894e-12 0.00000000e+00 4.06238211e-15
4.16869383e+01 9.55615613e-13 2.68398924e-15 0.00000000e+00 9.52931624e-13 0.00000000e+00 2.68398924e-15
4.78630092e+01 6.44298629e-13 1.77329411e-15 0.00000000e+00 6.42525335e-13 0.00000000e+00 1.77329411e-15
5.49540874e+01 4.09171413e-13 1.17160380e-15 0.00000000e+00 4.07999810e-13 0.00000000e+00 1.17160380e-15
6.30957344e+01 2.48820855e-13 7.74070953e-16 0.00000000e+00 2.48046784e-13 0.00000000e+00 7.74070953e-16
7.24435960e+01 1.45823896e-13 5.11423607e-16 0.00000000e+00 1.45312472e-13 0.00000000e+00 5.11423607e-16
8.31763771e+01 8.32043920e-14 3.37894226e-16 0.00000000e+00 8.28664978e-14 0.00000000e+00 3.37894226e-16
9.54992586e+01 4.66027207e-14 2.23244502e-16 0.00000000e+00 4.63794762e-14 0.00000000e+00 2.23244502e-16
1.09647820e+02 2.57241624e-14 1.47496179e-16 0.00000000e+00 2.55766662e-14 0.00000000e+00 1.47496179e-16
1.25892541e+02 1.42098918e-14 9.74497594e-17 0.00000000e+00 1.41124420e-14 0.00000000e+00 9.74497594e-17
1.44543977e+02 7.81021905e-15 6.43844175e-17 0.00000000e+00 7.74583463e-15 0.00000000e+00 6.43844175e-17
1.65958691e+02 4.09301431e-15 4.25383628e-17 0.00000000e+00 4.05047594e-15 0.00000000e+00 4.25383628e-17
1.90546072e+02 2.14797161e-15 2.81048176e-17 0.00000000e+00 2.11986680e-15 0.00000000e+00 2.81048176e-17
2.18776162e+02 1.12652757e-15 1.85686688e-17 0.00000000e+00 1.10795890e-15 0.00000000e+00 1.85686688e-17
2.51188643e+02 5.89341277e-16 1.22681978e-17 0.00000000e+00 5.77073079e-16 0.00000000e+00 1.22681978e-17
2.88403150e+02 3.07253270e-16 8.10551794e-18 0.00000000e+00 2.99147752e-16 0.00000000e+00 8.10551794e-18
3.31131121e+02 1.60007326e-16 5.35526259e-18 0.00000000e+00 1.54652063e-16 0.00000000e+00 5.35526259e-18
3.80189396e+02 8.31701103e-17 3.53818691e-18 0.00000000e+00 7.96319234e-17 0.00000000e+00 3.53818691e-18
4.36515832e+02 4.32351654e-17 2.33765691e-18 0.00000000e+00 4.08975085e-17 0.00000000e+00 2.33765691e-18
5.01187234e+02 2.24891258e-17 1.54447460e-18 0.00000000e+00 2.09446512e-17 0.00000000e+00 1.54447460e-18
5.75439937e+02 1.17216637e-17 1.02042425e-18 0.00000000e+00 1.07012394e-17 0.00000000e+00 1.02042425e-18
6.60693448e+02 6.13063892e-18 6.74187617e-19 0.00000000e+00 5.45645130e-18 0.00000000e+00 6.74187617e-19
7.58577575e+02 3.22265580e-18 4.45431341e-19 0.00000000e+00 2.77722446e-18 0.00000000e+00 4.45431341e-19
8.70963590e+02 1.70529489e-18 2.94293569e-19 0.00000000e+00 1.41100132e-18 0.00000000e+00 2.94293569e-19
1.00000000e+03 7.15663088e-19 0.00000000e+00 0.00000000e+00 7.15663088e-19 0.00000000e+00 0.00000000e+00
