# column 1: lambda (micron)
# column 2: total flux; lambda*F_lambda (W/m2)
# column 3: direct stellar flux; lambda*F_lambda (W/m2)
# column 4: scattered stellar flux; lambda*F_lambda (W/m2)
# column 5: total dust emission flux; lambda*F_lambda (W/m2)
# column 6: dust emission scattered flux; lambda*F_lambda (W/m2)
# column 7: transparent flux; lambda*F_lambda (W/m2)
1.00000000e-03 1.07336479e-12 1.07335627e-12 8.52079563e-18 0.00000000e+00 0.00000000e+00 1.07335627e-12
1.14815362e-03 1.26691719e-12 1.26690456e-12 1.26352323e-17 0.00000000e+00 0.00000000e+00 1.26690456e-12
1.31825674e-03 1.49537103e-12 1.49535359e-12 1.74446651e-17 0.00000000e+00 0.00000000e+00 1.49535359e-12
1.51356125e-03 1.76502162e-12 1.76499670e-12 2.49184622e-17 0.00000000e+00 0.00000000e+00 1.76499670e-12
1.73780083e-03 2.08330719e-12 2.08326203e-12 4.51659455e-17 0.00000000e+00 0.00000000e+00 2.08326203e-12
1.99526231e-03 2.45899035e-12 2.45891716e-12 7.31934579e-17 0.00000000e+00 0.00000000e+00 2.45891716e-12
2.29086765e-03 2.90242223e-12 2.90231066e-12 1.11567437e-16 0.00000000e+00 0.00000000e+00 2.90231066e-12
2.63026799e-03 3.42587599e-12 3.42565717e-12 2.18819736e-16 0.00000000e+00 0.00000000e+00 3.42565717e-12
3.01995172e-03 4.04370910e-12 4.04337385e-12 3.35258124e-16 0.00000000e+00 0.00000000e+00 4.04337385e-12
3.46736850e-03 4.77300707e-12 4.77247759e-12 5.29476597e-16 0.00000000e+00 0.00000000e+00 4.77247759e-12
3.98107171e-03 5.63385484e-12 5.63305378e-12 8.01056697e-16 0.00000000e+00 0.00000000e+00 5.63305378e-12
4.57088190e-03 6.65110217e-12 6.64880962e-12 2.29254874e-15 0.00000000e+00 0.00000000e+00 6.64880962e-12
5.24807460e-03 7.85140587e-12 7.84772720e-12 3.67867084e-15 0.00000000e+00 0.00000000e+00 7.84772720e-12
6.02559586e-03 9.26918171e-12 9.26283435e-12 6.34736010e-15 0.00000000e+00 0.00000000e+00 9.26283435e-12
6.91830971e-03 1.09428158e-11 1.09331145e-11 9.70123240e-15 0.00000000e+00 0.00000000e+00 1.09331145e-11
7.94328235e-03 1.29239704e-11 1.29045807e-11 1.93896867e-14 3.26835548e-304 5.51797472e-306 1.29045807e-11
9.12010839e-03 1.52631944e-11 1.52315429e-11 3.16514713e-14 2.47654553e-265 6.53915472e-267 1.52315429e-11
1.04712855e-02 1.70488922e-11 1.70115517e-11 3.73404824e-14 1.68628347e-231 5.75897190e-233 1.70115517e-11
1.20226443e-02 1.70649647e-11 1.70115517e-11 5.34129872e-14 3.93165148e-202 9.71512436e-204 1.70115517e-11
1.38038426e-02 1.71014708e-11 1.70115517e-11 8.99190476e-14 1.54779875e-176 5.81951320e-178 1.70115517e-11
1.58489319e-02 1.71370394e-11 1.70115517e-11 1.25487636e-13 2.88530881e-154 1.45079654e-155 1.70115517e-11
1.81970086e-02 1.71512510e-11 1.70115517e-11 1.39699241e-13 6.67503958e-135 2.87988386e-136 1.70115517e-11
2.08929613e-02 1.72178783e-11 1.70115517e-11 2.06326548e-13 4.42114164e-118 2.11017272e-119 1.70115517e-11
2.39883292e-02 1.72501715e-11 1.70115517e-11 2.38619736e-13 1.90420294e-103 9.65906013e-105 1.70115517e-11
2.75422870e-02 1.73088343e-11 1.70115517e-11 2.97282597e-13 1.02103184e-90 5.79155623e-92 1.70115517e-11
3.16227766e-02 1.73599124e-11 1.70115517e-11 3.48360732e-13 1.16492356e-79 7.34820444e-81 1.70115517e-11
3.63078055e-02 1.73741686e-11 1.70115517e-11 3.62616910e-13 4.61420818e-70 2.95903848e-71 1.70115517e-11
4.16869383e-02 1.74540679e-11 1.70115517e-11 4.42516182e-13 9.88578934e-62 7.06016584e-63 1.70115517e-11
4.78630092e-02 1.74858271e-11 1.70115517e-11 4.74275373e-13 1.64550363e-54 1.24519205e-55 1.70115517e-11
5.49540874e-02 1.74710645e-11 1.70115517e-11 4.59512751e-13 2.95283396e-48 2.22997890e-49 1.70115517e-11
6.30957344e-02 1.73990898e-11 1.70115517e-11 3.87538042e-13 1.00674738e-42 7.43841029e-44 1.70115517e-11
7.24435960e-02 1.73168043e-11 1.70115517e-11 3.05252593e-13 6.09195282e-38 4.01883055e-39 1.70115517e-11
8.31763771e-02 1.73061083e-11 1.70115517e-11 2.94556588e-13 6.61283059e-34 4.19254494e-35 1.70115517e-11
9.54992586e-02 1.73146827e-11 1.70115517e-11 3.03131018e-13 1.96839715e-30 1.26274900e-31 1.70115517e-11
1.09647820e-01 1.65768960e-11 1.62459122e-11 3.30983830e-13 1.77155986e-27 1.21152688e-28 1.62459122e-11
1.25892541e-01 1.55191884e-11 1.51615674e-11 3.57621020e-13 6.08948135e-25 4.50871022e-26 1.51615674e-11
1.44543977e-01 1.45124981e-11 1.41495980e-11 3.62900165e-13 8.68980072e-23 6.57039114e-24 1.41495980e-11
1.65958691e-01 1.35670518e-11 1.32051732e-11 3.61878642e-13 4.57762648e-21 3.84473491e-22 1.32051732e-11
1.90546072e-01 1.26786102e-11 1.23237846e-11 3.54825448e-13 9.82594284e-20 8.85194490e-21 1.23237846e-11
2.18776162e-01 1.17810737e-11 1.15012250e-11 2.79847550e-13 1.16506484e-18 9.55273189e-20 1.15012250e-11
2.51188643e-01 1.10572001e-11 1.07335677e-11 3.23617697e-13 1.46496493e-17 1.49653419e-18 1.07335677e-11
2.88403150e-01 1.03384872e-11 1.00171482e-11 3.21212739e-13 1.26204295e-16 1.38036573e-17 1.00171482e-11
3.31131121e-01 9.66372253e-12 9.34854667e-12 3.14434669e-13 7.41188064e-16 8.27029466e-17 9.34854667e-12
3.80189396e-01 9.02652882e-12 8.72457139e-12 2.98797913e-13 3.15951973e-15 3.62924239e-16 8.72457139e-12
4.36515832e-01 8.43619502e-12 8.14224377e-12 2.83784462e-13 1.01667918e-14 1.17933134e-15 8.14224377e-12
5.01187234e-01 7.88194548e-12 7.59878402e-12 2.57343436e-13 2.58180307e-14 3.06075922e-15 7.59878402e-12
5.75439937e-01 7.38184056e-12 7.09159786e-12 2.36408243e-13 5.38344511e-14 6.44813803e-15 7.09159786e-12
6.60693448e-01 6.92886391e-12 6.61826421e-12 2.14507849e-13 9.60918535e-14 1.19833733e-14 6.61826421e-12
7.58577575e-01 6.52408386e-12 6.17652353e-12 1.91953030e-13 1.55607292e-13 2.11075870e-14 6.17652353e-12
8.70963590e-01 6.17739480e-12 5.76426715e-12 1.72820455e-13 2.40307197e-13 3.83578210e-14 5.76426715e-12
1.00000000e+00 5.89974782e-12 5.37952711e-12 1.46788457e-13 3.73432253e-13 7.03198013e-14 5.37952711e-12
1.14815362e+00 5.75771446e-12 5.02046681e-12 1.23903105e-13 6.13344546e-13 1.27062439e-13 5.02046681e-12
1.31825674e+00 5.84136230e-12 4.68537225e-12 9.92932950e-14 1.05669676e-12 2.16761635e-13 4.68537225e-12
1.51356125e+00 6.29733582e-12 4.37264380e-12 7.98754642e-14 1.84481656e-12 3.47490697e-13 4.37264380e-12
1.73780083e+00 7.20576640e-12 4.08078863e-12 6.52640452e-14 3.05971373e-12 4.89133867e-13 4.08078863e-12
1.99526231e+00 8.65012828e-12 3.80841354e-12 5.30553144e-14 4.78865943e-12 6.21670473e-13 3.80841354e-12
2.29086765e+00 1.04449997e-11 3.55421832e-12 4.11735940e-14 6.84960781e-12 7.26027703e-13 3.55421832e-12
2.63026799e+00 1.25912469e-11 3.31698953e-12 3.22741908e-14 9.24198322e-12 7.73291285e-13 3.31698953e-12
3.01995172e+00 1.47704677e-11 3.09559474e-12 2.38670188e-14 1.16510059e-11 7.79551298e-13 3.09559474e-12
3.46736850e+00 1.69980063e-11 2.88897711e-12 1.74131056e-14 1.40916161e-11 7.36588316e-13 2.88897711e-12
3.98107171e+00 1.91109543e-11 2.69615031e-12 1.24191289e-14 1.64023849e-11 6.53264943e-13 2.69615031e-12
4.57088190e+00 2.08236410e-11 2.51619387e-12 8.51224145e-15 1.82989349e-11 5.19902151e-13 2.51619387e-12
5.24807460e+00 2.17289542e-11 2.08050667e-12 4.91856356e-15 1.96435289e-11 3.76919437e-13 2.08050667e-12
6.02559586e+00 2.15893101e-11 1.37457712e-12 2.19848464e-15 2.02125344e-11 2.50247282e-13 1.37457712e-12
6.70000000e+00 2.11009451e-11 9.99872685e-13 1.14217159e-15 2.00999302e-11 1.70252514e-13 9.99872685e-13
6.92422916e+00 2.08381588e-11 9.05846924e-13 9.24282098e-16 1.99313876e-11 1.48940627e-13 9.05846924e-13
7.15596261e+00 2.05542465e-11 8.20663132e-13 7.30755668e-16 1.97328526e-11 1.28511544e-13 8.20663132e-13
7.39545150e+00 2.05068573e-11 7.43489831e-13 5.55847551e-16 1.97628117e-11 1.08624578e-13 7.43489831e-13
7.64295536e+00 2.07447334e-11 6.73573732e-13 3.82220036e-16 2.00707775e-11 8.74675402e-14 6.73573732e-13
7.89874245e+00 2.12836897e-11 6.10232385e-13 2.27772036e-16 2.06732296e-11 6.53342479e-14 6.10232385e-13
8.16308998e+00 2.17648609e-11 5.52847515e-13 1.26298992e-16 2.12118870e-11 4.65499445e-14 5.52847515e-13
8.43628443e+00 2.20021929e-11 5.00858987e-13 6.47916553e-17 2.15012691e-11 3.11629304e-14 5.00858987e-13
8.71862190e+00 2.22612027e-11 4.53759343e-13 3.73818154e-17 2.18074059e-11 2.27491788e-14 4.53759343e-13
9.01040836e+00 2.22998021e-11 4.11088843e-13 1.94654085e-17 2.18886938e-11 1.58983573e-14 4.11088843e-13
9.31196005e+00 2.23669234e-11 3.72430980e-13 0.00000000e+00 2.19944924e-11 0.00000000e+00 3.72430980e-13
9.62360379e+00 2.22010866e-11 3.37408415e-13 0.00000000e+00 2.18636782e-11 0.00000000e+00 3.37408415e-13
9.94567731e+00 2.15471863e-11 3.05679292e-13 0.00000000e+00 2.12415070e-11 0.00000000e+00 3.05679292e-13
1.02785297e+01 2.12533132e-11 2.76933904e-13 0.00000000e+00 2.09763793e-11 0.00000000e+00 2.76933904e-13
1.06225216e+01 2.09875821e-11 2.50891667e-13 0.00000000e+00 2.07366904e-11 0.00000000e+00 2.50891667e-13
1.09780260e+01 2.03714142e-11 2.27298384e-13 0.00000000e+00 2.01441158e-11 0.00000000e+00 2.27298384e-13
1.13454280e+01 1.98848820e-11 2.05923759e-13 0.00000000e+00 1.96789583e-11 0.00000000e+00 2.05923759e-13
1.17251259e+01 1.93008646e-11 1.86559155e-13 0.00000000e+00 1.91143055e-11 0.00000000e+00 1.86559155e-13
1.21175312e+01 1.86165847e-11 1.69015555e-13 0.00000000e+00 1.84475692e-11 0.00000000e+00 1.69015555e-13
1.25230691e+01 1.78447921e-11 1.53121715e-13 0.00000000e+00 1.76916704e-11 0.00000000e+00 1.53121715e-13
1.29421791e+01 1.70307929e-11 1.38722496e-13 0.00000000e+00 1.68920704e-11 0.00000000e+00 1.38722496e-13
1.33753155e+01 1.62155849e-11 1.25677347e-13 0.00000000e+00 1.60899076e-11 0.00000000e+00 1.25677347e-13
1.38229477e+01 1.55089051e-11 1.13858934e-13 0.00000000e+00 1.53950462e-11 0.00000000e+00 1.13858934e-13
1.42855609e+01 1.49271410e-11 1.03151898e-13 0.00000000e+00 1.48239891e-11 0.00000000e+00 1.03151898e-13
1.47636563e+01 1.47176040e-11 9.34517274e-14 0.00000000e+00 1.46241523e-11 0.00000000e+00 9.34517274e-14
1.52577522e+01 1.45973550e-11 8.46637387e-14 0.00000000e+00 1.45126913e-11 0.00000000e+00 8.46637387e-14
1.57683840e+01 1.45690588e-11 7.67021526e-14 0.00000000e+00 1.44923566e-11 0.00000000e+00 7.67021526e-14
1.62961051e+01 1.44814469e-11 6.94892560e-14 0.00000000e+00 1.44119577e-11 0.00000000e+00 6.94892560e-14
1.68414875e+01 1.43139598e-11 6.29546439e-14 0.00000000e+00 1.42510052e-11 0.00000000e+00 6.29546439e-14
1.74051222e+01 1.40487048e-11 5.70345319e-14 0.00000000e+00 1.39916703e-11 0.00000000e+00 5.70345319e-14
1.79876201e+01 1.37041304e-11 5.16711337e-14 0.00000000e+00 1.36524593e-11 0.00000000e+00 5.16711337e-14
1.85896125e+01 1.32995032e-11 4.68120974e-14 0.00000000e+00 1.32526911e-11 0.00000000e+00 4.68120974e-14
1.92117518e+01 1.27755739e-11 4.24099939e-14 0.00000000e+00 1.27331640e-11 0.00000000e+00 4.24099939e-14
1.98547123e+01 1.21716977e-11 3.84218542e-14 0.00000000e+00 1.21332758e-11 0.00000000e+00 3.84218542e-14
2.05191907e+01 1.15728635e-11 3.48087501e-14 0.00000000e+00 1.15380547e-11 0.00000000e+00 3.48087501e-14
2.12059073e+01 1.09054535e-11 3.15354141e-14 0.00000000e+00 1.08739181e-11 0.00000000e+00 3.15354141e-14
2.19156062e+01 1.03264470e-11 2.85698952e-14 0.00000000e+00 1.02978771e-11 0.00000000e+00 2.85698952e-14
2.26490567e+01 9.74089926e-12 2.58832470e-14 0.00000000e+00 9.71501601e-12 0.00000000e+00 2.58832470e-14
2.34070535e+01 9.16054281e-12 2.34492452e-14 0.00000000e+00 9.13709356e-12 0.00000000e+00 2.34492452e-14
2.41904183e+01 8.60703909e-12 2.12441313e-14 0.00000000e+00 8.58579496e-12 0.00000000e+00 2.12441313e-14
2.50000000e+01 8.06457151e-12 1.92463813e-14 0.00000000e+00 8.04532513e-12 0.00000000e+00 1.92463813e-14
2.75422870e+01 6.58747778e-12 1.43935895e-14 0.00000000e+00 6.57308419e-12 0.00000000e+00 1.43935895e-14
3.16227766e+01 4.78343918e-12 9.50975027e-15 0.00000000e+00 4.77392943e-12 0.00000000e+00 9.50975027e-15
3.63078055e+01 3.29941055e-12 6.28302969e-15 0.00000000e+00 3.29312752e-12 0.00000000e+00 6.28302969e-15
4.16869383e+01 2.14894789e-12 4.15115655e-15 0.00000000e+00 2.14479673e-12 0.00000000e+00 4.15115655e-15
4.78630092e+01 1.32514810e-12 2.74264194e-15 0.00000000e+00 1.32240546e-12 0.00000000e+00 2.74264194e-15
5.49540874e+01 7.76647044e-13 1.81204556e-15 0.00000000e+00 7.74834998e-13 0.00000000e+00 1.81204556e-15
6.30957344e+01 4.38333624e-13 1.19720663e-15 0.00000000e+00 4.37136418e-13 0.00000000e+00 1.19720663e-15
7.24435960e+01 2.40557110e-13 7.90986575e-16 0.00000000e+00 2.39766123e-13 0.00000000e+00 7.90986575e-16
8.31763771e+01 1.29400005e-13 5.22599647e-16 0.00000000e+00 1.28877406e-13 0.00000000e+00 5.22599647e-16
9.54992586e+01 6.87947640e-14 3.45278163e-16 0.00000000e+00 6.84494858e-14 0.00000000e+00 3.45278163e-16
1.09647820e+02 3.62686120e-14 2.28123020e-16 0.00000000e+00 3.60404890e-14 0.00000000e+00 2.28123020e-16
1.25892541e+02 1.92404073e-14 1.50719385e-16 0.00000000e+00 1.90896879e-14 0.00000000e+00 1.50719385e-16
1.44543977e+02 1.02130146e-14 9.95793099e-17 0.00000000e+00 1.01134352e-14 0.00000000e+00 9.95793099e-17
1.65958691e+02 5.19074980e-15 6.57913976e-17 0.00000000e+00 5.12495840e-15 0.00000000e+00 6.57913976e-17
1.90546072e+02 2.65350129e-15 4.34679453e-17 0.00000000e+00 2.61003334e-15 0.00000000e+00 4.34679453e-17
2.18776162e+02 1.36083351e-15 2.87189867e-17 0.00000000e+00 1.33211452e-15 0.00000000e+00 2.87189867e-17
2.51188643e+02 6.98629116e-16 1.89744463e-17 0.00000000e+00 6.79654669e-16 0.00000000e+00 1.89744463e-17
2.88403150e+02 3.58619934e-16 1.25362924e-17 0.00000000e+00 3.46083642e-16 0.00000000e+00 1.25362924e-17
3.31131121e+02 1.84428080e-16 8.28264623e-18 0.00000000e+00 1.76145434e-16 0.00000000e+00 8.28264623e-18
3.80189396e+02 9.49542851e-17 5.47229010e-18 0.00000000e+00 8.94819950e-17 0.00000000e+00 5.47229010e-18
4.36515832e+02 4.90367588e-17 3.61550621e-18 0.00000000e+00 4.54212526e-17 0.00000000e+00 3.61550621e-18
5.01187234e+02 2.54153626e-17 2.38874127e-18 0.00000000e+00 2.30266214e-17 0.00000000e+00 2.38874127e-18
5.75439937e+02 1.32400785e-17 1.57822570e-18 0.00000000e+00 1.16618528e-17 0.00000000e+00 1.57822570e-18
6.60693448e+02 6.94361134e-18 1.04272338e-18 0.00000000e+00 5.90088796e-18 0.00000000e+00 1.04272338e-18
7.58577575e+02 3.67248434e-18 6.88920507e-19 0.00000000e+00 2.98356384e-18 0.00000000e+00 6.88920507e-19
8.70963590e+02 1.96227865e-18 4.55165265e-19 0.00000000e+00 1.50711339e-18 0.00000000e+00 4.55165265e-19
1.00000000e+03 7.60597868e-19 0.00000000e+00 0.00000000e+00 7.60597868e-19 0.00000000e+00 0.00000000e+00
