# column 1: lambda (micron)
# column 2: total flux; lambda*F_lambda (W/m2)
# column 3: direct stellar flux; lambda*F_lambda (W/m2)
# column 4: scattered stellar flux; lambda*F_lambda (W/m2)
# column 5: total dust emission flux; lambda*F_lambda (W/m2)
# column 6: dust emission scattered flux; lambda*F_lambda (W/m2)
# column 7: transparent flux; lambda*F_lambda (W/m2)
1.00000000e-03 5.25638839e-13 5.25636674e-13 2.16500606e-18 0.00000000e+00 0.00000000e+00 5.25636674e-13
1.14815362e-03 6.20423546e-13 6.20419813e-13 3.73322907e-18 0.00000000e+00 0.00000000e+00 6.20419813e-13
1.31825674e-03 7.32299403e-13 7.32294308e-13 5.09463241e-18 0.00000000e+00 0.00000000e+00 7.32294308e-13
1.51356125e-03 8.64351127e-13 8.64342083e-13 9.04436050e-18 0.00000000e+00 0.00000000e+00 8.64342083e-13
1.73780083e-03 1.02021629e-12 1.02020080e-12 1.54971236e-17 0.00000000e+00 0.00000000e+00 1.02020080e-12
1.99526231e-03 1.20419155e-12 1.20416405e-12 2.75014738e-17 0.00000000e+00 0.00000000e+00 1.20416405e-12
2.29086765e-03 1.42134849e-12 1.42129968e-12 4.88074987e-17 0.00000000e+00 0.00000000e+00 1.42129968e-12
2.63026799e-03 1.67768221e-12 1.67758934e-12 9.28722718e-17 0.00000000e+00 0.00000000e+00 1.67758934e-12
3.01995172e-03 1.98027331e-12 1.98009332e-12 1.79991798e-16 0.00000000e+00 0.00000000e+00 1.98009332e-12
3.46736850e-03 2.33742870e-12 2.33714500e-12 2.83690951e-16 0.00000000e+00 0.00000000e+00 2.33714500e-12
3.98107171e-03 2.75907119e-12 2.75858048e-12 4.90710141e-16 0.00000000e+00 0.00000000e+00 2.75858048e-12
4.57088190e-03 3.25700471e-12 3.25600946e-12 9.95244763e-16 0.00000000e+00 0.00000000e+00 3.25600946e-12
5.24807460e-03 3.84492885e-12 3.84313516e-12 1.79368709e-15 0.00000000e+00 0.00000000e+00 3.84313516e-12
6.02559586e-03 4.53937249e-12 4.53613173e-12 3.24076012e-15 0.00000000e+00 0.00000000e+00 4.53613173e-12
6.91830971e-03 5.36084165e-12 5.35408989e-12 6.75175738e-15 0.00000000e+00 0.00000000e+00 5.35408989e-12
7.94328235e-03 6.32922620e-12 6.31954278e-12 9.68341525e-15 3.73727078e-304 1.29059762e-306 6.31954278e-12
9.12010839e-03 7.47329431e-12 7.45908676e-12 1.42075523e-14 1.62295648e-265 1.07219294e-267 7.45908676e-12
1.04712855e-02 8.35629991e-12 8.33078048e-12 2.55194344e-14 6.78098526e-232 3.99856128e-234 8.33078048e-12
1.20226443e-02 8.36329043e-12 8.33078048e-12 3.25099584e-14 1.06654328e-202 2.10858890e-204 8.33078048e-12
1.38038426e-02 8.38726215e-12 8.33078048e-12 5.64816716e-14 2.86422842e-177 4.06334207e-179 8.33078048e-12
1.58489319e-02 8.40537587e-12 8.33078048e-12 7.45953962e-14 3.85917682e-155 6.99959160e-157 8.33078048e-12
1.81970086e-02 8.42771123e-12 8.33078048e-12 9.69307570e-14 6.90285178e-136 1.92167187e-137 8.33078048e-12
2.08929613e-02 8.45376424e-12 8.33078048e-12 1.22983768e-13 3.59267835e-119 1.11161900e-120 8.33078048e-12
2.39883292e-02 8.47582441e-12 8.33078048e-12 1.45043931e-13 1.26174252e-104 4.83112608e-106 8.33078048e-12
2.75422870e-02 8.49007162e-12 8.33078048e-12 1.59291140e-13 5.66104764e-92 2.62259373e-93 8.33078048e-12
3.16227766e-02 8.52276995e-12 8.33078048e-12 1.91989476e-13 5.50719540e-81 2.75047581e-82 8.33078048e-12
3.63078055e-02 8.53239957e-12 8.33078048e-12 2.01619094e-13 1.90412176e-71 9.95196250e-73 8.33078048e-12
4.16869383e-02 8.56709788e-12 8.33078048e-12 2.36317400e-13 3.62845538e-63 2.23203479e-64 8.33078048e-12
4.78630092e-02 8.56306637e-12 8.33078048e-12 2.32285897e-13 5.46875247e-56 3.66057887e-57 8.33078048e-12
5.49540874e-02 8.55542468e-12 8.33078048e-12 2.24644206e-13 9.01584881e-50 6.04439020e-51 8.33078048e-12
6.30957344e-02 8.52524567e-12 8.33078048e-12 1.94465197e-13 2.87868719e-44 1.83508879e-45 8.33078048e-12
7.24435960e-02 8.49032905e-12 8.33078048e-12 1.59548573e-13 1.65102200e-39 9.00905323e-41 8.33078048e-12
8.31763771e-02 8.48655743e-12 8.33078048e-12 1.55776957e-13 1.68678695e-35 9.10411042e-37 8.33078048e-12
9.54992586e-02 8.49082320e-12 8.33078048e-12 1.60042728e-13 4.74737512e-32 2.63093412e-33 8.33078048e-12
1.09647820e-01 8.13910207e-12 7.95583672e-12 1.83265356e-13 4.03937315e-29 2.53306265e-30 7.95583672e-12
1.25892541e-01 7.60965005e-12 7.42481883e-12 1.84831219e-13 1.31553301e-26 8.89083754e-28 7.42481883e-12
1.44543977e-01 7.10162363e-12 6.92924411e-12 1.72379519e-13 1.79629262e-24 1.24983063e-25 6.92924411e-12
1.65958691e-01 6.64649200e-12 6.46674687e-12 1.79745130e-13 9.09699997e-23 6.85130571e-24 6.46674687e-12
1.90546072e-01 6.21457972e-12 6.03511933e-12 1.79460396e-13 1.91350170e-21 1.62696601e-22 6.03511933e-12
2.18776162e-01 5.79284327e-12 5.63230107e-12 1.60542181e-13 2.25117642e-20 1.86249905e-21 5.63230107e-12
2.51188643e-01 5.44029040e-12 5.25636919e-12 1.83920936e-13 2.73934452e-19 2.77483903e-20 5.25636919e-12
2.88403150e-01 5.08293434e-12 4.90552916e-12 1.77402898e-13 2.28460707e-18 2.33889631e-19 4.90552916e-12
3.31131121e-01 4.74298796e-12 4.57810618e-12 1.64868652e-13 1.31275060e-17 1.34827399e-18 4.57810618e-12
3.80189396e-01 4.42601974e-12 4.27253728e-12 1.53427728e-13 5.47262736e-17 5.49513973e-18 4.27253728e-12
4.36515832e-01 4.12475611e-12 3.98736380e-12 1.37217026e-13 1.75285088e-16 1.78332254e-17 3.98736380e-12
5.01187234e-01 3.84712647e-12 3.72122441e-12 1.25444410e-13 4.57647251e-16 4.94213249e-17 3.72122441e-12
5.75439937e-01 3.59058744e-12 3.47284869e-12 1.16637219e-13 1.10153451e-15 1.41272806e-16 3.47284869e-12
6.60693448e-01 3.34786600e-12 3.24105097e-12 1.04037453e-13 2.77756946e-15 4.58488172e-16 3.24105097e-12
7.58577575e-01 3.12174441e-12 3.02472476e-12 8.93168983e-14 7.70275130e-15 1.48379707e-15 3.02472476e-12
8.70963590e-01 2.92498088e-12 2.82283739e-12 8.05225314e-14 2.16209548e-14 4.33159746e-15 2.82283739e-12
1.00000000e+00 2.75789046e-12 2.63442513e-12 6.80836368e-14 5.53816909e-14 1.05313300e-14 2.63442513e-12
1.14815362e+00 2.64203786e-12 2.45858859e-12 5.45801934e-14 1.28869075e-13 2.22438956e-14 2.45858859e-12
1.31825674e+00 2.60951981e-12 2.29448837e-12 4.45857953e-14 2.70445641e-13 4.05460021e-14 2.29448837e-12
1.51356125e+00 2.67992418e-12 2.14134114e-12 3.38448651e-14 5.04738177e-13 6.42790616e-14 2.14134114e-12
1.73780083e+00 2.86722164e-12 1.99841583e-12 2.61000543e-14 8.42705756e-13 8.78323371e-14 1.99841583e-12
1.99526231e+00 3.12818620e-12 1.86503017e-12 1.88740530e-14 1.24428197e-12 1.02891242e-13 1.86503017e-12
2.29086765e+00 3.42314393e-12 1.74054743e-12 1.32841748e-14 1.66931233e-12 1.06285765e-13 1.74054743e-12
2.63026799e+00 3.68104615e-12 1.62437337e-12 9.47130558e-15 2.04720147e-12 1.00331671e-13 1.62437337e-12
3.01995172e+00 3.85679405e-12 1.51595343e-12 6.58841199e-15 2.33425221e-12 8.75398381e-14 1.51595343e-12
3.46736850e+00 3.94658921e-12 1.41477006e-12 4.49657360e-15 2.52732258e-12 7.20113052e-14 1.41477006e-12
3.98107171e+00 3.94032906e-12 1.32034025e-12 3.09163904e-15 2.61689717e-12 5.69658250e-14 1.32034025e-12
4.57088190e+00 3.84030964e-12 1.23221321e-12 2.17885471e-15 2.60591757e-12 4.28777773e-14 1.23221321e-12
5.24807460e+00 3.57016115e-12 1.01885146e-12 1.28112917e-15 2.55002855e-12 3.03992025e-14 1.01885146e-12
6.02559586e+00 3.14757334e-12 6.73148485e-13 5.77943845e-16 2.47384692e-12 2.07946027e-14 6.73148485e-13
6.70000000e+00 2.89435799e-12 4.89650796e-13 3.07806091e-16 2.40439939e-12 1.49407056e-14 4.89650796e-13
6.92422916e+00 2.81427171e-12 4.43605145e-13 2.55079585e-16 2.37041148e-12 1.33584106e-14 4.43605145e-13
7.15596261e+00 2.76295955e-12 4.01889522e-13 2.00989698e-16 2.36086903e-12 1.17143840e-14 4.01889522e-13
7.39545150e+00 2.73211253e-12 3.64096743e-13 1.55376832e-16 2.36786041e-12 9.97506862e-15 3.64096743e-13
7.64295536e+00 2.79208591e-12 3.29857910e-13 1.04150699e-16 2.46212385e-12 7.99107702e-15 3.29857910e-13
7.89874245e+00 2.97783107e-12 2.98838820e-13 5.90823915e-17 2.67893316e-12 5.80360647e-15 2.98838820e-13
8.16308998e+00 3.27047835e-12 2.70736695e-13 3.34508520e-17 2.99970820e-12 4.11445841e-15 2.70736695e-13
8.43628443e+00 3.69455891e-12 2.45277229e-13 1.79183845e-17 3.44926376e-12 2.94599611e-15 2.45277229e-13
8.71862190e+00 3.97234683e-12 2.22211915e-13 1.14339885e-17 3.75012349e-12 2.26008830e-15 2.22211915e-13
9.01040836e+00 4.27741036e-12 2.01315610e-13 7.57412154e-18 4.07608717e-12 1.74748105e-15 2.01315610e-13
9.31196005e+00 4.47213447e-12 1.82384346e-13 0.00000000e+00 4.28975012e-12 0.00000000e+00 1.82384346e-13
9.62360379e+00 4.43483137e-12 1.65233336e-13 0.00000000e+00 4.26959804e-12 0.00000000e+00 1.65233336e-13
9.94567731e+00 4.16678793e-12 1.49695167e-13 0.00000000e+00 4.01709276e-12 0.00000000e+00 1.49695167e-13
1.02785297e+01 3.89305977e-12 1.35618173e-13 0.00000000e+00 3.75744159e-12 0.00000000e+00 1.35618173e-13
1.06225216e+01 3.62278524e-12 1.22864947e-13 0.00000000e+00 3.49992030e-12 0.00000000e+00 1.22864947e-13
1.09780260e+01 3.36544271e-12 1.11311006e-13 0.00000000e+00 3.25413171e-12 0.00000000e+00 1.11311006e-13
1.13454280e+01 3.10439607e-12 1.00843571e-13 0.00000000e+00 3.00355250e-12 0.00000000e+00 1.00843571e-13
1.17251259e+01 2.92560426e-12 9.13604705e-14 0.00000000e+00 2.83424379e-12 0.00000000e+00 9.13604705e-14
1.21175312e+01 2.74463955e-12 8.27691389e-14 0.00000000e+00 2.66187041e-12 0.00000000e+00 8.27691389e-14
1.25230691e+01 2.62901156e-12 7.49857166e-14 0.00000000e+00 2.55402584e-12 0.00000000e+00 7.49857166e-14
1.29421791e+01 2.53459661e-12 6.79342298e-14 0.00000000e+00 2.46666238e-12 0.00000000e+00 6.79342298e-14
1.33753155e+01 2.42384264e-12 6.15458488e-14 0.00000000e+00 2.36229679e-12 0.00000000e+00 6.15458488e-14
1.38229477e+01 2.37163125e-12 5.57582167e-14 0.00000000e+00 2.31587303e-12 0.00000000e+00 5.57582167e-14
1.42855609e+01 2.35372170e-12 5.05148403e-14 0.00000000e+00 2.30320686e-12 0.00000000e+00 5.05148403e-14
1.47636563e+01 2.36584406e-12 4.57645392e-14 0.00000000e+00 2.32007952e-12 0.00000000e+00 4.57645392e-14
1.52577522e+01 2.41494714e-12 4.14609457e-14 0.00000000e+00 2.37348620e-12 0.00000000e+00 4.14609457e-14
1.57683840e+01 2.44895730e-12 3.75620523e-14 0.00000000e+00 2.41139524e-12 0.00000000e+00 3.75620523e-14
1.62961051e+01 2.50220748e-12 3.40298020e-14 0.00000000e+00 2.46817768e-12 0.00000000e+00 3.40298020e-14
1.68414875e+01 2.53408419e-12 3.08297166e-14 0.00000000e+00 2.50325448e-12 0.00000000e+00 3.08297166e-14
1.74051222e+01 2.54474751e-12 2.79305599e-14 0.00000000e+00 2.51681695e-12 0.00000000e+00 2.79305599e-14
1.79876201e+01 2.55874409e-12 2.53040334e-14 0.00000000e+00 2.53344005e-12 0.00000000e+00 2.53040334e-14
1.85896125e+01 2.57150488e-12 2.29244994e-14 0.00000000e+00 2.54858038e-12 0.00000000e+00 2.29244994e-14
1.92117518e+01 2.52292251e-12 2.07687314e-14 0.00000000e+00 2.50215378e-12 0.00000000e+00 2.07687314e-14
1.98547123e+01 2.49824881e-12 1.88156870e-14 0.00000000e+00 2.47943312e-12 0.00000000e+00 1.88156870e-14
2.05191907e+01 2.45704430e-12 1.70463024e-14 0.00000000e+00 2.43999800e-12 0.00000000e+00 1.70463024e-14
2.12059073e+01 2.42864277e-12 1.54433068e-14 0.00000000e+00 2.41319947e-12 0.00000000e+00 1.54433068e-14
2.19156062e+01 2.35956240e-12 1.39910532e-14 0.00000000e+00 2.34557135e-12 0.00000000e+00 1.39910532e-14
2.26490567e+01 2.32236816e-12 1.26753663e-14 0.00000000e+00 2.30969279e-12 0.00000000e+00 1.26753663e-14
2.34070535e+01 2.28924884e-12 1.14834036e-14 0.00000000e+00 2.27776543e-12 0.00000000e+00 1.14834036e-14
2.41904183e+01 2.23487321e-12 1.04035303e-14 0.00000000e+00 2.22446968e-12 0.00000000e+00 1.04035303e-14
2.50000000e+01 2.17553358e-12 9.42520591e-15 0.00000000e+00 2.16610838e-12 0.00000000e+00 9.42520591e-15
2.75422870e+01 2.00893169e-12 7.04872996e-15 0.00000000e+00 2.00188296e-12 0.00000000e+00 7.04872996e-15
3.16227766e+01 1.70678927e-12 4.65704970e-15 0.00000000e+00 1.70213222e-12 0.00000000e+00 4.65704970e-15
3.63078055e+01 1.37288992e-12 3.07688223e-15 0.00000000e+00 1.36981304e-12 0.00000000e+00 3.07688223e-15
4.16869383e+01 1.03471617e-12 2.03287593e-15 0.00000000e+00 1.03268329e-12 0.00000000e+00 2.03287593e-15
4.78630092e+01 7.29008319e-13 1.34310781e-15 0.00000000e+00 7.27665211e-13 0.00000000e+00 1.34310781e-15
5.49540874e+01 4.85252419e-13 8.87382527e-16 0.00000000e+00 4.84365037e-13 0.00000000e+00 8.87382527e-16
6.30957344e+01 3.06520816e-13 5.86287821e-16 0.00000000e+00 3.05934529e-13 0.00000000e+00 5.86287821e-16
7.24435960e+01 1.85388355e-13 3.87356522e-16 0.00000000e+00 1.85000999e-13 0.00000000e+00 3.87356522e-16
8.31763771e+01 1.08213778e-13 2.55923916e-16 0.00000000e+00 1.07957854e-13 0.00000000e+00 2.55923916e-16
9.54992586e+01 6.15208308e-14 1.69087255e-16 0.00000000e+00 6.13517436e-14 0.00000000e+00 1.69087255e-16
1.09647820e+02 3.42968454e-14 1.11714841e-16 0.00000000e+00 3.41851305e-14 0.00000000e+00 1.11714841e-16
1.25892541e+02 1.90308454e-14 7.38092637e-17 0.00000000e+00 1.89570361e-14 0.00000000e+00 7.38092637e-17
1.44543977e+02 1.04806849e-14 4.87652969e-17 0.00000000e+00 1.04319197e-14 0.00000000e+00 4.87652969e-17
1.65958691e+02 5.49610185e-15 3.22189122e-17 0.00000000e+00 5.46388293e-15 0.00000000e+00 3.22189122e-17
1.90546072e+02 2.88148260e-15 2.12868242e-17 0.00000000e+00 2.86019578e-15 0.00000000e+00 2.12868242e-17
2.18776162e+02 1.50663289e-15 1.40640653e-17 0.00000000e+00 1.49256882e-15 0.00000000e+00 1.40640653e-17
2.51188643e+02 7.85068710e-16 9.29203577e-18 0.00000000e+00 7.75776674e-16 0.00000000e+00 9.29203577e-18
2.88403150e+02 4.07385849e-16 6.13918715e-18 0.00000000e+00 4.01246662e-16 0.00000000e+00 6.13918715e-18
3.31131121e+02 2.10959460e-16 4.05612073e-18 0.00000000e+00 2.06903339e-16 0.00000000e+00 4.05612073e-18
3.80189396e+02 1.08945650e-16 2.67985239e-18 0.00000000e+00 1.06265798e-16 0.00000000e+00 2.67985239e-18
4.36515832e+02 5.62123761e-17 1.77056092e-18 0.00000000e+00 5.44418152e-17 0.00000000e+00 1.77056092e-18
5.01187234e+02 2.89880480e-17 1.16979800e-18 0.00000000e+00 2.78182500e-17 0.00000000e+00 1.16979800e-18
5.75439937e+02 1.49550367e-17 7.72877871e-19 0.00000000e+00 1.41821589e-17 0.00000000e+00 7.72877871e-19
6.60693448e+02 7.72759411e-18 5.10635346e-19 0.00000000e+00 7.21695876e-18 0.00000000e+00 5.10635346e-19
7.58577575e+02 4.00405434e-18 3.37373427e-19 0.00000000e+00 3.66668091e-18 0.00000000e+00 3.37373427e-19
8.70963590e+02 2.08276971e-18 2.22900413e-19 0.00000000e+00 1.85986930e-18 0.00000000e+00 2.22900413e-19
1.00000000e+03 9.41952180e-19 0.00000000e+00 0.00000000e+00 9.41952180e-19 0.00000000e+00 0.00000000e+00
