# column 1: lambda (micron)
# column 2: total flux; lambda*F_lambda (W/m2)
# column 3: direct stellar flux; lambda*F_lambda (W/m2)
# column 4: scattered stellar flux; lambda*F_lambda (W/m2)
# column 5: total dust emission flux; lambda*F_lambda (W/m2)
# column 6: dust emission scattered flux; lambda*F_lambda (W/m2)
# column 7: transparent flux; lambda*F_lambda (W/m2)
1.00000000e-03 6.93994258e-13 6.93993746e-13 5.12323765e-19 0.00000000e+00 0.00000000e+00 6.93993746e-13
1.14815362e-03 8.19135982e-13 8.19135139e-13 8.42957250e-19 0.00000000e+00 0.00000000e+00 8.19135139e-13
1.31825674e-03 9.66843414e-13 9.66842108e-13 1.30625290e-18 0.00000000e+00 0.00000000e+00 9.66842108e-13
1.51356125e-03 1.14118565e-12 1.14118369e-12 1.95743647e-18 0.00000000e+00 0.00000000e+00 1.14118369e-12
1.73780083e-03 1.34696625e-12 1.34696266e-12 3.58502020e-18 0.00000000e+00 0.00000000e+00 1.34696266e-12
1.99526231e-03 1.58985439e-12 1.58984782e-12 6.56273147e-18 0.00000000e+00 0.00000000e+00 1.58984782e-12
2.29086765e-03 1.87654039e-12 1.87653019e-12 1.01985794e-17 0.00000000e+00 0.00000000e+00 1.87653019e-12
2.63026799e-03 2.21492745e-12 2.21490731e-12 2.01397236e-17 0.00000000e+00 0.00000000e+00 2.21490731e-12
3.01995172e-03 2.61433655e-12 2.61430080e-12 3.57450637e-17 0.00000000e+00 0.00000000e+00 2.61430080e-12
3.46736850e-03 3.08577134e-12 3.08571319e-12 5.81554471e-17 0.00000000e+00 0.00000000e+00 3.08571319e-12
3.98107171e-03 3.64222376e-12 3.64213095e-12 9.28102053e-17 0.00000000e+00 0.00000000e+00 3.64213095e-12
4.57088190e-03 4.29909046e-12 4.29888232e-12 2.08140527e-16 0.00000000e+00 0.00000000e+00 4.29888232e-12
5.24807460e-03 5.07443892e-12 5.07405951e-12 3.79406987e-16 0.00000000e+00 0.00000000e+00 5.07405951e-12
6.02559586e-03 5.98969311e-12 5.98901715e-12 6.75965574e-16 0.00000000e+00 0.00000000e+00 5.98901715e-12
6.91830971e-03 7.07006484e-12 7.06896053e-12 1.10431044e-15 0.00000000e+00 0.00000000e+00 7.06896053e-12
7.94328235e-03 8.34541245e-12 8.34363998e-12 1.77246892e-15 0.00000000e+00 0.00000000e+00 8.34363998e-12
9.12010839e-03 9.85202967e-12 9.84817045e-12 3.85922402e-15 0.00000000e+00 0.00000000e+00 9.84817045e-12
1.04712855e-02 1.10030518e-11 1.09990604e-11 3.99133878e-15 0.00000000e+00 0.00000000e+00 1.09990604e-11
1.20226443e-02 1.10052369e-11 1.09990604e-11 6.17643294e-15 0.00000000e+00 0.00000000e+00 1.09990604e-11
1.38038426e-02 1.10211894e-11 1.09990604e-11 2.21289439e-14 9.76812228e-290 9.19514077e-291 1.09990604e-11
1.58489319e-02 1.10141541e-11 1.09990604e-11 1.50936543e-14 4.98734978e-253 5.58226828e-254 1.09990604e-11
1.81970086e-02 1.10168681e-11 1.09990604e-11 1.78076585e-14 4.32344942e-221 4.30174464e-222 1.09990604e-11
2.08929613e-02 1.10217020e-11 1.09990604e-11 2.26415135e-14 2.62579602e-193 2.91311656e-194 1.09990604e-11
2.39883292e-02 1.10311916e-11 1.09990604e-11 3.21311606e-14 4.05054624e-169 4.68446980e-170 1.09990604e-11
2.75422870e-02 1.10415219e-11 1.09990604e-11 4.24614735e-14 4.64792781e-148 5.53453222e-149 1.09990604e-11
3.16227766e-02 1.10542023e-11 1.09990604e-11 5.51418768e-14 9.85905463e-130 1.19854837e-130 1.09990604e-11
3.63078055e-02 1.10607013e-11 1.09990604e-11 6.16408203e-14 8.73384215e-114 1.01990398e-114 1.09990604e-11
4.16869383e-02 1.10845979e-11 1.09990604e-11 8.55374834e-14 6.71311460e-100 8.75050125e-101 1.09990604e-11
4.78630092e-02 1.11090799e-11 1.09990604e-11 1.10019424e-13 8.04546691e-88 1.16972371e-88 1.09990604e-11
5.49540874e-02 1.11323335e-11 1.09990604e-11 1.33273045e-13 2.55858078e-77 4.06913637e-78 1.09990604e-11
6.30957344e-02 1.11550086e-11 1.09990604e-11 1.55948204e-13 4.43647166e-68 7.57408267e-69 1.09990604e-11
7.24435960e-02 1.11387410e-11 1.09990604e-11 1.39680540e-13 4.59284941e-60 7.69679658e-61 1.09990604e-11
8.31763771e-02 1.11415669e-11 1.09990604e-11 1.42506499e-13 3.53116684e-53 5.97952768e-54 1.09990604e-11
9.54992586e-02 1.11448505e-11 1.09990604e-11 1.45790067e-13 3.30835925e-47 5.85421597e-48 1.09990604e-11
1.09647820e-01 1.06560578e-11 1.05040253e-11 1.52032499e-13 4.74344582e-42 9.17511252e-43 1.05040253e-11
1.25892541e-01 9.94515105e-12 9.80292679e-12 1.42224257e-13 1.35510009e-37 2.64860508e-38 9.80292679e-12
1.44543977e-01 9.27911150e-12 9.14862359e-12 1.30487907e-13 9.19995680e-34 1.72080947e-34 9.14862359e-12
1.65958691e-01 8.67066288e-12 8.53799231e-12 1.32670563e-13 1.43965425e-30 2.89284239e-31 8.53799231e-12
1.90546072e-01 8.11497781e-12 7.96811805e-12 1.46859759e-13 5.91358343e-28 1.37248467e-28 7.96811805e-12
2.18776162e-01 7.57434538e-12 7.43628044e-12 1.38064949e-13 9.05782666e-26 2.21336322e-26 7.43628044e-12
2.51188643e-01 7.10238261e-12 6.93994070e-12 1.62441910e-13 1.18703747e-23 3.31636532e-24 6.93994070e-12
2.88403150e-01 6.62436842e-12 6.47672950e-12 1.47638911e-13 7.70128463e-22 2.10978988e-22 6.47672950e-12
3.31131121e-01 6.17681709e-12 6.04443567e-12 1.32381397e-13 2.69190135e-20 7.12314288e-21 6.04443567e-12
3.80189396e-01 5.76141261e-12 5.64099558e-12 1.20416466e-13 5.59132334e-19 1.44759638e-19 5.64099558e-12
4.36515832e-01 5.37460202e-12 5.26448339e-12 1.10111228e-13 7.41020221e-18 1.87783452e-18 5.26448339e-12
5.01187234e-01 5.01478758e-12 4.91310176e-12 1.01619306e-13 6.65116989e-17 1.66339560e-17 4.91310176e-12
5.75439937e-01 4.68131927e-12 4.58517335e-12 9.57218731e-14 4.24049379e-16 1.03088965e-16 4.58517335e-12
6.60693448e-01 4.36688954e-12 4.27913275e-12 8.57397612e-14 2.01703391e-15 4.80871374e-16 4.27913275e-12
7.58577575e-01 4.07846220e-12 3.99351904e-12 7.73714524e-14 7.57171032e-15 1.75453646e-15 3.99351904e-12
8.70963590e-01 3.81598640e-12 3.72696882e-12 6.59834590e-14 2.30341168e-14 5.02185396e-15 3.72696882e-12
1.00000000e+00 3.59421187e-12 3.47820968e-12 5.73115118e-14 5.86906739e-14 1.18866648e-14 3.47820968e-12
1.14815362e+00 3.42244926e-12 3.24605414e-12 4.60916362e-14 1.30303476e-13 2.38976920e-14 3.24605414e-12
1.31825674e+00 3.32367576e-12 3.02939399e-12 3.73521665e-14 2.56929605e-13 4.05563092e-14 3.02939399e-12
1.51356125e+00 3.30950833e-12 2.82719497e-12 2.96214744e-14 4.52691883e-13 6.06257277e-14 2.82719497e-12
1.73780083e+00 3.37190561e-12 2.63849186e-12 2.16522439e-14 7.11761502e-13 7.81226308e-14 2.63849186e-12
1.99526231e+00 3.47566565e-12 2.46238388e-12 1.54812464e-14 9.97800518e-13 8.48943360e-14 2.46238388e-12
2.29086765e+00 3.58345399e-12 2.29803035e-12 1.06536630e-14 1.27476998e-12 8.21820224e-14 2.29803035e-12
2.63026799e+00 3.65001809e-12 2.14464670e-12 7.41198561e-15 1.49795940e-12 7.11819820e-14 2.14464670e-12
3.01995172e+00 3.64204305e-12 2.00150076e-12 5.04729338e-15 1.63549499e-12 5.69457902e-14 2.00150076e-12
3.46736850e+00 3.56158864e-12 1.86790919e-12 3.42708645e-15 1.69025236e-12 4.34718725e-14 1.86790919e-12
3.98107171e+00 3.39974983e-12 1.74323429e-12 2.30758104e-15 1.65420796e-12 3.10186394e-14 1.74323429e-12
4.57088190e+00 3.18807503e-12 1.62688090e-12 1.51435090e-15 1.55967978e-12 2.10333263e-14 1.62688090e-12
5.24807460e+00 2.77729438e-12 1.34518114e-12 8.91923162e-16 1.43122131e-12 1.34617256e-14 1.34518114e-12
6.02559586e+00 2.18611909e-12 8.88752369e-13 4.03277413e-16 1.29696344e-12 8.27365471e-15 8.88752369e-13
6.70000000e+00 1.83961200e-12 6.46481889e-13 2.05157420e-16 1.19292495e-12 5.44003743e-15 6.46481889e-13
6.92422916e+00 1.74559768e-12 5.85688198e-13 1.66163076e-16 1.15974332e-12 4.71350304e-15 5.85688198e-13
7.15596261e+00 1.66700239e-12 5.30611407e-13 1.31659909e-16 1.13625932e-12 4.05092783e-15 5.30611407e-13
7.39545150e+00 1.62019377e-12 4.80713913e-13 9.85861216e-17 1.13938127e-12 3.46862506e-15 4.80713913e-13
7.64295536e+00 1.65699824e-12 4.35508666e-13 6.94528351e-17 1.22142012e-12 2.85393682e-15 4.35508666e-13
7.89874245e+00 1.80253259e-12 3.94554418e-13 4.17308258e-17 1.40793644e-12 2.24225742e-15 3.94554418e-13
8.16308998e+00 2.03783376e-12 3.57451415e-13 2.38727575e-17 1.68035847e-12 1.75069082e-15 3.57451415e-13
8.43628443e+00 2.37608902e-12 3.23837494e-13 1.29733789e-17 2.05223856e-12 1.32602238e-15 3.23837494e-13
8.71862190e+00 2.59664585e-12 2.93384550e-13 8.61021695e-18 2.30325269e-12 1.04917014e-15 2.93384550e-13
9.01040836e+00 2.81544593e-12 2.65795332e-13 5.68287897e-18 2.54964491e-12 8.17806683e-16 2.65795332e-13
9.31196005e+00 2.98489191e-12 2.40800541e-13 0.00000000e+00 2.74409137e-12 0.00000000e+00 2.40800541e-13
9.62360379e+00 2.92930037e-12 2.18156204e-13 0.00000000e+00 2.71114416e-12 0.00000000e+00 2.18156204e-13
9.94567731e+00 2.71669240e-12 1.97641289e-13 0.00000000e+00 2.51905111e-12 0.00000000e+00 1.97641289e-13
1.02785297e+01 2.48459816e-12 1.79055550e-13 0.00000000e+00 2.30554261e-12 0.00000000e+00 1.79055550e-13
1.06225216e+01 2.24579578e-12 1.62217572e-13 0.00000000e+00 2.08357821e-12 0.00000000e+00 1.62217572e-13
1.09780260e+01 1.99517972e-12 1.46962999e-13 0.00000000e+00 1.84821673e-12 0.00000000e+00 1.46962999e-13
1.13454280e+01 1.78652437e-12 1.33142932e-13 0.00000000e+00 1.65338144e-12 0.00000000e+00 1.33142932e-13
1.17251259e+01 1.60704735e-12 1.20622472e-13 0.00000000e+00 1.48642487e-12 0.00000000e+00 1.20622472e-13
1.21175312e+01 1.44712545e-12 1.09279408e-13 0.00000000e+00 1.33784605e-12 0.00000000e+00 1.09279408e-13
1.25230691e+01 1.30649234e-12 9.90030204e-14 0.00000000e+00 1.20748932e-12 0.00000000e+00 9.90030204e-14
1.29421791e+01 1.19131990e-12 8.96930008e-14 0.00000000e+00 1.10162690e-12 0.00000000e+00 8.96930008e-14
1.33753155e+01 1.09498727e-12 8.12584743e-14 0.00000000e+00 1.01372880e-12 0.00000000e+00 8.12584743e-14
1.38229477e+01 1.03296984e-12 7.36171115e-14 0.00000000e+00 9.59352731e-13 0.00000000e+00 7.36171115e-14
1.42855609e+01 9.94534266e-13 6.66943252e-14 0.00000000e+00 9.27839941e-13 0.00000000e+00 6.66943252e-14
1.47636563e+01 1.00321845e-12 6.04225420e-14 0.00000000e+00 9.42795911e-13 0.00000000e+00 6.04225420e-14
1.52577522e+01 1.02192590e-12 5.47405431e-14 0.00000000e+00 9.67185359e-13 0.00000000e+00 5.47405431e-14
1.57683840e+01 1.04964763e-12 4.95928665e-14 0.00000000e+00 1.00005476e-12 0.00000000e+00 4.95928665e-14
1.62961051e+01 1.07937361e-12 4.49292657e-14 0.00000000e+00 1.03444434e-12 0.00000000e+00 4.49292657e-14
1.68414875e+01 1.10825825e-12 4.07042194e-14 0.00000000e+00 1.06755403e-12 0.00000000e+00 4.07042194e-14
1.74051222e+01 1.12716497e-12 3.68764869e-14 0.00000000e+00 1.09028848e-12 0.00000000e+00 3.68764869e-14
1.79876201e+01 1.14001895e-12 3.34087056e-14 0.00000000e+00 1.10661025e-12 0.00000000e+00 3.34087056e-14
1.85896125e+01 1.13507517e-12 3.02670267e-14 0.00000000e+00 1.10480814e-12 0.00000000e+00 3.02670267e-14
1.92117518e+01 1.12117292e-12 2.74207841e-14 0.00000000e+00 1.09375213e-12 0.00000000e+00 2.74207841e-14
1.98547123e+01 1.09746028e-12 2.48421957e-14 0.00000000e+00 1.07261808e-12 0.00000000e+00 2.48421957e-14
2.05191907e+01 1.07097953e-12 2.25060919e-14 0.00000000e+00 1.04847344e-12 0.00000000e+00 2.25060919e-14
2.12059073e+01 1.04869051e-12 2.03896700e-14 0.00000000e+00 1.02830084e-12 0.00000000e+00 2.03896700e-14
2.19156062e+01 1.02660967e-12 1.84722717e-14 0.00000000e+00 1.00813740e-12 0.00000000e+00 1.84722717e-14
2.26490567e+01 1.00840915e-12 1.67351811e-14 0.00000000e+00 9.91673965e-13 0.00000000e+00 1.67351811e-14
2.34070535e+01 9.92324380e-13 1.51614426e-14 0.00000000e+00 9.77162938e-13 0.00000000e+00 1.51614426e-14
2.41904183e+01 9.80321833e-13 1.37356949e-14 0.00000000e+00 9.66586138e-13 0.00000000e+00 1.37356949e-14
2.50000000e+01 9.66681296e-13 1.24440213e-14 0.00000000e+00 9.54237275e-13 0.00000000e+00 1.24440213e-14
2.75422870e+01 9.28765579e-13 9.30637977e-15 0.00000000e+00 9.19459200e-13 0.00000000e+00 9.30637977e-15
3.16227766e+01 8.62960330e-13 6.14866414e-15 0.00000000e+00 8.56811666e-13 0.00000000e+00 6.14866414e-15
3.63078055e+01 7.64291779e-13 4.06238211e-15 0.00000000e+00 7.60229396e-13 0.00000000e+00 4.06238211e-15
4.16869383e+01 6.35968216e-13 2.68398924e-15 0.00000000e+00 6.33284227e-13 0.00000000e+00 2.68398924e-15
4.78630092e+01 4.96805646e-13 1.77329411e-15 0.00000000e+00 4.95032352e-13 0.00000000e+00 1.77329411e-15
5.49540874e+01 3.63752503e-13 1.17160380e-15 0.00000000e+00 3.62580899e-13 0.00000000e+00 1.17160380e-15
6.30957344e+01 2.52256433e-13 7.74070953e-16 0.00000000e+00 2.51482362e-13 0.00000000e+00 7.74070953e-16
7.24435960e+01 1.66543965e-13 5.11423607e-16 0.00000000e+00 1.66032541e-13 0.00000000e+00 5.11423607e-16
8.31763771e+01 1.05561895e-13 3.37894226e-16 0.00000000e+00 1.05224000e-13 0.00000000e+00 3.37894226e-16
9.54992586e+01 6.48226629e-14 2.23244502e-16 0.00000000e+00 6.45994184e-14 0.00000000e+00 2.23244502e-16
1.09647820e+02 3.87119266e-14 1.47496179e-16 0.00000000e+00 3.85644304e-14 0.00000000e+00 1.47496179e-16
1.25892541e+02 2.28512785e-14 9.74497594e-17 0.00000000e+00 2.27538287e-14 0.00000000e+00 9.74497594e-17
1.44543977e+02 1.32820829e-14 6.43844175e-17 0.00000000e+00 1.32176984e-14 0.00000000e+00 6.43844175e-17
1.65958691e+02 7.31139736e-15 4.25383628e-17 0.00000000e+00 7.26885900e-15 0.00000000e+00 4.25383628e-17
1.90546072e+02 3.99844294e-15 2.81048176e-17 0.00000000e+00 3.97033813e-15 0.00000000e+00 2.81048176e-17
2.18776162e+02 2.16968242e-15 1.85686688e-17 0.00000000e+00 2.15111376e-15 0.00000000e+00 1.85686688e-17
2.51188643e+02 1.16735735e-15 1.22681978e-17 0.00000000e+00 1.15508915e-15 0.00000000e+00 1.22681978e-17
2.88403150e+02 6.22614984e-16 8.10551794e-18 0.00000000e+00 6.14509466e-16 0.00000000e+00 8.10551794e-18
3.31131121e+02 3.30119644e-16 5.35526259e-18 0.00000000e+00 3.24764381e-16 0.00000000e+00 5.35526259e-18
3.80189396e+02 1.73942616e-16 3.53818691e-18 0.00000000e+00 1.70404429e-16 0.00000000e+00 3.53818691e-18
4.36515832e+02 9.12761655e-17 2.33765691e-18 0.00000000e+00 8.89385085e-17 0.00000000e+00 2.33765691e-18
5.01187234e+02 4.77232541e-17 1.54447460e-18 0.00000000e+00 4.61787795e-17 0.00000000e+00 1.54447460e-18
5.75439937e+02 2.48952858e-17 1.02042425e-18 0.00000000e+00 2.38748616e-17 0.00000000e+00 1.02042425e-18
6.60693448e+02 1.29716251e-17 6.74187617e-19 0.00000000e+00 1.22974375e-17 0.00000000e+00 6.74187617e-19
7.58577575e+02 6.75935146e-18 4.45431341e-19 0.00000000e+00 6.31392012e-18 0.00000000e+00 4.45431341e-19
8.70963590e+02 3.52630050e-18 2.94293569e-19 0.00000000e+00 3.23200694e-18 0.00000000e+00 2.94293569e-19
1.00000000e+03 1.64989710e-18 0.00000000e+00 0.00000000e+00 1.64989710e-18 0.00000000e+00 0.00000000e+00
