# column 1: lambda (micron)
# column 2: total flux; lambda*F_lambda (W/m2)
# column 3: direct stellar flux; lambda*F_lambda (W/m2)
# column 4: scattered stellar flux; lambda*F_lambda (W/m2)
# column 5: total dust emission flux; lambda*F_lambda (W/m2)
# column 6: dust emission scattered flux; lambda*F_lambda (W/m2)
# column 7: transparent flux; lambda*F_lambda (W/m2)
1.00000000e-03 3.57775276e-13 3.57773978e-13 1.29849619e-18 0.00000000e+00 0.00000000e+00 3.57785423e-13
1.14815362e-03 4.22285616e-13 4.22283670e-13 1.94605771e-18 0.00000000e+00 0.00000000e+00 4.22301518e-13
1.31825674e-03 4.98427434e-13 4.98424413e-13 3.02152346e-18 0.00000000e+00 0.00000000e+00 4.98451197e-13
1.51356125e-03 5.88300211e-13 5.88294962e-13 5.24878747e-18 0.00000000e+00 0.00000000e+00 5.88332233e-13
1.73780083e-03 6.94386851e-13 6.94376229e-13 1.06219555e-17 0.00000000e+00 0.00000000e+00 6.94420676e-13
1.99526231e-03 8.19589306e-13 8.19569499e-13 1.98072942e-17 0.00000000e+00 0.00000000e+00 8.19639053e-13
2.29086765e-03 9.67378675e-13 9.67349831e-13 2.88437020e-17 0.00000000e+00 0.00000000e+00 9.67436888e-13
2.63026799e-03 1.14182177e-12 1.14176259e-12 5.91874492e-17 0.00000000e+00 0.00000000e+00 1.14188572e-12
3.01995172e-03 1.34771369e-12 1.34761153e-12 1.02162799e-16 0.00000000e+00 0.00000000e+00 1.34779128e-12
3.46736850e-03 1.59074356e-12 1.59057579e-12 1.67767692e-16 0.00000000e+00 0.00000000e+00 1.59082586e-12
3.98107171e-03 1.87759867e-12 1.87734674e-12 2.51930330e-16 0.00000000e+00 0.00000000e+00 1.87768459e-12
4.57088190e-03 2.21656840e-12 2.21600386e-12 5.64536930e-16 0.00000000e+00 0.00000000e+00 2.21626987e-12
5.24807460e-03 2.61652363e-12 2.61550805e-12 1.01557996e-15 0.00000000e+00 0.00000000e+00 2.61590907e-12
6.02559586e-03 3.08913107e-12 3.08704074e-12 2.09033410e-15 0.00000000e+00 0.00000000e+00 3.08761145e-12
6.91830971e-03 3.64757010e-12 3.64359407e-12 3.97602989e-15 0.00000000e+00 0.00000000e+00 3.64437151e-12
7.94328235e-03 4.30660147e-12 4.30050315e-12 6.09832202e-15 0.00000000e+00 0.00000000e+00 4.30152690e-12
9.12010839e-03 5.09025819e-12 5.07584008e-12 1.44181133e-14 0.00000000e+00 0.00000000e+00 5.07718096e-12
1.04712855e-02 5.68378501e-12 5.66892403e-12 1.48609841e-14 0.00000000e+00 0.00000000e+00 5.67051724e-12
1.20226443e-02 5.68725044e-12 5.66883001e-12 1.84204281e-14 0.00000000e+00 0.00000000e+00 5.67051724e-12
1.38038426e-02 5.69776616e-12 5.66871850e-12 2.90476519e-14 3.22411433e-275 2.62557574e-276 5.67051724e-12
1.58489319e-02 5.70834133e-12 5.66858147e-12 3.97598556e-14 1.04097652e-240 8.02061472e-242 5.67051724e-12
1.81970086e-02 5.71770461e-12 5.66845509e-12 4.92495193e-14 1.12891406e-210 9.11144235e-212 5.67051724e-12
2.08929613e-02 5.73840649e-12 5.66835003e-12 7.00564581e-14 1.46890294e-184 1.36428478e-185 5.67051724e-12
2.39883292e-02 5.76491638e-12 5.66821393e-12 9.67024545e-14 7.79080081e-162 7.53573348e-163 5.67051724e-12
2.75422870e-02 5.77017465e-12 5.66805561e-12 1.02119038e-13 4.65669280e-142 4.94267707e-143 5.67051724e-12
3.16227766e-02 5.79600339e-12 5.66790043e-12 1.28102953e-13 7.21876389e-125 7.68676941e-126 5.67051724e-12
3.63078055e-02 5.78920704e-12 5.66777872e-12 1.21428319e-13 6.31072336e-110 6.73180244e-111 5.67051724e-12
4.16869383e-02 5.80458163e-12 5.66767346e-12 1.36908176e-13 6.12934585e-97 7.08421955e-98 5.67051724e-12
4.78630092e-02 5.82459267e-12 5.66738330e-12 1.57209379e-13 1.14795241e-85 1.33502041e-86 5.67051724e-12
5.49540874e-02 5.81686463e-12 5.66697980e-12 1.49884829e-13 7.20928036e-76 8.80666020e-77 5.67051724e-12
6.30957344e-02 5.81453131e-12 5.66596815e-12 1.48563161e-13 3.32347098e-67 4.41123263e-68 5.67051724e-12
7.24435960e-02 5.78851371e-12 5.66477008e-12 1.23743625e-13 1.44443170e-59 2.09520243e-60 5.67051724e-12
8.31763771e-02 5.78925750e-12 5.66487668e-12 1.24380812e-13 7.28548080e-53 1.14330543e-53 5.67051724e-12
9.54992586e-02 5.78834680e-12 5.66518935e-12 1.23157449e-13 5.73073074e-47 9.50634010e-48 5.67051724e-12
1.09647820e-01 5.53586900e-12 5.41107678e-12 1.24792226e-13 7.41053751e-42 1.28159023e-42 5.41530405e-12
1.25892541e-01 5.17200342e-12 5.05060813e-12 1.21395287e-13 1.96440146e-37 3.27089395e-38 5.05385580e-12
1.44543977e-01 4.83062974e-12 4.71402035e-12 1.16609392e-13 1.25757640e-33 1.96781019e-34 4.71653266e-12
1.65958691e-01 4.51847757e-12 4.39967383e-12 1.18803733e-13 1.85249225e-30 3.03204632e-31 4.40172439e-12
1.90546072e-01 4.22510104e-12 4.10588663e-12 1.19214413e-13 7.37160811e-28 1.40469636e-28 4.10792822e-12
2.18776162e-01 3.93973729e-12 3.83150677e-12 1.08230512e-13 1.11478353e-25 2.26341982e-26 3.83374167e-12
2.51188643e-01 3.68935321e-12 3.57618777e-12 1.13165443e-13 1.35000800e-23 3.13943924e-24 3.57785591e-12
2.88403150e-01 3.44786276e-12 3.33775685e-12 1.10105915e-13 8.20195989e-22 1.84745898e-22 3.33904941e-12
3.31131121e-01 3.21370428e-12 3.11513065e-12 9.85736053e-14 2.69156177e-20 5.86769559e-21 3.11618222e-12
3.80189396e-01 2.99938157e-12 2.90732863e-12 9.20524110e-14 5.23185145e-19 1.12077830e-19 2.90819046e-12
4.36515832e-01 2.79146064e-12 2.71338125e-12 7.80729183e-14 6.47651689e-18 1.36952607e-18 2.71408126e-12
5.01187234e-01 2.60301916e-12 2.53236712e-12 7.05979996e-14 5.40432011e-17 1.13187069e-17 2.53292801e-12
5.75439937e-01 2.42998773e-12 2.36342118e-12 6.62434983e-14 3.23053011e-16 6.68537876e-17 2.36386595e-12
6.60693448e-01 2.26471058e-12 2.20573842e-12 5.75181675e-14 1.45399642e-15 2.98403113e-16 2.20608807e-12
7.58577575e-01 2.11528817e-12 2.05856964e-12 5.15399172e-14 5.17860931e-15 1.04617462e-15 2.05884118e-12
8.70963590e-01 1.98171882e-12 1.92121619e-12 4.52661341e-14 1.52365018e-14 2.94601504e-15 1.92142238e-12
1.00000000e+00 1.86915460e-12 1.79302165e-12 3.84585116e-14 3.76744345e-14 6.88666393e-15 1.79317570e-12
1.14815362e+00 1.78673633e-12 1.67337589e-12 3.15079352e-14 8.18525039e-14 1.35443817e-14 1.67348894e-12
1.31825674e+00 1.74719394e-12 1.56170923e-12 2.54501197e-14 1.60034592e-13 2.33911350e-14 1.56179075e-12
1.51356125e+00 1.75726153e-12 1.45748974e-12 1.99806155e-14 2.79791172e-13 3.48939051e-14 1.45754793e-12
1.73780083e+00 1.81438881e-12 1.36022202e-12 1.59159721e-14 4.38250817e-13 4.45600842e-14 1.36026288e-12
1.99526231e+00 1.89436197e-12 1.26944294e-12 1.11062364e-14 6.13812796e-13 4.82575825e-14 1.26947118e-12
2.29086765e+00 1.97393042e-12 1.18471998e-12 7.86042917e-15 7.81350016e-13 4.57974223e-14 1.18473944e-12
2.63026799e+00 2.03268774e-12 1.10564964e-12 5.42214060e-15 9.21615960e-13 3.93127890e-14 1.10566318e-12
3.01995172e+00 2.05066461e-12 1.03185538e-12 3.69458942e-15 1.01511464e-12 3.11275621e-14 1.03186491e-12
3.46736850e+00 2.02692587e-12 9.62985543e-13 2.47054709e-15 1.06146978e-12 2.33743681e-14 9.62992369e-13
3.98107171e+00 1.96260017e-12 8.98711821e-13 1.71621719e-15 1.06217213e-12 1.69436066e-14 8.98716770e-13
4.57088190e+00 1.86706014e-12 8.38727653e-13 1.15681411e-15 1.02717567e-12 1.16653551e-14 8.38731291e-13
5.24807460e+00 1.66637574e-12 6.93499807e-13 6.61571919e-16 9.72214363e-13 7.64076194e-15 6.93502223e-13
6.02559586e+00 1.36986526e-12 4.58191048e-13 2.94319714e-16 9.11379891e-13 4.82967041e-15 4.58192375e-13
6.70000000e+00 1.19086231e-12 3.33290041e-13 1.53897159e-16 8.57418373e-13 3.24918522e-15 3.33290895e-13
6.92422916e+00 1.14565980e-12 3.01948228e-13 1.20946713e-16 8.43590627e-13 2.84771614e-15 3.01948975e-13
7.15596261e+00 1.10506433e-12 2.73553713e-13 9.96253759e-17 8.31410992e-13 2.48161853e-15 2.73554377e-13
7.39545150e+00 1.08455685e-12 2.47829327e-13 7.46124932e-17 8.36652906e-13 2.11365712e-15 2.47829944e-13
7.64295536e+00 1.11361319e-12 2.24523941e-13 5.17747791e-17 8.89037474e-13 1.72696862e-15 2.24524577e-13
7.89874245e+00 1.21901238e-12 2.03410050e-13 3.05455978e-17 1.01557178e-12 1.33616924e-15 2.03410795e-13
8.16308998e+00 1.37803368e-12 1.84281594e-13 1.72421362e-17 1.19373485e-12 1.02614654e-15 1.84282505e-13
8.43628443e+00 1.61423658e-12 1.66951849e-13 9.61048541e-18 1.44727512e-12 7.60441907e-16 1.66952996e-13
8.71862190e+00 1.77459529e-12 1.51251837e-13 6.20236952e-18 1.62333725e-12 5.98670005e-16 1.51253114e-13
9.01040836e+00 1.95432814e-12 1.37028213e-13 4.00535972e-18 1.81729592e-12 4.54916598e-16 1.37029614e-13
9.31196005e+00 2.08423902e-12 1.24142187e-13 0.00000000e+00 1.96009683e-12 0.00000000e+00 1.24143660e-13
9.62360379e+00 2.07087177e-12 1.12468102e-13 0.00000000e+00 1.95840367e-12 0.00000000e+00 1.12469472e-13
9.94567731e+00 1.94440071e-12 1.01891933e-13 0.00000000e+00 1.84250877e-12 0.00000000e+00 1.01893097e-13
1.02785297e+01 1.77634958e-12 9.23103475e-14 0.00000000e+00 1.68403923e-12 0.00000000e+00 9.23113014e-14
1.06225216e+01 1.62233094e-12 8.36297824e-14 0.00000000e+00 1.53870116e-12 0.00000000e+00 8.36305558e-14
1.09780260e+01 1.45950321e-12 7.57655234e-14 0.00000000e+00 1.38373769e-12 0.00000000e+00 7.57661279e-14
1.13454280e+01 1.31850473e-12 6.86407786e-14 0.00000000e+00 1.24986395e-12 0.00000000e+00 6.86412529e-14
1.17251259e+01 1.19059081e-12 6.21860105e-14 0.00000000e+00 1.12840480e-12 0.00000000e+00 6.21863851e-14
1.21175312e+01 1.08776778e-12 5.63382240e-14 0.00000000e+00 1.03142956e-12 0.00000000e+00 5.63385184e-14
1.25230691e+01 9.93060226e-13 5.10403412e-14 0.00000000e+00 9.42019885e-13 0.00000000e+00 5.10405718e-14
1.29421791e+01 9.19066187e-13 4.62406501e-14 0.00000000e+00 8.72825537e-13 0.00000000e+00 4.62408321e-14
1.33753155e+01 8.55028961e-13 4.18923044e-14 0.00000000e+00 8.13136657e-13 0.00000000e+00 4.18924490e-14
1.38229477e+01 8.15574060e-13 3.79528579e-14 0.00000000e+00 7.77621202e-13 0.00000000e+00 3.79529781e-14
1.42855609e+01 7.93466237e-13 3.43838616e-14 0.00000000e+00 7.59082376e-13 0.00000000e+00 3.43839660e-14
1.47636563e+01 8.08568284e-13 3.11504766e-14 0.00000000e+00 7.77417808e-13 0.00000000e+00 3.11505758e-14
1.52577522e+01 8.26737726e-13 2.82211504e-14 0.00000000e+00 7.98516575e-13 0.00000000e+00 2.82212462e-14
1.57683840e+01 8.51501824e-13 2.55672904e-14 0.00000000e+00 8.25934534e-13 0.00000000e+00 2.55673842e-14
1.62961051e+01 8.77279060e-13 2.31629937e-14 0.00000000e+00 8.54116066e-13 0.00000000e+00 2.31630853e-14
1.68414875e+01 9.08077701e-13 2.09847919e-14 0.00000000e+00 8.87092909e-13 0.00000000e+00 2.09848813e-14
1.74051222e+01 9.29832439e-13 1.90114257e-14 0.00000000e+00 9.10821013e-13 0.00000000e+00 1.90115106e-14
1.79876201e+01 9.40792707e-13 1.72236320e-14 0.00000000e+00 9.23569075e-13 0.00000000e+00 1.72237112e-14
1.85896125e+01 9.42005032e-13 1.56039608e-14 0.00000000e+00 9.26401071e-13 0.00000000e+00 1.56040325e-14
1.92117518e+01 9.34086806e-13 1.41366016e-14 0.00000000e+00 9.19950205e-13 0.00000000e+00 1.41366646e-14
1.98547123e+01 9.19917194e-13 1.28072305e-14 0.00000000e+00 9.07109963e-13 0.00000000e+00 1.28072847e-14
2.05191907e+01 9.04684459e-13 1.16028705e-14 0.00000000e+00 8.93081588e-13 0.00000000e+00 1.16029167e-14
2.12059073e+01 8.88288867e-13 1.05117653e-14 0.00000000e+00 8.77777102e-13 0.00000000e+00 1.05118047e-14
2.19156062e+01 8.75936041e-13 9.52326465e-15 0.00000000e+00 8.66412776e-13 0.00000000e+00 9.52329842e-15
2.26490567e+01 8.70595665e-13 8.62772005e-15 0.00000000e+00 8.61967945e-13 0.00000000e+00 8.62774902e-15
2.34070535e+01 8.60926546e-13 7.81639015e-15 0.00000000e+00 8.53110155e-13 0.00000000e+00 7.81641505e-15
2.41904183e+01 8.52277503e-13 7.08135564e-15 0.00000000e+00 8.45196147e-13 0.00000000e+00 7.08137710e-15
2.50000000e+01 8.47681801e-13 6.41544192e-15 0.00000000e+00 8.41266359e-13 0.00000000e+00 6.41546044e-15
2.75422870e+01 8.25051481e-13 4.79785108e-15 0.00000000e+00 8.20253630e-13 0.00000000e+00 4.79786316e-15
3.16227766e+01 7.80312413e-13 3.16991012e-15 0.00000000e+00 7.77142502e-13 0.00000000e+00 3.16991676e-15
3.63078055e+01 7.06750913e-13 2.09433960e-15 0.00000000e+00 7.04656573e-13 0.00000000e+00 2.09434323e-15
4.16869383e+01 6.01378797e-13 1.38371692e-15 0.00000000e+00 5.99995080e-13 0.00000000e+00 1.38371885e-15
4.78630092e+01 4.79609848e-13 9.14212984e-16 0.00000000e+00 4.78695635e-13 0.00000000e+00 9.14213979e-16
5.49540874e+01 3.57545973e-13 6.04014684e-16 0.00000000e+00 3.56941958e-13 0.00000000e+00 6.04015186e-16
6.30957344e+01 2.51718801e-13 3.99068626e-16 0.00000000e+00 2.51319732e-13 0.00000000e+00 3.99068876e-16
7.24435960e+01 1.68247149e-13 2.63662068e-16 0.00000000e+00 1.67983487e-13 0.00000000e+00 2.63662192e-16
8.31763771e+01 1.07509419e-13 1.74199821e-16 0.00000000e+00 1.07335219e-13 0.00000000e+00 1.74199882e-16
9.54992586e+01 6.63938611e-14 1.15092691e-16 0.00000000e+00 6.62787684e-14 0.00000000e+00 1.15092721e-16
1.09647820e+02 3.97695115e-14 7.60409916e-17 0.00000000e+00 3.96934705e-14 0.00000000e+00 7.60410067e-17
1.25892541e+02 2.35262388e-14 5.02397873e-17 0.00000000e+00 2.34759990e-14 0.00000000e+00 5.02397949e-17
1.44543977e+02 1.36821824e-14 3.31930995e-17 0.00000000e+00 1.36489893e-14 0.00000000e+00 3.31931033e-17
1.65958691e+02 7.53487634e-15 2.19304640e-17 0.00000000e+00 7.51294588e-15 0.00000000e+00 2.19304659e-17
1.90546072e+02 4.11912531e-15 1.44893142e-17 0.00000000e+00 4.10463599e-15 0.00000000e+00 1.44893151e-17
2.18776162e+02 2.23275494e-15 9.57299510e-18 0.00000000e+00 2.22318194e-15 0.00000000e+00 9.57299556e-18
2.51188643e+02 1.19983854e-15 6.32481521e-18 0.00000000e+00 1.19351372e-15 0.00000000e+00 6.32481544e-18
2.88403150e+02 6.38861581e-16 4.17876401e-18 0.00000000e+00 6.34682817e-16 0.00000000e+00 4.17876412e-18
3.31131121e+02 3.37978970e-16 2.76088202e-18 0.00000000e+00 3.35218088e-16 0.00000000e+00 2.76088208e-18
3.80189396e+02 1.77628098e-16 1.82409667e-18 0.00000000e+00 1.75804002e-16 0.00000000e+00 1.82409670e-18
4.36515832e+02 9.29127017e-17 1.20516872e-18 0.00000000e+00 9.17075330e-17 0.00000000e+00 1.20516874e-18
5.01187234e+02 4.83893877e-17 7.96247081e-19 0.00000000e+00 4.75931406e-17 0.00000000e+00 7.96247089e-19
5.75439937e+02 2.51206293e-17 5.26075231e-19 0.00000000e+00 2.45945540e-17 0.00000000e+00 5.26075235e-19
6.60693448e+02 1.30102689e-17 3.47574459e-19 0.00000000e+00 1.26626945e-17 0.00000000e+00 3.47574461e-19
7.58577575e+02 6.72853164e-18 2.29640168e-19 0.00000000e+00 6.49889148e-18 0.00000000e+00 2.29640169e-19
8.70963590e+02 3.47720892e-18 1.51721754e-19 0.00000000e+00 3.32548717e-18 0.00000000e+00 1.51721755e-19
1.00000000e+03 1.69708331e-18 0.00000000e+00 0.00000000e+00 1.69708331e-18 0.00000000e+00 0.00000000e+00
