# column 1: lambda (micron)
# column 2: total flux; lambda*F_lambda (W/m2)
# column 3: direct stellar flux; lambda*F_lambda (W/m2)
# column 4: scattered stellar flux; lambda*F_lambda (W/m2)
# column 5: total dust emission flux; lambda*F_lambda (W/m2)
# column 6: dust emission scattered flux; lambda*F_lambda (W/m2)
# column 7: transparent flux; lambda*F_lambda (W/m2)
1.00000000e-03 6.93994109e-13 6.93993746e-13 3.63419423e-19 0.00000000e+00 0.00000000e+00 6.93993746e-13
1.14815362e-03 8.19135740e-13 8.19135139e-13 6.01033179e-19 0.00000000e+00 0.00000000e+00 8.19135139e-13
1.31825674e-03 9.66843099e-13 9.66842108e-13 9.91073188e-19 0.00000000e+00 0.00000000e+00 9.66842108e-13
1.51356125e-03 1.14118528e-12 1.14118369e-12 1.58849295e-18 0.00000000e+00 0.00000000e+00 1.14118369e-12
1.73780083e-03 1.34696541e-12 1.34696266e-12 2.75351332e-18 0.00000000e+00 0.00000000e+00 1.34696266e-12
1.99526231e-03 1.58985285e-12 1.58984782e-12 5.02500034e-18 0.00000000e+00 0.00000000e+00 1.58984782e-12
2.29086765e-03 1.87653836e-12 1.87653019e-12 8.16336497e-18 0.00000000e+00 0.00000000e+00 1.87653019e-12
2.63026799e-03 2.21492351e-12 2.21490731e-12 1.61993343e-17 0.00000000e+00 0.00000000e+00 2.21490731e-12
3.01995172e-03 2.61432734e-12 2.61430080e-12 2.65387318e-17 0.00000000e+00 0.00000000e+00 2.61430080e-12
3.46736850e-03 3.08575926e-12 3.08571319e-12 4.60741364e-17 0.00000000e+00 0.00000000e+00 3.08571319e-12
3.98107171e-03 3.64221103e-12 3.64213095e-12 8.00830254e-17 0.00000000e+00 0.00000000e+00 3.64213095e-12
4.57088190e-03 4.29905036e-12 4.29888232e-12 1.68036358e-16 0.00000000e+00 0.00000000e+00 4.29888232e-12
5.24807460e-03 5.07435384e-12 5.07405951e-12 2.94329722e-16 0.00000000e+00 0.00000000e+00 5.07405951e-12
6.02559586e-03 5.98952625e-12 5.98901715e-12 5.09100156e-16 0.00000000e+00 0.00000000e+00 5.98901715e-12
6.91830971e-03 7.06983051e-12 7.06896053e-12 8.69984728e-16 0.00000000e+00 0.00000000e+00 7.06896053e-12
7.94328235e-03 8.34504897e-12 8.34363998e-12 1.40899254e-15 2.38241876e-303 1.56992820e-305 8.34363998e-12
9.12010839e-03 9.87824651e-12 9.84817045e-12 3.00760627e-14 1.11847123e-264 4.74094540e-266 9.84817045e-12
1.04712855e-02 1.10024029e-11 1.09990604e-11 3.34243810e-15 4.76355785e-231 1.09137831e-232 1.09990604e-11
1.20226443e-02 1.10046447e-11 1.09990604e-11 5.58430318e-15 7.71289491e-202 2.44352434e-203 1.09990604e-11
1.38038426e-02 1.10067910e-11 1.09990604e-11 7.73057297e-15 2.14128172e-176 6.20580911e-178 1.09990604e-11
1.58489319e-02 1.10173355e-11 1.09990604e-11 1.82750972e-14 3.00818103e-154 1.49591487e-155 1.09990604e-11
1.81970086e-02 1.10141127e-11 1.09990604e-11 1.50522189e-14 5.35136287e-135 1.86032256e-136 1.09990604e-11
2.08929613e-02 1.10175030e-11 1.09990604e-11 1.84426037e-14 2.85100287e-118 1.17841311e-119 1.09990604e-11
2.39883292e-02 1.10246470e-11 1.09990604e-11 2.55866004e-14 1.01636793e-103 4.92964756e-105 1.09990604e-11
2.75422870e-02 1.10321339e-11 1.09990604e-11 3.30735054e-14 4.57863082e-91 2.19958413e-92 1.09990604e-11
3.16227766e-02 1.10387967e-11 1.09990604e-11 3.97362230e-14 4.50239671e-80 2.27174456e-81 1.09990604e-11
3.63078055e-02 1.10477025e-11 1.09990604e-11 4.86420107e-14 1.56615427e-70 7.77315934e-72 1.09990604e-11
4.16869383e-02 1.10648572e-11 1.09990604e-11 6.57967151e-14 3.02485873e-62 1.85248562e-63 1.09990604e-11
4.78630092e-02 1.10822288e-11 1.09990604e-11 8.31683991e-14 4.58545828e-55 3.14161200e-56 1.09990604e-11
5.49540874e-02 1.10964764e-11 1.09990604e-11 9.74159424e-14 7.59585916e-49 5.40840792e-50 1.09990604e-11
6.30957344e-02 1.11077415e-11 1.09990604e-11 1.08681077e-13 2.42870987e-43 1.73732489e-44 1.09990604e-11
7.24435960e-02 1.10985264e-11 1.09990604e-11 9.94659164e-14 1.39137424e-38 8.65145775e-40 1.09990604e-11
8.31763771e-02 1.10999553e-11 1.09990604e-11 1.00894905e-13 1.42785632e-34 8.80515197e-36 1.09990604e-11
9.54992586e-02 1.11016733e-11 1.09990604e-11 1.02612824e-13 4.05220418e-31 2.60466791e-32 1.09990604e-11
1.09647820e-01 1.06111014e-11 1.05040253e-11 1.07076107e-13 3.49422562e-28 2.56655137e-29 1.05040253e-11
1.25892541e-01 9.90306796e-12 9.80292679e-12 1.00141165e-13 1.14872312e-25 8.87542257e-27 9.80292679e-12
1.44543977e-01 9.23996960e-12 9.14862359e-12 9.13460101e-14 1.58071512e-23 1.22851011e-24 9.14862359e-12
1.65958691e-01 8.63526790e-12 8.53799231e-12 9.72755898e-14 8.11899401e-22 7.12656737e-23 8.53799231e-12
1.90546072e-01 8.07093121e-12 7.96811805e-12 1.02813144e-13 1.71030092e-20 1.71118544e-21 7.96811805e-12
2.18776162e-01 7.53942916e-12 7.43628044e-12 1.03148527e-13 2.01047275e-19 1.99575370e-20 7.43628044e-12
2.51188643e-01 7.06106288e-12 6.93994070e-12 1.21119694e-13 2.48502941e-18 3.04814601e-19 6.93994070e-12
2.88403150e-01 6.59266613e-12 6.47672950e-12 1.15915672e-13 2.09501669e-17 2.61268161e-18 6.47672950e-12
3.31131121e-01 6.14712021e-12 6.04443567e-12 1.02563793e-13 1.20754816e-16 1.46862601e-17 6.04443567e-12
3.80189396e-01 5.73409909e-12 5.64099558e-12 9.25980123e-14 5.05501552e-16 6.04043642e-17 5.64099558e-12
4.36515832e-01 5.35043122e-12 5.26448339e-12 8.43384983e-14 1.60933357e-15 1.91652676e-16 5.26448339e-12
5.01187234e-01 4.99437245e-12 4.91310176e-12 7.72339979e-14 4.03669204e-15 4.67832611e-16 4.91310176e-12
5.75439937e-01 4.66545333e-12 4.58517335e-12 7.18863797e-14 8.39359992e-15 9.63605075e-16 4.58517335e-12
6.60693448e-01 4.36027747e-12 4.27913275e-12 6.60477328e-14 1.50969896e-14 1.72493676e-15 4.27913275e-12
7.58577575e-01 4.07684960e-12 3.99351904e-12 5.83532554e-14 2.49773010e-14 2.85723305e-15 3.99351904e-12
8.70963590e-01 3.81698958e-12 3.72696882e-12 4.99461101e-14 4.00746509e-14 4.62188699e-15 3.72696882e-12
1.00000000e+00 3.58526297e-12 3.47820968e-12 4.23272988e-14 6.47259931e-14 7.46710977e-15 3.47820968e-12
1.14815362e+00 3.39050979e-12 3.24605414e-12 3.53447286e-14 1.09110917e-13 1.21825891e-14 3.24605414e-12
1.31825674e+00 3.24584479e-12 3.02939399e-12 2.85754621e-14 1.87875336e-13 1.94203841e-14 3.02939399e-12
1.51356125e+00 3.16246421e-12 2.82719497e-12 2.14798849e-14 3.13789357e-13 2.84124181e-14 2.82719497e-12
1.73780083e+00 3.14483125e-12 2.63849186e-12 1.67475333e-14 4.89591848e-13 3.75139478e-14 2.63849186e-12
1.99526231e+00 3.17081559e-12 2.46238388e-12 1.18105294e-14 6.96621180e-13 4.26510425e-14 2.46238388e-12
2.29086765e+00 3.21261058e-12 2.29803035e-12 7.91845083e-15 9.06661784e-13 4.34554223e-14 2.29803035e-12
2.63026799e+00 3.23681613e-12 2.14464670e-12 5.71293933e-15 1.08645649e-12 4.01035436e-14 2.14464670e-12
3.01995172e+00 3.21339176e-12 2.00150076e-12 3.86377418e-15 1.20802723e-12 3.47397931e-14 2.00150076e-12
3.46736850e+00 3.14473396e-12 1.86790919e-12 2.66182819e-15 1.27416293e-12 2.83508159e-14 1.86790919e-12
3.98107171e+00 3.02250982e-12 1.74323429e-12 1.80616623e-15 1.27746936e-12 2.22512621e-14 1.74323429e-12
4.57088190e+00 2.86333518e-12 1.62688090e-12 1.24390500e-15 1.23521038e-12 1.63906977e-14 1.62688090e-12
5.24807460e+00 2.51800253e-12 1.34518114e-12 7.31779181e-16 1.17208960e-12 1.14454671e-14 1.34518114e-12
6.02559586e+00 1.98759142e-12 8.88752369e-13 3.36613957e-16 1.09850244e-12 7.56533657e-15 8.88752369e-13
6.70000000e+00 1.68676446e-12 6.46481889e-13 1.71524691e-16 1.04011104e-12 5.26985937e-15 6.46481889e-13
6.92422916e+00 1.60269914e-12 5.85688198e-13 1.43642836e-16 1.01686730e-12 4.65562730e-15 5.85688198e-13
7.15596261e+00 1.53770610e-12 5.30611407e-13 1.15811888e-16 1.00697889e-12 4.07218829e-15 5.30611407e-13
7.39545150e+00 1.49117703e-12 4.80713913e-13 8.67488272e-17 1.01037637e-12 3.45549885e-15 4.80713913e-13
7.64295536e+00 1.50688892e-12 4.35508666e-13 5.90252512e-17 1.07132123e-12 2.80552683e-15 4.35508666e-13
7.89874245e+00 1.61030228e-12 3.94554418e-13 3.46220400e-17 1.21571324e-12 2.12666216e-15 3.94554418e-13
8.16308998e+00 1.77502012e-12 3.57451415e-13 1.95028650e-17 1.41754921e-12 1.59968855e-15 3.57451415e-13
8.43628443e+00 2.00965320e-12 3.23837494e-13 1.10383012e-17 1.68580467e-12 1.16601192e-15 3.23837494e-13
8.71862190e+00 2.17048173e-12 2.93384550e-13 6.97234269e-18 1.87709020e-12 9.10654785e-16 2.93384550e-13
9.01040836e+00 2.34356820e-12 2.65795332e-13 4.51440923e-18 2.07776836e-12 6.91611714e-16 2.65795332e-13
9.31196005e+00 2.47705688e-12 2.40800541e-13 0.00000000e+00 2.23625633e-12 0.00000000e+00 2.40800541e-13
9.62360379e+00 2.42014862e-12 2.18156204e-13 0.00000000e+00 2.20199241e-12 0.00000000e+00 2.18156204e-13
9.94567731e+00 2.25869621e-12 1.97641289e-13 0.00000000e+00 2.06105493e-12 0.00000000e+00 1.97641289e-13
1.02785297e+01 2.06482396e-12 1.79055550e-13 0.00000000e+00 1.88576841e-12 0.00000000e+00 1.79055550e-13
1.06225216e+01 1.89010301e-12 1.62217572e-13 0.00000000e+00 1.72788544e-12 0.00000000e+00 1.62217572e-13
1.09780260e+01 1.68694863e-12 1.46962999e-13 0.00000000e+00 1.53998563e-12 0.00000000e+00 1.46962999e-13
1.13454280e+01 1.53131553e-12 1.33142932e-13 0.00000000e+00 1.39817259e-12 0.00000000e+00 1.33142932e-13
1.17251259e+01 1.39819549e-12 1.20622472e-13 0.00000000e+00 1.27757302e-12 0.00000000e+00 1.20622472e-13
1.21175312e+01 1.27578014e-12 1.09279408e-13 0.00000000e+00 1.16650074e-12 0.00000000e+00 1.09279408e-13
1.25230691e+01 1.17302152e-12 9.90030204e-14 0.00000000e+00 1.07401850e-12 0.00000000e+00 9.90030204e-14
1.29421791e+01 1.09041208e-12 8.96930008e-14 0.00000000e+00 1.00071907e-12 0.00000000e+00 8.96930008e-14
1.33753155e+01 1.01242183e-12 8.12584743e-14 0.00000000e+00 9.31163351e-13 0.00000000e+00 8.12584743e-14
1.38229477e+01 9.64359182e-13 7.36171115e-14 0.00000000e+00 8.90742070e-13 0.00000000e+00 7.36171115e-14
1.42855609e+01 9.37590028e-13 6.66943252e-14 0.00000000e+00 8.70895703e-13 0.00000000e+00 6.66943252e-14
1.47636563e+01 9.37778769e-13 6.04225420e-14 0.00000000e+00 8.77356227e-13 0.00000000e+00 6.04225420e-14
1.52577522e+01 9.46308098e-13 5.47405431e-14 0.00000000e+00 8.91567555e-13 0.00000000e+00 5.47405431e-14
1.57683840e+01 9.59682281e-13 4.95928665e-14 0.00000000e+00 9.10089415e-13 0.00000000e+00 4.95928665e-14
1.62961051e+01 9.77000219e-13 4.49292657e-14 0.00000000e+00 9.32070954e-13 0.00000000e+00 4.49292657e-14
1.68414875e+01 9.92869078e-13 4.07042194e-14 0.00000000e+00 9.52164859e-13 0.00000000e+00 4.07042194e-14
1.74051222e+01 9.98467717e-13 3.68764869e-14 0.00000000e+00 9.61591231e-13 0.00000000e+00 3.68764869e-14
1.79876201e+01 1.00086165e-12 3.34087056e-14 0.00000000e+00 9.67452947e-13 0.00000000e+00 3.34087056e-14
1.85896125e+01 9.91013282e-13 3.02670267e-14 0.00000000e+00 9.60746256e-13 0.00000000e+00 3.02670267e-14
1.92117518e+01 9.66755999e-13 2.74207841e-14 0.00000000e+00 9.39335214e-13 0.00000000e+00 2.74207841e-14
1.98547123e+01 9.45924289e-13 2.48421957e-14 0.00000000e+00 9.21082093e-13 0.00000000e+00 2.48421957e-14
2.05191907e+01 9.15694959e-13 2.25060919e-14 0.00000000e+00 8.93188867e-13 0.00000000e+00 2.25060919e-14
2.12059073e+01 8.88196303e-13 2.03896700e-14 0.00000000e+00 8.67806633e-13 0.00000000e+00 2.03896700e-14
2.19156062e+01 8.64161907e-13 1.84722717e-14 0.00000000e+00 8.45689636e-13 0.00000000e+00 1.84722717e-14
2.26490567e+01 8.37456016e-13 1.67351811e-14 0.00000000e+00 8.20720835e-13 0.00000000e+00 1.67351811e-14
2.34070535e+01 8.16274060e-13 1.51614426e-14 0.00000000e+00 8.01112618e-13 0.00000000e+00 1.51614426e-14
2.41904183e+01 7.92542686e-13 1.37356949e-14 0.00000000e+00 7.78806991e-13 0.00000000e+00 1.37356949e-14
2.50000000e+01 7.68440677e-13 1.24440213e-14 0.00000000e+00 7.55996656e-13 0.00000000e+00 1.24440213e-14
2.75422870e+01 7.01050121e-13 9.30637977e-15 0.00000000e+00 6.91743741e-13 0.00000000e+00 9.30637977e-15
3.16227766e+01 5.94255973e-13 6.14866414e-15 0.00000000e+00 5.88107309e-13 0.00000000e+00 6.14866414e-15
3.63078055e+01 4.78070637e-13 4.06238211e-15 0.00000000e+00 4.74008255e-13 0.00000000e+00 4.06238211e-15
4.16869383e+01 3.60478477e-13 2.68398924e-15 0.00000000e+00 3.57794488e-13 0.00000000e+00 2.68398924e-15
4.78630092e+01 2.53382950e-13 1.77329411e-15 0.00000000e+00 2.51609656e-13 0.00000000e+00 1.77329411e-15
5.49540874e+01 1.68834775e-13 1.17160380e-15 0.00000000e+00 1.67663172e-13 0.00000000e+00 1.17160380e-15
6.30957344e+01 1.06693737e-13 7.74070953e-16 0.00000000e+00 1.05919666e-13 0.00000000e+00 7.74070953e-16
7.24435960e+01 6.46539351e-14 5.11423607e-16 0.00000000e+00 6.41425115e-14 0.00000000e+00 5.11423607e-16
8.31763771e+01 3.79674626e-14 3.37894226e-16 0.00000000e+00 3.76295684e-14 0.00000000e+00 3.37894226e-16
9.54992586e+01 2.17523815e-14 2.23244502e-16 0.00000000e+00 2.15291370e-14 0.00000000e+00 2.23244502e-16
1.09647820e+02 1.22345605e-14 1.47496179e-16 0.00000000e+00 1.20870643e-14 0.00000000e+00 1.47496179e-16
1.25892541e+02 6.85279138e-15 9.74497594e-17 0.00000000e+00 6.75534163e-15 0.00000000e+00 9.74497594e-17
1.44543977e+02 3.81183380e-15 6.43844175e-17 0.00000000e+00 3.74744938e-15 0.00000000e+00 6.43844175e-17
1.65958691e+02 2.01969302e-15 4.25383628e-17 0.00000000e+00 1.97715466e-15 0.00000000e+00 4.25383628e-17
1.90546072e+02 1.07039316e-15 2.81048176e-17 0.00000000e+00 1.04228834e-15 0.00000000e+00 2.81048176e-17
2.18776162e+02 5.66209562e-16 1.85686688e-17 0.00000000e+00 5.47640893e-16 0.00000000e+00 1.85686688e-17
2.51188643e+02 2.98736275e-16 1.22681978e-17 0.00000000e+00 2.86468077e-16 0.00000000e+00 1.22681978e-17
2.88403150e+02 1.57110589e-16 8.10551794e-18 0.00000000e+00 1.49005071e-16 0.00000000e+00 8.10551794e-18
3.31131121e+02 8.25935242e-17 5.35526259e-18 0.00000000e+00 7.72382616e-17 0.00000000e+00 5.35526259e-18
3.80189396e+02 4.33959891e-17 3.53818691e-18 0.00000000e+00 3.98578022e-17 0.00000000e+00 3.53818691e-18
4.36515832e+02 2.28426759e-17 2.33765691e-18 0.00000000e+00 2.05050190e-17 0.00000000e+00 2.33765691e-18
5.01187234e+02 1.20604560e-17 1.54447460e-18 0.00000000e+00 1.05159814e-17 0.00000000e+00 1.54447460e-18
5.75439937e+02 6.39931426e-18 1.02042425e-18 0.00000000e+00 5.37889001e-18 0.00000000e+00 1.02042425e-18
6.60693448e+02 3.41943466e-18 6.74187617e-19 0.00000000e+00 2.74524705e-18 0.00000000e+00 6.74187617e-19
7.58577575e+02 1.84373987e-18 4.45431341e-19 0.00000000e+00 1.39830853e-18 0.00000000e+00 4.45431341e-19
8.70963590e+02 1.00516053e-18 2.94293569e-19 0.00000000e+00 7.10866962e-19 0.00000000e+00 2.94293569e-19
1.00000000e+03 3.60738349e-19 0.00000000e+00 0.00000000e+00 3.60738349e-19 0.00000000e+00 0.00000000e+00
