# column 1: lambda (micron)
# column 2: total flux; lambda*F_lambda (W/m2)
# column 3: direct stellar flux; lambda*F_lambda (W/m2)
# column 4: scattered stellar flux; lambda*F_lambda (W/m2)
# column 5: total dust emission flux; lambda*F_lambda (W/m2)
# column 6: dust emission scattered flux; lambda*F_lambda (W/m2)
# column 7: transparent flux; lambda*F_lambda (W/m2)
1.00000000e-03 1.04634468e-12 1.04634360e-12 1.07891062e-18 0.00000000e+00 0.00000000e+00 1.04634360e-12
1.14815362e-03 1.23502271e-12 1.23502095e-12 1.76026042e-18 0.00000000e+00 0.00000000e+00 1.23502095e-12
1.31825674e-03 1.45772356e-12 1.45772071e-12 2.85156451e-18 0.00000000e+00 0.00000000e+00 1.45772071e-12
1.51356125e-03 1.72058233e-12 1.72057784e-12 4.49270995e-18 0.00000000e+00 0.00000000e+00 1.72057784e-12
1.73780083e-03 2.03084130e-12 2.03083353e-12 7.77910163e-18 0.00000000e+00 0.00000000e+00 2.03083353e-12
1.99526231e-03 2.39704929e-12 2.39703472e-12 1.45699718e-17 0.00000000e+00 0.00000000e+00 2.39703472e-12
2.29086765e-03 2.82929297e-12 2.82926954e-12 2.34243124e-17 0.00000000e+00 0.00000000e+00 2.82926954e-12
2.63026799e-03 3.33949220e-12 3.33944522e-12 4.69808325e-17 0.00000000e+00 0.00000000e+00 3.33944522e-12
3.01995172e-03 3.94169801e-12 3.94161611e-12 8.18974737e-17 0.00000000e+00 0.00000000e+00 3.94161611e-12
3.46736850e-03 4.65250570e-12 4.65237083e-12 1.34867606e-16 0.00000000e+00 0.00000000e+00 4.65237083e-12
3.98107171e-03 5.49150530e-12 5.49128930e-12 2.16005356e-16 0.00000000e+00 0.00000000e+00 5.49128930e-12
4.57088190e-03 6.48193769e-12 6.48148207e-12 4.55619912e-16 0.00000000e+00 0.00000000e+00 6.48148207e-12
5.24807460e-03 7.65108192e-12 7.65022704e-12 8.54874893e-16 0.00000000e+00 0.00000000e+00 7.65022704e-12
6.02559586e-03 9.03164278e-12 9.02972084e-12 1.92194030e-15 0.00000000e+00 0.00000000e+00 9.02972084e-12
6.91830971e-03 1.06605315e-11 1.06579658e-11 2.56568994e-15 0.00000000e+00 0.00000000e+00 1.06579658e-11
7.94328235e-03 1.25839833e-11 1.25798170e-11 4.16629624e-15 9.32208012e-304 1.35571529e-306 1.25798170e-11
9.12010839e-03 1.48577622e-11 1.48482176e-11 9.54454478e-15 3.92791048e-265 9.49960435e-268 1.48482176e-11
1.04712855e-02 1.65941720e-11 1.65834298e-11 1.07422138e-14 1.60371408e-231 5.40666132e-234 1.65834298e-11
1.20226443e-02 1.65969899e-11 1.65834298e-11 1.35600789e-14 2.43872410e-202 1.24742571e-204 1.65834298e-11
1.38038426e-02 1.66046272e-11 1.65834298e-11 2.11973670e-14 6.47895057e-177 4.68019418e-179 1.65834298e-11
1.58489319e-02 1.66151808e-11 1.65834298e-11 3.17510042e-14 8.58298067e-155 9.03647653e-157 1.65834298e-11
1.81970086e-02 1.66339368e-11 1.65834298e-11 5.05070326e-14 1.49936987e-135 1.62442429e-137 1.65834298e-11
2.08929613e-02 1.66373587e-11 1.65834298e-11 5.39289628e-14 7.71864377e-119 1.18505926e-120 1.65834298e-11
2.39883292e-02 1.66582627e-11 1.65834298e-11 7.48329011e-14 2.67527638e-104 5.39504275e-106 1.65834298e-11
2.75422870e-02 1.66820406e-11 1.65834298e-11 9.86108323e-14 1.18736046e-91 3.23006333e-93 1.65834298e-11
3.16227766e-02 1.67040109e-11 1.65834298e-11 1.20581126e-13 1.14748564e-80 3.69389065e-82 1.65834298e-11
3.63078055e-02 1.67177983e-11 1.65834298e-11 1.34368492e-13 3.95325013e-71 1.48044460e-72 1.65834298e-11
4.16869383e-02 1.67730998e-11 1.65834298e-11 1.89669978e-13 7.52225932e-63 3.85454446e-64 1.65834298e-11
4.78630092e-02 1.68377718e-11 1.65834298e-11 2.54342004e-13 1.13845874e-55 7.47568774e-57 1.65834298e-11
5.49540874e-02 1.68900876e-11 1.65834298e-11 3.06657853e-13 1.89318659e-49 1.46965503e-50 1.65834298e-11
6.30957344e-02 1.69394134e-11 1.65834298e-11 3.55983577e-13 6.11825710e-44 5.40100199e-45 1.65834298e-11
7.24435960e-02 1.69153952e-11 1.65834298e-11 3.31965367e-13 3.51395139e-39 2.93438261e-40 1.65834298e-11
8.31763771e-02 1.69015674e-11 1.65834298e-11 3.18137615e-13 3.58034806e-35 2.96092680e-36 1.65834298e-11
9.54992586e-02 1.69178508e-11 1.65834298e-11 3.34421026e-13 1.00622514e-31 8.63764841e-33 1.65834298e-11
1.09647820e-01 1.61886450e-11 1.58370587e-11 3.51586294e-13 8.53021873e-29 7.86759402e-30 1.58370587e-11
1.25892541e-01 1.51111363e-11 1.47800032e-11 3.31133173e-13 2.75480298e-26 2.52927158e-27 1.47800032e-11
1.44543977e-01 1.41012316e-11 1.37935015e-11 3.07730035e-13 3.73498738e-24 3.35286336e-25 1.37935015e-11
1.65958691e-01 1.31927481e-11 1.28728446e-11 3.19903514e-13 1.89417524e-22 1.86448779e-23 1.28728446e-11
1.90546072e-01 1.23755542e-11 1.20136376e-11 3.61916590e-13 4.01599231e-21 4.65559358e-22 1.20136376e-11
2.18776162e-01 1.15556740e-11 1.12117790e-11 3.43895000e-13 4.74751502e-20 5.63936173e-21 1.12117790e-11
2.51188643e-01 1.08652018e-11 1.04634409e-11 4.01760330e-13 5.81783218e-19 8.38323307e-20 1.04634409e-11
2.88403150e-01 1.01431599e-11 9.76505125e-12 3.78103811e-13 4.83130087e-18 6.89402547e-19 9.76505125e-12
3.31131121e-01 9.45758511e-12 9.11327608e-12 3.44281446e-13 2.75868205e-17 3.82803971e-18 9.11327608e-12
3.80189396e-01 8.82403310e-12 8.50500410e-12 3.18914208e-13 1.14798904e-16 1.55544986e-17 8.50500410e-12
4.36515832e-01 8.22439915e-12 7.93733165e-12 2.86700588e-13 3.66916175e-16 5.01534934e-17 7.93733165e-12
5.01187234e-01 7.67566743e-12 7.40754890e-12 2.67160807e-13 9.57721130e-16 1.35898801e-16 7.40754890e-12
5.75439937e-01 7.16386172e-12 6.91312687e-12 2.48422578e-13 2.31226779e-15 3.69521104e-16 6.91312687e-12
6.60693448e-01 6.68372847e-12 6.45170538e-12 2.26175622e-13 5.84747069e-15 1.11686224e-15 6.45170538e-12
7.58577575e-01 6.24035576e-12 6.02108180e-12 2.02857883e-13 1.64160849e-14 3.54611302e-15 6.02108180e-12
8.70963590e-01 5.83922662e-12 5.61920048e-12 1.73584132e-13 4.64420040e-14 1.03447230e-14 5.61920048e-12
1.00000000e+00 5.51108563e-12 5.24414302e-12 1.47475302e-13 1.19467317e-13 2.53070280e-14 5.24414302e-12
1.14815362e+00 5.29022600e-12 4.89411902e-12 1.19714893e-13 2.76392088e-13 5.32531399e-14 4.89411902e-12
1.31825674e+00 5.23898991e-12 4.56745763e-12 9.34201617e-14 5.78112118e-13 9.69950533e-14 4.56745763e-12
1.51356125e+00 5.41101849e-12 4.26259947e-12 7.16320184e-14 1.07678700e-12 1.54041530e-13 4.26259947e-12
1.73780083e+00 5.80468472e-12 3.97808929e-12 5.25442327e-14 1.77405119e-12 2.07829656e-13 3.97808929e-12
1.99526231e+00 6.35096455e-12 3.71256894e-12 3.76528304e-14 2.60074278e-12 2.47284448e-13 3.71256894e-12
2.29086765e+00 6.97959678e-12 3.46477093e-12 2.67659388e-14 3.48805991e-12 2.59081879e-13 3.46477093e-12
2.63026799e+00 7.54126851e-12 3.23351237e-12 1.82655929e-14 4.28949055e-12 2.46241644e-13 3.23351237e-12
3.01995172e+00 7.96817195e-12 3.01768933e-12 1.26354016e-14 4.93784722e-12 2.19730882e-13 3.01768933e-12
3.46736850e+00 8.24020978e-12 2.81627154e-12 8.69427269e-15 5.41524396e-12 1.83840000e-13 2.81627154e-12
3.98107171e+00 8.37222968e-12 2.62829753e-12 5.97225105e-15 5.73795989e-12 1.49979517e-13 2.62829753e-12
4.57088190e+00 8.34186007e-12 2.45286997e-12 4.11561448e-15 5.88487448e-12 1.15903055e-13 2.45286997e-12
5.24807460e+00 7.96281825e-12 2.02814751e-12 2.44886012e-15 5.93222188e-12 8.50740041e-14 2.02814751e-12
6.02559586e+00 7.29710747e-12 1.33998377e-12 1.11508681e-15 5.95600861e-12 5.94391775e-14 1.33998377e-12
6.70000000e+00 6.89195378e-12 9.74709347e-13 5.99473780e-16 5.91664496e-12 4.33966843e-14 9.74709347e-13
6.92422916e+00 6.75568826e-12 8.83049889e-13 4.84961863e-16 5.87215341e-12 3.89671414e-14 8.83049889e-13
7.15596261e+00 6.68346623e-12 8.00009879e-13 3.84392479e-16 5.88307196e-12 3.43924192e-14 8.00009879e-13
7.39545150e+00 6.68003303e-12 7.24778763e-13 2.91505403e-16 5.95496276e-12 2.94146082e-14 7.24778763e-13
7.64295536e+00 6.79637516e-12 6.56622211e-13 1.99681041e-16 6.13955327e-12 2.34503351e-14 6.56622211e-13
7.89874245e+00 7.21187597e-12 5.94874946e-13 1.14226689e-16 6.61688680e-12 1.69000381e-14 5.94874946e-13
8.16308998e+00 7.77507472e-12 5.38934254e-13 6.38274281e-17 7.23607664e-12 1.20142694e-14 5.38934254e-13
8.43628443e+00 8.63862181e-12 4.88254098e-13 3.54118889e-17 8.15033230e-12 8.43864175e-15 4.88254098e-13
8.71862190e+00 9.15425520e-12 4.42339790e-13 2.23575455e-17 8.71189305e-12 6.54051721e-15 4.42339790e-13
9.01040836e+00 9.83503452e-12 4.00743158e-13 1.48198427e-17 9.43427654e-12 5.14339793e-15 4.00743158e-13
9.31196005e+00 1.03442914e-11 3.63058180e-13 0.00000000e+00 9.98123325e-12 0.00000000e+00 3.63058180e-13
9.62360379e+00 1.03520313e-11 3.28917012e-13 0.00000000e+00 1.00231143e-11 0.00000000e+00 3.28917012e-13
9.94567731e+00 9.83629284e-12 2.97986401e-13 0.00000000e+00 9.53830644e-12 0.00000000e+00 2.97986401e-13
1.02785297e+01 9.31076031e-12 2.69964435e-13 0.00000000e+00 9.04079588e-12 0.00000000e+00 2.69964435e-13
1.06225216e+01 8.81063903e-12 2.44577592e-13 0.00000000e+00 8.56606144e-12 0.00000000e+00 2.44577592e-13
1.09780260e+01 8.32334754e-12 2.21578069e-13 0.00000000e+00 8.10176947e-12 0.00000000e+00 2.21578069e-13
1.13454280e+01 7.83496374e-12 2.00741370e-13 0.00000000e+00 7.63422237e-12 0.00000000e+00 2.00741370e-13
1.17251259e+01 7.46272864e-12 1.81864106e-13 0.00000000e+00 7.28086453e-12 0.00000000e+00 1.81864106e-13
1.21175312e+01 7.12901948e-12 1.64762018e-13 0.00000000e+00 6.96425746e-12 0.00000000e+00 1.64762018e-13
1.25230691e+01 6.87355165e-12 1.49268171e-13 0.00000000e+00 6.72428348e-12 0.00000000e+00 1.49268171e-13
1.29421791e+01 6.61415409e-12 1.35231331e-13 0.00000000e+00 6.47892276e-12 0.00000000e+00 1.35231331e-13
1.33753155e+01 6.37366318e-12 1.22514483e-13 0.00000000e+00 6.25114870e-12 0.00000000e+00 1.22514483e-13
1.38229477e+01 6.29229003e-12 1.10993499e-13 0.00000000e+00 6.18129653e-12 0.00000000e+00 1.10993499e-13
1.42855609e+01 6.24660729e-12 1.00555922e-13 0.00000000e+00 6.14605137e-12 0.00000000e+00 1.00555922e-13
1.47636563e+01 6.24778004e-12 9.10998706e-14 0.00000000e+00 6.15668017e-12 0.00000000e+00 9.10998706e-14
1.52577522e+01 6.32452296e-12 8.25330452e-14 0.00000000e+00 6.24198991e-12 0.00000000e+00 8.25330452e-14
1.57683840e+01 6.43449396e-12 7.47718247e-14 0.00000000e+00 6.35972213e-12 0.00000000e+00 7.47718247e-14
1.62961051e+01 6.43579924e-12 6.77404517e-14 0.00000000e+00 6.36805879e-12 0.00000000e+00 6.77404517e-14
1.68414875e+01 6.53101237e-12 6.13702932e-14 0.00000000e+00 6.46964208e-12 0.00000000e+00 6.13702932e-14
1.74051222e+01 6.52079502e-12 5.55991699e-14 0.00000000e+00 6.46519585e-12 0.00000000e+00 5.55991699e-14
1.79876201e+01 6.49134432e-12 5.03707500e-14 0.00000000e+00 6.44097357e-12 0.00000000e+00 5.03707500e-14
1.85896125e+01 6.40556645e-12 4.56339988e-14 0.00000000e+00 6.35993245e-12 0.00000000e+00 4.56339988e-14
1.92117518e+01 6.29198439e-12 4.13426810e-14 0.00000000e+00 6.25064170e-12 0.00000000e+00 4.13426810e-14
1.98547123e+01 6.16347452e-12 3.74549090e-14 0.00000000e+00 6.12601961e-12 0.00000000e+00 3.74549090e-14
2.05191907e+01 5.98220062e-12 3.39327342e-14 0.00000000e+00 5.94826788e-12 0.00000000e+00 3.39327342e-14
2.12059073e+01 5.85603112e-12 3.07417768e-14 0.00000000e+00 5.82528935e-12 0.00000000e+00 3.07417768e-14
2.19156062e+01 5.68657805e-12 2.78508898e-14 0.00000000e+00 5.65872716e-12 0.00000000e+00 2.78508898e-14
2.26490567e+01 5.47061592e-12 2.52318552e-14 0.00000000e+00 5.44538406e-12 0.00000000e+00 2.52318552e-14
2.34070535e+01 5.33459837e-12 2.28591087e-14 0.00000000e+00 5.31173926e-12 0.00000000e+00 2.28591087e-14
2.41904183e+01 5.14144830e-12 2.07094900e-14 0.00000000e+00 5.12073881e-12 0.00000000e+00 2.07094900e-14
2.50000000e+01 4.99222133e-12 1.87620165e-14 0.00000000e+00 4.97345932e-12 0.00000000e+00 1.87620165e-14
2.75422870e+01 4.45230682e-12 1.40313526e-14 0.00000000e+00 4.43827547e-12 0.00000000e+00 1.40313526e-14
3.16227766e+01 3.61345946e-12 9.27042274e-15 0.00000000e+00 3.60418904e-12 0.00000000e+00 9.27042274e-15
3.63078055e+01 2.80048174e-12 6.12490756e-15 0.00000000e+00 2.79435683e-12 0.00000000e+00 6.12490756e-15
4.16869383e+01 2.04296102e-12 4.04668630e-15 0.00000000e+00 2.03891433e-12 0.00000000e+00 4.04668630e-15
4.78630092e+01 1.40398475e-12 2.67361912e-15 0.00000000e+00 1.40131113e-12 0.00000000e+00 2.67361912e-15
5.49540874e+01 9.15441321e-13 1.76644264e-15 0.00000000e+00 9.13674879e-13 0.00000000e+00 1.76644264e-15
6.30957344e+01 5.66565035e-13 1.16707708e-15 0.00000000e+00 5.65397958e-13 0.00000000e+00 1.16707708e-15
7.24435960e+01 3.37880191e-13 7.71080178e-16 0.00000000e+00 3.37109111e-13 0.00000000e+00 7.71080178e-16
8.31763771e+01 1.95001297e-13 5.09447621e-16 0.00000000e+00 1.94491850e-13 0.00000000e+00 5.09447621e-16
9.54992586e+01 1.09660466e-13 3.36588705e-16 0.00000000e+00 1.09323877e-13 0.00000000e+00 3.36588705e-16
1.09647820e+02 6.05372973e-14 2.22381952e-16 0.00000000e+00 6.03149153e-14 0.00000000e+00 2.22381952e-16
1.25892541e+02 3.32965505e-14 1.46926299e-16 0.00000000e+00 3.31496242e-14 0.00000000e+00 1.46926299e-16
1.44543977e+02 1.82000758e-14 9.70732430e-17 0.00000000e+00 1.81030026e-14 0.00000000e+00 9.70732430e-17
1.65958691e+02 9.48731606e-15 6.41356556e-17 0.00000000e+00 9.42318041e-15 0.00000000e+00 6.41356556e-17
1.90546072e+02 4.94486555e-15 4.23740075e-17 0.00000000e+00 4.90249155e-15 0.00000000e+00 4.23740075e-17
2.18776162e+02 2.57424081e-15 2.79962291e-17 0.00000000e+00 2.54624458e-15 0.00000000e+00 2.79962291e-17
2.51188643e+02 1.33581437e-15 1.84969251e-17 0.00000000e+00 1.31731745e-15 0.00000000e+00 1.84969251e-17
2.88403150e+02 6.90878117e-16 1.22207972e-17 0.00000000e+00 6.78657319e-16 0.00000000e+00 1.22207972e-17
3.31131121e+02 3.56841419e-16 8.07420067e-18 0.00000000e+00 3.48767218e-16 0.00000000e+00 8.07420067e-18
3.80189396e+02 1.83915055e-16 5.33457148e-18 0.00000000e+00 1.78580483e-16 0.00000000e+00 5.33457148e-18
4.36515832e+02 9.47766038e-17 3.52451642e-18 0.00000000e+00 9.12520873e-17 0.00000000e+00 3.52451642e-18
5.01187234e+02 4.88487325e-17 2.32862491e-18 0.00000000e+00 4.65201076e-17 0.00000000e+00 2.32862491e-18
5.75439937e+02 2.52081359e-17 1.53850722e-18 0.00000000e+00 2.36696287e-17 0.00000000e+00 1.53850722e-18
6.60693448e+02 1.30405131e-17 1.01648164e-18 0.00000000e+00 1.20240314e-17 0.00000000e+00 1.01648164e-18
7.58577575e+02 6.77128233e-18 6.71582760e-19 0.00000000e+00 6.09969958e-18 0.00000000e+00 6.71582760e-19
8.70963590e+02 3.53353492e-18 4.43710329e-19 0.00000000e+00 3.08982459e-18 0.00000000e+00 4.43710329e-19
1.00000000e+03 1.56306015e-18 0.00000000e+00 0.00000000e+00 1.56306015e-18 0.00000000e+00 0.00000000e+00
