# column 1: lambda (micron)
# column 2: total flux; lambda*F_lambda (W/m2)
# column 3: direct stellar flux; lambda*F_lambda (W/m2)
# column 4: scattered stellar flux; lambda*F_lambda (W/m2)
# column 5: total dust emission flux; lambda*F_lambda (W/m2)
# column 6: dust emission scattered flux; lambda*F_lambda (W/m2)
# column 7: transparent flux; lambda*F_lambda (W/m2)
1.00000000e-03 1.04634368e-12 1.04634360e-12 7.45174265e-20 0.00000000e+00 0.00000000e+00 1.04634360e-12
1.14815362e-03 1.23502107e-12 1.23502095e-12 1.22574941e-19 0.00000000e+00 0.00000000e+00 1.23502095e-12
1.31825674e-03 1.45772092e-12 1.45772071e-12 2.04521128e-19 0.00000000e+00 0.00000000e+00 1.45772071e-12
1.51356125e-03 1.72057813e-12 1.72057784e-12 2.91910304e-19 0.00000000e+00 0.00000000e+00 1.72057784e-12
1.73780083e-03 2.03083407e-12 2.03083353e-12 5.45744648e-19 0.00000000e+00 0.00000000e+00 2.03083353e-12
1.99526231e-03 2.39703574e-12 2.39703472e-12 1.02076647e-18 0.00000000e+00 0.00000000e+00 2.39703472e-12
2.29086765e-03 2.82927106e-12 2.82926954e-12 1.51502688e-18 0.00000000e+00 0.00000000e+00 2.82926954e-12
2.63026799e-03 3.33944847e-12 3.33944522e-12 3.24835142e-18 0.00000000e+00 0.00000000e+00 3.33944522e-12
3.01995172e-03 3.94162156e-12 3.94161611e-12 5.45610260e-18 0.00000000e+00 0.00000000e+00 3.94161611e-12
3.46736850e-03 4.65238029e-12 4.65237083e-12 9.45789729e-18 0.00000000e+00 0.00000000e+00 4.65237083e-12
3.98107171e-03 5.49130419e-12 5.49128930e-12 1.48978847e-17 0.00000000e+00 0.00000000e+00 5.49128930e-12
4.57088190e-03 6.48151330e-12 6.48148207e-12 3.12230702e-17 0.00000000e+00 0.00000000e+00 6.48148207e-12
5.24807460e-03 7.65028741e-12 7.65022704e-12 6.03672164e-17 0.00000000e+00 0.00000000e+00 7.65022704e-12
6.02559586e-03 9.02982842e-12 9.02972084e-12 1.07575174e-16 0.00000000e+00 0.00000000e+00 9.02972084e-12
6.91830971e-03 1.06588553e-11 1.06579658e-11 8.89499824e-16 0.00000000e+00 0.00000000e+00 1.06579658e-11
7.94328235e-03 1.25801015e-11 1.25798170e-11 2.84497153e-16 0.00000000e+00 0.00000000e+00 1.25798170e-11
9.12010839e-03 1.48487034e-11 1.48482176e-11 4.85817028e-16 0.00000000e+00 0.00000000e+00 1.48482176e-11
1.04712855e-02 1.65840607e-11 1.65834298e-11 6.30868602e-16 0.00000000e+00 0.00000000e+00 1.65834298e-11
1.20226443e-02 1.65843555e-11 1.65834298e-11 9.25688877e-16 0.00000000e+00 0.00000000e+00 1.65834298e-11
1.38038426e-02 1.65847581e-11 1.65834298e-11 1.32828984e-15 3.00562445e-289 2.18924341e-291 1.65834298e-11
1.58489319e-02 1.65853639e-11 1.65834298e-11 1.93407884e-15 1.38177158e-252 1.49252803e-254 1.65834298e-11
1.81970086e-02 1.65860568e-11 1.65834298e-11 2.62699546e-15 1.12686749e-220 1.22549152e-222 1.65834298e-11
2.08929613e-02 1.65872219e-11 1.65834298e-11 3.79215907e-15 6.34139504e-193 8.74606488e-195 1.65834298e-11
2.39883292e-02 1.65884210e-11 1.65834298e-11 4.99120596e-15 9.12684600e-169 1.56116183e-170 1.65834298e-11
2.75422870e-02 1.65902539e-11 1.65834298e-11 6.82415459e-15 9.71818775e-148 2.08352257e-149 1.65834298e-11
3.16227766e-02 1.65918085e-11 1.65834298e-11 8.37866566e-15 1.88198800e-129 4.65400013e-131 1.65834298e-11
3.63078055e-02 1.65939592e-11 1.65834298e-11 1.05294279e-14 1.49085379e-113 4.16426309e-115 1.65834298e-11
4.16869383e-02 1.65984061e-11 1.65834298e-11 1.49763529e-14 9.86068539e-100 3.60670382e-101 1.65834298e-11
4.78630092e-02 1.66048634e-11 1.65834298e-11 2.14336320e-14 1.00298329e-87 4.76077579e-89 1.65834298e-11
5.49540874e-02 1.66113461e-11 1.65834298e-11 2.79163231e-14 2.68415649e-77 1.57916810e-78 1.65834298e-11
6.30957344e-02 1.66207067e-11 1.65834298e-11 3.72768896e-14 4.00843194e-68 2.87876215e-69 1.65834298e-11
7.24435960e-02 1.66213901e-11 1.65834298e-11 3.79602690e-14 3.59719482e-60 2.60939711e-61 1.65834298e-11
8.31763771e-02 1.66231212e-11 1.65834298e-11 3.96914548e-14 2.21628145e-53 1.58501799e-54 1.65834298e-11
9.54992586e-02 1.66246130e-11 1.65834298e-11 4.11831914e-14 1.64956029e-47 1.21976492e-48 1.65834298e-11
1.09647820e-01 1.58767463e-11 1.58370587e-11 3.96876192e-14 1.80155829e-42 1.38047823e-43 1.58370587e-11
1.25892541e-01 1.48135088e-11 1.47800032e-11 3.35056402e-14 4.00105382e-38 2.84859441e-39 1.47800032e-11
1.44543977e-01 1.38233236e-11 1.37935015e-11 2.98221071e-14 2.16606086e-34 1.43032832e-35 1.37935015e-11
1.65958691e-01 1.29036226e-11 1.28728446e-11 3.07779469e-14 2.72283982e-31 1.92737598e-32 1.28728446e-11
1.90546072e-01 1.20506980e-11 1.20136376e-11 3.70604191e-14 9.48603495e-29 8.14315138e-30 1.20136376e-11
2.18776162e-01 1.12519399e-11 1.12117790e-11 4.01608974e-14 1.30935547e-26 1.26371427e-27 1.12117790e-11
2.51188643e-01 1.05110956e-11 1.04634409e-11 4.76546640e-14 1.37539860e-24 1.56834689e-25 1.04634409e-11
2.88403150e-01 9.80628775e-12 9.76505125e-12 4.12364985e-14 7.75467974e-23 8.64045158e-24 9.76505125e-12
3.31131121e-01 9.14858708e-12 9.11327608e-12 3.53110028e-14 2.48613204e-21 2.68615471e-22 9.11327608e-12
3.80189396e-01 8.53739898e-12 8.50500410e-12 3.23948322e-14 4.99105843e-20 5.40313054e-21 8.50500410e-12
4.36515832e-01 7.96662075e-12 7.93733165e-12 2.92884266e-14 6.69749339e-19 7.37723657e-20 7.93733165e-12
5.01187234e-01 7.43534077e-12 7.40754890e-12 2.77855867e-14 6.28655267e-18 7.05813883e-19 7.40754890e-12
5.75439937e-01 6.93820338e-12 6.91312687e-12 2.50335079e-14 4.29991045e-17 4.90080397e-18 6.91312687e-12
6.60693448e-01 6.47529644e-12 6.45170538e-12 2.33693918e-14 2.21664222e-16 2.53845748e-17 6.45170538e-12
7.58577575e-01 6.04425795e-12 6.02108180e-12 2.22744037e-14 9.01746325e-16 1.02191292e-16 6.02108180e-12
8.70963590e-01 5.64230481e-12 5.61920048e-12 2.01087294e-14 2.99559577e-15 3.36780529e-16 5.61920048e-12
1.00000000e+00 5.26948912e-12 5.24414302e-12 1.70403962e-14 8.30570395e-15 9.03986801e-16 5.24414302e-12
1.14815362e+00 4.92918274e-12 4.89411902e-12 1.49581309e-14 2.01055868e-14 2.03933238e-15 4.89411902e-12
1.31825674e+00 4.62215126e-12 4.56745763e-12 1.15151656e-14 4.31784696e-14 3.91754478e-15 4.56745763e-12
1.51356125e+00 4.35450828e-12 4.26259947e-12 9.50456881e-15 8.24042386e-14 6.59107149e-15 4.26259947e-12
1.73780083e+00 4.12395306e-12 3.97808929e-12 6.80000442e-15 1.39063764e-13 9.20467505e-15 3.97808929e-12
1.99526231e+00 3.92612105e-12 3.71256894e-12 4.75747528e-15 2.08794631e-13 1.11250631e-14 3.71256894e-12
2.29086765e+00 3.75018431e-12 3.46477093e-12 3.29062090e-15 2.82122755e-13 1.14971734e-14 3.46477093e-12
2.63026799e+00 3.58438915e-12 3.23351237e-12 2.28393851e-15 3.48592839e-13 1.05089613e-14 3.23351237e-12
3.01995172e+00 3.41585099e-12 3.01768933e-12 1.47871334e-15 3.96682951e-13 8.84882854e-15 3.01768933e-12
3.46736850e+00 3.23996458e-12 2.81627154e-12 9.78600085e-16 4.22714438e-13 6.94133522e-15 2.81627154e-12
3.98107171e+00 3.05357054e-12 2.62829753e-12 6.27563783e-16 4.24645445e-13 5.07141996e-15 2.62829753e-12
4.57088190e+00 2.85955782e-12 2.45286997e-12 4.16387436e-16 4.06271454e-13 3.46152051e-15 2.45286997e-12
5.24807460e+00 2.40362487e-12 2.02814751e-12 2.32083642e-16 3.75245273e-13 2.23185025e-15 2.02814751e-12
6.02559586e+00 1.67957653e-12 1.33998377e-12 1.00414561e-16 3.39492340e-13 1.34583254e-15 1.33998377e-12
6.70000000e+00 1.28461471e-12 9.74709347e-13 5.15601136e-17 3.09853802e-13 8.70654917e-16 9.74709347e-13
6.92422916e+00 1.18326115e-12 8.83049889e-13 4.35040340e-17 3.00167757e-13 7.51000673e-16 8.83049889e-13
7.15596261e+00 1.09430764e-12 8.00009879e-13 3.43848913e-17 2.94263378e-13 6.47341234e-16 8.00009879e-13
7.39545150e+00 1.02042217e-12 7.24778763e-13 2.60528583e-17 2.95617357e-13 5.43506565e-16 7.24778763e-13
7.64295536e+00 9.75052424e-13 6.56622211e-13 1.79087198e-17 3.18412305e-13 4.55712239e-16 6.56622211e-13
7.89874245e+00 9.70716200e-13 5.94874946e-13 1.10376522e-17 3.75830216e-13 3.70368790e-16 5.94874946e-13
8.16308998e+00 9.99110730e-13 5.38934254e-13 6.50175171e-18 4.60169974e-13 2.95662561e-16 5.38934254e-13
8.43628443e+00 1.06645389e-12 4.88254098e-13 3.56180949e-18 5.78196229e-13 2.29152102e-16 4.88254098e-13
8.71862190e+00 1.10535191e-12 4.42339790e-13 2.36412107e-18 6.63009756e-13 1.81875704e-16 4.42339790e-13
9.01040836e+00 1.15199752e-12 4.00743158e-13 1.55308193e-18 7.51252810e-13 1.40131560e-16 4.00743158e-13
9.31196005e+00 1.18562599e-12 3.63058180e-13 0.00000000e+00 8.22567809e-13 0.00000000e+00 3.63058180e-13
9.62360379e+00 1.14481755e-12 3.28917012e-13 0.00000000e+00 8.15900542e-13 0.00000000e+00 3.28917012e-13
9.94567731e+00 1.05530148e-12 2.97986401e-13 0.00000000e+00 7.57315081e-13 0.00000000e+00 2.97986401e-13
1.02785297e+01 9.50332549e-13 2.69964435e-13 0.00000000e+00 6.80368114e-13 0.00000000e+00 2.69964435e-13
1.06225216e+01 8.52983827e-13 2.44577592e-13 0.00000000e+00 6.08406236e-13 0.00000000e+00 2.44577592e-13
1.09780260e+01 7.50595577e-13 2.21578069e-13 0.00000000e+00 5.29017508e-13 0.00000000e+00 2.21578069e-13
1.13454280e+01 6.64592017e-13 2.00741370e-13 0.00000000e+00 4.63850647e-13 0.00000000e+00 2.00741370e-13
1.17251259e+01 5.90080088e-13 1.81864106e-13 0.00000000e+00 4.08215982e-13 0.00000000e+00 1.81864106e-13
1.21175312e+01 5.23601879e-13 1.64762018e-13 0.00000000e+00 3.58839861e-13 0.00000000e+00 1.64762018e-13
1.25230691e+01 4.65033003e-13 1.49268171e-13 0.00000000e+00 3.15764832e-13 0.00000000e+00 1.49268171e-13
1.29421791e+01 4.15331610e-13 1.35231331e-13 0.00000000e+00 2.80100280e-13 0.00000000e+00 1.35231331e-13
1.33753155e+01 3.72341290e-13 1.22514483e-13 0.00000000e+00 2.49826807e-13 0.00000000e+00 1.22514483e-13
1.38229477e+01 3.41772025e-13 1.10993499e-13 0.00000000e+00 2.30778526e-13 0.00000000e+00 1.10993499e-13
1.42855609e+01 3.20049329e-13 1.00555922e-13 0.00000000e+00 2.19493407e-13 0.00000000e+00 1.00555922e-13
1.47636563e+01 3.13539209e-13 9.10998706e-14 0.00000000e+00 2.22439338e-13 0.00000000e+00 9.10998706e-14
1.52577522e+01 3.10277073e-13 8.25330452e-14 0.00000000e+00 2.27744028e-13 0.00000000e+00 8.25330452e-14
1.57683840e+01 3.10041986e-13 7.47718247e-14 0.00000000e+00 2.35270161e-13 0.00000000e+00 7.47718247e-14
1.62961051e+01 3.11375257e-13 6.77404517e-14 0.00000000e+00 2.43634806e-13 0.00000000e+00 6.77404517e-14
1.68414875e+01 3.12692422e-13 6.13702932e-14 0.00000000e+00 2.51322129e-13 0.00000000e+00 6.13702932e-14
1.74051222e+01 3.10896912e-13 5.55991699e-14 0.00000000e+00 2.55297742e-13 0.00000000e+00 5.55991699e-14
1.79876201e+01 3.06040410e-13 5.03707500e-14 0.00000000e+00 2.55669660e-13 0.00000000e+00 5.03707500e-14
1.85896125e+01 2.98521607e-13 4.56339988e-14 0.00000000e+00 2.52887608e-13 0.00000000e+00 4.56339988e-14
1.92117518e+01 2.86519230e-13 4.13426810e-14 0.00000000e+00 2.45176549e-13 0.00000000e+00 4.13426810e-14
1.98547123e+01 2.71789746e-13 3.74549090e-14 0.00000000e+00 2.34334837e-13 0.00000000e+00 3.74549090e-14
2.05191907e+01 2.57549739e-13 3.39327342e-14 0.00000000e+00 2.23617005e-13 0.00000000e+00 3.39327342e-14
2.12059073e+01 2.44424725e-13 3.07417768e-14 0.00000000e+00 2.13682948e-13 0.00000000e+00 3.07417768e-14
2.19156062e+01 2.32742893e-13 2.78508898e-14 0.00000000e+00 2.04892003e-13 0.00000000e+00 2.78508898e-14
2.26490567e+01 2.23307607e-13 2.52318552e-14 0.00000000e+00 1.98075752e-13 0.00000000e+00 2.52318552e-14
2.34070535e+01 2.13542425e-13 2.28591087e-14 0.00000000e+00 1.90683316e-13 0.00000000e+00 2.28591087e-14
2.41904183e+01 2.05574680e-13 2.07094900e-14 0.00000000e+00 1.84865190e-13 0.00000000e+00 2.07094900e-14
2.50000000e+01 1.98061136e-13 1.87620165e-14 0.00000000e+00 1.79299119e-13 0.00000000e+00 1.87620165e-14
2.75422870e+01 1.79482425e-13 1.40313526e-14 0.00000000e+00 1.65451072e-13 0.00000000e+00 1.40313526e-14
3.16227766e+01 1.57151920e-13 9.27042274e-15 0.00000000e+00 1.47881498e-13 0.00000000e+00 9.27042274e-15
3.63078055e+01 1.35460445e-13 6.12490756e-15 0.00000000e+00 1.29335537e-13 0.00000000e+00 6.12490756e-15
4.16869383e+01 1.12761487e-13 4.04668630e-15 0.00000000e+00 1.08714801e-13 0.00000000e+00 4.04668630e-15
4.78630092e+01 8.94419471e-14 2.67361912e-15 0.00000000e+00 8.67683280e-14 0.00000000e+00 2.67361912e-15
5.49540874e+01 6.78488565e-14 1.76644264e-15 0.00000000e+00 6.60824138e-14 0.00000000e+00 1.76644264e-15
6.30957344e+01 4.93048775e-14 1.16707708e-15 0.00000000e+00 4.81378004e-14 0.00000000e+00 1.16707708e-15
7.24435960e+01 3.43859691e-14 7.71080178e-16 0.00000000e+00 3.36148889e-14 0.00000000e+00 7.71080178e-16
8.31763771e+01 2.31095862e-14 5.09447621e-16 0.00000000e+00 2.26001386e-14 0.00000000e+00 5.09447621e-16
9.54992586e+01 1.50247790e-14 3.36588705e-16 0.00000000e+00 1.46881903e-14 0.00000000e+00 3.36588705e-16
1.09647820e+02 9.48445366e-15 2.22381952e-16 0.00000000e+00 9.26207170e-15 0.00000000e+00 2.22381952e-16
1.25892541e+02 5.89404425e-15 1.46926299e-16 0.00000000e+00 5.74711795e-15 0.00000000e+00 1.46926299e-16
1.44543977e+02 3.59050729e-15 9.70732430e-17 0.00000000e+00 3.49343405e-15 0.00000000e+00 9.70732430e-17
1.65958691e+02 2.06549763e-15 6.41356556e-17 0.00000000e+00 2.00136197e-15 0.00000000e+00 6.41356556e-17
1.90546072e+02 1.17526522e-15 4.23740075e-17 0.00000000e+00 1.13289122e-15 0.00000000e+00 4.23740075e-17
2.18776162e+02 6.61204640e-16 2.79962291e-17 0.00000000e+00 6.33208411e-16 0.00000000e+00 2.79962291e-17
2.51188643e+02 3.67853325e-16 1.84969251e-17 0.00000000e+00 3.49356400e-16 0.00000000e+00 1.84969251e-17
2.88403150e+02 2.02488342e-16 1.22207972e-17 0.00000000e+00 1.90267545e-16 0.00000000e+00 1.22207972e-17
3.31131121e+02 1.10682750e-16 8.07420067e-18 0.00000000e+00 1.02608549e-16 0.00000000e+00 8.07420067e-18
3.80189396e+02 6.01207107e-17 5.33457148e-18 0.00000000e+00 5.47861393e-17 0.00000000e+00 5.33457148e-18
4.36515832e+02 3.25518429e-17 3.52451642e-18 0.00000000e+00 2.90273265e-17 0.00000000e+00 3.52451642e-18
5.01187234e+02 1.75971048e-17 2.32862491e-18 0.00000000e+00 1.52684799e-17 0.00000000e+00 2.32862491e-18
5.75439937e+02 9.52087643e-18 1.53850722e-18 0.00000000e+00 7.98236921e-18 0.00000000e+00 1.53850722e-18
6.60693448e+02 5.16791751e-18 1.01648164e-18 0.00000000e+00 4.15143587e-18 0.00000000e+00 1.01648164e-18
7.58577575e+02 2.82084575e-18 6.71582760e-19 0.00000000e+00 2.14926299e-18 0.00000000e+00 6.71582760e-19
8.70963590e+02 1.55181705e-18 4.43710329e-19 0.00000000e+00 1.10810672e-18 0.00000000e+00 4.43710329e-19
1.00000000e+03 5.69200704e-19 0.00000000e+00 0.00000000e+00 5.69200704e-19 0.00000000e+00 0.00000000e+00
