# column 1: lambda (micron)
# column 2: total flux; lambda*F_lambda (W/m2)
# column 3: direct stellar flux; lambda*F_lambda (W/m2)
# column 4: scattered stellar flux; lambda*F_lambda (W/m2)
# column 5: total dust emission flux; lambda*F_lambda (W/m2)
# column 6: dust emission scattered flux; lambda*F_lambda (W/m2)
# column 7: transparent flux; lambda*F_lambda (W/m2)
1.00000000e-03 1.07335681e-12 1.07335627e-12 5.36600790e-19 0.00000000e+00 0.00000000e+00 1.07335627e-12
1.14815362e-03 1.26690539e-12 1.26690456e-12 8.38425080e-19 0.00000000e+00 0.00000000e+00 1.26690456e-12
1.31825674e-03 1.49535487e-12 1.49535359e-12 1.27518187e-18 0.00000000e+00 0.00000000e+00 1.49535359e-12
1.51356125e-03 1.76499877e-12 1.76499670e-12 2.06913592e-18 0.00000000e+00 0.00000000e+00 1.76499670e-12
1.73780083e-03 2.08326572e-12 2.08326203e-12 3.69233519e-18 0.00000000e+00 0.00000000e+00 2.08326203e-12
1.99526231e-03 2.45892376e-12 2.45891716e-12 6.59846929e-18 0.00000000e+00 0.00000000e+00 2.45891716e-12
2.29086765e-03 2.90232104e-12 2.90231066e-12 1.03704780e-17 0.00000000e+00 0.00000000e+00 2.90231066e-12
2.63026799e-03 3.42567788e-12 3.42565717e-12 2.07121709e-17 0.00000000e+00 0.00000000e+00 3.42565717e-12
3.01995172e-03 4.04340968e-12 4.04337385e-12 3.58345632e-17 0.00000000e+00 0.00000000e+00 4.04337385e-12
3.46736850e-03 4.77253800e-12 4.77247759e-12 6.04103575e-17 0.00000000e+00 0.00000000e+00 4.77247759e-12
3.98107171e-03 5.63314910e-12 5.63305378e-12 9.53192577e-17 0.00000000e+00 0.00000000e+00 5.63305378e-12
4.57088190e-03 6.64901773e-12 6.64880962e-12 2.08105284e-16 0.00000000e+00 0.00000000e+00 6.64880962e-12
5.24807460e-03 7.84809148e-12 7.84772720e-12 3.64286923e-16 0.00000000e+00 0.00000000e+00 7.84772720e-12
6.02559586e-03 9.26352416e-12 9.26283435e-12 6.89801910e-16 0.00000000e+00 0.00000000e+00 9.26283435e-12
6.91830971e-03 1.09342511e-11 1.09331145e-11 1.13655139e-15 0.00000000e+00 0.00000000e+00 1.09331145e-11
7.94328235e-03 1.29065587e-11 1.29045807e-11 1.97803426e-15 1.37129015e-303 2.35247269e-306 1.29045807e-11
9.12010839e-03 1.52344873e-11 1.52315429e-11 2.94445138e-15 5.90210108e-265 2.79782974e-267 1.52315429e-11
1.04712855e-02 1.70163312e-11 1.70115517e-11 4.77952235e-15 2.44045328e-231 3.96928541e-234 1.70115517e-11
1.20226443e-02 1.70185600e-11 1.70115517e-11 7.00830922e-15 3.77021530e-202 1.72337859e-204 1.70115517e-11
1.38038426e-02 1.70294312e-11 1.70115517e-11 1.78794444e-14 1.01157891e-176 4.04638770e-179 1.70115517e-11
1.58489319e-02 1.70240384e-11 1.70115517e-11 1.24866618e-14 1.35350779e-154 8.31471025e-157 1.70115517e-11
1.81970086e-02 1.70328663e-11 1.70115517e-11 2.13145820e-14 2.38941886e-135 1.75239620e-137 1.70115517e-11
2.08929613e-02 1.70348197e-11 1.70115517e-11 2.32679790e-14 1.23999079e-118 1.41283284e-120 1.70115517e-11
2.39883292e-02 1.70463117e-11 1.70115517e-11 3.47599612e-14 4.31962612e-104 6.04738463e-106 1.70115517e-11
2.75422870e-02 1.70574949e-11 1.70115517e-11 4.59432005e-14 1.92588944e-91 3.67387942e-93 1.70115517e-11
3.16227766e-02 1.70660590e-11 1.70115517e-11 5.45072509e-14 1.87021835e-80 4.36805836e-82 1.70115517e-11
3.63078055e-02 1.70764611e-11 1.70115517e-11 6.49093583e-14 6.46186455e-71 1.73804263e-72 1.70115517e-11
4.16869383e-02 1.71046715e-11 1.70115517e-11 9.31197451e-14 1.23154342e-62 4.70095138e-64 1.70115517e-11
4.78630092e-02 1.71419454e-11 1.70115517e-11 1.30393669e-13 1.86803405e-55 9.57801356e-57 1.70115517e-11
5.49540874e-02 1.71768755e-11 1.70115517e-11 1.65323810e-13 3.12100048e-49 2.00859558e-50 1.70115517e-11
6.30957344e-02 1.72168900e-11 1.70115517e-11 2.05338329e-13 1.01468100e-43 7.84943770e-45 1.70115517e-11
7.24435960e-02 1.72173255e-11 1.70115517e-11 2.05773812e-13 5.87083385e-39 4.47578689e-40 1.70115517e-11
8.31763771e-02 1.72089176e-11 1.70115517e-11 1.97365838e-13 5.99773012e-35 4.56731779e-36 1.70115517e-11
9.54992586e-02 1.72259643e-11 1.70115517e-11 2.14412621e-13 1.68734936e-31 1.32946916e-32 1.70115517e-11
1.09647820e-01 1.64611800e-11 1.62459122e-11 2.15267835e-13 1.42990279e-28 1.20377079e-29 1.62459122e-11
1.25892541e-01 1.53499426e-11 1.51615674e-11 1.88375233e-13 4.60431166e-26 3.70367441e-27 1.51615674e-11
1.44543977e-01 1.43172271e-11 1.41495980e-11 1.67629094e-13 6.23649754e-24 4.78436701e-25 1.41495980e-11
1.65958691e-01 1.33832150e-11 1.32051732e-11 1.78041857e-13 3.16130555e-22 2.67088918e-23 1.32051732e-11
1.90546072e-01 1.25313436e-11 1.23237846e-11 2.07558956e-13 6.71894201e-21 6.95330389e-22 1.23237846e-11
2.18776162e-01 1.17093978e-11 1.15012250e-11 2.08172686e-13 7.99857879e-20 8.91663505e-21 1.15012250e-11
2.51188643e-01 1.09842102e-11 1.07335677e-11 2.50641455e-13 9.78487196e-19 1.32567814e-19 1.07335677e-11
2.88403150e-01 1.02400548e-11 1.00171482e-11 2.22898498e-13 8.08891498e-18 1.05126254e-18 1.00171482e-11
3.31131121e-01 9.54661573e-12 9.34854667e-12 1.98022940e-13 4.61122085e-17 5.73895297e-18 9.34854667e-12
3.80189396e-01 8.90927528e-12 8.72457139e-12 1.84511781e-13 1.92111585e-16 2.35310138e-17 8.72457139e-12
4.36515832e-01 8.31013753e-12 8.14224377e-12 1.67285239e-13 6.08517079e-16 7.27042870e-17 8.14224377e-12
5.01187234e-01 7.75298468e-12 7.59878402e-12 1.52647152e-13 1.55350639e-15 1.90965201e-16 7.59878402e-12
5.75439937e-01 7.23734536e-12 7.09159786e-12 1.42308200e-13 3.43929193e-15 4.60190498e-16 7.09159786e-12
6.60693448e-01 6.75797907e-12 6.61826421e-12 1.32522064e-13 7.19279489e-15 1.13504579e-15 6.61826421e-12
7.58577575e-01 6.31525403e-12 6.17652353e-12 1.23166859e-13 1.55636340e-14 2.90519543e-15 6.17652353e-12
8.70963590e-01 5.90703111e-12 5.76426715e-12 1.07674383e-13 3.50895780e-14 7.24510772e-15 5.76426715e-12
1.00000000e+00 5.55127266e-12 5.37952711e-12 9.43966739e-14 7.73488739e-14 1.62153706e-14 5.37952711e-12
1.14815362e+00 5.26120502e-12 5.02046681e-12 7.77465336e-14 1.62991669e-13 3.20842949e-14 5.02046681e-12
1.31825674e+00 5.06724502e-12 4.68537225e-12 6.14671818e-14 3.20405590e-13 5.52527865e-14 4.68537225e-12
1.51356125e+00 4.99270959e-12 4.37264380e-12 4.73461688e-14 5.72719622e-13 8.40755634e-14 4.37264380e-12
1.73780083e+00 5.04240103e-12 4.08078863e-12 3.59928240e-14 9.25619576e-13 1.11598864e-13 4.08078863e-12
1.99526231e+00 5.18558724e-12 3.80841354e-12 2.63718016e-14 1.35080190e-12 1.27465987e-13 3.80841354e-12
2.29086765e+00 5.36232038e-12 3.55421832e-12 1.86112129e-14 1.78949085e-12 1.28701845e-13 3.55421832e-12
2.63026799e+00 5.51211890e-12 3.31698953e-12 1.30669372e-14 2.18206243e-12 1.16827467e-13 3.31698953e-12
3.01995172e+00 5.60336677e-12 3.09559474e-12 8.80273437e-15 2.49896929e-12 9.98168805e-14 3.09559474e-12
3.46736850e+00 5.60849954e-12 2.88897711e-12 6.13068872e-15 2.71339174e-12 7.93125924e-14 2.88897711e-12
3.98107171e+00 5.50996110e-12 2.69615031e-12 4.14604645e-15 2.80966474e-12 6.08604984e-14 2.69615031e-12
4.57088190e+00 5.30925428e-12 2.51619387e-12 2.84476602e-15 2.79021564e-12 4.41222847e-14 2.51619387e-12
5.24807460e+00 4.81526776e-12 2.08050667e-12 1.67232191e-15 2.73308877e-12 3.03507429e-14 2.08050667e-12
6.02559586e+00 3.99642897e-12 1.37457712e-12 7.28950629e-16 2.62112289e-12 1.98013099e-14 1.37457712e-12
6.70000000e+00 3.52585188e-12 9.99872685e-13 3.75333059e-16 2.52560386e-12 1.37189617e-14 9.99872685e-13
6.92422916e+00 3.39874554e-12 9.05846924e-13 3.08149833e-16 2.49259047e-12 1.21530194e-14 9.05846924e-13
7.15596261e+00 3.29659561e-12 8.20663132e-13 2.45384270e-16 2.47568709e-12 1.05491556e-14 8.20663132e-13
7.39545150e+00 3.23960361e-12 7.43489831e-13 1.85575315e-16 2.49592821e-12 9.07756731e-15 7.43489831e-13
7.64295536e+00 3.30733017e-12 6.73573732e-13 1.28330396e-16 2.63362811e-12 7.42806924e-15 6.73573732e-13
7.89874245e+00 3.56557641e-12 6.10232385e-13 7.68107848e-17 2.95526721e-12 5.67306655e-15 6.10232385e-13
8.16308998e+00 3.95672540e-12 5.52847515e-13 4.36587555e-17 3.40383423e-12 4.28275273e-15 5.52847515e-13
8.43628443e+00 4.53760247e-12 5.00858987e-13 2.43861885e-17 4.03671909e-12 3.16900988e-15 5.00858987e-13
8.71862190e+00 4.95592265e-12 4.53759343e-13 1.53806895e-17 4.50214792e-12 2.50781941e-15 4.53759343e-13
9.01040836e+00 5.37801449e-12 4.11088843e-13 1.01480488e-17 4.96691550e-12 1.95465117e-15 4.11088843e-13
9.31196005e+00 5.70561205e-12 3.72430980e-13 0.00000000e+00 5.33318107e-12 0.00000000e+00 3.72430980e-13
9.62360379e+00 5.68536936e-12 3.37408415e-13 0.00000000e+00 5.34796095e-12 0.00000000e+00 3.37408415e-13
9.94567731e+00 5.38459804e-12 3.05679292e-13 0.00000000e+00 5.07891874e-12 0.00000000e+00 3.05679292e-13
1.02785297e+01 4.99015406e-12 2.76933904e-13 0.00000000e+00 4.71322015e-12 0.00000000e+00 2.76933904e-13
1.06225216e+01 4.64182838e-12 2.50891667e-13 0.00000000e+00 4.39093672e-12 0.00000000e+00 2.50891667e-13
1.09780260e+01 4.23350128e-12 2.27298384e-13 0.00000000e+00 4.00620290e-12 0.00000000e+00 2.27298384e-13
1.13454280e+01 3.91848447e-12 2.05923759e-13 0.00000000e+00 3.71256071e-12 0.00000000e+00 2.05923759e-13
1.17251259e+01 3.62786660e-12 1.86559155e-13 0.00000000e+00 3.44130744e-12 0.00000000e+00 1.86559155e-13
1.21175312e+01 3.36389269e-12 1.69015555e-13 0.00000000e+00 3.19487713e-12 0.00000000e+00 1.69015555e-13
1.25230691e+01 3.14423613e-12 1.53121715e-13 0.00000000e+00 2.99111441e-12 0.00000000e+00 1.53121715e-13
1.29421791e+01 2.95590618e-12 1.38722496e-13 0.00000000e+00 2.81718368e-12 0.00000000e+00 1.38722496e-13
1.33753155e+01 2.79985599e-12 1.25677347e-13 0.00000000e+00 2.67417864e-12 0.00000000e+00 1.25677347e-13
1.38229477e+01 2.70508402e-12 1.13858934e-13 0.00000000e+00 2.59122509e-12 0.00000000e+00 1.13858934e-13
1.42855609e+01 2.66039670e-12 1.03151898e-13 0.00000000e+00 2.55724480e-12 0.00000000e+00 1.03151898e-13
1.47636563e+01 2.71534421e-12 9.34517274e-14 0.00000000e+00 2.62189249e-12 0.00000000e+00 9.34517274e-14
1.52577522e+01 2.79531024e-12 8.46637387e-14 0.00000000e+00 2.71064651e-12 0.00000000e+00 8.46637387e-14
1.57683840e+01 2.89296362e-12 7.67021526e-14 0.00000000e+00 2.81626146e-12 0.00000000e+00 7.67021526e-14
1.62961051e+01 2.98819248e-12 6.94892560e-14 0.00000000e+00 2.91870322e-12 0.00000000e+00 6.94892560e-14
1.68414875e+01 3.09391067e-12 6.29546439e-14 0.00000000e+00 3.03095602e-12 0.00000000e+00 6.29546439e-14
1.74051222e+01 3.16054501e-12 5.70345319e-14 0.00000000e+00 3.10351048e-12 0.00000000e+00 5.70345319e-14
1.79876201e+01 3.20551918e-12 5.16711337e-14 0.00000000e+00 3.15384805e-12 0.00000000e+00 5.16711337e-14
1.85896125e+01 3.22871200e-12 4.68120974e-14 0.00000000e+00 3.18189991e-12 0.00000000e+00 4.68120974e-14
1.92117518e+01 3.21535533e-12 4.24099939e-14 0.00000000e+00 3.17294534e-12 0.00000000e+00 4.24099939e-14
1.98547123e+01 3.19335719e-12 3.84218542e-14 0.00000000e+00 3.15493533e-12 0.00000000e+00 3.84218542e-14
2.05191907e+01 3.12444332e-12 3.48087501e-14 0.00000000e+00 3.08963457e-12 0.00000000e+00 3.48087501e-14
2.12059073e+01 3.07792572e-12 3.15354141e-14 0.00000000e+00 3.04639031e-12 0.00000000e+00 3.15354141e-14
2.19156062e+01 3.03798976e-12 2.85698952e-14 0.00000000e+00 3.00941986e-12 0.00000000e+00 2.85698952e-14
2.26490567e+01 2.99606528e-12 2.58832470e-14 0.00000000e+00 2.97018203e-12 0.00000000e+00 2.58832470e-14
2.34070535e+01 2.95901430e-12 2.34492452e-14 0.00000000e+00 2.93556505e-12 0.00000000e+00 2.34492452e-14
2.41904183e+01 2.90801531e-12 2.12441313e-14 0.00000000e+00 2.88677118e-12 0.00000000e+00 2.12441313e-14
2.50000000e+01 2.86099396e-12 1.92463813e-14 0.00000000e+00 2.84174758e-12 0.00000000e+00 1.92463813e-14
2.75422870e+01 2.68964300e-12 1.43935895e-14 0.00000000e+00 2.67524941e-12 0.00000000e+00 1.43935895e-14
3.16227766e+01 2.37778598e-12 9.50975027e-15 0.00000000e+00 2.36827623e-12 0.00000000e+00 9.50975027e-15
3.63078055e+01 1.98065501e-12 6.28302969e-15 0.00000000e+00 1.97437198e-12 0.00000000e+00 6.28302969e-15
4.16869383e+01 1.54280684e-12 4.15115655e-15 0.00000000e+00 1.53865569e-12 0.00000000e+00 4.15115655e-15
4.78630092e+01 1.11851024e-12 2.74264194e-15 0.00000000e+00 1.11576759e-12 0.00000000e+00 2.74264194e-15
5.49540874e+01 7.63099209e-13 1.81204556e-15 0.00000000e+00 7.61287164e-13 0.00000000e+00 1.81204556e-15
6.30957344e+01 4.93256659e-13 1.19720663e-15 0.00000000e+00 4.92059452e-13 0.00000000e+00 1.19720663e-15
7.24435960e+01 3.04878975e-13 7.90986575e-16 0.00000000e+00 3.04087989e-13 0.00000000e+00 7.90986575e-16
8.31763771e+01 1.81740792e-13 5.22599647e-16 0.00000000e+00 1.81218192e-13 0.00000000e+00 5.22599647e-16
9.54992586e+01 1.05444433e-13 3.45278163e-16 0.00000000e+00 1.05099155e-13 0.00000000e+00 3.45278163e-16
1.09647820e+02 5.98623814e-14 2.28123020e-16 0.00000000e+00 5.96342583e-14 0.00000000e+00 2.28123020e-16
1.25892541e+02 3.37935103e-14 1.50719385e-16 0.00000000e+00 3.36427909e-14 0.00000000e+00 1.50719385e-16
1.44543977e+02 1.88926564e-14 9.95793099e-17 0.00000000e+00 1.87930771e-14 0.00000000e+00 9.95793099e-17
1.65958691e+02 1.00492806e-14 6.57913976e-17 0.00000000e+00 9.98348924e-15 0.00000000e+00 6.57913976e-17
1.90546072e+02 5.33412836e-15 4.34679453e-17 0.00000000e+00 5.29066041e-15 0.00000000e+00 4.34679453e-17
2.18776162e+02 2.82088275e-15 2.87189867e-17 0.00000000e+00 2.79216377e-15 0.00000000e+00 2.87189867e-17
2.51188643e+02 1.48483280e-15 1.89744463e-17 0.00000000e+00 1.46585835e-15 0.00000000e+00 1.89744463e-17
2.88403150e+02 7.77319511e-16 1.25362924e-17 0.00000000e+00 7.64783219e-16 0.00000000e+00 1.25362924e-17
3.31131121e+02 4.05669903e-16 8.28264623e-18 0.00000000e+00 3.97387256e-16 0.00000000e+00 8.28264623e-18
3.80189396e+02 2.10962897e-16 5.47229010e-18 0.00000000e+00 2.05490607e-16 0.00000000e+00 5.47229010e-18
4.36515832e+02 1.09522292e-16 3.61550621e-18 0.00000000e+00 1.05906786e-16 0.00000000e+00 3.61550621e-18
5.01187234e+02 5.67824188e-17 2.38874127e-18 0.00000000e+00 5.43936775e-17 0.00000000e+00 2.38874127e-18
5.75439937e+02 2.94359648e-17 1.57822570e-18 0.00000000e+00 2.78577391e-17 0.00000000e+00 1.57822570e-18
6.60693448e+02 1.52752051e-17 1.04272338e-18 0.00000000e+00 1.42324818e-17 0.00000000e+00 1.04272338e-18
7.58577575e+02 7.94496811e-18 6.88920507e-19 0.00000000e+00 7.25604761e-18 0.00000000e+00 6.88920507e-19
8.70963590e+02 4.14679261e-18 4.55165265e-19 0.00000000e+00 3.69162735e-18 0.00000000e+00 4.55165265e-19
1.00000000e+03 1.87457902e-18 0.00000000e+00 0.00000000e+00 1.87457902e-18 0.00000000e+00 0.00000000e+00
