# column 1: lambda (micron)
# column 2: total flux; lambda*F_lambda (W/m2)
# column 3: direct stellar flux; lambda*F_lambda (W/m2)
# column 4: scattered stellar flux; lambda*F_lambda (W/m2)
# column 5: total dust emission flux; lambda*F_lambda (W/m2)
# column 6: dust emission scattered flux; lambda*F_lambda (W/m2)
# column 7: transparent flux; lambda*F_lambda (W/m2)
1.00000000e-03 9.68073537e-13 9.68073281e-13 2.56335773e-19 0.00000000e+00 0.00000000e+00 9.68073281e-13
1.14815362e-03 1.14263730e-12 1.14263687e-12 4.24824178e-19 0.00000000e+00 0.00000000e+00 1.14263687e-12
1.31825674e-03 1.34867852e-12 1.34867788e-12 6.45829141e-19 0.00000000e+00 0.00000000e+00 1.34867788e-12
1.51356125e-03 1.59187338e-12 1.59187233e-12 1.05217775e-18 0.00000000e+00 0.00000000e+00 1.59187233e-12
1.73780083e-03 1.87892153e-12 1.87891976e-12 1.77516605e-18 0.00000000e+00 0.00000000e+00 1.87891976e-12
1.99526231e-03 2.21773117e-12 2.21772777e-12 3.40375300e-18 0.00000000e+00 0.00000000e+00 2.21772777e-12
2.29086765e-03 2.61763515e-12 2.61762985e-12 5.30237090e-18 0.00000000e+00 0.00000000e+00 2.61762985e-12
2.63026799e-03 3.08965315e-12 3.08964252e-12 1.06239146e-17 0.00000000e+00 0.00000000e+00 3.08964252e-12
3.01995172e-03 3.64678745e-12 3.64676883e-12 1.86195660e-17 0.00000000e+00 0.00000000e+00 3.64676883e-12
3.46736850e-03 4.30438792e-12 4.30435650e-12 3.14252465e-17 0.00000000e+00 0.00000000e+00 4.30435650e-12
3.98107171e-03 5.08056995e-12 5.08052080e-12 4.91522593e-17 0.00000000e+00 0.00000000e+00 5.08052080e-12
4.57088190e-03 5.99675275e-12 5.99664354e-12 1.09207671e-16 0.00000000e+00 0.00000000e+00 5.99664354e-12
5.24807460e-03 7.07817410e-12 7.07796211e-12 2.11982356e-16 0.00000000e+00 0.00000000e+00 7.07796211e-12
6.02559586e-03 8.35463348e-12 8.35426474e-12 3.68739301e-16 0.00000000e+00 0.00000000e+00 8.35426474e-12
6.91830971e-03 9.86128872e-12 9.86071107e-12 5.77645832e-16 0.00000000e+00 0.00000000e+00 9.86071107e-12
7.94328235e-03 1.16397411e-11 1.16388008e-11 9.40352163e-16 0.00000000e+00 0.00000000e+00 1.16388008e-11
9.12010839e-03 1.37391097e-11 1.37375167e-11 1.59298147e-15 0.00000000e+00 0.00000000e+00 1.37375167e-11
1.04712855e-02 1.53450147e-11 1.53429287e-11 2.08604860e-15 0.00000000e+00 0.00000000e+00 1.53429287e-11
1.20226443e-02 1.53460426e-11 1.53429287e-11 3.11391061e-15 0.00000000e+00 0.00000000e+00 1.53429287e-11
1.38038426e-02 1.53475589e-11 1.53429287e-11 4.63022038e-15 9.96013533e-291 5.22860292e-292 1.53429287e-11
1.58489319e-02 1.53489369e-11 1.53429287e-11 6.00819503e-15 6.76406508e-254 4.57486497e-255 1.53429287e-11
1.81970086e-02 1.53528054e-11 1.53429287e-11 9.87674103e-15 7.86728192e-222 5.60238879e-223 1.53429287e-11
2.08929613e-02 1.53562769e-11 1.53429287e-11 1.33482619e-14 6.20180311e-194 4.38276327e-195 1.53429287e-11
2.39883292e-02 1.53590508e-11 1.53429287e-11 1.61221644e-14 1.24233862e-169 8.56968799e-171 1.53429287e-11
2.75422870e-02 1.53652839e-11 1.53429287e-11 2.23552553e-14 1.83837798e-148 1.31255379e-149 1.53429287e-11
3.16227766e-02 1.53716434e-11 1.53429287e-11 2.87147824e-14 4.96690209e-130 4.03768183e-131 1.53429287e-11
3.63078055e-02 1.53759029e-11 1.53429287e-11 3.29742496e-14 5.43126745e-114 4.81323013e-115 1.53429287e-11
4.16869383e-02 1.53895258e-11 1.53429287e-11 4.65971704e-14 4.89620965e-100 5.19847883e-101 1.53429287e-11
4.78630092e-02 1.54083659e-11 1.53429287e-11 6.54371958e-14 6.59376311e-88 8.18109650e-89 1.53429287e-11
5.49540874e-02 1.54253952e-11 1.53429287e-11 8.24665840e-14 2.26975702e-77 3.25859327e-78 1.53429287e-11
6.30957344e-02 1.54476156e-11 1.53429287e-11 1.04686973e-13 4.14489501e-68 6.98917948e-69 1.53429287e-11
7.24435960e-02 1.54476129e-11 1.53429287e-11 1.04684191e-13 4.34658765e-60 7.41027887e-61 1.53429287e-11
8.31763771e-02 1.54460001e-11 1.53429287e-11 1.03071468e-13 3.24980898e-53 5.51593293e-54 1.53429287e-11
9.54992586e-02 1.54514665e-11 1.53429287e-11 1.08537855e-13 2.91436260e-47 5.06969515e-48 1.53429287e-11
1.09647820e-01 1.47628318e-11 1.46523889e-11 1.10442950e-13 3.91179056e-42 7.07359404e-43 1.46523889e-11
1.25892541e-01 1.37699483e-11 1.36744049e-11 9.55434008e-14 1.04379905e-37 1.81339846e-38 1.36744049e-11
1.44543977e-01 1.28500951e-11 1.27616972e-11 8.83978822e-14 6.63613594e-34 1.08548331e-34 1.27616972e-11
1.65958691e-01 1.19996004e-11 1.19099088e-11 8.96915805e-14 9.74926700e-31 1.68655989e-31 1.19099088e-11
1.90546072e-01 1.12207241e-11 1.11149736e-11 1.05750515e-13 3.85194403e-28 7.83709700e-29 1.11149736e-11
2.18776162e-01 1.04796329e-11 1.03730969e-11 1.06535994e-13 5.77287417e-26 1.25509216e-26 1.03730969e-11
2.51188643e-01 9.81099250e-12 9.68073733e-12 1.30255170e-13 7.16371033e-24 1.80602395e-24 9.68073733e-12
2.88403150e-01 9.14949978e-12 9.03458975e-12 1.14910028e-13 4.46431726e-22 1.08972346e-22 9.03458975e-12
3.31131121e-01 8.53363702e-12 8.43156974e-12 1.02067260e-13 1.50356765e-20 3.56071852e-21 8.43156974e-12
3.80189396e-01 7.95941796e-12 7.86879872e-12 9.06189360e-14 3.03050524e-19 7.00427023e-20 7.86879872e-12
4.36515832e-01 7.42915422e-12 7.34359025e-12 8.55600502e-14 3.91874904e-18 8.99928487e-19 7.34359025e-12
5.01187234e-01 6.93416657e-12 6.85343719e-12 8.06949855e-14 3.44025677e-17 7.85082881e-18 6.85343719e-12
5.75439937e-01 6.47134084e-12 6.39599973e-12 7.51245296e-14 2.16578363e-16 4.94542937e-17 6.39599973e-12
6.60693448e-01 6.03952696e-12 5.96909425e-12 6.94061826e-14 1.02652516e-15 2.32723247e-16 5.96909425e-12
7.58577575e-01 5.63770687e-12 5.57068288e-12 6.31594564e-14 3.86452536e-15 8.60508691e-16 5.57068288e-12
8.70963590e-01 5.26852415e-12 5.19886376e-12 5.77428923e-14 1.19174938e-14 2.54948388e-15 5.19886376e-12
1.00000000e+00 4.93280821e-12 4.85186196e-12 5.00470215e-14 3.08992228e-14 6.21504976e-15 4.85186196e-12
1.14815362e+00 4.63932416e-12 4.52802104e-12 4.12988821e-14 7.00042362e-14 1.27590135e-14 4.52802104e-12
1.31825674e+00 4.40066476e-12 4.22579511e-12 3.32039458e-14 1.41665695e-13 2.23393014e-14 4.22579511e-12
1.51356125e+00 4.22651263e-12 3.94374146e-12 2.60367539e-14 2.56734408e-13 3.40723395e-14 3.94374146e-12
1.73780083e+00 4.11461244e-12 3.68051368e-12 1.96203745e-14 4.14478380e-13 4.44017340e-14 3.68051368e-12
1.99526231e+00 4.04721305e-12 3.43485522e-12 1.38014500e-14 5.98556379e-13 4.97449168e-14 3.43485522e-12
2.29086765e+00 3.99986676e-12 3.20559341e-12 9.79682225e-15 7.84476532e-13 4.81084552e-14 3.20559341e-12
2.63026799e+00 3.94310379e-12 2.99163384e-12 6.50313070e-15 9.44966823e-13 4.28006714e-14 2.99163384e-12
3.01995172e+00 3.85711848e-12 2.79195514e-12 4.41699126e-15 1.06074634e-12 3.45372552e-14 2.79195514e-12
3.46736850e+00 3.73405304e-12 2.60560415e-12 3.02804197e-15 1.12542085e-12 2.64157830e-14 2.60560415e-12
3.98107171e+00 3.57293136e-12 2.43169128e-12 2.08039823e-15 1.13915968e-12 1.95749703e-14 2.43169128e-12
4.57088190e+00 3.38201543e-12 2.26938634e-12 1.35817392e-15 1.11127092e-12 1.36866879e-14 2.26938634e-12
5.24807460e+00 2.93241879e-12 1.87643467e-12 7.90397253e-16 1.05519373e-12 9.10798495e-15 1.87643467e-12
6.02559586e+00 2.23489873e-12 1.23974809e-12 3.52516751e-16 9.94798120e-13 5.83628922e-15 1.23974809e-12
6.70000000e+00 1.84274671e-12 9.01797527e-13 1.79622577e-16 9.40769560e-13 3.93416780e-15 9.01797527e-13
6.92422916e+00 1.73778984e-12 8.16994532e-13 1.47276248e-16 9.20648033e-13 3.46319160e-15 8.16994532e-13
7.15596261e+00 1.65192607e-12 7.40166218e-13 1.21555099e-16 9.11638302e-13 3.01979446e-15 7.40166218e-13
7.39545150e+00 1.58978941e-12 6.70562664e-13 8.90454698e-17 9.19137702e-13 2.54229575e-15 6.70562664e-13
7.64295536e+00 1.58659352e-12 6.07504471e-13 6.29230577e-17 9.79026124e-13 2.09973934e-15 6.07504471e-13
7.89874245e+00 1.67488342e-12 5.50376127e-13 3.81393174e-17 1.12446915e-12 1.62301740e-15 5.50376127e-13
8.16308998e+00 1.83169353e-12 4.98620004e-13 2.10130204e-17 1.33305251e-12 1.23780009e-15 4.98620004e-13
8.43628443e+00 2.06984952e-12 4.51730909e-13 1.20056097e-17 1.61810660e-12 9.30036277e-16 4.51730909e-13
8.71862190e+00 2.24459661e-12 4.09251158e-13 7.76013860e-18 1.83533769e-12 7.33215642e-16 4.09251158e-13
9.01040836e+00 2.44323302e-12 3.70766106e-13 5.05655746e-18 2.07246186e-12 5.75539077e-16 3.70766106e-13
9.31196005e+00 2.58690740e-12 3.35900102e-13 0.00000000e+00 2.25100730e-12 0.00000000e+00 3.35900102e-13
9.62360379e+00 2.57007657e-12 3.04312818e-13 0.00000000e+00 2.26576375e-12 0.00000000e+00 3.04312818e-13
9.94567731e+00 2.40999573e-12 2.75695930e-13 0.00000000e+00 2.13429980e-12 0.00000000e+00 2.75695930e-13
1.02785297e+01 2.20086745e-12 2.49770110e-13 0.00000000e+00 1.95109734e-12 0.00000000e+00 2.49770110e-13
1.06225216e+01 2.02037679e-12 2.26282295e-13 0.00000000e+00 1.79409450e-12 0.00000000e+00 2.26282295e-13
1.09780260e+01 1.81122161e-12 2.05003220e-13 0.00000000e+00 1.60621839e-12 0.00000000e+00 2.05003220e-13
1.13454280e+01 1.64259045e-12 1.85725182e-13 0.00000000e+00 1.45686527e-12 0.00000000e+00 1.85725182e-13
1.17251259e+01 1.48748128e-12 1.68260007e-13 0.00000000e+00 1.31922127e-12 0.00000000e+00 1.68260007e-13
1.21175312e+01 1.35624706e-12 1.52437217e-13 0.00000000e+00 1.20380985e-12 0.00000000e+00 1.52437217e-13
1.25230691e+01 1.23848673e-12 1.38102367e-13 0.00000000e+00 1.10038436e-12 0.00000000e+00 1.38102367e-13
1.29421791e+01 1.14209721e-12 1.25115533e-13 0.00000000e+00 1.01698168e-12 0.00000000e+00 1.25115533e-13
1.33753155e+01 1.05787387e-12 1.13349952e-13 0.00000000e+00 9.44523920e-13 0.00000000e+00 1.13349952e-13
1.38229477e+01 1.00558635e-12 1.02690779e-13 0.00000000e+00 9.02895567e-13 0.00000000e+00 1.02690779e-13
1.42855609e+01 9.78880533e-13 9.30339713e-14 0.00000000e+00 8.85846561e-13 0.00000000e+00 9.30339713e-14
1.47636563e+01 9.90411132e-13 8.42852675e-14 0.00000000e+00 9.06125864e-13 0.00000000e+00 8.42852675e-14
1.52577522e+01 1.01930783e-12 7.63592720e-14 0.00000000e+00 9.42948560e-13 0.00000000e+00 7.63592720e-14
1.57683840e+01 1.05631468e-12 6.91786191e-14 0.00000000e+00 9.87136064e-13 0.00000000e+00 6.91786191e-14
1.62961051e+01 1.09001683e-12 6.26732185e-14 0.00000000e+00 1.02734361e-12 0.00000000e+00 6.26732185e-14
1.68414875e+01 1.13486226e-12 5.67795711e-14 0.00000000e+00 1.07808269e-12 0.00000000e+00 5.67795711e-14
1.74051222e+01 1.16441704e-12 5.14401489e-14 0.00000000e+00 1.11297689e-12 0.00000000e+00 5.14401489e-14
1.79876201e+01 1.18313533e-12 4.66028339e-14 0.00000000e+00 1.13653250e-12 0.00000000e+00 4.66028339e-14
1.85896125e+01 1.19134020e-12 4.22204090e-14 0.00000000e+00 1.14911979e-12 0.00000000e+00 4.22204090e-14
1.92117518e+01 1.18151397e-12 3.82500974e-14 0.00000000e+00 1.14326387e-12 0.00000000e+00 3.82500974e-14
1.98547123e+01 1.16108778e-12 3.46531450e-14 0.00000000e+00 1.12643463e-12 0.00000000e+00 3.46531450e-14
2.05191907e+01 1.13816330e-12 3.13944418e-14 0.00000000e+00 1.10676886e-12 0.00000000e+00 3.13944418e-14
2.12059073e+01 1.11904766e-12 2.84421796e-14 0.00000000e+00 1.09060548e-12 0.00000000e+00 2.84421796e-14
2.19156062e+01 1.10731179e-12 2.57675415e-14 0.00000000e+00 1.08154425e-12 0.00000000e+00 2.57675415e-14
2.26490567e+01 1.09259814e-12 2.33444203e-14 0.00000000e+00 1.06925372e-12 0.00000000e+00 2.33444203e-14
2.34070535e+01 1.07961705e-12 2.11491639e-14 0.00000000e+00 1.05846789e-12 0.00000000e+00 2.11491639e-14
2.41904183e+01 1.07029254e-12 1.91603445e-14 0.00000000e+00 1.05113219e-12 0.00000000e+00 1.91603445e-14
2.50000000e+01 1.05858481e-12 1.73585491e-14 0.00000000e+00 1.04122627e-12 0.00000000e+00 1.73585491e-14
2.75422870e+01 1.02792758e-12 1.29817562e-14 0.00000000e+00 1.01494582e-12 0.00000000e+00 1.29817562e-14
3.16227766e+01 9.72084962e-13 8.57696126e-15 0.00000000e+00 9.63508001e-13 0.00000000e+00 8.57696126e-15
3.63078055e+01 8.73199885e-13 5.66674211e-15 0.00000000e+00 8.67533143e-13 0.00000000e+00 5.66674211e-15
4.16869383e+01 7.42158465e-13 3.74397938e-15 0.00000000e+00 7.38414486e-13 0.00000000e+00 3.74397938e-15
4.78630092e+01 5.89946331e-13 2.47362265e-15 0.00000000e+00 5.87472708e-13 0.00000000e+00 2.47362265e-15
5.49540874e+01 4.40181594e-13 1.63430628e-15 0.00000000e+00 4.38547288e-13 0.00000000e+00 1.63430628e-15
6.30957344e+01 3.11223830e-13 1.07977545e-15 0.00000000e+00 3.10144055e-13 0.00000000e+00 1.07977545e-15
7.24435960e+01 2.08654292e-13 7.13400564e-16 0.00000000e+00 2.07940892e-13 0.00000000e+00 7.13400564e-16
8.31763771e+01 1.33971473e-13 4.71339078e-16 0.00000000e+00 1.33500134e-13 0.00000000e+00 4.71339078e-16
9.54992586e+01 8.31036382e-14 3.11410641e-16 0.00000000e+00 8.27922275e-14 0.00000000e+00 3.11410641e-16
1.09647820e+02 5.00437447e-14 2.05746970e-16 0.00000000e+00 4.98379977e-14 0.00000000e+00 2.05746970e-16
1.25892541e+02 2.97284660e-14 1.35935675e-16 0.00000000e+00 2.95925303e-14 0.00000000e+00 1.35935675e-16
1.44543977e+02 1.73595452e-14 8.98118099e-17 0.00000000e+00 1.72697333e-14 0.00000000e+00 8.98118099e-17
1.65958691e+02 9.60128373e-15 5.93380743e-17 0.00000000e+00 9.54194565e-15 0.00000000e+00 5.93380743e-17
1.90546072e+02 5.26645551e-15 3.92042769e-17 0.00000000e+00 5.22725124e-15 0.00000000e+00 3.92042769e-17
2.18776162e+02 2.86465527e-15 2.59020089e-17 0.00000000e+00 2.83875326e-15 0.00000000e+00 2.59020089e-17
2.51188643e+02 1.54424005e-15 1.71132876e-17 0.00000000e+00 1.52712676e-15 0.00000000e+00 1.71132876e-17
2.88403150e+02 8.24871552e-16 1.13066370e-17 0.00000000e+00 8.13564915e-16 0.00000000e+00 1.13066370e-17
3.31131121e+02 4.37891877e-16 7.47022097e-18 0.00000000e+00 4.30421656e-16 0.00000000e+00 7.47022097e-18
3.80189396e+02 2.30969340e-16 4.93552605e-18 0.00000000e+00 2.26033814e-16 0.00000000e+00 4.93552605e-18
4.36515832e+02 1.21307521e-16 3.26086972e-18 0.00000000e+00 1.18046652e-16 0.00000000e+00 3.26086972e-18
5.01187234e+02 6.34778629e-17 2.15443526e-18 0.00000000e+00 6.13234277e-17 0.00000000e+00 2.15443526e-18
5.75439937e+02 3.31396126e-17 1.42342126e-18 0.00000000e+00 3.17161913e-17 0.00000000e+00 1.42342126e-18
6.60693448e+02 1.72816978e-17 9.40445101e-19 0.00000000e+00 1.63412527e-17 0.00000000e+00 9.40445101e-19
7.58577575e+02 9.01348732e-18 6.21345916e-19 0.00000000e+00 8.39214141e-18 0.00000000e+00 6.21345916e-19
8.70963590e+02 4.70711753e-18 4.10519176e-19 0.00000000e+00 4.29659835e-18 0.00000000e+00 4.10519176e-19
1.00000000e+03 2.19366497e-18 0.00000000e+00 0.00000000e+00 2.19366497e-18 0.00000000e+00 0.00000000e+00
