# column 1: lambda (micron)
# column 2: total flux; lambda*F_lambda (W/m2)
# column 3: direct stellar flux; lambda*F_lambda (W/m2)
# column 4: scattered stellar flux; lambda*F_lambda (W/m2)
# column 5: total dust emission flux; lambda*F_lambda (W/m2)
# column 6: dust emission scattered flux; lambda*F_lambda (W/m2)
# column 7: transparent flux; lambda*F_lambda (W/m2)
1.00000000e-03 1.07337740e-12 1.07335627e-12 2.11299335e-17 0.00000000e+00 0.00000000e+00 1.07335627e-12
1.14815362e-03 1.26693491e-12 1.26690456e-12 3.03562392e-17 0.00000000e+00 0.00000000e+00 1.26690456e-12
1.31825674e-03 1.49539830e-12 1.49535359e-12 4.47077068e-17 0.00000000e+00 0.00000000e+00 1.49535359e-12
1.51356125e-03 1.76506011e-12 1.76499670e-12 6.34114416e-17 0.00000000e+00 0.00000000e+00 1.76499670e-12
1.73780083e-03 2.08338014e-12 2.08326203e-12 1.18116919e-16 0.00000000e+00 0.00000000e+00 2.08326203e-12
1.99526231e-03 2.45910047e-12 2.45891716e-12 1.83314789e-16 0.00000000e+00 0.00000000e+00 2.45891716e-12
2.29086765e-03 2.90259720e-12 2.90231066e-12 2.86537880e-16 0.00000000e+00 0.00000000e+00 2.90231066e-12
2.63026799e-03 3.42623899e-12 3.42565717e-12 5.81818344e-16 0.00000000e+00 0.00000000e+00 3.42565717e-12
3.01995172e-03 4.04424520e-12 4.04337385e-12 8.71349745e-16 0.00000000e+00 0.00000000e+00 4.04337385e-12
3.46736850e-03 4.77394534e-12 4.77247759e-12 1.46775346e-15 0.00000000e+00 0.00000000e+00 4.77247759e-12
3.98107171e-03 5.63523583e-12 5.63305378e-12 2.18204546e-15 0.00000000e+00 0.00000000e+00 5.63305378e-12
4.57088190e-03 6.65440798e-12 6.64880962e-12 5.59835637e-15 0.00000000e+00 0.00000000e+00 6.64880962e-12
5.24807460e-03 7.86280064e-12 7.84772720e-12 1.50734460e-14 0.00000000e+00 0.00000000e+00 7.84772720e-12
6.02559586e-03 9.28096026e-12 9.26283435e-12 1.81259088e-14 0.00000000e+00 0.00000000e+00 9.26283435e-12
6.91830971e-03 1.09695130e-11 1.09331145e-11 3.63985002e-14 0.00000000e+00 0.00000000e+00 1.09331145e-11
7.94328235e-03 1.29758590e-11 1.29045807e-11 7.12782766e-14 0.00000000e+00 0.00000000e+00 1.29045807e-11
9.12010839e-03 1.53085171e-11 1.52315429e-11 7.69741900e-14 0.00000000e+00 0.00000000e+00 1.52315429e-11
1.04712855e-02 1.71119732e-11 1.70115517e-11 1.00421470e-13 0.00000000e+00 0.00000000e+00 1.70115517e-11
1.20226443e-02 1.71783068e-11 1.70115517e-11 1.66755124e-13 0.00000000e+00 0.00000000e+00 1.70115517e-11
1.38038426e-02 1.72240141e-11 1.70115517e-11 2.12462382e-13 9.97638683e-312 9.97638683e-312 1.70115517e-11
1.58489319e-02 1.72912285e-11 1.70115517e-11 2.79676806e-13 3.97440922e-272 3.97440922e-272 1.70115517e-11
1.81970086e-02 1.74039699e-11 1.70115517e-11 3.92418135e-13 2.92641471e-238 2.92641471e-238 1.70115517e-11
2.08929613e-02 1.74805308e-11 1.70115517e-11 4.68979076e-13 2.01710666e-208 2.01710666e-208 1.70115517e-11
2.39883292e-02 1.75844471e-11 1.70115517e-11 5.72895353e-13 1.13038158e-182 1.13038158e-182 1.70115517e-11
2.75422870e-02 1.76280455e-11 1.70115517e-11 6.16493773e-13 4.32404575e-160 4.32404575e-160 1.70115517e-11
3.16227766e-02 1.76214888e-11 1.70115517e-11 6.09937053e-13 1.49660688e-140 1.49660688e-140 1.70115517e-11
3.63078055e-02 1.76076764e-11 1.70115517e-11 5.96124727e-13 1.25389319e-123 1.25389319e-123 1.70115517e-11
4.16869383e-02 1.75841048e-11 1.70115517e-11 5.72553113e-13 1.03288949e-108 1.03288949e-108 1.70115517e-11
4.78630092e-02 1.75235719e-11 1.70115517e-11 5.12020183e-13 5.94924887e-96 5.94924887e-96 1.70115517e-11
5.49540874e-02 1.73832982e-11 1.70115517e-11 3.71746436e-13 8.64061680e-85 8.64061680e-85 1.70115517e-11
6.30957344e-02 1.72484318e-11 1.70115517e-11 2.36880035e-13 4.09542905e-75 4.09304228e-75 1.70115517e-11
7.24435960e-02 1.71598353e-11 1.70115517e-11 1.48283612e-13 9.20560856e-67 9.17726552e-67 1.70115517e-11
8.31763771e-02 1.71458523e-11 1.70115517e-11 1.34300543e-13 1.46888933e-59 1.41359459e-59 1.70115517e-11
9.54992586e-02 1.71412546e-11 1.70115517e-11 1.29702933e-13 5.32683180e-53 4.58913073e-53 1.70115517e-11
1.09647820e-01 1.64132507e-11 1.62459122e-11 1.67338552e-13 2.90446771e-47 2.18462282e-47 1.62459122e-11
1.25892541e-01 1.53781776e-11 1.51615674e-11 2.16610178e-13 4.85468908e-42 3.21096254e-42 1.51615674e-11
1.44543977e-01 1.43837189e-11 1.41495980e-11 2.34120942e-13 1.42548572e-37 8.12184948e-38 1.41495980e-11
1.65958691e-01 1.34457865e-11 1.32051732e-11 2.40613347e-13 9.11872485e-34 5.47493920e-34 1.32051732e-11
1.90546072e-01 1.25300385e-11 1.23237846e-11 2.06253888e-13 1.01087143e-30 6.10033664e-31 1.23237846e-11
2.18776162e-01 1.16373612e-11 1.15012250e-11 1.36136141e-13 3.07912436e-28 1.92256694e-28 1.15012250e-11
2.51188643e-01 1.08912321e-11 1.07335677e-11 1.57664397e-13 1.21707883e-25 7.60899494e-26 1.07335677e-11
2.88403150e-01 1.01983315e-11 1.00171482e-11 1.81183297e-13 1.87643197e-23 1.15405845e-23 1.00171482e-11
3.31131121e-01 9.53639534e-12 9.34854667e-12 1.87848665e-13 1.36538075e-21 8.08946926e-22 9.34854667e-12
3.80189396e-01 8.90640990e-12 8.72457139e-12 1.81838462e-13 5.17388419e-20 2.98026706e-20 8.72457139e-12
4.36515832e-01 8.31824468e-12 8.14224377e-12 1.75999740e-13 1.17124432e-18 6.47285076e-19 8.14224377e-12
5.01187234e-01 7.76069017e-12 7.59878402e-12 1.61889782e-13 1.63684109e-17 8.62369706e-18 7.59878402e-12
5.75439937e-01 7.23899186e-12 7.09159786e-12 1.47238095e-13 1.55900180e-16 7.79360235e-17 7.09159786e-12
6.60693448e-01 6.75301777e-12 6.61826421e-12 1.33716044e-13 1.03752106e-15 4.84724914e-16 6.61826421e-12
7.58577575e-01 6.30276836e-12 6.17652353e-12 1.21013842e-13 5.23097850e-15 2.28477495e-15 6.17652353e-12
8.70963590e-01 5.89501189e-12 5.76426715e-12 1.09332824e-13 2.14119147e-14 8.58408446e-15 5.76426715e-12
1.00000000e+00 5.54536850e-12 5.37952711e-12 9.60224980e-14 6.98188932e-14 2.50259405e-14 5.37952711e-12
1.14815362e+00 5.29976688e-12 5.02046681e-12 8.22810213e-14 1.97019050e-13 6.02454390e-14 5.02046681e-12
1.31825674e+00 5.23632656e-12 4.68537225e-12 6.98991709e-14 4.81055148e-13 1.25260082e-13 4.68537225e-12
1.51356125e+00 5.48243084e-12 4.37264380e-12 5.93747103e-14 1.05041233e-12 2.27594668e-13 4.37264380e-12
1.73780083e+00 6.16389315e-12 4.08078863e-12 5.15402143e-14 2.03156430e-12 3.56522734e-13 4.08078863e-12
1.99526231e+00 7.34314720e-12 3.80841354e-12 4.37946006e-14 3.49093905e-12 4.89864698e-13 3.80841354e-12
2.29086765e+00 9.03214249e-12 3.55421832e-12 3.67500072e-14 5.44117417e-12 6.05774917e-13 3.55421832e-12
2.63026799e+00 1.11440627e-11 3.31698953e-12 2.94609928e-14 7.79761222e-12 6.93084257e-13 3.31698953e-12
3.01995172e+00 1.36847961e-11 3.09559474e-12 2.27041654e-14 1.05664972e-11 7.23880907e-13 3.09559474e-12
3.46736850e+00 1.60999234e-11 2.88897711e-12 1.71100250e-14 1.31938363e-11 7.08500188e-13 2.88897711e-12
3.98107171e+00 1.86947155e-11 2.69615031e-12 1.23278383e-14 1.59862373e-11 6.47353057e-13 2.69615031e-12
4.57088190e+00 2.08808858e-11 2.51619387e-12 8.52956277e-15 1.83561623e-11 5.34103712e-13 2.51619387e-12
5.24807460e+00 2.23541406e-11 2.08050667e-12 5.03787409e-15 2.02685960e-11 3.96649556e-13 2.08050667e-12
6.02559586e+00 2.26536766e-11 1.37457712e-12 2.26250884e-15 2.12768370e-11 2.67831888e-13 1.37457712e-12
6.70000000e+00 2.24936355e-11 9.99872685e-13 1.17105965e-15 2.14925918e-11 1.85016635e-13 9.99872685e-13
6.92422916e+00 2.23167200e-11 9.05846924e-13 9.49850040e-16 2.14099232e-11 1.62229513e-13 9.05846924e-13
7.15596261e+00 2.21332436e-11 8.20663132e-13 7.51367827e-16 2.13118291e-11 1.40166507e-13 8.20663132e-13
7.39545150e+00 2.20790701e-11 7.43489831e-13 5.72962076e-16 2.13350073e-11 1.19047765e-13 7.43489831e-13
7.64295536e+00 2.22544117e-11 6.73573732e-13 3.91730432e-16 2.15804463e-11 9.56949404e-14 6.73573732e-13
7.89874245e+00 2.25355122e-11 6.10232385e-13 2.29956191e-16 2.19250499e-11 7.09554497e-14 6.10232385e-13
8.16308998e+00 2.28728235e-11 5.52847515e-13 1.25819048e-16 2.23198502e-11 4.99751160e-14 5.52847515e-13
8.43628443e+00 2.29009563e-11 5.00858987e-13 6.20532598e-17 2.24000353e-11 3.30743934e-14 5.00858987e-13
8.71862190e+00 2.26738221e-11 4.53759343e-13 3.43688412e-17 2.22200284e-11 2.38821927e-14 4.53759343e-13
9.01040836e+00 2.24399173e-11 4.11088843e-13 1.69820066e-17 2.20288115e-11 1.62711032e-14 4.11088843e-13
9.31196005e+00 2.20461189e-11 3.72430980e-13 0.00000000e+00 2.16736879e-11 0.00000000e+00 3.72430980e-13
9.62360379e+00 2.21935931e-11 3.37408415e-13 0.00000000e+00 2.18561846e-11 0.00000000e+00 3.37408415e-13
9.94567731e+00 2.20250357e-11 3.05679292e-13 0.00000000e+00 2.17193564e-11 0.00000000e+00 3.05679292e-13
1.02785297e+01 2.20080837e-11 2.76933904e-13 0.00000000e+00 2.17311498e-11 0.00000000e+00 2.76933904e-13
1.06225216e+01 2.19374554e-11 2.50891667e-13 0.00000000e+00 2.16865637e-11 0.00000000e+00 2.50891667e-13
1.09780260e+01 2.18739175e-11 2.27298384e-13 0.00000000e+00 2.16466191e-11 0.00000000e+00 2.27298384e-13
1.13454280e+01 2.14097720e-11 2.05923759e-13 0.00000000e+00 2.12038483e-11 0.00000000e+00 2.05923759e-13
1.17251259e+01 2.11999615e-11 1.86559155e-13 0.00000000e+00 2.10134023e-11 0.00000000e+00 1.86559155e-13
1.21175312e+01 2.06556106e-11 1.69015555e-13 0.00000000e+00 2.04865950e-11 0.00000000e+00 1.69015555e-13
1.25230691e+01 1.99397543e-11 1.53121715e-13 0.00000000e+00 1.97866326e-11 0.00000000e+00 1.53121715e-13
1.29421791e+01 1.91433756e-11 1.38722496e-13 0.00000000e+00 1.90046531e-11 0.00000000e+00 1.38722496e-13
1.33753155e+01 1.83642914e-11 1.25677347e-13 0.00000000e+00 1.82386140e-11 0.00000000e+00 1.25677347e-13
1.38229477e+01 1.75266850e-11 1.13858934e-13 0.00000000e+00 1.74128260e-11 0.00000000e+00 1.13858934e-13
1.42855609e+01 1.70054033e-11 1.03151898e-13 0.00000000e+00 1.69022514e-11 0.00000000e+00 1.03151898e-13
1.47636563e+01 1.67663716e-11 9.34517274e-14 0.00000000e+00 1.66729199e-11 0.00000000e+00 9.34517274e-14
1.52577522e+01 1.66189734e-11 8.46637387e-14 0.00000000e+00 1.65343097e-11 0.00000000e+00 8.46637387e-14
1.57683840e+01 1.66088410e-11 7.67021526e-14 0.00000000e+00 1.65321389e-11 0.00000000e+00 7.67021526e-14
1.62961051e+01 1.64656517e-11 6.94892560e-14 0.00000000e+00 1.63961624e-11 0.00000000e+00 6.94892560e-14
1.68414875e+01 1.63684920e-11 6.29546439e-14 0.00000000e+00 1.63055374e-11 0.00000000e+00 6.29546439e-14
1.74051222e+01 1.59770312e-11 5.70345319e-14 0.00000000e+00 1.59199967e-11 0.00000000e+00 5.70345319e-14
1.79876201e+01 1.56355766e-11 5.16711337e-14 0.00000000e+00 1.55839055e-11 0.00000000e+00 5.16711337e-14
1.85896125e+01 1.51566453e-11 4.68120974e-14 0.00000000e+00 1.51098333e-11 0.00000000e+00 4.68120974e-14
1.92117518e+01 1.46521358e-11 4.24099939e-14 0.00000000e+00 1.46097258e-11 0.00000000e+00 4.24099939e-14
1.98547123e+01 1.39427942e-11 3.84218542e-14 0.00000000e+00 1.39043723e-11 0.00000000e+00 3.84218542e-14
2.05191907e+01 1.32363238e-11 3.48087501e-14 0.00000000e+00 1.32015151e-11 0.00000000e+00 3.48087501e-14
2.12059073e+01 1.25018070e-11 3.15354141e-14 0.00000000e+00 1.24702716e-11 0.00000000e+00 3.15354141e-14
2.19156062e+01 1.18337537e-11 2.85698952e-14 0.00000000e+00 1.18051838e-11 0.00000000e+00 2.85698952e-14
2.26490567e+01 1.11459825e-11 2.58832470e-14 0.00000000e+00 1.11200992e-11 0.00000000e+00 2.58832470e-14
2.34070535e+01 1.04799003e-11 2.34492452e-14 0.00000000e+00 1.04564511e-11 0.00000000e+00 2.34492452e-14
2.41904183e+01 9.86359755e-12 2.12441313e-14 0.00000000e+00 9.84235342e-12 0.00000000e+00 2.12441313e-14
2.50000000e+01 9.24135007e-12 1.92463813e-14 0.00000000e+00 9.22210368e-12 0.00000000e+00 1.92463813e-14
2.75422870e+01 7.57854827e-12 1.43935895e-14 0.00000000e+00 7.56415468e-12 0.00000000e+00 1.43935895e-14
3.16227766e+01 5.46777453e-12 9.50975027e-15 0.00000000e+00 5.45826478e-12 0.00000000e+00 9.50975027e-15
3.63078055e+01 3.77072603e-12 6.28302969e-15 0.00000000e+00 3.76444301e-12 0.00000000e+00 6.28302969e-15
4.16869383e+01 2.45487227e-12 4.15115655e-15 0.00000000e+00 2.45072112e-12 0.00000000e+00 4.15115655e-15
4.78630092e+01 1.51082421e-12 2.74264194e-15 0.00000000e+00 1.50808157e-12 0.00000000e+00 2.74264194e-15
5.49540874e+01 8.86786060e-13 1.81204556e-15 0.00000000e+00 8.84974014e-13 0.00000000e+00 1.81204556e-15
6.30957344e+01 5.00495059e-13 1.19720663e-15 0.00000000e+00 4.99297853e-13 0.00000000e+00 1.19720663e-15
7.24435960e+01 2.74776404e-13 7.90986575e-16 0.00000000e+00 2.73985417e-13 0.00000000e+00 7.90986575e-16
8.31763771e+01 1.47834839e-13 5.22599647e-16 0.00000000e+00 1.47312239e-13 0.00000000e+00 5.22599647e-16
9.54992586e+01 7.85497195e-14 3.45278163e-16 0.00000000e+00 7.82044414e-14 0.00000000e+00 3.45278163e-16
1.09647820e+02 4.13968992e-14 2.28123020e-16 0.00000000e+00 4.11687762e-14 0.00000000e+00 2.28123020e-16
1.25892541e+02 2.19576063e-14 1.50719385e-16 0.00000000e+00 2.18068870e-14 0.00000000e+00 1.50719385e-16
1.44543977e+02 1.16439122e-14 9.95793099e-17 0.00000000e+00 1.15443329e-14 0.00000000e+00 9.95793099e-17
1.65958691e+02 5.91437298e-15 6.57913976e-17 0.00000000e+00 5.84858158e-15 0.00000000e+00 6.57913976e-17
1.90546072e+02 3.02155439e-15 4.34679453e-17 0.00000000e+00 2.97808644e-15 0.00000000e+00 4.34679453e-17
2.18776162e+02 1.54817021e-15 2.87189867e-17 0.00000000e+00 1.51945123e-15 0.00000000e+00 2.87189867e-17
2.51188643e+02 7.93975534e-16 1.89744463e-17 0.00000000e+00 7.75001087e-16 0.00000000e+00 1.89744463e-17
2.88403150e+02 4.07056213e-16 1.25362924e-17 0.00000000e+00 3.94519921e-16 0.00000000e+00 1.25362924e-17
3.31131121e+02 2.09022130e-16 8.28264623e-18 0.00000000e+00 2.00739484e-16 0.00000000e+00 8.28264623e-18
3.80189396e+02 1.07422333e-16 5.47229010e-18 0.00000000e+00 1.01950043e-16 0.00000000e+00 5.47229010e-18
4.36515832e+02 5.53545174e-17 3.61550621e-18 0.00000000e+00 5.17390112e-17 0.00000000e+00 3.61550621e-18
5.01187234e+02 2.86126751e-17 2.38874127e-18 0.00000000e+00 2.62239339e-17 0.00000000e+00 2.38874127e-18
5.75439937e+02 1.48564360e-17 1.57822570e-18 0.00000000e+00 1.32782103e-17 0.00000000e+00 1.57822570e-18
6.60693448e+02 7.76041509e-18 1.04272338e-18 0.00000000e+00 6.71769171e-18 0.00000000e+00 1.04272338e-18
7.58577575e+02 4.08493220e-18 6.88920507e-19 0.00000000e+00 3.39601170e-18 0.00000000e+00 6.88920507e-19
8.70963590e+02 2.17039804e-18 4.55165265e-19 0.00000000e+00 1.71523277e-18 0.00000000e+00 4.55165265e-19
1.00000000e+03 8.65514858e-19 0.00000000e+00 0.00000000e+00 8.65514858e-19 0.00000000e+00 0.00000000e+00
