# column 1: lambda (micron)
# column 2: total flux; lambda*F_lambda (W/m2)
# column 3: direct stellar flux; lambda*F_lambda (W/m2)
# column 4: scattered stellar flux; lambda*F_lambda (W/m2)
# column 5: total dust emission flux; lambda*F_lambda (W/m2)
# column 6: dust emission scattered flux; lambda*F_lambda (W/m2)
# column 7: transparent flux; lambda*F_lambda (W/m2)
1.00000000e-03 8.44460632e-13 8.44443281e-13 1.73510708e-17 0.00000000e+00 0.00000000e+00 8.46529401e-13
1.14815362e-03 9.95954566e-13 9.95924331e-13 3.02350867e-17 0.00000000e+00 0.00000000e+00 9.99176121e-13
1.31825674e-03 1.17453012e-12 1.17447046e-12 5.96596534e-17 0.00000000e+00 0.00000000e+00 1.17934819e-12
1.51356125e-03 1.38527383e-12 1.38522385e-12 4.99807309e-17 0.00000000e+00 0.00000000e+00 1.39200901e-12
1.73780083e-03 1.63505274e-12 1.63492573e-12 1.27004993e-16 0.00000000e+00 0.00000000e+00 1.64301696e-12
1.99526231e-03 1.92681855e-12 1.92663500e-12 1.83549227e-16 0.00000000e+00 0.00000000e+00 1.93928682e-12
2.29086765e-03 2.27330027e-12 2.27314785e-12 1.52425368e-16 0.00000000e+00 0.00000000e+00 2.28898025e-12
2.63026799e-03 2.68117655e-12 2.67935196e-12 1.82459033e-15 0.00000000e+00 0.00000000e+00 2.70173063e-12
3.01995172e-03 3.15909901e-12 3.15627213e-12 2.82688293e-15 0.00000000e+00 0.00000000e+00 3.18890841e-12
3.46736850e-03 3.72242953e-12 3.71857215e-12 3.85737934e-15 0.00000000e+00 0.00000000e+00 3.76393440e-12
3.98107171e-03 4.38587437e-12 4.38141557e-12 4.45879975e-15 0.00000000e+00 0.00000000e+00 4.44264945e-12
4.57088190e-03 5.19901405e-12 5.19542832e-12 3.58573356e-15 0.00000000e+00 0.00000000e+00 5.24375082e-12
5.24807460e-03 6.12838047e-12 6.11655198e-12 1.18284911e-14 0.00000000e+00 0.00000000e+00 6.18930730e-12
6.02559586e-03 7.32416853e-12 7.20194956e-12 1.22218969e-13 0.00000000e+00 0.00000000e+00 7.30536713e-12
6.91830971e-03 8.52399547e-12 8.48194961e-12 4.20458618e-14 0.00000000e+00 0.00000000e+00 8.62267558e-12
7.94328235e-03 1.00962462e-11 9.99238432e-12 1.03861881e-13 2.43421503e-303 2.44620281e-305 1.01775219e-11
9.12010839e-03 1.18748682e-11 1.17704894e-11 1.04378800e-13 1.21860623e-264 1.58800925e-266 1.20127391e-11
1.04712855e-02 1.32153117e-11 1.31289363e-11 8.63754361e-14 6.00500126e-231 3.02177534e-232 1.34165878e-11
1.20226443e-02 1.31975164e-11 1.31121537e-11 8.53627063e-14 1.01155789e-201 2.53419690e-203 1.34165878e-11
1.38038426e-02 1.32204440e-11 1.30922755e-11 1.28168442e-13 3.04472441e-176 1.20178249e-177 1.34165878e-11
1.58489319e-02 1.32117203e-11 1.30678880e-11 1.43832311e-13 4.41962163e-154 1.58884614e-155 1.34165878e-11
1.81970086e-02 1.31937810e-11 1.30454352e-11 1.48345795e-13 8.50184420e-135 4.02156158e-136 1.34165878e-11
2.08929613e-02 1.32083385e-11 1.30268014e-11 1.81537145e-13 4.66967384e-118 2.03491317e-119 1.34165878e-11
2.39883292e-02 1.32113549e-11 1.30026979e-11 2.08657016e-13 1.72755166e-103 8.62091531e-105 1.34165878e-11
2.75422870e-02 1.32115662e-11 1.29747174e-11 2.36848856e-13 8.11469438e-91 4.73106608e-92 1.34165878e-11
3.16227766e-02 1.32066504e-11 1.29473489e-11 2.59301493e-13 8.16851828e-80 4.68998043e-81 1.34165878e-11
3.63078055e-02 1.31997028e-11 1.29259228e-11 2.73780033e-13 2.93012735e-70 1.77945677e-71 1.34165878e-11
4.16869383e-02 1.32292303e-11 1.29074194e-11 3.21810903e-13 5.75814453e-62 4.04454559e-63 1.34165878e-11
4.78630092e-02 1.32243072e-11 1.28565523e-11 3.67754875e-13 8.89849155e-55 6.88244996e-56 1.34165878e-11
5.49540874e-02 1.31711151e-11 1.27861451e-11 3.84969983e-13 1.50179471e-48 1.23585898e-49 1.34165878e-11
6.30957344e-02 1.30023134e-11 1.26112899e-11 3.91023555e-13 4.88762536e-43 4.22782789e-44 1.34165878e-11
7.24435960e-02 1.27528048e-11 1.24072627e-11 3.45542059e-13 2.81988223e-38 2.18311043e-39 1.34165878e-11
8.31763771e-02 1.27597152e-11 1.24252836e-11 3.34431570e-13 2.93102739e-34 2.24853196e-35 1.34165878e-11
9.54992586e-02 1.28162268e-11 1.24782888e-11 3.37937983e-13 8.38707459e-31 6.59823057e-32 1.34165878e-11
1.09647820e-01 1.24203362e-11 1.20638073e-11 3.56528870e-13 7.30136944e-28 6.36861041e-29 1.28127470e-11
1.25892541e-01 1.17293787e-11 1.13791631e-11 3.50215599e-13 2.41755623e-25 2.16265260e-26 1.19575512e-11
1.44543977e-01 1.10355950e-11 1.07101474e-11 3.25447604e-13 3.34546635e-23 2.93912118e-24 1.11594361e-11
1.65958691e-01 1.03908457e-11 1.00469521e-11 3.43893585e-13 1.73016894e-21 1.71590661e-22 1.04145917e-11
1.90546072e-01 9.70282551e-12 9.35386177e-12 3.48963707e-13 3.67375134e-20 4.14615504e-21 9.71946251e-12
2.18776162e-01 8.99168620e-12 8.67181047e-12 3.19875297e-13 4.32745460e-19 4.92450039e-20 9.07073019e-12
2.51188643e-01 8.53917982e-12 8.16622527e-12 3.72949149e-13 5.40186064e-18 7.55597757e-19 8.46529796e-12
2.88403150e-01 8.01980354e-12 7.66784217e-12 3.51915735e-13 4.56428851e-17 6.43776603e-18 7.90027573e-12
3.31131121e-01 7.51287663e-12 7.18351187e-12 3.29100688e-13 2.64075548e-16 3.65870691e-17 7.37296631e-12
3.80189396e-01 7.03053812e-12 6.72534160e-12 3.04087434e-13 1.10907899e-15 1.51771849e-16 6.88085251e-12
4.36515832e-01 6.58083908e-12 6.29508868e-12 2.82206318e-13 3.54408708e-15 4.82775170e-16 6.42158520e-12
5.01187234e-01 6.15955328e-12 5.89147617e-12 2.59081801e-13 8.99530745e-15 1.24460376e-15 5.99297201e-12
5.75439937e-01 5.77007608e-12 5.51237996e-12 2.38479292e-13 1.92168237e-14 2.76751429e-15 5.59296690e-12
6.60693448e-01 5.41351249e-12 5.15623694e-12 2.20400641e-13 3.68749024e-14 5.82726547e-15 5.21966041e-12
7.58577575e-01 5.09165903e-12 4.82196726e-12 1.99891676e-13 6.98000949e-14 1.28571310e-14 4.87127053e-12
8.70963590e-01 4.82129687e-12 4.50865936e-12 1.76162952e-13 1.36474557e-13 2.91291201e-14 4.54613417e-12
1.00000000e+00 4.63614542e-12 4.21467850e-12 1.50844820e-13 2.70622104e-13 6.14201359e-14 4.24269927e-12
1.14815362e+00 4.59891511e-12 3.93894016e-12 1.25243607e-13 5.34731343e-13 1.19166943e-13 3.95951734e-12
1.31825674e+00 4.78856237e-12 3.68038986e-12 9.87822676e-14 1.00939023e-12 2.05992532e-13 3.69523659e-12
1.51356125e+00 5.26411200e-12 3.43799274e-12 7.82011473e-14 1.74791812e-12 3.11308709e-13 3.44859544e-12
1.73780083e+00 6.00160239e-12 3.21096846e-12 5.86360752e-14 2.73199785e-12 4.06266122e-13 3.21841652e-12
1.99526231e+00 6.91687881e-12 2.99845151e-12 4.27345013e-14 3.87569280e-12 4.59117955e-13 3.00360106e-12
2.29086765e+00 7.82036017e-12 2.79957455e-12 3.11583093e-14 4.98962731e-12 4.63749835e-13 2.80312361e-12
2.63026799e+00 8.58672506e-12 2.61355839e-12 2.23251510e-14 5.95084152e-12 4.30163913e-13 2.61602716e-12
3.01995172e+00 9.11770145e-12 2.43967927e-12 1.60706223e-14 6.66195156e-12 3.70926195e-13 2.44141860e-12
3.46736850e+00 9.43734933e-12 2.27721904e-12 1.14030076e-14 7.14872728e-12 3.04669141e-13 2.27846441e-12
3.98107171e+00 9.47806173e-12 2.12548364e-12 7.95812724e-15 7.34461996e-12 2.38297399e-13 2.12638671e-12
4.57088190e+00 9.32650812e-12 1.98379577e-12 5.50966391e-15 7.33720269e-12 1.76399509e-13 1.98445954e-12
5.24807460e+00 8.80078711e-12 1.64040296e-12 3.23958980e-15 7.15714456e-12 1.20929725e-13 1.64084388e-12
6.02559586e+00 8.00466823e-12 1.08385272e-12 1.44347622e-15 6.91937203e-12 7.87967343e-14 1.08409480e-12
6.70000000e+00 7.42973261e-12 7.88418859e-13 7.67420626e-16 6.64054633e-12 5.39076870e-14 7.88574724e-13
6.92422916e+00 7.28398165e-12 7.14282685e-13 6.26619253e-16 6.56907235e-12 4.74181176e-14 7.14418944e-13
7.15596261e+00 7.14656297e-12 6.47115316e-13 4.96532454e-16 6.49895112e-12 4.13276785e-14 6.47236606e-13
7.39545150e+00 7.12547629e-12 5.86259435e-13 3.78444831e-16 6.53883841e-12 3.50163431e-14 5.86371942e-13
7.64295536e+00 7.28587233e-12 5.31114722e-13 2.57327783e-16 6.75450028e-12 2.82853253e-14 5.31230854e-13
7.89874245e+00 7.75986032e-12 4.81139178e-13 1.52985969e-16 7.27856815e-12 2.11939858e-14 4.81275108e-13
8.16308998e+00 8.38380776e-12 4.35850812e-13 8.48873098e-17 7.94787206e-12 1.55152995e-14 4.36017088e-13
8.43628443e+00 9.17055009e-12 3.94805758e-13 4.53683050e-17 8.77569896e-12 1.09981595e-14 3.95015029e-13
8.71862190e+00 9.60103745e-12 3.57635767e-13 2.88160858e-17 9.24337287e-12 8.38676832e-15 3.57868711e-13
9.01040836e+00 9.98680025e-12 3.23959911e-13 1.88310836e-17 9.66282150e-12 6.40866710e-15 3.24215549e-13
9.31196005e+00 1.02263574e-11 2.93458454e-13 0.00000000e+00 9.93289897e-12 0.00000000e+00 2.93727053e-13
9.62360379e+00 1.00306941e-11 2.65855878e-13 0.00000000e+00 9.76483823e-12 0.00000000e+00 2.66105627e-13
9.94567731e+00 9.64248890e-12 2.40869348e-13 0.00000000e+00 9.40161955e-12 0.00000000e+00 2.41081657e-13
1.02785297e+01 9.15260873e-12 2.18236873e-13 0.00000000e+00 8.93437186e-12 0.00000000e+00 2.18410884e-13
1.06225216e+01 8.68567133e-12 1.97730926e-13 0.00000000e+00 8.48794040e-12 0.00000000e+00 1.97872020e-13
1.09780260e+01 8.19648812e-12 1.79154305e-13 0.00000000e+00 8.01733381e-12 0.00000000e+00 1.79264583e-13
1.13454280e+01 7.74813769e-12 1.62320410e-13 0.00000000e+00 7.58581728e-12 0.00000000e+00 1.62406948e-13
1.17251259e+01 7.41935397e-12 1.47066222e-13 0.00000000e+00 7.27228775e-12 0.00000000e+00 1.47134567e-13
1.21175312e+01 7.04185498e-12 1.33244666e-13 0.00000000e+00 6.90861032e-12 0.00000000e+00 1.33298366e-13
1.25230691e+01 6.74702789e-12 1.20721212e-13 0.00000000e+00 6.62630667e-12 0.00000000e+00 1.20763289e-13
1.29421791e+01 6.43719590e-12 1.09373783e-13 0.00000000e+00 6.32782212e-12 0.00000000e+00 1.09406983e-13
1.33753155e+01 6.17128731e-12 9.90922147e-14 0.00000000e+00 6.07219509e-12 0.00000000e+00 9.91185987e-14
1.38229477e+01 5.96921869e-12 8.97757760e-14 0.00000000e+00 5.87944291e-12 0.00000000e+00 8.97977103e-14
1.42855609e+01 5.89070033e-12 8.13342734e-14 0.00000000e+00 5.80936605e-12 0.00000000e+00 8.13533371e-14
1.47636563e+01 5.90784899e-12 7.36849608e-14 0.00000000e+00 5.83416403e-12 0.00000000e+00 7.37030537e-14
1.52577522e+01 6.01580305e-12 6.67547038e-14 0.00000000e+00 5.94904834e-12 0.00000000e+00 6.67721855e-14
1.57683840e+01 6.13534955e-12 6.04759725e-14 0.00000000e+00 6.07487358e-12 0.00000000e+00 6.04930805e-14
1.62961051e+01 6.21395068e-12 5.47877263e-14 0.00000000e+00 6.15916296e-12 0.00000000e+00 5.48044484e-14
1.68414875e+01 6.33066978e-12 4.96344541e-14 0.00000000e+00 6.28103533e-12 0.00000000e+00 4.96507622e-14
1.74051222e+01 6.36551434e-12 4.49662306e-14 0.00000000e+00 6.32054811e-12 0.00000000e+00 4.49817171e-14
1.79876201e+01 6.41668806e-12 4.07372789e-14 0.00000000e+00 6.37595078e-12 0.00000000e+00 4.07517384e-14
1.85896125e+01 6.37717855e-12 3.69064543e-14 0.00000000e+00 6.34027210e-12 0.00000000e+00 3.69195372e-14
1.92117518e+01 6.34272647e-12 3.34362159e-14 0.00000000e+00 6.30929025e-12 0.00000000e+00 3.34477076e-14
1.98547123e+01 6.19506427e-12 3.02924640e-14 0.00000000e+00 6.16477181e-12 0.00000000e+00 3.03023610e-14
2.05191907e+01 6.08268863e-12 2.74443580e-14 0.00000000e+00 6.05524427e-12 0.00000000e+00 2.74527957e-14
2.12059073e+01 5.97268976e-12 2.48640046e-14 0.00000000e+00 5.94782575e-12 0.00000000e+00 2.48711970e-14
2.19156062e+01 5.83795349e-12 2.25262052e-14 0.00000000e+00 5.81542729e-12 0.00000000e+00 2.25323660e-14
2.26490567e+01 5.71191461e-12 2.04081878e-14 0.00000000e+00 5.69150642e-12 0.00000000e+00 2.04134733e-14
2.34070535e+01 5.56798467e-12 1.84892936e-14 0.00000000e+00 5.54949537e-12 0.00000000e+00 1.84938366e-14
2.41904183e+01 5.42064458e-12 1.67508034e-14 0.00000000e+00 5.40389378e-12 0.00000000e+00 1.67547181e-14
2.50000000e+01 5.24769263e-12 1.51757618e-14 0.00000000e+00 5.23251687e-12 0.00000000e+00 1.51791424e-14
2.75422870e+01 4.77745091e-12 1.13496615e-14 0.00000000e+00 4.76610125e-12 0.00000000e+00 1.13518661e-14
3.16227766e+01 4.01097302e-12 7.49889229e-15 0.00000000e+00 4.00347413e-12 0.00000000e+00 7.50010357e-15
3.63078055e+01 3.15470427e-12 4.95460729e-15 0.00000000e+00 3.14974966e-12 0.00000000e+00 4.95526929e-15
4.16869383e+01 2.31601592e-12 3.27356173e-15 0.00000000e+00 2.31274236e-12 0.00000000e+00 3.27391395e-15
4.78630092e+01 1.58684046e-12 2.16287192e-15 0.00000000e+00 1.58467759e-12 0.00000000e+00 2.16305350e-15
5.49540874e+01 1.02306016e-12 1.42902365e-15 0.00000000e+00 1.02163114e-12 0.00000000e+00 1.42911527e-15
6.30957344e+01 6.27707757e-13 9.44161458e-16 0.00000000e+00 6.26763595e-13 0.00000000e+00 9.44207098e-16
7.24435960e+01 3.70683465e-13 6.23808871e-16 0.00000000e+00 3.70059656e-13 0.00000000e+00 6.23831443e-16
8.31763771e+01 2.12415502e-13 4.12150201e-16 0.00000000e+00 2.12003351e-13 0.00000000e+00 4.12161347e-16
9.54992586e+01 1.19167212e-13 2.72306785e-16 0.00000000e+00 1.18894905e-13 0.00000000e+00 2.72312302e-16
1.09647820e+02 6.57770819e-14 1.79912213e-16 0.00000000e+00 6.55971697e-14 0.00000000e+00 1.79914953e-16
1.25892541e+02 3.62690581e-14 1.18867250e-16 0.00000000e+00 3.61501909e-14 0.00000000e+00 1.18868631e-16
1.44543977e+02 1.98896691e-14 7.85350242e-17 0.00000000e+00 1.98111341e-14 0.00000000e+00 7.85357256e-17
1.65958691e+02 1.03963831e-14 5.18876954e-17 0.00000000e+00 1.03444954e-14 0.00000000e+00 5.18880394e-17
1.90546072e+02 5.43983401e-15 3.42819173e-17 0.00000000e+00 5.40555209e-15 0.00000000e+00 3.42820876e-17
2.18776162e+02 2.84242097e-15 2.26498658e-17 0.00000000e+00 2.81977111e-15 0.00000000e+00 2.26499507e-17
2.51188643e+02 1.48080202e-15 1.49646316e-17 0.00000000e+00 1.46583739e-15 0.00000000e+00 1.49646740e-17
2.88403150e+02 7.68442297e-16 9.88704086e-18 0.00000000e+00 7.58555256e-16 0.00000000e+00 9.88706207e-18
3.31131121e+02 3.97989857e-16 6.53230650e-18 0.00000000e+00 3.91457551e-16 0.00000000e+00 6.53231713e-18
3.80189396e+02 2.05572399e-16 4.31585380e-18 0.00000000e+00 2.01256545e-16 0.00000000e+00 4.31585913e-18
4.36515832e+02 1.06067914e-16 2.85145717e-18 0.00000000e+00 1.03216457e-16 0.00000000e+00 2.85145985e-18
5.01187234e+02 5.46766047e-17 1.88393950e-18 0.00000000e+00 5.27926652e-17 0.00000000e+00 1.88394084e-18
5.75439937e+02 2.81865531e-17 1.24470669e-18 0.00000000e+00 2.69418464e-17 0.00000000e+00 1.24470737e-18
6.60693448e+02 1.45455199e-17 8.22369665e-19 0.00000000e+00 1.37231503e-17 0.00000000e+00 8.22370004e-19
7.58577575e+02 7.52177462e-18 5.43334303e-19 0.00000000e+00 6.97844032e-18 0.00000000e+00 5.43334473e-19
8.70963590e+02 3.90155976e-18 3.58977441e-19 0.00000000e+00 3.54258232e-18 0.00000000e+00 3.58977527e-19
1.00000000e+03 1.79550751e-18 0.00000000e+00 0.00000000e+00 1.79550751e-18 0.00000000e+00 0.00000000e+00
