# column 1: lambda (micron)
# column 2: total flux; lambda*F_lambda (W/m2)
# column 3: direct stellar flux; lambda*F_lambda (W/m2)
# column 4: scattered stellar flux; lambda*F_lambda (W/m2)
# column 5: total dust emission flux; lambda*F_lambda (W/m2)
# column 6: dust emission scattered flux; lambda*F_lambda (W/m2)
# column 7: transparent flux; lambda*F_lambda (W/m2)
1.00000000e-03 5.25637743e-13 5.25636674e-13 1.06894495e-18 0.00000000e+00 0.00000000e+00 5.25636674e-13
1.14815362e-03 6.20421629e-13 6.20419813e-13 1.81645096e-18 0.00000000e+00 0.00000000e+00 6.20419813e-13
1.31825674e-03 7.32296806e-13 7.32294308e-13 2.49778845e-18 0.00000000e+00 0.00000000e+00 7.32294308e-13
1.51356125e-03 8.64346395e-13 8.64342083e-13 4.31195266e-18 0.00000000e+00 0.00000000e+00 8.64342083e-13
1.73780083e-03 1.02020806e-12 1.02020080e-12 7.26812307e-18 0.00000000e+00 0.00000000e+00 1.02020080e-12
1.99526231e-03 1.20417755e-12 1.20416405e-12 1.35014376e-17 0.00000000e+00 0.00000000e+00 1.20416405e-12
2.29086765e-03 1.42132049e-12 1.42129968e-12 2.08122167e-17 0.00000000e+00 0.00000000e+00 1.42129968e-12
2.63026799e-03 1.67763175e-12 1.67758934e-12 4.24121310e-17 0.00000000e+00 0.00000000e+00 1.67758934e-12
3.01995172e-03 1.98016610e-12 1.98009332e-12 7.27794171e-17 0.00000000e+00 0.00000000e+00 1.98009332e-12
3.46736850e-03 2.33726667e-12 2.33714500e-12 1.21664266e-16 0.00000000e+00 0.00000000e+00 2.33714500e-12
3.98107171e-03 2.75875410e-12 2.75858048e-12 1.73624374e-16 0.00000000e+00 0.00000000e+00 2.75858048e-12
4.57088190e-03 3.25643361e-12 3.25600946e-12 4.24148060e-16 0.00000000e+00 0.00000000e+00 3.25600946e-12
5.24807460e-03 3.84391082e-12 3.84313516e-12 7.75663528e-16 0.00000000e+00 0.00000000e+00 3.84313516e-12
6.02559586e-03 4.53760650e-12 4.53613173e-12 1.47476850e-15 0.00000000e+00 0.00000000e+00 4.53613173e-12
6.91830971e-03 5.35626362e-12 5.35408989e-12 2.17372621e-15 0.00000000e+00 0.00000000e+00 5.35408989e-12
7.94328235e-03 6.32308447e-12 6.31954278e-12 3.54168187e-15 0.00000000e+00 0.00000000e+00 6.31954278e-12
9.12010839e-03 7.46524898e-12 7.45908676e-12 6.16222293e-15 0.00000000e+00 0.00000000e+00 7.45908676e-12
1.04712855e-02 8.33986672e-12 8.33078048e-12 9.08624554e-15 0.00000000e+00 0.00000000e+00 8.33078048e-12
1.20226443e-02 8.34816869e-12 8.33078048e-12 1.73882146e-14 1.78002919e-311 2.16283966e-313 8.33078048e-12
1.38038426e-02 8.34786664e-12 8.33078048e-12 1.70861687e-14 4.57683706e-272 8.47857611e-274 8.33078048e-12
1.58489319e-02 8.35691027e-12 8.33078048e-12 2.61297936e-14 9.21319218e-238 1.37212579e-239 8.33078048e-12
1.81970086e-02 8.36386383e-12 8.33078048e-12 3.30833572e-14 6.56309775e-208 1.18941340e-209 8.33078048e-12
2.08929613e-02 8.37771653e-12 8.33078048e-12 4.69360498e-14 5.93299365e-182 1.51529295e-183 8.33078048e-12
2.39883292e-02 8.39263460e-12 8.33078048e-12 6.18541226e-14 2.30165263e-159 7.27644323e-161 8.33078048e-12
2.75422870e-02 8.40774816e-12 8.33078048e-12 7.69676868e-14 1.04789998e-139 4.06384754e-141 8.33078048e-12
3.16227766e-02 8.41915025e-12 8.33078048e-12 8.83697699e-14 1.28678367e-122 5.57996125e-124 8.33078048e-12
3.63078055e-02 8.43385019e-12 8.33078048e-12 1.03069713e-13 9.27487522e-108 4.57457480e-109 8.33078048e-12
4.16869383e-02 8.45577718e-12 8.33078048e-12 1.24996701e-13 7.53997460e-95 4.87555213e-96 8.33078048e-12
4.78630092e-02 8.47296793e-12 8.33078048e-12 1.42187458e-13 1.23816608e-83 1.00571152e-84 8.33078048e-12
5.49540874e-02 8.48418638e-12 8.33078048e-12 1.53405902e-13 6.71105011e-74 6.32805410e-75 8.33078048e-12
6.30957344e-02 8.47485095e-12 8.33078048e-12 1.44070475e-13 2.50917514e-65 2.64849147e-66 8.33078048e-12
7.24435960e-02 8.45238855e-12 8.33078048e-12 1.21608072e-13 6.69820520e-58 6.73757120e-59 8.33078048e-12
8.31763771e-02 8.44931413e-12 8.33078048e-12 1.18533654e-13 1.47585228e-51 1.48807753e-52 8.33078048e-12
9.54992586e-02 8.45445472e-12 8.33078048e-12 1.23674245e-13 4.69578420e-46 5.07270164e-47 8.33078048e-12
1.09647820e-01 8.09189620e-12 7.95583672e-12 1.36059485e-13 2.74960007e-41 3.45283800e-42 7.95583672e-12
1.25892541e-01 7.55392830e-12 7.42481883e-12 1.29109464e-13 4.07674367e-37 5.54497776e-38 7.42481883e-12
1.44543977e-01 7.05732504e-12 6.92924411e-12 1.28080932e-13 1.82844344e-33 2.64095081e-34 6.92924411e-12
1.65958691e-01 6.59096404e-12 6.46674687e-12 1.24217170e-13 2.20245543e-30 3.65230796e-31 6.46674687e-12
1.90546072e-01 6.16609797e-12 6.03511933e-12 1.30978641e-13 7.76604442e-28 1.51761124e-28 6.03511933e-12
2.18776162e-01 5.75139912e-12 5.63230107e-12 1.19098052e-13 1.09205691e-25 2.26507799e-26 5.63230107e-12
2.51188643e-01 5.38771131e-12 5.25636919e-12 1.31342112e-13 1.33509074e-23 3.28941490e-24 5.25636919e-12
2.88403150e-01 5.03837267e-12 4.90552916e-12 1.32843517e-13 8.38259467e-22 2.06135562e-22 4.90552916e-12
3.31131121e-01 4.69420973e-12 4.57810618e-12 1.16103522e-13 2.89905615e-20 7.08217624e-21 4.57810618e-12
3.80189396e-01 4.38238631e-12 4.27253728e-12 1.09848426e-13 5.98024687e-19 1.43763590e-19 4.27253728e-12
4.36515832e-01 4.08719494e-12 3.98736380e-12 9.98231677e-14 7.97212136e-18 1.91021776e-18 3.98736380e-12
5.01187234e-01 3.81088023e-12 3.72122441e-12 8.95842604e-14 7.15541450e-17 1.70023818e-17 3.72122441e-12
5.75439937e-01 3.55737422e-12 3.47284869e-12 8.40651564e-14 4.60377309e-16 1.07565145e-16 3.47284869e-12
6.60693448e-01 3.31968310e-12 3.24105097e-12 7.64272873e-14 2.20483884e-15 5.05278784e-16 3.24105097e-12
7.58577575e-01 3.10249408e-12 3.02472476e-12 6.94726787e-14 8.29664535e-15 1.84242767e-15 3.02472476e-12
8.70963590e-01 2.91034882e-12 2.82283739e-12 6.20576135e-14 2.54538186e-14 5.31662569e-15 2.82283739e-12
1.00000000e+00 2.75215176e-12 2.63442513e-12 5.27536181e-14 6.49730096e-14 1.25997525e-14 2.63442513e-12
1.14815362e+00 2.64739748e-12 2.45858859e-12 4.42737426e-14 1.44535151e-13 2.54797542e-14 2.45858859e-12
1.31825674e+00 2.61741252e-12 2.29448837e-12 3.61494425e-14 2.86774707e-13 4.42047501e-14 2.29448837e-12
1.51356125e+00 2.67706978e-12 2.14134114e-12 2.83080075e-14 5.07420628e-13 6.69967366e-14 2.14134114e-12
1.73780083e+00 2.81860563e-12 1.99841583e-12 2.19099695e-14 7.98279826e-13 8.67407297e-14 1.99841583e-12
1.99526231e+00 3.00315050e-12 1.86503017e-12 1.57987717e-14 1.12232156e-12 9.69519888e-14 1.86503017e-12
2.29086765e+00 3.18059357e-12 1.74054743e-12 1.13874013e-14 1.42865874e-12 9.41846972e-14 1.74054743e-12
2.63026799e+00 3.30116801e-12 1.62437337e-12 8.03650668e-15 1.66875813e-12 8.25735631e-14 1.62437337e-12
3.01995172e+00 3.33893746e-12 1.51595343e-12 5.55846134e-15 1.81742557e-12 6.70431520e-14 1.51595343e-12
3.46736850e+00 3.27486578e-12 1.41477006e-12 3.78797615e-15 1.85630774e-12 5.09072418e-14 1.41477006e-12
3.98107171e+00 3.13564962e-12 1.32034025e-12 2.57076748e-15 1.81273861e-12 3.65136086e-14 1.32034025e-12
4.57088190e+00 2.93104699e-12 1.23221321e-12 1.65612855e-15 1.69717765e-12 2.43363035e-14 1.23221321e-12
5.24807460e+00 2.56776052e-12 1.01885146e-12 9.59528679e-16 1.54794953e-12 1.54438019e-14 1.01885146e-12
6.02559586e+00 2.07261605e-12 6.73148485e-13 4.18000594e-16 1.39904957e-12 9.26560038e-15 6.73148485e-13
6.70000000e+00 1.77222257e-12 4.89650796e-13 2.15982261e-16 1.28235579e-12 6.04925631e-15 4.89650796e-13
6.92422916e+00 1.68565140e-12 4.43605145e-13 1.71955272e-16 1.24187430e-12 5.22210413e-15 4.43605145e-13
7.15596261e+00 1.62108113e-12 4.01889522e-13 1.36279623e-16 1.21905533e-12 4.47726007e-15 4.01889522e-13
7.39545150e+00 1.58638822e-12 3.64096743e-13 1.05996336e-16 1.22218548e-12 3.79131771e-15 3.64096743e-13
7.64295536e+00 1.63617941e-12 3.29857910e-13 7.08228452e-17 1.30625067e-12 3.16612498e-15 3.29857910e-13
7.89874245e+00 1.80187396e-12 2.98838820e-13 4.45838583e-17 1.50299055e-12 2.54194062e-15 2.98838820e-13
8.16308998e+00 2.04236089e-12 2.70736695e-13 2.65843865e-17 1.77159761e-12 2.01466282e-15 2.70736695e-13
8.43628443e+00 2.37377244e-12 2.45277229e-13 1.45391609e-17 2.12848067e-12 1.51746426e-15 2.45277229e-13
8.71862190e+00 2.57897855e-12 2.22211915e-13 9.35972658e-18 2.35675728e-12 1.19613048e-15 2.22211915e-13
9.01040836e+00 2.77727533e-12 2.01315610e-13 5.90603640e-18 2.57595382e-12 9.06540442e-16 2.01315610e-13
9.31196005e+00 2.92210664e-12 1.82384346e-13 0.00000000e+00 2.73972229e-12 0.00000000e+00 1.82384346e-13
9.62360379e+00 2.86154681e-12 1.65233336e-13 0.00000000e+00 2.69631347e-12 0.00000000e+00 1.65233336e-13
9.94567731e+00 2.66302444e-12 1.49695167e-13 0.00000000e+00 2.51332928e-12 0.00000000e+00 1.49695167e-13
1.02785297e+01 2.42908511e-12 1.35618173e-13 0.00000000e+00 2.29346694e-12 0.00000000e+00 1.35618173e-13
1.06225216e+01 2.21838632e-12 1.22864947e-13 0.00000000e+00 2.09552137e-12 0.00000000e+00 1.22864947e-13
1.09780260e+01 1.98527413e-12 1.11311006e-13 0.00000000e+00 1.87396312e-12 0.00000000e+00 1.11311006e-13
1.13454280e+01 1.77932425e-12 1.00843571e-13 0.00000000e+00 1.67848068e-12 0.00000000e+00 1.00843571e-13
1.17251259e+01 1.60779935e-12 9.13604705e-14 0.00000000e+00 1.51643888e-12 0.00000000e+00 9.13604705e-14
1.21175312e+01 1.45962183e-12 8.27691389e-14 0.00000000e+00 1.37685269e-12 0.00000000e+00 8.27691389e-14
1.25230691e+01 1.32149145e-12 7.49857166e-14 0.00000000e+00 1.24650573e-12 0.00000000e+00 7.49857166e-14
1.29421791e+01 1.20543584e-12 6.79342298e-14 0.00000000e+00 1.13750161e-12 0.00000000e+00 6.79342298e-14
1.33753155e+01 1.10145184e-12 6.15458488e-14 0.00000000e+00 1.03990599e-12 0.00000000e+00 6.15458488e-14
1.38229477e+01 1.03457463e-12 5.57582167e-14 0.00000000e+00 9.78816410e-13 0.00000000e+00 5.57582167e-14
1.42855609e+01 9.97820907e-13 5.05148403e-14 0.00000000e+00 9.47306066e-13 0.00000000e+00 5.05148403e-14
1.47636563e+01 9.99983619e-13 4.57645392e-14 0.00000000e+00 9.54219080e-13 0.00000000e+00 4.57645392e-14
1.52577522e+01 1.01735338e-12 4.14609457e-14 0.00000000e+00 9.75892432e-13 0.00000000e+00 4.14609457e-14
1.57683840e+01 1.04051250e-12 3.75620523e-14 0.00000000e+00 1.00295045e-12 0.00000000e+00 3.75620523e-14
1.62961051e+01 1.06165851e-12 3.40298020e-14 0.00000000e+00 1.02762871e-12 0.00000000e+00 3.40298020e-14
1.68414875e+01 1.08847505e-12 3.08297166e-14 0.00000000e+00 1.05764534e-12 0.00000000e+00 3.08297166e-14
1.74051222e+01 1.09776545e-12 2.79305599e-14 0.00000000e+00 1.06983489e-12 0.00000000e+00 2.79305599e-14
1.79876201e+01 1.10026476e-12 2.53040334e-14 0.00000000e+00 1.07496073e-12 0.00000000e+00 2.53040334e-14
1.85896125e+01 1.09210677e-12 2.29244994e-14 0.00000000e+00 1.06918227e-12 0.00000000e+00 2.29244994e-14
1.92117518e+01 1.06799801e-12 2.07687314e-14 0.00000000e+00 1.04722928e-12 0.00000000e+00 2.07687314e-14
1.98547123e+01 1.03699076e-12 1.88156870e-14 0.00000000e+00 1.01817507e-12 0.00000000e+00 1.88156870e-14
2.05191907e+01 1.00400470e-12 1.70463024e-14 0.00000000e+00 9.86958398e-13 0.00000000e+00 1.70463024e-14
2.12059073e+01 9.76331047e-13 1.54433068e-14 0.00000000e+00 9.60887740e-13 0.00000000e+00 1.54433068e-14
2.19156062e+01 9.49986077e-13 1.39910532e-14 0.00000000e+00 9.35995024e-13 0.00000000e+00 1.39910532e-14
2.26490567e+01 9.26883532e-13 1.26753663e-14 0.00000000e+00 9.14208165e-13 0.00000000e+00 1.26753663e-14
2.34070535e+01 9.01298327e-13 1.14834036e-14 0.00000000e+00 8.89814924e-13 0.00000000e+00 1.14834036e-14
2.41904183e+01 8.81042709e-13 1.04035303e-14 0.00000000e+00 8.70639178e-13 0.00000000e+00 1.04035303e-14
2.50000000e+01 8.60942101e-13 9.42520591e-15 0.00000000e+00 8.51516895e-13 0.00000000e+00 9.42520591e-15
2.75422870e+01 8.01718042e-13 7.04872996e-15 0.00000000e+00 7.94669312e-13 0.00000000e+00 7.04872996e-15
3.16227766e+01 7.10065855e-13 4.65704970e-15 0.00000000e+00 7.05408805e-13 0.00000000e+00 4.65704970e-15
3.63078055e+01 5.99941058e-13 3.07688223e-15 0.00000000e+00 5.96864176e-13 0.00000000e+00 3.07688223e-15
4.16869383e+01 4.77223489e-13 2.03287593e-15 0.00000000e+00 4.75190613e-13 0.00000000e+00 2.03287593e-15
4.78630092e+01 3.54714416e-13 1.34310781e-15 0.00000000e+00 3.53371308e-13 0.00000000e+00 1.34310781e-15
5.49540874e+01 2.49177828e-13 8.87382527e-16 0.00000000e+00 2.48290446e-13 0.00000000e+00 8.87382527e-16
6.30957344e+01 1.66344601e-13 5.86287821e-16 0.00000000e+00 1.65758313e-13 0.00000000e+00 5.86287821e-16
7.24435960e+01 1.06504705e-13 3.87356522e-16 0.00000000e+00 1.06117349e-13 0.00000000e+00 3.87356522e-16
8.31763771e+01 6.58214748e-14 2.55923916e-16 0.00000000e+00 6.55655508e-14 0.00000000e+00 2.55923916e-16
9.54992586e+01 3.96070203e-14 1.69087255e-16 0.00000000e+00 3.94379330e-14 0.00000000e+00 1.69087255e-16
1.09647820e+02 2.32871851e-14 1.11714841e-16 0.00000000e+00 2.31754702e-14 0.00000000e+00 1.11714841e-16
1.25892541e+02 1.35830147e-14 7.38092637e-17 0.00000000e+00 1.35092054e-14 0.00000000e+00 7.38092637e-17
1.44543977e+02 7.82249011e-15 4.87652969e-17 0.00000000e+00 7.77372481e-15 0.00000000e+00 4.87652969e-17
1.65958691e+02 4.27229744e-15 3.22189122e-17 0.00000000e+00 4.24007852e-15 0.00000000e+00 3.22189122e-17
1.90546072e+02 2.32211701e-15 2.12868242e-17 0.00000000e+00 2.30083018e-15 0.00000000e+00 2.12868242e-17
2.18776162e+02 1.25428750e-15 1.40640653e-17 0.00000000e+00 1.24022343e-15 0.00000000e+00 1.40640653e-17
2.51188643e+02 6.72617804e-16 9.29203577e-18 0.00000000e+00 6.63325768e-16 0.00000000e+00 9.29203577e-18
2.88403150e+02 3.57908655e-16 6.13918715e-18 0.00000000e+00 3.51769468e-16 0.00000000e+00 6.13918715e-18
3.31131121e+02 1.89482485e-16 4.05612073e-18 0.00000000e+00 1.85426364e-16 0.00000000e+00 4.05612073e-18
3.80189396e+02 9.97745818e-17 2.67985239e-18 0.00000000e+00 9.70947294e-17 0.00000000e+00 2.67985239e-18
4.36515832e+02 5.23610463e-17 1.77056092e-18 0.00000000e+00 5.05904854e-17 0.00000000e+00 1.77056092e-18
5.01187234e+02 2.74016513e-17 1.16979800e-18 0.00000000e+00 2.62318533e-17 0.00000000e+00 1.16979800e-18
5.75439937e+02 1.43194407e-17 7.72877871e-19 0.00000000e+00 1.35465628e-17 0.00000000e+00 7.72877871e-19
6.60693448e+02 7.48167196e-18 5.10635346e-19 0.00000000e+00 6.97103662e-18 0.00000000e+00 5.10635346e-19
7.58577575e+02 3.91377553e-18 3.37373427e-19 0.00000000e+00 3.57640210e-18 0.00000000e+00 3.37373427e-19
8.70963590e+02 2.05243229e-18 2.22900413e-19 0.00000000e+00 1.82953188e-18 0.00000000e+00 2.22900413e-19
1.00000000e+03 9.33455918e-19 0.00000000e+00 0.00000000e+00 9.33455918e-19 0.00000000e+00 0.00000000e+00
