# column 1: lambda (micron)
# column 2: total flux; lambda*F_lambda (W/m2)
# column 3: direct stellar flux; lambda*F_lambda (W/m2)
# column 4: scattered stellar flux; lambda*F_lambda (W/m2)
# column 5: total dust emission flux; lambda*F_lambda (W/m2)
# column 6: dust emission scattered flux; lambda*F_lambda (W/m2)
# column 7: transparent flux; lambda*F_lambda (W/m2)
1.00000000e-03 1.04603770e-12 1.04603624e-12 1.46178114e-18 0.00000000e+00 0.00000000e+00 1.04634360e-12
1.14815362e-03 1.23454396e-12 1.23454167e-12 2.28667822e-18 0.00000000e+00 0.00000000e+00 1.23502095e-12
1.31825674e-03 1.45700506e-12 1.45700151e-12 3.54767092e-18 0.00000000e+00 0.00000000e+00 1.45772071e-12
1.51356125e-03 1.71958249e-12 1.71957707e-12 5.42117589e-18 0.00000000e+00 0.00000000e+00 1.72057784e-12
1.73780083e-03 2.02964976e-12 2.02964009e-12 9.66876475e-18 0.00000000e+00 0.00000000e+00 2.03083353e-12
1.99526231e-03 2.39518503e-12 2.39516728e-12 1.77451724e-17 0.00000000e+00 0.00000000e+00 2.39703472e-12
2.29086765e-03 2.82695929e-12 2.82693224e-12 2.70482357e-17 0.00000000e+00 0.00000000e+00 2.82926954e-12
2.63026799e-03 3.33619324e-12 3.33613951e-12 5.37283851e-17 0.00000000e+00 0.00000000e+00 3.33944522e-12
3.01995172e-03 3.93688255e-12 3.93679100e-12 9.15555255e-17 0.00000000e+00 0.00000000e+00 3.94161611e-12
3.46736850e-03 4.64580952e-12 4.64565883e-12 1.50693330e-16 0.00000000e+00 0.00000000e+00 4.65237083e-12
3.98107171e-03 5.48245973e-12 5.48222187e-12 2.37856031e-16 0.00000000e+00 0.00000000e+00 5.49128930e-12
4.57088190e-03 6.47487976e-12 6.47434107e-12 5.38690741e-16 0.00000000e+00 0.00000000e+00 6.48148207e-12
5.24807460e-03 7.64040293e-12 7.63946326e-12 9.39668672e-16 0.00000000e+00 0.00000000e+00 7.65022704e-12
6.02559586e-03 9.01616137e-12 9.01440437e-12 1.75699167e-15 0.00000000e+00 0.00000000e+00 9.02972084e-12
6.91830971e-03 1.06491897e-11 1.06371038e-11 1.20859530e-14 0.00000000e+00 0.00000000e+00 1.06579658e-11
7.94328235e-03 1.25594781e-11 1.25523481e-11 7.12997498e-15 0.00000000e+00 0.00000000e+00 1.25798170e-11
9.12010839e-03 1.48264934e-11 1.48122432e-11 1.42501640e-14 0.00000000e+00 0.00000000e+00 1.48482176e-11
1.04712855e-02 1.65643129e-11 1.65406888e-11 2.36241545e-14 0.00000000e+00 0.00000000e+00 1.65834298e-11
1.20226443e-02 1.65635305e-11 1.65381697e-11 2.53608227e-14 4.45920800e-311 1.71003717e-313 1.65834298e-11
1.38038426e-02 1.65699658e-11 1.65351824e-11 3.47834035e-14 8.30118448e-272 5.64462975e-274 1.65834298e-11
1.58489319e-02 1.65786928e-11 1.65315118e-11 4.71809412e-14 1.25605992e-237 9.90958312e-240 1.65834298e-11
1.81970086e-02 1.65843194e-11 1.65281272e-11 5.61922065e-14 7.00311738e-208 7.90374268e-210 1.65834298e-11
2.08929613e-02 1.65976896e-11 1.65253143e-11 7.23753020e-14 5.05946668e-182 7.63424981e-184 1.65834298e-11
2.39883292e-02 1.66153561e-11 1.65216705e-11 9.36856018e-14 1.62731860e-159 3.40443974e-161 1.65834298e-11
2.75422870e-02 1.66381286e-11 1.65174332e-11 1.20695478e-13 6.27280432e-140 1.70419049e-141 1.65834298e-11
3.16227766e-02 1.66559915e-11 1.65132807e-11 1.42710800e-13 6.70905392e-123 2.21063432e-124 1.65834298e-11
3.63078055e-02 1.66746626e-11 1.65100244e-11 1.64638198e-13 4.24524571e-108 1.64902242e-109 1.65834298e-11
4.16869383e-02 1.67334326e-11 1.65072085e-11 2.26224153e-13 3.11046654e-95 1.69597391e-96 1.65834298e-11
4.78630092e-02 1.67883106e-11 1.64994490e-11 2.88861614e-13 4.65512459e-84 3.41030699e-85 1.65834298e-11
5.49540874e-02 1.68493299e-11 1.64886640e-11 3.60665986e-13 2.34300319e-74 2.13363265e-75 1.65834298e-11
6.30957344e-02 1.68709146e-11 1.64616515e-11 4.09263047e-13 8.20595848e-66 9.11037044e-67 1.65834298e-11
7.24435960e-02 1.68143433e-11 1.64297122e-11 3.84631103e-13 2.08607063e-58 2.31956475e-59 1.65834298e-11
8.31763771e-02 1.68137178e-11 1.64325519e-11 3.81165980e-13 4.41902297e-52 5.05687444e-53 1.65834298e-11
9.54992586e-02 1.68343386e-11 1.64408831e-11 3.93455501e-13 1.44058642e-46 1.85567098e-47 1.65834298e-11
1.09647820e-01 1.61420938e-11 1.57238853e-11 4.18208514e-13 9.50964268e-42 1.49936653e-42 1.58370587e-11
1.25892541e-01 1.50747752e-11 1.46930070e-11 3.81768242e-13 1.76972025e-37 3.10219503e-38 1.47800032e-11
1.44543977e-01 1.40734163e-11 1.37261733e-11 3.47242980e-13 1.01049146e-33 1.86551750e-34 1.37935015e-11
1.65958691e-01 1.31876098e-11 1.28178760e-11 3.69733793e-13 1.50823777e-30 3.14195086e-31 1.28728446e-11
1.90546072e-01 1.23597395e-11 1.19589164e-11 4.00823166e-13 6.37311326e-28 1.57611632e-28 1.20136376e-11
2.18776162e-01 1.15422072e-11 1.11518974e-11 3.90309842e-13 1.03253911e-25 2.74926812e-26 1.12117790e-11
2.51188643e-01 1.08747578e-11 1.04187237e-11 4.56034037e-13 1.47472485e-23 4.66104393e-24 1.04634409e-11
2.88403150e-01 1.01564657e-11 9.73039066e-12 4.26075054e-13 1.06062382e-21 3.38569516e-22 9.76505125e-12
3.31131121e-01 9.47376123e-12 9.08507193e-12 3.88689258e-13 4.13000494e-20 1.31394344e-20 9.11327608e-12
3.80189396e-01 8.83666286e-12 8.48188531e-12 3.54776593e-13 9.55817017e-19 3.06806307e-19 8.50500410e-12
4.36515832e-01 8.24684539e-12 7.91855068e-12 3.28280599e-13 1.41094511e-17 4.56005822e-18 7.93733165e-12
5.01187234e-01 7.69743311e-12 7.39249840e-12 3.04794988e-13 1.39729806e-16 4.51384817e-17 7.40754890e-12
5.75439937e-01 7.17802583e-12 6.90119035e-12 2.75853818e-13 9.81661549e-16 3.15128064e-16 6.91312687e-12
6.60693448e-01 6.70242988e-12 6.44232055e-12 2.55053976e-13 5.05535485e-15 1.59338406e-15 6.45170538e-12
7.58577575e-01 6.26776606e-12 6.01379292e-12 2.33630277e-13 2.03428626e-14 6.27517205e-15 6.02108180e-12
8.70963590e-01 5.88546808e-12 5.61366491e-12 2.06160539e-13 6.56426275e-14 1.92443837e-14 5.61920048e-12
1.00000000e+00 5.58769894e-12 5.24000695e-12 1.72622812e-13 1.75069179e-13 4.77035719e-14 5.24414302e-12
1.14815362e+00 5.43931208e-12 4.89108358e-12 1.43464270e-13 4.04764234e-13 9.98454269e-14 4.89411902e-12
1.31825674e+00 5.50629395e-12 4.56526865e-12 1.11649281e-13 8.29376017e-13 1.78790451e-13 4.56745763e-12
1.51356125e+00 5.85155953e-12 4.26103688e-12 8.63598751e-14 1.50416277e-12 2.75768329e-13 4.26259947e-12
1.73780083e+00 6.46972919e-12 3.97699199e-12 6.47890681e-14 2.42794813e-12 3.68976943e-13 3.97808929e-12
1.99526231e+00 7.25819371e-12 3.71181047e-12 4.84386604e-14 3.49794458e-12 4.25505605e-13 3.71256894e-12
2.29086765e+00 8.05770747e-12 3.46424830e-12 3.40008356e-14 4.55945833e-12 4.27505747e-13 3.46477093e-12
2.63026799e+00 8.71815928e-12 3.23314887e-12 2.44410276e-14 5.46056937e-12 3.93319858e-13 3.23351237e-12
3.01995172e+00 9.15621611e-12 3.01743326e-12 1.70281024e-14 6.12175474e-12 3.29154925e-13 3.01768933e-12
3.46736850e+00 9.29939313e-12 2.81608821e-12 1.17794719e-14 6.47152545e-12 2.58170733e-13 2.81627154e-12
3.98107171e+00 9.15235511e-12 2.62816460e-12 8.03984829e-15 6.51615066e-12 1.88990217e-13 2.62829753e-12
4.57088190e+00 8.77800262e-12 2.45277227e-12 5.38870437e-15 6.31984165e-12 1.31480026e-13 2.45286997e-12
5.24807460e+00 8.04855791e-12 2.02808261e-12 3.06163039e-15 6.01741367e-12 8.54129428e-14 2.02814751e-12
6.02559586e+00 7.01409119e-12 1.33994814e-12 1.33494021e-15 5.67280811e-12 5.28899686e-14 1.33998377e-12
6.70000000e+00 6.33550156e-12 9.74686405e-13 6.89365075e-16 5.36012579e-12 3.52024298e-14 9.74709347e-13
6.92422916e+00 6.15403876e-12 8.83029833e-13 5.51067291e-16 5.27045786e-12 3.07374843e-14 8.83049889e-13
7.15596261e+00 6.01232504e-12 7.99992026e-13 4.38333169e-16 5.21189468e-12 2.66820283e-14 8.00009879e-13
7.39545150e+00 5.97905066e-12 7.24762203e-13 3.33254981e-16 5.25395520e-12 2.27403404e-14 7.24778763e-13
7.64295536e+00 6.17818471e-12 6.56605117e-13 2.30705613e-16 5.52134888e-12 1.87754642e-14 6.56622211e-13
7.89874245e+00 6.74054796e-12 5.94854938e-13 1.41591902e-16 6.14555143e-12 1.47167379e-14 5.94874946e-13
8.16308998e+00 7.53320642e-12 5.38909778e-13 8.27237262e-17 6.99421392e-12 1.13728123e-14 5.38934254e-13
8.43628443e+00 8.59256781e-12 4.88223291e-13 4.58607850e-17 8.10429865e-12 8.46560490e-15 4.88254098e-13
8.71862190e+00 9.24470094e-12 4.42305496e-13 2.89609804e-17 8.80236649e-12 6.69091968e-15 4.42339790e-13
9.01040836e+00 9.90036396e-12 4.00705521e-13 1.82992674e-17 9.49964014e-12 5.20564058e-15 4.00743158e-13
9.31196005e+00 1.03931981e-11 3.63018632e-13 0.00000000e+00 1.00301794e-11 0.00000000e+00 3.63058180e-13
9.62360379e+00 1.02696840e-11 3.28880239e-13 0.00000000e+00 9.94080377e-12 0.00000000e+00 3.28917012e-13
9.94567731e+00 9.71645333e-12 2.97955142e-13 0.00000000e+00 9.41849819e-12 0.00000000e+00 2.97986401e-13
1.02785297e+01 9.11420811e-12 2.69938816e-13 0.00000000e+00 8.84426929e-12 0.00000000e+00 2.69964435e-13
1.06225216e+01 8.52858932e-12 2.44556819e-13 0.00000000e+00 8.28403250e-12 0.00000000e+00 2.44577592e-13
1.09780260e+01 7.84563224e-12 2.21561834e-13 0.00000000e+00 7.62407041e-12 0.00000000e+00 2.21578069e-13
1.13454280e+01 7.27437344e-12 2.00728630e-13 0.00000000e+00 7.07364481e-12 0.00000000e+00 2.00741370e-13
1.17251259e+01 6.77826804e-12 1.81854046e-13 0.00000000e+00 6.59641399e-12 0.00000000e+00 1.81864106e-13
1.21175312e+01 6.36234209e-12 1.64754113e-13 0.00000000e+00 6.19758798e-12 0.00000000e+00 1.64762018e-13
1.25230691e+01 5.96913994e-12 1.49261978e-13 0.00000000e+00 5.81987796e-12 0.00000000e+00 1.49268171e-13
1.29421791e+01 5.62400963e-12 1.35226444e-13 0.00000000e+00 5.48878319e-12 0.00000000e+00 1.35231331e-13
1.33753155e+01 5.32963079e-12 1.22510599e-13 0.00000000e+00 5.20712019e-12 0.00000000e+00 1.22514483e-13
1.38229477e+01 5.14702293e-12 1.10990270e-13 0.00000000e+00 5.03603266e-12 0.00000000e+00 1.10993499e-13
1.42855609e+01 5.05930841e-12 1.00553115e-13 0.00000000e+00 4.95875530e-12 0.00000000e+00 1.00555922e-13
1.47636563e+01 5.16341022e-12 9.10972074e-14 0.00000000e+00 5.07231302e-12 0.00000000e+00 9.10998706e-14
1.52577522e+01 5.28438099e-12 8.25304720e-14 0.00000000e+00 5.20185052e-12 0.00000000e+00 8.25330452e-14
1.57683840e+01 5.48351371e-12 7.47693065e-14 0.00000000e+00 5.40874441e-12 0.00000000e+00 7.47718247e-14
1.62961051e+01 5.64650805e-12 6.77379903e-14 0.00000000e+00 5.57877006e-12 0.00000000e+00 6.77404517e-14
1.68414875e+01 5.85703414e-12 6.13678927e-14 0.00000000e+00 5.79566625e-12 0.00000000e+00 6.13702932e-14
1.74051222e+01 5.97197288e-12 5.55968903e-14 0.00000000e+00 5.91637599e-12 0.00000000e+00 5.55991699e-14
1.79876201e+01 6.07095919e-12 5.03686215e-14 0.00000000e+00 6.02059057e-12 0.00000000e+00 5.03707500e-14
1.85896125e+01 6.15685400e-12 4.56320730e-14 0.00000000e+00 6.11122193e-12 0.00000000e+00 4.56339988e-14
1.92117518e+01 6.08735418e-12 4.13409894e-14 0.00000000e+00 6.04601319e-12 0.00000000e+00 4.13426810e-14
1.98547123e+01 6.05622555e-12 3.74534521e-14 0.00000000e+00 6.01877209e-12 0.00000000e+00 3.74549090e-14
2.05191907e+01 5.95292320e-12 3.39314922e-14 0.00000000e+00 5.91899171e-12 0.00000000e+00 3.39327342e-14
2.12059073e+01 5.87302557e-12 3.07407181e-14 0.00000000e+00 5.84228485e-12 0.00000000e+00 3.07417768e-14
2.19156062e+01 5.79973930e-12 2.78499829e-14 0.00000000e+00 5.77188931e-12 0.00000000e+00 2.78508898e-14
2.26490567e+01 5.69297856e-12 2.52310772e-14 0.00000000e+00 5.66774748e-12 0.00000000e+00 2.52318552e-14
2.34070535e+01 5.61682954e-12 2.28584400e-14 0.00000000e+00 5.59397110e-12 0.00000000e+00 2.28591087e-14
2.41904183e+01 5.53611068e-12 2.07089137e-14 0.00000000e+00 5.51540176e-12 0.00000000e+00 2.07094900e-14
2.50000000e+01 5.44665420e-12 1.87615189e-14 0.00000000e+00 5.42789268e-12 0.00000000e+00 1.87620165e-14
2.75422870e+01 5.10678544e-12 1.40310281e-14 0.00000000e+00 5.09275441e-12 0.00000000e+00 1.40313526e-14
3.16227766e+01 4.50106260e-12 9.27024445e-15 0.00000000e+00 4.49179235e-12 0.00000000e+00 9.27042274e-15
3.63078055e+01 3.71084218e-12 6.12481013e-15 0.00000000e+00 3.70471737e-12 0.00000000e+00 6.12490756e-15
4.16869383e+01 2.86269431e-12 4.04663446e-15 0.00000000e+00 2.85864767e-12 0.00000000e+00 4.04668630e-15
4.78630092e+01 2.04558476e-12 2.67359240e-15 0.00000000e+00 2.04291117e-12 0.00000000e+00 2.67361912e-15
5.49540874e+01 1.37342802e-12 1.76642915e-15 0.00000000e+00 1.37166159e-12 0.00000000e+00 1.76644264e-15
6.30957344e+01 8.74172477e-13 1.16707036e-15 0.00000000e+00 8.73005406e-13 0.00000000e+00 1.16707708e-15
7.24435960e+01 5.33508992e-13 7.71076855e-16 0.00000000e+00 5.32737915e-13 0.00000000e+00 7.71080178e-16
8.31763771e+01 3.14422835e-13 5.09445981e-16 0.00000000e+00 3.13913389e-13 0.00000000e+00 5.09447621e-16
9.54992586e+01 1.80814370e-13 3.36587894e-16 0.00000000e+00 1.80477782e-13 0.00000000e+00 3.36588705e-16
1.09647820e+02 1.01997998e-13 2.22381549e-16 0.00000000e+00 1.01775616e-13 0.00000000e+00 2.22381952e-16
1.25892541e+02 5.73007194e-14 1.46926096e-16 0.00000000e+00 5.71537933e-14 0.00000000e+00 1.46926299e-16
1.44543977e+02 3.19111702e-14 9.70731398e-17 0.00000000e+00 3.18140970e-14 0.00000000e+00 9.70732430e-17
1.65958691e+02 1.69084017e-14 6.41356050e-17 0.00000000e+00 1.68442661e-14 0.00000000e+00 6.41356556e-17
1.90546072e+02 8.94838184e-15 4.23739824e-17 0.00000000e+00 8.90600786e-15 0.00000000e+00 4.23740075e-17
2.18776162e+02 4.72121365e-15 2.79962166e-17 0.00000000e+00 4.69321744e-15 0.00000000e+00 2.79962291e-17
2.51188643e+02 2.47948029e-15 1.84969189e-17 0.00000000e+00 2.46098337e-15 0.00000000e+00 1.84969251e-17
2.88403150e+02 1.29510731e-15 1.22207941e-17 0.00000000e+00 1.28288651e-15 0.00000000e+00 1.22207972e-17
3.31131121e+02 6.74324990e-16 8.07419910e-18 0.00000000e+00 6.66250791e-16 0.00000000e+00 8.07420067e-18
3.80189396e+02 3.49724852e-16 5.33457069e-18 0.00000000e+00 3.44390282e-16 0.00000000e+00 5.33457148e-18
4.36515832e+02 1.80974368e-16 3.52451603e-18 0.00000000e+00 1.77449852e-16 0.00000000e+00 3.52451642e-18
5.01187234e+02 9.34527428e-17 2.32862471e-18 0.00000000e+00 9.11241181e-17 0.00000000e+00 2.32862491e-18
5.75439937e+02 4.82027056e-17 1.53850712e-18 0.00000000e+00 4.66641985e-17 0.00000000e+00 1.53850722e-18
6.60693448e+02 2.48562311e-17 1.01648159e-18 0.00000000e+00 2.38397495e-17 0.00000000e+00 1.01648164e-18
7.58577575e+02 1.28253894e-17 6.71582735e-19 0.00000000e+00 1.21538067e-17 0.00000000e+00 6.71582760e-19
8.70963590e+02 6.62720158e-18 4.43710317e-19 0.00000000e+00 6.18349126e-18 0.00000000e+00 4.43710329e-19
1.00000000e+03 3.13999832e-18 0.00000000e+00 0.00000000e+00 3.13999832e-18 0.00000000e+00 0.00000000e+00
