# column 1: lambda (micron)
# column 2: total flux; lambda*F_lambda (W/m2)
# column 3: direct stellar flux; lambda*F_lambda (W/m2)
# column 4: scattered stellar flux; lambda*F_lambda (W/m2)
# column 5: total dust emission flux; lambda*F_lambda (W/m2)
# column 6: dust emission scattered flux; lambda*F_lambda (W/m2)
# column 7: transparent flux; lambda*F_lambda (W/m2)
1.00000000e-03 6.90864122e-13 6.90858934e-13 5.18766845e-18 0.00000000e+00 0.00000000e+00 6.93993746e-13
1.14815362e-03 8.14289068e-13 8.14250291e-13 3.87778788e-17 0.00000000e+00 0.00000000e+00 8.19135139e-13
1.31825674e-03 9.59556677e-13 9.59517460e-13 3.92169018e-17 0.00000000e+00 0.00000000e+00 9.66842108e-13
1.51356125e-03 1.13103115e-12 1.13099792e-12 3.32338907e-17 0.00000000e+00 0.00000000e+00 1.14118369e-12
1.73780083e-03 1.33486641e-12 1.33481649e-12 4.99170051e-17 0.00000000e+00 0.00000000e+00 1.34696266e-12
1.99526231e-03 1.57097622e-12 1.57086821e-12 1.08009475e-16 0.00000000e+00 0.00000000e+00 1.58984782e-12
2.29086765e-03 1.85292737e-12 1.85278314e-12 1.44231124e-16 0.00000000e+00 0.00000000e+00 1.87653019e-12
2.63026799e-03 2.18299908e-12 2.18136072e-12 1.63835210e-15 0.00000000e+00 0.00000000e+00 2.21490731e-12
3.01995172e-03 2.56633601e-12 2.56541763e-12 9.18382336e-16 0.00000000e+00 0.00000000e+00 2.61430080e-12
3.46736850e-03 3.01953523e-12 3.01782067e-12 1.71456027e-15 0.00000000e+00 0.00000000e+00 3.08571319e-12
3.98107171e-03 3.62372870e-12 3.55055045e-12 7.31782509e-14 0.00000000e+00 0.00000000e+00 3.64213095e-12
4.57088190e-03 4.23980222e-12 4.22647311e-12 1.33291102e-14 0.00000000e+00 0.00000000e+00 4.29888232e-12
5.24807460e-03 4.97927486e-12 4.96515492e-12 1.41199391e-14 0.00000000e+00 0.00000000e+00 5.07405951e-12
6.02559586e-03 5.84757162e-12 5.83437161e-12 1.32000088e-14 0.00000000e+00 0.00000000e+00 5.98901715e-12
6.91830971e-03 6.93794009e-12 6.85871741e-12 7.92226841e-14 0.00000000e+00 0.00000000e+00 7.06896053e-12
7.94328235e-03 8.09413231e-12 8.06726421e-12 2.68681039e-14 1.47914892e-303 8.48619237e-305 8.34363998e-12
9.12010839e-03 9.53915905e-12 9.48683799e-12 5.23210666e-14 9.63181834e-265 7.22830563e-266 9.84817045e-12
1.04712855e-02 1.06851028e-11 1.05702387e-11 1.14864086e-13 5.46745921e-231 2.28186158e-232 1.09990604e-11
1.20226443e-02 1.06689708e-11 1.05454595e-11 1.23511281e-13 1.15900918e-201 6.55238654e-203 1.09990604e-11
1.38038426e-02 1.06471014e-11 1.05161438e-11 1.30957592e-13 3.95808996e-176 1.33501597e-177 1.09990604e-11
1.58489319e-02 1.06056447e-11 1.04802288e-11 1.25415948e-13 6.61519312e-154 2.05997136e-155 1.09990604e-11
1.81970086e-02 1.05635384e-11 1.04472123e-11 1.16326115e-13 1.42509522e-134 4.79261339e-136 1.09990604e-11
2.08929613e-02 1.05674372e-11 1.04198477e-11 1.47589463e-13 8.82148331e-118 3.59502578e-119 1.09990604e-11
2.39883292e-02 1.05293629e-11 1.03844990e-11 1.44863950e-13 3.55684633e-103 1.33183917e-104 1.09990604e-11
2.75422870e-02 1.05098241e-11 1.03435331e-11 1.66291088e-13 1.80197197e-90 7.23850719e-92 1.09990604e-11
3.16227766e-02 1.04748468e-11 1.03035344e-11 1.71312370e-13 1.95405981e-79 8.28833634e-81 1.09990604e-11
3.63078055e-02 1.04395277e-11 1.02722697e-11 1.67257978e-13 7.43248623e-70 3.18773319e-71 1.09990604e-11
4.16869383e-02 1.04378926e-11 1.02453047e-11 1.92587924e-13 1.53891361e-61 7.84843625e-63 1.09990604e-11
4.78630092e-02 1.03807188e-11 1.01713420e-11 2.09376783e-13 2.50067930e-54 1.50077522e-55 1.09990604e-11
5.49540874e-02 1.02947057e-11 1.00693696e-11 2.25336096e-13 4.39948328e-48 2.90419719e-49 1.09990604e-11
6.30957344e-02 1.00745007e-11 9.81814706e-12 2.56353644e-13 1.48711628e-42 1.09096714e-43 1.09990604e-11
7.24435960e-02 9.78524911e-12 9.52866746e-12 2.56581645e-13 8.90328554e-38 6.30822267e-39 1.09990604e-11
8.31763771e-02 9.80153882e-12 9.55407718e-12 2.47461636e-13 9.51000033e-34 6.60085426e-35 1.09990604e-11
9.54992586e-02 9.87233445e-12 9.62899400e-12 2.43340446e-13 2.78751623e-30 1.97626101e-31 1.09990604e-11
1.09647820e-01 9.63866724e-12 9.40501431e-12 2.33652924e-13 2.46902196e-27 1.87005257e-28 1.05040253e-11
1.25892541e-01 9.15731312e-12 8.95050303e-12 2.06810095e-13 8.30464225e-25 6.10630665e-26 9.80292679e-12
1.44543977e-01 8.66296542e-12 8.48416635e-12 1.78799072e-13 1.16289920e-22 8.28879256e-24 9.14862359e-12
1.65958691e-01 8.16297977e-12 7.99313668e-12 1.69843084e-13 6.06325537e-21 4.70661469e-22 8.53799231e-12
1.90546072e-01 7.60672414e-12 7.42681773e-12 1.79906283e-13 1.30063497e-19 1.19598516e-20 7.96811805e-12
2.18776162e-01 7.02338755e-12 6.84725007e-12 1.76135921e-13 1.55136164e-18 1.46031187e-19 7.43628044e-12
2.51188643e-01 6.67576052e-12 6.49670926e-12 1.79031798e-13 1.94615902e-17 2.26446486e-18 6.93994070e-12
2.88403150e-01 6.29534344e-12 6.13139309e-12 1.63784987e-13 1.65367220e-16 1.93910820e-17 6.47672950e-12
3.31131121e-01 5.90574029e-12 5.76251065e-12 1.42267314e-13 9.62325562e-16 1.10349635e-16 6.04443567e-12
3.80189396e-01 5.53943848e-12 5.40927848e-12 1.26075778e-13 4.08422220e-15 4.76405727e-16 5.64099558e-12
4.36515832e-01 5.20258730e-12 5.07576777e-12 1.13714496e-13 1.31050253e-14 1.53402658e-15 5.26448339e-12
5.01187234e-01 4.89707936e-12 4.76150734e-12 1.02380056e-13 3.31919686e-14 3.97199462e-15 4.91310176e-12
5.75439937e-01 4.62480412e-12 4.46468040e-12 9.09828864e-14 6.91408268e-14 8.41915083e-15 4.58517335e-12
6.60693448e-01 4.38823600e-12 4.18421243e-12 8.15388948e-14 1.22484672e-13 1.52507516e-14 4.27913275e-12
7.58577575e-01 4.18540306e-12 3.91966827e-12 7.32959143e-14 1.92438877e-13 2.38427318e-14 3.99351904e-12
8.70963590e-01 4.00918974e-12 3.67079151e-12 6.36853722e-14 2.74712848e-13 3.40013273e-14 3.72696882e-12
1.00000000e+00 3.85321516e-12 3.43617577e-12 5.43254927e-14 3.62713892e-13 4.43471688e-14 3.47820968e-12
1.14815362e+00 3.72235590e-12 3.21516816e-12 4.16971119e-14 4.65490630e-13 5.54912603e-14 3.24605414e-12
1.31825674e+00 3.63603986e-12 3.00709832e-12 3.42107370e-14 5.94730805e-13 6.73063218e-14 3.02939399e-12
1.51356125e+00 3.59854316e-12 2.81126637e-12 2.56864156e-14 7.61590382e-13 7.80696135e-14 2.82719497e-12
1.73780083e+00 3.61211568e-12 2.62729896e-12 1.85772788e-14 9.66239443e-13 8.33694982e-14 2.63849186e-12
1.99526231e+00 3.65566803e-12 2.45464323e-12 1.32341297e-14 1.18779067e-12 8.08122623e-14 2.46238388e-12
2.29086765e+00 3.69021451e-12 2.29269451e-12 9.31306886e-15 1.38820693e-12 7.17475945e-14 2.29803035e-12
2.63026799e+00 3.68508935e-12 2.14093453e-12 6.36007059e-15 1.53779475e-12 5.97356458e-14 2.14464670e-12
3.01995172e+00 3.61815604e-12 1.99888516e-12 4.33298125e-15 1.61493790e-12 4.82248190e-14 2.00150076e-12
3.46736850e+00 3.48904764e-12 1.86603628e-12 3.02723419e-15 1.61998413e-12 3.80732074e-14 1.86790919e-12
3.98107171e+00 3.32251422e-12 1.74187610e-12 2.11265977e-15 1.57852546e-12 2.92986655e-14 1.74323429e-12
4.57088190e+00 3.13162831e-12 1.62588255e-12 1.44713153e-15 1.50429862e-12 2.18836989e-14 1.62688090e-12
5.24807460e+00 2.77098714e-12 1.34451798e-12 8.46651335e-16 1.42562252e-12 1.54803094e-14 1.34518114e-12
6.02559586e+00 2.23986335e-12 8.88388252e-13 3.76120265e-16 1.35109898e-12 1.03466657e-14 8.88752369e-13
6.70000000e+00 1.93495309e-12 6.46247449e-13 1.92717727e-16 1.28851292e-12 7.20211752e-15 6.46481889e-13
6.92422916e+00 1.85015915e-12 5.85483247e-13 1.55233740e-16 1.26452067e-12 6.40201831e-15 5.85688198e-13
7.15596261e+00 1.78372825e-12 5.30428972e-13 1.24638187e-16 1.25317464e-12 5.57661382e-15 5.30611407e-13
7.39545150e+00 1.73997546e-12 4.80544688e-13 9.44928686e-17 1.25933628e-12 4.71994680e-15 4.80713913e-13
7.64295536e+00 1.75569958e-12 4.35333991e-13 6.63642353e-17 1.32029922e-12 3.87418641e-15 4.35508666e-13
7.89874245e+00 1.86366473e-12 3.94349969e-13 3.94128182e-17 1.46927535e-12 2.92089649e-15 3.94554418e-13
8.16308998e+00 2.03830290e-12 3.57201334e-13 2.24961651e-17 1.68107907e-12 2.16803960e-15 3.57451415e-13
8.43628443e+00 2.29498932e-12 3.23522768e-13 1.25621079e-17 1.97145399e-12 1.56052190e-15 3.23837494e-13
8.71862190e+00 2.45964898e-12 2.93034239e-13 8.21624974e-18 2.16660653e-12 1.20863434e-15 2.93384550e-13
9.01040836e+00 2.61846118e-12 2.65410916e-13 5.39111795e-18 2.35304487e-12 9.20685641e-16 2.65795332e-13
9.31196005e+00 2.74119831e-12 2.40396656e-13 0.00000000e+00 2.50080166e-12 0.00000000e+00 2.40800541e-13
9.62360379e+00 2.68986130e-12 2.17780668e-13 0.00000000e+00 2.47208063e-12 0.00000000e+00 2.18156204e-13
9.94567731e+00 2.50764363e-12 1.97322042e-13 0.00000000e+00 2.31032159e-12 0.00000000e+00 1.97641289e-13
1.02785297e+01 2.31459104e-12 1.78793881e-13 0.00000000e+00 2.13579716e-12 0.00000000e+00 1.79055550e-13
1.06225216e+01 2.12907024e-12 1.62005395e-13 0.00000000e+00 1.96706485e-12 0.00000000e+00 1.62217572e-13
1.09780260e+01 1.92874418e-12 1.46797155e-13 0.00000000e+00 1.78194702e-12 0.00000000e+00 1.46962999e-13
1.13454280e+01 1.76023165e-12 1.33012786e-13 0.00000000e+00 1.62721886e-12 0.00000000e+00 1.33142932e-13
1.17251259e+01 1.61691738e-12 1.20519685e-13 0.00000000e+00 1.49639769e-12 0.00000000e+00 1.20622472e-13
1.21175312e+01 1.49741416e-12 1.09198645e-13 0.00000000e+00 1.38821551e-12 0.00000000e+00 1.09279408e-13
1.25230691e+01 1.37759331e-12 9.89397355e-14 0.00000000e+00 1.27865357e-12 0.00000000e+00 9.90030204e-14
1.29421791e+01 1.27840693e-12 8.96430651e-14 0.00000000e+00 1.18876387e-12 0.00000000e+00 8.96930008e-14
1.33753155e+01 1.18612695e-12 8.12187906e-14 0.00000000e+00 1.10490815e-12 0.00000000e+00 8.12584743e-14
1.38229477e+01 1.12214783e-12 7.35841203e-14 0.00000000e+00 1.04856371e-12 0.00000000e+00 7.36171115e-14
1.42855609e+01 1.08342207e-12 6.66656514e-14 0.00000000e+00 1.01675642e-12 0.00000000e+00 6.66943252e-14
1.47636563e+01 1.07749490e-12 6.03953286e-14 0.00000000e+00 1.01709957e-12 0.00000000e+00 6.04225420e-14
1.52577522e+01 1.07921057e-12 5.47142491e-14 0.00000000e+00 1.02449632e-12 0.00000000e+00 5.47405431e-14
1.57683840e+01 1.08661456e-12 4.95671349e-14 0.00000000e+00 1.03704742e-12 0.00000000e+00 4.95928665e-14
1.62961051e+01 1.09047805e-12 4.49041149e-14 0.00000000e+00 1.04557393e-12 0.00000000e+00 4.49292657e-14
1.68414875e+01 1.09782063e-12 4.06796913e-14 0.00000000e+00 1.05714093e-12 0.00000000e+00 4.07042194e-14
1.74051222e+01 1.09221744e-12 3.68531947e-14 0.00000000e+00 1.05536425e-12 0.00000000e+00 3.68764869e-14
1.79876201e+01 1.08601668e-12 3.33869582e-14 0.00000000e+00 1.05262973e-12 0.00000000e+00 3.34087056e-14
1.85896125e+01 1.05434560e-12 3.02473496e-14 0.00000000e+00 1.02409825e-12 0.00000000e+00 3.02670267e-14
1.92117518e+01 1.02092359e-12 2.74035002e-14 0.00000000e+00 9.93520092e-13 0.00000000e+00 2.74207841e-14
1.98547123e+01 9.85800838e-13 2.48273102e-14 0.00000000e+00 9.60973528e-13 0.00000000e+00 2.48421957e-14
2.05191907e+01 9.39809842e-13 2.24934013e-14 0.00000000e+00 9.17316441e-13 0.00000000e+00 2.25060919e-14
2.12059073e+01 8.98788787e-13 2.03788523e-14 0.00000000e+00 8.78409935e-13 0.00000000e+00 2.03896700e-14
2.19156062e+01 8.63802372e-13 1.84630054e-14 0.00000000e+00 8.45339367e-13 0.00000000e+00 1.84722717e-14
2.26490567e+01 8.22906019e-13 1.67272312e-14 0.00000000e+00 8.06178788e-13 0.00000000e+00 1.67351811e-14
2.34070535e+01 7.87134387e-13 1.51546095e-14 0.00000000e+00 7.71979778e-13 0.00000000e+00 1.51614426e-14
2.41904183e+01 7.53101145e-13 1.37298068e-14 0.00000000e+00 7.39371338e-13 0.00000000e+00 1.37356949e-14
2.50000000e+01 7.19627828e-13 1.24389366e-14 0.00000000e+00 7.07188891e-13 0.00000000e+00 1.24440213e-14
2.75422870e+01 6.20240094e-13 9.30306370e-15 0.00000000e+00 6.10937030e-13 0.00000000e+00 9.30637977e-15
3.16227766e+01 4.89431642e-13 6.14684220e-15 0.00000000e+00 4.83284800e-13 0.00000000e+00 6.14866414e-15
3.63078055e+01 3.66629871e-13 4.06138636e-15 0.00000000e+00 3.62568484e-13 0.00000000e+00 4.06238211e-15
4.16869383e+01 2.57254742e-13 2.68345944e-15 0.00000000e+00 2.54571283e-13 0.00000000e+00 2.68398924e-15
4.78630092e+01 1.68987935e-13 1.77302097e-15 0.00000000e+00 1.67214914e-13 0.00000000e+00 1.77329411e-15
5.49540874e+01 1.05515920e-13 1.17146598e-15 0.00000000e+00 1.04344454e-13 0.00000000e+00 1.17160380e-15
6.30957344e+01 6.31681789e-14 7.74002301e-16 0.00000000e+00 6.23941766e-14 0.00000000e+00 7.74070953e-16
7.24435960e+01 3.65523590e-14 5.11389653e-16 0.00000000e+00 3.60409694e-14 0.00000000e+00 5.11423607e-16
8.31763771e+01 2.06558110e-14 3.37877460e-16 0.00000000e+00 2.03179335e-14 0.00000000e+00 3.37894226e-16
9.54992586e+01 1.14751135e-14 2.23236203e-16 0.00000000e+00 1.12518773e-14 0.00000000e+00 2.23244502e-16
1.09647820e+02 6.30188708e-15 1.47492058e-16 0.00000000e+00 6.15439502e-15 0.00000000e+00 1.47496179e-16
1.25892541e+02 3.46956778e-15 9.74476816e-17 0.00000000e+00 3.37212010e-15 0.00000000e+00 9.74497594e-17
1.44543977e+02 1.90479608e-15 6.43833624e-17 0.00000000e+00 1.84041271e-15 0.00000000e+00 6.43844175e-17
1.65958691e+02 9.99091391e-16 4.25378455e-17 0.00000000e+00 9.56553546e-16 0.00000000e+00 4.25383628e-17
1.90546072e+02 5.26349226e-16 2.81045614e-17 0.00000000e+00 4.98244664e-16 0.00000000e+00 2.81048176e-17
2.18776162e+02 2.77928660e-16 1.85685412e-17 0.00000000e+00 2.59360119e-16 0.00000000e+00 1.85686688e-17
2.51188643e+02 1.46893262e-16 1.22681341e-17 0.00000000e+00 1.34625128e-16 0.00000000e+00 1.22681978e-17
2.88403150e+02 7.76876746e-17 8.10548603e-18 0.00000000e+00 6.95821886e-17 0.00000000e+00 8.10551794e-18
3.31131121e+02 4.12357017e-17 5.35524660e-18 0.00000000e+00 3.58804551e-17 0.00000000e+00 5.35526259e-18
3.80189396e+02 2.19738415e-17 3.53817889e-18 0.00000000e+00 1.84356626e-17 0.00000000e+00 3.53818691e-18
4.36515832e+02 1.17884923e-17 2.33765288e-18 0.00000000e+00 9.45083946e-18 0.00000000e+00 2.33765691e-18
5.01187234e+02 6.37686728e-18 1.54447258e-18 0.00000000e+00 4.83239470e-18 0.00000000e+00 1.54447460e-18
5.75439937e+02 3.48608699e-18 1.02042324e-18 0.00000000e+00 2.46566375e-18 0.00000000e+00 1.02042425e-18
6.60693448e+02 1.92993229e-18 6.74187107e-19 0.00000000e+00 1.25574519e-18 0.00000000e+00 6.74187617e-19
7.58577575e+02 1.08393828e-18 4.45431085e-19 0.00000000e+00 6.38507199e-19 0.00000000e+00 4.45431341e-19
8.70963590e+02 6.18414461e-19 2.94293440e-19 0.00000000e+00 3.24121021e-19 0.00000000e+00 2.94293569e-19
1.00000000e+03 1.64271677e-19 0.00000000e+00 0.00000000e+00 1.64271677e-19 0.00000000e+00 0.00000000e+00
