# column 1: lambda (micron)
# column 2: total flux; lambda*F_lambda (W/m2)
# column 3: direct stellar flux; lambda*F_lambda (W/m2)
# column 4: scattered stellar flux; lambda*F_lambda (W/m2)
# column 5: total dust emission flux; lambda*F_lambda (W/m2)
# column 6: dust emission scattered flux; lambda*F_lambda (W/m2)
# column 7: transparent flux; lambda*F_lambda (W/m2)
1.00000000e-03 6.92662458e-13 6.92658229e-13 4.22910423e-18 0.00000000e+00 0.00000000e+00 6.93993746e-13
1.14815362e-03 8.17075267e-13 8.17053189e-13 2.20781583e-17 0.00000000e+00 0.00000000e+00 8.19135139e-13
1.31825674e-03 9.64079619e-13 9.63718848e-13 3.60771213e-16 0.00000000e+00 0.00000000e+00 9.66842108e-13
1.51356125e-03 1.13686165e-12 1.13683874e-12 2.29134162e-17 0.00000000e+00 0.00000000e+00 1.14118369e-12
1.73780083e-03 1.34193669e-12 1.34178132e-12 1.55370881e-16 0.00000000e+00 0.00000000e+00 1.34696266e-12
1.99526231e-03 1.58182263e-12 1.58174461e-12 7.80203060e-17 0.00000000e+00 0.00000000e+00 1.58984782e-12
2.29086765e-03 1.86663749e-12 1.86638945e-12 2.48042688e-16 0.00000000e+00 0.00000000e+00 1.87653019e-12
2.63026799e-03 2.20294309e-12 2.20057149e-12 2.37159967e-15 0.00000000e+00 0.00000000e+00 2.21490731e-12
3.01995172e-03 2.59873246e-12 2.59338943e-12 5.34302636e-15 0.00000000e+00 0.00000000e+00 2.61430080e-12
3.46736850e-03 3.05996750e-12 3.05664194e-12 3.32555714e-15 0.00000000e+00 0.00000000e+00 3.08571319e-12
3.98107171e-03 3.60546525e-12 3.60288055e-12 2.58469927e-15 0.00000000e+00 0.00000000e+00 3.64213095e-12
4.57088190e-03 4.27084797e-12 4.26792364e-12 2.92432608e-15 0.00000000e+00 0.00000000e+00 4.29888232e-12
5.24807460e-03 5.03399247e-12 5.02743444e-12 6.55803556e-15 0.00000000e+00 0.00000000e+00 5.07405951e-12
6.02559586e-03 5.94096317e-12 5.92272463e-12 1.82385467e-14 0.00000000e+00 0.00000000e+00 5.98901715e-12
6.91830971e-03 7.09953316e-12 6.97873101e-12 1.20802148e-13 0.00000000e+00 0.00000000e+00 7.06896053e-12
7.94328235e-03 8.30199575e-12 8.22491034e-12 7.70854123e-14 3.97298418e-303 3.29917473e-305 8.34363998e-12
9.12010839e-03 9.74239516e-12 9.69278038e-12 4.96147798e-14 1.85908023e-264 1.91702025e-266 9.84817045e-12
1.04712855e-02 1.09214486e-11 1.08145214e-11 1.06927117e-13 8.33142693e-231 1.17674504e-232 1.09990604e-11
1.20226443e-02 1.09217271e-11 1.08037276e-11 1.17999471e-13 1.37102735e-201 2.15888492e-203 1.09990604e-11
1.38038426e-02 1.09590444e-11 1.07909388e-11 1.68105529e-13 3.90698276e-176 7.66923050e-178 1.09990604e-11
1.58489319e-02 1.09311101e-11 1.07752432e-11 1.55866961e-13 5.50416290e-154 1.38738466e-155 1.09990604e-11
1.81970086e-02 1.09597880e-11 1.07607870e-11 1.99001014e-13 1.02080601e-134 3.47579830e-136 1.09990604e-11
2.08929613e-02 1.10135544e-11 1.07487856e-11 2.64768825e-13 5.49293819e-118 2.03605457e-119 1.09990604e-11
2.39883292e-02 1.10219901e-11 1.07332556e-11 2.88734462e-13 1.97967731e-103 8.28140677e-105 1.09990604e-11
2.75422870e-02 1.10382602e-11 1.07152198e-11 3.23040385e-13 9.09116752e-91 4.45395353e-92 1.09990604e-11
3.16227766e-02 1.10282167e-11 1.06975703e-11 3.30646393e-13 8.97298302e-80 4.16377396e-81 1.09990604e-11
3.63078055e-02 1.10257945e-11 1.06837472e-11 3.42047316e-13 3.16608053e-70 1.60368624e-71 1.09990604e-11
4.16869383e-02 1.10368186e-11 1.06718056e-11 3.65012954e-13 6.11537991e-62 3.43945603e-63 1.09990604e-11
4.78630092e-02 1.09973083e-11 1.06389581e-11 3.58350166e-13 9.30589729e-55 5.45017522e-56 1.09990604e-11
5.49540874e-02 1.09507702e-11 1.05934455e-11 3.57324726e-13 1.55471059e-48 9.47173327e-50 1.09990604e-11
6.30957344e-02 1.08039315e-11 1.04801768e-11 3.23754735e-13 5.01752861e-43 3.08673311e-44 1.09990604e-11
7.24435960e-02 1.06243525e-11 1.03475745e-11 2.76777998e-13 2.89777870e-38 1.56455697e-39 1.09990604e-11
8.31763771e-02 1.06203587e-11 1.03593059e-11 2.61052813e-13 2.98881483e-34 1.59192867e-35 1.09990604e-11
9.54992586e-02 1.06656816e-11 1.03937900e-11 2.71891636e-13 8.48385301e-31 4.70400953e-32 1.09990604e-11
1.09647820e-01 1.03088011e-11 1.00215422e-11 2.87258914e-13 7.28053671e-28 4.50866864e-29 1.05040253e-11
1.25892541e-01 9.72039059e-12 9.43074448e-12 2.89646113e-13 2.38600513e-25 1.53686890e-26 9.80292679e-12
1.44543977e-01 9.13268152e-12 8.85977968e-12 2.72901834e-13 3.27846032e-23 2.13253301e-24 9.14862359e-12
1.65958691e-01 8.57736380e-12 8.30177195e-12 2.75591856e-13 1.67187444e-21 1.20803514e-22 8.53799231e-12
1.90546072e-01 8.01918686e-12 7.73314652e-12 2.86040300e-13 3.52739259e-20 2.89413569e-21 7.96811805e-12
2.18776162e-01 7.43242469e-12 7.17971055e-12 2.52713730e-13 4.17157600e-19 3.48968715e-20 7.43628044e-12
2.51188643e-01 7.04462914e-12 6.74777619e-12 2.96847836e-13 5.11592716e-18 5.33175273e-19 6.93994070e-12
2.88403150e-01 6.60534606e-12 6.32748192e-12 2.77821311e-13 4.28286884e-17 4.48719708e-18 6.47672950e-12
3.31131121e-01 6.18401862e-12 5.92283601e-12 2.60936235e-13 2.46366882e-16 2.55406192e-17 6.04443567e-12
3.80189396e-01 5.78489712e-12 5.54121674e-12 2.42650118e-13 1.03026876e-15 1.05791146e-16 5.64099558e-12
4.36515832e-01 5.41311027e-12 5.18334696e-12 2.26490292e-13 3.27302548e-15 3.35624548e-16 5.26448339e-12
5.01187234e-01 5.06133162e-12 4.84802106e-12 2.05075458e-13 8.23510110e-15 8.57640138e-16 4.91310176e-12
5.75439937e-01 4.73897149e-12 4.53351423e-12 1.88120928e-13 1.73363274e-14 1.88022932e-15 4.58517335e-12
6.60693448e-01 4.44129822e-12 4.23848619e-12 1.70341534e-13 3.24704933e-14 3.92399870e-15 4.27913275e-12
7.58577575e-01 4.17502266e-12 3.96192886e-12 1.54620872e-13 5.84729291e-14 8.36643995e-15 3.99351904e-12
8.70963590e-01 3.94569079e-12 3.70296249e-12 1.33956526e-13 1.08771772e-13 1.84215479e-14 3.72696882e-12
1.00000000e+00 3.78410438e-12 3.46026284e-12 1.14889806e-13 2.08951737e-13 3.93791292e-14 3.47820968e-12
1.14815362e+00 3.73176781e-12 3.23287684e-12 9.42689724e-14 4.04621992e-13 7.64494470e-14 3.24605414e-12
1.31825674e+00 3.85339741e-12 3.01988762e-12 7.42391498e-14 7.59270639e-13 1.33438539e-13 3.02939399e-12
1.51356125e+00 4.20227952e-12 2.82040675e-12 5.85064365e-14 1.32336633e-12 2.03054017e-13 2.82719497e-12
1.73780083e+00 4.77583612e-12 2.63372375e-12 4.34672892e-14 2.09864507e-12 2.70516710e-13 2.63849186e-12
1.99526231e+00 5.48097434e-12 2.45908745e-12 3.23679886e-14 2.98951890e-12 3.10496224e-13 2.46238388e-12
2.29086765e+00 6.17916933e-12 2.29575857e-12 2.29437415e-14 3.86046702e-12 3.09122741e-13 2.29803035e-12
2.63026799e+00 6.76959818e-12 2.14306648e-12 1.60918039e-14 4.61043990e-12 2.91351920e-13 2.14464670e-12
3.01995172e+00 7.15544661e-12 2.00038747e-12 1.13371458e-14 5.14372200e-12 2.52430517e-13 2.00150076e-12
3.46736850e+00 7.40904039e-12 1.86711209e-12 8.03919237e-15 5.53388911e-12 2.09389563e-13 1.86790919e-12
3.98107171e+00 7.49874369e-12 1.74265628e-12 5.65494475e-15 5.75043246e-12 1.67401541e-13 1.74323429e-12
4.57088190e+00 7.40874331e-12 1.62645605e-12 3.91928892e-15 5.77836797e-12 1.27344983e-13 1.62688090e-12
5.24807460e+00 7.09981755e-12 1.34489894e-12 2.32767523e-15 5.75259093e-12 9.15476146e-14 1.34518114e-12
6.02559586e+00 6.58173321e-12 8.88597428e-13 1.09581496e-15 5.69203997e-12 6.34356402e-14 8.88752369e-13
6.70000000e+00 6.23903408e-12 6.46382130e-13 5.83742186e-16 5.59206820e-12 4.55066999e-14 6.46481889e-13
6.92422916e+00 6.16961207e-12 5.85600987e-13 4.80879744e-16 5.58353020e-12 4.04340362e-14 5.85688198e-13
7.15596261e+00 6.08451490e-12 5.30533778e-13 3.74705789e-16 5.55360641e-12 3.55249056e-14 5.30611407e-13
7.39545150e+00 6.06670609e-12 4.80641905e-13 2.87214570e-16 5.58577697e-12 3.04118769e-14 4.80713913e-13
7.64295536e+00 6.12979669e-12 4.35434338e-13 1.91729953e-16 5.69417062e-12 2.38450441e-14 4.35508666e-13
7.89874245e+00 6.39927977e-12 3.94467417e-13 1.09458584e-16 6.00470289e-12 1.71340132e-14 3.94554418e-13
8.16308998e+00 6.82877204e-12 3.57344991e-13 6.00289523e-17 6.47136702e-12 1.18861247e-14 3.57451415e-13
8.43628443e+00 7.39815566e-12 3.23703549e-13 3.17710733e-17 7.07442034e-12 8.18684483e-15 3.23837494e-13
8.71862190e+00 7.75410899e-12 2.93235450e-13 2.03957823e-17 7.46085315e-12 6.23463602e-15 2.93384550e-13
9.01040836e+00 8.18947897e-12 2.65631705e-13 1.34946173e-17 7.92383377e-12 4.75160808e-15 2.65795332e-13
9.31196005e+00 8.38839776e-12 2.40628615e-13 0.00000000e+00 8.14776914e-12 0.00000000e+00 2.40800541e-13
9.62360379e+00 8.21881313e-12 2.17996344e-13 0.00000000e+00 8.00081679e-12 0.00000000e+00 2.18156204e-13
9.94567731e+00 7.94666640e-12 1.97505394e-13 0.00000000e+00 7.74916100e-12 0.00000000e+00 1.97641289e-13
1.02785297e+01 7.55680750e-12 1.78944170e-13 0.00000000e+00 7.37786333e-12 0.00000000e+00 1.79055550e-13
1.06225216e+01 7.18722345e-12 1.62127262e-13 0.00000000e+00 7.02509619e-12 0.00000000e+00 1.62217572e-13
1.09780260e+01 6.78567320e-12 1.46892414e-13 0.00000000e+00 6.63878079e-12 0.00000000e+00 1.46962999e-13
1.13454280e+01 6.41259520e-12 1.33087543e-13 0.00000000e+00 6.27950766e-12 0.00000000e+00 1.33142932e-13
1.17251259e+01 6.24199090e-12 1.20578728e-13 0.00000000e+00 6.12141217e-12 0.00000000e+00 1.20622472e-13
1.21175312e+01 6.02253532e-12 1.09245038e-13 0.00000000e+00 5.91329028e-12 0.00000000e+00 1.09279408e-13
1.25230691e+01 5.80799358e-12 9.89760893e-14 0.00000000e+00 5.70901749e-12 0.00000000e+00 9.90030204e-14
1.29421791e+01 5.68833455e-12 8.96717510e-14 0.00000000e+00 5.59866279e-12 0.00000000e+00 8.96930008e-14
1.33753155e+01 5.55135853e-12 8.12415875e-14 0.00000000e+00 5.47011695e-12 0.00000000e+00 8.12584743e-14
1.38229477e+01 5.48656605e-12 7.36030728e-14 0.00000000e+00 5.41296298e-12 0.00000000e+00 7.36171115e-14
1.42855609e+01 5.40268928e-12 6.66821237e-14 0.00000000e+00 5.33600716e-12 0.00000000e+00 6.66943252e-14
1.47636563e+01 5.43269736e-12 6.04109619e-14 0.00000000e+00 5.37228640e-12 0.00000000e+00 6.04225420e-14
1.52577522e+01 5.48307656e-12 5.47293541e-14 0.00000000e+00 5.42834720e-12 0.00000000e+00 5.47405431e-14
1.57683840e+01 5.51085428e-12 4.95819167e-14 0.00000000e+00 5.46127236e-12 0.00000000e+00 4.95928665e-14
1.62961051e+01 5.53288430e-12 4.49185630e-14 0.00000000e+00 5.48796574e-12 0.00000000e+00 4.49292657e-14
1.68414875e+01 5.58308937e-12 4.06937815e-14 0.00000000e+00 5.54239559e-12 0.00000000e+00 4.07042194e-14
1.74051222e+01 5.55619312e-12 3.68665748e-14 0.00000000e+00 5.51932654e-12 0.00000000e+00 3.68764869e-14
1.79876201e+01 5.56337126e-12 3.33994509e-14 0.00000000e+00 5.52997181e-12 0.00000000e+00 3.34087056e-14
1.85896125e+01 5.51722039e-12 3.02586530e-14 0.00000000e+00 5.48696173e-12 0.00000000e+00 3.02670267e-14
1.92117518e+01 5.41888262e-12 2.74134289e-14 0.00000000e+00 5.39146919e-12 0.00000000e+00 2.74207841e-14
1.98547123e+01 5.31181461e-12 2.48358612e-14 0.00000000e+00 5.28697875e-12 0.00000000e+00 2.48421957e-14
2.05191907e+01 5.18253346e-12 2.25006915e-14 0.00000000e+00 5.16003277e-12 0.00000000e+00 2.25060919e-14
2.12059073e+01 5.12119279e-12 2.03850666e-14 0.00000000e+00 5.10080772e-12 0.00000000e+00 2.03896700e-14
2.19156062e+01 4.93873366e-12 1.84683285e-14 0.00000000e+00 4.92026533e-12 0.00000000e+00 1.84722717e-14
2.26490567e+01 4.84825517e-12 1.67317982e-14 0.00000000e+00 4.83152337e-12 0.00000000e+00 1.67351811e-14
2.34070535e+01 4.71885584e-12 1.51585349e-14 0.00000000e+00 4.70369730e-12 0.00000000e+00 1.51614426e-14
2.41904183e+01 4.56815511e-12 1.37331893e-14 0.00000000e+00 4.55442192e-12 0.00000000e+00 1.37356949e-14
2.50000000e+01 4.39832223e-12 1.24418576e-14 0.00000000e+00 4.38588038e-12 0.00000000e+00 1.24440213e-14
2.75422870e+01 3.94105500e-12 9.30496873e-15 0.00000000e+00 3.93175003e-12 0.00000000e+00 9.30637977e-15
3.16227766e+01 3.21036786e-12 6.14788888e-15 0.00000000e+00 3.20421997e-12 0.00000000e+00 6.14866414e-15
3.63078055e+01 2.48999509e-12 4.06195841e-15 0.00000000e+00 2.48593313e-12 0.00000000e+00 4.06238211e-15
4.16869383e+01 1.79833288e-12 2.68376381e-15 0.00000000e+00 1.79564912e-12 0.00000000e+00 2.68398924e-15
4.78630092e+01 1.23218174e-12 1.77317789e-15 0.00000000e+00 1.23040857e-12 0.00000000e+00 1.77329411e-15
5.49540874e+01 7.91722754e-13 1.17154516e-15 0.00000000e+00 7.90551209e-13 0.00000000e+00 1.17160380e-15
6.30957344e+01 4.85265085e-13 7.74041743e-16 0.00000000e+00 4.84491044e-13 0.00000000e+00 7.74070953e-16
7.24435960e+01 2.85734946e-13 5.11409160e-16 0.00000000e+00 2.85223537e-13 0.00000000e+00 5.11423607e-16
8.31763771e+01 1.63117568e-13 3.37887093e-16 0.00000000e+00 1.62779681e-13 0.00000000e+00 3.37894226e-16
9.54992586e+01 9.10473255e-14 2.23240971e-16 0.00000000e+00 9.08240846e-14 0.00000000e+00 2.23244502e-16
1.09647820e+02 4.99123341e-14 1.47494426e-16 0.00000000e+00 4.97648397e-14 0.00000000e+00 1.47496179e-16
1.25892541e+02 2.73247935e-14 9.74488753e-17 0.00000000e+00 2.72273446e-14 0.00000000e+00 9.74497594e-17
1.44543977e+02 1.48618400e-14 6.43839686e-17 0.00000000e+00 1.47974560e-14 0.00000000e+00 6.43844175e-17
1.65958691e+02 7.71525137e-15 4.25381427e-17 0.00000000e+00 7.67271323e-15 0.00000000e+00 4.25383628e-17
1.90546072e+02 4.00875502e-15 2.81047086e-17 0.00000000e+00 3.98065031e-15 0.00000000e+00 2.81048176e-17
2.18776162e+02 2.08109925e-15 1.85686145e-17 0.00000000e+00 2.06253064e-15 0.00000000e+00 1.85686688e-17
2.51188643e+02 1.07783445e-15 1.22681707e-17 0.00000000e+00 1.06556628e-15 0.00000000e+00 1.22681978e-17
2.88403150e+02 5.56244714e-16 8.10550436e-18 0.00000000e+00 5.48139210e-16 0.00000000e+00 8.10551794e-18
3.31131121e+02 2.86748630e-16 5.35525579e-18 0.00000000e+00 2.81393375e-16 0.00000000e+00 5.35526259e-18
3.80189396e+02 1.47508070e-16 3.53818350e-18 0.00000000e+00 1.43969887e-16 0.00000000e+00 3.53818691e-18
4.36515832e+02 7.58598450e-17 2.33765520e-18 0.00000000e+00 7.35221898e-17 0.00000000e+00 2.33765691e-18
5.01187234e+02 3.90054256e-17 1.54447374e-18 0.00000000e+00 3.74609519e-17 0.00000000e+00 1.54447460e-18
5.75439937e+02 2.00738916e-17 1.02042382e-18 0.00000000e+00 1.90534677e-17 0.00000000e+00 1.02042425e-18
6.60693448e+02 1.03502757e-17 6.74187400e-19 0.00000000e+00 9.67608832e-18 0.00000000e+00 6.74187617e-19
7.58577575e+02 5.35283811e-18 4.45431232e-19 0.00000000e+00 4.90740688e-18 0.00000000e+00 4.45431341e-19
8.70963590e+02 2.77970139e-18 2.94293514e-19 0.00000000e+00 2.48540787e-18 0.00000000e+00 2.94293569e-19
1.00000000e+03 1.25711070e-18 0.00000000e+00 0.00000000e+00 1.25711070e-18 0.00000000e+00 0.00000000e+00
