# column 1: lambda (micron)
# column 2: total flux; lambda*F_lambda (W/m2)
# column 3: direct stellar flux; lambda*F_lambda (W/m2)
# column 4: scattered stellar flux; lambda*F_lambda (W/m2)
# column 5: total dust emission flux; lambda*F_lambda (W/m2)
# column 6: dust emission scattered flux; lambda*F_lambda (W/m2)
# column 7: transparent flux; lambda*F_lambda (W/m2)
1.00000000e-03 1.04634865e-12 1.04634360e-12 5.04435605e-18 0.00000000e+00 0.00000000e+00 1.04634360e-12
1.14815362e-03 1.23502919e-12 1.23502095e-12 8.23906444e-18 0.00000000e+00 0.00000000e+00 1.23502095e-12
1.31825674e-03 1.45773386e-12 1.45772071e-12 1.31525950e-17 0.00000000e+00 0.00000000e+00 1.45772071e-12
1.51356125e-03 1.72059873e-12 1.72057784e-12 2.08909203e-17 0.00000000e+00 0.00000000e+00 1.72057784e-12
1.73780083e-03 2.03087121e-12 2.03083353e-12 3.76832911e-17 0.00000000e+00 0.00000000e+00 2.03083353e-12
1.99526231e-03 2.39710421e-12 2.39703472e-12 6.94927492e-17 0.00000000e+00 0.00000000e+00 2.39703472e-12
2.29086765e-03 2.82937814e-12 2.82926954e-12 1.08596137e-16 0.00000000e+00 0.00000000e+00 2.82926954e-12
2.63026799e-03 3.33966547e-12 3.33944522e-12 2.20246456e-16 0.00000000e+00 0.00000000e+00 3.33944522e-12
3.01995172e-03 3.94199886e-12 3.94161611e-12 3.82749916e-16 0.00000000e+00 0.00000000e+00 3.94161611e-12
3.46736850e-03 4.65303190e-12 4.65237083e-12 6.61072473e-16 0.00000000e+00 0.00000000e+00 4.65237083e-12
3.98107171e-03 5.49234289e-12 5.49128930e-12 1.05359784e-15 0.00000000e+00 0.00000000e+00 5.49128930e-12
4.57088190e-03 6.48373369e-12 6.48148207e-12 2.25162196e-15 0.00000000e+00 0.00000000e+00 6.48148207e-12
5.24807460e-03 7.65582856e-12 7.65022704e-12 5.60151619e-15 0.00000000e+00 0.00000000e+00 7.65022704e-12
6.02559586e-03 9.04008046e-12 9.02972084e-12 1.03596157e-14 0.00000000e+00 0.00000000e+00 9.02972084e-12
6.91830971e-03 1.06704266e-11 1.06579658e-11 1.24608029e-14 0.00000000e+00 0.00000000e+00 1.06579658e-11
7.94328235e-03 1.26009142e-11 1.25798170e-11 2.10971646e-14 0.00000000e+00 0.00000000e+00 1.25798170e-11
9.12010839e-03 1.48832999e-11 1.48482176e-11 3.50822564e-14 0.00000000e+00 0.00000000e+00 1.48482176e-11
1.04712855e-02 1.66526821e-11 1.65834298e-11 6.92523143e-14 0.00000000e+00 0.00000000e+00 1.65834298e-11
1.20226443e-02 1.66986427e-11 1.65834298e-11 1.15212921e-13 3.14183706e-312 2.02937106e-313 1.65834298e-11
1.38038426e-02 1.66836120e-11 1.65834298e-11 1.00182255e-13 6.74655094e-273 4.32085381e-274 1.65834298e-11
1.58489319e-02 1.67446793e-11 1.65834298e-11 1.61249519e-13 1.15836618e-238 7.56614778e-240 1.65834298e-11
1.81970086e-02 1.67857472e-11 1.65834298e-11 2.02317392e-13 7.26853396e-209 5.55577887e-210 1.65834298e-11
2.08929613e-02 1.68656025e-11 1.65834298e-11 2.82172727e-13 5.80556516e-183 4.91090006e-184 1.65834298e-11
2.39883292e-02 1.69556221e-11 1.65834298e-11 3.72192360e-13 2.03866720e-160 1.94942577e-161 1.65834298e-11
2.75422870e-02 1.70500545e-11 1.65834298e-11 4.66624707e-13 8.55377411e-141 9.83193586e-142 1.65834298e-11
3.16227766e-02 1.71435332e-11 1.65834298e-11 5.60103390e-13 9.71231241e-124 1.16453606e-124 1.65834298e-11
3.63078055e-02 1.72065495e-11 1.65834298e-11 6.23119722e-13 6.50164754e-109 8.35404970e-110 1.65834298e-11
4.16869383e-02 1.73993770e-11 1.65834298e-11 8.15947253e-13 4.99391260e-96 7.17352111e-97 1.65834298e-11
4.78630092e-02 1.75692586e-11 1.65834298e-11 9.85828790e-13 7.64553195e-85 1.16282547e-85 1.65834298e-11
5.49540874e-02 1.76565892e-11 1.65834298e-11 1.07315946e-12 3.87634237e-75 5.99933569e-76 1.65834298e-11
6.30957344e-02 1.76194803e-11 1.65834298e-11 1.03605052e-12 1.31726512e-66 1.97322159e-67 1.65834298e-11
7.24435960e-02 1.74603662e-11 1.65834298e-11 8.76936422e-13 3.25815842e-59 4.37694985e-60 1.65834298e-11
8.31763771e-02 1.74338230e-11 1.65834298e-11 8.50393237e-13 7.22585763e-53 9.75713656e-54 1.65834298e-11
9.54992586e-02 1.74640976e-11 1.65834298e-11 8.80667827e-13 2.58519414e-47 3.96901432e-48 1.65834298e-11
1.09647820e-01 1.68034214e-11 1.58370587e-11 9.66362719e-13 2.05308639e-42 4.18717520e-43 1.58370587e-11
1.25892541e-01 1.57435340e-11 1.47800032e-11 9.63530790e-13 4.83657365e-38 1.19118110e-38 1.47800032e-11
1.44543977e-01 1.47157136e-11 1.37935015e-11 9.22212129e-13 3.39484297e-34 8.91925947e-35 1.37935015e-11
1.65958691e-01 1.38325245e-11 1.28728446e-11 9.59679914e-13 6.23714023e-31 1.82806569e-31 1.28728446e-11
1.90546072e-01 1.29755591e-11 1.20136376e-11 9.61921531e-13 3.07431687e-28 1.04256418e-28 1.20136376e-11
2.18776162e-01 1.20403036e-11 1.12117790e-11 8.28524668e-13 5.54030714e-26 1.92371725e-26 1.12117790e-11
2.51188643e-01 1.14137267e-11 1.04634409e-11 9.50285727e-13 9.48174614e-24 3.72680469e-24 1.04634409e-11
2.88403150e-01 1.06767668e-11 9.76505125e-12 9.11715535e-13 7.83418869e-22 3.09162009e-22 9.76505125e-12
3.31131121e-01 9.96311355e-12 9.11327608e-12 8.49837432e-13 3.48664070e-20 1.36934341e-20 9.11327608e-12
3.80189396e-01 9.28023687e-12 8.50500410e-12 7.75231881e-13 8.97675483e-19 3.44585613e-19 8.50500410e-12
4.36515832e-01 8.65375885e-12 7.93733165e-12 7.16412816e-13 1.43852429e-17 5.43684323e-18 7.93733165e-12
5.01187234e-01 8.04552042e-12 7.40754890e-12 6.37819398e-13 1.52121502e-16 5.61970056e-17 7.40754890e-12
5.75439937e-01 7.47974118e-12 6.91312687e-12 5.65492266e-13 1.12204659e-15 3.99597100e-16 6.91312687e-12
6.60693448e-01 6.94831002e-12 6.45170538e-12 4.90509356e-13 6.09527811e-15 2.07644947e-15 6.45170538e-12
7.58577575e-01 6.46943011e-12 6.02108180e-12 4.23337391e-13 2.50109263e-14 8.08667474e-15 6.02108180e-12
8.70963590e-01 6.05779026e-12 5.61920048e-12 3.54963749e-13 8.36260261e-14 2.49447527e-14 5.61920048e-12
1.00000000e+00 5.75931188e-12 5.24414302e-12 2.87363021e-13 2.27805845e-13 6.14241841e-14 5.24414302e-12
1.14815362e+00 5.65519106e-12 4.89411902e-12 2.23856060e-13 5.37215972e-13 1.26937318e-13 4.89411902e-12
1.31825674e+00 5.85151847e-12 4.56745763e-12 1.67148025e-13 1.11691282e-12 2.26112494e-13 4.56745763e-12
1.51356125e+00 6.46324757e-12 4.26259947e-12 1.24679161e-13 2.07596894e-12 3.48095410e-13 4.26259947e-12
1.73780083e+00 7.48997799e-12 3.97808929e-12 9.40139494e-14 3.41787475e-12 4.66114700e-13 3.97808929e-12
1.99526231e+00 8.83200039e-12 3.71256894e-12 6.76046298e-14 5.05182682e-12 5.42051145e-13 3.71256894e-12
2.29086765e+00 1.02557074e-11 3.46477093e-12 4.79903196e-14 6.74294619e-12 5.52310421e-13 3.46477093e-12
2.63026799e+00 1.15152225e-11 3.23351237e-12 3.37002476e-14 8.24800987e-12 5.10018903e-13 3.23351237e-12
3.01995172e+00 1.24993134e-11 3.01768933e-12 2.33513216e-14 9.45827274e-12 4.42594544e-13 3.01768933e-12
3.46736850e+00 1.32605545e-11 2.81627154e-12 1.64126391e-14 1.04278703e-11 3.65560890e-13 2.81627154e-12
3.98107171e+00 1.35761348e-11 2.62829753e-12 1.14661611e-14 1.09363711e-11 2.89582519e-13 2.62829753e-12
4.57088190e+00 1.36404432e-11 2.45286997e-12 7.92711212e-15 1.11796461e-11 2.20528078e-13 2.45286997e-12
5.24807460e+00 1.32293271e-11 2.02814751e-12 4.72613932e-15 1.11964535e-11 1.58703773e-13 2.02814751e-12
6.02559586e+00 1.24645948e-11 1.33998377e-12 2.17861064e-15 1.11224324e-11 1.10216351e-13 1.33998377e-12
6.70000000e+00 1.19828951e-11 9.74709347e-13 1.15712445e-15 1.10070286e-11 8.01193369e-14 9.74709347e-13
6.92422916e+00 1.18900610e-11 8.83049889e-13 9.45034361e-16 1.10060660e-11 7.23336744e-14 8.83049889e-13
7.15596261e+00 1.17351860e-11 8.00009879e-13 7.53293509e-16 1.09344228e-11 6.37962193e-14 8.00009879e-13
7.39545150e+00 1.17207932e-11 7.24778763e-13 5.71907633e-16 1.09954425e-11 5.41745921e-14 7.24778763e-13
7.64295536e+00 1.20169236e-11 6.56622211e-13 3.82650085e-16 1.13599187e-11 4.29770382e-14 6.56622211e-13
7.89874245e+00 1.27404665e-11 5.94874946e-13 2.21415229e-16 1.21453702e-11 3.08823153e-14 5.94874946e-13
8.16308998e+00 1.38682600e-11 5.38934254e-13 1.22361587e-16 1.33292034e-11 2.19277053e-14 5.38934254e-13
8.43628443e+00 1.54388912e-11 4.88254098e-13 6.60971396e-17 1.49505710e-11 1.55968213e-14 4.88254098e-13
8.71862190e+00 1.65021174e-11 4.42339790e-13 4.24869002e-17 1.60597352e-11 1.21403754e-14 4.42339790e-13
9.01040836e+00 1.76458414e-11 4.00743158e-13 2.81898746e-17 1.72450700e-11 9.66399133e-15 4.00743158e-13
9.31196005e+00 1.83865088e-11 3.63058180e-13 0.00000000e+00 1.80234507e-11 0.00000000e+00 3.63058180e-13
9.62360379e+00 1.83636960e-11 3.28917012e-13 0.00000000e+00 1.80347790e-11 0.00000000e+00 3.28917012e-13
9.94567731e+00 1.76674463e-11 2.97986401e-13 0.00000000e+00 1.73694599e-11 0.00000000e+00 2.97986401e-13
1.02785297e+01 1.69179833e-11 2.69964435e-13 0.00000000e+00 1.66480189e-11 0.00000000e+00 2.69964435e-13
1.06225216e+01 1.59608270e-11 2.44577592e-13 0.00000000e+00 1.57162494e-11 0.00000000e+00 2.44577592e-13
1.09780260e+01 1.50976216e-11 2.21578069e-13 0.00000000e+00 1.48760436e-11 0.00000000e+00 2.21578069e-13
1.13454280e+01 1.44605878e-11 2.00741370e-13 0.00000000e+00 1.42598465e-11 0.00000000e+00 2.00741370e-13
1.17251259e+01 1.39071303e-11 1.81864106e-13 0.00000000e+00 1.37252662e-11 0.00000000e+00 1.81864106e-13
1.21175312e+01 1.35510042e-11 1.64762018e-13 0.00000000e+00 1.33862421e-11 0.00000000e+00 1.64762018e-13
1.25230691e+01 1.32896774e-11 1.49268171e-13 0.00000000e+00 1.31404092e-11 0.00000000e+00 1.49268171e-13
1.29421791e+01 1.30649945e-11 1.35231331e-13 0.00000000e+00 1.29297632e-11 0.00000000e+00 1.35231331e-13
1.33753155e+01 1.29940999e-11 1.22514483e-13 0.00000000e+00 1.28715854e-11 0.00000000e+00 1.22514483e-13
1.38229477e+01 1.29874846e-11 1.10993499e-13 0.00000000e+00 1.28764911e-11 0.00000000e+00 1.10993499e-13
1.42855609e+01 1.31636862e-11 1.00555922e-13 0.00000000e+00 1.30631303e-11 0.00000000e+00 1.00555922e-13
1.47636563e+01 1.34830536e-11 9.10998706e-14 0.00000000e+00 1.33919537e-11 0.00000000e+00 9.10998706e-14
1.52577522e+01 1.38382347e-11 8.25330452e-14 0.00000000e+00 1.37557017e-11 0.00000000e+00 8.25330452e-14
1.57683840e+01 1.41856954e-11 7.47718247e-14 0.00000000e+00 1.41109236e-11 0.00000000e+00 7.47718247e-14
1.62961051e+01 1.47409677e-11 6.77404517e-14 0.00000000e+00 1.46732273e-11 0.00000000e+00 6.77404517e-14
1.68414875e+01 1.50639978e-11 6.13702932e-14 0.00000000e+00 1.50026275e-11 0.00000000e+00 6.13702932e-14
1.74051222e+01 1.54345291e-11 5.55991699e-14 0.00000000e+00 1.53789300e-11 0.00000000e+00 5.55991699e-14
1.79876201e+01 1.57024637e-11 5.03707500e-14 0.00000000e+00 1.56520930e-11 0.00000000e+00 5.03707500e-14
1.85896125e+01 1.58832637e-11 4.56339988e-14 0.00000000e+00 1.58376297e-11 0.00000000e+00 4.56339988e-14
1.92117518e+01 1.60691735e-11 4.13426810e-14 0.00000000e+00 1.60278308e-11 0.00000000e+00 4.13426810e-14
1.98547123e+01 1.63732558e-11 3.74549090e-14 0.00000000e+00 1.63358009e-11 0.00000000e+00 3.74549090e-14
2.05191907e+01 1.64335284e-11 3.39327342e-14 0.00000000e+00 1.63995957e-11 0.00000000e+00 3.39327342e-14
2.12059073e+01 1.65046663e-11 3.07417768e-14 0.00000000e+00 1.64739245e-11 0.00000000e+00 3.07417768e-14
2.19156062e+01 1.65106492e-11 2.78508898e-14 0.00000000e+00 1.64827983e-11 0.00000000e+00 2.78508898e-14
2.26490567e+01 1.66647992e-11 2.52318552e-14 0.00000000e+00 1.66395673e-11 0.00000000e+00 2.52318552e-14
2.34070535e+01 1.67030128e-11 2.28591087e-14 0.00000000e+00 1.66801537e-11 0.00000000e+00 2.28591087e-14
2.41904183e+01 1.66214179e-11 2.07094900e-14 0.00000000e+00 1.66007085e-11 0.00000000e+00 2.07094900e-14
2.50000000e+01 1.65080095e-11 1.87620165e-14 0.00000000e+00 1.64892475e-11 0.00000000e+00 1.87620165e-14
2.75422870e+01 1.60198354e-11 1.40313526e-14 0.00000000e+00 1.60058040e-11 0.00000000e+00 1.40313526e-14
3.16227766e+01 1.46751285e-11 9.27042274e-15 0.00000000e+00 1.46658581e-11 0.00000000e+00 9.27042274e-15
3.63078055e+01 1.25677678e-11 6.12490756e-15 0.00000000e+00 1.25616429e-11 0.00000000e+00 6.12490756e-15
4.16869383e+01 1.01159560e-11 4.04668630e-15 0.00000000e+00 1.01119093e-11 0.00000000e+00 4.04668630e-15
4.78630092e+01 7.60498072e-12 2.67361912e-15 0.00000000e+00 7.60230710e-12 0.00000000e+00 2.67361912e-15
5.49540874e+01 5.35540061e-12 1.76644264e-15 0.00000000e+00 5.35363417e-12 0.00000000e+00 1.76644264e-15
6.30957344e+01 3.55566285e-12 1.16707708e-15 0.00000000e+00 3.55449578e-12 0.00000000e+00 1.16707708e-15
7.24435960e+01 2.24588666e-12 7.71080178e-16 0.00000000e+00 2.24511558e-12 0.00000000e+00 7.71080178e-16
8.31763771e+01 1.35991009e-12 5.09447621e-16 0.00000000e+00 1.35940064e-12 0.00000000e+00 5.09447621e-16
9.54992586e+01 7.96596354e-13 3.36588705e-16 0.00000000e+00 7.96259766e-13 0.00000000e+00 3.36588705e-16
1.09647820e+02 4.54498641e-13 2.22381952e-16 0.00000000e+00 4.54276259e-13 0.00000000e+00 2.22381952e-16
1.25892541e+02 2.56635237e-13 1.46926299e-16 0.00000000e+00 2.56488311e-13 0.00000000e+00 1.46926299e-16
1.44543977e+02 1.43371965e-13 9.70732430e-17 0.00000000e+00 1.43274892e-13 0.00000000e+00 9.70732430e-17
1.65958691e+02 7.62015771e-14 6.41356556e-17 0.00000000e+00 7.61374414e-14 0.00000000e+00 6.41356556e-17
1.90546072e+02 4.03494239e-14 4.23740075e-17 0.00000000e+00 4.03070499e-14 0.00000000e+00 4.23740075e-17
2.18776162e+02 2.12591829e-14 2.79962291e-17 0.00000000e+00 2.12311867e-14 0.00000000e+00 2.79962291e-17
2.51188643e+02 1.11376017e-14 1.84969251e-17 0.00000000e+00 1.11191048e-14 0.00000000e+00 1.84969251e-17
2.88403150e+02 5.79793890e-15 1.22207972e-17 0.00000000e+00 5.78571811e-15 0.00000000e+00 1.22207972e-17
3.31131121e+02 3.00682599e-15 8.07420067e-18 0.00000000e+00 2.99875179e-15 0.00000000e+00 8.07420067e-18
3.80189396e+02 1.55217774e-15 5.33457148e-18 0.00000000e+00 1.54684317e-15 0.00000000e+00 5.33457148e-18
4.36515832e+02 7.98859165e-16 3.52451642e-18 0.00000000e+00 7.95334648e-16 0.00000000e+00 3.52451642e-18
5.01187234e+02 4.09923773e-16 2.32862491e-18 0.00000000e+00 4.07595149e-16 0.00000000e+00 2.32862491e-18
5.75439937e+02 2.09859400e-16 1.53850722e-18 0.00000000e+00 2.08320893e-16 0.00000000e+00 1.53850722e-18
6.60693448e+02 1.07256821e-16 1.01648164e-18 0.00000000e+00 1.06240339e-16 0.00000000e+00 1.01648164e-18
7.58577575e+02 5.47452152e-17 6.71582760e-19 0.00000000e+00 5.40736324e-17 0.00000000e+00 6.71582760e-19
8.70963590e+02 2.79133690e-17 4.43710329e-19 0.00000000e+00 2.74696587e-17 0.00000000e+00 4.43710329e-19
1.00000000e+03 1.39300548e-17 0.00000000e+00 0.00000000e+00 1.39300548e-17 0.00000000e+00 0.00000000e+00
