# column 1: lambda (micron)
# column 2: total flux; lambda*F_lambda (W/m2)
# column 3: direct stellar flux; lambda*F_lambda (W/m2)
# column 4: scattered stellar flux; lambda*F_lambda (W/m2)
# column 5: total dust emission flux; lambda*F_lambda (W/m2)
# column 6: dust emission scattered flux; lambda*F_lambda (W/m2)
# column 7: transparent flux; lambda*F_lambda (W/m2)
1.00000000e-03 5.25639042e-13 5.25636674e-13 2.36855955e-18 0.00000000e+00 0.00000000e+00 5.25636674e-13
1.14815362e-03 6.20423453e-13 6.20419813e-13 3.63972873e-18 0.00000000e+00 0.00000000e+00 6.20419813e-13
1.31825674e-03 7.32300300e-13 7.32294308e-13 5.99204768e-18 0.00000000e+00 0.00000000e+00 7.32294308e-13
1.51356125e-03 8.64351880e-13 8.64342083e-13 9.79661569e-18 0.00000000e+00 0.00000000e+00 8.64342083e-13
1.73780083e-03 1.02021719e-12 1.02020080e-12 1.63950965e-17 0.00000000e+00 0.00000000e+00 1.02020080e-12
1.99526231e-03 1.20419460e-12 1.20416405e-12 3.05510878e-17 0.00000000e+00 0.00000000e+00 1.20416405e-12
2.29086765e-03 1.42134643e-12 1.42129968e-12 4.67512640e-17 0.00000000e+00 0.00000000e+00 1.42129968e-12
2.63026799e-03 1.67768716e-12 1.67758934e-12 9.78136371e-17 0.00000000e+00 0.00000000e+00 1.67758934e-12
3.01995172e-03 1.98024921e-12 1.98009332e-12 1.55886586e-16 0.00000000e+00 0.00000000e+00 1.98009332e-12
3.46736850e-03 2.33743100e-12 2.33714500e-12 2.85994254e-16 0.00000000e+00 0.00000000e+00 2.33714500e-12
3.98107171e-03 2.75902153e-12 2.75858048e-12 4.41049242e-16 0.00000000e+00 0.00000000e+00 2.75858048e-12
4.57088190e-03 3.25694262e-12 3.25600946e-12 9.33158286e-16 0.00000000e+00 0.00000000e+00 3.25600946e-12
5.24807460e-03 3.84492907e-12 3.84313516e-12 1.79390734e-15 0.00000000e+00 0.00000000e+00 3.84313516e-12
6.02559586e-03 4.53984080e-12 4.53613173e-12 3.70906947e-15 0.00000000e+00 0.00000000e+00 4.53613173e-12
6.91830971e-03 5.35931554e-12 5.35408989e-12 5.22564854e-15 0.00000000e+00 0.00000000e+00 5.35408989e-12
7.94328235e-03 6.32893881e-12 6.31954278e-12 9.39602175e-15 1.50629190e-303 1.17169940e-305 6.31954278e-12
9.12010839e-03 7.47346260e-12 7.45908676e-12 1.43758394e-14 8.50421054e-265 2.44824073e-266 7.45908676e-12
1.04712855e-02 8.35078012e-12 8.33078048e-12 1.99996473e-14 4.34855799e-231 6.70553632e-233 8.33078048e-12
1.20226443e-02 8.35950325e-12 8.33078048e-12 2.87227768e-14 8.11006457e-202 1.11605048e-203 8.33078048e-12
1.38038426e-02 8.37090974e-12 8.33078048e-12 4.01292610e-14 2.60324437e-176 6.35861816e-178 8.33078048e-12
1.58489319e-02 8.38449264e-12 8.33078048e-12 5.37121642e-14 4.03807211e-154 1.10291569e-155 8.33078048e-12
1.81970086e-02 8.41432552e-12 8.33078048e-12 8.35450441e-14 8.15545112e-135 2.89604037e-136 8.33078048e-12
2.08929613e-02 8.44305985e-12 8.33078048e-12 1.12279371e-13 4.68725554e-118 1.49775665e-119 8.33078048e-12
2.39883292e-02 8.46485309e-12 8.33078048e-12 1.34072610e-13 1.80360247e-103 6.74877214e-105 8.33078048e-12
2.75422870e-02 8.47895937e-12 8.33078048e-12 1.48178894e-13 8.72998950e-91 3.58742284e-92 8.33078048e-12
3.16227766e-02 8.48089654e-12 8.33078048e-12 1.50116064e-13 9.11745514e-80 4.21028476e-81 8.33078048e-12
3.63078055e-02 8.50078103e-12 8.33078048e-12 1.70000550e-13 3.34581270e-70 1.54516298e-71 8.33078048e-12
4.16869383e-02 8.50214348e-12 8.33078048e-12 1.71363005e-13 6.73675431e-62 3.80756281e-63 8.33078048e-12
4.78630092e-02 8.50720772e-12 8.33078048e-12 1.76427249e-13 1.06047437e-54 6.55557184e-56 8.33078048e-12
5.49540874e-02 8.50415460e-12 8.33078048e-12 1.73374120e-13 1.83038516e-48 1.25417389e-49 8.33078048e-12
6.30957344e-02 8.48712692e-12 8.33078048e-12 1.56346448e-13 6.05752322e-43 4.27596880e-44 8.33078048e-12
7.24435960e-02 8.46961060e-12 8.33078048e-12 1.38830128e-13 3.57795750e-38 2.39911204e-39 8.33078048e-12
8.31763771e-02 8.46373337e-12 8.33078048e-12 1.32952894e-13 3.75458649e-34 2.44377395e-35 8.33078048e-12
9.54992586e-02 8.47089254e-12 8.33078048e-12 1.40112066e-13 1.08324399e-30 7.13131020e-32 8.33078048e-12
1.09647820e-01 8.10004191e-12 7.95583672e-12 1.44205190e-13 9.45933355e-28 6.91704627e-29 7.95583672e-12
1.25892541e-01 7.57228733e-12 7.42481883e-12 1.47468491e-13 3.12973614e-25 2.26276762e-26 7.42481883e-12
1.44543977e-01 7.07383264e-12 6.92924411e-12 1.44588529e-13 4.34453066e-23 3.08767115e-24 6.92924411e-12
1.65958691e-01 6.61439864e-12 6.46674687e-12 1.47651776e-13 2.23819189e-21 1.74538009e-22 6.46674687e-12
1.90546072e-01 6.18786076e-12 6.03511933e-12 1.52741387e-13 4.76795869e-20 4.28105315e-21 6.03511933e-12
2.18776162e-01 5.77133921e-12 5.63230107e-12 1.39037579e-13 5.67946332e-19 5.29233392e-20 5.63230107e-12
2.51188643e-01 5.41451124e-12 5.25636919e-12 1.58135003e-13 7.03899189e-18 8.08819342e-19 5.25636919e-12
2.88403150e-01 5.06370285e-12 4.90552916e-12 1.58114469e-13 5.92263191e-17 6.75174623e-18 4.90552916e-12
3.31131121e-01 4.71918112e-12 4.57810618e-12 1.40733402e-13 3.41538536e-16 3.78694971e-17 4.57810618e-12
3.80189396e-01 4.40892018e-12 4.27253728e-12 1.34946738e-13 1.43615668e-15 1.57364016e-16 4.27253728e-12
4.36515832e-01 4.11662074e-12 3.98736380e-12 1.24680719e-13 4.57622649e-15 5.03315508e-16 3.98736380e-12
5.01187234e-01 3.85139572e-12 3.72122441e-12 1.18663566e-13 1.15077396e-14 1.25163675e-15 3.72122441e-12
5.75439937e-01 3.60687024e-12 3.47284869e-12 1.10053448e-13 2.39681104e-14 2.64670592e-15 3.47284869e-12
6.60693448e-01 3.38382637e-12 3.24105097e-12 9.96331109e-14 4.31422886e-14 4.92995395e-15 3.24105097e-12
7.58577575e-01 3.18666988e-12 3.02472476e-12 9.04290186e-14 7.15161043e-14 8.70248861e-15 3.02472476e-12
8.70963590e-01 3.01701905e-12 2.82283739e-12 7.95176083e-14 1.14664048e-13 1.54229433e-14 2.82283739e-12
1.00000000e+00 2.88653541e-12 2.63442513e-12 6.84627830e-14 1.83647496e-13 2.68058145e-14 2.63442513e-12
1.14815362e+00 2.82000118e-12 2.45858859e-12 5.72984719e-14 3.04114121e-13 4.59941989e-14 2.45858859e-12
1.31825674e+00 2.85251908e-12 2.29448837e-12 4.66763578e-14 5.11354353e-13 7.36139670e-14 2.29448837e-12
1.51356125e+00 3.00606873e-12 2.14134114e-12 3.60308640e-14 8.28696725e-13 1.07357915e-13 2.14134114e-12
1.73780083e+00 3.29265464e-12 1.99841583e-12 2.74770009e-14 1.26676181e-12 1.38365093e-13 1.99841583e-12
1.99526231e+00 3.63641528e-12 1.86503017e-12 2.05253636e-14 1.75085975e-12 1.54411123e-13 1.86503017e-12
2.29086765e+00 3.99126805e-12 1.74054743e-12 1.46535367e-14 2.23606708e-12 1.55180309e-13 1.74054743e-12
2.63026799e+00 4.29246267e-12 1.62437337e-12 1.04121198e-14 2.65767718e-12 1.43413595e-13 1.62437337e-12
3.01995172e+00 4.46253582e-12 1.51595343e-12 7.14431210e-15 2.93943807e-12 1.23792131e-13 1.51595343e-12
3.46736850e+00 4.52322055e-12 1.41477006e-12 5.21522573e-15 3.10323526e-12 1.02112848e-13 1.41477006e-12
3.98107171e+00 4.49598509e-12 1.32034025e-12 3.63385488e-15 3.17201099e-12 8.21105808e-14 1.32034025e-12
4.57088190e+00 4.38893133e-12 1.23221321e-12 2.53532486e-15 3.15418279e-12 6.17277301e-14 1.23221321e-12
5.24807460e+00 4.11046201e-12 1.01885146e-12 1.50693176e-15 3.09010362e-12 4.40791438e-14 1.01885146e-12
6.02559586e+00 3.67302843e-12 6.73148485e-13 6.96863739e-16 2.99918308e-12 2.96060579e-14 6.73148485e-13
6.70000000e+00 3.39993197e-12 4.89650796e-13 3.68970000e-16 2.90991220e-12 2.06368876e-14 4.89650796e-13
6.92422916e+00 3.32179096e-12 4.43605145e-13 2.97477440e-16 2.87788834e-12 1.83037455e-14 4.43605145e-13
7.15596261e+00 3.25419507e-12 4.01889522e-13 2.41611884e-16 2.85206394e-12 1.59587704e-14 4.01889522e-13
7.39545150e+00 3.21470490e-12 3.64096743e-13 1.82729854e-16 2.85042543e-12 1.35444567e-14 3.64096743e-13
7.64295536e+00 3.26500692e-12 3.29857910e-13 1.23650095e-16 2.93502536e-12 1.08071874e-14 3.29857910e-13
7.89874245e+00 3.45429476e-12 2.98838820e-13 7.11610749e-17 3.15538478e-12 7.92269113e-15 2.98838820e-13
8.16308998e+00 3.73639055e-12 2.70736695e-13 3.96630460e-17 3.46561419e-12 5.70436394e-15 2.70736695e-13
8.43628443e+00 4.10118570e-12 2.45277229e-13 2.09314223e-17 3.85588754e-12 3.92662418e-15 2.45277229e-13
8.71862190e+00 4.36017635e-12 2.22211915e-13 1.33836764e-17 4.13795105e-12 3.02819134e-15 2.22211915e-13
9.01040836e+00 4.55125861e-12 2.01315610e-13 8.55263504e-18 4.34993445e-12 2.24297421e-15 2.01315610e-13
9.31196005e+00 4.73763100e-12 1.82384346e-13 0.00000000e+00 4.55524665e-12 0.00000000e+00 1.82384346e-13
9.62360379e+00 4.63487352e-12 1.65233336e-13 0.00000000e+00 4.46964019e-12 0.00000000e+00 1.65233336e-13
9.94567731e+00 4.38851986e-12 1.49695167e-13 0.00000000e+00 4.23882469e-12 0.00000000e+00 1.49695167e-13
1.02785297e+01 4.08880816e-12 1.35618173e-13 0.00000000e+00 3.95318999e-12 0.00000000e+00 1.35618173e-13
1.06225216e+01 3.86018958e-12 1.22864947e-13 0.00000000e+00 3.73732463e-12 0.00000000e+00 1.22864947e-13
1.09780260e+01 3.56403588e-12 1.11311006e-13 0.00000000e+00 3.45272487e-12 0.00000000e+00 1.11311006e-13
1.13454280e+01 3.32708388e-12 1.00843571e-13 0.00000000e+00 3.22624031e-12 0.00000000e+00 1.00843571e-13
1.17251259e+01 3.14917096e-12 9.13604705e-14 0.00000000e+00 3.05781049e-12 0.00000000e+00 9.13604705e-14
1.21175312e+01 2.97394094e-12 8.27691389e-14 0.00000000e+00 2.89117181e-12 0.00000000e+00 8.27691389e-14
1.25230691e+01 2.80457187e-12 7.49857166e-14 0.00000000e+00 2.72958616e-12 0.00000000e+00 7.49857166e-14
1.29421791e+01 2.67189497e-12 6.79342298e-14 0.00000000e+00 2.60396074e-12 0.00000000e+00 6.79342298e-14
1.33753155e+01 2.54979482e-12 6.15458488e-14 0.00000000e+00 2.48824897e-12 0.00000000e+00 6.15458488e-14
1.38229477e+01 2.47348444e-12 5.57582167e-14 0.00000000e+00 2.41772622e-12 0.00000000e+00 5.57582167e-14
1.42855609e+01 2.41487531e-12 5.05148403e-14 0.00000000e+00 2.36436047e-12 0.00000000e+00 5.05148403e-14
1.47636563e+01 2.41622856e-12 4.57645392e-14 0.00000000e+00 2.37046403e-12 0.00000000e+00 4.57645392e-14
1.52577522e+01 2.42473845e-12 4.14609457e-14 0.00000000e+00 2.38327750e-12 0.00000000e+00 4.14609457e-14
1.57683840e+01 2.44410299e-12 3.75620523e-14 0.00000000e+00 2.40654094e-12 0.00000000e+00 3.75620523e-14
1.62961051e+01 2.45541161e-12 3.40298020e-14 0.00000000e+00 2.42138181e-12 0.00000000e+00 3.40298020e-14
1.68414875e+01 2.46958473e-12 3.08297166e-14 0.00000000e+00 2.43875501e-12 0.00000000e+00 3.08297166e-14
1.74051222e+01 2.46096745e-12 2.79305599e-14 0.00000000e+00 2.43303689e-12 0.00000000e+00 2.79305599e-14
1.79876201e+01 2.45839104e-12 2.53040334e-14 0.00000000e+00 2.43308701e-12 0.00000000e+00 2.53040334e-14
1.85896125e+01 2.42041925e-12 2.29244994e-14 0.00000000e+00 2.39749476e-12 0.00000000e+00 2.29244994e-14
1.92117518e+01 2.36440388e-12 2.07687314e-14 0.00000000e+00 2.34363514e-12 0.00000000e+00 2.07687314e-14
1.98547123e+01 2.31769196e-12 1.88156870e-14 0.00000000e+00 2.29887627e-12 0.00000000e+00 1.88156870e-14
2.05191907e+01 2.24933069e-12 1.70463024e-14 0.00000000e+00 2.23228439e-12 0.00000000e+00 1.70463024e-14
2.12059073e+01 2.19664543e-12 1.54433068e-14 0.00000000e+00 2.18120212e-12 0.00000000e+00 1.54433068e-14
2.19156062e+01 2.12450254e-12 1.39910532e-14 0.00000000e+00 2.11051149e-12 0.00000000e+00 1.39910532e-14
2.26490567e+01 2.06816739e-12 1.26753663e-14 0.00000000e+00 2.05549203e-12 0.00000000e+00 1.26753663e-14
2.34070535e+01 2.00030312e-12 1.14834036e-14 0.00000000e+00 1.98881972e-12 0.00000000e+00 1.14834036e-14
2.41904183e+01 1.93157727e-12 1.04035303e-14 0.00000000e+00 1.92117374e-12 0.00000000e+00 1.04035303e-14
2.50000000e+01 1.87594770e-12 9.42520591e-15 0.00000000e+00 1.86652249e-12 0.00000000e+00 9.42520591e-15
2.75422870e+01 1.67157531e-12 7.04872996e-15 0.00000000e+00 1.66452658e-12 0.00000000e+00 7.04872996e-15
3.16227766e+01 1.35634879e-12 4.65704970e-15 0.00000000e+00 1.35169174e-12 0.00000000e+00 4.65704970e-15
3.63078055e+01 1.04668734e-12 3.07688223e-15 0.00000000e+00 1.04361045e-12 0.00000000e+00 3.07688223e-15
4.16869383e+01 7.52791322e-13 2.03287593e-15 0.00000000e+00 7.50758446e-13 0.00000000e+00 2.03287593e-15
4.78630092e+01 5.08448854e-13 1.34310781e-15 0.00000000e+00 5.07105747e-13 0.00000000e+00 1.34310781e-15
5.49540874e+01 3.23346815e-13 8.87382527e-16 0.00000000e+00 3.22459433e-13 0.00000000e+00 8.87382527e-16
6.30957344e+01 1.96027911e-13 5.86287821e-16 0.00000000e+00 1.95441623e-13 0.00000000e+00 5.86287821e-16
7.24435960e+01 1.14405399e-13 3.87356522e-16 0.00000000e+00 1.14018043e-13 0.00000000e+00 3.87356522e-16
8.31763771e+01 6.49342864e-14 2.55923916e-16 0.00000000e+00 6.46783625e-14 0.00000000e+00 2.55923916e-16
9.54992586e+01 3.60748902e-14 1.69087255e-16 0.00000000e+00 3.59058029e-14 0.00000000e+00 1.69087255e-16
1.09647820e+02 1.97406197e-14 1.11714841e-16 0.00000000e+00 1.96289049e-14 0.00000000e+00 1.11714841e-16
1.25892541e+02 1.08100047e-14 7.38092637e-17 0.00000000e+00 1.07361954e-14 0.00000000e+00 7.38092637e-17
1.44543977e+02 5.88986531e-15 4.87652969e-17 0.00000000e+00 5.84110001e-15 0.00000000e+00 4.87652969e-17
1.65958691e+02 3.06091849e-15 3.22189122e-17 0.00000000e+00 3.02869958e-15 0.00000000e+00 3.22189122e-17
1.90546072e+02 1.59449576e-15 2.12868242e-17 0.00000000e+00 1.57320894e-15 0.00000000e+00 2.12868242e-17
2.18776162e+02 8.30429194e-16 1.40640653e-17 0.00000000e+00 8.16365128e-16 0.00000000e+00 1.40640653e-17
2.51188643e+02 4.31722504e-16 9.29203577e-18 0.00000000e+00 4.22430468e-16 0.00000000e+00 9.29203577e-18
2.88403150e+02 2.23855743e-16 6.13918715e-18 0.00000000e+00 2.17716556e-16 0.00000000e+00 6.13918715e-18
3.31131121e+02 1.16007395e-16 4.05612073e-18 0.00000000e+00 1.11951274e-16 0.00000000e+00 4.05612073e-18
3.80189396e+02 6.00580425e-17 2.67985239e-18 0.00000000e+00 5.73781901e-17 0.00000000e+00 2.67985239e-18
4.36515832e+02 3.11160344e-17 1.77056092e-18 0.00000000e+00 2.93454734e-17 0.00000000e+00 1.77056092e-18
5.01187234e+02 1.61432472e-17 1.16979800e-18 0.00000000e+00 1.49734492e-17 0.00000000e+00 1.16979800e-18
5.75439937e+02 8.39856482e-18 7.72877871e-19 0.00000000e+00 7.62568695e-18 0.00000000e+00 7.72877871e-19
6.60693448e+02 4.38787235e-18 5.10635346e-19 0.00000000e+00 3.87723700e-18 0.00000000e+00 5.10635346e-19
7.58577575e+02 2.30588380e-18 3.37373427e-19 0.00000000e+00 1.96851038e-18 0.00000000e+00 3.37373427e-19
8.70963590e+02 1.22083446e-18 2.22900413e-19 0.00000000e+00 9.97934049e-19 0.00000000e+00 2.22900413e-19
1.00000000e+03 5.05185994e-19 0.00000000e+00 0.00000000e+00 5.05185994e-19 0.00000000e+00 0.00000000e+00
