# column 1: lambda (micron)
# column 2: total flux; lambda*F_lambda (W/m2)
# column 3: direct stellar flux; lambda*F_lambda (W/m2)
# column 4: scattered stellar flux; lambda*F_lambda (W/m2)
# column 5: total dust emission flux; lambda*F_lambda (W/m2)
# column 6: dust emission scattered flux; lambda*F_lambda (W/m2)
# column 7: transparent flux; lambda*F_lambda (W/m2)
1.00000000e-03 8.46531148e-13 8.46529401e-13 1.74733540e-18 0.00000000e+00 0.00000000e+00 8.46529401e-13
1.14815362e-03 9.99178913e-13 9.99176121e-13 2.79209979e-18 0.00000000e+00 0.00000000e+00 9.99176121e-13
1.31825674e-03 1.17935275e-12 1.17934819e-12 4.55238186e-18 0.00000000e+00 0.00000000e+00 1.17934819e-12
1.51356125e-03 1.39201628e-12 1.39200901e-12 7.27383402e-18 0.00000000e+00 0.00000000e+00 1.39200901e-12
1.73780083e-03 1.64303023e-12 1.64301696e-12 1.32700134e-17 0.00000000e+00 0.00000000e+00 1.64301696e-12
1.99526231e-03 1.93931041e-12 1.93928682e-12 2.35900532e-17 0.00000000e+00 0.00000000e+00 1.93928682e-12
2.29086765e-03 2.28901820e-12 2.28898025e-12 3.79488695e-17 0.00000000e+00 0.00000000e+00 2.28898025e-12
2.63026799e-03 2.70180658e-12 2.70173063e-12 7.59557159e-17 0.00000000e+00 0.00000000e+00 2.70173063e-12
3.01995172e-03 3.18904426e-12 3.18890841e-12 1.35842447e-16 0.00000000e+00 0.00000000e+00 3.18890841e-12
3.46736850e-03 3.76416007e-12 3.76393440e-12 2.25663875e-16 0.00000000e+00 0.00000000e+00 3.76393440e-12
3.98107171e-03 4.44301981e-12 4.44264945e-12 3.70361531e-16 0.00000000e+00 0.00000000e+00 4.44264945e-12
4.57088190e-03 5.24450257e-12 5.24375082e-12 7.51749143e-16 0.00000000e+00 0.00000000e+00 5.24375082e-12
5.24807460e-03 6.19070632e-12 6.18930730e-12 1.39901620e-15 0.00000000e+00 0.00000000e+00 6.18930730e-12
6.02559586e-03 7.30804554e-12 7.30536713e-12 2.67841223e-15 0.00000000e+00 0.00000000e+00 7.30536713e-12
6.91830971e-03 8.62674951e-12 8.62267558e-12 4.07393089e-15 0.00000000e+00 0.00000000e+00 8.62267558e-12
7.94328235e-03 1.01846010e-11 1.01775219e-11 7.07906346e-15 1.40149963e-303 1.29950201e-305 1.01775219e-11
9.12010839e-03 1.20251446e-11 1.20127391e-11 1.24054837e-14 6.02830511e-265 2.54215165e-266 1.20127391e-11
1.04712855e-02 1.34323909e-11 1.34165878e-11 1.58030775e-14 2.36154620e-231 3.00732077e-233 1.34165878e-11
1.20226443e-02 1.34413585e-11 1.34165878e-11 2.47706174e-14 3.58386364e-202 7.51899090e-204 1.34165878e-11
1.38038426e-02 1.34596422e-11 1.34165878e-11 4.30543340e-14 9.46420195e-177 2.39367182e-178 1.34165878e-11
1.58489319e-02 1.34718155e-11 1.34165878e-11 5.52276189e-14 1.25267859e-154 4.41085871e-156 1.34165878e-11
1.81970086e-02 1.34838160e-11 1.34165878e-11 6.72282075e-14 2.15843437e-135 6.13887402e-137 1.34165878e-11
2.08929613e-02 1.35150838e-11 1.34165878e-11 9.84959857e-14 1.11215517e-118 4.34148743e-120 1.34165878e-11
2.39883292e-02 1.35431428e-11 1.34165878e-11 1.26554954e-13 3.84771124e-104 1.81820718e-105 1.34165878e-11
2.75422870e-02 1.35903410e-11 1.34165878e-11 1.73753197e-13 1.69748457e-91 9.03668650e-93 1.34165878e-11
3.16227766e-02 1.36144634e-11 1.34165878e-11 1.97875524e-13 1.64042666e-80 1.02461088e-81 1.34165878e-11
3.63078055e-02 1.36382593e-11 1.34165878e-11 2.21671435e-13 5.60092909e-71 3.53318530e-72 1.34165878e-11
4.16869383e-02 1.37081864e-11 1.34165878e-11 2.91598551e-13 1.06187212e-62 8.07740597e-64 1.34165878e-11
4.78630092e-02 1.37678154e-11 1.34165878e-11 3.51227562e-13 1.59170498e-55 1.34940725e-56 1.34165878e-11
5.49540874e-02 1.37911621e-11 1.34165878e-11 3.74574263e-13 2.61144180e-49 2.33291828e-50 1.34165878e-11
6.30957344e-02 1.37966945e-11 1.34165878e-11 3.80106663e-13 8.26011880e-44 7.41738419e-45 1.34165878e-11
7.24435960e-02 1.37502086e-11 1.34165878e-11 3.33620726e-13 4.65573244e-39 3.61112541e-40 1.34165878e-11
8.31763771e-02 1.37460666e-11 1.34165878e-11 3.29478796e-13 4.74000838e-35 3.61171323e-36 1.34165878e-11
9.54992586e-02 1.37569182e-11 1.34165878e-11 3.40330401e-13 1.33352099e-31 1.06591924e-32 1.34165878e-11
1.09647820e-01 1.31836399e-11 1.28127470e-11 3.70892954e-13 1.13901952e-28 9.91929449e-30 1.28127470e-11
1.25892541e-01 1.23179391e-11 1.19575512e-11 3.60387928e-13 3.72413451e-26 3.47108096e-27 1.19575512e-11
1.44543977e-01 1.15026662e-11 1.11594361e-11 3.43230083e-13 5.09224924e-24 4.74262608e-25 1.11594361e-11
1.65958691e-01 1.07638265e-11 1.04145917e-11 3.49234802e-13 2.58795759e-22 2.62631633e-23 1.04145917e-11
1.90546072e-01 1.00884111e-11 9.71946251e-12 3.68948590e-13 5.44228010e-21 6.17576174e-22 9.71946251e-12
2.18776162e-01 9.40440602e-12 9.07073019e-12 3.33675767e-13 6.35810556e-20 7.01079511e-21 9.07073019e-12
2.51188643e-01 8.85697129e-12 8.46529796e-12 3.91672542e-13 7.82507766e-19 1.05170539e-19 8.46529796e-12
2.88403150e-01 8.26571135e-12 7.90027573e-12 3.65429072e-13 6.54569109e-18 8.88430789e-19 7.90027573e-12
3.31131121e-01 7.71282785e-12 7.37296631e-12 3.39824010e-13 3.75326334e-17 4.99972265e-18 7.37296631e-12
3.80189396e-01 7.19148395e-12 6.88085251e-12 3.10474513e-13 1.56919251e-16 2.08033630e-17 6.88085251e-12
4.36515832e-01 6.70720796e-12 6.42158520e-12 2.85123432e-13 4.99324562e-16 6.52207468e-17 6.42158520e-12
5.01187234e-01 6.25256787e-12 5.99297201e-12 2.58312089e-13 1.28377239e-15 1.71831766e-16 5.99297201e-12
5.75439937e-01 5.82781209e-12 5.59296690e-12 2.31923318e-13 2.92187265e-15 4.18148919e-16 5.59296690e-12
6.60693448e-01 5.43304659e-12 5.21966041e-12 2.06682900e-13 6.70327853e-15 1.12977580e-15 5.21966041e-12
7.58577575e-01 5.07242326e-12 4.87127053e-12 1.84350445e-13 1.68022812e-14 3.26968913e-15 4.87127053e-12
8.70963590e-01 4.74804342e-12 4.54613417e-12 1.57771850e-13 4.41373953e-14 9.14172459e-15 4.54613417e-12
1.00000000e+00 4.48588332e-12 4.24269927e-12 1.32420497e-13 1.10763552e-13 2.24220475e-14 4.24269927e-12
1.14815362e+00 4.32062162e-12 3.95951734e-12 1.06704055e-13 2.54400229e-13 4.72349964e-14 3.95951734e-12
1.31825674e+00 4.31162325e-12 3.69523659e-12 8.40441731e-14 5.32342494e-13 8.66996138e-14 3.69523659e-12
1.51356125e+00 4.51087314e-12 3.44859544e-12 6.40691030e-14 9.98208602e-13 1.38849135e-13 3.44859544e-12
1.73780083e+00 4.91916052e-12 3.21841652e-12 4.80595200e-14 1.65268448e-12 1.91883565e-13 3.21841652e-12
1.99526231e+00 5.49917511e-12 3.00360106e-12 3.49137406e-14 2.46066031e-12 2.30208723e-13 3.00360106e-12
2.29086765e+00 6.12381700e-12 2.80312361e-12 2.46744712e-14 3.29601892e-12 2.43017673e-13 2.80312361e-12
2.63026799e+00 6.70688301e-12 2.61602716e-12 1.70326391e-14 4.07382321e-12 2.31181216e-13 2.61602716e-12
3.01995172e+00 7.15165146e-12 2.44141860e-12 1.18131495e-14 4.69841971e-12 2.07385360e-13 2.44141860e-12
3.46736850e+00 7.45641247e-12 2.27846441e-12 8.21859548e-15 5.16972947e-12 1.73421121e-13 2.27846441e-12
3.98107171e+00 7.56602291e-12 2.12638671e-12 5.75491503e-15 5.43388128e-12 1.40171598e-13 2.12638671e-12
4.57088190e+00 7.52481942e-12 1.98445954e-12 3.94404492e-15 5.53641583e-12 1.07242584e-13 1.98445954e-12
5.24807460e+00 7.19265885e-12 1.64084388e-12 2.33875666e-15 5.54947622e-12 7.79169595e-14 1.64084388e-12
6.02559586e+00 6.61087700e-12 1.08409480e-12 1.06491174e-15 5.52571729e-12 5.39331377e-14 1.08409480e-12
6.70000000e+00 6.25922474e-12 7.88574724e-13 5.61414587e-16 5.47008861e-12 3.89431683e-14 7.88574724e-13
6.92422916e+00 6.16320391e-12 7.14418944e-13 4.53137994e-16 5.44833183e-12 3.50527853e-14 7.14418944e-13
7.15596261e+00 6.07899693e-12 6.47236606e-13 3.59040674e-16 5.43140128e-12 3.08076822e-14 6.47236606e-13
7.39545150e+00 6.07619878e-12 5.86371942e-13 2.73337780e-16 5.48955350e-12 2.63816052e-14 5.86371942e-13
7.64295536e+00 6.19961183e-12 5.31230854e-13 1.84596457e-16 5.66819638e-12 2.10115787e-14 5.31230854e-13
7.89874245e+00 6.55800425e-12 4.81275108e-13 1.08944395e-16 6.07662020e-12 1.52981819e-14 4.81275108e-13
8.16308998e+00 7.09887555e-12 4.36017088e-13 6.00569187e-17 6.66279841e-12 1.09565042e-14 4.36017088e-13
8.43628443e+00 7.88504447e-12 3.95015029e-13 3.23230572e-17 7.48999712e-12 7.61471729e-15 3.95015029e-13
8.71862190e+00 8.39441406e-12 3.57868711e-13 2.06608966e-17 8.03652469e-12 5.90114109e-15 3.57868711e-13
9.01040836e+00 8.99861842e-12 3.24215549e-13 1.34464467e-17 8.67438942e-12 4.54877841e-15 3.24215549e-13
9.31196005e+00 9.44740567e-12 2.93727053e-13 0.00000000e+00 9.15367862e-12 0.00000000e+00 2.93727053e-13
9.62360379e+00 9.34152007e-12 2.66105627e-13 0.00000000e+00 9.07541445e-12 0.00000000e+00 2.66105627e-13
9.94567731e+00 8.93277149e-12 2.41081657e-13 0.00000000e+00 8.69168984e-12 0.00000000e+00 2.41081657e-13
1.02785297e+01 8.45683262e-12 2.18410884e-13 0.00000000e+00 8.23842173e-12 0.00000000e+00 2.18410884e-13
1.06225216e+01 7.93576392e-12 1.97872020e-13 0.00000000e+00 7.73789190e-12 0.00000000e+00 1.97872020e-13
1.09780260e+01 7.49635800e-12 1.79264583e-13 0.00000000e+00 7.31709341e-12 0.00000000e+00 1.79264583e-13
1.13454280e+01 7.09201169e-12 1.62406948e-13 0.00000000e+00 6.92960475e-12 0.00000000e+00 1.62406948e-13
1.17251259e+01 6.75918915e-12 1.47134567e-13 0.00000000e+00 6.61205458e-12 0.00000000e+00 1.47134567e-13
1.21175312e+01 6.47252680e-12 1.33298366e-13 0.00000000e+00 6.33922843e-12 0.00000000e+00 1.33298366e-13
1.25230691e+01 6.20474398e-12 1.20763289e-13 0.00000000e+00 6.08398069e-12 0.00000000e+00 1.20763289e-13
1.29421791e+01 6.04735008e-12 1.09406983e-13 0.00000000e+00 5.93794310e-12 0.00000000e+00 1.09406983e-13
1.33753155e+01 5.81931855e-12 9.91185987e-14 0.00000000e+00 5.72019995e-12 0.00000000e+00 9.91185987e-14
1.38229477e+01 5.72187454e-12 8.97977103e-14 0.00000000e+00 5.63207683e-12 0.00000000e+00 8.97977103e-14
1.42855609e+01 5.65371277e-12 8.13533371e-14 0.00000000e+00 5.57235943e-12 0.00000000e+00 8.13533371e-14
1.47636563e+01 5.67676740e-12 7.37030537e-14 0.00000000e+00 5.60306435e-12 0.00000000e+00 7.37030537e-14
1.52577522e+01 5.74447861e-12 6.67721855e-14 0.00000000e+00 5.67770642e-12 0.00000000e+00 6.67721855e-14
1.57683840e+01 5.80281037e-12 6.04930805e-14 0.00000000e+00 5.74231728e-12 0.00000000e+00 6.04930805e-14
1.62961051e+01 5.86581427e-12 5.48044484e-14 0.00000000e+00 5.81100982e-12 0.00000000e+00 5.48044484e-14
1.68414875e+01 5.96104230e-12 4.96507622e-14 0.00000000e+00 5.91139154e-12 0.00000000e+00 4.96507622e-14
1.74051222e+01 5.96186136e-12 4.49817171e-14 0.00000000e+00 5.91687964e-12 0.00000000e+00 4.49817171e-14
1.79876201e+01 5.92846368e-12 4.07517384e-14 0.00000000e+00 5.88771194e-12 0.00000000e+00 4.07517384e-14
1.85896125e+01 5.84383653e-12 3.69195372e-14 0.00000000e+00 5.80691699e-12 0.00000000e+00 3.69195372e-14
1.92117518e+01 5.73445708e-12 3.34477076e-14 0.00000000e+00 5.70100937e-12 0.00000000e+00 3.34477076e-14
1.98547123e+01 5.64171264e-12 3.03023610e-14 0.00000000e+00 5.61141028e-12 0.00000000e+00 3.03023610e-14
2.05191907e+01 5.48927169e-12 2.74527957e-14 0.00000000e+00 5.46181889e-12 0.00000000e+00 2.74527957e-14
2.12059073e+01 5.35737879e-12 2.48711970e-14 0.00000000e+00 5.33250759e-12 0.00000000e+00 2.48711970e-14
2.19156062e+01 5.19802923e-12 2.25323660e-14 0.00000000e+00 5.17549687e-12 0.00000000e+00 2.25323660e-14
2.26490567e+01 5.07132824e-12 2.04134733e-14 0.00000000e+00 5.05091477e-12 0.00000000e+00 2.04134733e-14
2.34070535e+01 4.91998978e-12 1.84938366e-14 0.00000000e+00 4.90149594e-12 0.00000000e+00 1.84938366e-14
2.41904183e+01 4.72591098e-12 1.67547181e-14 0.00000000e+00 4.70915626e-12 0.00000000e+00 1.67547181e-14
2.50000000e+01 4.56545721e-12 1.51791424e-14 0.00000000e+00 4.55027806e-12 0.00000000e+00 1.51791424e-14
2.75422870e+01 4.07810631e-12 1.13518661e-14 0.00000000e+00 4.06675444e-12 0.00000000e+00 1.13518661e-14
3.16227766e+01 3.31873607e-12 7.50010357e-15 0.00000000e+00 3.31123596e-12 0.00000000e+00 7.50010357e-15
3.63078055e+01 2.55562935e-12 4.95526929e-15 0.00000000e+00 2.55067408e-12 0.00000000e+00 4.95526929e-15
4.16869383e+01 1.84772924e-12 3.27391395e-15 0.00000000e+00 1.84445533e-12 0.00000000e+00 3.27391395e-15
4.78630092e+01 1.25629363e-12 2.16305350e-15 0.00000000e+00 1.25413058e-12 0.00000000e+00 2.16305350e-15
5.49540874e+01 8.09043437e-13 1.42911527e-15 0.00000000e+00 8.07614322e-13 0.00000000e+00 1.42911527e-15
6.30957344e+01 4.96574711e-13 9.44207098e-16 0.00000000e+00 4.95630504e-13 0.00000000e+00 9.44207098e-16
7.24435960e+01 2.92356666e-13 6.23831443e-16 0.00000000e+00 2.91732834e-13 0.00000000e+00 6.23831443e-16
8.31763771e+01 1.66923876e-13 4.12161347e-16 0.00000000e+00 1.66511714e-13 0.00000000e+00 4.12161347e-16
9.54992586e+01 9.32105780e-14 2.72312302e-16 0.00000000e+00 9.29382657e-14 0.00000000e+00 2.72312302e-16
1.09647820e+02 5.11172786e-14 1.79914953e-16 0.00000000e+00 5.09373636e-14 0.00000000e+00 1.79914953e-16
1.25892541e+02 2.79833725e-14 1.18868631e-16 0.00000000e+00 2.78645039e-14 0.00000000e+00 1.18868631e-16
1.44543977e+02 1.52325271e-14 7.85357256e-17 0.00000000e+00 1.51539913e-14 0.00000000e+00 7.85357256e-17
1.65958691e+02 7.91204236e-15 5.18880394e-17 0.00000000e+00 7.86015432e-15 0.00000000e+00 5.18880394e-17
1.90546072e+02 4.11238041e-15 3.42820876e-17 0.00000000e+00 4.07809833e-15 0.00000000e+00 3.42820876e-17
2.18776162e+02 2.13636165e-15 2.26499507e-17 0.00000000e+00 2.11371170e-15 0.00000000e+00 2.26499507e-17
2.51188643e+02 1.10688873e-15 1.49646740e-17 0.00000000e+00 1.09192406e-15 0.00000000e+00 1.49646740e-17
2.88403150e+02 5.71669835e-16 9.88706207e-18 0.00000000e+00 5.61782773e-16 0.00000000e+00 9.88706207e-18
3.31131121e+02 2.94940909e-16 6.53231713e-18 0.00000000e+00 2.88408592e-16 0.00000000e+00 6.53231713e-18
3.80189396e+02 1.51895183e-16 4.31585913e-18 0.00000000e+00 1.47579324e-16 0.00000000e+00 4.31585913e-18
4.36515832e+02 7.82167697e-17 2.85145985e-18 0.00000000e+00 7.53653099e-17 0.00000000e+00 2.85145985e-18
5.01187234e+02 4.02840982e-17 1.88394084e-18 0.00000000e+00 3.84001574e-17 0.00000000e+00 1.88394084e-18
5.75439937e+02 2.07759137e-17 1.24470737e-18 0.00000000e+00 1.95312064e-17 0.00000000e+00 1.24470737e-18
6.60693448e+02 1.07410001e-17 8.22370004e-19 0.00000000e+00 9.91863010e-18 0.00000000e+00 8.22370004e-19
7.58577575e+02 5.57374172e-18 5.43334473e-19 0.00000000e+00 5.03040725e-18 0.00000000e+00 5.43334473e-19
8.70963590e+02 2.90666640e-18 3.58977527e-19 0.00000000e+00 2.54768888e-18 0.00000000e+00 3.58977527e-19
1.00000000e+03 1.28861655e-18 0.00000000e+00 0.00000000e+00 1.28861655e-18 0.00000000e+00 0.00000000e+00
