# column 1: lambda (micron)
# column 2: total flux; lambda*F_lambda (W/m2)
# column 3: direct stellar flux; lambda*F_lambda (W/m2)
# column 4: scattered stellar flux; lambda*F_lambda (W/m2)
# column 5: total dust emission flux; lambda*F_lambda (W/m2)
# column 6: dust emission scattered flux; lambda*F_lambda (W/m2)
# column 7: transparent flux; lambda*F_lambda (W/m2)
1.00000000e-03 1.06956404e-12 1.06956192e-12 2.12264114e-18 0.00000000e+00 0.00000000e+00 1.07335627e-12
1.14815362e-03 1.26102175e-12 1.26099103e-12 3.07135886e-17 0.00000000e+00 0.00000000e+00 1.26690456e-12
1.31825674e-03 1.48649007e-12 1.48648492e-12 5.14427304e-18 0.00000000e+00 0.00000000e+00 1.49535359e-12
1.51356125e-03 1.75267353e-12 1.75266196e-12 1.15693519e-17 0.00000000e+00 0.00000000e+00 1.76499670e-12
1.73780083e-03 2.06856790e-12 2.06855315e-12 1.47539872e-17 0.00000000e+00 0.00000000e+00 2.08326203e-12
1.99526231e-03 2.43598533e-12 2.43592569e-12 5.96341705e-17 0.00000000e+00 0.00000000e+00 2.45891716e-12
2.29086765e-03 2.90920628e-12 2.87354176e-12 3.56645222e-14 0.00000000e+00 0.00000000e+00 2.90231066e-12
2.63026799e-03 3.38512546e-12 3.38500527e-12 1.20190174e-16 0.00000000e+00 0.00000000e+00 3.42565717e-12
3.01995172e-03 3.98464500e-12 3.98411380e-12 5.31204248e-16 0.00000000e+00 0.00000000e+00 4.04337385e-12
3.46736850e-03 4.71205309e-12 4.69014287e-12 2.19102194e-14 0.00000000e+00 0.00000000e+00 4.77247759e-12
3.98107171e-03 5.52257450e-12 5.52195348e-12 6.21019474e-16 0.00000000e+00 0.00000000e+00 5.63305378e-12
4.57088190e-03 6.58668229e-12 6.56104741e-12 2.56348798e-14 0.00000000e+00 0.00000000e+00 6.64880962e-12
5.24807460e-03 7.81499317e-12 7.71566413e-12 9.93290344e-14 0.00000000e+00 0.00000000e+00 7.84772720e-12
6.02559586e-03 9.08220698e-12 9.07521302e-12 6.99395097e-15 0.00000000e+00 0.00000000e+00 9.26283435e-12
6.91830971e-03 1.06877653e-11 1.06779292e-11 9.83604554e-15 0.00000000e+00 0.00000000e+00 1.09331145e-11
7.94328235e-03 1.27665348e-11 1.25689996e-11 1.97535146e-13 1.35977953e-304 2.81333588e-306 1.29045807e-11
9.12010839e-03 1.48625607e-11 1.47926310e-11 6.99297052e-14 1.22736950e-265 1.77604105e-267 1.52315429e-11
1.04712855e-02 1.65456691e-11 1.64905264e-11 5.51426056e-14 9.88555789e-232 2.32901638e-233 1.70115517e-11
1.20226443e-02 1.65644453e-11 1.64602801e-11 1.04165199e-13 2.71862008e-202 9.15919643e-204 1.70115517e-11
1.38038426e-02 1.65128454e-11 1.64244765e-11 8.83689022e-14 1.19826792e-176 4.05346774e-178 1.70115517e-11
1.58489319e-02 1.64556916e-11 1.63805833e-11 7.51082896e-14 2.45145775e-154 7.56735246e-156 1.70115517e-11
1.81970086e-02 1.64133870e-11 1.63402037e-11 7.31833624e-14 6.31731916e-135 2.22629027e-136 1.70115517e-11
2.08929613e-02 1.64045170e-11 1.63067153e-11 9.78017078e-14 4.54455208e-118 1.80909353e-119 1.70115517e-11
2.39883292e-02 1.63625037e-11 1.62634277e-11 9.90759921e-14 2.08959477e-103 7.76549978e-105 1.70115517e-11
2.75422870e-02 1.63170244e-11 1.62132211e-11 1.03803284e-13 1.19314019e-90 5.19511012e-92 1.70115517e-11
3.16227766e-02 1.62689807e-11 1.61641583e-11 1.04822440e-13 1.42783541e-79 6.19191153e-81 1.70115517e-11
3.63078055e-02 1.62346372e-11 1.61257797e-11 1.08857488e-13 5.92725588e-70 2.62634683e-71 1.70115517e-11
4.16869383e-02 1.62178526e-11 1.60926587e-11 1.25193944e-13 1.32304253e-61 6.76469716e-63 1.70115517e-11
4.78630092e-02 1.61457950e-11 1.60017130e-11 1.44081929e-13 2.28174337e-54 1.30119572e-55 1.70115517e-11
5.49540874e-02 1.60416668e-11 1.58760896e-11 1.65577172e-13 4.24253904e-48 2.67884728e-49 1.70115517e-11
6.30957344e-02 1.57648572e-11 1.55654088e-11 1.99448331e-13 1.48993590e-42 1.03948585e-43 1.70115517e-11
7.24435960e-02 1.54106160e-11 1.52052600e-11 2.05356032e-13 9.20120221e-38 6.36860783e-39 1.70115517e-11
8.31763771e-02 1.54371101e-11 1.52369673e-11 2.00142819e-13 1.02267032e-33 6.90657301e-35 1.70115517e-11
9.54992586e-02 1.55331366e-11 1.53303450e-11 2.02791606e-13 3.10550164e-30 2.11138518e-31 1.70115517e-11
1.09647820e-01 1.50923892e-11 1.49005004e-11 1.91888734e-13 2.85514563e-27 1.98199673e-28 1.62459122e-11
1.25892541e-01 1.42866804e-11 1.41201806e-11 1.66499829e-13 9.93332002e-25 6.78728637e-26 1.51615674e-11
1.44543977e-01 1.34788461e-11 1.33391868e-11 1.39659335e-13 1.43539726e-22 9.36661948e-24 1.41495980e-11
1.65958691e-01 1.26766975e-11 1.25413049e-11 1.35392621e-13 7.65102712e-21 5.51815087e-22 1.32051732e-11
1.90546072e-01 1.18183532e-11 1.16639380e-11 1.54414971e-13 1.66341270e-19 1.39010001e-20 1.23237846e-11
2.18776162e-01 1.09361261e-11 1.07822646e-11 1.53859527e-13 2.00242559e-18 1.70072625e-19 1.15012250e-11
2.51188643e-01 1.03622764e-11 1.01935182e-11 1.68732783e-13 2.54116533e-17 2.60932846e-18 1.07335677e-11
2.88403150e-01 9.74541792e-12 9.59688149e-12 1.48316269e-13 2.20157446e-16 2.34808765e-17 1.00171482e-11
3.31131121e-01 9.13732649e-12 9.00570871e-12 1.30317088e-13 1.30069342e-15 1.40577834e-16 9.34854667e-12
3.80189396e-01 8.56309436e-12 8.44296545e-12 1.14558786e-13 5.57012675e-15 6.08747794e-16 8.72457139e-12
4.36515832e-01 8.03589506e-12 7.91303180e-12 1.04786415e-13 1.80768496e-14 2.04536659e-15 8.14224377e-12
5.01187234e-01 7.55697407e-12 7.41476151e-12 9.61035807e-14 4.61089818e-14 5.38064462e-15 7.59878402e-12
5.75439937e-01 7.13086709e-12 6.94540423e-12 8.89113668e-14 9.65514900e-14 1.16352726e-14 7.09159786e-12
6.60693448e-01 6.75908810e-12 6.50315001e-12 8.41428865e-14 1.71795209e-13 2.13999962e-14 6.61826421e-12
7.58577575e-01 6.43286445e-12 6.08699783e-12 7.60037642e-14 2.69862857e-13 3.42503466e-14 6.17652353e-12
8.70963590e-01 6.14704829e-12 5.69619179e-12 6.78326591e-14 3.83023842e-13 4.87611207e-14 5.76426715e-12
1.00000000e+00 5.88649947e-12 5.32860738e-12 5.76813862e-14 5.00210707e-13 6.32458839e-14 5.37952711e-12
1.14815362e+00 5.65840081e-12 4.98306218e-12 4.86222411e-14 6.26716391e-13 7.64516314e-14 5.02046681e-12
1.31825674e+00 5.47398393e-12 4.65837734e-12 3.84442179e-14 7.77162379e-13 8.93432315e-14 4.68537225e-12
1.51356125e+00 5.34318015e-12 4.35336158e-12 2.96348821e-14 9.60183698e-13 9.84791097e-14 4.37264380e-12
1.73780083e+00 5.26265093e-12 4.06724122e-12 2.17400683e-14 1.17366964e-12 1.01615545e-13 4.08078863e-12
1.99526231e+00 5.21488793e-12 3.79904571e-12 1.48315421e-14 1.40101068e-12 9.56047136e-14 3.80841354e-12
2.29086765e+00 5.15921366e-12 3.54776141e-12 9.84528291e-15 1.60160697e-12 8.34430477e-14 3.55421832e-12
2.63026799e+00 5.05711173e-12 3.31249770e-12 6.79078314e-15 1.73782324e-12 6.73789088e-14 3.31698953e-12
3.01995172e+00 4.89202811e-12 3.09242995e-12 4.77472585e-15 1.79482344e-12 5.37650023e-14 3.09559474e-12
3.46736850e+00 4.67179040e-12 2.88671102e-12 3.27604917e-15 1.78180333e-12 4.18221390e-14 2.88897711e-12
3.98107171e+00 4.41946030e-12 2.69450704e-12 2.30156795e-15 1.72265169e-12 3.24912168e-14 2.69615031e-12
4.57088190e+00 4.15293211e-12 2.51498600e-12 1.57399611e-15 1.63637211e-12 2.44910009e-14 2.51619387e-12
5.24807460e+00 3.62607924e-12 2.07970433e-12 9.14723683e-16 1.54546020e-12 1.72553273e-14 2.08050667e-12
6.02559586e+00 2.84222484e-12 1.37413660e-12 4.07260710e-16 1.46768098e-12 1.16654610e-14 1.37457712e-12
6.70000000e+00 2.40277743e-12 9.99589048e-13 2.09860148e-16 1.40297853e-12 8.21367103e-15 9.99872685e-13
6.92422916e+00 2.28637587e-12 9.05598965e-13 1.67812199e-16 1.38060910e-12 7.23099387e-15 9.05846924e-13
7.15596261e+00 2.18864123e-12 8.20442414e-13 1.33949179e-16 1.36806487e-12 6.35767000e-15 8.20663132e-13
7.39545150e+00 2.11809417e-12 7.43285095e-13 1.01975842e-16 1.37470710e-12 5.44859978e-15 7.43489831e-13
7.64295536e+00 2.12010744e-12 6.73362402e-13 7.14118962e-17 1.44667363e-12 4.39622451e-15 6.73573732e-13
7.89874245e+00 2.21425805e-12 6.09985029e-13 4.28401305e-17 1.60423018e-12 3.31263834e-15 6.10232385e-13
8.16308998e+00 2.40017411e-12 5.52544945e-13 2.41036007e-17 1.84760506e-12 2.45781569e-15 5.52847515e-13
8.43628443e+00 2.67279436e-12 5.00478192e-13 1.32314333e-17 2.17230293e-12 1.76525057e-15 5.00858987e-13
8.71862190e+00 2.85460862e-12 4.53335483e-13 8.60173520e-18 2.40126453e-12 1.37179259e-15 4.53759343e-13
9.01040836e+00 3.01981206e-12 4.10623705e-13 5.87769589e-18 2.60918248e-12 1.05885686e-15 4.11088843e-13
9.31196005e+00 3.14283782e-12 3.71942272e-13 0.00000000e+00 2.77089554e-12 0.00000000e+00 3.72430980e-13
9.62360379e+00 3.10015035e-12 3.36954007e-13 0.00000000e+00 2.76319634e-12 0.00000000e+00 3.37408415e-13
9.94567731e+00 2.86602527e-12 3.05293000e-13 0.00000000e+00 2.56073227e-12 0.00000000e+00 3.05679292e-13
1.02785297e+01 2.66903619e-12 2.76617287e-13 0.00000000e+00 2.39241891e-12 0.00000000e+00 2.76933904e-13
1.06225216e+01 2.44776579e-12 2.50634940e-13 0.00000000e+00 2.19713085e-12 0.00000000e+00 2.50891667e-13
1.09780260e+01 2.21725330e-12 2.27097722e-13 0.00000000e+00 1.99015558e-12 0.00000000e+00 2.27298384e-13
1.13454280e+01 2.02678211e-12 2.05766293e-13 0.00000000e+00 1.82101582e-12 0.00000000e+00 2.05923759e-13
1.17251259e+01 1.86081538e-12 1.86434792e-13 0.00000000e+00 1.67438059e-12 0.00000000e+00 1.86559155e-13
1.21175312e+01 1.71253775e-12 1.68917840e-13 0.00000000e+00 1.54361991e-12 0.00000000e+00 1.69015555e-13
1.25230691e+01 1.58536985e-12 1.53045148e-13 0.00000000e+00 1.43232470e-12 0.00000000e+00 1.53121715e-13
1.29421791e+01 1.46447350e-12 1.38662081e-13 0.00000000e+00 1.32581142e-12 0.00000000e+00 1.38722496e-13
1.33753155e+01 1.36511979e-12 1.25629335e-13 0.00000000e+00 1.23949046e-12 0.00000000e+00 1.25677347e-13
1.38229477e+01 1.28976887e-12 1.13819020e-13 0.00000000e+00 1.17594985e-12 0.00000000e+00 1.13858934e-13
1.42855609e+01 1.24346302e-12 1.03117207e-13 0.00000000e+00 1.14034581e-12 0.00000000e+00 1.03151898e-13
1.47636563e+01 1.23179990e-12 9.34188031e-14 0.00000000e+00 1.13838110e-12 0.00000000e+00 9.34517274e-14
1.52577522e+01 1.23760455e-12 8.46319266e-14 0.00000000e+00 1.15297262e-12 0.00000000e+00 8.46637387e-14
1.57683840e+01 1.24878861e-12 7.66710208e-14 0.00000000e+00 1.17211759e-12 0.00000000e+00 7.67021526e-14
1.62961051e+01 1.25506169e-12 6.94588268e-14 0.00000000e+00 1.18560286e-12 0.00000000e+00 6.94892560e-14
1.68414875e+01 1.26024753e-12 6.29249680e-14 0.00000000e+00 1.19732256e-12 0.00000000e+00 6.29546439e-14
1.74051222e+01 1.25786464e-12 5.70063511e-14 0.00000000e+00 1.20085829e-12 0.00000000e+00 5.70345319e-14
1.79876201e+01 1.24074403e-12 5.16448219e-14 0.00000000e+00 1.18909921e-12 0.00000000e+00 5.16711337e-14
1.85896125e+01 1.21513836e-12 4.67882905e-14 0.00000000e+00 1.16835007e-12 0.00000000e+00 4.68120974e-14
1.92117518e+01 1.17351368e-12 4.23890825e-14 0.00000000e+00 1.13112460e-12 0.00000000e+00 4.24099939e-14
1.98547123e+01 1.12970164e-12 3.84038446e-14 0.00000000e+00 1.09129780e-12 0.00000000e+00 3.84218542e-14
2.05191907e+01 1.07668691e-12 3.47933960e-14 0.00000000e+00 1.04189351e-12 0.00000000e+00 3.48087501e-14
2.12059073e+01 1.02865330e-12 3.15223261e-14 0.00000000e+00 9.97130969e-13 0.00000000e+00 3.15354141e-14
2.19156062e+01 9.84250473e-13 2.85586844e-14 0.00000000e+00 9.55691788e-13 0.00000000e+00 2.85698952e-14
2.26490567e+01 9.39173597e-13 2.58736288e-14 0.00000000e+00 9.13299968e-13 0.00000000e+00 2.58832470e-14
2.34070535e+01 8.97085176e-13 2.34409781e-14 0.00000000e+00 8.73644197e-13 0.00000000e+00 2.34492452e-14
2.41904183e+01 8.54081866e-13 2.12370075e-14 0.00000000e+00 8.32844858e-13 0.00000000e+00 2.12441313e-14
2.50000000e+01 8.13228855e-13 1.92402296e-14 0.00000000e+00 7.93988625e-13 0.00000000e+00 1.92463813e-14
2.75422870e+01 7.01547529e-13 1.43895776e-14 0.00000000e+00 6.87157951e-13 0.00000000e+00 1.43935895e-14
3.16227766e+01 5.49817511e-13 9.50754602e-15 0.00000000e+00 5.40309965e-13 0.00000000e+00 9.50975027e-15
3.63078055e+01 4.09451262e-13 6.28182500e-15 0.00000000e+00 4.03169437e-13 0.00000000e+00 6.28302969e-15
4.16869383e+01 2.85905215e-13 4.15051558e-15 0.00000000e+00 2.81754699e-13 0.00000000e+00 4.15115655e-15
4.78630092e+01 1.87012280e-13 2.74231149e-15 0.00000000e+00 1.84269969e-13 0.00000000e+00 2.74264194e-15
5.49540874e+01 1.16448201e-13 1.81187883e-15 0.00000000e+00 1.14636322e-13 0.00000000e+00 1.81204556e-15
6.30957344e+01 6.94672227e-14 1.19712357e-15 0.00000000e+00 6.82700991e-14 0.00000000e+00 1.19720663e-15
7.24435960e+01 4.01216790e-14 7.90945497e-16 0.00000000e+00 3.93307335e-14 0.00000000e+00 7.90986575e-16
8.31763771e+01 2.26582119e-14 5.22579363e-16 0.00000000e+00 2.21356326e-14 0.00000000e+00 5.22599647e-16
9.54992586e+01 1.25941230e-14 3.45268123e-16 0.00000000e+00 1.22488549e-14 0.00000000e+00 3.45278163e-16
1.09647820e+02 6.92140861e-15 2.28118033e-16 0.00000000e+00 6.69329057e-15 0.00000000e+00 2.28123020e-16
1.25892541e+02 3.81610389e-15 1.50716871e-16 0.00000000e+00 3.66538702e-15 0.00000000e+00 1.50719385e-16
1.44543977e+02 2.09916519e-15 9.95780334e-17 0.00000000e+00 1.99958716e-15 0.00000000e+00 9.95793099e-17
1.65958691e+02 1.10484267e-15 6.57907717e-17 0.00000000e+00 1.03905190e-15 0.00000000e+00 6.57913976e-17
1.90546072e+02 5.84578771e-16 4.34676354e-17 0.00000000e+00 5.41111136e-16 0.00000000e+00 4.34679453e-17
2.18776162e+02 3.10338090e-16 2.87188323e-17 0.00000000e+00 2.81619258e-16 0.00000000e+00 2.87189867e-17
2.51188643e+02 1.65136135e-16 1.89743692e-17 0.00000000e+00 1.46161766e-16 0.00000000e+00 1.89744463e-17
2.88403150e+02 8.80818366e-17 1.25362538e-17 0.00000000e+00 7.55455828e-17 0.00000000e+00 1.25362924e-17
3.31131121e+02 4.72357956e-17 8.28262688e-18 0.00000000e+00 3.89531687e-17 0.00000000e+00 8.28264623e-18
3.80189396e+02 2.54869945e-17 5.47228040e-18 0.00000000e+00 2.00147141e-17 0.00000000e+00 5.47229010e-18
4.36515832e+02 1.38758014e-17 3.61550134e-18 0.00000000e+00 1.02603001e-17 0.00000000e+00 3.61550621e-18
5.01187234e+02 7.63503243e-18 2.38873882e-18 0.00000000e+00 5.24629361e-18 0.00000000e+00 2.38874127e-18
5.75439937e+02 4.25509756e-18 1.57822448e-18 0.00000000e+00 2.67687309e-18 0.00000000e+00 1.57822570e-18
6.60693448e+02 2.40604469e-18 1.04272277e-18 0.00000000e+00 1.36332193e-18 0.00000000e+00 1.04272338e-18
7.58577575e+02 1.38214010e-18 6.88920197e-19 0.00000000e+00 6.93219902e-19 0.00000000e+00 6.88920507e-19
8.70963590e+02 8.07062596e-19 4.55165109e-19 0.00000000e+00 3.51897487e-19 0.00000000e+00 4.55165265e-19
1.00000000e+03 1.78352191e-19 0.00000000e+00 0.00000000e+00 1.78352191e-19 0.00000000e+00 0.00000000e+00
