# column 1: lambda (micron)
# column 2: total flux; lambda*F_lambda (W/m2)
# column 3: direct stellar flux; lambda*F_lambda (W/m2)
# column 4: scattered stellar flux; lambda*F_lambda (W/m2)
# column 5: total dust emission flux; lambda*F_lambda (W/m2)
# column 6: dust emission scattered flux; lambda*F_lambda (W/m2)
# column 7: transparent flux; lambda*F_lambda (W/m2)
1.00000000e-03 1.07335655e-12 1.07335627e-12 2.79478291e-19 0.00000000e+00 0.00000000e+00 1.07335627e-12
1.14815362e-03 1.26690500e-12 1.26690456e-12 4.47469527e-19 0.00000000e+00 0.00000000e+00 1.26690456e-12
1.31825674e-03 1.49535432e-12 1.49535359e-12 7.33673982e-19 0.00000000e+00 0.00000000e+00 1.49535359e-12
1.51356125e-03 1.76499780e-12 1.76499670e-12 1.10311218e-18 0.00000000e+00 0.00000000e+00 1.76499670e-12
1.73780083e-03 2.08326402e-12 2.08326203e-12 1.99484652e-18 0.00000000e+00 0.00000000e+00 2.08326203e-12
1.99526231e-03 2.45892072e-12 2.45891716e-12 3.56244627e-18 0.00000000e+00 0.00000000e+00 2.45891716e-12
2.29086765e-03 2.90231624e-12 2.90231066e-12 5.57394470e-18 0.00000000e+00 0.00000000e+00 2.90231066e-12
2.63026799e-03 3.42566851e-12 3.42565717e-12 1.13458888e-17 0.00000000e+00 0.00000000e+00 3.42565717e-12
3.01995172e-03 4.04339275e-12 4.04337385e-12 1.89065339e-17 0.00000000e+00 0.00000000e+00 4.04337385e-12
3.46736850e-03 4.77250931e-12 4.77247759e-12 3.17183422e-17 0.00000000e+00 0.00000000e+00 4.77247759e-12
3.98107171e-03 5.63310342e-12 5.63305378e-12 4.96431969e-17 0.00000000e+00 0.00000000e+00 5.63305378e-12
4.57088190e-03 6.64891989e-12 6.64880962e-12 1.10266931e-16 0.00000000e+00 0.00000000e+00 6.64880962e-12
5.24807460e-03 7.84805632e-12 7.84772720e-12 3.29119634e-16 0.00000000e+00 0.00000000e+00 7.84772720e-12
6.02559586e-03 9.26319902e-12 9.26283435e-12 3.64662492e-16 0.00000000e+00 0.00000000e+00 9.26283435e-12
6.91830971e-03 1.09336923e-11 1.09331145e-11 5.77741871e-16 0.00000000e+00 0.00000000e+00 1.09331145e-11
7.94328235e-03 1.29055371e-11 1.29045807e-11 9.56415766e-16 0.00000000e+00 0.00000000e+00 1.29045807e-11
9.12010839e-03 1.52333350e-11 1.52315429e-11 1.79209498e-15 0.00000000e+00 0.00000000e+00 1.52315429e-11
1.04712855e-02 1.70135751e-11 1.70115517e-11 2.02342932e-15 0.00000000e+00 0.00000000e+00 1.70115517e-11
1.20226443e-02 1.70145742e-11 1.70115517e-11 3.02245476e-15 0.00000000e+00 0.00000000e+00 1.70115517e-11
1.38038426e-02 1.70158581e-11 1.70115517e-11 4.30633564e-15 1.70594809e-289 9.97684048e-291 1.70115517e-11
1.58489319e-02 1.70176210e-11 1.70115517e-11 6.06924748e-15 8.54583845e-253 7.06669940e-254 1.70115517e-11
1.81970086e-02 1.70205294e-11 1.70115517e-11 8.97767812e-15 7.16079863e-221 4.62737231e-222 1.70115517e-11
2.08929613e-02 1.70238781e-11 1.70115517e-11 1.23264127e-14 4.25699697e-193 3.62160477e-194 1.70115517e-11
2.39883292e-02 1.70289872e-11 1.70115517e-11 1.74354788e-14 6.15688939e-169 4.23841553e-170 1.70115517e-11
2.75422870e-02 1.70332952e-11 1.70115517e-11 2.17434785e-14 6.73372375e-148 4.94232187e-149 1.70115517e-11
3.16227766e-02 1.70400762e-11 1.70115517e-11 2.85245304e-14 1.34633270e-129 9.83361291e-131 1.70115517e-11
3.63078055e-02 1.70451831e-11 1.70115517e-11 3.36314256e-14 1.12294543e-113 8.16980816e-115 1.70115517e-11
4.16869383e-02 1.70589720e-11 1.70115517e-11 4.74202610e-14 8.07704001e-100 7.27643134e-101 1.70115517e-11
4.78630092e-02 1.70771382e-11 1.70115517e-11 6.55864352e-14 9.15762110e-88 9.77848402e-89 1.70115517e-11
5.49540874e-02 1.70963644e-11 1.70115517e-11 8.48127009e-14 2.79219182e-77 3.53985536e-78 1.70115517e-11
6.30957344e-02 1.71182382e-11 1.70115517e-11 1.06686467e-13 4.73245805e-68 6.95065691e-69 1.70115517e-11
7.24435960e-02 1.71177170e-11 1.70115517e-11 1.06165323e-13 4.83389740e-60 7.40117304e-61 1.70115517e-11
8.31763771e-02 1.71185911e-11 1.70115517e-11 1.07039374e-13 3.59253863e-53 5.64014983e-54 1.70115517e-11
9.54992586e-02 1.71230973e-11 1.70115517e-11 1.11545610e-13 3.31192943e-47 5.56091471e-48 1.70115517e-11
1.09647820e-01 1.63620567e-11 1.62459122e-11 1.16144538e-13 4.64200719e-42 8.50400399e-43 1.62459122e-11
1.25892541e-01 1.52623543e-11 1.51615674e-11 1.00786899e-13 1.30643637e-37 2.35348739e-38 1.51615674e-11
1.44543977e-01 1.42388233e-11 1.41495980e-11 8.92253338e-14 8.80241810e-34 1.54652842e-34 1.41495980e-11
1.65958691e-01 1.33005055e-11 1.32051732e-11 9.53323097e-14 1.36797566e-30 2.58463842e-31 1.32051732e-11
1.90546072e-01 1.24361470e-11 1.23237846e-11 1.12362333e-13 5.59271869e-28 1.22716048e-28 1.23237846e-11
2.18776162e-01 1.16163041e-11 1.15012250e-11 1.15079101e-13 8.60505550e-26 2.00744864e-26 1.15012250e-11
2.51188643e-01 1.08700132e-11 1.07335677e-11 1.36445450e-13 1.11875746e-23 3.01701606e-24 1.07335677e-11
2.88403150e-01 1.01404032e-11 1.00171482e-11 1.23254916e-13 7.22776975e-22 1.90125266e-22 1.00171482e-11
3.31131121e-01 9.45621135e-12 9.34854667e-12 1.07664650e-13 2.52267054e-20 6.41227727e-21 9.34854667e-12
3.80189396e-01 8.82394258e-12 8.72457139e-12 9.93706690e-14 5.20732884e-19 1.29743298e-19 8.72457139e-12
4.36515832e-01 8.23514591e-12 8.14224377e-12 9.28953082e-14 6.83545292e-18 1.68351762e-18 8.14224377e-12
5.01187234e-01 7.68547584e-12 7.59878402e-12 8.66309511e-14 6.08722399e-17 1.47571661e-17 7.59878402e-12
5.75439937e-01 7.17328333e-12 7.09159786e-12 8.12998680e-14 3.85594481e-16 9.15351487e-17 7.09159786e-12
6.60693448e-01 6.69685777e-12 6.61826421e-12 7.67758838e-14 1.81768287e-15 4.21984871e-16 6.61826421e-12
7.58577575e-01 6.25523100e-12 6.17652353e-12 7.19647116e-14 6.74275588e-15 1.51634824e-15 6.17652353e-12
8.70963590e-01 5.84875274e-12 5.76426715e-12 6.40433934e-14 2.04421914e-14 4.37015269e-15 5.76426715e-12
1.00000000e+00 5.48770915e-12 5.37952711e-12 5.63438015e-14 5.18382400e-14 1.03214095e-14 5.37952711e-12
1.14815362e+00 5.18250214e-12 5.02046681e-12 4.69669549e-14 1.15068377e-13 2.06871260e-14 5.02046681e-12
1.31825674e+00 4.95212501e-12 4.68537225e-12 3.84647396e-14 2.28288021e-13 3.59793773e-14 4.68537225e-12
1.51356125e+00 4.80649199e-12 4.37264380e-12 2.93509023e-14 4.04497289e-13 5.36925263e-14 4.37264380e-12
1.73780083e+00 4.74597301e-12 4.08078863e-12 2.22149781e-14 6.42969398e-13 7.02538822e-14 4.08078863e-12
1.99526231e+00 4.73562090e-12 3.80841354e-12 1.59859258e-14 9.11221438e-13 7.75608967e-14 3.80841354e-12
2.29086765e+00 4.74188906e-12 3.55421832e-12 1.10395680e-14 1.17663118e-12 7.57415158e-14 3.55421832e-12
2.63026799e+00 4.71166001e-12 3.31698953e-12 7.64361705e-15 1.38702687e-12 6.67494471e-14 3.31698953e-12
3.01995172e+00 4.62612783e-12 3.09559474e-12 5.16663134e-15 1.52536645e-12 5.39657735e-14 3.09559474e-12
3.46736850e+00 4.46997844e-12 2.88897711e-12 3.49145086e-15 1.57750988e-12 4.09852021e-14 2.88897711e-12
3.98107171e+00 4.24398279e-12 2.69615031e-12 2.38458155e-15 1.54544789e-12 2.93945495e-14 2.69615031e-12
4.57088190e+00 3.96782887e-12 2.51619387e-12 1.56823740e-15 1.45006675e-12 1.96705859e-14 2.51619387e-12
5.24807460e+00 3.40438914e-12 2.08050667e-12 8.95160160e-16 1.32298731e-12 1.24808335e-14 2.08050667e-12
6.02559586e+00 2.56905275e-12 1.37457712e-12 3.97849883e-16 1.19407777e-12 7.51510236e-15 1.37457712e-12
6.70000000e+00 2.09356993e-12 9.99872685e-13 2.03813992e-16 1.09349343e-12 4.87706207e-15 9.99872685e-13
6.92422916e+00 1.96797815e-12 9.05846924e-13 1.63244910e-16 1.06196798e-12 4.21452699e-15 9.05846924e-13
7.15596261e+00 1.86285847e-12 8.20663132e-13 1.32400317e-16 1.04206294e-12 3.61857305e-15 8.20663132e-13
7.39545150e+00 1.79068965e-12 7.43489831e-13 9.95699301e-17 1.04710025e-12 3.09149906e-15 7.43489831e-13
7.64295536e+00 1.79689082e-12 6.73573732e-13 6.84499089e-17 1.12324864e-12 2.58309711e-15 6.73573732e-13
7.89874245e+00 1.91882131e-12 6.10232385e-13 4.10061211e-17 1.30854792e-12 2.06127727e-15 6.10232385e-13
8.16308998e+00 2.11664808e-12 5.52847515e-13 2.43235101e-17 1.56377624e-12 1.63313364e-15 5.52847515e-13
8.43628443e+00 2.41256532e-12 5.00858987e-13 1.38420347e-17 1.91169249e-12 1.25339326e-15 5.00858987e-13
8.71862190e+00 2.60509657e-12 4.53759343e-13 9.08229873e-18 2.15132815e-12 9.91099843e-16 4.53759343e-13
9.01040836e+00 2.79620754e-12 4.11088843e-13 5.92154904e-18 2.38511277e-12 7.65403535e-16 4.11088843e-13
9.31196005e+00 2.95188647e-12 3.72430980e-13 0.00000000e+00 2.57945549e-12 0.00000000e+00 3.72430980e-13
9.62360379e+00 2.88963685e-12 3.37408415e-13 0.00000000e+00 2.55222844e-12 0.00000000e+00 3.37408415e-13
9.94567731e+00 2.68517480e-12 3.05679292e-13 0.00000000e+00 2.37949551e-12 0.00000000e+00 3.05679292e-13
1.02785297e+01 2.44723909e-12 2.76933904e-13 0.00000000e+00 2.17030518e-12 0.00000000e+00 2.76933904e-13
1.06225216e+01 2.21472343e-12 2.50891667e-13 0.00000000e+00 1.96383176e-12 0.00000000e+00 2.50891667e-13
1.09780260e+01 1.96785608e-12 2.27298384e-13 0.00000000e+00 1.74055770e-12 0.00000000e+00 2.27298384e-13
1.13454280e+01 1.76103690e-12 2.05923759e-13 0.00000000e+00 1.55511314e-12 0.00000000e+00 2.05923759e-13
1.17251259e+01 1.58824004e-12 1.86559155e-13 0.00000000e+00 1.40168088e-12 0.00000000e+00 1.86559155e-13
1.21175312e+01 1.43022890e-12 1.69015555e-13 0.00000000e+00 1.26121334e-12 0.00000000e+00 1.69015555e-13
1.25230691e+01 1.29211896e-12 1.53121715e-13 0.00000000e+00 1.13899724e-12 0.00000000e+00 1.53121715e-13
1.29421791e+01 1.17742989e-12 1.38722496e-13 0.00000000e+00 1.03870740e-12 0.00000000e+00 1.38722496e-13
1.33753155e+01 1.07853290e-12 1.25677347e-13 0.00000000e+00 9.52855553e-13 0.00000000e+00 1.25677347e-13
1.38229477e+01 1.01203197e-12 1.13858934e-13 0.00000000e+00 8.98173034e-13 0.00000000e+00 1.13858934e-13
1.42855609e+01 9.75659146e-13 1.03151898e-13 0.00000000e+00 8.72507248e-13 0.00000000e+00 1.03151898e-13
1.47636563e+01 9.82692853e-13 9.34517274e-14 0.00000000e+00 8.89241125e-13 0.00000000e+00 9.34517274e-14
1.52577522e+01 1.00020260e-12 8.46637387e-14 0.00000000e+00 9.15538865e-13 0.00000000e+00 8.46637387e-14
1.57683840e+01 1.02763619e-12 7.67021526e-14 0.00000000e+00 9.50934039e-13 0.00000000e+00 7.67021526e-14
1.62961051e+01 1.05735863e-12 6.94892560e-14 0.00000000e+00 9.87869370e-13 0.00000000e+00 6.94892560e-14
1.68414875e+01 1.09203558e-12 6.29546439e-14 0.00000000e+00 1.02908093e-12 0.00000000e+00 6.29546439e-14
1.74051222e+01 1.10887470e-12 5.70345319e-14 0.00000000e+00 1.05184017e-12 0.00000000e+00 5.70345319e-14
1.79876201e+01 1.12306707e-12 5.16711337e-14 0.00000000e+00 1.07139593e-12 0.00000000e+00 5.16711337e-14
1.85896125e+01 1.12219996e-12 4.68120974e-14 0.00000000e+00 1.07538787e-12 0.00000000e+00 4.68120974e-14
1.92117518e+01 1.10381456e-12 4.24099939e-14 0.00000000e+00 1.06140457e-12 0.00000000e+00 4.24099939e-14
1.98547123e+01 1.07455736e-12 3.84218542e-14 0.00000000e+00 1.03613551e-12 0.00000000e+00 3.84218542e-14
2.05191907e+01 1.04962663e-12 3.48087501e-14 0.00000000e+00 1.01481788e-12 0.00000000e+00 3.48087501e-14
2.12059073e+01 1.02543284e-12 3.15354141e-14 0.00000000e+00 9.93897428e-13 0.00000000e+00 3.15354141e-14
2.19156062e+01 1.00332253e-12 2.85698952e-14 0.00000000e+00 9.74752634e-13 0.00000000e+00 2.85698952e-14
2.26490567e+01 9.80842661e-13 2.58832470e-14 0.00000000e+00 9.54959414e-13 0.00000000e+00 2.58832470e-14
2.34070535e+01 9.64524338e-13 2.34492452e-14 0.00000000e+00 9.41075093e-13 0.00000000e+00 2.34492452e-14
2.41904183e+01 9.47752938e-13 2.12441313e-14 0.00000000e+00 9.26508807e-13 0.00000000e+00 2.12441313e-14
2.50000000e+01 9.33445205e-13 1.92463813e-14 0.00000000e+00 9.14198824e-13 0.00000000e+00 1.92463813e-14
2.75422870e+01 8.86753971e-13 1.43935895e-14 0.00000000e+00 8.72360381e-13 0.00000000e+00 1.43935895e-14
3.16227766e+01 8.10524265e-13 9.50975027e-15 0.00000000e+00 8.01014515e-13 0.00000000e+00 9.50975027e-15
3.63078055e+01 7.08384131e-13 6.28302969e-15 0.00000000e+00 7.02101101e-13 0.00000000e+00 6.28302969e-15
4.16869383e+01 5.81683467e-13 4.15115655e-15 0.00000000e+00 5.77532311e-13 0.00000000e+00 4.15115655e-15
4.78630092e+01 4.47478794e-13 2.74264194e-15 0.00000000e+00 4.44736152e-13 0.00000000e+00 2.74264194e-15
5.49540874e+01 3.23517756e-13 1.81204556e-15 0.00000000e+00 3.21705710e-13 0.00000000e+00 1.81204556e-15
6.30957344e+01 2.22087192e-13 1.19720663e-15 0.00000000e+00 2.20889986e-13 0.00000000e+00 1.19720663e-15
7.24435960e+01 1.45477457e-13 7.90986575e-16 0.00000000e+00 1.44686470e-13 0.00000000e+00 7.90986575e-16
8.31763771e+01 9.16768164e-14 5.22599647e-16 0.00000000e+00 9.11542167e-14 0.00000000e+00 5.22599647e-16
9.54992586e+01 5.60139122e-14 3.45278163e-16 0.00000000e+00 5.56686341e-14 0.00000000e+00 3.45278163e-16
1.09647820e+02 3.33503887e-14 2.28123020e-16 0.00000000e+00 3.31222657e-14 0.00000000e+00 2.28123020e-16
1.25892541e+02 1.96476379e-14 1.50719385e-16 0.00000000e+00 1.94969186e-14 0.00000000e+00 1.50719385e-16
1.44543977e+02 1.14046513e-14 9.95793099e-17 0.00000000e+00 1.13050720e-14 0.00000000e+00 9.95793099e-17
1.65958691e+02 6.27424190e-15 6.57913976e-17 0.00000000e+00 6.20845051e-15 0.00000000e+00 6.57913976e-17
1.90546072e+02 3.43004397e-15 4.34679453e-17 0.00000000e+00 3.38657602e-15 0.00000000e+00 4.34679453e-17
2.18776162e+02 1.86214297e-15 2.87189867e-17 0.00000000e+00 1.83342399e-15 0.00000000e+00 2.87189867e-17
2.51188643e+02 1.00285216e-15 1.89744463e-17 0.00000000e+00 9.83877713e-16 0.00000000e+00 1.89744463e-17
2.88403150e+02 5.35734387e-16 1.25362924e-17 0.00000000e+00 5.23198095e-16 0.00000000e+00 1.25362924e-17
3.31131121e+02 2.84699154e-16 8.28264623e-18 0.00000000e+00 2.76416508e-16 0.00000000e+00 8.28264623e-18
3.80189396e+02 1.50477849e-16 5.47229010e-18 0.00000000e+00 1.45005559e-16 0.00000000e+00 5.47229010e-18
4.36515832e+02 7.92853470e-17 3.61550621e-18 0.00000000e+00 7.56698408e-17 0.00000000e+00 3.61550621e-18
5.01187234e+02 4.16735514e-17 2.38874127e-18 0.00000000e+00 3.92848101e-17 0.00000000e+00 2.38874127e-18
5.75439937e+02 2.18863478e-17 1.57822570e-18 0.00000000e+00 2.03081221e-17 0.00000000e+00 1.57822570e-18
6.60693448e+02 1.15024825e-17 1.04272338e-18 0.00000000e+00 1.04597591e-17 0.00000000e+00 1.04272338e-18
7.58577575e+02 6.05901360e-18 6.88920507e-19 0.00000000e+00 5.37009309e-18 0.00000000e+00 6.88920507e-19
8.70963590e+02 3.20393073e-18 4.55165265e-19 0.00000000e+00 2.74876547e-18 0.00000000e+00 4.55165265e-19
1.00000000e+03 1.40318991e-18 0.00000000e+00 0.00000000e+00 1.40318991e-18 0.00000000e+00 0.00000000e+00
