# column 1: lambda (micron)
# column 2: total flux; lambda*F_lambda (W/m2)
# column 3: direct stellar flux; lambda*F_lambda (W/m2)
# column 4: scattered stellar flux; lambda*F_lambda (W/m2)
# column 5: total dust emission flux; lambda*F_lambda (W/m2)
# column 6: dust emission scattered flux; lambda*F_lambda (W/m2)
# column 7: transparent flux; lambda*F_lambda (W/m2)
1.00000000e-03 6.93995862e-13 6.93993746e-13 2.11615298e-18 0.00000000e+00 0.00000000e+00 6.93993746e-13
1.14815362e-03 8.19138401e-13 8.19135139e-13 3.26216729e-18 0.00000000e+00 0.00000000e+00 8.19135139e-13
1.31825674e-03 9.66847057e-13 9.66842108e-13 4.94917198e-18 0.00000000e+00 0.00000000e+00 9.66842108e-13
1.51356125e-03 1.14119156e-12 1.14118369e-12 7.86485315e-18 0.00000000e+00 0.00000000e+00 1.14118369e-12
1.73780083e-03 1.34697669e-12 1.34696266e-12 1.40346075e-17 0.00000000e+00 0.00000000e+00 1.34696266e-12
1.99526231e-03 1.58987173e-12 1.58984782e-12 2.39054527e-17 0.00000000e+00 0.00000000e+00 1.58984782e-12
2.29086765e-03 1.87656836e-12 1.87653019e-12 3.81685792e-17 0.00000000e+00 0.00000000e+00 1.87653019e-12
2.63026799e-03 2.21497876e-12 2.21490731e-12 7.14501058e-17 0.00000000e+00 0.00000000e+00 2.21490731e-12
3.01995172e-03 2.61441820e-12 2.61430080e-12 1.17398951e-16 0.00000000e+00 0.00000000e+00 2.61430080e-12
3.46736850e-03 3.08591177e-12 3.08571319e-12 1.98585883e-16 0.00000000e+00 0.00000000e+00 3.08571319e-12
3.98107171e-03 3.64243387e-12 3.64213095e-12 3.02917231e-16 0.00000000e+00 0.00000000e+00 3.64213095e-12
4.57088190e-03 4.29959542e-12 4.29888232e-12 7.13100898e-16 0.00000000e+00 0.00000000e+00 4.29888232e-12
5.24807460e-03 5.07526729e-12 5.07405951e-12 1.20777894e-15 0.00000000e+00 0.00000000e+00 5.07405951e-12
6.02559586e-03 5.99137243e-12 5.98901715e-12 2.35528597e-15 0.00000000e+00 0.00000000e+00 5.98901715e-12
6.91830971e-03 7.07227856e-12 7.06896053e-12 3.31803384e-15 0.00000000e+00 0.00000000e+00 7.06896053e-12
7.94328235e-03 8.34898760e-12 8.34363998e-12 5.34761634e-15 0.00000000e+00 0.00000000e+00 8.34363998e-12
9.12010839e-03 9.85794044e-12 9.84817045e-12 9.76999344e-15 0.00000000e+00 0.00000000e+00 9.84817045e-12
1.04712855e-02 1.10113675e-11 1.09990604e-11 1.23070639e-14 0.00000000e+00 0.00000000e+00 1.09990604e-11
1.20226443e-02 1.10206580e-11 1.09990604e-11 2.15975242e-14 0.00000000e+00 0.00000000e+00 1.09990604e-11
1.38038426e-02 1.10299165e-11 1.09990604e-11 3.08560624e-14 1.29756338e-288 1.47816669e-289 1.09990604e-11
1.58489319e-02 1.10533491e-11 1.09990604e-11 5.42886121e-14 6.82268035e-252 7.99154796e-253 1.09990604e-11
1.81970086e-02 1.10539057e-11 1.09990604e-11 5.48452780e-14 6.21777410e-220 6.91947303e-221 1.09990604e-11
2.08929613e-02 1.10771361e-11 1.09990604e-11 7.80756347e-14 3.79974508e-192 4.22479493e-193 1.09990604e-11
2.39883292e-02 1.10992644e-11 1.09990604e-11 1.00203975e-13 5.85554218e-168 6.60655987e-169 1.09990604e-11
2.75422870e-02 1.11144339e-11 1.09990604e-11 1.15373467e-13 6.60527550e-147 8.26069643e-148 1.09990604e-11
3.16227766e-02 1.11336680e-11 1.09990604e-11 1.34607540e-13 1.30686657e-128 1.52294590e-129 1.09990604e-11
3.63078055e-02 1.11457636e-11 1.09990604e-11 1.46703160e-13 1.05495136e-112 1.18149289e-113 1.09990604e-11
4.16869383e-02 1.11868988e-11 1.09990604e-11 1.87838385e-13 7.17981785e-99 8.65176318e-100 1.09990604e-11
4.78630092e-02 1.12192730e-11 1.09990604e-11 2.20212591e-13 7.26401865e-87 9.31434820e-88 1.09990604e-11
5.49540874e-02 1.12285394e-11 1.09990604e-11 2.29478924e-13 1.92188618e-76 2.46123806e-77 1.09990604e-11
6.30957344e-02 1.12227302e-11 1.09990604e-11 2.23669721e-13 2.76314212e-67 3.55711876e-68 1.09990604e-11
7.24435960e-02 1.11914844e-11 1.09990604e-11 1.92423964e-13 2.38516216e-59 2.83568511e-60 1.09990604e-11
8.31763771e-02 1.11843421e-11 1.09990604e-11 1.85281700e-13 1.48909228e-52 1.70711085e-53 1.09990604e-11
9.54992586e-02 1.11948280e-11 1.09990604e-11 1.95767592e-13 1.13794575e-46 1.35673141e-47 1.09990604e-11
1.09647820e-01 1.07171000e-11 1.05040253e-11 2.13074730e-13 1.32467493e-41 1.72440806e-42 1.05040253e-11
1.25892541e-01 1.00153068e-11 9.80292679e-12 2.12379963e-13 3.17157128e-37 4.25948228e-38 9.80292679e-12
1.44543977e-01 9.34726504e-12 9.14862359e-12 1.98641450e-13 1.84397234e-33 2.52789395e-34 9.14862359e-12
1.65958691e-01 8.74851011e-12 8.53799231e-12 2.10517801e-13 2.51617339e-30 3.73363020e-31 8.53799231e-12
1.90546072e-01 8.18933020e-12 7.96811805e-12 2.21212153e-13 9.28350194e-28 1.59254902e-28 7.96811805e-12
2.18776162e-01 7.63062237e-12 7.43628044e-12 1.94341936e-13 1.31846584e-25 2.33654552e-26 7.43628044e-12
2.51188643e-01 7.17204143e-12 6.93994070e-12 2.32100728e-13 1.58410054e-23 3.44761057e-24 6.93994070e-12
2.88403150e-01 6.70073187e-12 6.47672950e-12 2.24002365e-13 9.81820499e-22 2.23268950e-22 6.47672950e-12
3.31131121e-01 6.25021591e-12 6.04443567e-12 2.05780209e-13 3.39078978e-20 8.00814954e-21 6.04443567e-12
3.80189396e-01 5.83893820e-12 5.64099558e-12 1.97941909e-13 7.07240064e-19 1.71799689e-19 5.64099558e-12
4.36515832e-01 5.44290951e-12 5.26448339e-12 1.78416426e-13 9.69917901e-18 2.46918643e-18 5.26448339e-12
5.01187234e-01 5.07881905e-12 4.91310176e-12 1.65626389e-13 9.08978703e-17 2.39523366e-17 4.91310176e-12
5.75439937e-01 4.74184835e-12 4.58517335e-12 1.56055856e-13 6.19147103e-16 1.66020935e-16 4.58517335e-12
6.60693448e-01 4.42432769e-12 4.27913275e-12 1.42034090e-13 3.16084898e-15 8.49162197e-16 4.27913275e-12
7.58577575e-01 4.13951433e-12 3.99351904e-12 1.33308932e-13 1.26863518e-14 3.34676708e-15 3.99351904e-12
8.70963590e-01 3.88658401e-12 3.72696882e-12 1.18395652e-13 4.12195389e-14 1.05057186e-14 3.72696882e-12
1.00000000e+00 3.69168665e-12 3.47820968e-12 1.01804255e-13 1.11672712e-13 2.66317791e-14 3.47820968e-12
1.14815362e+00 3.59499707e-12 3.24605414e-12 8.69251823e-14 2.62017740e-13 5.69564059e-14 3.24605414e-12
1.31825674e+00 3.63643660e-12 3.02939399e-12 6.98157702e-14 5.37226837e-13 1.02520380e-13 3.02939399e-12
1.51356125e+00 3.87158080e-12 2.82719497e-12 5.58226773e-14 9.88563149e-13 1.62719626e-13 2.82719497e-12
1.73780083e+00 4.27998066e-12 2.63849186e-12 4.38678702e-14 1.59762092e-12 2.18899301e-13 2.63849186e-12
1.99526231e+00 4.81920834e-12 2.46238388e-12 3.14993995e-14 2.32532506e-12 2.52651987e-13 2.46238388e-12
2.29086765e+00 5.34474190e-12 2.29803035e-12 2.28576626e-14 3.02385389e-12 2.57436528e-13 2.29803035e-12
2.63026799e+00 5.81344526e-12 2.14464670e-12 1.60913380e-14 3.65270722e-12 2.36671778e-13 2.14464670e-12
3.01995172e+00 6.13096687e-12 2.00150076e-12 1.13830509e-14 4.11808306e-12 2.03976651e-13 2.00150076e-12
3.46736850e+00 6.26933063e-12 1.86790919e-12 7.93262430e-15 4.39348882e-12 1.65417411e-13 1.86790919e-12
3.98107171e+00 6.23167255e-12 1.74323429e-12 5.46786105e-15 4.48297040e-12 1.27394065e-13 1.74323429e-12
4.57088190e+00 6.07135873e-12 1.62688090e-12 3.74901341e-15 4.44072883e-12 9.29610006e-14 1.62688090e-12
5.24807460e+00 5.63968059e-12 1.34518114e-12 2.11810088e-15 4.29238134e-12 6.28824287e-14 1.34518114e-12
6.02559586e+00 4.96363541e-12 8.88752369e-13 9.37951826e-16 4.07394509e-12 4.01947856e-14 8.88752369e-13
6.70000000e+00 4.51053930e-12 6.46481889e-13 4.85128054e-16 3.86357228e-12 2.68877209e-14 6.46481889e-13
6.92422916e+00 4.38068464e-12 5.85688198e-13 3.92403731e-16 3.79460404e-12 2.35033316e-14 5.85688198e-13
7.15596261e+00 4.26945861e-12 5.30611407e-13 3.13177035e-16 3.73853402e-12 2.02958512e-14 5.30611407e-13
7.39545150e+00 4.22864447e-12 4.80713913e-13 2.36889764e-16 3.74769367e-12 1.72526222e-14 4.80713913e-13
7.64295536e+00 4.36702598e-12 4.35508666e-13 1.65209996e-16 3.93135211e-12 1.42074163e-14 4.35508666e-13
7.89874245e+00 4.72152779e-12 3.94554418e-13 1.00262501e-16 4.32687311e-12 1.10779003e-14 3.94554418e-13
8.16308998e+00 5.22843775e-12 3.57451415e-13 5.69430313e-17 4.87092939e-12 8.36141124e-15 3.57451415e-13
8.43628443e+00 5.88426563e-12 3.23837494e-13 3.15210864e-17 5.56039661e-12 6.07600068e-15 3.23837494e-13
8.71862190e+00 6.25090298e-12 2.93384550e-13 1.98039355e-17 5.95749863e-12 4.67703478e-15 2.93384550e-13
9.01040836e+00 6.59310887e-12 2.65795332e-13 1.30760786e-17 6.32730046e-12 3.53083855e-15 2.65795332e-13
9.31196005e+00 6.81335141e-12 2.40800541e-13 0.00000000e+00 6.57255087e-12 0.00000000e+00 2.40800541e-13
9.62360379e+00 6.67626638e-12 2.18156204e-13 0.00000000e+00 6.45811017e-12 0.00000000e+00 2.18156204e-13
9.94567731e+00 6.34395529e-12 1.97641289e-13 0.00000000e+00 6.14631400e-12 0.00000000e+00 1.97641289e-13
1.02785297e+01 5.97154108e-12 1.79055550e-13 0.00000000e+00 5.79248553e-12 0.00000000e+00 1.79055550e-13
1.06225216e+01 5.56139501e-12 1.62217572e-13 0.00000000e+00 5.39917744e-12 0.00000000e+00 1.62217572e-13
1.09780260e+01 5.15382011e-12 1.46962999e-13 0.00000000e+00 5.00685711e-12 0.00000000e+00 1.46962999e-13
1.13454280e+01 4.79953595e-12 1.33142932e-13 0.00000000e+00 4.66639302e-12 0.00000000e+00 1.33142932e-13
1.17251259e+01 4.50219770e-12 1.20622472e-13 0.00000000e+00 4.38157522e-12 0.00000000e+00 1.20622472e-13
1.21175312e+01 4.20682055e-12 1.09279408e-13 0.00000000e+00 4.09754114e-12 0.00000000e+00 1.09279408e-13
1.25230691e+01 3.91650449e-12 9.90030204e-14 0.00000000e+00 3.81750147e-12 0.00000000e+00 9.90030204e-14
1.29421791e+01 3.65775449e-12 8.96930008e-14 0.00000000e+00 3.56806149e-12 0.00000000e+00 8.96930008e-14
1.33753155e+01 3.42328348e-12 8.12584743e-14 0.00000000e+00 3.34202501e-12 0.00000000e+00 8.12584743e-14
1.38229477e+01 3.26120642e-12 7.36171115e-14 0.00000000e+00 3.18758931e-12 0.00000000e+00 7.36171115e-14
1.42855609e+01 3.15851341e-12 6.66943252e-14 0.00000000e+00 3.09181909e-12 0.00000000e+00 6.66943252e-14
1.47636563e+01 3.16789421e-12 6.04225420e-14 0.00000000e+00 3.10747167e-12 0.00000000e+00 6.04225420e-14
1.52577522e+01 3.20183615e-12 5.47405431e-14 0.00000000e+00 3.14709560e-12 0.00000000e+00 5.47405431e-14
1.57683840e+01 3.26137640e-12 4.95928665e-14 0.00000000e+00 3.21178353e-12 0.00000000e+00 4.95928665e-14
1.62961051e+01 3.31847920e-12 4.49292657e-14 0.00000000e+00 3.27354993e-12 0.00000000e+00 4.49292657e-14
1.68414875e+01 3.37191862e-12 4.07042194e-14 0.00000000e+00 3.33121440e-12 0.00000000e+00 4.07042194e-14
1.74051222e+01 3.38650930e-12 3.68764869e-14 0.00000000e+00 3.34963281e-12 0.00000000e+00 3.68764869e-14
1.79876201e+01 3.38301536e-12 3.34087056e-14 0.00000000e+00 3.34960666e-12 0.00000000e+00 3.34087056e-14
1.85896125e+01 3.34907163e-12 3.02670267e-14 0.00000000e+00 3.31880460e-12 0.00000000e+00 3.02670267e-14
1.92117518e+01 3.27259294e-12 2.74207841e-14 0.00000000e+00 3.24517215e-12 0.00000000e+00 2.74207841e-14
1.98547123e+01 3.17782317e-12 2.48421957e-14 0.00000000e+00 3.15298098e-12 0.00000000e+00 2.48421957e-14
2.05191907e+01 3.07641564e-12 2.25060919e-14 0.00000000e+00 3.05390955e-12 0.00000000e+00 2.25060919e-14
2.12059073e+01 2.96823161e-12 2.03896700e-14 0.00000000e+00 2.94784194e-12 0.00000000e+00 2.03896700e-14
2.19156062e+01 2.87368518e-12 1.84722717e-14 0.00000000e+00 2.85521291e-12 0.00000000e+00 1.84722717e-14
2.26490567e+01 2.77206783e-12 1.67351811e-14 0.00000000e+00 2.75533265e-12 0.00000000e+00 1.67351811e-14
2.34070535e+01 2.67653400e-12 1.51614426e-14 0.00000000e+00 2.66137256e-12 0.00000000e+00 1.51614426e-14
2.41904183e+01 2.58559151e-12 1.37356949e-14 0.00000000e+00 2.57185581e-12 0.00000000e+00 1.37356949e-14
2.50000000e+01 2.49736740e-12 1.24440213e-14 0.00000000e+00 2.48492338e-12 0.00000000e+00 1.24440213e-14
2.75422870e+01 2.22463275e-12 9.30637977e-15 0.00000000e+00 2.21532637e-12 0.00000000e+00 9.30637977e-15
3.16227766e+01 1.83019790e-12 6.14866414e-15 0.00000000e+00 1.82404924e-12 0.00000000e+00 6.14866414e-15
3.63078055e+01 1.42885018e-12 4.06238211e-15 0.00000000e+00 1.42478780e-12 0.00000000e+00 4.06238211e-15
4.16869383e+01 1.04589956e-12 2.68398924e-15 0.00000000e+00 1.04321557e-12 0.00000000e+00 2.68398924e-15
4.78630092e+01 7.15352604e-13 1.77329411e-15 0.00000000e+00 7.13579310e-13 0.00000000e+00 1.77329411e-15
5.49540874e+01 4.62924702e-13 1.17160380e-15 0.00000000e+00 4.61753098e-13 0.00000000e+00 1.17160380e-15
6.30957344e+01 2.85976662e-13 7.74070953e-16 0.00000000e+00 2.85202591e-13 0.00000000e+00 7.74070953e-16
7.24435960e+01 1.70535821e-13 5.11423607e-16 0.00000000e+00 1.70024397e-13 0.00000000e+00 5.11423607e-16
8.31763771e+01 9.89245215e-14 3.37894226e-16 0.00000000e+00 9.85866272e-14 0.00000000e+00 3.37894226e-16
9.54992586e+01 5.62593571e-14 2.23244502e-16 0.00000000e+00 5.60361126e-14 0.00000000e+00 2.23244502e-16
1.09647820e+02 3.14965100e-14 1.47496179e-16 0.00000000e+00 3.13490138e-14 0.00000000e+00 1.47496179e-16
1.25892541e+02 1.76156709e-14 9.74497594e-17 0.00000000e+00 1.75182212e-14 0.00000000e+00 9.74497594e-17
1.44543977e+02 9.78908504e-15 6.43844175e-17 0.00000000e+00 9.72470063e-15 0.00000000e+00 6.43844175e-17
1.65958691e+02 5.17958369e-15 4.25383628e-17 0.00000000e+00 5.13704533e-15 0.00000000e+00 4.25383628e-17
1.90546072e+02 2.74148742e-15 2.81048176e-17 0.00000000e+00 2.71338260e-15 0.00000000e+00 2.81048176e-17
2.18776162e+02 1.44783910e-15 1.85686688e-17 0.00000000e+00 1.42927043e-15 0.00000000e+00 1.85686688e-17
2.51188643e+02 7.61871023e-16 1.22681978e-17 0.00000000e+00 7.49602826e-16 0.00000000e+00 1.22681978e-17
2.88403150e+02 3.99036039e-16 8.10551794e-18 0.00000000e+00 3.90930521e-16 0.00000000e+00 8.10551794e-18
3.31131121e+02 2.08502575e-16 5.35526259e-18 0.00000000e+00 2.03147313e-16 0.00000000e+00 5.35526259e-18
3.80189396e+02 1.08615466e-16 3.53818691e-18 0.00000000e+00 1.05077279e-16 0.00000000e+00 3.53818691e-18
4.36515832e+02 5.65166286e-17 2.33765691e-18 0.00000000e+00 5.41789717e-17 0.00000000e+00 2.33765691e-18
5.01187234e+02 2.93861070e-17 1.54447460e-18 0.00000000e+00 2.78416324e-17 0.00000000e+00 1.54447460e-18
5.75439937e+02 1.52876169e-17 1.02042425e-18 0.00000000e+00 1.42671926e-17 0.00000000e+00 1.02042425e-18
6.60693448e+02 7.96759957e-18 6.74187617e-19 0.00000000e+00 7.29341195e-18 0.00000000e+00 6.74187617e-19
7.58577575e+02 4.16591294e-18 4.45431341e-19 0.00000000e+00 3.72048160e-18 0.00000000e+00 4.45431341e-19
8.70963590e+02 2.18818915e-18 2.94293569e-19 0.00000000e+00 1.89389558e-18 0.00000000e+00 2.94293569e-19
1.00000000e+03 9.62201602e-19 0.00000000e+00 0.00000000e+00 9.62201602e-19 0.00000000e+00 0.00000000e+00
