# column 1: lambda (micron)
# column 2: total flux; lambda*F_lambda (W/m2)
# column 3: direct stellar flux; lambda*F_lambda (W/m2)
# column 4: scattered stellar flux; lambda*F_lambda (W/m2)
# column 5: total dust emission flux; lambda*F_lambda (W/m2)
# column 6: dust emission scattered flux; lambda*F_lambda (W/m2)
# column 7: transparent flux; lambda*F_lambda (W/m2)
1.00000000e-03 9.68103779e-13 9.68073281e-13 3.04984075e-17 0.00000000e+00 0.00000000e+00 9.68073281e-13
1.14815362e-03 1.14264615e-12 1.14263687e-12 9.27860387e-18 0.00000000e+00 0.00000000e+00 1.14263687e-12
1.31825674e-03 1.34876632e-12 1.34867788e-12 8.84383956e-17 0.00000000e+00 0.00000000e+00 1.34867788e-12
1.51356125e-03 1.59191084e-12 1.59187233e-12 3.85065396e-17 0.00000000e+00 0.00000000e+00 1.59187233e-12
1.73780083e-03 1.87954652e-12 1.87891976e-12 6.26759478e-16 0.00000000e+00 0.00000000e+00 1.87891976e-12
1.99526231e-03 2.21793340e-12 2.21772777e-12 2.05638426e-16 0.00000000e+00 0.00000000e+00 2.21772777e-12
2.29086765e-03 2.63506221e-12 2.61762985e-12 1.74323666e-14 0.00000000e+00 0.00000000e+00 2.61762985e-12
2.63026799e-03 3.09024634e-12 3.08964252e-12 6.03816010e-16 0.00000000e+00 0.00000000e+00 3.08964252e-12
3.01995172e-03 3.64982753e-12 3.64676883e-12 3.05870679e-15 0.00000000e+00 0.00000000e+00 3.64676883e-12
3.46736850e-03 4.31362933e-12 4.30435650e-12 9.27282916e-15 0.00000000e+00 0.00000000e+00 4.30435650e-12
3.98107171e-03 5.08503860e-12 5.08052080e-12 4.51779524e-15 0.00000000e+00 0.00000000e+00 5.08052080e-12
4.57088190e-03 6.00523056e-12 5.99664354e-12 8.58702171e-15 0.00000000e+00 0.00000000e+00 5.99664354e-12
5.24807460e-03 7.10283080e-12 7.07796211e-12 2.48686837e-14 0.00000000e+00 0.00000000e+00 7.07796211e-12
6.02559586e-03 8.44319963e-12 8.35426474e-12 8.89348922e-14 0.00000000e+00 0.00000000e+00 8.35426474e-12
6.91830971e-03 9.99463085e-12 9.86071107e-12 1.33919781e-13 0.00000000e+00 0.00000000e+00 9.86071107e-12
7.94328235e-03 1.18007855e-11 1.16388008e-11 1.61984768e-13 1.12582905e-303 1.37372353e-305 1.16388008e-11
9.12010839e-03 1.38323106e-11 1.37375167e-11 9.47939084e-14 7.39393495e-265 8.66001276e-267 1.37375167e-11
1.04712855e-02 1.55151054e-11 1.53429287e-11 1.72176759e-13 4.47867382e-231 8.32136017e-233 1.53429287e-11
1.20226443e-02 1.55720364e-11 1.53429287e-11 2.29107714e-13 9.51708043e-202 1.61146348e-203 1.53429287e-11
1.38038426e-02 1.56714973e-11 1.53429287e-11 3.28568630e-13 3.44055587e-176 1.13452662e-177 1.53429287e-11
1.58489319e-02 1.55704897e-11 1.53429287e-11 2.27561054e-13 5.81342025e-154 1.41708714e-155 1.53429287e-11
1.81970086e-02 1.56166711e-11 1.53429287e-11 2.73742449e-13 1.27321106e-134 3.61028521e-136 1.53429287e-11
2.08929613e-02 1.56109820e-11 1.53429287e-11 2.68053310e-13 7.92161129e-118 2.26873007e-119 1.53429287e-11
2.39883292e-02 1.56150887e-11 1.53429287e-11 2.72160045e-13 3.25133848e-103 1.13131821e-104 1.53429287e-11
2.75422870e-02 1.56451076e-11 1.53429287e-11 3.02178937e-13 1.66421237e-90 6.42522885e-92 1.53429287e-11
3.16227766e-02 1.56680255e-11 1.53429287e-11 3.25096853e-13 1.82394166e-79 7.81183550e-81 1.53429287e-11
3.63078055e-02 1.56569467e-11 1.53429287e-11 3.14018005e-13 7.00271713e-70 3.24557297e-71 1.53429287e-11
4.16869383e-02 1.56938250e-11 1.53429287e-11 3.50896321e-13 1.46518443e-61 8.55209664e-63 1.53429287e-11
4.78630092e-02 1.57380541e-11 1.53429287e-11 3.95125435e-13 2.40088395e-54 1.72648516e-55 1.53429287e-11
5.49540874e-02 1.57724722e-11 1.53429287e-11 4.29543544e-13 4.26450990e-48 3.50467346e-49 1.53429287e-11
6.30957344e-02 1.58181686e-11 1.53429287e-11 4.75239938e-13 1.44936870e-42 1.37044786e-43 1.53429287e-11
7.24435960e-02 1.58012574e-11 1.53429287e-11 4.58328784e-13 8.67098760e-38 8.08357881e-39 1.53429287e-11
8.31763771e-02 1.57779142e-11 1.53429287e-11 4.34985563e-13 9.27390635e-34 8.42153248e-35 1.53429287e-11
9.54992586e-02 1.57772230e-11 1.53429287e-11 4.34294333e-13 2.73249271e-30 2.54704561e-31 1.53429287e-11
1.09647820e-01 1.50846720e-11 1.46523889e-11 4.32283089e-13 2.43758525e-27 2.40822448e-28 1.46523889e-11
1.25892541e-01 1.40683225e-11 1.36744049e-11 3.93917555e-13 8.21168845e-25 7.88597724e-26 1.36744049e-11
1.44543977e-01 1.30956801e-11 1.27616972e-11 3.33982911e-13 1.15633762e-22 1.07286610e-23 1.27616972e-11
1.65958691e-01 1.22329508e-11 1.19099088e-11 3.23041941e-13 6.05319127e-21 6.19194560e-22 1.19099088e-11
1.90546072e-01 1.14651880e-11 1.11149736e-11 3.50214243e-13 1.30869929e-19 1.57793616e-20 1.11149736e-11
2.18776162e-01 1.07101435e-11 1.03730969e-11 3.37045029e-13 1.56888368e-18 1.98568943e-19 1.03730969e-11
2.51188643e-01 1.00334314e-11 9.68073733e-12 3.52674244e-13 1.98385845e-17 3.08055588e-18 9.68073733e-12
2.88403150e-01 9.35570283e-12 9.03458975e-12 3.20944414e-13 1.68659548e-16 2.61926756e-17 9.03458975e-12
3.31131121e-01 8.71473280e-12 8.43156974e-12 2.82184427e-13 9.78628986e-16 1.47603683e-16 8.43156974e-12
3.80189396e-01 8.12990130e-12 7.86879872e-12 2.56976721e-13 4.12585532e-15 6.09594996e-16 7.86879872e-12
4.36515832e-01 7.58629896e-12 7.34359025e-12 2.29475371e-13 1.32333345e-14 1.97006439e-15 7.34359025e-12
5.01187234e-01 7.09535022e-12 6.85343719e-12 2.08448311e-13 3.34647207e-14 5.03776113e-15 6.85343719e-12
5.75439937e-01 6.65454397e-12 6.39599973e-12 1.89009885e-13 6.95343528e-14 1.04680257e-14 6.39599973e-12
6.60693448e-01 6.26409975e-12 5.96909425e-12 1.71091878e-13 1.23913614e-13 1.89613942e-14 5.96909425e-12
7.58577575e-01 5.92294473e-12 5.57068288e-12 1.53571804e-13 1.98690043e-13 3.12057352e-14 5.57068288e-12
8.70963590e-01 5.62707937e-12 5.19886376e-12 1.32594172e-13 2.95621433e-13 4.76420072e-14 5.19886376e-12
1.00000000e+00 5.39150423e-12 4.85186196e-12 1.14688186e-13 4.24954085e-13 7.07448142e-14 4.85186196e-12
1.14815362e+00 5.23933148e-12 4.52802104e-12 9.39038069e-14 6.17406632e-13 1.03752183e-13 4.52802104e-12
1.31825674e+00 5.22031160e-12 4.22579511e-12 7.43683879e-14 9.20148095e-13 1.48956114e-13 4.22579511e-12
1.51356125e+00 5.36961689e-12 3.94374146e-12 5.73159880e-14 1.36855944e-12 2.01672496e-13 3.94374146e-12
1.73780083e+00 5.68664468e-12 3.68051368e-12 4.30306584e-14 1.96310034e-12 2.46463145e-13 3.68051368e-12
1.99526231e+00 6.11913056e-12 3.43485522e-12 3.17675425e-14 2.65250780e-12 2.69000566e-13 3.43485522e-12
2.29086765e+00 6.54826769e-12 3.20559341e-12 2.24270459e-14 3.32024724e-12 2.63276215e-13 3.20559341e-12
2.63026799e+00 6.88808515e-12 2.99163384e-12 1.56844631e-14 3.88076685e-12 2.36693738e-13 2.99163384e-12
3.01995172e+00 7.08897870e-12 2.79195514e-12 1.11442549e-14 4.28587930e-12 2.03192692e-13 2.79195514e-12
3.46736850e+00 7.12825463e-12 2.60560415e-12 7.85529075e-15 4.51479519e-12 1.65703930e-13 2.60560415e-12
3.98107171e+00 7.02392523e-12 2.43169128e-12 5.41035008e-15 4.58682360e-12 1.29241198e-13 2.43169128e-12
4.57088190e+00 6.80729567e-12 2.26938634e-12 3.73962656e-15 4.53416970e-12 9.52019575e-14 2.26938634e-12
5.24807460e+00 6.26363691e-12 1.87643467e-12 2.13660027e-15 4.38506564e-12 6.51558740e-14 1.87643467e-12
6.02559586e+00 5.41730971e-12 1.23974809e-12 9.49667644e-16 4.17661195e-12 4.19222541e-14 1.23974809e-12
6.70000000e+00 4.87288027e-12 9.01797527e-13 4.82253075e-16 3.97060049e-12 2.82439210e-14 9.01797527e-13
6.92422916e+00 4.72175671e-12 8.16994532e-13 3.94230539e-16 3.90436795e-12 2.48097025e-14 8.16994532e-13
7.15596261e+00 4.59066170e-12 7.40166218e-13 3.13346412e-16 3.85018213e-12 2.14710739e-14 7.40166218e-13
7.39545150e+00 4.53477128e-12 6.70562664e-13 2.39928588e-16 3.86396869e-12 1.82936793e-14 6.70562664e-13
7.64295536e+00 4.65757111e-12 6.07504471e-13 1.66969893e-16 4.04989967e-12 1.49471803e-14 6.07504471e-13
7.89874245e+00 5.02201839e-12 5.50376127e-13 9.90830050e-17 4.47154318e-12 1.16886127e-14 5.50376127e-13
8.16308998e+00 5.55618492e-12 4.98620004e-13 5.84046869e-17 5.05750652e-12 8.81928479e-15 4.98620004e-13
8.43628443e+00 6.18239489e-12 4.51730909e-13 3.12129615e-17 5.73063277e-12 6.42569680e-15 4.51730909e-13
8.71862190e+00 6.58643372e-12 4.09251158e-13 2.01062453e-17 6.17716246e-12 4.95105844e-15 4.09251158e-13
9.01040836e+00 6.95421772e-12 3.70766106e-13 1.32550555e-17 6.58343835e-12 3.75225338e-15 3.70766106e-13
9.31196005e+00 7.19369606e-12 3.35900102e-13 0.00000000e+00 6.85779596e-12 0.00000000e+00 3.35900102e-13
9.62360379e+00 7.09123986e-12 3.04312818e-13 0.00000000e+00 6.78692704e-12 0.00000000e+00 3.04312818e-13
9.94567731e+00 6.73777838e-12 2.75695930e-13 0.00000000e+00 6.46208245e-12 0.00000000e+00 2.75695930e-13
1.02785297e+01 6.34803896e-12 2.49770110e-13 0.00000000e+00 6.09826885e-12 0.00000000e+00 2.49770110e-13
1.06225216e+01 5.91611755e-12 2.26282295e-13 0.00000000e+00 5.68983526e-12 0.00000000e+00 2.26282295e-13
1.09780260e+01 5.49466825e-12 2.05003220e-13 0.00000000e+00 5.28966503e-12 0.00000000e+00 2.05003220e-13
1.13454280e+01 5.12254863e-12 1.85725182e-13 0.00000000e+00 4.93682345e-12 0.00000000e+00 1.85725182e-13
1.17251259e+01 4.77834734e-12 1.68260007e-13 0.00000000e+00 4.61008733e-12 0.00000000e+00 1.68260007e-13
1.21175312e+01 4.44031400e-12 1.52437217e-13 0.00000000e+00 4.28787678e-12 0.00000000e+00 1.52437217e-13
1.25230691e+01 4.13408826e-12 1.38102367e-13 0.00000000e+00 3.99598589e-12 0.00000000e+00 1.38102367e-13
1.29421791e+01 3.85619369e-12 1.25115533e-13 0.00000000e+00 3.73107816e-12 0.00000000e+00 1.25115533e-13
1.33753155e+01 3.60919606e-12 1.13349952e-13 0.00000000e+00 3.49584611e-12 0.00000000e+00 1.13349952e-13
1.38229477e+01 3.42563454e-12 1.02690779e-13 0.00000000e+00 3.32294376e-12 0.00000000e+00 1.02690779e-13
1.42855609e+01 3.31448679e-12 9.30339713e-14 0.00000000e+00 3.22145281e-12 0.00000000e+00 9.30339713e-14
1.47636563e+01 3.33164475e-12 8.42852675e-14 0.00000000e+00 3.24735948e-12 0.00000000e+00 8.42852675e-14
1.52577522e+01 3.36552464e-12 7.63592720e-14 0.00000000e+00 3.28916537e-12 0.00000000e+00 7.63592720e-14
1.57683840e+01 3.41958445e-12 6.91786191e-14 0.00000000e+00 3.35040583e-12 0.00000000e+00 6.91786191e-14
1.62961051e+01 3.49005754e-12 6.26732185e-14 0.00000000e+00 3.42738433e-12 0.00000000e+00 6.26732185e-14
1.68414875e+01 3.52817750e-12 5.67795711e-14 0.00000000e+00 3.47139793e-12 0.00000000e+00 5.67795711e-14
1.74051222e+01 3.54112909e-12 5.14401489e-14 0.00000000e+00 3.48968894e-12 0.00000000e+00 5.14401489e-14
1.79876201e+01 3.53712874e-12 4.66028339e-14 0.00000000e+00 3.49052590e-12 0.00000000e+00 4.66028339e-14
1.85896125e+01 3.48398440e-12 4.22204090e-14 0.00000000e+00 3.44176399e-12 0.00000000e+00 4.22204090e-14
1.92117518e+01 3.39548734e-12 3.82500974e-14 0.00000000e+00 3.35723724e-12 0.00000000e+00 3.82500974e-14
1.98547123e+01 3.28968323e-12 3.46531450e-14 0.00000000e+00 3.25503009e-12 0.00000000e+00 3.46531450e-14
2.05191907e+01 3.15539006e-12 3.13944418e-14 0.00000000e+00 3.12399562e-12 0.00000000e+00 3.13944418e-14
2.12059073e+01 3.03488088e-12 2.84421796e-14 0.00000000e+00 3.00643870e-12 0.00000000e+00 2.84421796e-14
2.19156062e+01 2.91290208e-12 2.57675415e-14 0.00000000e+00 2.88713454e-12 0.00000000e+00 2.57675415e-14
2.26490567e+01 2.79568950e-12 2.33444203e-14 0.00000000e+00 2.77234508e-12 0.00000000e+00 2.33444203e-14
2.34070535e+01 2.68312587e-12 2.11491639e-14 0.00000000e+00 2.66197671e-12 0.00000000e+00 2.11491639e-14
2.41904183e+01 2.57656644e-12 1.91603445e-14 0.00000000e+00 2.55740609e-12 0.00000000e+00 1.91603445e-14
2.50000000e+01 2.46983143e-12 1.73585491e-14 0.00000000e+00 2.45247288e-12 0.00000000e+00 1.73585491e-14
2.75422870e+01 2.15561853e-12 1.29817562e-14 0.00000000e+00 2.14263677e-12 0.00000000e+00 1.29817562e-14
3.16227766e+01 1.72195379e-12 8.57696126e-15 0.00000000e+00 1.71337682e-12 0.00000000e+00 8.57696126e-15
3.63078055e+01 1.30204061e-12 5.66674211e-15 0.00000000e+00 1.29637387e-12 0.00000000e+00 5.66674211e-15
4.16869383e+01 9.20964567e-13 3.74397938e-15 0.00000000e+00 9.17220587e-13 0.00000000e+00 3.74397938e-15
4.78630092e+01 6.10953760e-13 2.47362265e-15 0.00000000e+00 6.08480137e-13 0.00000000e+00 2.47362265e-15
5.49540874e+01 3.83108995e-13 1.63430628e-15 0.00000000e+00 3.81474689e-13 0.00000000e+00 1.63430628e-15
6.30957344e+01 2.30284398e-13 1.07977545e-15 0.00000000e+00 2.29204623e-13 0.00000000e+00 1.07977545e-15
7.24435960e+01 1.33842029e-13 7.13400564e-16 0.00000000e+00 1.33128629e-13 0.00000000e+00 7.13400564e-16
8.31763771e+01 7.58535394e-14 4.71339078e-16 0.00000000e+00 7.53822003e-14 0.00000000e+00 4.71339078e-16
9.54992586e+01 4.22875048e-14 3.11410641e-16 0.00000000e+00 4.19760942e-14 0.00000000e+00 3.11410641e-16
1.09647820e+02 2.32688909e-14 2.05746970e-16 0.00000000e+00 2.30631439e-14 0.00000000e+00 2.05746970e-16
1.25892541e+02 1.28214050e-14 1.35935675e-16 0.00000000e+00 1.26854693e-14 0.00000000e+00 1.35935675e-16
1.44543977e+02 7.03679403e-15 8.98118099e-17 0.00000000e+00 6.94698222e-15 0.00000000e+00 8.98118099e-17
1.65958691e+02 3.68418184e-15 5.93380743e-17 0.00000000e+00 3.62484376e-15 0.00000000e+00 5.93380743e-17
1.90546072e+02 1.93352221e-15 3.92042769e-17 0.00000000e+00 1.89431793e-15 0.00000000e+00 3.92042769e-17
2.18776162e+02 1.01471834e-15 2.59020089e-17 0.00000000e+00 9.88816327e-16 0.00000000e+00 2.59020089e-17
2.51188643e+02 5.31618396e-16 1.71132876e-17 0.00000000e+00 5.14505108e-16 0.00000000e+00 1.71132876e-17
2.88403150e+02 2.77823636e-16 1.13066370e-17 0.00000000e+00 2.66516999e-16 0.00000000e+00 1.13066370e-17
3.31131121e+02 1.45157847e-16 7.47022097e-18 0.00000000e+00 1.37687626e-16 0.00000000e+00 7.47022097e-18
3.80189396e+02 7.57973155e-17 4.93552605e-18 0.00000000e+00 7.08617895e-17 0.00000000e+00 4.93552605e-18
4.36515832e+02 3.96394681e-17 3.26086972e-18 0.00000000e+00 3.63785984e-17 0.00000000e+00 3.26086972e-18
5.01187234e+02 2.07786057e-17 2.15443526e-18 0.00000000e+00 1.86241704e-17 0.00000000e+00 2.15443526e-18
5.75439937e+02 1.09364549e-17 1.42342126e-18 0.00000000e+00 9.51303360e-18 0.00000000e+00 1.42342126e-18
6.60693448e+02 5.78993956e-18 9.40445101e-19 0.00000000e+00 4.84949446e-18 0.00000000e+00 9.40445101e-19
7.58577575e+02 3.08917979e-18 6.21345916e-19 0.00000000e+00 2.46783388e-18 0.00000000e+00 6.21345916e-19
8.70963590e+02 1.66413450e-18 4.10519176e-19 0.00000000e+00 1.25361532e-18 0.00000000e+00 4.10519176e-19
1.00000000e+03 6.35754135e-19 0.00000000e+00 0.00000000e+00 6.35754135e-19 0.00000000e+00 0.00000000e+00
