# column 1: lambda (micron)
# column 2: total flux; lambda*F_lambda (W/m2)
# column 3: direct stellar flux; lambda*F_lambda (W/m2)
# column 4: scattered stellar flux; lambda*F_lambda (W/m2)
# column 5: total dust emission flux; lambda*F_lambda (W/m2)
# column 6: dust emission scattered flux; lambda*F_lambda (W/m2)
# column 7: transparent flux; lambda*F_lambda (W/m2)
1.00000000e-03 9.64556208e-13 9.64542980e-13 1.32274388e-17 0.00000000e+00 0.00000000e+00 9.68073281e-13
1.14815362e-03 1.13725930e-12 1.13713498e-12 1.24328687e-16 0.00000000e+00 0.00000000e+00 1.14263687e-12
1.31825674e-03 1.34045321e-12 1.34042670e-12 2.65108955e-17 0.00000000e+00 0.00000000e+00 1.34867788e-12
1.51356125e-03 1.58043770e-12 1.58039661e-12 4.10897145e-17 0.00000000e+00 0.00000000e+00 1.59187233e-12
1.73780083e-03 1.86535861e-12 1.86523525e-12 1.23357343e-16 0.00000000e+00 0.00000000e+00 1.87891976e-12
1.99526231e-03 2.20539029e-12 2.19633827e-12 9.05202086e-15 0.00000000e+00 0.00000000e+00 2.21772777e-12
2.29086765e-03 2.59104817e-12 2.59086571e-12 1.82462778e-16 0.00000000e+00 0.00000000e+00 2.61762985e-12
2.63026799e-03 3.05348723e-12 3.05182464e-12 1.66258883e-15 0.00000000e+00 0.00000000e+00 3.08964252e-12
3.01995172e-03 3.59689944e-12 3.59164250e-12 5.25693452e-15 0.00000000e+00 0.00000000e+00 3.64676883e-12
3.46736850e-03 4.23265444e-12 4.22776828e-12 4.88615922e-15 0.00000000e+00 0.00000000e+00 4.30435650e-12
3.98107171e-03 4.98130689e-12 4.97717876e-12 4.12813576e-15 0.00000000e+00 0.00000000e+00 5.08052080e-12
4.57088190e-03 5.92456512e-12 5.91500134e-12 9.56378448e-15 0.00000000e+00 0.00000000e+00 5.99664354e-12
5.24807460e-03 6.97023956e-12 6.95511547e-12 1.51240916e-14 0.00000000e+00 0.00000000e+00 7.07796211e-12
6.02559586e-03 8.32455962e-12 8.17974671e-12 1.44812905e-13 0.00000000e+00 0.00000000e+00 8.35426474e-12
6.91830971e-03 9.66770041e-12 9.62335941e-12 4.43409958e-14 0.00000000e+00 0.00000000e+00 9.86071107e-12
7.94328235e-03 1.14889220e-11 1.13266852e-11 1.62236783e-13 2.85839317e-304 3.15244914e-306 1.16388008e-11
9.12010839e-03 1.35334019e-11 1.33293142e-11 2.04087715e-13 2.24046109e-265 6.66026836e-267 1.37375167e-11
1.04712855e-02 1.50429891e-11 1.48583722e-11 1.84616816e-13 1.53227566e-231 3.26280547e-233 1.53429287e-11
1.20226443e-02 1.50076735e-11 1.48302577e-11 1.77415764e-13 3.69372361e-202 9.83103308e-204 1.53429287e-11
1.38038426e-02 1.50402026e-11 1.47969797e-11 2.43222827e-13 1.45655206e-176 3.78118916e-178 1.53429287e-11
1.58489319e-02 1.49890116e-11 1.47561859e-11 2.32825684e-13 2.73994383e-154 9.21217476e-156 1.53429287e-11
1.81970086e-02 1.50215753e-11 1.47186606e-11 3.02914659e-13 6.48524386e-135 2.39063152e-136 1.53429287e-11
2.08929613e-02 1.50266264e-11 1.46875417e-11 3.39084732e-13 4.33521303e-118 1.72892772e-119 1.53429287e-11
2.39883292e-02 1.50430319e-11 1.46473198e-11 3.95712064e-13 1.89664616e-103 9.43782226e-105 1.53429287e-11
2.75422870e-02 1.50425006e-11 1.46006733e-11 4.41827239e-13 1.02209953e-90 5.38451451e-92 1.53429287e-11
3.16227766e-02 1.50245693e-11 1.45550938e-11 4.69475491e-13 1.16721672e-79 6.18883897e-81 1.53429287e-11
3.63078055e-02 1.50114487e-11 1.45194431e-11 4.92005581e-13 4.65479830e-70 2.55397893e-71 1.53429287e-11
4.16869383e-02 1.50270849e-11 1.44886784e-11 5.38406548e-13 1.00473590e-61 6.45904971e-63 1.53429287e-11
4.78630092e-02 1.49544231e-11 1.44042132e-11 5.50209936e-13 1.69190942e-54 1.26449560e-55 1.53429287e-11
5.49540874e-02 1.48558837e-11 1.42875662e-11 5.68317455e-13 3.07026774e-48 2.49170363e-49 1.53429287e-11
6.30957344e-02 1.45454599e-11 1.39992111e-11 5.46248793e-13 1.06261595e-42 9.46647857e-44 1.53429287e-11
7.24435960e-02 1.41637676e-11 1.36651709e-11 4.98596752e-13 6.48199321e-38 5.60771945e-39 1.53429287e-11
8.31763771e-02 1.41785270e-11 1.36945697e-11 4.83957348e-13 7.05160846e-34 5.90874621e-35 1.53429287e-11
9.54992586e-02 1.42612322e-11 1.37811599e-11 4.80072215e-13 2.10691326e-30 1.79892719e-31 1.53429287e-11
1.09647820e-01 1.39002741e-11 1.34022221e-11 4.98052052e-13 1.90350400e-27 1.72306926e-28 1.46523889e-11
1.25892541e-01 1.31794602e-11 1.27065125e-11 4.72947790e-13 6.48295065e-25 5.65479828e-26 1.36744049e-11
1.44543977e-01 1.24361139e-11 1.20083376e-11 4.27776325e-13 9.20901744e-23 7.72656662e-24 1.27616972e-11
1.65958691e-01 1.17287441e-11 1.12927049e-11 4.36039195e-13 4.83872699e-21 4.31801602e-22 1.19099088e-11
1.90546072e-01 1.09395315e-11 1.05015415e-11 4.37989881e-13 1.05323632e-19 1.12824209e-20 1.11149736e-11
2.18776162e-01 1.01026461e-11 9.70480779e-12 3.97837034e-13 1.26720488e-18 1.39911840e-19 1.03730969e-11
2.51188643e-01 9.60298169e-12 9.17864907e-12 4.24316626e-13 1.59994972e-17 2.13236001e-18 9.68073733e-12
2.88403150e-01 9.04466161e-12 8.64381111e-12 4.00714158e-13 1.36345756e-16 1.79034948e-17 9.03458975e-12
3.31131121e-01 8.48658636e-12 8.11275971e-12 3.73032844e-13 7.93812011e-16 9.95874000e-17 8.43156974e-12
3.80189396e-01 7.95347284e-12 7.60691060e-12 3.43198104e-13 3.36413695e-15 4.16497640e-16 7.86879872e-12
4.36515832e-01 7.45467279e-12 7.13041331e-12 3.13456073e-13 1.08034154e-14 1.32177790e-15 7.34359025e-12
5.01187234e-01 6.99787599e-12 6.68227753e-12 2.88285537e-13 2.73129209e-14 3.33123355e-15 6.85343719e-12
5.75439937e-01 6.57155651e-12 6.26001691e-12 2.54520219e-13 5.70193867e-14 7.02836923e-15 6.39599973e-12
6.60693448e-01 6.19780773e-12 5.86201461e-12 2.33251105e-13 1.02542017e-13 1.30979646e-14 5.96909425e-12
7.58577575e-01 5.86578087e-12 5.48740189e-12 2.08400323e-13 1.69978653e-13 2.40013405e-14 5.57068288e-12
8.70963590e-01 5.59328887e-12 5.13553416e-12 1.87409643e-13 2.70345069e-13 4.46848528e-14 5.19886376e-12
1.00000000e+00 5.40782839e-12 4.80449025e-12 1.60684060e-13 4.42654084e-13 8.56991728e-14 4.85186196e-12
1.14815362e+00 5.39040194e-12 4.49322160e-12 1.32063044e-13 7.65117299e-13 1.63553875e-13 4.52802104e-12
1.31825674e+00 5.66550356e-12 4.20067969e-12 1.06553483e-13 1.35827038e-12 2.82772386e-13 4.22579511e-12
1.51356125e+00 6.36023112e-12 3.92580136e-12 8.67543154e-14 2.34767545e-12 4.46341518e-13 3.94374146e-12
1.73780083e+00 7.45468035e-12 3.66790901e-12 6.84405919e-14 3.71833075e-12 6.02836407e-13 3.68051368e-12
1.99526231e+00 8.97635164e-12 3.42613916e-12 5.23781420e-14 5.49783433e-12 7.25977149e-13 3.43485522e-12
2.29086765e+00 1.06106397e-11 3.19958568e-12 3.96287441e-14 7.37142523e-12 7.71365456e-13 3.20559341e-12
2.63026799e+00 1.21245224e-11 2.98745445e-12 2.95703855e-14 9.10749756e-12 7.59043015e-13 2.99163384e-12
3.01995172e+00 1.37286146e-11 2.78901048e-12 2.17021429e-14 1.09179020e-11 7.10528745e-13 2.79195514e-12
3.46736850e+00 1.51726317e-11 2.60349566e-12 1.58763927e-14 1.25532597e-11 6.42697448e-13 2.60560415e-12
3.98107171e+00 1.64722322e-11 2.43016229e-12 1.13137396e-14 1.40307561e-11 5.50582430e-13 2.43169128e-12
4.57088190e+00 1.76369525e-11 2.26826247e-12 7.87809853e-15 1.53608119e-11 4.48373234e-13 2.26938634e-12
5.24807460e+00 1.82635010e-11 1.87568812e-12 4.63261678e-15 1.63831803e-11 3.27693953e-13 1.87643467e-12
6.02559586e+00 1.81068793e-11 1.23933820e-12 2.11171758e-15 1.68654294e-11 2.23804956e-13 1.23974809e-12
6.70000000e+00 1.77731323e-11 9.01533615e-13 1.10662367e-15 1.68704920e-11 1.54122012e-13 9.01797527e-13
6.92422916e+00 1.75593537e-11 8.16763817e-13 8.95425057e-16 1.67416944e-11 1.35778737e-13 8.16994532e-13
7.15596261e+00 1.73910083e-11 7.39960849e-13 7.18737139e-16 1.66503287e-11 1.17887003e-13 7.40166218e-13
7.39545150e+00 1.73259631e-11 6.70372166e-13 5.42831970e-16 1.66550481e-11 9.96140228e-14 6.70562664e-13
7.64295536e+00 1.74926414e-11 6.07307837e-13 3.71517156e-16 1.68849621e-11 7.95021509e-14 6.07504471e-13
7.89874245e+00 1.78917877e-11 5.50145973e-13 2.18444297e-16 1.73414233e-11 5.79676206e-14 5.50376127e-13
8.16308998e+00 1.83169752e-11 4.98338477e-13 1.20038199e-16 1.78185167e-11 4.03216590e-14 4.98620004e-13
8.43628443e+00 1.86362578e-11 4.51376598e-13 6.28647759e-17 1.81848183e-11 2.71239407e-14 4.51730909e-13
8.71862190e+00 1.88426964e-11 4.08856778e-13 3.77997141e-17 1.84338018e-11 1.98505099e-14 4.09251158e-13
9.01040836e+00 1.92111451e-11 3.70333321e-13 2.28562886e-17 1.88407889e-11 1.45821428e-14 3.70766106e-13
9.31196005e+00 1.92886270e-11 3.35445388e-13 0.00000000e+00 1.89531817e-11 0.00000000e+00 3.35900102e-13
9.62360379e+00 1.89731690e-11 3.03890018e-13 0.00000000e+00 1.86692790e-11 0.00000000e+00 3.04312818e-13
9.94567731e+00 1.86342373e-11 2.75336507e-13 0.00000000e+00 1.83589008e-11 0.00000000e+00 2.75695930e-13
1.02785297e+01 1.81845608e-11 2.49475515e-13 0.00000000e+00 1.79350853e-11 0.00000000e+00 2.49770110e-13
1.06225216e+01 1.76682952e-11 2.26043424e-13 0.00000000e+00 1.74422518e-11 0.00000000e+00 2.26282295e-13
1.09780260e+01 1.73047319e-11 2.04816515e-13 0.00000000e+00 1.70999154e-11 0.00000000e+00 2.05003220e-13
1.13454280e+01 1.68403113e-11 1.85578668e-13 0.00000000e+00 1.66547326e-11 0.00000000e+00 1.85725182e-13
1.17251259e+01 1.64381555e-11 1.68144293e-13 0.00000000e+00 1.62700112e-11 0.00000000e+00 1.68260007e-13
1.21175312e+01 1.59330352e-11 1.52346298e-13 0.00000000e+00 1.57806889e-11 0.00000000e+00 1.52437217e-13
1.25230691e+01 1.54264538e-11 1.38031124e-13 0.00000000e+00 1.52884227e-11 0.00000000e+00 1.38102367e-13
1.29421791e+01 1.48375089e-11 1.25059319e-13 0.00000000e+00 1.47124496e-11 0.00000000e+00 1.25115533e-13
1.33753155e+01 1.41616369e-11 1.13305279e-13 0.00000000e+00 1.40483316e-11 0.00000000e+00 1.13349952e-13
1.38229477e+01 1.36845123e-11 1.02653641e-13 0.00000000e+00 1.35818586e-11 0.00000000e+00 1.02690779e-13
1.42855609e+01 1.32952812e-11 9.30016928e-14 0.00000000e+00 1.32022795e-11 0.00000000e+00 9.30339713e-14
1.47636563e+01 1.31722875e-11 8.42546329e-14 0.00000000e+00 1.30880329e-11 0.00000000e+00 8.42852675e-14
1.52577522e+01 1.29795448e-11 7.63296722e-14 0.00000000e+00 1.29032152e-11 0.00000000e+00 7.63592720e-14
1.57683840e+01 1.29368356e-11 6.91496523e-14 0.00000000e+00 1.28676859e-11 0.00000000e+00 6.91786191e-14
1.62961051e+01 1.27939297e-11 6.26449055e-14 0.00000000e+00 1.27312848e-11 0.00000000e+00 6.26732185e-14
1.68414875e+01 1.27709153e-11 5.67519590e-14 0.00000000e+00 1.27141634e-11 0.00000000e+00 5.67795711e-14
1.74051222e+01 1.25976206e-11 5.14139281e-14 0.00000000e+00 1.25462067e-11 0.00000000e+00 5.14401489e-14
1.79876201e+01 1.22488856e-11 4.65783519e-14 0.00000000e+00 1.22023072e-11 0.00000000e+00 4.66028339e-14
1.85896125e+01 1.19032780e-11 4.21982578e-14 0.00000000e+00 1.18610797e-11 0.00000000e+00 4.22204090e-14
1.92117518e+01 1.15869940e-11 3.82306404e-14 0.00000000e+00 1.15487634e-11 0.00000000e+00 3.82500974e-14
1.98547123e+01 1.11085577e-11 3.46363879e-14 0.00000000e+00 1.10739213e-11 0.00000000e+00 3.46531450e-14
2.05191907e+01 1.05690522e-11 3.13801555e-14 0.00000000e+00 1.05376721e-11 0.00000000e+00 3.13944418e-14
2.12059073e+01 1.00407437e-11 2.84300018e-14 0.00000000e+00 1.00123136e-11 0.00000000e+00 2.84421796e-14
2.19156062e+01 9.54622465e-12 2.57571103e-14 0.00000000e+00 9.52046754e-12 0.00000000e+00 2.57675415e-14
2.26490567e+01 9.05247205e-12 2.33354710e-14 0.00000000e+00 9.02913658e-12 0.00000000e+00 2.33444203e-14
2.34070535e+01 8.56992738e-12 2.11414717e-14 0.00000000e+00 8.54878591e-12 0.00000000e+00 2.11491639e-14
2.41904183e+01 8.08969892e-12 1.91537161e-14 0.00000000e+00 8.07054520e-12 0.00000000e+00 1.91603445e-14
2.50000000e+01 7.64585675e-12 1.73528252e-14 0.00000000e+00 7.62850393e-12 0.00000000e+00 1.73585491e-14
2.75422870e+01 6.34674025e-12 1.29780233e-14 0.00000000e+00 6.33376223e-12 0.00000000e+00 1.29817562e-14
3.16227766e+01 4.70371897e-12 8.57491029e-15 0.00000000e+00 4.69514406e-12 0.00000000e+00 8.57696126e-15
3.63078055e+01 3.29963516e-12 5.66562119e-15 0.00000000e+00 3.29396953e-12 0.00000000e+00 5.66674211e-15
4.16869383e+01 2.19614960e-12 3.74338299e-15 0.00000000e+00 2.19240622e-12 0.00000000e+00 3.74397938e-15
4.78630092e+01 1.37482572e-12 2.47331518e-15 0.00000000e+00 1.37235241e-12 0.00000000e+00 2.47362265e-15
5.49540874e+01 8.18485231e-13 1.63415114e-15 0.00000000e+00 8.16851080e-13 0.00000000e+00 1.63430628e-15
6.30957344e+01 4.67989246e-13 1.07969817e-15 0.00000000e+00 4.66909548e-13 0.00000000e+00 1.07977545e-15
7.24435960e+01 2.59782226e-13 7.13362342e-16 0.00000000e+00 2.59068864e-13 0.00000000e+00 7.13400564e-16
8.31763771e+01 1.40913237e-13 4.71320205e-16 0.00000000e+00 1.40441917e-13 0.00000000e+00 4.71339078e-16
9.54992586e+01 7.54115747e-14 3.11401299e-16 0.00000000e+00 7.51001734e-14 0.00000000e+00 3.11410641e-16
1.09647820e+02 3.99892562e-14 2.05742330e-16 0.00000000e+00 3.97835138e-14 0.00000000e+00 2.05746970e-16
1.25892541e+02 2.13067695e-14 1.35933336e-16 0.00000000e+00 2.11708361e-14 0.00000000e+00 1.35935675e-16
1.44543977e+02 1.13475300e-14 8.98106222e-17 0.00000000e+00 1.12577194e-14 0.00000000e+00 8.98118099e-17
1.65958691e+02 5.78236737e-15 5.93374920e-17 0.00000000e+00 5.72302987e-15 0.00000000e+00 5.93380743e-17
1.90546072e+02 2.96143668e-15 3.92039886e-17 0.00000000e+00 2.92223269e-15 0.00000000e+00 3.92042769e-17
2.18776162e+02 1.52040505e-15 2.59018652e-17 0.00000000e+00 1.49450318e-15 0.00000000e+00 2.59020089e-17
2.51188643e+02 7.80954010e-16 1.71132158e-17 0.00000000e+00 7.63840794e-16 0.00000000e+00 1.71132876e-17
2.88403150e+02 4.00821288e-16 1.13066011e-17 0.00000000e+00 3.89514687e-16 0.00000000e+00 1.13066370e-17
3.31131121e+02 2.05961985e-16 7.47020296e-18 0.00000000e+00 1.98491782e-16 0.00000000e+00 7.47022097e-18
3.80189396e+02 1.05867342e-16 4.93551702e-18 0.00000000e+00 1.00931825e-16 0.00000000e+00 4.93552605e-18
4.36515832e+02 5.45383132e-17 3.26086519e-18 0.00000000e+00 5.12774480e-17 0.00000000e+00 3.26086972e-18
5.01187234e+02 2.81671980e-17 2.15443299e-18 0.00000000e+00 2.60127650e-17 0.00000000e+00 2.15443526e-18
5.75439937e+02 1.46052197e-17 1.42342012e-18 0.00000000e+00 1.31817996e-17 0.00000000e+00 1.42342126e-18
6.60693448e+02 7.61368219e-18 9.40444527e-19 0.00000000e+00 6.67323766e-18 0.00000000e+00 9.40445101e-19
7.58577575e+02 3.99681181e-18 6.21345628e-19 0.00000000e+00 3.37546619e-18 0.00000000e+00 6.21345916e-19
8.70963590e+02 2.11622459e-18 4.10519031e-19 0.00000000e+00 1.70570556e-18 0.00000000e+00 4.10519176e-19
1.00000000e+03 8.61075220e-19 0.00000000e+00 0.00000000e+00 8.61075220e-19 0.00000000e+00 0.00000000e+00
