# column 1: lambda (micron)
# column 2: total flux; lambda*F_lambda (W/m2)
# column 3: direct stellar flux; lambda*F_lambda (W/m2)
# column 4: scattered stellar flux; lambda*F_lambda (W/m2)
# column 5: total dust emission flux; lambda*F_lambda (W/m2)
# column 6: dust emission scattered flux; lambda*F_lambda (W/m2)
# column 7: transparent flux; lambda*F_lambda (W/m2)
1.00000000e-03 5.25637368e-13 5.25636674e-13 6.94120168e-19 0.00000000e+00 0.00000000e+00 5.25636674e-13
1.14815362e-03 6.20420904e-13 6.20419813e-13 1.09136968e-18 0.00000000e+00 0.00000000e+00 6.20419813e-13
1.31825674e-03 7.32296017e-13 7.32294308e-13 1.70922572e-18 0.00000000e+00 0.00000000e+00 7.32294308e-13
1.51356125e-03 8.64344689e-13 8.64342083e-13 2.60590665e-18 0.00000000e+00 0.00000000e+00 8.64342083e-13
1.73780083e-03 1.02020591e-12 1.02020080e-12 5.11656328e-18 0.00000000e+00 0.00000000e+00 1.02020080e-12
1.99526231e-03 1.20417346e-12 1.20416405e-12 9.40602434e-18 0.00000000e+00 0.00000000e+00 1.20416405e-12
2.29086765e-03 1.42131392e-12 1.42129968e-12 1.42433854e-17 0.00000000e+00 0.00000000e+00 1.42129968e-12
2.63026799e-03 1.67761678e-12 1.67758934e-12 2.74334424e-17 0.00000000e+00 0.00000000e+00 1.67758934e-12
3.01995172e-03 1.98013636e-12 1.98009332e-12 4.30456158e-17 0.00000000e+00 0.00000000e+00 1.98009332e-12
3.46736850e-03 2.33721988e-12 2.33714500e-12 7.48725001e-17 0.00000000e+00 0.00000000e+00 2.33714500e-12
3.98107171e-03 2.75869596e-12 2.75858048e-12 1.15477417e-16 0.00000000e+00 0.00000000e+00 2.75858048e-12
4.57088190e-03 3.25629364e-12 3.25600946e-12 2.84172545e-16 0.00000000e+00 0.00000000e+00 3.25600946e-12
5.24807460e-03 3.84359781e-12 3.84313516e-12 4.62651790e-16 0.00000000e+00 0.00000000e+00 3.84313516e-12
6.02559586e-03 4.53703612e-12 4.53613173e-12 9.04382754e-16 0.00000000e+00 0.00000000e+00 4.53613173e-12
6.91830971e-03 5.35548192e-12 5.35408989e-12 1.39202507e-15 0.00000000e+00 0.00000000e+00 5.35408989e-12
7.94328235e-03 6.32196720e-12 6.31954278e-12 2.42441651e-15 5.52956986e-304 1.32277675e-305 6.31954278e-12
9.12010839e-03 7.46280912e-12 7.45908676e-12 3.72236183e-15 2.42695593e-265 1.19133193e-267 7.45908676e-12
1.04712855e-02 8.33587961e-12 8.33078048e-12 5.09913932e-15 1.05542541e-231 1.59979027e-233 8.33078048e-12
1.20226443e-02 8.33921151e-12 8.33078048e-12 8.43103438e-15 1.67166810e-202 1.93098625e-204 8.33078048e-12
1.38038426e-02 8.34262486e-12 8.33078048e-12 1.18443800e-14 4.63589036e-177 7.62188345e-179 8.33078048e-12
1.58489319e-02 8.35121775e-12 8.33078048e-12 2.04372773e-14 6.42746928e-155 1.90699921e-156 8.33078048e-12
1.81970086e-02 8.35505359e-12 8.33078048e-12 2.42731116e-14 1.14665742e-135 2.39964422e-137 8.33078048e-12
2.08929613e-02 8.36442061e-12 8.33078048e-12 3.36401381e-14 6.07460432e-119 1.68423360e-120 8.33078048e-12
2.39883292e-02 8.37253748e-12 8.33078048e-12 4.17570007e-14 2.15935364e-104 7.62622879e-106 8.33078048e-12
2.75422870e-02 8.38309094e-12 8.33078048e-12 5.23104650e-14 9.76925169e-92 3.98148323e-93 8.33078048e-12
3.16227766e-02 8.39863110e-12 8.33078048e-12 6.78506242e-14 9.61845974e-81 4.54630999e-82 8.33078048e-12
3.63078055e-02 8.40179308e-12 8.33078048e-12 7.10126072e-14 3.33934043e-71 1.53838483e-72 8.33078048e-12
4.16869383e-02 8.42123574e-12 8.33078048e-12 9.04552663e-14 6.42451185e-63 3.66166670e-64 8.33078048e-12
4.78630092e-02 8.43749792e-12 8.33078048e-12 1.06717445e-13 9.73419762e-56 6.15768957e-57 8.33078048e-12
5.49540874e-02 8.45401606e-12 8.33078048e-12 1.23235582e-13 1.61834384e-49 1.08597935e-50 8.33078048e-12
6.30957344e-02 8.45649540e-12 8.33078048e-12 1.25714921e-13 5.19082971e-44 3.40286791e-45 8.33078048e-12
7.24435960e-02 8.44403167e-12 8.33078048e-12 1.13251189e-13 2.97568033e-39 1.66711112e-40 8.33078048e-12
8.31763771e-02 8.44053903e-12 8.33078048e-12 1.09758551e-13 3.05163980e-35 1.66856681e-36 8.33078048e-12
9.54992586e-02 8.44494727e-12 8.33078048e-12 1.14166791e-13 8.63123814e-32 4.89211000e-33 8.33078048e-12
1.09647820e-01 8.07297831e-12 7.95583672e-12 1.17141588e-13 7.39101307e-29 4.82499099e-30 7.95583672e-12
1.25892541e-01 7.53576515e-12 7.42481883e-12 1.10946312e-13 2.41207096e-26 1.63447341e-27 7.42481883e-12
1.44543977e-01 7.03263410e-12 6.92924411e-12 1.03389985e-13 3.30257906e-24 2.26293188e-25 6.92924411e-12
1.65958691e-01 6.57184895e-12 6.46674687e-12 1.05102080e-13 1.68182250e-22 1.28587213e-23 6.46674687e-12
1.90546072e-01 6.14681483e-12 6.03511933e-12 1.11695502e-13 3.53965906e-21 3.03660623e-22 6.03511933e-12
2.18776162e-01 5.73691514e-12 5.63230107e-12 1.04614032e-13 4.16167974e-20 3.47426107e-21 5.63230107e-12
2.51188643e-01 5.37305767e-12 5.25636919e-12 1.16687969e-13 5.07839814e-19 5.16839762e-20 5.25636919e-12
2.88403150e-01 5.01942406e-12 4.90552916e-12 1.13890641e-13 4.25998755e-18 4.46518042e-19 4.90552916e-12
3.31131121e-01 4.67906627e-12 4.57810618e-12 1.00935618e-13 2.44676267e-17 2.53339419e-18 4.57810618e-12
3.80189396e-01 4.36646121e-12 4.27253728e-12 9.38218084e-14 1.02112935e-16 1.02511304e-17 4.27253728e-12
4.36515832e-01 4.07165670e-12 3.98736380e-12 8.39675951e-14 3.25305650e-16 3.25481349e-17 3.98736380e-12
5.01187234e-01 3.80001485e-12 3.72122441e-12 7.79584426e-14 8.31995118e-16 8.47964512e-17 3.72122441e-12
5.75439937e-01 3.54352823e-12 3.47284869e-12 6.88411484e-14 1.83839610e-15 2.00801511e-16 3.47284869e-12
6.60693448e-01 3.30896918e-12 3.24105097e-12 6.40939889e-14 3.82422146e-15 4.71342903e-16 3.24105097e-12
7.58577575e-01 3.08918318e-12 3.02472476e-12 5.62253788e-14 8.23304057e-15 1.17266865e-15 3.02472476e-12
8.70963590e-01 2.89046279e-12 2.82283739e-12 4.92389924e-14 1.83864050e-14 2.86786529e-15 2.82283739e-12
1.00000000e+00 2.71810032e-12 2.63442513e-12 4.31263145e-14 4.05488671e-14 6.33860077e-15 2.63442513e-12
1.14815362e+00 2.58022068e-12 2.45858859e-12 3.62720713e-14 8.53600209e-14 1.26214899e-14 2.45858859e-12
1.31825674e+00 2.49178877e-12 2.29448837e-12 2.92773579e-14 1.68023042e-13 2.20479956e-14 2.29448837e-12
1.51356125e+00 2.46644673e-12 2.14134114e-12 2.35077716e-14 3.01597817e-13 3.37717292e-14 2.14134114e-12
1.73780083e+00 2.50161624e-12 1.99841583e-12 1.71100675e-14 4.86090341e-13 4.53090583e-14 1.99841583e-12
1.99526231e+00 2.57749897e-12 1.86503017e-12 1.26963588e-14 6.99772444e-13 5.09968665e-14 1.86503017e-12
2.29086765e+00 2.66673864e-12 1.74054743e-12 8.97369812e-15 9.17217513e-13 5.13630849e-14 1.74054743e-12
2.63026799e+00 2.73430011e-12 1.62437337e-12 6.24781329e-15 1.10367893e-12 4.66020715e-14 1.62437337e-12
3.01995172e+00 2.75319890e-12 1.51595343e-12 4.44477731e-15 1.23280069e-12 3.94228715e-14 1.51595343e-12
3.46736850e+00 2.72325589e-12 1.41477006e-12 3.01714491e-15 1.30546868e-12 3.11419109e-14 1.41477006e-12
3.98107171e+00 2.62714202e-12 1.32034025e-12 1.98763725e-15 1.30481414e-12 2.34729151e-14 1.32034025e-12
4.57088190e+00 2.49134479e-12 1.23221321e-12 1.37101776e-15 1.25776056e-12 1.63336268e-14 1.23221321e-12
5.24807460e+00 2.19282921e-12 1.01885146e-12 7.99377724e-16 1.17317837e-12 1.08472990e-14 1.01885146e-12
6.02559586e+00 1.75419368e-12 6.73148485e-13 3.52317137e-16 1.08069288e-12 6.82134687e-15 6.73148485e-13
6.70000000e+00 1.49302296e-12 4.89650796e-13 1.82970660e-16 1.00318920e-12 4.55471361e-15 4.89650796e-13
6.92422916e+00 1.42366660e-12 4.43605145e-13 1.50544531e-16 9.79910906e-13 3.98309233e-15 4.43605145e-13
7.15596261e+00 1.36550198e-12 4.01889522e-13 1.18220291e-16 9.63494239e-13 3.43697590e-15 4.01889522e-13
7.39545150e+00 1.33247881e-12 3.64096743e-13 9.13506738e-17 9.68290717e-13 2.93923406e-15 3.64096743e-13
7.64295536e+00 1.35846628e-12 3.29857910e-13 6.20472834e-17 1.02854633e-12 2.41789410e-15 3.29857910e-13
7.89874245e+00 1.48081805e-12 2.98838820e-13 3.75768804e-17 1.18194166e-12 1.89886036e-15 2.98838820e-13
8.16308998e+00 1.66329950e-12 2.70736695e-13 2.15135625e-17 1.39254129e-12 1.45924287e-15 2.70736695e-13
8.43628443e+00 1.92519950e-12 2.45277229e-13 1.16974141e-17 1.67991057e-12 1.09009119e-15 2.45277229e-13
8.71862190e+00 2.09498843e-12 2.22211915e-13 7.34482175e-18 1.87276917e-12 8.54860339e-16 2.22211915e-13
9.01040836e+00 2.27689483e-12 2.01315610e-13 4.93590273e-18 2.07557429e-12 6.64740572e-16 2.01315610e-13
9.31196005e+00 2.41679078e-12 1.82384346e-13 0.00000000e+00 2.23440643e-12 0.00000000e+00 1.82384346e-13
9.62360379e+00 2.35825435e-12 1.65233336e-13 0.00000000e+00 2.19302102e-12 0.00000000e+00 1.65233336e-13
9.94567731e+00 2.20115704e-12 1.49695167e-13 0.00000000e+00 2.05146187e-12 0.00000000e+00 1.49695167e-13
1.02785297e+01 1.99496786e-12 1.35618173e-13 0.00000000e+00 1.85934968e-12 0.00000000e+00 1.35618173e-13
1.06225216e+01 1.82846657e-12 1.22864947e-13 0.00000000e+00 1.70560162e-12 0.00000000e+00 1.22864947e-13
1.09780260e+01 1.63347216e-12 1.11311006e-13 0.00000000e+00 1.52216116e-12 0.00000000e+00 1.11311006e-13
1.13454280e+01 1.46710949e-12 1.00843571e-13 0.00000000e+00 1.36626591e-12 0.00000000e+00 1.00843571e-13
1.17251259e+01 1.32946406e-12 9.13604705e-14 0.00000000e+00 1.23810359e-12 0.00000000e+00 9.13604705e-14
1.21175312e+01 1.20532903e-12 8.27691389e-14 0.00000000e+00 1.12255989e-12 0.00000000e+00 8.27691389e-14
1.25230691e+01 1.09838398e-12 7.49857166e-14 0.00000000e+00 1.02339827e-12 0.00000000e+00 7.49857166e-14
1.29421791e+01 1.00607335e-12 6.79342298e-14 0.00000000e+00 9.38139123e-13 0.00000000e+00 6.79342298e-14
1.33753155e+01 9.28236248e-13 6.15458488e-14 0.00000000e+00 8.66690399e-13 0.00000000e+00 6.15458488e-14
1.38229477e+01 8.79211817e-13 5.57582167e-14 0.00000000e+00 8.23453600e-13 0.00000000e+00 5.57582167e-14
1.42855609e+01 8.48783035e-13 5.05148403e-14 0.00000000e+00 7.98268195e-13 0.00000000e+00 5.05148403e-14
1.47636563e+01 8.55364580e-13 4.57645392e-14 0.00000000e+00 8.09600041e-13 0.00000000e+00 4.57645392e-14
1.52577522e+01 8.68876994e-13 4.14609457e-14 0.00000000e+00 8.27416048e-13 0.00000000e+00 4.14609457e-14
1.57683840e+01 8.91450153e-13 3.75620523e-14 0.00000000e+00 8.53888101e-13 0.00000000e+00 3.75620523e-14
1.62961051e+01 9.07872949e-13 3.40298020e-14 0.00000000e+00 8.73843147e-13 0.00000000e+00 3.40298020e-14
1.68414875e+01 9.31007787e-13 3.08297166e-14 0.00000000e+00 9.00178071e-13 0.00000000e+00 3.08297166e-14
1.74051222e+01 9.40471035e-13 2.79305599e-14 0.00000000e+00 9.12540475e-13 0.00000000e+00 2.79305599e-14
1.79876201e+01 9.49284316e-13 2.53040334e-14 0.00000000e+00 9.23980283e-13 0.00000000e+00 2.53040334e-14
1.85896125e+01 9.43338409e-13 2.29244994e-14 0.00000000e+00 9.20413909e-13 0.00000000e+00 2.29244994e-14
1.92117518e+01 9.27171884e-13 2.07687314e-14 0.00000000e+00 9.06403153e-13 0.00000000e+00 2.07687314e-14
1.98547123e+01 9.05320688e-13 1.88156870e-14 0.00000000e+00 8.86505001e-13 0.00000000e+00 1.88156870e-14
2.05191907e+01 8.86619556e-13 1.70463024e-14 0.00000000e+00 8.69573254e-13 0.00000000e+00 1.70463024e-14
2.12059073e+01 8.68960762e-13 1.54433068e-14 0.00000000e+00 8.53517455e-13 0.00000000e+00 1.54433068e-14
2.19156062e+01 8.46479304e-13 1.39910532e-14 0.00000000e+00 8.32488251e-13 0.00000000e+00 1.39910532e-14
2.26490567e+01 8.27877886e-13 1.26753663e-14 0.00000000e+00 8.15202520e-13 0.00000000e+00 1.26753663e-14
2.34070535e+01 8.14717208e-13 1.14834036e-14 0.00000000e+00 8.03233805e-13 0.00000000e+00 1.14834036e-14
2.41904183e+01 8.01267276e-13 1.04035303e-14 0.00000000e+00 7.90863746e-13 0.00000000e+00 1.04035303e-14
2.50000000e+01 7.84185370e-13 9.42520591e-15 0.00000000e+00 7.74760164e-13 0.00000000e+00 9.42520591e-15
2.75422870e+01 7.43801331e-13 7.04872996e-15 0.00000000e+00 7.36752601e-13 0.00000000e+00 7.04872996e-15
3.16227766e+01 6.71183837e-13 4.65704970e-15 0.00000000e+00 6.66526787e-13 0.00000000e+00 4.65704970e-15
3.63078055e+01 5.79230100e-13 3.07688223e-15 0.00000000e+00 5.76153218e-13 0.00000000e+00 3.07688223e-15
4.16869383e+01 4.66091028e-13 2.03287593e-15 0.00000000e+00 4.64058152e-13 0.00000000e+00 2.03287593e-15
4.78630092e+01 3.51604937e-13 1.34310781e-15 0.00000000e+00 3.50261829e-13 0.00000000e+00 1.34310781e-15
5.49540874e+01 2.48705915e-13 8.87382527e-16 0.00000000e+00 2.47818532e-13 0.00000000e+00 8.87382527e-16
6.30957344e+01 1.66854868e-13 5.86287821e-16 0.00000000e+00 1.66268580e-13 0.00000000e+00 5.86287821e-16
7.24435960e+01 1.06707954e-13 3.87356522e-16 0.00000000e+00 1.06320598e-13 0.00000000e+00 3.87356522e-16
8.31763771e+01 6.56813633e-14 2.55923916e-16 0.00000000e+00 6.54254394e-14 0.00000000e+00 2.55923916e-16
9.54992586e+01 3.92679875e-14 1.69087255e-16 0.00000000e+00 3.90989002e-14 0.00000000e+00 1.69087255e-16
1.09647820e+02 2.29089662e-14 1.11714841e-16 0.00000000e+00 2.27972514e-14 0.00000000e+00 1.11714841e-16
1.25892541e+02 1.32450353e-14 7.38092637e-17 0.00000000e+00 1.31712260e-14 0.00000000e+00 7.38092637e-17
1.44543977e+02 7.56348710e-15 4.87652969e-17 0.00000000e+00 7.51472180e-15 0.00000000e+00 4.87652969e-17
1.65958691e+02 4.10071971e-15 3.22189122e-17 0.00000000e+00 4.06850079e-15 0.00000000e+00 3.22189122e-17
1.90546072e+02 2.21282251e-15 2.12868242e-17 0.00000000e+00 2.19153568e-15 0.00000000e+00 2.12868242e-17
2.18776162e+02 1.18759596e-15 1.40640653e-17 0.00000000e+00 1.17353189e-15 0.00000000e+00 1.40640653e-17
2.51188643e+02 6.33109858e-16 9.29203577e-18 0.00000000e+00 6.23817822e-16 0.00000000e+00 9.29203577e-18
2.88403150e+02 3.35159354e-16 6.13918715e-18 0.00000000e+00 3.29020167e-16 0.00000000e+00 6.13918715e-18
3.31131121e+02 1.76652677e-16 4.05612073e-18 0.00000000e+00 1.72596556e-16 0.00000000e+00 4.05612073e-18
3.80189396e+02 9.26695251e-17 2.67985239e-18 0.00000000e+00 8.99896727e-17 0.00000000e+00 2.67985239e-18
4.36515832e+02 4.84794755e-17 1.77056092e-18 0.00000000e+00 4.67089146e-17 0.00000000e+00 1.77056092e-18
5.01187234e+02 2.53084630e-17 1.16979800e-18 0.00000000e+00 2.41386650e-17 0.00000000e+00 1.16979800e-18
5.75439937e+02 1.32020357e-17 7.72877871e-19 0.00000000e+00 1.24291578e-17 0.00000000e+00 7.72877871e-19
6.60693448e+02 6.89031878e-18 5.10635346e-19 0.00000000e+00 6.37968343e-18 0.00000000e+00 5.10635346e-19
7.58577575e+02 3.60308000e-18 3.37373427e-19 0.00000000e+00 3.26570658e-18 0.00000000e+00 3.37373427e-19
8.70963590e+02 1.89020585e-18 2.22900413e-19 0.00000000e+00 1.66730543e-18 0.00000000e+00 2.22900413e-19
1.00000000e+03 8.49233830e-19 0.00000000e+00 0.00000000e+00 8.49233830e-19 0.00000000e+00 0.00000000e+00
