# column 1: lambda (micron)
# column 2: total flux; lambda*F_lambda (W/m2)
# column 3: direct stellar flux; lambda*F_lambda (W/m2)
# column 4: scattered stellar flux; lambda*F_lambda (W/m2)
# column 5: total dust emission flux; lambda*F_lambda (W/m2)
# column 6: dust emission scattered flux; lambda*F_lambda (W/m2)
# column 7: transparent flux; lambda*F_lambda (W/m2)
1.00000000e-03 6.93993892e-13 6.93993746e-13 1.46820752e-19 0.00000000e+00 0.00000000e+00 6.93993746e-13
1.14815362e-03 8.19135397e-13 8.19135139e-13 2.57530019e-19 0.00000000e+00 0.00000000e+00 8.19135139e-13
1.31825674e-03 9.66842502e-13 9.66842108e-13 3.93808627e-19 0.00000000e+00 0.00000000e+00 9.66842108e-13
1.51356125e-03 1.14118432e-12 1.14118369e-12 6.24209423e-19 0.00000000e+00 0.00000000e+00 1.14118369e-12
1.73780083e-03 1.34696381e-12 1.34696266e-12 1.15022542e-18 0.00000000e+00 0.00000000e+00 1.34696266e-12
1.99526231e-03 1.58985001e-12 1.58984782e-12 2.18231320e-18 0.00000000e+00 0.00000000e+00 1.58984782e-12
2.29086765e-03 1.87653343e-12 1.87653019e-12 3.24170905e-18 0.00000000e+00 0.00000000e+00 1.87653019e-12
2.63026799e-03 2.21491409e-12 2.21490731e-12 6.77585213e-18 0.00000000e+00 0.00000000e+00 2.21490731e-12
3.01995172e-03 2.61431316e-12 2.61430080e-12 1.23592462e-17 0.00000000e+00 0.00000000e+00 2.61430080e-12
3.46736850e-03 3.08573240e-12 3.08571319e-12 1.92150084e-17 0.00000000e+00 0.00000000e+00 3.08571319e-12
3.98107171e-03 3.64216399e-12 3.64213095e-12 3.30417274e-17 0.00000000e+00 0.00000000e+00 3.64213095e-12
4.57088190e-03 4.29894878e-12 4.29888232e-12 6.64600200e-17 0.00000000e+00 0.00000000e+00 4.29888232e-12
5.24807460e-03 5.07418444e-12 5.07405951e-12 1.24932601e-16 0.00000000e+00 0.00000000e+00 5.07405951e-12
6.02559586e-03 5.98935499e-12 5.98901715e-12 3.37843548e-16 0.00000000e+00 0.00000000e+00 5.98901715e-12
6.91830971e-03 7.06932605e-12 7.06896053e-12 3.65518506e-16 0.00000000e+00 0.00000000e+00 7.06896053e-12
7.94328235e-03 8.34426638e-12 8.34363998e-12 6.26395438e-16 0.00000000e+00 0.00000000e+00 8.34363998e-12
9.12010839e-03 9.84920028e-12 9.84817045e-12 1.02983277e-15 0.00000000e+00 0.00000000e+00 9.84817045e-12
1.04712855e-02 1.10005489e-11 1.09990604e-11 1.48843353e-15 0.00000000e+00 0.00000000e+00 1.09990604e-11
1.20226443e-02 1.10011206e-11 1.09990604e-11 2.06019935e-15 0.00000000e+00 0.00000000e+00 1.09990604e-11
1.38038426e-02 1.10022232e-11 1.09990604e-11 3.16271111e-15 6.01410801e-289 3.14313521e-290 1.09990604e-11
1.58489319e-02 1.10031725e-11 1.09990604e-11 4.11205470e-15 2.99724294e-252 1.66518241e-253 1.09990604e-11
1.81970086e-02 1.10053941e-11 1.09990604e-11 6.33370183e-15 2.60260535e-220 1.45726863e-221 1.09990604e-11
2.08929613e-02 1.10073111e-11 1.09990604e-11 8.25061477e-15 1.53745579e-192 8.99638713e-194 1.09990604e-11
2.39883292e-02 1.10104032e-11 1.09990604e-11 1.13427894e-14 2.30552708e-168 1.57285026e-169 1.09990604e-11
2.75422870e-02 1.10146409e-11 1.09990604e-11 1.55804507e-14 2.52522872e-147 1.86824004e-148 1.09990604e-11
3.16227766e-02 1.10170077e-11 1.09990604e-11 1.79472936e-14 4.96028670e-129 3.70316789e-130 1.09990604e-11
3.63078055e-02 1.10206882e-11 1.09990604e-11 2.16277669e-14 3.98270140e-113 3.06640920e-114 1.09990604e-11
4.16869383e-02 1.10288730e-11 1.09990604e-11 2.98125624e-14 2.67124283e-99 2.36786117e-100 1.09990604e-11
4.78630092e-02 1.10375224e-11 1.09990604e-11 3.84619113e-14 2.71257147e-87 2.66860944e-88 1.09990604e-11
5.49540874e-02 1.10467780e-11 1.09990604e-11 4.77175911e-14 7.18783239e-77 7.52430611e-78 1.09990604e-11
6.30957344e-02 1.10540916e-11 1.09990604e-11 5.50311174e-14 1.03767534e-67 1.15481817e-68 1.09990604e-11
7.24435960e-02 1.10501801e-11 1.09990604e-11 5.11196754e-14 8.95645136e-60 9.05414718e-61 1.09990604e-11
8.31763771e-02 1.10522392e-11 1.09990604e-11 5.31787329e-14 5.54826205e-53 5.45709927e-54 1.09990604e-11
9.54992586e-02 1.10525645e-11 1.09990604e-11 5.35041037e-14 4.17939418e-47 4.25106636e-48 1.09990604e-11
1.09647820e-01 1.05603779e-11 1.05040253e-11 5.63526020e-14 4.72937681e-42 5.28060361e-43 1.05040253e-11
1.25892541e-01 9.85379848e-12 9.80292679e-12 5.08716842e-14 1.08686584e-37 1.20022006e-38 9.80292679e-12
1.44543977e-01 9.19492429e-12 9.14862359e-12 4.63006963e-14 6.03935353e-34 6.49317640e-35 9.14862359e-12
1.65958691e-01 8.58870404e-12 8.53799231e-12 5.07117238e-14 7.74414811e-31 8.92297644e-32 8.53799231e-12
1.90546072e-01 8.02180998e-12 7.96811805e-12 5.36919376e-14 2.67091237e-28 3.48247292e-29 7.96811805e-12
2.18776162e-01 7.48898276e-12 7.43628044e-12 5.27023258e-14 3.56403674e-26 4.79395215e-27 7.43628044e-12
2.51188643e-01 7.00262668e-12 6.93994070e-12 6.26859826e-14 3.81248228e-24 6.11363009e-25 6.93994070e-12
2.88403150e-01 6.53523075e-12 6.47672950e-12 5.85012497e-14 2.12265422e-22 3.37644150e-23 6.47672950e-12
3.31131121e-01 6.09589117e-12 6.04443567e-12 5.14554973e-14 6.55284021e-21 1.02811983e-21 6.04443567e-12
3.80189396e-01 5.68636534e-12 5.64099558e-12 4.53696300e-14 1.26052413e-19 2.02209137e-20 5.64099558e-12
4.36515832e-01 5.30810824e-12 5.26448339e-12 4.36232365e-14 1.61304583e-18 2.63305486e-19 5.26448339e-12
5.01187234e-01 4.95149840e-12 4.91310176e-12 3.83820577e-14 1.45833018e-17 2.40190756e-18 4.91310176e-12
5.75439937e-01 4.62289232e-12 4.58517335e-12 3.76217538e-14 9.72125320e-17 1.60670351e-17 4.58517335e-12
6.60693448e-01 4.31240404e-12 4.27913275e-12 3.27781564e-14 4.93136125e-16 8.03963073e-17 4.27913275e-12
7.58577575e-01 4.02471362e-12 3.99351904e-12 2.92211243e-14 1.97345236e-15 3.06527804e-16 3.99351904e-12
8.70963590e-01 3.75888093e-12 3.72696882e-12 2.54943920e-14 6.41772018e-15 9.25843067e-16 3.72696882e-12
1.00000000e+00 3.51760636e-12 3.47820968e-12 2.20986122e-14 1.72980654e-14 2.29081096e-15 3.47820968e-12
1.14815362e+00 3.30460052e-12 3.24605414e-12 1.82040500e-14 4.03423257e-14 4.70587230e-15 3.24605414e-12
1.31825674e+00 3.12683824e-12 3.02939399e-12 1.44199581e-14 8.30242967e-14 8.32137249e-15 3.02939399e-12
1.51356125e+00 2.98985978e-12 2.82719497e-12 1.13169972e-14 1.51347811e-13 1.28334660e-14 2.82719497e-12
1.73780083e+00 2.88906156e-12 2.63849186e-12 8.05028442e-15 2.42519414e-13 1.67774082e-14 2.63849186e-12
1.99526231e+00 2.81490661e-12 2.46238388e-12 5.73878127e-15 3.46783949e-13 1.87942756e-14 2.46238388e-12
2.29086765e+00 2.74730684e-12 2.29803035e-12 4.00979704e-15 4.45266700e-13 1.84659321e-14 2.29803035e-12
2.63026799e+00 2.67113530e-12 2.14464670e-12 2.68885361e-15 5.23799746e-13 1.61974782e-14 2.14464670e-12
3.01995172e+00 2.57308009e-12 2.00150076e-12 1.74767006e-15 5.69831661e-13 1.28260708e-14 2.00150076e-12
3.46736850e+00 2.45106247e-12 1.86790919e-12 1.17547127e-15 5.81977806e-13 9.59380055e-15 1.86790919e-12
3.98107171e+00 2.30577242e-12 1.74323429e-12 7.99899778e-16 5.61738228e-13 6.67958595e-15 1.74323429e-12
4.57088190e+00 2.14568456e-12 1.62688090e-12 4.99108684e-16 5.18304557e-13 4.30657911e-15 1.62688090e-12
5.24807460e+00 1.80906291e-12 1.34518114e-12 2.62721338e-16 4.63619049e-13 2.65408152e-15 1.34518114e-12
6.02559586e+00 1.29724280e-12 8.88752369e-13 1.08382501e-16 4.08382051e-13 1.52396888e-15 8.88752369e-13
6.70000000e+00 1.01332636e-12 6.46481889e-13 5.47358976e-17 3.66789735e-13 9.61528829e-16 6.46481889e-13
6.92422916e+00 9.39348773e-13 5.85688198e-13 4.57767883e-17 3.53614798e-13 8.27869224e-16 5.85688198e-13
7.15596261e+00 8.75331235e-13 5.30611407e-13 3.62557091e-17 3.44683572e-13 7.04290527e-16 5.30611407e-13
7.39545150e+00 8.27085518e-13 4.80713913e-13 2.86288089e-17 3.46342977e-13 5.96405193e-16 4.80713913e-13
7.64295536e+00 8.10982305e-13 4.35508666e-13 1.91351895e-17 3.75454504e-13 5.05385714e-16 4.35508666e-13
7.89874245e+00 8.42291465e-13 3.94554418e-13 1.17809384e-17 4.47725266e-13 4.17533833e-16 3.94554418e-13
8.16308998e+00 9.10438114e-13 3.57451415e-13 6.95586876e-18 5.52979743e-13 3.47276413e-16 3.57451415e-13
8.43628443e+00 1.02467117e-12 3.23837494e-13 4.22473097e-18 7.00829452e-13 2.77160304e-16 3.23837494e-13
8.71862190e+00 1.09405975e-12 2.93384550e-13 2.68014309e-18 8.00672517e-13 2.16611957e-16 2.93384550e-13
9.01040836e+00 1.17084101e-12 2.65795332e-13 1.76164543e-18 9.05043915e-13 1.69031144e-16 2.65795332e-13
9.31196005e+00 1.22547235e-12 2.40800541e-13 0.00000000e+00 9.84671810e-13 0.00000000e+00 2.40800541e-13
9.62360379e+00 1.19538064e-12 2.18156204e-13 0.00000000e+00 9.77224435e-13 0.00000000e+00 2.18156204e-13
9.94567731e+00 1.09474430e-12 1.97641289e-13 0.00000000e+00 8.97103015e-13 0.00000000e+00 1.97641289e-13
1.02785297e+01 9.84523672e-13 1.79055550e-13 0.00000000e+00 8.05468122e-13 0.00000000e+00 1.79055550e-13
1.06225216e+01 8.76398848e-13 1.62217572e-13 0.00000000e+00 7.14181276e-13 0.00000000e+00 1.62217572e-13
1.09780260e+01 7.67771588e-13 1.46962999e-13 0.00000000e+00 6.20808589e-13 0.00000000e+00 1.46962999e-13
1.13454280e+01 6.72379116e-13 1.33142932e-13 0.00000000e+00 5.39236184e-13 0.00000000e+00 1.33142932e-13
1.17251259e+01 5.92304584e-13 1.20622472e-13 0.00000000e+00 4.71682112e-13 0.00000000e+00 1.20622472e-13
1.21175312e+01 5.21490535e-13 1.09279408e-13 0.00000000e+00 4.12211126e-13 0.00000000e+00 1.09279408e-13
1.25230691e+01 4.59225283e-13 9.90030204e-14 0.00000000e+00 3.60222263e-13 0.00000000e+00 9.90030204e-14
1.29421791e+01 4.06787613e-13 8.96930008e-14 0.00000000e+00 3.17094612e-13 0.00000000e+00 8.96930008e-14
1.33753155e+01 3.62339857e-13 8.12584743e-14 0.00000000e+00 2.81081383e-13 0.00000000e+00 8.12584743e-14
1.38229477e+01 3.31551891e-13 7.36171115e-14 0.00000000e+00 2.57934779e-13 0.00000000e+00 7.36171115e-14
1.42855609e+01 3.11136861e-13 6.66943252e-14 0.00000000e+00 2.44442536e-13 0.00000000e+00 6.66943252e-14
1.47636563e+01 3.07191893e-13 6.04225420e-14 0.00000000e+00 2.46769351e-13 0.00000000e+00 6.04225420e-14
1.52577522e+01 3.06729499e-13 5.47405431e-14 0.00000000e+00 2.51988956e-13 0.00000000e+00 5.47405431e-14
1.57683840e+01 3.09467047e-13 4.95928665e-14 0.00000000e+00 2.59874180e-13 0.00000000e+00 4.95928665e-14
1.62961051e+01 3.13032611e-13 4.49292657e-14 0.00000000e+00 2.68103345e-13 0.00000000e+00 4.49292657e-14
1.68414875e+01 3.16755187e-13 4.07042194e-14 0.00000000e+00 2.76050968e-13 0.00000000e+00 4.07042194e-14
1.74051222e+01 3.16207517e-13 3.68764869e-14 0.00000000e+00 2.79331031e-13 0.00000000e+00 3.68764869e-14
1.79876201e+01 3.12921765e-13 3.34087056e-14 0.00000000e+00 2.79513059e-13 0.00000000e+00 3.34087056e-14
1.85896125e+01 3.04844480e-13 3.02670267e-14 0.00000000e+00 2.74577454e-13 0.00000000e+00 3.02670267e-14
1.92117518e+01 2.91204625e-13 2.74207841e-14 0.00000000e+00 2.63783841e-13 0.00000000e+00 2.74207841e-14
1.98547123e+01 2.76076808e-13 2.48421957e-14 0.00000000e+00 2.51234612e-13 0.00000000e+00 2.48421957e-14
2.05191907e+01 2.60772528e-13 2.25060919e-14 0.00000000e+00 2.38266436e-13 0.00000000e+00 2.25060919e-14
2.12059073e+01 2.46556004e-13 2.03896700e-14 0.00000000e+00 2.26166334e-13 0.00000000e+00 2.03896700e-14
2.19156062e+01 2.33805033e-13 1.84722717e-14 0.00000000e+00 2.15332761e-13 0.00000000e+00 1.84722717e-14
2.26490567e+01 2.22743109e-13 1.67351811e-14 0.00000000e+00 2.06007928e-13 0.00000000e+00 1.67351811e-14
2.34070535e+01 2.12649733e-13 1.51614426e-14 0.00000000e+00 1.97488291e-13 0.00000000e+00 1.51614426e-14
2.41904183e+01 2.03468157e-13 1.37356949e-14 0.00000000e+00 1.89732462e-13 0.00000000e+00 1.37356949e-14
2.50000000e+01 1.95195822e-13 1.24440213e-14 0.00000000e+00 1.82751801e-13 0.00000000e+00 1.24440213e-14
2.75422870e+01 1.73656280e-13 9.30637977e-15 0.00000000e+00 1.64349900e-13 0.00000000e+00 9.30637977e-15
3.16227766e+01 1.47439444e-13 6.14866414e-15 0.00000000e+00 1.41290780e-13 0.00000000e+00 6.14866414e-15
3.63078055e+01 1.22691302e-13 4.06238211e-15 0.00000000e+00 1.18628920e-13 0.00000000e+00 4.06238211e-15
4.16869383e+01 9.79394909e-14 2.68398924e-15 0.00000000e+00 9.52555016e-14 0.00000000e+00 2.68398924e-15
4.78630092e+01 7.43426724e-14 1.77329411e-15 0.00000000e+00 7.25693782e-14 0.00000000e+00 1.77329411e-15
5.49540874e+01 5.39973141e-14 1.17160380e-15 0.00000000e+00 5.28257103e-14 0.00000000e+00 1.17160380e-15
6.30957344e+01 3.76283242e-14 7.74070953e-16 0.00000000e+00 3.68542533e-14 0.00000000e+00 7.74070953e-16
7.24435960e+01 2.53068016e-14 5.11423607e-16 0.00000000e+00 2.47953780e-14 0.00000000e+00 5.11423607e-16
8.31763771e+01 1.64737501e-14 3.37894226e-16 0.00000000e+00 1.61358559e-14 0.00000000e+00 3.37894226e-16
9.54992586e+01 1.04318156e-14 2.23244502e-16 0.00000000e+00 1.02085711e-14 0.00000000e+00 2.23244502e-16
1.09647820e+02 6.44346232e-15 1.47496179e-16 0.00000000e+00 6.29596614e-15 0.00000000e+00 1.47496179e-16
1.25892541e+02 3.93385720e-15 9.74497594e-17 0.00000000e+00 3.83640744e-15 0.00000000e+00 9.74497594e-17
1.44543977e+02 2.36236464e-15 6.43844175e-17 0.00000000e+00 2.29798022e-15 0.00000000e+00 6.43844175e-17
1.65958691e+02 1.34176772e-15 4.25383628e-17 0.00000000e+00 1.29922935e-15 0.00000000e+00 4.25383628e-17
1.90546072e+02 7.55833917e-16 2.81048176e-17 0.00000000e+00 7.27729100e-16 0.00000000e+00 2.81048176e-17
2.18776162e+02 4.21822946e-16 1.85686688e-17 0.00000000e+00 4.03254277e-16 0.00000000e+00 1.85686688e-17
2.51188643e+02 2.33182097e-16 1.22681978e-17 0.00000000e+00 2.20913899e-16 0.00000000e+00 1.22681978e-17
2.88403150e+02 1.27712558e-16 8.10551794e-18 0.00000000e+00 1.19607040e-16 0.00000000e+00 8.10551794e-18
3.31131121e+02 6.95436449e-17 5.35526259e-18 0.00000000e+00 6.41883824e-17 0.00000000e+00 5.35526259e-18
3.80189396e+02 3.76725652e-17 3.53818691e-18 0.00000000e+00 3.41343783e-17 0.00000000e+00 3.53818691e-18
4.36515832e+02 2.03612293e-17 2.33765691e-18 0.00000000e+00 1.80235724e-17 0.00000000e+00 2.33765691e-18
5.01187234e+02 1.09979688e-17 1.54447460e-18 0.00000000e+00 9.45349418e-18 0.00000000e+00 1.54447460e-18
5.75439937e+02 5.95091190e-18 1.02042425e-18 0.00000000e+00 4.93048764e-18 0.00000000e+00 1.02042425e-18
6.60693448e+02 3.23318796e-18 6.74187617e-19 0.00000000e+00 2.55900034e-18 0.00000000e+00 6.74187617e-19
7.58577575e+02 1.76800363e-18 4.45431341e-19 0.00000000e+00 1.32257229e-18 0.00000000e+00 4.45431341e-19
8.70963590e+02 9.75186921e-19 2.94293569e-19 0.00000000e+00 6.80893352e-19 0.00000000e+00 2.94293569e-19
1.00000000e+03 3.49319511e-19 0.00000000e+00 0.00000000e+00 3.49319511e-19 0.00000000e+00 0.00000000e+00
