# column 1: lambda (micron)
# column 2: total flux; lambda*F_lambda (W/m2)
# column 3: direct stellar flux; lambda*F_lambda (W/m2)
# column 4: scattered stellar flux; lambda*F_lambda (W/m2)
# column 5: total dust emission flux; lambda*F_lambda (W/m2)
# column 6: dust emission scattered flux; lambda*F_lambda (W/m2)
# column 7: transparent flux; lambda*F_lambda (W/m2)
1.00000000e-03 5.25639979e-13 5.25636674e-13 3.30563694e-18 0.00000000e+00 0.00000000e+00 5.25636674e-13
1.14815362e-03 6.20424713e-13 6.20419813e-13 4.89985418e-18 0.00000000e+00 0.00000000e+00 6.20419813e-13
1.31825674e-03 7.32302168e-13 7.32294308e-13 7.86033610e-18 0.00000000e+00 0.00000000e+00 7.32294308e-13
1.51356125e-03 8.64354181e-13 8.64342083e-13 1.20983859e-17 0.00000000e+00 0.00000000e+00 8.64342083e-13
1.73780083e-03 1.02022324e-12 1.02020080e-12 2.24449949e-17 0.00000000e+00 0.00000000e+00 1.02020080e-12
1.99526231e-03 1.20420426e-12 1.20416405e-12 4.02039718e-17 0.00000000e+00 0.00000000e+00 1.20416405e-12
2.29086765e-03 1.42136178e-12 1.42129968e-12 6.21026560e-17 0.00000000e+00 0.00000000e+00 1.42129968e-12
2.63026799e-03 1.67771703e-12 1.67758934e-12 1.27684120e-16 0.00000000e+00 0.00000000e+00 1.67758934e-12
3.01995172e-03 1.98031198e-12 1.98009332e-12 2.18658449e-16 0.00000000e+00 0.00000000e+00 1.98009332e-12
3.46736850e-03 2.33749266e-12 2.33714500e-12 3.47651187e-16 0.00000000e+00 0.00000000e+00 2.33714500e-12
3.98107171e-03 2.75915380e-12 2.75858048e-12 5.73319661e-16 0.00000000e+00 0.00000000e+00 2.75858048e-12
4.57088190e-03 3.25733761e-12 3.25600946e-12 1.32815031e-15 0.00000000e+00 0.00000000e+00 3.25600946e-12
5.24807460e-03 3.84551721e-12 3.84313516e-12 2.38204793e-15 0.00000000e+00 0.00000000e+00 3.84313516e-12
6.02559586e-03 4.54583474e-12 4.53613173e-12 9.70300212e-15 0.00000000e+00 0.00000000e+00 4.53613173e-12
6.91830971e-03 5.36040560e-12 5.35408989e-12 6.31570461e-15 0.00000000e+00 0.00000000e+00 5.35408989e-12
7.94328235e-03 6.32965981e-12 6.31954278e-12 1.01170212e-14 1.52656139e-303 7.26195963e-306 6.31954278e-12
9.12010839e-03 7.48015161e-12 7.45908676e-12 2.10648518e-14 7.05086852e-265 3.44963147e-267 7.45908676e-12
1.04712855e-02 8.35567733e-12 8.33078048e-12 2.48968532e-14 3.11896307e-231 1.61379102e-233 8.33078048e-12
1.20226443e-02 8.36726795e-12 8.33078048e-12 3.64874774e-14 5.09569550e-202 4.22560174e-204 8.33078048e-12
1.38038426e-02 8.38328752e-12 8.33078048e-12 5.25070452e-14 1.44023580e-176 1.61156536e-178 8.33078048e-12
1.58489319e-02 8.40071584e-12 8.33078048e-12 6.99353604e-14 2.01594680e-154 3.26308730e-156 8.33078048e-12
1.81970086e-02 8.43629573e-12 8.33078048e-12 1.05515253e-13 3.69837282e-135 7.04333579e-137 8.33078048e-12
2.08929613e-02 8.46292800e-12 8.33078048e-12 1.32147526e-13 1.98563242e-118 4.96608900e-120 8.33078048e-12
2.39883292e-02 8.49508905e-12 8.33078048e-12 1.64308576e-13 7.15472095e-104 2.38937695e-105 8.33078048e-12
2.75422870e-02 8.51733982e-12 8.33078048e-12 1.86559342e-13 3.27064503e-91 1.28212156e-92 8.33078048e-12
3.16227766e-02 8.52881291e-12 8.33078048e-12 1.98032437e-13 3.24612341e-80 1.43443024e-81 8.33078048e-12
3.63078055e-02 8.54279127e-12 8.33078048e-12 2.12010791e-13 1.14311607e-70 5.52511478e-72 8.33078048e-12
4.16869383e-02 8.54372167e-12 8.33078048e-12 2.12941190e-13 2.20966827e-62 1.27483914e-63 8.33078048e-12
4.78630092e-02 8.54166686e-12 8.33078048e-12 2.10886389e-13 3.38761857e-55 2.29875291e-56 8.33078048e-12
5.49540874e-02 8.52894929e-12 8.33078048e-12 1.98168818e-13 5.67800739e-49 4.14950446e-50 8.33078048e-12
6.30957344e-02 8.51207667e-12 8.33078048e-12 1.81296191e-13 1.84624483e-43 1.44062695e-44 8.33078048e-12
7.24435960e-02 8.48938882e-12 8.33078048e-12 1.58608341e-13 1.07019184e-38 7.71580741e-40 8.33078048e-12
8.31763771e-02 8.47351579e-12 8.33078048e-12 1.42735319e-13 1.09928257e-34 7.62907510e-36 8.33078048e-12
9.54992586e-02 8.48494093e-12 8.33078048e-12 1.54160453e-13 3.12137043e-31 2.29678701e-32 8.33078048e-12
1.09647820e-01 8.12576679e-12 7.95583672e-12 1.69930069e-13 2.66613780e-28 2.10842167e-29 7.95583672e-12
1.25892541e-01 7.59406290e-12 7.42481883e-12 1.69244066e-13 8.68670295e-26 6.93687340e-27 7.42481883e-12
1.44543977e-01 7.09236980e-12 6.92924411e-12 1.63125691e-13 1.18529614e-23 9.19167317e-25 6.92924411e-12
1.65958691e-01 6.63948855e-12 6.46674687e-12 1.72741679e-13 6.05229739e-22 5.30356632e-23 6.46674687e-12
1.90546072e-01 6.21048971e-12 6.03511933e-12 1.75370374e-13 1.28283552e-20 1.29884487e-21 6.03511933e-12
2.18776162e-01 5.78703601e-12 5.63230107e-12 1.54734796e-13 1.52051848e-19 1.57286440e-20 5.63230107e-12
2.51188643e-01 5.43774574e-12 5.25636919e-12 1.81374681e-13 1.86971613e-18 2.40744796e-19 5.25636919e-12
2.88403150e-01 5.07902188e-12 4.90552916e-12 1.73477189e-13 1.55369138e-17 1.94129142e-18 4.90552916e-12
3.31131121e-01 4.74265855e-12 4.57810618e-12 1.64463279e-13 8.90904148e-17 1.08959796e-17 4.57810618e-12
3.80189396e-01 4.42283301e-12 4.27253728e-12 1.49923661e-13 3.72065476e-16 4.49658121e-17 4.27253728e-12
4.36515832e-01 4.12895864e-12 3.98736380e-12 1.40412792e-13 1.18204827e-15 1.42156979e-16 3.98736380e-12
5.01187234e-01 3.85779582e-12 3.72122441e-12 1.33570288e-13 3.00111960e-15 3.70950810e-16 3.72122441e-12
5.75439937e-01 3.59903264e-12 3.47284869e-12 1.19704604e-13 6.47935206e-15 8.49123805e-16 3.47284869e-12
6.60693448e-01 3.36604800e-12 3.24105097e-12 1.12112093e-13 1.28849394e-14 1.92029676e-15 3.24105097e-12
7.58577575e-01 3.15137209e-12 3.02472476e-12 1.00673876e-13 2.59734588e-14 4.56442413e-15 3.02472476e-12
8.70963590e-01 2.96778750e-12 2.82283739e-12 9.05183330e-14 5.44317773e-14 1.07583718e-14 2.82283739e-12
1.00000000e+00 2.83039423e-12 2.63442513e-12 8.09050011e-14 1.15064092e-13 2.36147016e-14 2.63442513e-12
1.14815362e+00 2.76297947e-12 2.45858859e-12 6.70626043e-14 2.37328280e-13 4.71111446e-14 2.45858859e-12
1.31825674e+00 2.80729285e-12 2.29448837e-12 5.41615910e-14 4.58642887e-13 8.21371437e-14 2.29448837e-12
1.51356125e+00 3.00115922e-12 2.14134114e-12 4.38552632e-14 8.15962810e-13 1.26224860e-13 2.14134114e-12
1.73780083e+00 3.33080738e-12 1.99841583e-12 3.43379375e-14 1.29805361e-12 1.68264733e-13 1.99841583e-12
1.99526231e+00 3.75131342e-12 1.86503017e-12 2.55706922e-14 1.86071256e-12 1.92949201e-13 1.86503017e-12
2.29086765e+00 4.18394320e-12 1.74054743e-12 1.83733382e-14 2.42502244e-12 1.94321663e-13 1.74054743e-12
2.63026799e+00 4.54199179e-12 1.62437337e-12 1.33235097e-14 2.90429491e-12 1.78416574e-13 1.62437337e-12
3.01995172e+00 4.78258791e-12 1.51595343e-12 9.31450503e-15 3.25731997e-12 1.52923536e-13 1.51595343e-12
3.46736850e+00 4.87290475e-12 1.41477006e-12 6.65975628e-15 3.45147493e-12 1.22536482e-13 1.41477006e-12
3.98107171e+00 4.82136107e-12 1.32034025e-12 4.52360924e-15 3.49649722e-12 9.27393825e-14 1.32034025e-12
4.57088190e+00 4.65449487e-12 1.23221321e-12 3.09464494e-15 3.41918701e-12 6.54790023e-14 1.23221321e-12
5.24807460e+00 4.26877129e-12 1.01885146e-12 1.79298944e-15 3.24812683e-12 4.32188059e-14 1.01885146e-12
6.02559586e+00 3.71954157e-12 6.73148485e-13 7.90282805e-16 3.04560280e-12 2.68735969e-14 6.73148485e-13
6.70000000e+00 3.35241919e-12 4.89650796e-13 4.07217144e-16 2.86236118e-12 1.77704612e-14 4.89650796e-13
6.92422916e+00 3.24200921e-12 4.43605145e-13 3.36048688e-16 2.79806802e-12 1.55327763e-14 4.43605145e-13
7.15596261e+00 3.15941883e-12 4.01889522e-13 2.55388295e-16 2.75727392e-12 1.34523651e-14 4.01889522e-13
7.39545150e+00 3.12950363e-12 3.64096743e-13 1.97955554e-16 2.76520893e-12 1.14092454e-14 3.64096743e-13
7.64295536e+00 3.22714912e-12 3.29857910e-13 1.36947100e-16 2.89715427e-12 9.39365490e-15 3.29857910e-13
7.89874245e+00 3.52329359e-12 2.98838820e-13 8.23925961e-17 3.22437237e-12 7.36498054e-15 2.98838820e-13
8.16308998e+00 3.89080182e-12 2.70736695e-13 4.78690541e-17 3.62001725e-12 5.58797745e-15 2.70736695e-13
8.43628443e+00 4.35848789e-12 2.45277229e-13 2.64110330e-17 4.11318425e-12 4.06622940e-15 2.45277229e-13
8.71862190e+00 4.67679448e-12 2.22211915e-13 1.65238090e-17 4.45456604e-12 3.15258349e-15 2.22211915e-13
9.01040836e+00 4.93770357e-12 2.01315610e-13 1.05760219e-17 4.73637739e-12 2.35753289e-15 2.01315610e-13
9.31196005e+00 5.13101118e-12 1.82384346e-13 0.00000000e+00 4.94862683e-12 0.00000000e+00 1.82384346e-13
9.62360379e+00 5.02399197e-12 1.65233336e-13 0.00000000e+00 4.85875863e-12 0.00000000e+00 1.65233336e-13
9.94567731e+00 4.71820055e-12 1.49695167e-13 0.00000000e+00 4.56850538e-12 0.00000000e+00 1.49695167e-13
1.02785297e+01 4.39122939e-12 1.35618173e-13 0.00000000e+00 4.25561121e-12 0.00000000e+00 1.35618173e-13
1.06225216e+01 4.11177010e-12 1.22864947e-13 0.00000000e+00 3.98890515e-12 0.00000000e+00 1.22864947e-13
1.09780260e+01 3.75080106e-12 1.11311006e-13 0.00000000e+00 3.63949005e-12 0.00000000e+00 1.11311006e-13
1.13454280e+01 3.45331580e-12 1.00843571e-13 0.00000000e+00 3.35247222e-12 0.00000000e+00 1.00843571e-13
1.17251259e+01 3.20349223e-12 9.13604705e-14 0.00000000e+00 3.11213176e-12 0.00000000e+00 9.13604705e-14
1.21175312e+01 2.99892954e-12 8.27691389e-14 0.00000000e+00 2.91616040e-12 0.00000000e+00 8.27691389e-14
1.25230691e+01 2.78877657e-12 7.49857166e-14 0.00000000e+00 2.71379085e-12 0.00000000e+00 7.49857166e-14
1.29421791e+01 2.60695227e-12 6.79342298e-14 0.00000000e+00 2.53901804e-12 0.00000000e+00 6.79342298e-14
1.33753155e+01 2.45325659e-12 6.15458488e-14 0.00000000e+00 2.39171074e-12 0.00000000e+00 6.15458488e-14
1.38229477e+01 2.34612890e-12 5.57582167e-14 0.00000000e+00 2.29037069e-12 0.00000000e+00 5.57582167e-14
1.42855609e+01 2.28491154e-12 5.05148403e-14 0.00000000e+00 2.23439670e-12 0.00000000e+00 5.05148403e-14
1.47636563e+01 2.29470814e-12 4.57645392e-14 0.00000000e+00 2.24894360e-12 0.00000000e+00 4.57645392e-14
1.52577522e+01 2.31999004e-12 4.14609457e-14 0.00000000e+00 2.27852909e-12 0.00000000e+00 4.14609457e-14
1.57683840e+01 2.36356919e-12 3.75620523e-14 0.00000000e+00 2.32600714e-12 0.00000000e+00 3.75620523e-14
1.62961051e+01 2.40506396e-12 3.40298020e-14 0.00000000e+00 2.37103415e-12 0.00000000e+00 3.40298020e-14
1.68414875e+01 2.44408054e-12 3.08297166e-14 0.00000000e+00 2.41325082e-12 0.00000000e+00 3.08297166e-14
1.74051222e+01 2.46810644e-12 2.79305599e-14 0.00000000e+00 2.44017588e-12 0.00000000e+00 2.79305599e-14
1.79876201e+01 2.46846176e-12 2.53040334e-14 0.00000000e+00 2.44315773e-12 0.00000000e+00 2.53040334e-14
1.85896125e+01 2.46502428e-12 2.29244994e-14 0.00000000e+00 2.44209978e-12 0.00000000e+00 2.29244994e-14
1.92117518e+01 2.42928318e-12 2.07687314e-14 0.00000000e+00 2.40851444e-12 0.00000000e+00 2.07687314e-14
1.98547123e+01 2.36624076e-12 1.88156870e-14 0.00000000e+00 2.34742508e-12 0.00000000e+00 1.88156870e-14
2.05191907e+01 2.31563215e-12 1.70463024e-14 0.00000000e+00 2.29858585e-12 0.00000000e+00 1.70463024e-14
2.12059073e+01 2.25383701e-12 1.54433068e-14 0.00000000e+00 2.23839371e-12 0.00000000e+00 1.54433068e-14
2.19156062e+01 2.20865421e-12 1.39910532e-14 0.00000000e+00 2.19466316e-12 0.00000000e+00 1.39910532e-14
2.26490567e+01 2.15227727e-12 1.26753663e-14 0.00000000e+00 2.13960190e-12 0.00000000e+00 1.26753663e-14
2.34070535e+01 2.10516890e-12 1.14834036e-14 0.00000000e+00 2.09368549e-12 0.00000000e+00 1.14834036e-14
2.41904183e+01 2.04615554e-12 1.04035303e-14 0.00000000e+00 2.03575201e-12 0.00000000e+00 1.04035303e-14
2.50000000e+01 1.99350637e-12 9.42520591e-15 0.00000000e+00 1.98408116e-12 0.00000000e+00 9.42520591e-15
2.75422870e+01 1.82731931e-12 7.04872996e-15 0.00000000e+00 1.82027058e-12 0.00000000e+00 7.04872996e-15
3.16227766e+01 1.55723416e-12 4.65704970e-15 0.00000000e+00 1.55257711e-12 0.00000000e+00 4.65704970e-15
3.63078055e+01 1.25283473e-12 3.07688223e-15 0.00000000e+00 1.24975784e-12 0.00000000e+00 3.07688223e-15
4.16869383e+01 9.36520069e-13 2.03287593e-15 0.00000000e+00 9.34487193e-13 0.00000000e+00 2.03287593e-15
4.78630092e+01 6.53246566e-13 1.34310781e-15 0.00000000e+00 6.51903458e-13 0.00000000e+00 1.34310781e-15
5.49540874e+01 4.28197020e-13 8.87382527e-16 0.00000000e+00 4.27309637e-13 0.00000000e+00 8.87382527e-16
6.30957344e+01 2.67270379e-13 5.86287821e-16 0.00000000e+00 2.66684091e-13 0.00000000e+00 5.86287821e-16
7.24435960e+01 1.60303522e-13 3.87356522e-16 0.00000000e+00 1.59916166e-13 0.00000000e+00 3.87356522e-16
8.31763771e+01 9.32275786e-14 2.55923916e-16 0.00000000e+00 9.29716546e-14 0.00000000e+00 2.55923916e-16
9.54992586e+01 5.30271330e-14 1.69087255e-16 0.00000000e+00 5.28580458e-14 0.00000000e+00 1.69087255e-16
1.09647820e+02 2.96495876e-14 1.11714841e-16 0.00000000e+00 2.95378728e-14 0.00000000e+00 1.11714841e-16
1.25892541e+02 1.65458918e-14 7.38092637e-17 0.00000000e+00 1.64720825e-14 0.00000000e+00 7.38092637e-17
1.44543977e+02 9.16742323e-15 4.87652969e-17 0.00000000e+00 9.11865793e-15 0.00000000e+00 4.87652969e-17
1.65958691e+02 4.83671919e-15 3.22189122e-17 0.00000000e+00 4.80450027e-15 0.00000000e+00 3.22189122e-17
1.90546072e+02 2.55164185e-15 2.12868242e-17 0.00000000e+00 2.53035502e-15 0.00000000e+00 2.12868242e-17
2.18776162e+02 1.34332137e-15 1.40640653e-17 0.00000000e+00 1.32925731e-15 0.00000000e+00 1.40640653e-17
2.51188643e+02 7.04597601e-16 9.29203577e-18 0.00000000e+00 6.95305565e-16 0.00000000e+00 9.29203577e-18
2.88403150e+02 3.67870243e-16 6.13918715e-18 0.00000000e+00 3.61731056e-16 0.00000000e+00 6.13918715e-18
3.31131121e+02 1.91611314e-16 4.05612073e-18 0.00000000e+00 1.87555194e-16 0.00000000e+00 4.05612073e-18
3.80189396e+02 9.95017070e-17 2.67985239e-18 0.00000000e+00 9.68218546e-17 0.00000000e+00 2.67985239e-18
4.36515832e+02 5.16035337e-17 1.77056092e-18 0.00000000e+00 4.98329728e-17 0.00000000e+00 1.77056092e-18
5.01187234e+02 2.67369085e-17 1.16979800e-18 0.00000000e+00 2.55671105e-17 0.00000000e+00 1.16979800e-18
5.75439937e+02 1.38561089e-17 7.72877871e-19 0.00000000e+00 1.30832310e-17 0.00000000e+00 7.72877871e-19
6.60693448e+02 7.19036314e-18 5.10635346e-19 0.00000000e+00 6.67972780e-18 0.00000000e+00 5.10635346e-19
7.58577575e+02 3.74103467e-18 3.37373427e-19 0.00000000e+00 3.40366124e-18 0.00000000e+00 3.37373427e-19
8.70963590e+02 1.95384683e-18 2.22900413e-19 0.00000000e+00 1.73094641e-18 0.00000000e+00 2.22900413e-19
1.00000000e+03 8.78660973e-19 0.00000000e+00 0.00000000e+00 8.78660973e-19 0.00000000e+00 0.00000000e+00
