# column 1: lambda (micron)
# column 2: total flux; lambda*F_lambda (W/m2)
# column 3: direct stellar flux; lambda*F_lambda (W/m2)
# column 4: scattered stellar flux; lambda*F_lambda (W/m2)
# column 5: total dust emission flux; lambda*F_lambda (W/m2)
# column 6: dust emission scattered flux; lambda*F_lambda (W/m2)
# column 7: transparent flux; lambda*F_lambda (W/m2)
1.00000000e-03 1.04634795e-12 1.04634360e-12 4.34464335e-18 0.00000000e+00 0.00000000e+00 1.04634360e-12
1.14815362e-03 1.23502786e-12 1.23502095e-12 6.90764445e-18 0.00000000e+00 0.00000000e+00 1.23502095e-12
1.31825674e-03 1.45773138e-12 1.45772071e-12 1.06739697e-17 0.00000000e+00 0.00000000e+00 1.45772071e-12
1.51356125e-03 1.72059475e-12 1.72057784e-12 1.69112144e-17 0.00000000e+00 0.00000000e+00 1.72057784e-12
1.73780083e-03 2.03086347e-12 2.03083353e-12 2.99452793e-17 0.00000000e+00 0.00000000e+00 2.03083353e-12
1.99526231e-03 2.39708957e-12 2.39703472e-12 5.48510636e-17 0.00000000e+00 0.00000000e+00 2.39703472e-12
2.29086765e-03 2.82935852e-12 2.82926954e-12 8.89765098e-17 0.00000000e+00 0.00000000e+00 2.82926954e-12
2.63026799e-03 3.33962038e-12 3.33944522e-12 1.75152856e-16 0.00000000e+00 0.00000000e+00 3.33944522e-12
3.01995172e-03 3.94193007e-12 3.94161611e-12 3.13961039e-16 0.00000000e+00 0.00000000e+00 3.94161611e-12
3.46736850e-03 4.65290537e-12 4.65237083e-12 5.34540080e-16 0.00000000e+00 0.00000000e+00 4.65237083e-12
3.98107171e-03 5.49215936e-12 5.49128930e-12 8.70061195e-16 0.00000000e+00 0.00000000e+00 5.49128930e-12
4.57088190e-03 6.48324197e-12 6.48148207e-12 1.75990103e-15 0.00000000e+00 0.00000000e+00 6.48148207e-12
5.24807460e-03 7.65363094e-12 7.65022704e-12 3.40389537e-15 0.00000000e+00 0.00000000e+00 7.65022704e-12
6.02559586e-03 9.03592580e-12 9.02972084e-12 6.20496028e-15 0.00000000e+00 0.00000000e+00 9.02972084e-12
6.91830971e-03 1.06677258e-11 1.06579658e-11 9.75993998e-15 0.00000000e+00 0.00000000e+00 1.06579658e-11
7.94328235e-03 1.28601662e-11 1.25798170e-11 2.80349203e-13 6.14710810e-304 2.91550399e-306 1.25798170e-11
9.12010839e-03 1.48854605e-11 1.48482176e-11 3.72428349e-14 2.58955436e-265 9.44169493e-268 1.48482176e-11
1.04712855e-02 1.66277939e-11 1.65834298e-11 4.43641398e-14 1.05928288e-231 5.10263410e-234 1.65834298e-11
1.20226443e-02 1.66618447e-11 1.65834298e-11 7.84149340e-14 1.61581125e-202 1.32324537e-204 1.65834298e-11
1.38038426e-02 1.66686554e-11 1.65834298e-11 8.52256330e-14 4.30263486e-177 4.92467662e-179 1.65834298e-11
1.58489319e-02 1.67138864e-11 1.65834298e-11 1.30456582e-13 5.70817625e-155 8.57848632e-157 1.65834298e-11
1.81970086e-02 1.67808352e-11 1.65834298e-11 1.97405412e-13 1.00211158e-135 1.92810966e-137 1.65834298e-11
2.08929613e-02 1.68286225e-11 1.65834298e-11 2.45192733e-13 5.18089996e-119 1.39966036e-120 1.65834298e-11
2.39883292e-02 1.69097774e-11 1.65834298e-11 3.26347611e-13 1.80586531e-104 6.59759010e-106 1.65834298e-11
2.75422870e-02 1.69938279e-11 1.65834298e-11 4.10398117e-13 8.04945408e-92 3.75806736e-93 1.65834298e-11
3.16227766e-02 1.70892713e-11 1.65834298e-11 5.05841545e-13 7.82244839e-81 4.40228636e-82 1.65834298e-11
3.63078055e-02 1.71553769e-11 1.65834298e-11 5.71947071e-13 2.70372466e-71 1.73411624e-72 1.65834298e-11
4.16869383e-02 1.73395756e-11 1.65834298e-11 7.56145774e-13 5.18469521e-63 4.36370866e-64 1.65834298e-11
4.78630092e-02 1.75080701e-11 1.65834298e-11 9.24640310e-13 7.87407093e-56 7.93768415e-57 1.65834298e-11
5.49540874e-02 1.76440320e-11 1.65834298e-11 1.06060219e-12 1.31110953e-49 1.47929804e-50 1.65834298e-11
6.30957344e-02 1.76426954e-11 1.65834298e-11 1.05926566e-12 4.22411020e-44 5.04882740e-45 1.65834298e-11
7.24435960e-02 1.75065547e-11 1.65834298e-11 9.23124883e-13 2.40655192e-39 2.57249364e-40 1.65834298e-11
8.31763771e-02 1.74656004e-11 1.65834298e-11 8.82170586e-13 2.44556140e-35 2.53785180e-36 1.65834298e-11
9.54992586e-02 1.74885233e-11 1.65834298e-11 9.05093523e-13 6.88156348e-32 7.42365694e-33 1.65834298e-11
1.09647820e-01 1.68191378e-11 1.58370587e-11 9.82079036e-13 5.85649409e-29 6.91375244e-30 1.58370587e-11
1.25892541e-01 1.57514825e-11 1.47800032e-11 9.71479305e-13 1.89835740e-26 2.30233910e-27 1.47800032e-11
1.44543977e-01 1.46814219e-11 1.37935015e-11 8.87920403e-13 2.57277883e-24 3.06021318e-25 1.37935015e-11
1.65958691e-01 1.37861874e-11 1.28728446e-11 9.13342765e-13 1.30612971e-22 1.67811280e-23 1.28728446e-11
1.90546072e-01 1.29460056e-11 1.20136376e-11 9.32367962e-13 2.76567405e-21 3.98766266e-22 1.20136376e-11
2.18776162e-01 1.20450974e-11 1.12117790e-11 8.33318395e-13 3.25170730e-20 4.61334275e-21 1.12117790e-11
2.51188643e-01 1.13784815e-11 1.04634409e-11 9.15040169e-13 3.98387522e-19 6.64206919e-20 1.04634409e-11
2.88403150e-01 1.06152017e-11 9.76505125e-12 8.50147098e-13 3.30592650e-18 5.44974360e-19 9.76505125e-12
3.31131121e-01 9.90331309e-12 9.11327608e-12 7.90018064e-13 1.89455360e-17 3.09949780e-18 9.11327608e-12
3.80189396e-01 9.20955790e-12 8.50500410e-12 7.04474813e-13 7.89910962e-17 1.26548216e-17 8.50500410e-12
4.36515832e-01 8.58028639e-12 7.93733165e-12 6.42698721e-13 2.56014548e-16 4.17657270e-17 7.93733165e-12
5.01187234e-01 7.97520939e-12 7.40754890e-12 5.66943692e-13 7.16799077e-16 1.29434131e-16 7.40754890e-12
5.75439937e-01 7.42184895e-12 6.91312687e-12 5.06691853e-13 2.03022994e-15 4.41515687e-16 6.91312687e-12
6.60693448e-01 6.89746681e-12 6.45170538e-12 4.39261043e-13 6.50038015e-15 1.66088384e-15 6.45170538e-12
7.58577575e-01 6.41762313e-12 6.02108180e-12 3.75164573e-13 2.13767600e-14 5.80246826e-15 6.02108180e-12
8.70963590e-01 5.99534242e-12 5.61920048e-12 3.10412117e-13 6.57298187e-14 1.73455731e-14 5.61920048e-12
1.00000000e+00 5.67148307e-12 5.24414302e-12 2.53273224e-13 1.74066835e-13 4.24954967e-14 5.24414302e-12
1.14815362e+00 5.50099153e-12 4.89411902e-12 1.97241544e-13 4.09630965e-13 8.98293263e-14 4.89411902e-12
1.31825674e+00 5.58130073e-12 4.56745763e-12 1.49476539e-13 8.64366559e-13 1.63749700e-13 4.56745763e-12
1.51356125e+00 5.99779452e-12 4.26259947e-12 1.13815991e-13 1.62137906e-12 2.63519796e-13 4.26259947e-12
1.73780083e+00 6.77971320e-12 3.97808929e-12 8.42701558e-14 2.71735375e-12 3.66173873e-13 3.97808929e-12
1.99526231e+00 7.87971380e-12 3.71256894e-12 6.26006814e-14 4.10454418e-12 4.46798394e-13 3.71256894e-12
2.29086765e+00 9.12900315e-12 3.46477093e-12 4.52732673e-14 5.61895895e-12 4.77326802e-13 3.46477093e-12
2.63026799e+00 1.03760164e-11 3.23351237e-12 3.22556576e-14 7.11024839e-12 4.66222317e-13 3.23351237e-12
3.01995172e+00 1.14761553e-11 3.01768933e-12 2.28145060e-14 8.43565151e-12 4.21762648e-13 3.01768933e-12
3.46736850e+00 1.23892156e-11 2.81627154e-12 1.61524258e-14 9.55679162e-12 3.60261941e-13 2.81627154e-12
3.98107171e+00 1.29624732e-11 2.62829753e-12 1.12972493e-14 1.03228784e-11 2.90948230e-13 2.62829753e-12
4.57088190e+00 1.33146540e-11 2.45286997e-12 7.78920954e-15 1.08539948e-11 2.25279975e-13 2.45286997e-12
5.24807460e+00 1.32150373e-11 2.02814751e-12 4.52141268e-15 1.11823683e-11 1.62872959e-13 2.02814751e-12
6.02559586e+00 1.26851917e-11 1.33998377e-12 2.03346122e-15 1.13431745e-11 1.12789719e-13 1.33998377e-12
6.70000000e+00 1.23536179e-11 9.74709347e-13 1.05898954e-15 1.13778496e-11 8.16682989e-14 9.74709347e-13
6.92422916e+00 1.22396724e-11 8.83049889e-13 8.62584886e-16 1.13557599e-11 7.32516342e-14 8.83049889e-13
7.15596261e+00 1.21669326e-11 8.00009879e-13 6.84883002e-16 1.13662379e-11 6.47132175e-14 8.00009879e-13
7.39545150e+00 1.22511308e-11 7.24778763e-13 5.21770192e-16 1.15258303e-11 5.55301060e-14 7.24778763e-13
7.64295536e+00 1.24965736e-11 6.56622211e-13 3.53092458e-16 1.18395983e-11 4.45831988e-14 6.56622211e-13
7.89874245e+00 1.32073580e-11 5.94874946e-13 2.10507887e-16 1.26122725e-11 3.27518971e-14 5.94874946e-13
8.16308998e+00 1.42589514e-11 5.38934254e-13 1.17602179e-16 1.37198995e-11 2.36577524e-14 5.38934254e-13
8.43628443e+00 1.56091639e-11 4.88254098e-13 6.20303540e-17 1.51208478e-11 1.67950649e-14 4.88254098e-13
8.71862190e+00 1.66371182e-11 4.42339790e-13 3.85816293e-17 1.61947398e-11 1.30158222e-14 4.42339790e-13
9.01040836e+00 1.75931690e-11 4.00743158e-13 2.40691307e-17 1.71924018e-11 1.01954355e-14 4.00743158e-13
9.31196005e+00 1.85232421e-11 3.63058180e-13 0.00000000e+00 1.81601839e-11 0.00000000e+00 3.63058180e-13
9.62360379e+00 1.83949529e-11 3.28917012e-13 0.00000000e+00 1.80660359e-11 0.00000000e+00 3.28917012e-13
9.94567731e+00 1.78498762e-11 2.97986401e-13 0.00000000e+00 1.75518898e-11 0.00000000e+00 2.97986401e-13
1.02785297e+01 1.71025125e-11 2.69964435e-13 0.00000000e+00 1.68325481e-11 0.00000000e+00 2.69964435e-13
1.06225216e+01 1.63710253e-11 2.44577592e-13 0.00000000e+00 1.61264477e-11 0.00000000e+00 2.44577592e-13
1.09780260e+01 1.58423291e-11 2.21578069e-13 0.00000000e+00 1.56207510e-11 0.00000000e+00 2.21578069e-13
1.13454280e+01 1.50405618e-11 2.00741370e-13 0.00000000e+00 1.48398204e-11 0.00000000e+00 2.00741370e-13
1.17251259e+01 1.47408024e-11 1.81864106e-13 0.00000000e+00 1.45589382e-11 0.00000000e+00 1.81864106e-13
1.21175312e+01 1.43001151e-11 1.64762018e-13 0.00000000e+00 1.41353531e-11 0.00000000e+00 1.64762018e-13
1.25230691e+01 1.40322612e-11 1.49268171e-13 0.00000000e+00 1.38829930e-11 0.00000000e+00 1.49268171e-13
1.29421791e+01 1.37624828e-11 1.35231331e-13 0.00000000e+00 1.36272515e-11 0.00000000e+00 1.35231331e-13
1.33753155e+01 1.35924190e-11 1.22514483e-13 0.00000000e+00 1.34699045e-11 0.00000000e+00 1.22514483e-13
1.38229477e+01 1.34528529e-11 1.10993499e-13 0.00000000e+00 1.33418594e-11 0.00000000e+00 1.10993499e-13
1.42855609e+01 1.35154523e-11 1.00555922e-13 0.00000000e+00 1.34148963e-11 0.00000000e+00 1.00555922e-13
1.47636563e+01 1.37877113e-11 9.10998706e-14 0.00000000e+00 1.36966114e-11 0.00000000e+00 9.10998706e-14
1.52577522e+01 1.39866903e-11 8.25330452e-14 0.00000000e+00 1.39041572e-11 0.00000000e+00 8.25330452e-14
1.57683840e+01 1.43270533e-11 7.47718247e-14 0.00000000e+00 1.42522815e-11 0.00000000e+00 7.47718247e-14
1.62961051e+01 1.46499711e-11 6.77404517e-14 0.00000000e+00 1.45822306e-11 0.00000000e+00 6.77404517e-14
1.68414875e+01 1.48086608e-11 6.13702932e-14 0.00000000e+00 1.47472905e-11 0.00000000e+00 6.13702932e-14
1.74051222e+01 1.50463514e-11 5.55991699e-14 0.00000000e+00 1.49907522e-11 0.00000000e+00 5.55991699e-14
1.79876201e+01 1.51469779e-11 5.03707500e-14 0.00000000e+00 1.50966072e-11 0.00000000e+00 5.03707500e-14
1.85896125e+01 1.51915948e-11 4.56339988e-14 0.00000000e+00 1.51459608e-11 0.00000000e+00 4.56339988e-14
1.92117518e+01 1.51282347e-11 4.13426810e-14 0.00000000e+00 1.50868921e-11 0.00000000e+00 4.13426810e-14
1.98547123e+01 1.49831288e-11 3.74549090e-14 0.00000000e+00 1.49456739e-11 0.00000000e+00 3.74549090e-14
2.05191907e+01 1.48152043e-11 3.39327342e-14 0.00000000e+00 1.47812716e-11 0.00000000e+00 3.39327342e-14
2.12059073e+01 1.46449095e-11 3.07417768e-14 0.00000000e+00 1.46141677e-11 0.00000000e+00 3.07417768e-14
2.19156062e+01 1.44484920e-11 2.78508898e-14 0.00000000e+00 1.44206411e-11 0.00000000e+00 2.78508898e-14
2.26490567e+01 1.41560581e-11 2.52318552e-14 0.00000000e+00 1.41308262e-11 0.00000000e+00 2.52318552e-14
2.34070535e+01 1.39620307e-11 2.28591087e-14 0.00000000e+00 1.39391716e-11 0.00000000e+00 2.28591087e-14
2.41904183e+01 1.35952300e-11 2.07094900e-14 0.00000000e+00 1.35745205e-11 0.00000000e+00 2.07094900e-14
2.50000000e+01 1.32396527e-11 1.87620165e-14 0.00000000e+00 1.32208907e-11 0.00000000e+00 1.87620165e-14
2.75422870e+01 1.21374210e-11 1.40313526e-14 0.00000000e+00 1.21233897e-11 0.00000000e+00 1.40313526e-14
3.16227766e+01 1.02106193e-11 9.27042274e-15 0.00000000e+00 1.02013489e-11 0.00000000e+00 9.27042274e-15
3.63078055e+01 8.07021444e-12 6.12490756e-15 0.00000000e+00 8.06408953e-12 0.00000000e+00 6.12490756e-15
4.16869383e+01 5.97502939e-12 4.04668630e-15 0.00000000e+00 5.97098271e-12 0.00000000e+00 4.04668630e-15
4.78630092e+01 4.15241190e-12 2.67361912e-15 0.00000000e+00 4.14973829e-12 0.00000000e+00 2.67361912e-15
5.49540874e+01 2.71076230e-12 1.76644264e-15 0.00000000e+00 2.70899586e-12 0.00000000e+00 1.76644264e-15
6.30957344e+01 1.68318881e-12 1.16707708e-15 0.00000000e+00 1.68202174e-12 0.00000000e+00 1.16707708e-15
7.24435960e+01 1.00016541e-12 7.71080178e-16 0.00000000e+00 9.99394329e-13 0.00000000e+00 7.71080178e-16
8.31763771e+01 5.75552134e-13 5.09447621e-16 0.00000000e+00 5.75042686e-13 0.00000000e+00 5.09447621e-16
9.54992586e+01 3.23261267e-13 3.36588705e-16 0.00000000e+00 3.22924678e-13 0.00000000e+00 3.36588705e-16
1.09647820e+02 1.78369094e-13 2.22381952e-16 0.00000000e+00 1.78146712e-13 0.00000000e+00 2.22381952e-16
1.25892541e+02 9.80788019e-14 1.46926299e-16 0.00000000e+00 9.79318756e-14 0.00000000e+00 1.46926299e-16
1.44543977e+02 5.36043301e-14 9.70732430e-17 0.00000000e+00 5.35072568e-14 0.00000000e+00 9.70732430e-17
1.65958691e+02 2.79263551e-14 6.41356556e-17 0.00000000e+00 2.78622194e-14 0.00000000e+00 6.41356556e-17
1.90546072e+02 1.45511377e-14 4.23740075e-17 0.00000000e+00 1.45087637e-14 0.00000000e+00 4.23740075e-17
2.18776162e+02 7.57044295e-15 2.79962291e-17 0.00000000e+00 7.54244672e-15 0.00000000e+00 2.79962291e-17
2.51188643e+02 3.92624351e-15 1.84969251e-17 0.00000000e+00 3.90774659e-15 0.00000000e+00 1.84969251e-17
2.88403150e+02 2.02740320e-15 1.22207972e-17 0.00000000e+00 2.01518240e-15 0.00000000e+00 1.22207972e-17
3.31131121e+02 1.04480741e-15 8.07420067e-18 0.00000000e+00 1.03673321e-15 0.00000000e+00 8.07420067e-18
3.80189396e+02 5.36783286e-16 5.33457148e-18 0.00000000e+00 5.31448715e-16 0.00000000e+00 5.33457148e-18
4.36515832e+02 2.75372311e-16 3.52451642e-18 0.00000000e+00 2.71847794e-16 0.00000000e+00 3.52451642e-18
5.01187234e+02 1.41039040e-16 2.32862491e-18 0.00000000e+00 1.38710415e-16 0.00000000e+00 2.32862491e-18
5.75439937e+02 7.21756123e-17 1.53850722e-18 0.00000000e+00 7.06371051e-17 0.00000000e+00 1.53850722e-18
6.60693448e+02 3.69282098e-17 1.01648164e-18 0.00000000e+00 3.59117282e-17 0.00000000e+00 1.01648164e-18
7.58577575e+02 1.89017083e-17 6.71582760e-19 0.00000000e+00 1.82301256e-17 0.00000000e+00 6.71582760e-19
8.70963590e+02 9.68408912e-18 4.43710329e-19 0.00000000e+00 9.24037879e-18 0.00000000e+00 4.43710329e-19
1.00000000e+03 4.67707298e-18 0.00000000e+00 0.00000000e+00 4.67707298e-18 0.00000000e+00 0.00000000e+00
