# column 1: lambda (micron)
# column 2: total flux; lambda*F_lambda (W/m2)
# column 3: direct stellar flux; lambda*F_lambda (W/m2)
# column 4: scattered stellar flux; lambda*F_lambda (W/m2)
# column 5: total dust emission flux; lambda*F_lambda (W/m2)
# column 6: dust emission scattered flux; lambda*F_lambda (W/m2)
# column 7: transparent flux; lambda*F_lambda (W/m2)
1.00000000e-03 1.07335632e-12 1.07335627e-12 4.90973892e-20 0.00000000e+00 0.00000000e+00 1.07335627e-12
1.14815362e-03 1.26690463e-12 1.26690456e-12 7.95927971e-20 0.00000000e+00 0.00000000e+00 1.26690456e-12
1.31825674e-03 1.49535373e-12 1.49535359e-12 1.35096436e-19 0.00000000e+00 0.00000000e+00 1.49535359e-12
1.51356125e-03 1.76499692e-12 1.76499670e-12 2.17111075e-19 0.00000000e+00 0.00000000e+00 1.76499670e-12
1.73780083e-03 2.08326247e-12 2.08326203e-12 4.40918339e-19 0.00000000e+00 0.00000000e+00 2.08326203e-12
1.99526231e-03 2.45893418e-12 2.45891716e-12 1.70175835e-17 0.00000000e+00 0.00000000e+00 2.45891716e-12
2.29086765e-03 2.90232233e-12 2.90231066e-12 1.16677674e-17 0.00000000e+00 0.00000000e+00 2.90231066e-12
2.63026799e-03 3.56256091e-12 3.42565717e-12 1.36903740e-13 0.00000000e+00 0.00000000e+00 3.42565717e-12
3.01995172e-03 4.04346728e-12 4.04337385e-12 9.34299352e-17 0.00000000e+00 0.00000000e+00 4.04337385e-12
3.46736850e-03 4.78078298e-12 4.77247759e-12 8.30539363e-15 0.00000000e+00 0.00000000e+00 4.77247759e-12
3.98107171e-03 5.65202275e-12 5.63305378e-12 1.89689700e-14 0.00000000e+00 0.00000000e+00 5.63305378e-12
4.57088190e-03 6.65060221e-12 6.64880962e-12 1.79258824e-15 0.00000000e+00 0.00000000e+00 6.64880962e-12
5.24807460e-03 7.89334082e-12 7.84772720e-12 4.56136223e-14 0.00000000e+00 0.00000000e+00 7.84772720e-12
6.02559586e-03 9.27548167e-12 9.26283435e-12 1.26473160e-14 0.00000000e+00 0.00000000e+00 9.26283435e-12
6.91830971e-03 1.09798884e-11 1.09331145e-11 4.67738666e-14 0.00000000e+00 0.00000000e+00 1.09331145e-11
7.94328235e-03 1.29128893e-11 1.29045807e-11 8.30861106e-15 2.88007213e-303 5.73916563e-306 1.29045807e-11
9.12010839e-03 1.52613162e-11 1.52315429e-11 2.97733087e-14 1.36764835e-264 3.90013205e-267 1.52315429e-11
1.04712855e-02 1.70443895e-11 1.70115517e-11 3.28377423e-14 6.20136476e-231 2.64374135e-233 1.70115517e-11
1.20226443e-02 1.70509006e-11 1.70115517e-11 3.93489212e-14 1.03125065e-201 4.73273171e-204 1.70115517e-11
1.38038426e-02 1.70467385e-11 1.70115517e-11 3.51867460e-14 2.96200212e-176 1.70954583e-178 1.70115517e-11
1.58489319e-02 1.70450440e-11 1.70115517e-11 3.34922894e-14 4.19474993e-154 2.94733660e-156 1.70115517e-11
1.81970086e-02 1.70450850e-11 1.70115517e-11 3.35333283e-14 7.78794198e-135 6.58379529e-137 1.70115517e-11
2.08929613e-02 1.70470641e-11 1.70115517e-11 3.55123799e-14 4.21316832e-118 4.37804277e-120 1.70115517e-11
2.39883292e-02 1.70483119e-11 1.70115517e-11 3.67602144e-14 1.52435030e-103 1.98662005e-105 1.70115517e-11
2.75422870e-02 1.70516935e-11 1.70115517e-11 4.01417428e-14 7.00469824e-91 1.08037774e-92 1.70115517e-11
3.16227766e-02 1.70532952e-11 1.70115517e-11 4.17434793e-14 6.99170911e-80 1.29949924e-81 1.70115517e-11
3.63078055e-02 1.70523869e-11 1.70115517e-11 4.08351976e-14 2.47321692e-70 5.15507403e-72 1.70115517e-11
4.16869383e-02 1.70572033e-11 1.70115517e-11 4.56516116e-14 4.79618305e-62 1.33751666e-63 1.70115517e-11
4.78630092e-02 1.70625377e-11 1.70115517e-11 5.09860204e-14 7.37828641e-55 2.75216423e-56 1.70115517e-11
5.49540874e-02 1.70667849e-11 1.70115517e-11 5.52331657e-14 1.24517293e-48 5.68005505e-50 1.70115517e-11
6.30957344e-02 1.70785113e-11 1.70115517e-11 6.69596250e-14 4.07705306e-43 2.25413480e-44 1.70115517e-11
7.24435960e-02 1.70825176e-11 1.70115517e-11 7.09658434e-14 2.37670077e-38 1.26634780e-39 1.70115517e-11
8.31763771e-02 1.70800548e-11 1.70115517e-11 6.85031060e-14 2.45477887e-34 1.29981476e-35 1.70115517e-11
9.54992586e-02 1.70767414e-11 1.70115517e-11 6.51897215e-14 6.97925586e-31 3.85812300e-32 1.70115517e-11
1.09647820e-01 1.63083658e-11 1.62459122e-11 6.24536640e-14 5.97845411e-28 3.58385616e-29 1.62459122e-11
1.25892541e-01 1.52145544e-11 1.51615674e-11 5.29870468e-14 1.94642334e-25 1.10601737e-26 1.51615674e-11
1.44543977e-01 1.41947710e-11 1.41495980e-11 4.51730522e-14 2.66199612e-23 1.43480528e-24 1.41495980e-11
1.65958691e-01 1.32478716e-11 1.32051732e-11 4.26984701e-14 1.35618931e-21 8.14708562e-23 1.32051732e-11
1.90546072e-01 1.23705139e-11 1.23237846e-11 4.67292079e-14 2.87360288e-20 2.09454647e-21 1.23237846e-11
2.18776162e-01 1.15493148e-11 1.15012250e-11 4.80894524e-14 3.42741877e-19 2.76578306e-20 1.15012250e-11
2.51188643e-01 1.07825732e-11 1.07335677e-11 4.90012440e-14 4.18982771e-18 4.16336862e-19 1.07335677e-11
2.88403150e-01 1.00589116e-11 1.00171482e-11 4.17284907e-14 3.48295240e-17 3.28530325e-18 1.00171482e-11
3.31131121e-01 9.38566220e-12 9.34854667e-12 3.69159992e-14 1.99530002e-16 1.78767682e-17 9.34854667e-12
3.80189396e-01 8.75711538e-12 8.72457139e-12 3.17135302e-14 8.30464497e-16 7.04643385e-17 8.72457139e-12
4.36515832e-01 8.17294328e-12 8.14224377e-12 2.80717022e-14 2.62780986e-15 2.17755812e-16 8.14224377e-12
5.01187234e-01 7.63035751e-12 7.59878402e-12 2.50149967e-14 6.55849949e-15 5.35987603e-16 7.59878402e-12
5.75439937e-01 7.12711641e-12 7.09159786e-12 2.20623983e-14 1.34561489e-14 1.08157678e-15 7.09159786e-12
6.60693448e-01 6.66240886e-12 6.61826421e-12 2.06608715e-14 2.34837790e-14 1.85982847e-15 6.61826421e-12
7.58577575e-01 6.23065209e-12 6.17652353e-12 1.78426921e-14 3.62858603e-14 2.82470647e-15 6.17652353e-12
8.70963590e-01 5.83007384e-12 5.76426715e-12 1.51683551e-14 5.06383359e-14 3.75602762e-15 5.76426715e-12
1.00000000e+00 5.45746205e-12 5.37952711e-12 1.30255189e-14 6.49094163e-14 4.54745208e-15 5.37952711e-12
1.14815362e+00 5.11069695e-12 5.02046681e-12 1.05831270e-14 7.96470095e-14 5.10614254e-15 5.02046681e-12
1.31825674e+00 4.78958447e-12 4.68537225e-12 7.96781479e-15 9.62444132e-14 5.48276349e-15 4.68537225e-12
1.51356125e+00 4.49572566e-12 4.37264380e-12 6.40510841e-15 1.16676752e-13 5.70868605e-15 4.37264380e-12
1.73780083e+00 4.22806537e-12 4.08078863e-12 4.83295672e-15 1.42443782e-13 5.80080468e-15 4.08078863e-12
1.99526231e+00 3.98530948e-12 3.80841354e-12 3.46423662e-15 1.73431707e-13 5.73984369e-15 3.80841354e-12
2.29086765e+00 3.76364576e-12 3.55421832e-12 2.34209179e-15 2.07085354e-13 5.41283273e-15 3.55421832e-12
2.63026799e+00 3.55697933e-12 3.31698953e-12 1.68092609e-15 2.38308875e-13 4.90129417e-15 3.31698953e-12
3.01995172e+00 3.35883117e-12 3.09559474e-12 1.13421952e-15 2.62102202e-13 4.19555777e-15 3.09559474e-12
3.46736850e+00 3.16564730e-12 2.88897711e-12 7.17399448e-16 2.75952791e-13 3.50616494e-15 2.88897711e-12
3.98107171e+00 2.97512764e-12 2.69615031e-12 5.27644436e-16 2.78449688e-13 2.80559645e-15 2.69615031e-12
4.57088190e+00 2.78713603e-12 2.51619387e-12 3.51813267e-16 2.70590346e-13 2.09967150e-15 2.51619387e-12
5.24807460e+00 2.33688041e-12 2.08050667e-12 1.91902007e-16 2.56181838e-13 1.47325329e-15 2.08050667e-12
6.02559586e+00 1.61207696e-12 1.37457712e-12 8.81555404e-17 2.37411678e-13 9.77419623e-16 1.37457712e-12
6.70000000e+00 1.22196686e-12 9.99872685e-13 4.40497788e-17 2.22050128e-13 6.69114952e-16 9.99872685e-13
6.92422916e+00 1.12266484e-12 9.05846924e-13 3.60040443e-17 2.16781916e-13 5.95418119e-16 9.05846924e-13
7.15596261e+00 1.03442200e-12 8.20663132e-13 2.98041725e-17 2.13729067e-13 5.16107310e-16 8.20663132e-13
7.39545150e+00 9.58659497e-13 7.43489831e-13 2.14075459e-17 2.15148259e-13 4.39347907e-16 7.43489831e-13
7.64295536e+00 9.04607717e-13 6.73573732e-13 1.43575400e-17 2.31019627e-13 3.63227037e-16 6.73573732e-13
7.89874245e+00 8.78995677e-13 6.10232385e-13 9.21150189e-18 2.68754080e-13 2.80894138e-16 6.10232385e-13
8.16308998e+00 8.77641038e-13 5.52847515e-13 5.55729104e-18 3.24787966e-13 2.18209871e-16 5.52847515e-13
8.43628443e+00 9.05995769e-13 5.00858987e-13 3.12235974e-18 4.05133659e-13 1.61853069e-16 5.00858987e-13
8.71862190e+00 9.19347710e-13 4.53759343e-13 1.94734651e-18 4.65586419e-13 1.28206436e-16 4.53759343e-13
9.01040836e+00 9.39783718e-13 4.11088843e-13 1.26844607e-18 5.28693607e-13 9.82419520e-17 4.11088843e-13
9.31196005e+00 9.54407646e-13 3.72430980e-13 0.00000000e+00 5.81976666e-13 0.00000000e+00 3.72430980e-13
9.62360379e+00 9.13846310e-13 3.37408415e-13 0.00000000e+00 5.76437895e-13 0.00000000e+00 3.37408415e-13
9.94567731e+00 8.43305564e-13 3.05679292e-13 0.00000000e+00 5.37626272e-13 0.00000000e+00 3.05679292e-13
1.02785297e+01 7.62387066e-13 2.76933904e-13 0.00000000e+00 4.85453162e-13 0.00000000e+00 2.76933904e-13
1.06225216e+01 6.88197276e-13 2.50891667e-13 0.00000000e+00 4.37305608e-13 0.00000000e+00 2.50891667e-13
1.09780260e+01 6.11193710e-13 2.27298384e-13 0.00000000e+00 3.83895326e-13 0.00000000e+00 2.27298384e-13
1.13454280e+01 5.45391239e-13 2.05923759e-13 0.00000000e+00 3.39467480e-13 0.00000000e+00 2.05923759e-13
1.17251259e+01 4.90315656e-13 1.86559155e-13 0.00000000e+00 3.03756501e-13 0.00000000e+00 1.86559155e-13
1.21175312e+01 4.38297249e-13 1.69015555e-13 0.00000000e+00 2.69281694e-13 0.00000000e+00 1.69015555e-13
1.25230691e+01 3.93857949e-13 1.53121715e-13 0.00000000e+00 2.40736234e-13 0.00000000e+00 1.53121715e-13
1.29421791e+01 3.55551339e-13 1.38722496e-13 0.00000000e+00 2.16828842e-13 0.00000000e+00 1.38722496e-13
1.33753155e+01 3.22901468e-13 1.25677347e-13 0.00000000e+00 1.97224121e-13 0.00000000e+00 1.25677347e-13
1.38229477e+01 2.98360218e-13 1.13858934e-13 0.00000000e+00 1.84501283e-13 0.00000000e+00 1.13858934e-13
1.42855609e+01 2.80378151e-13 1.03151898e-13 0.00000000e+00 1.77226253e-13 0.00000000e+00 1.03151898e-13
1.47636563e+01 2.72398692e-13 9.34517274e-14 0.00000000e+00 1.78946965e-13 0.00000000e+00 9.34517274e-14
1.52577522e+01 2.68226873e-13 8.46637387e-14 0.00000000e+00 1.83563134e-13 0.00000000e+00 8.46637387e-14
1.57683840e+01 2.66109041e-13 7.67021526e-14 0.00000000e+00 1.89406889e-13 0.00000000e+00 7.67021526e-14
1.62961051e+01 2.64666012e-13 6.94892560e-14 0.00000000e+00 1.95176756e-13 0.00000000e+00 6.94892560e-14
1.68414875e+01 2.64094285e-13 6.29546439e-14 0.00000000e+00 2.01139641e-13 0.00000000e+00 6.29546439e-14
1.74051222e+01 2.60717575e-13 5.70345319e-14 0.00000000e+00 2.03683043e-13 0.00000000e+00 5.70345319e-14
1.79876201e+01 2.55761111e-13 5.16711337e-14 0.00000000e+00 2.04089977e-13 0.00000000e+00 5.16711337e-14
1.85896125e+01 2.48241635e-13 4.68120974e-14 0.00000000e+00 2.01429537e-13 0.00000000e+00 4.68120974e-14
1.92117518e+01 2.37903088e-13 4.24099939e-14 0.00000000e+00 1.95493094e-13 0.00000000e+00 4.24099939e-14
1.98547123e+01 2.25570362e-13 3.84218542e-14 0.00000000e+00 1.87148508e-13 0.00000000e+00 3.84218542e-14
2.05191907e+01 2.14702720e-13 3.48087501e-14 0.00000000e+00 1.79893970e-13 0.00000000e+00 3.48087501e-14
2.12059073e+01 2.03658029e-13 3.15354141e-14 0.00000000e+00 1.72122615e-13 0.00000000e+00 3.15354141e-14
2.19156062e+01 1.93893518e-13 2.85698952e-14 0.00000000e+00 1.65323623e-13 0.00000000e+00 2.85698952e-14
2.26490567e+01 1.84738583e-13 2.58832470e-14 0.00000000e+00 1.58855336e-13 0.00000000e+00 2.58832470e-14
2.34070535e+01 1.76720909e-13 2.34492452e-14 0.00000000e+00 1.53271664e-13 0.00000000e+00 2.34492452e-14
2.41904183e+01 1.69108227e-13 2.12441313e-14 0.00000000e+00 1.47864096e-13 0.00000000e+00 2.12441313e-14
2.50000000e+01 1.62187829e-13 1.92463813e-14 0.00000000e+00 1.42941448e-13 0.00000000e+00 1.92463813e-14
2.75422870e+01 1.43108828e-13 1.43935895e-14 0.00000000e+00 1.28715238e-13 0.00000000e+00 1.43935895e-14
3.16227766e+01 1.18622494e-13 9.50975027e-15 0.00000000e+00 1.09112744e-13 0.00000000e+00 9.50975027e-15
3.63078055e+01 9.46829883e-14 6.28302969e-15 0.00000000e+00 8.83999586e-14 0.00000000e+00 6.28302969e-15
4.16869383e+01 7.19673310e-14 4.15115655e-15 0.00000000e+00 6.78161744e-14 0.00000000e+00 4.15115655e-15
4.78630092e+01 5.16017484e-14 2.74264194e-15 0.00000000e+00 4.88591065e-14 0.00000000e+00 2.74264194e-15
5.49540874e+01 3.51073854e-14 1.81204556e-15 0.00000000e+00 3.32953398e-14 0.00000000e+00 1.81204556e-15
6.30957344e+01 2.28607118e-14 1.19720663e-15 0.00000000e+00 2.16635052e-14 0.00000000e+00 1.19720663e-15
7.24435960e+01 1.43220741e-14 7.90986575e-16 0.00000000e+00 1.35310875e-14 0.00000000e+00 7.90986575e-16
8.31763771e+01 8.71920763e-15 5.22599647e-16 0.00000000e+00 8.19660798e-15 0.00000000e+00 5.22599647e-16
9.54992586e+01 5.18271552e-15 3.45278163e-16 0.00000000e+00 4.83743736e-15 0.00000000e+00 3.45278163e-16
1.09647820e+02 3.02514740e-15 2.28123020e-16 0.00000000e+00 2.79702438e-15 0.00000000e+00 2.28123020e-16
1.25892541e+02 1.75790402e-15 1.50719385e-16 0.00000000e+00 1.60718463e-15 0.00000000e+00 1.50719385e-16
1.44543977e+02 1.01339104e-15 9.95793099e-17 0.00000000e+00 9.13811728e-16 0.00000000e+00 9.95793099e-17
1.65958691e+02 5.58545237e-16 6.57913976e-17 0.00000000e+00 4.92753840e-16 0.00000000e+00 6.57913976e-17
1.90546072e+02 3.08321703e-16 4.34679453e-17 0.00000000e+00 2.64853757e-16 0.00000000e+00 4.34679453e-17
2.18776162e+02 1.70307600e-16 2.87189867e-17 0.00000000e+00 1.41588614e-16 0.00000000e+00 2.87189867e-17
2.51188643e+02 9.41603632e-17 1.89744463e-17 0.00000000e+00 7.51859169e-17 0.00000000e+00 1.89744463e-17
2.88403150e+02 5.21630263e-17 1.25362924e-17 0.00000000e+00 3.96267339e-17 0.00000000e+00 1.25362924e-17
3.31131121e+02 2.90601646e-17 8.28264623e-18 0.00000000e+00 2.07775183e-17 0.00000000e+00 8.28264623e-18
3.80189396e+02 1.63024210e-17 5.47229010e-18 0.00000000e+00 1.08301309e-17 0.00000000e+00 5.47229010e-18
4.36515832e+02 9.23613763e-18 3.61550621e-18 0.00000000e+00 5.62063142e-18 0.00000000e+00 3.61550621e-18
5.01187234e+02 5.29316183e-18 2.38874127e-18 0.00000000e+00 2.90442056e-18 0.00000000e+00 2.38874127e-18
5.75439937e+02 3.07369400e-18 1.57822570e-18 0.00000000e+00 1.49546829e-18 0.00000000e+00 1.57822570e-18
6.60693448e+02 1.81035025e-18 1.04272338e-18 0.00000000e+00 7.67626865e-19 0.00000000e+00 1.04272338e-18
7.58577575e+02 1.08187647e-18 6.88920507e-19 0.00000000e+00 3.92955960e-19 0.00000000e+00 6.88920507e-19
8.70963590e+02 6.55801951e-19 4.55165265e-19 0.00000000e+00 2.00636686e-19 0.00000000e+00 4.55165265e-19
1.00000000e+03 1.02199724e-19 0.00000000e+00 0.00000000e+00 1.02199724e-19 0.00000000e+00 0.00000000e+00
