# column 1: lambda (micron)
# column 2: total flux; lambda*F_lambda (W/m2)
# column 3: direct stellar flux; lambda*F_lambda (W/m2)
# column 4: scattered stellar flux; lambda*F_lambda (W/m2)
# column 5: total dust emission flux; lambda*F_lambda (W/m2)
# column 6: dust emission scattered flux; lambda*F_lambda (W/m2)
# column 7: transparent flux; lambda*F_lambda (W/m2)
1.00000000e-03 9.68073334e-13 9.68073281e-13 5.30325021e-20 0.00000000e+00 0.00000000e+00 9.68073281e-13
1.14815362e-03 1.14263696e-12 1.14263687e-12 8.72007233e-20 0.00000000e+00 0.00000000e+00 1.14263687e-12
1.31825674e-03 1.34867802e-12 1.34867788e-12 1.44409615e-19 0.00000000e+00 0.00000000e+00 1.34867788e-12
1.51356125e-03 1.59187254e-12 1.59187233e-12 2.11730392e-19 0.00000000e+00 0.00000000e+00 1.59187233e-12
1.73780083e-03 1.87892015e-12 1.87891976e-12 3.94464442e-19 0.00000000e+00 0.00000000e+00 1.87891976e-12
1.99526231e-03 2.21772850e-12 2.21772777e-12 7.37948483e-19 0.00000000e+00 0.00000000e+00 2.21772777e-12
2.29086765e-03 2.61763097e-12 2.61762985e-12 1.12491039e-18 0.00000000e+00 0.00000000e+00 2.61762985e-12
2.63026799e-03 3.08964472e-12 3.08964252e-12 2.19572734e-18 0.00000000e+00 0.00000000e+00 3.08964252e-12
3.01995172e-03 3.64677292e-12 3.64676883e-12 4.08956676e-18 0.00000000e+00 0.00000000e+00 3.64676883e-12
3.46736850e-03 4.30436313e-12 4.30435650e-12 6.63104575e-18 0.00000000e+00 0.00000000e+00 4.30435650e-12
3.98107171e-03 5.08053145e-12 5.08052080e-12 1.06540216e-17 0.00000000e+00 0.00000000e+00 5.08052080e-12
4.57088190e-03 5.99666557e-12 5.99664354e-12 2.20252347e-17 0.00000000e+00 0.00000000e+00 5.99664354e-12
5.24807460e-03 7.07800416e-12 7.07796211e-12 4.20440420e-17 0.00000000e+00 0.00000000e+00 7.07796211e-12
6.02559586e-03 8.35434460e-12 8.35426474e-12 7.98572857e-17 0.00000000e+00 0.00000000e+00 8.35426474e-12
6.91830971e-03 9.86083767e-12 9.86071107e-12 1.26603085e-16 0.00000000e+00 0.00000000e+00 9.86071107e-12
7.94328235e-03 1.16389985e-11 1.16388008e-11 1.97746658e-16 2.82132655e-304 1.29782445e-307 1.16388008e-11
9.12010839e-03 1.37378436e-11 1.37375167e-11 3.26887061e-16 1.25077115e-265 7.56437829e-269 1.37375167e-11
1.04712855e-02 1.53433812e-11 1.53429287e-11 4.52576951e-16 5.33759237e-232 3.99973481e-235 1.53429287e-11
1.20226443e-02 1.53436429e-11 1.53429287e-11 7.14187152e-16 8.42968271e-203 9.43002270e-206 1.53429287e-11
1.38038426e-02 1.53450943e-11 1.53429287e-11 2.16559062e-15 2.31326359e-177 3.66294604e-180 1.53429287e-11
1.58489319e-02 1.53444633e-11 1.53429287e-11 1.53459074e-15 3.14914926e-155 7.24825301e-158 1.53429287e-11
1.81970086e-02 1.53447217e-11 1.53429287e-11 1.79301545e-15 5.64899410e-136 1.79787302e-138 1.53429287e-11
2.08929613e-02 1.53453497e-11 1.53429287e-11 2.42103859e-15 2.96610326e-119 1.42179711e-121 1.53429287e-11
2.39883292e-02 1.53464933e-11 1.53429287e-11 3.56462239e-15 1.04464738e-104 6.24764446e-107 1.53429287e-11
2.75422870e-02 1.53474473e-11 1.53429287e-11 4.51862659e-15 4.69476475e-92 3.88380269e-94 1.53429287e-11
3.16227766e-02 1.53503628e-11 1.53429287e-11 7.43415513e-15 4.59182356e-81 4.74218204e-83 1.53429287e-11
3.63078055e-02 1.53501740e-11 1.53429287e-11 7.24538475e-15 1.59679697e-71 1.94390772e-73 1.53429287e-11
4.16869383e-02 1.53535060e-11 1.53429287e-11 1.05773536e-14 3.04628470e-63 5.36103675e-65 1.53429287e-11
4.78630092e-02 1.53577256e-11 1.53429287e-11 1.47968996e-14 4.61793502e-56 1.11836628e-57 1.53429287e-11
5.49540874e-02 1.53617605e-11 1.53429287e-11 1.88318472e-14 7.71344947e-50 2.47073106e-51 1.53429287e-11
6.30957344e-02 1.53683267e-11 1.53429287e-11 2.53980269e-14 2.51082148e-44 1.04482581e-45 1.53429287e-11
7.24435960e-02 1.53695634e-11 1.53429287e-11 2.66347586e-14 1.46412072e-39 6.34332269e-41 1.53429287e-11
8.31763771e-02 1.53702635e-11 1.53429287e-11 2.73348223e-14 1.50098873e-35 6.49147666e-37 1.53429287e-11
9.54992586e-02 1.53701709e-11 1.53429287e-11 2.72422784e-14 4.22859646e-32 1.88252240e-33 1.53429287e-11
1.09647820e-01 1.46797409e-11 1.46523889e-11 2.73520183e-14 3.57596970e-29 1.64843845e-30 1.46523889e-11
1.25892541e-01 1.36979521e-11 1.36744049e-11 2.35471079e-14 1.15369243e-26 4.87246303e-28 1.36744049e-11
1.44543977e-01 1.27819130e-11 1.27616972e-11 2.02157785e-14 1.56774879e-24 6.24432468e-26 1.27616972e-11
1.65958691e-01 1.19311596e-11 1.19099088e-11 2.12507632e-14 7.92278421e-23 3.44897662e-24 1.19099088e-11
1.90546072e-01 1.11393401e-11 1.11149736e-11 2.43665008e-14 1.67022205e-21 9.04401710e-23 1.11149736e-11
2.18776162e-01 1.03997520e-11 1.03730969e-11 2.66550190e-14 1.98990671e-20 1.22948666e-21 1.03730969e-11
2.51188643e-01 9.70943594e-12 9.68073733e-12 2.86983627e-14 2.40078219e-19 1.76900882e-20 9.68073733e-12
2.88403150e-01 9.06100816e-12 9.03458975e-12 2.64164129e-14 1.99110611e-18 1.39586214e-19 9.03458975e-12
3.31131121e-01 8.45451104e-12 8.43156974e-12 2.29299202e-14 1.13783760e-17 7.49376068e-19 8.43156974e-12
3.80189396e-01 7.88956163e-12 7.86879872e-12 2.07155671e-14 4.73433246e-17 2.98746196e-18 7.86879872e-12
4.36515832e-01 7.36325756e-12 7.34359025e-12 1.95175332e-14 1.49772040e-16 9.38251019e-18 7.34359025e-12
5.01187234e-01 6.87175361e-12 6.85343719e-12 1.79426109e-14 3.73817029e-16 2.32231563e-17 6.85343719e-12
5.75439937e-01 6.41401867e-12 6.39599973e-12 1.72484495e-14 7.70494764e-16 4.79277589e-17 6.39599973e-12
6.60693448e-01 5.98695056e-12 5.96909425e-12 1.64930199e-14 1.36328489e-15 8.48488425e-17 5.96909425e-12
7.58577575e-01 5.58816836e-12 5.57068288e-12 1.53026148e-14 2.18285630e-15 1.34372479e-16 5.57068288e-12
8.70963590e-01 5.21577898e-12 5.19886376e-12 1.35935138e-14 3.32170702e-15 2.04654045e-16 5.19886376e-12
1.00000000e+00 4.86851489e-12 4.85186196e-12 1.15933906e-14 5.05953867e-15 3.19900072e-16 4.85186196e-12
1.14815362e+00 4.54570564e-12 4.52802104e-12 9.42187000e-15 8.26272440e-15 5.36826665e-16 4.52802104e-12
1.31825674e+00 4.24820418e-12 4.22579511e-12 7.84916318e-15 1.45599072e-14 9.44319211e-16 4.22579511e-12
1.51356125e+00 3.97667565e-12 3.94374146e-12 6.59647398e-15 2.63377132e-14 1.62340120e-15 3.94374146e-12
1.73780083e+00 3.73117417e-12 3.68051368e-12 4.75158928e-15 4.59088981e-14 2.53539126e-15 3.68051368e-12
1.99526231e+00 3.51222502e-12 3.43485522e-12 3.43761338e-15 7.39321791e-14 3.42762034e-15 3.43485522e-12
2.29086765e+00 3.31714579e-12 3.20559341e-12 2.38521899e-15 1.09167159e-13 3.99013514e-15 3.20559341e-12
2.63026799e+00 3.14098100e-12 2.99163384e-12 1.62471844e-15 1.47722447e-13 4.14250414e-15 2.99163384e-12
3.01995172e+00 2.97714484e-12 2.79195514e-12 1.11126194e-15 1.84078438e-13 3.83323330e-15 2.79195514e-12
3.46736850e+00 2.82047149e-12 2.60560415e-12 7.25217107e-16 2.14142125e-13 3.32532302e-15 2.60560415e-12
3.98107171e+00 2.66567078e-12 2.43169128e-12 4.83619130e-16 2.33495882e-13 2.67290303e-15 2.43169128e-12
4.57088190e+00 2.51100253e-12 2.26938634e-12 3.21198132e-16 2.41294993e-13 1.97932956e-15 2.26938634e-12
5.24807460e+00 2.11513657e-12 1.87643467e-12 1.84156318e-16 2.38517742e-13 1.36996776e-15 1.87643467e-12
6.02559586e+00 1.46880892e-12 1.23974809e-12 8.75642578e-17 2.28973263e-13 8.86673106e-16 1.23974809e-12
6.70000000e+00 1.11939983e-12 9.01797527e-13 4.22429470e-17 2.17560063e-13 6.04004385e-16 9.01797527e-13
6.92422916e+00 1.03076098e-12 8.16994532e-13 3.52617471e-17 2.13731188e-13 5.26690703e-16 8.16994532e-13
7.15596261e+00 9.50741513e-13 7.40166218e-13 2.71632636e-17 2.10548132e-13 4.59562038e-16 7.40166218e-13
7.39545150e+00 8.83178697e-13 6.70562664e-13 2.07593347e-17 2.12595274e-13 3.90925661e-16 6.70562664e-13
7.64295536e+00 8.34434632e-13 6.07504471e-13 1.51305027e-17 2.26915031e-13 3.23717125e-16 6.07504471e-13
7.89874245e+00 8.11888942e-13 5.50376127e-13 9.27773156e-18 2.61503537e-13 2.51716107e-16 5.50376127e-13
8.16308998e+00 8.12741439e-13 4.98620004e-13 5.08148059e-18 3.14116354e-13 1.95269836e-16 4.98620004e-13
8.43628443e+00 8.41554878e-13 4.51730909e-13 2.86399280e-18 3.89821105e-13 1.49313284e-16 4.51730909e-13
8.71862190e+00 8.56622303e-13 4.09251158e-13 1.91791559e-18 4.47369227e-13 1.16377277e-16 4.09251158e-13
9.01040836e+00 8.78892042e-13 3.70766106e-13 1.26745665e-18 5.08124668e-13 8.97999917e-17 3.70766106e-13
9.31196005e+00 8.97445819e-13 3.35900102e-13 0.00000000e+00 5.61545717e-13 0.00000000e+00 3.35900102e-13
9.62360379e+00 8.71218894e-13 3.04312818e-13 0.00000000e+00 5.66906077e-13 0.00000000e+00 3.04312818e-13
9.94567731e+00 8.08022034e-13 2.75695930e-13 0.00000000e+00 5.32326104e-13 0.00000000e+00 2.75695930e-13
1.02785297e+01 7.35960395e-13 2.49770110e-13 0.00000000e+00 4.86190286e-13 0.00000000e+00 2.49770110e-13
1.06225216e+01 6.69911542e-13 2.26282295e-13 0.00000000e+00 4.43629248e-13 0.00000000e+00 2.26282295e-13
1.09780260e+01 5.97311077e-13 2.05003220e-13 0.00000000e+00 3.92307857e-13 0.00000000e+00 2.05003220e-13
1.13454280e+01 5.35301551e-13 1.85725182e-13 0.00000000e+00 3.49576369e-13 0.00000000e+00 1.85725182e-13
1.17251259e+01 4.81806171e-13 1.68260007e-13 0.00000000e+00 3.13546164e-13 0.00000000e+00 1.68260007e-13
1.21175312e+01 4.34813889e-13 1.52437217e-13 0.00000000e+00 2.82376672e-13 0.00000000e+00 1.52437217e-13
1.25230691e+01 3.90255280e-13 1.38102367e-13 0.00000000e+00 2.52152913e-13 0.00000000e+00 1.38102367e-13
1.29421791e+01 3.53144865e-13 1.25115533e-13 0.00000000e+00 2.28029332e-13 0.00000000e+00 1.25115533e-13
1.33753155e+01 3.21899623e-13 1.13349952e-13 0.00000000e+00 2.08549670e-13 0.00000000e+00 1.13349952e-13
1.38229477e+01 2.97754443e-13 1.02690779e-13 0.00000000e+00 1.95063663e-13 0.00000000e+00 1.02690779e-13
1.42855609e+01 2.81712910e-13 9.30339713e-14 0.00000000e+00 1.88678939e-13 0.00000000e+00 9.30339713e-14
1.47636563e+01 2.76841511e-13 8.42852675e-14 0.00000000e+00 1.92556244e-13 0.00000000e+00 8.42852675e-14
1.52577522e+01 2.74388616e-13 7.63592720e-14 0.00000000e+00 1.98029344e-13 0.00000000e+00 7.63592720e-14
1.57683840e+01 2.76077362e-13 6.91786191e-14 0.00000000e+00 2.06898743e-13 0.00000000e+00 6.91786191e-14
1.62961051e+01 2.77731663e-13 6.26732185e-14 0.00000000e+00 2.15058445e-13 0.00000000e+00 6.26732185e-14
1.68414875e+01 2.80752826e-13 5.67795711e-14 0.00000000e+00 2.23973255e-13 0.00000000e+00 5.67795711e-14
1.74051222e+01 2.80476129e-13 5.14401489e-14 0.00000000e+00 2.29035980e-13 0.00000000e+00 5.14401489e-14
1.79876201e+01 2.78248415e-13 4.66028339e-14 0.00000000e+00 2.31645581e-13 0.00000000e+00 4.66028339e-14
1.85896125e+01 2.73360698e-13 4.22204090e-14 0.00000000e+00 2.31140289e-13 0.00000000e+00 4.22204090e-14
1.92117518e+01 2.63839447e-13 3.82500974e-14 0.00000000e+00 2.25589350e-13 0.00000000e+00 3.82500974e-14
1.98547123e+01 2.53545776e-13 3.46531450e-14 0.00000000e+00 2.18892631e-13 0.00000000e+00 3.46531450e-14
2.05191907e+01 2.41123280e-13 3.13944418e-14 0.00000000e+00 2.09728838e-13 0.00000000e+00 3.13944418e-14
2.12059073e+01 2.30543437e-13 2.84421796e-14 0.00000000e+00 2.02101257e-13 0.00000000e+00 2.84421796e-14
2.19156062e+01 2.21260486e-13 2.57675415e-14 0.00000000e+00 1.95492945e-13 0.00000000e+00 2.57675415e-14
2.26490567e+01 2.12725947e-13 2.33444203e-14 0.00000000e+00 1.89381527e-13 0.00000000e+00 2.33444203e-14
2.34070535e+01 2.05638368e-13 2.11491639e-14 0.00000000e+00 1.84489204e-13 0.00000000e+00 2.11491639e-14
2.41904183e+01 1.98838884e-13 1.91603445e-14 0.00000000e+00 1.79678539e-13 0.00000000e+00 1.91603445e-14
2.50000000e+01 1.92134003e-13 1.73585491e-14 0.00000000e+00 1.74775454e-13 0.00000000e+00 1.73585491e-14
2.75422870e+01 1.74757776e-13 1.29817562e-14 0.00000000e+00 1.61776019e-13 0.00000000e+00 1.29817562e-14
3.16227766e+01 1.53551021e-13 8.57696126e-15 0.00000000e+00 1.44974060e-13 0.00000000e+00 8.57696126e-15
3.63078055e+01 1.31536518e-13 5.66674211e-15 0.00000000e+00 1.25869776e-13 0.00000000e+00 5.66674211e-15
4.16869383e+01 1.08054222e-13 3.74397938e-15 0.00000000e+00 1.04310243e-13 0.00000000e+00 3.74397938e-15
4.78630092e+01 8.43268429e-14 2.47362265e-15 0.00000000e+00 8.18532202e-14 0.00000000e+00 2.47362265e-15
5.49540874e+01 6.26368196e-14 1.63430628e-15 0.00000000e+00 6.10025133e-14 0.00000000e+00 1.63430628e-15
6.30957344e+01 4.44702579e-14 1.07977545e-15 0.00000000e+00 4.33904824e-14 0.00000000e+00 1.07977545e-15
7.24435960e+01 3.01730103e-14 7.13400564e-16 0.00000000e+00 2.94596098e-14 0.00000000e+00 7.13400564e-16
8.31763771e+01 1.97228276e-14 4.71339078e-16 0.00000000e+00 1.92514885e-14 0.00000000e+00 4.71339078e-16
9.54992586e+01 1.24829405e-14 3.11410641e-16 0.00000000e+00 1.21715299e-14 0.00000000e+00 3.11410641e-16
1.09647820e+02 7.67824945e-15 2.05746970e-16 0.00000000e+00 7.47250248e-15 0.00000000e+00 2.05746970e-16
1.25892541e+02 4.65332680e-15 1.35935675e-16 0.00000000e+00 4.51739113e-15 0.00000000e+00 1.35935675e-16
1.44543977e+02 2.77314528e-15 8.98118099e-17 0.00000000e+00 2.68333347e-15 0.00000000e+00 8.98118099e-17
1.65958691e+02 1.56520286e-15 5.93380743e-17 0.00000000e+00 1.50586478e-15 0.00000000e+00 5.93380743e-17
1.90546072e+02 8.76058380e-16 3.92042769e-17 0.00000000e+00 8.36854103e-16 0.00000000e+00 3.92042769e-17
2.18776162e+02 4.86209947e-16 2.59020089e-17 0.00000000e+00 4.60307938e-16 0.00000000e+00 2.59020089e-17
2.51188643e+02 2.67491349e-16 1.71132876e-17 0.00000000e+00 2.50378062e-16 0.00000000e+00 1.71132876e-17
2.88403150e+02 1.45996321e-16 1.13066370e-17 0.00000000e+00 1.34689684e-16 0.00000000e+00 1.13066370e-17
3.31131121e+02 7.93391486e-17 7.47022097e-18 0.00000000e+00 7.18689276e-17 0.00000000e+00 7.47022097e-18
3.80189396e+02 4.29567685e-17 4.93552605e-18 0.00000000e+00 3.80212425e-17 0.00000000e+00 4.93552605e-18
4.36515832e+02 2.32458322e-17 3.26086972e-18 0.00000000e+00 1.99849625e-17 0.00000000e+00 3.26086972e-18
5.01187234e+02 1.25945294e-17 2.15443526e-18 0.00000000e+00 1.04400942e-17 0.00000000e+00 2.15443526e-18
5.75439937e+02 6.84921057e-18 1.42342126e-18 0.00000000e+00 5.42578931e-18 0.00000000e+00 1.42342126e-18
6.60693448e+02 3.74783023e-18 9.40445101e-19 0.00000000e+00 2.80738513e-18 0.00000000e+00 9.40445101e-19
7.58577575e+02 2.06836041e-18 6.21345916e-19 0.00000000e+00 1.44701449e-18 0.00000000e+00 6.21345916e-19
8.70963590e+02 1.15370656e-18 4.10519176e-19 0.00000000e+00 7.43187383e-19 0.00000000e+00 4.10519176e-19
1.00000000e+03 3.80489159e-19 0.00000000e+00 0.00000000e+00 3.80489159e-19 0.00000000e+00 0.00000000e+00
