# column 1: lambda (micron)
# column 2: total flux; lambda*F_lambda (W/m2)
# column 3: direct stellar flux; lambda*F_lambda (W/m2)
# column 4: scattered stellar flux; lambda*F_lambda (W/m2)
# column 5: total dust emission flux; lambda*F_lambda (W/m2)
# column 6: dust emission scattered flux; lambda*F_lambda (W/m2)
# column 7: transparent flux; lambda*F_lambda (W/m2)
1.00000000e-03 8.43158417e-13 8.43144626e-13 1.37912740e-17 0.00000000e+00 0.00000000e+00 8.46529401e-13
1.14815362e-03 9.93920745e-13 9.93901324e-13 1.94218517e-17 0.00000000e+00 0.00000000e+00 9.99176121e-13
1.31825674e-03 1.17146573e-12 1.17143810e-12 2.76361628e-17 0.00000000e+00 0.00000000e+00 1.17934819e-12
1.51356125e-03 1.38104843e-12 1.38100824e-12 4.01878712e-17 0.00000000e+00 0.00000000e+00 1.39200901e-12
1.73780083e-03 1.63001991e-12 1.62989886e-12 1.21042426e-16 0.00000000e+00 0.00000000e+00 1.64301696e-12
1.99526231e-03 1.92096396e-12 1.91878501e-12 2.17894854e-15 0.00000000e+00 0.00000000e+00 1.93928682e-12
2.29086765e-03 2.26399320e-12 2.26332758e-12 6.65627876e-16 0.00000000e+00 0.00000000e+00 2.28898025e-12
2.63026799e-03 2.66607769e-12 2.66548680e-12 5.90885949e-16 0.00000000e+00 0.00000000e+00 2.70173063e-12
3.01995172e-03 3.13911221e-12 3.13608397e-12 3.02824305e-15 0.00000000e+00 0.00000000e+00 3.18890841e-12
3.46736850e-03 3.69478540e-12 3.69055383e-12 4.23157866e-15 0.00000000e+00 0.00000000e+00 3.76393440e-12
3.98107171e-03 4.36240131e-12 4.34364788e-12 1.87534230e-14 0.00000000e+00 0.00000000e+00 4.44264945e-12
4.57088190e-03 5.17104775e-12 5.16551197e-12 5.53577538e-15 0.00000000e+00 0.00000000e+00 5.24375082e-12
5.24807460e-03 6.08047021e-12 6.07160316e-12 8.86705086e-15 0.00000000e+00 0.00000000e+00 6.18930730e-12
6.02559586e-03 7.16372648e-12 7.13818354e-12 2.55429367e-14 0.00000000e+00 0.00000000e+00 7.30536713e-12
6.91830971e-03 8.43604888e-12 8.39533451e-12 4.07143694e-14 0.00000000e+00 0.00000000e+00 8.62267558e-12
7.94328235e-03 1.00156544e-11 9.87861055e-12 1.37043846e-13 2.13605666e-303 2.09080702e-304 1.01775219e-11
9.12010839e-03 1.17364822e-11 1.16218616e-11 1.14620637e-13 1.23933614e-264 6.18717847e-266 1.20127391e-11
1.04712855e-02 1.30993975e-11 1.29526397e-11 1.46757783e-13 6.84532953e-231 1.83231183e-232 1.34165878e-11
1.20226443e-02 1.31897236e-11 1.29257653e-11 2.63958329e-13 1.38188731e-201 3.69282125e-203 1.34165878e-11
1.38038426e-02 1.30805698e-11 1.28939615e-11 1.86608292e-13 4.82562883e-176 2.70456965e-177 1.34165878e-11
1.58489319e-02 1.31278867e-11 1.28549843e-11 2.72902421e-13 7.80490191e-154 3.59192633e-155 1.34165878e-11
1.81970086e-02 1.31302911e-11 1.28191393e-11 3.11151862e-13 1.64887571e-134 7.98474721e-136 1.34165878e-11
2.08929613e-02 1.31326158e-11 1.27894204e-11 3.43195314e-13 9.94956470e-118 4.94676446e-119 1.34165878e-11
2.39883292e-02 1.31439020e-11 1.27510173e-11 3.92884705e-13 3.96677324e-103 2.23933152e-104 1.34165878e-11
2.75422870e-02 1.31374767e-11 1.27064927e-11 4.30984036e-13 1.97285528e-90 1.10155450e-91 1.34165878e-11
3.16227766e-02 1.31131727e-11 1.26629999e-11 4.50172821e-13 2.10757116e-79 1.17900271e-80 1.34165878e-11
3.63078055e-02 1.30770234e-11 1.26289905e-11 4.48032934e-13 7.91193682e-70 4.46147966e-71 1.34165878e-11
4.16869383e-02 1.30934611e-11 1.25996486e-11 4.93812508e-13 1.62639298e-61 1.04880117e-62 1.34165878e-11
4.78630092e-02 1.30034871e-11 1.25191208e-11 4.84366302e-13 2.59629842e-54 1.79915113e-55 1.34165878e-11
5.49540874e-02 1.29095833e-11 1.24079864e-11 5.01596822e-13 4.51264691e-48 3.26896960e-49 1.34165878e-11
6.30957344e-02 1.26086449e-11 1.21336362e-11 4.75008639e-13 1.50119911e-42 1.15592118e-43 1.34165878e-11
7.24435960e-02 1.22557299e-11 1.18165025e-11 4.39227419e-13 8.86701071e-38 6.51136640e-39 1.34165878e-11
8.31763771e-02 1.22648730e-11 1.18443835e-11 4.20489421e-13 9.39972697e-34 6.59090434e-35 1.34165878e-11
9.54992586e-02 1.23538886e-11 1.19265371e-11 4.27351502e-13 2.75866324e-30 1.98668405e-31 1.34165878e-11
1.09647820e-01 1.20592777e-11 1.16189775e-11 4.40300235e-13 2.44235437e-27 1.90551501e-28 1.28127470e-11
1.25892541e-01 1.14450457e-11 1.10326376e-11 4.12408077e-13 8.22502304e-25 6.37492343e-26 1.19575512e-11
1.44543977e-01 1.08152358e-11 1.04391022e-11 3.76133587e-13 1.15876462e-22 8.85008191e-24 1.11594361e-11
1.65958691e-01 1.02075333e-11 9.82423137e-12 3.83301967e-13 6.06202565e-21 5.15217312e-22 1.04145917e-11
1.90546072e-01 9.52315895e-12 9.13280885e-12 3.90349971e-13 1.29629714e-19 1.24371726e-20 9.71946251e-12
2.18776162e-01 8.78641873e-12 8.43191094e-12 3.54506255e-13 1.53540593e-18 1.50378810e-19 9.07073019e-12
2.51188643e-01 8.38334822e-12 7.98504768e-12 3.98281181e-13 1.93579080e-17 2.36049449e-18 8.46529796e-12
2.88403150e-01 7.89944977e-12 7.52633320e-12 3.72951514e-13 1.65049131e-16 2.02281467e-17 7.90027573e-12
3.31131121e-01 7.41448574e-12 7.06780932e-12 3.45713509e-13 9.62914580e-16 1.16587855e-16 7.37296631e-12
3.80189396e-01 6.95211213e-12 6.63012358e-12 3.17910963e-13 4.07758190e-15 4.86589438e-16 6.88085251e-12
4.36515832e-01 6.52829313e-12 6.21744903e-12 2.97727764e-13 1.31163367e-14 1.58586043e-15 6.42158520e-12
5.01187234e-01 6.13631795e-12 5.82903850e-12 2.74029979e-13 3.32494745e-14 4.00946410e-15 5.99297201e-12
5.75439937e-01 5.78735267e-12 5.46270137e-12 2.55193357e-13 6.94579463e-14 8.56083189e-15 5.59296690e-12
6.60693448e-01 5.47021525e-12 5.11706617e-12 2.28671643e-13 1.24477434e-13 1.57864225e-14 5.21966041e-12
7.58577575e-01 5.20069403e-12 4.79146640e-12 2.07669152e-13 2.01558475e-13 2.72221288e-14 4.87127053e-12
8.70963590e-01 4.97932494e-12 4.48544031e-12 1.86310226e-13 3.07574411e-13 4.60697194e-14 4.54613417e-12
1.00000000e+00 4.82479547e-12 4.19729379e-12 1.61402333e-13 4.66099352e-13 8.02850199e-14 4.24269927e-12
1.14815362e+00 4.79698664e-12 3.92615893e-12 1.35562913e-13 7.35264798e-13 1.41405845e-13 3.95951734e-12
1.31825674e+00 5.00127179e-12 3.67115915e-12 1.08202451e-13 1.22191019e-12 2.41247800e-13 3.69523659e-12
1.51356125e+00 5.54756637e-12 3.43139561e-12 8.53405626e-14 2.03083020e-12 3.78854803e-13 3.44859544e-12
1.73780083e+00 6.51032406e-12 3.20633131e-12 6.56839425e-14 3.23830881e-12 5.21541866e-13 3.21841652e-12
1.99526231e+00 7.76407005e-12 2.99524385e-12 4.88411640e-14 4.71998504e-12 6.21303048e-13 3.00360106e-12
2.29086765e+00 9.22204297e-12 2.79736304e-12 3.56484427e-14 6.38903150e-12 6.51440382e-13 2.80312361e-12
2.63026799e+00 1.05630995e-11 2.61201963e-12 2.54587790e-14 7.92562109e-12 6.22816524e-13 2.61602716e-12
3.01995172e+00 1.17438996e-11 2.43859496e-12 1.83022478e-14 9.28700235e-12 5.60449263e-13 2.44141860e-12
3.46736850e+00 1.26252984e-11 2.27644256e-12 1.31093022e-14 1.03357466e-11 4.88228707e-13 2.27846441e-12
3.98107171e+00 1.33222140e-11 2.12492053e-12 9.42457075e-15 1.11878689e-11 4.12379514e-13 2.12638671e-12
4.57088190e+00 1.37857478e-11 1.98338183e-12 6.74228010e-15 1.17956237e-11 3.33443702e-13 1.98445954e-12
5.24807460e+00 1.40466459e-11 1.64012799e-12 4.08216039e-15 1.24024357e-11 2.51458094e-13 1.64084388e-12
6.02559586e+00 1.37871120e-11 1.08370174e-12 1.90567414e-15 1.27015045e-11 1.78860664e-13 1.08409480e-12
6.70000000e+00 1.35059259e-11 7.88321650e-13 1.02917747e-15 1.27165750e-11 1.27534985e-13 7.88574724e-13
6.92422916e+00 1.33923277e-11 7.14197704e-13 8.46734797e-16 1.26772833e-11 1.13569868e-13 7.14418944e-13
7.15596261e+00 1.32958951e-11 6.47039671e-13 6.65323087e-16 1.26481902e-11 9.96098422e-14 6.47236606e-13
7.39545150e+00 1.32377517e-11 5.86189268e-13 5.06392615e-16 1.26510560e-11 8.43454687e-14 5.86371942e-13
7.64295536e+00 1.34764153e-11 5.31042295e-13 3.39177514e-16 1.29450338e-11 6.66422237e-14 5.31230854e-13
7.89874245e+00 1.37172784e-11 4.81054408e-13 1.90859509e-16 1.32360332e-11 4.67293397e-14 4.81275108e-13
8.16308998e+00 1.42770856e-11 4.35747126e-13 1.01303876e-16 1.38412372e-11 3.20704127e-14 4.36017088e-13
8.43628443e+00 1.48143958e-11 3.94675277e-13 5.34575528e-17 1.44196670e-11 2.12875147e-14 3.95015029e-13
8.71862190e+00 1.51828497e-11 3.57490540e-13 3.38046583e-17 1.48253254e-11 1.58813834e-14 3.57868711e-13
9.01040836e+00 1.56435207e-11 3.23800554e-13 2.23205505e-17 1.53196978e-11 1.19908576e-14 3.24215549e-13
9.31196005e+00 1.58936088e-11 2.93291035e-13 0.00000000e+00 1.56003177e-11 0.00000000e+00 2.93727053e-13
9.62360379e+00 1.57973866e-11 2.65700212e-13 0.00000000e+00 1.55316864e-11 0.00000000e+00 2.66105627e-13
9.94567731e+00 1.53868097e-11 2.40737011e-13 0.00000000e+00 1.51460726e-11 0.00000000e+00 2.41081657e-13
1.02785297e+01 1.47651889e-11 2.18128400e-13 0.00000000e+00 1.45470605e-11 0.00000000e+00 2.18410884e-13
1.06225216e+01 1.43244692e-11 1.97642967e-13 0.00000000e+00 1.41268262e-11 0.00000000e+00 1.97872020e-13
1.09780260e+01 1.38242429e-11 1.79085550e-13 0.00000000e+00 1.36451574e-11 0.00000000e+00 1.79264583e-13
1.13454280e+01 1.34406169e-11 1.62266454e-13 0.00000000e+00 1.32783504e-11 0.00000000e+00 1.62406948e-13
1.17251259e+01 1.32447850e-11 1.47023607e-13 0.00000000e+00 1.30977614e-11 0.00000000e+00 1.47134567e-13
1.21175312e+01 1.29636070e-11 1.33211181e-13 0.00000000e+00 1.28303959e-11 0.00000000e+00 1.33298366e-13
1.25230691e+01 1.26012507e-11 1.20694974e-13 0.00000000e+00 1.24805557e-11 0.00000000e+00 1.20763289e-13
1.29421791e+01 1.23824152e-11 1.09353078e-13 0.00000000e+00 1.22730621e-11 0.00000000e+00 1.09406983e-13
1.33753155e+01 1.20038749e-11 9.90757607e-14 0.00000000e+00 1.19047991e-11 0.00000000e+00 9.91185987e-14
1.38229477e+01 1.17734233e-11 8.97620968e-14 0.00000000e+00 1.16836612e-11 0.00000000e+00 8.97977103e-14
1.42855609e+01 1.16076233e-11 8.13223843e-14 0.00000000e+00 1.15263009e-11 0.00000000e+00 8.13533371e-14
1.47636563e+01 1.15290007e-11 7.36736772e-14 0.00000000e+00 1.14553270e-11 0.00000000e+00 7.37030537e-14
1.52577522e+01 1.16034375e-11 6.67438015e-14 0.00000000e+00 1.15366937e-11 0.00000000e+00 6.67721855e-14
1.57683840e+01 1.16330384e-11 6.04653035e-14 0.00000000e+00 1.15725731e-11 0.00000000e+00 6.04930805e-14
1.62961051e+01 1.17394498e-11 5.47772983e-14 0.00000000e+00 1.16846725e-11 0.00000000e+00 5.48044484e-14
1.68414875e+01 1.17693014e-11 4.96242843e-14 0.00000000e+00 1.17196771e-11 0.00000000e+00 4.96507622e-14
1.74051222e+01 1.17173042e-11 4.49565733e-14 0.00000000e+00 1.16723476e-11 0.00000000e+00 4.49817171e-14
1.79876201e+01 1.15717109e-11 4.07282621e-14 0.00000000e+00 1.15309826e-11 0.00000000e+00 4.07517384e-14
1.85896125e+01 1.15038946e-11 3.68982959e-14 0.00000000e+00 1.14669963e-11 0.00000000e+00 3.69195372e-14
1.92117518e+01 1.13275708e-11 3.34290498e-14 0.00000000e+00 1.12941418e-11 0.00000000e+00 3.34477076e-14
1.98547123e+01 1.10630540e-11 3.02862922e-14 0.00000000e+00 1.10327677e-11 0.00000000e+00 3.03023610e-14
2.05191907e+01 1.07913073e-11 2.74390962e-14 0.00000000e+00 1.07638682e-11 0.00000000e+00 2.74527957e-14
2.12059073e+01 1.05679243e-11 2.48595193e-14 0.00000000e+00 1.05430648e-11 0.00000000e+00 2.48711970e-14
2.19156062e+01 1.01810539e-11 2.25223632e-14 0.00000000e+00 1.01585316e-11 0.00000000e+00 2.25323660e-14
2.26490567e+01 9.88965238e-12 2.04048916e-14 0.00000000e+00 9.86924749e-12 0.00000000e+00 2.04134733e-14
2.34070535e+01 9.57602955e-12 1.84864603e-14 0.00000000e+00 9.55754309e-12 0.00000000e+00 1.84938366e-14
2.41904183e+01 9.21677007e-12 1.67483620e-14 0.00000000e+00 9.20002171e-12 0.00000000e+00 1.67547181e-14
2.50000000e+01 8.91959448e-12 1.51736535e-14 0.00000000e+00 8.90442083e-12 0.00000000e+00 1.51791424e-14
2.75422870e+01 7.81640071e-12 1.13482865e-14 0.00000000e+00 7.80505242e-12 0.00000000e+00 1.13518661e-14
3.16227766e+01 6.27039997e-12 7.49813683e-15 0.00000000e+00 6.26290183e-12 0.00000000e+00 7.50010357e-15
3.63078055e+01 4.73510026e-12 4.95419440e-15 0.00000000e+00 4.73014607e-12 0.00000000e+00 4.95526929e-15
4.16869383e+01 3.34972693e-12 3.27334205e-15 0.00000000e+00 3.34645358e-12 0.00000000e+00 3.27391395e-15
4.78630092e+01 2.21613186e-12 2.16275866e-15 0.00000000e+00 2.21396910e-12 0.00000000e+00 2.16305350e-15
5.49540874e+01 1.38294612e-12 1.42896651e-15 0.00000000e+00 1.38151716e-12 0.00000000e+00 1.42911527e-15
6.30957344e+01 8.27249269e-13 9.44132990e-16 0.00000000e+00 8.26305136e-13 0.00000000e+00 9.44207098e-16
7.24435960e+01 4.75437332e-13 6.23794791e-16 0.00000000e+00 4.74813537e-13 0.00000000e+00 6.23831443e-16
8.31763771e+01 2.66443821e-13 4.12143249e-16 0.00000000e+00 2.66031678e-13 0.00000000e+00 4.12161347e-16
9.54992586e+01 1.46449226e-13 2.72303344e-16 0.00000000e+00 1.46176922e-13 0.00000000e+00 2.72312302e-16
1.09647820e+02 7.94347086e-14 1.79910504e-16 0.00000000e+00 7.92547981e-14 0.00000000e+00 1.79914953e-16
1.25892541e+02 4.31434130e-14 1.18866388e-16 0.00000000e+00 4.30245466e-14 0.00000000e+00 1.18868631e-16
1.44543977e+02 2.33410071e-14 7.85345867e-17 0.00000000e+00 2.32624725e-14 0.00000000e+00 7.85357256e-17
1.65958691e+02 1.20578690e-14 5.18874809e-17 0.00000000e+00 1.20059815e-14 0.00000000e+00 5.18880394e-17
1.90546072e+02 6.24681848e-15 3.42818111e-17 0.00000000e+00 6.21253667e-15 0.00000000e+00 3.42820876e-17
2.18776162e+02 3.23573180e-15 2.26498129e-17 0.00000000e+00 3.21308199e-15 0.00000000e+00 2.26499507e-17
2.51188643e+02 1.67302456e-15 1.49646052e-17 0.00000000e+00 1.65805996e-15 0.00000000e+00 1.49646740e-17
2.88403150e+02 8.62423432e-16 9.88702763e-18 0.00000000e+00 8.52536405e-16 0.00000000e+00 9.88706207e-18
3.31131121e+02 4.44055150e-16 6.53229987e-18 0.00000000e+00 4.37522850e-16 0.00000000e+00 6.53231713e-18
3.80189396e+02 2.28175505e-16 4.31585047e-18 0.00000000e+00 2.23859655e-16 0.00000000e+00 4.31585913e-18
4.36515832e+02 1.17186682e-16 2.85145550e-18 0.00000000e+00 1.14335226e-16 0.00000000e+00 2.85145985e-18
5.01187234e+02 6.01536097e-17 1.88393866e-18 0.00000000e+00 5.82696710e-17 0.00000000e+00 1.88394084e-18
5.75439937e+02 3.08901595e-17 1.24470627e-18 0.00000000e+00 2.96454533e-17 0.00000000e+00 1.24470737e-18
6.60693448e+02 1.58823539e-17 8.22369453e-19 0.00000000e+00 1.50599844e-17 0.00000000e+00 8.22370004e-19
7.58577575e+02 8.18375368e-18 5.43334197e-19 0.00000000e+00 7.64041948e-18 0.00000000e+00 5.43334473e-19
8.70963590e+02 4.22983867e-18 3.58977388e-19 0.00000000e+00 3.87086128e-18 0.00000000e+00 3.58977527e-19
1.00000000e+03 1.95845985e-18 0.00000000e+00 0.00000000e+00 1.95845985e-18 0.00000000e+00 0.00000000e+00
