# column 1: lambda (micron)
# column 2: total flux; lambda*F_lambda (W/m2)
# column 3: direct stellar flux; lambda*F_lambda (W/m2)
# column 4: scattered stellar flux; lambda*F_lambda (W/m2)
# column 5: total dust emission flux; lambda*F_lambda (W/m2)
# column 6: dust emission scattered flux; lambda*F_lambda (W/m2)
# column 7: transparent flux; lambda*F_lambda (W/m2)
1.00000000e-03 1.07336405e-12 1.07335627e-12 7.77614637e-18 0.00000000e+00 0.00000000e+00 1.07335627e-12
1.14815362e-03 1.26691594e-12 1.26690456e-12 1.13863771e-17 0.00000000e+00 0.00000000e+00 1.26690456e-12
1.31825674e-03 1.49537047e-12 1.49535359e-12 1.68753562e-17 0.00000000e+00 0.00000000e+00 1.49535359e-12
1.51356125e-03 1.76502165e-12 1.76499670e-12 2.49512582e-17 0.00000000e+00 0.00000000e+00 1.76499670e-12
1.73780083e-03 2.08330680e-12 2.08326203e-12 4.47690913e-17 0.00000000e+00 0.00000000e+00 2.08326203e-12
1.99526231e-03 2.45899119e-12 2.45891716e-12 7.40266650e-17 0.00000000e+00 0.00000000e+00 2.45891716e-12
2.29086765e-03 2.90242882e-12 2.90231066e-12 1.18155088e-16 0.00000000e+00 0.00000000e+00 2.90231066e-12
2.63026799e-03 3.42589428e-12 3.42565717e-12 2.37115534e-16 0.00000000e+00 0.00000000e+00 3.42565717e-12
3.01995172e-03 4.04375972e-12 4.04337385e-12 3.85876381e-16 0.00000000e+00 0.00000000e+00 4.04337385e-12
3.46736850e-03 4.77310882e-12 4.77247759e-12 6.31235004e-16 0.00000000e+00 0.00000000e+00 4.77247759e-12
3.98107171e-03 5.63404077e-12 5.63305378e-12 9.86984458e-16 0.00000000e+00 0.00000000e+00 5.63305378e-12
4.57088190e-03 6.65104289e-12 6.64880962e-12 2.23326694e-15 0.00000000e+00 0.00000000e+00 6.64880962e-12
5.24807460e-03 7.85169440e-12 7.84772720e-12 3.96720714e-15 0.00000000e+00 0.00000000e+00 7.84772720e-12
6.02559586e-03 9.27049676e-12 9.26283435e-12 7.66240448e-15 0.00000000e+00 0.00000000e+00 9.26283435e-12
6.91830971e-03 1.09459215e-11 1.09331145e-11 1.28069752e-14 0.00000000e+00 0.00000000e+00 1.09331145e-11
7.94328235e-03 1.29235309e-11 1.29045807e-11 1.89502122e-14 0.00000000e+00 0.00000000e+00 1.29045807e-11
9.12010839e-03 1.52666161e-11 1.52315429e-11 3.50731932e-14 0.00000000e+00 0.00000000e+00 1.52315429e-11
1.04712855e-02 1.70608821e-11 1.70115517e-11 4.93303662e-14 0.00000000e+00 0.00000000e+00 1.70115517e-11
1.20226443e-02 1.70816344e-11 1.70115517e-11 7.00827003e-14 0.00000000e+00 0.00000000e+00 1.70115517e-11
1.38038426e-02 1.71150423e-11 1.70115517e-11 1.03490587e-13 0.00000000e+00 0.00000000e+00 1.70115517e-11
1.58489319e-02 1.71462190e-11 1.70115517e-11 1.34667242e-13 6.73044664e-288 3.04713421e-288 1.70115517e-11
1.81970086e-02 1.72053317e-11 1.70115517e-11 1.93779958e-13 3.45310123e-251 1.69151134e-251 1.70115517e-11
2.08929613e-02 1.72687608e-11 1.70115517e-11 2.57209111e-13 2.36368573e-219 9.47905178e-220 1.70115517e-11
2.39883292e-02 1.73420568e-11 1.70115517e-11 3.30505057e-13 1.37677326e-191 5.47593368e-192 1.70115517e-11
2.75422870e-02 1.74334788e-11 1.70115517e-11 4.21927092e-13 2.14878810e-167 9.45163877e-168 1.70115517e-11
3.16227766e-02 1.74892806e-11 1.70115517e-11 4.77728863e-13 2.24958124e-146 9.65015532e-147 1.70115517e-11
3.63078055e-02 1.75392464e-11 1.70115517e-11 5.27694674e-13 4.13880712e-128 1.63668563e-128 1.70115517e-11
4.16869383e-02 1.76558259e-11 1.70115517e-11 6.44274231e-13 3.51093620e-112 1.44391017e-112 1.70115517e-11
4.78630092e-02 1.77143441e-11 1.70115517e-11 7.02792399e-13 2.21743552e-98 9.39934640e-99 1.70115517e-11
5.49540874e-02 1.76987999e-11 1.70115517e-11 6.87248194e-13 2.14251854e-86 8.92089180e-87 1.70115517e-11
6.30957344e-02 1.76097529e-11 1.70115517e-11 5.98201223e-13 6.36607333e-76 2.53396015e-76 1.70115517e-11
7.24435960e-02 1.74455297e-11 1.70115517e-11 4.33977968e-13 7.53621235e-67 2.61721754e-67 1.70115517e-11
8.31763771e-02 1.74250033e-11 1.70115517e-11 4.13451588e-13 5.48596222e-59 1.90524405e-59 1.70115517e-11
9.54992586e-02 1.74273210e-11 1.70115517e-11 4.15769288e-13 3.72321531e-52 1.27105576e-52 1.70115517e-11
1.09647820e-01 1.67307119e-11 1.62459122e-11 4.84799716e-13 3.41430749e-46 1.30982940e-46 1.62459122e-11
1.25892541e-01 1.57067446e-11 1.51615674e-11 5.45177229e-13 5.01840303e-41 1.98493123e-41 1.51615674e-11
1.44543977e-01 1.46970066e-11 1.41495980e-11 5.47408664e-13 1.38009505e-36 5.53140646e-37 1.41495980e-11
1.65958691e-01 1.37561904e-11 1.32051732e-11 5.51017206e-13 7.46076724e-33 3.12616835e-33 1.32051732e-11
1.90546072e-01 1.28515933e-11 1.23237846e-11 5.27808674e-13 8.13158018e-30 3.74013778e-30 1.23237846e-11
2.18776162e-01 1.19226682e-11 1.15012250e-11 4.21443135e-13 2.55402444e-27 1.13553614e-27 1.15012250e-11
2.51188643e-01 1.11921019e-11 1.07335677e-11 4.58534160e-13 8.50155655e-25 4.19943776e-25 1.07335677e-11
2.88403150e-01 1.04758771e-11 1.00171482e-11 4.58728837e-13 1.13292813e-22 5.70455268e-23 1.00171482e-11
3.31131121e-01 9.80726682e-12 9.34854667e-12 4.58720141e-13 7.21184047e-21 3.52203476e-21 9.34854667e-12
3.80189396e-01 9.15556014e-12 8.72457139e-12 4.30988505e-13 2.45317799e-19 1.16154074e-19 8.72457139e-12
4.36515832e-01 8.53463758e-12 8.14224377e-12 3.92388899e-13 4.90706303e-18 2.27545025e-18 8.14224377e-12
5.01187234e-01 7.95422973e-12 7.59878402e-12 3.55383305e-13 6.24075037e-17 2.78811006e-17 7.59878402e-12
5.75439937e-01 7.40896651e-12 7.09159786e-12 3.16840638e-13 5.28006374e-16 2.25478230e-16 7.09159786e-12
6.60693448e-01 6.89983436e-12 6.61826421e-12 2.78340337e-13 3.22981656e-15 1.28533394e-15 6.61826421e-12
7.58577575e-01 6.43398521e-12 6.17652353e-12 2.42799805e-13 1.46618702e-14 5.48315216e-15 6.17652353e-12
8.70963590e-01 6.02305840e-12 5.76426715e-12 2.05290192e-13 5.35010561e-14 1.82719938e-14 5.76426715e-12
1.00000000e+00 5.70900810e-12 5.37952711e-12 1.70949820e-13 1.58531164e-13 4.82834395e-14 5.37952711e-12
1.14815362e+00 5.56624225e-12 5.02046681e-12 1.37862870e-13 4.07912565e-13 1.06244596e-13 5.02046681e-12
1.31825674e+00 5.69771163e-12 4.68537225e-12 1.07128294e-13 9.05211092e-13 2.01278353e-13 4.68537225e-12
1.51356125e+00 6.24357848e-12 4.37264380e-12 8.47407868e-14 1.78619390e-12 3.37091344e-13 4.37264380e-12
1.73780083e+00 7.25718603e-12 4.08078863e-12 6.69566095e-14 3.10944079e-12 4.84327248e-13 4.08078863e-12
1.99526231e+00 8.71172560e-12 3.80841354e-12 5.27847959e-14 4.85052727e-12 6.16741150e-13 3.80841354e-12
2.29086765e+00 1.04797720e-11 3.55421832e-12 4.09359619e-14 6.88461775e-12 7.06135927e-13 3.55421832e-12
2.63026799e+00 1.24279368e-11 3.31698953e-12 3.13362324e-14 9.07961105e-12 7.51195784e-13 3.31698953e-12
3.01995172e+00 1.44565352e-11 3.09559474e-12 2.37108723e-14 1.13372296e-11 7.53227575e-13 3.09559474e-12
3.46736850e+00 1.64984542e-11 2.88897711e-12 1.72729592e-14 1.35922042e-11 6.99010538e-13 2.88897711e-12
3.98107171e+00 1.83577275e-11 2.69615031e-12 1.23869371e-14 1.56491902e-11 6.01531701e-13 2.69615031e-12
4.57088190e+00 1.98634732e-11 2.51619387e-12 8.55678762e-15 1.73387225e-11 4.77828248e-13 2.51619387e-12
5.24807460e+00 2.05407116e-11 2.08050667e-12 4.96299523e-15 1.84552420e-11 3.43009530e-13 2.08050667e-12
6.02559586e+00 2.03484321e-11 1.37457712e-12 2.21866619e-15 1.89716363e-11 2.28027706e-13 1.37457712e-12
6.70000000e+00 1.99159410e-11 9.99872685e-13 1.15109739e-15 1.89149172e-11 1.56154445e-13 9.99872685e-13
6.92422916e+00 1.97286064e-11 9.05846924e-13 9.31517793e-16 1.88218280e-11 1.37438124e-13 9.05846924e-13
7.15596261e+00 1.95195752e-11 8.20663132e-13 7.36043513e-16 1.86981760e-11 1.18998870e-13 8.20663132e-13
7.39545150e+00 1.95305773e-11 7.43489831e-13 5.60373767e-16 1.87865271e-11 1.01136935e-13 7.43489831e-13
7.64295536e+00 1.96925630e-11 6.73573732e-13 3.84724427e-16 1.90186045e-11 8.16240670e-14 6.73573732e-13
7.89874245e+00 2.02892507e-11 6.10232385e-13 2.28256813e-16 1.96787901e-11 6.06815387e-14 6.10232385e-13
8.16308998e+00 2.08536429e-11 5.52847515e-13 1.27622979e-16 2.03006678e-11 4.34729607e-14 5.52847515e-13
8.43628443e+00 2.13534319e-11 5.00858987e-13 6.45487871e-17 2.08525084e-11 2.94136802e-14 5.00858987e-13
8.71862190e+00 2.17174103e-11 4.53759343e-13 3.74331603e-17 2.12636136e-11 2.17744587e-14 4.53759343e-13
9.01040836e+00 2.18894421e-11 4.11088843e-13 2.02134022e-17 2.14783330e-11 1.56426441e-14 4.11088843e-13
9.31196005e+00 2.18850244e-11 3.72430980e-13 0.00000000e+00 2.15125934e-11 0.00000000e+00 3.72430980e-13
9.62360379e+00 2.18494566e-11 3.37408415e-13 0.00000000e+00 2.15120482e-11 0.00000000e+00 3.37408415e-13
9.94567731e+00 2.12754948e-11 3.05679292e-13 0.00000000e+00 2.09698155e-11 0.00000000e+00 3.05679292e-13
1.02785297e+01 2.09299726e-11 2.76933904e-13 0.00000000e+00 2.06530387e-11 0.00000000e+00 2.76933904e-13
1.06225216e+01 2.04348057e-11 2.50891667e-13 0.00000000e+00 2.01839141e-11 0.00000000e+00 2.50891667e-13
1.09780260e+01 2.01061050e-11 2.27298384e-13 0.00000000e+00 1.98788066e-11 0.00000000e+00 2.27298384e-13
1.13454280e+01 1.94621057e-11 2.05923759e-13 0.00000000e+00 1.92561819e-11 0.00000000e+00 2.05923759e-13
1.17251259e+01 1.90854580e-11 1.86559155e-13 0.00000000e+00 1.88988989e-11 0.00000000e+00 1.86559155e-13
1.21175312e+01 1.85318911e-11 1.69015555e-13 0.00000000e+00 1.83628756e-11 0.00000000e+00 1.69015555e-13
1.25230691e+01 1.78907514e-11 1.53121715e-13 0.00000000e+00 1.77376296e-11 0.00000000e+00 1.53121715e-13
1.29421791e+01 1.71954667e-11 1.38722496e-13 0.00000000e+00 1.70567442e-11 0.00000000e+00 1.38722496e-13
1.33753155e+01 1.64522415e-11 1.25677347e-13 0.00000000e+00 1.63265642e-11 0.00000000e+00 1.25677347e-13
1.38229477e+01 1.58149674e-11 1.13858934e-13 0.00000000e+00 1.57011085e-11 0.00000000e+00 1.13858934e-13
1.42855609e+01 1.53596960e-11 1.03151898e-13 0.00000000e+00 1.52565441e-11 0.00000000e+00 1.03151898e-13
1.47636563e+01 1.52643866e-11 9.34517274e-14 0.00000000e+00 1.51709348e-11 0.00000000e+00 9.34517274e-14
1.52577522e+01 1.51822314e-11 8.46637387e-14 0.00000000e+00 1.50975676e-11 0.00000000e+00 8.46637387e-14
1.57683840e+01 1.50359308e-11 7.67021526e-14 0.00000000e+00 1.49592286e-11 0.00000000e+00 7.67021526e-14
1.62961051e+01 1.50514668e-11 6.94892560e-14 0.00000000e+00 1.49819776e-11 0.00000000e+00 6.94892560e-14
1.68414875e+01 1.49344754e-11 6.29546439e-14 0.00000000e+00 1.48715208e-11 0.00000000e+00 6.29546439e-14
1.74051222e+01 1.46993204e-11 5.70345319e-14 0.00000000e+00 1.46422859e-11 0.00000000e+00 5.70345319e-14
1.79876201e+01 1.44529801e-11 5.16711337e-14 0.00000000e+00 1.44013089e-11 0.00000000e+00 5.16711337e-14
1.85896125e+01 1.40395250e-11 4.68120974e-14 0.00000000e+00 1.39927129e-11 0.00000000e+00 4.68120974e-14
1.92117518e+01 1.35107457e-11 4.24099939e-14 0.00000000e+00 1.34683357e-11 0.00000000e+00 4.24099939e-14
1.98547123e+01 1.29865556e-11 3.84218542e-14 0.00000000e+00 1.29481337e-11 0.00000000e+00 3.84218542e-14
2.05191907e+01 1.23965940e-11 3.48087501e-14 0.00000000e+00 1.23617852e-11 0.00000000e+00 3.48087501e-14
2.12059073e+01 1.17832846e-11 3.15354141e-14 0.00000000e+00 1.17517492e-11 0.00000000e+00 3.15354141e-14
2.19156062e+01 1.12138641e-11 2.85698952e-14 0.00000000e+00 1.11852942e-11 0.00000000e+00 2.85698952e-14
2.26490567e+01 1.05880031e-11 2.58832470e-14 0.00000000e+00 1.05621198e-11 0.00000000e+00 2.58832470e-14
2.34070535e+01 1.00766186e-11 2.34492452e-14 0.00000000e+00 1.00531693e-11 0.00000000e+00 2.34492452e-14
2.41904183e+01 9.47129520e-12 2.12441313e-14 0.00000000e+00 9.45005106e-12 0.00000000e+00 2.12441313e-14
2.50000000e+01 8.93183237e-12 1.92463813e-14 0.00000000e+00 8.91258599e-12 0.00000000e+00 1.92463813e-14
2.75422870e+01 7.43370272e-12 1.43935895e-14 0.00000000e+00 7.41930913e-12 0.00000000e+00 1.43935895e-14
3.16227766e+01 5.50193450e-12 9.50975027e-15 0.00000000e+00 5.49242475e-12 0.00000000e+00 9.50975027e-15
3.63078055e+01 3.87125937e-12 6.28302969e-15 0.00000000e+00 3.86497634e-12 0.00000000e+00 6.28302969e-15
4.16869383e+01 2.56592139e-12 4.15115655e-15 0.00000000e+00 2.56177023e-12 0.00000000e+00 4.15115655e-15
4.78630092e+01 1.60413404e-12 2.74264194e-15 0.00000000e+00 1.60139140e-12 0.00000000e+00 2.74264194e-15
5.49540874e+01 9.55091616e-13 1.81204556e-15 0.00000000e+00 9.53279570e-13 0.00000000e+00 1.81204556e-15
6.30957344e+01 5.46298184e-13 1.19720663e-15 0.00000000e+00 5.45100978e-13 0.00000000e+00 1.19720663e-15
7.24435960e+01 3.02782237e-13 7.90986575e-16 0.00000000e+00 3.01991251e-13 0.00000000e+00 7.90986575e-16
8.31763771e+01 1.64334811e-13 5.22599647e-16 0.00000000e+00 1.63812211e-13 0.00000000e+00 5.22599647e-16
9.54992586e+01 8.79416889e-14 3.45278163e-16 0.00000000e+00 8.75964107e-14 0.00000000e+00 3.45278163e-16
1.09647820e+02 4.66176522e-14 2.28123020e-16 0.00000000e+00 4.63895292e-14 0.00000000e+00 2.28123020e-16
1.25892541e+02 2.48409311e-14 1.50719385e-16 0.00000000e+00 2.46902117e-14 0.00000000e+00 1.50719385e-16
1.44543977e+02 1.32256148e-14 9.95793099e-17 0.00000000e+00 1.31260355e-14 0.00000000e+00 9.95793099e-17
1.65958691e+02 6.73904925e-15 6.57913976e-17 0.00000000e+00 6.67325785e-15 0.00000000e+00 6.57913976e-17
1.90546072e+02 3.45084272e-15 4.34679453e-17 0.00000000e+00 3.40737478e-15 0.00000000e+00 4.34679453e-17
2.18776162e+02 1.77121408e-15 2.87189867e-17 0.00000000e+00 1.74249510e-15 0.00000000e+00 2.87189867e-17
2.51188643e+02 9.09429715e-16 1.89744463e-17 0.00000000e+00 8.90455268e-16 0.00000000e+00 1.89744463e-17
2.88403150e+02 4.66602052e-16 1.25362924e-17 0.00000000e+00 4.54065759e-16 0.00000000e+00 1.25362924e-17
3.31131121e+02 2.39637790e-16 8.28264623e-18 0.00000000e+00 2.31355144e-16 0.00000000e+00 8.28264623e-18
3.80189396e+02 1.23114160e-16 5.47229010e-18 0.00000000e+00 1.17641870e-16 0.00000000e+00 5.47229010e-18
4.36515832e+02 6.33785944e-17 3.61550621e-18 0.00000000e+00 5.97630882e-17 0.00000000e+00 3.61550621e-18
5.01187234e+02 3.27055775e-17 2.38874127e-18 0.00000000e+00 3.03168362e-17 0.00000000e+00 2.38874127e-18
5.75439937e+02 1.69404245e-17 1.57822570e-18 0.00000000e+00 1.53621988e-17 0.00000000e+00 1.57822570e-18
6.60693448e+02 8.81976099e-18 1.04272338e-18 0.00000000e+00 7.77703761e-18 0.00000000e+00 1.04272338e-18
7.58577575e+02 4.62258844e-18 6.88920507e-19 0.00000000e+00 3.93366793e-18 0.00000000e+00 6.88920507e-19
8.70963590e+02 2.44290272e-18 4.55165265e-19 0.00000000e+00 1.98773745e-18 0.00000000e+00 4.55165265e-19
1.00000000e+03 1.00343335e-18 0.00000000e+00 0.00000000e+00 1.00343335e-18 0.00000000e+00 0.00000000e+00
