# column 1: lambda (micron)
# column 2: total flux; lambda*F_lambda (W/m2)
# column 3: direct stellar flux; lambda*F_lambda (W/m2)
# column 4: scattered stellar flux; lambda*F_lambda (W/m2)
# column 5: total dust emission flux; lambda*F_lambda (W/m2)
# column 6: dust emission scattered flux; lambda*F_lambda (W/m2)
# column 7: transparent flux; lambda*F_lambda (W/m2)
1.00000000e-03 5.25637220e-13 5.25636674e-13 5.46234323e-19 0.00000000e+00 0.00000000e+00 5.25636674e-13
1.14815362e-03 6.20420712e-13 6.20419813e-13 8.99333431e-19 0.00000000e+00 0.00000000e+00 6.20419813e-13
1.31825674e-03 7.32295630e-13 7.32294308e-13 1.32164173e-18 0.00000000e+00 0.00000000e+00 7.32294308e-13
1.51356125e-03 8.64344280e-13 8.64342083e-13 2.19688611e-18 0.00000000e+00 0.00000000e+00 8.64342083e-13
1.73780083e-03 1.02020469e-12 1.02020080e-12 3.89395992e-18 0.00000000e+00 0.00000000e+00 1.02020080e-12
1.99526231e-03 1.20417151e-12 1.20416405e-12 7.45665635e-18 0.00000000e+00 0.00000000e+00 1.20416405e-12
2.29086765e-03 1.42131052e-12 1.42129968e-12 1.08389751e-17 0.00000000e+00 0.00000000e+00 1.42129968e-12
2.63026799e-03 1.67761323e-12 1.67758934e-12 2.38832114e-17 0.00000000e+00 0.00000000e+00 1.67758934e-12
3.01995172e-03 1.98013538e-12 1.98009332e-12 4.20576716e-17 0.00000000e+00 0.00000000e+00 1.98009332e-12
3.46736850e-03 2.33721454e-12 2.33714500e-12 6.95348402e-17 0.00000000e+00 0.00000000e+00 2.33714500e-12
3.98107171e-03 2.75869205e-12 2.75858048e-12 1.11571728e-16 0.00000000e+00 0.00000000e+00 2.75858048e-12
4.57088190e-03 3.25625877e-12 3.25600946e-12 2.49302445e-16 0.00000000e+00 0.00000000e+00 3.25600946e-12
5.24807460e-03 3.84356600e-12 3.84313516e-12 4.30842426e-16 0.00000000e+00 0.00000000e+00 3.84313516e-12
6.02559586e-03 4.53691261e-12 4.53613173e-12 7.80872873e-16 0.00000000e+00 0.00000000e+00 4.53613173e-12
6.91830971e-03 5.35527087e-12 5.35408989e-12 1.18097875e-15 0.00000000e+00 0.00000000e+00 5.35408989e-12
7.94328235e-03 6.32188269e-12 6.31954278e-12 2.33990663e-15 1.14099665e-303 2.94954825e-305 6.31954278e-12
9.12010839e-03 7.46516431e-12 7.45908676e-12 6.07755231e-15 4.82076712e-265 6.20099463e-267 7.45908676e-12
1.04712855e-02 8.33530103e-12 8.33078048e-12 4.52055314e-15 1.98833508e-231 1.66605350e-233 8.33078048e-12
1.20226443e-02 8.33775908e-12 8.33078048e-12 6.97860545e-15 3.06425120e-202 3.18712250e-204 8.33078048e-12
1.38038426e-02 8.34096459e-12 8.33078048e-12 1.01841148e-14 8.31526537e-177 1.87089942e-178 8.33078048e-12
1.58489319e-02 8.34592587e-12 8.33078048e-12 1.51453900e-14 1.10590101e-154 2.26508552e-156 8.33078048e-12
1.81970086e-02 8.35219673e-12 8.33078048e-12 2.14162517e-14 1.95110550e-135 4.40562130e-137 8.33078048e-12
2.08929613e-02 8.35809490e-12 8.33078048e-12 2.73144261e-14 1.01569966e-118 3.19893172e-120 8.33078048e-12
2.39883292e-02 8.36624311e-12 8.33078048e-12 3.54626304e-14 3.54988765e-104 1.36713324e-105 8.33078048e-12
2.75422870e-02 8.37874128e-12 8.33078048e-12 4.79608088e-14 1.58133418e-91 7.05637900e-93 8.33078048e-12
3.16227766e-02 8.38680657e-12 8.33078048e-12 5.60260965e-14 1.52713751e-80 6.88471098e-82 8.33078048e-12
3.63078055e-02 8.39559833e-12 8.33078048e-12 6.48178575e-14 5.27339855e-71 2.63670824e-72 8.33078048e-12
4.16869383e-02 8.41985364e-12 8.33078048e-12 8.90731598e-14 1.00237012e-62 5.97619926e-64 8.33078048e-12
4.78630092e-02 8.43765490e-12 8.33078048e-12 1.06874425e-13 1.51073584e-55 1.06168086e-56 8.33078048e-12
5.49540874e-02 8.45323411e-12 8.33078048e-12 1.22453630e-13 2.49137560e-49 1.87128006e-50 8.33078048e-12
6.30957344e-02 8.46182176e-12 8.33078048e-12 1.31041283e-13 7.94431769e-44 6.37993791e-45 8.33078048e-12
7.24435960e-02 8.45239019e-12 8.33078048e-12 1.21609718e-13 4.51506938e-39 3.37508144e-40 8.33078048e-12
8.31763771e-02 8.44524664e-12 8.33078048e-12 1.14466160e-13 4.60477185e-35 3.35345772e-36 8.33078048e-12
9.54992586e-02 8.45211371e-12 8.33078048e-12 1.21333234e-13 1.29993019e-31 9.72290051e-33 8.33078048e-12
1.09647820e-01 8.07711349e-12 7.95583672e-12 1.21276769e-13 1.11218991e-28 8.94853608e-30 7.95583672e-12
1.25892541e-01 7.54028027e-12 7.42481883e-12 1.15461440e-13 3.62881025e-26 2.91530555e-27 7.42481883e-12
1.44543977e-01 7.03426726e-12 6.92924411e-12 1.05023155e-13 4.95319953e-24 3.82675016e-25 6.92924411e-12
1.65958691e-01 6.57201266e-12 6.46674687e-12 1.05265789e-13 2.52063630e-22 2.12589130e-23 6.46674687e-12
1.90546072e-01 6.14610062e-12 6.03511933e-12 1.10981290e-13 5.29452942e-21 4.97557580e-22 6.03511933e-12
2.18776162e-01 5.73959493e-12 5.63230107e-12 1.07293801e-13 6.22295264e-20 6.01607944e-21 5.63230107e-12
2.51188643e-01 5.37304412e-12 5.25636919e-12 1.16674164e-13 7.60469501e-19 8.55900866e-20 5.25636919e-12
2.88403150e-01 5.01136368e-12 4.90552916e-12 1.05828187e-13 6.33740658e-18 6.90069123e-19 4.90552916e-12
3.31131121e-01 4.67477603e-12 4.57810618e-12 9.66335100e-14 3.63408071e-17 3.80916575e-18 4.57810618e-12
3.80189396e-01 4.35901275e-12 4.27253728e-12 8.63238983e-14 1.51564886e-16 1.54019807e-17 4.27253728e-12
4.36515832e-01 4.06819865e-12 3.98736380e-12 8.03536939e-14 4.81161908e-16 4.82993110e-17 3.98736380e-12
5.01187234e-01 3.79446812e-12 3.72122441e-12 7.20329495e-14 1.21076092e-15 1.18782519e-16 3.72122441e-12
5.75439937e-01 3.54181307e-12 3.47284869e-12 6.64073598e-14 2.55702126e-15 2.51185482e-16 3.47284869e-12
6.60693448e-01 3.30382818e-12 3.24105097e-12 5.79470460e-14 4.83015833e-15 5.06001698e-16 3.24105097e-12
7.58577575e-01 3.08499094e-12 3.02472476e-12 5.14601883e-14 8.80598754e-15 1.03316800e-15 3.02472476e-12
8.70963590e-01 2.88433309e-12 2.82283739e-12 4.52022301e-14 1.62934708e-14 2.14374461e-15 2.82283739e-12
1.00000000e+00 2.70440865e-12 2.63442513e-12 3.92972630e-14 3.06862556e-14 4.30641847e-15 2.63442513e-12
1.14815362e+00 2.54931402e-12 2.45858859e-12 3.21032068e-14 5.86222283e-14 8.16881671e-15 2.45858859e-12
1.31825674e+00 2.42939136e-12 2.29448837e-12 2.56193865e-14 1.09283604e-13 1.39931687e-14 2.29448837e-12
1.51356125e+00 2.35413760e-12 2.14134114e-12 2.03853997e-14 1.92411056e-13 2.16096247e-14 2.14134114e-12
1.73780083e+00 2.32354304e-12 1.99841583e-12 1.54262606e-14 3.09700947e-13 2.88073333e-14 1.99841583e-12
1.99526231e+00 2.33229692e-12 1.86503017e-12 1.11536633e-14 4.56113084e-13 3.34296152e-14 1.86503017e-12
2.29086765e+00 2.35905040e-12 1.74054743e-12 7.83835310e-15 6.10664618e-13 3.33458426e-14 1.74054743e-12
2.63026799e+00 2.38894343e-12 1.62437337e-12 5.51200384e-15 7.59058057e-13 3.06323743e-14 1.62437337e-12
3.01995172e+00 2.39961366e-12 1.51595343e-12 3.63672700e-15 8.80023503e-13 2.60258845e-14 1.51595343e-12
3.46736850e+00 2.38312281e-12 1.41477006e-12 2.54604023e-15 9.65806708e-13 2.10976466e-14 1.41477006e-12
3.98107171e+00 2.32561575e-12 1.32034025e-12 1.69081525e-15 1.00358469e-12 1.60564073e-14 1.32034025e-12
4.57088190e+00 2.23823151e-12 1.23221321e-12 1.16975432e-15 1.00484854e-12 1.16774487e-14 1.23221321e-12
5.24807460e+00 1.99581311e-12 1.01885146e-12 6.67306836e-16 9.76294344e-13 8.03592341e-15 1.01885146e-12
6.02559586e+00 1.60477222e-12 6.73148485e-13 2.97150812e-16 9.31326583e-13 5.20258529e-15 6.73148485e-13
6.70000000e+00 1.37814993e-12 4.89650796e-13 1.55277512e-16 8.88343858e-13 3.58503997e-15 4.89650796e-13
6.92422916e+00 1.31690106e-12 4.43605145e-13 1.28066708e-16 8.73167853e-13 3.14406962e-15 4.43605145e-13
7.15596261e+00 1.26659391e-12 4.01889522e-13 1.00832029e-16 8.64603553e-13 2.72957702e-15 4.01889522e-13
7.39545150e+00 1.23645676e-12 3.64096743e-13 7.40659509e-17 8.72285948e-13 2.34741464e-15 3.64096743e-13
7.64295536e+00 1.25562042e-12 3.29857910e-13 5.25551069e-17 9.25709957e-13 1.92410110e-15 3.29857910e-13
7.89874245e+00 1.34918610e-12 2.98838820e-13 3.08539141e-17 1.05031643e-12 1.47496618e-15 2.98838820e-13
8.16308998e+00 1.50323860e-12 2.70736695e-13 1.81827597e-17 1.23248372e-12 1.13291642e-15 2.70736695e-13
8.43628443e+00 1.73989001e-12 2.45277229e-13 9.90800858e-18 1.49460287e-12 8.42662911e-16 2.45277229e-13
8.71862190e+00 1.90812326e-12 2.22211915e-13 6.44349294e-18 1.68590490e-12 6.63595373e-16 2.22211915e-13
9.01040836e+00 2.08032119e-12 2.01315610e-13 4.16916037e-18 1.87900142e-12 5.08488062e-16 2.01315610e-13
9.31196005e+00 2.21875274e-12 1.82384346e-13 0.00000000e+00 2.03636839e-12 0.00000000e+00 1.82384346e-13
9.62360379e+00 2.20647412e-12 1.65233336e-13 0.00000000e+00 2.04124079e-12 0.00000000e+00 1.65233336e-13
9.94567731e+00 2.06723477e-12 1.49695167e-13 0.00000000e+00 1.91753960e-12 0.00000000e+00 1.49695167e-13
1.02785297e+01 1.89942889e-12 1.35618173e-13 0.00000000e+00 1.76381072e-12 0.00000000e+00 1.35618173e-13
1.06225216e+01 1.74119130e-12 1.22864947e-13 0.00000000e+00 1.61832636e-12 0.00000000e+00 1.22864947e-13
1.09780260e+01 1.57514193e-12 1.11311006e-13 0.00000000e+00 1.46383092e-12 0.00000000e+00 1.11311006e-13
1.13454280e+01 1.42248307e-12 1.00843571e-13 0.00000000e+00 1.32163949e-12 0.00000000e+00 1.00843571e-13
1.17251259e+01 1.30199417e-12 9.13604705e-14 0.00000000e+00 1.21063370e-12 0.00000000e+00 9.13604705e-14
1.21175312e+01 1.18336530e-12 8.27691389e-14 0.00000000e+00 1.10059616e-12 0.00000000e+00 8.27691389e-14
1.25230691e+01 1.08856818e-12 7.49857166e-14 0.00000000e+00 1.01358247e-12 0.00000000e+00 7.49857166e-14
1.29421791e+01 1.00670353e-12 6.79342298e-14 0.00000000e+00 9.38769301e-13 0.00000000e+00 6.79342298e-14
1.33753155e+01 9.34392411e-13 6.15458488e-14 0.00000000e+00 8.72846562e-13 0.00000000e+00 6.15458488e-14
1.38229477e+01 8.89618922e-13 5.57582167e-14 0.00000000e+00 8.33860706e-13 0.00000000e+00 5.57582167e-14
1.42855609e+01 8.67735675e-13 5.05148403e-14 0.00000000e+00 8.17220835e-13 0.00000000e+00 5.05148403e-14
1.47636563e+01 8.77818688e-13 4.57645392e-14 0.00000000e+00 8.32054148e-13 0.00000000e+00 4.57645392e-14
1.52577522e+01 8.99732917e-13 4.14609457e-14 0.00000000e+00 8.58271971e-13 0.00000000e+00 4.14609457e-14
1.57683840e+01 9.26126400e-13 3.75620523e-14 0.00000000e+00 8.88564347e-13 0.00000000e+00 3.75620523e-14
1.62961051e+01 9.52792169e-13 3.40298020e-14 0.00000000e+00 9.18762367e-13 0.00000000e+00 3.40298020e-14
1.68414875e+01 9.85065268e-13 3.08297166e-14 0.00000000e+00 9.54235552e-13 0.00000000e+00 3.08297166e-14
1.74051222e+01 1.00176002e-12 2.79305599e-14 0.00000000e+00 9.73829464e-13 0.00000000e+00 2.79305599e-14
1.79876201e+01 1.01415888e-12 2.53040334e-14 0.00000000e+00 9.88854848e-13 0.00000000e+00 2.53040334e-14
1.85896125e+01 1.01635232e-12 2.29244994e-14 0.00000000e+00 9.93427820e-13 0.00000000e+00 2.29244994e-14
1.92117518e+01 1.00210116e-12 2.07687314e-14 0.00000000e+00 9.81332426e-13 0.00000000e+00 2.07687314e-14
1.98547123e+01 9.83177557e-13 1.88156870e-14 0.00000000e+00 9.64361870e-13 0.00000000e+00 1.88156870e-14
2.05191907e+01 9.60177233e-13 1.70463024e-14 0.00000000e+00 9.43130930e-13 0.00000000e+00 1.70463024e-14
2.12059073e+01 9.39892913e-13 1.54433068e-14 0.00000000e+00 9.24449606e-13 0.00000000e+00 1.54433068e-14
2.19156062e+01 9.23148362e-13 1.39910532e-14 0.00000000e+00 9.09157309e-13 0.00000000e+00 1.39910532e-14
2.26490567e+01 9.05967399e-13 1.26753663e-14 0.00000000e+00 8.93292033e-13 0.00000000e+00 1.26753663e-14
2.34070535e+01 8.93233462e-13 1.14834036e-14 0.00000000e+00 8.81750058e-13 0.00000000e+00 1.14834036e-14
2.41904183e+01 8.78099917e-13 1.04035303e-14 0.00000000e+00 8.67696386e-13 0.00000000e+00 1.04035303e-14
2.50000000e+01 8.63669019e-13 9.42520591e-15 0.00000000e+00 8.54243813e-13 0.00000000e+00 9.42520591e-15
2.75422870e+01 8.20973421e-13 7.04872996e-15 0.00000000e+00 8.13924691e-13 0.00000000e+00 7.04872996e-15
3.16227766e+01 7.41440932e-13 4.65704970e-15 0.00000000e+00 7.36783883e-13 0.00000000e+00 4.65704970e-15
3.63078055e+01 6.39839071e-13 3.07688223e-15 0.00000000e+00 6.36762189e-13 0.00000000e+00 3.07688223e-15
4.16869383e+01 5.18886218e-13 2.03287593e-15 0.00000000e+00 5.16853342e-13 0.00000000e+00 2.03287593e-15
4.78630092e+01 3.91951495e-13 1.34310781e-15 0.00000000e+00 3.90608387e-13 0.00000000e+00 1.34310781e-15
5.49540874e+01 2.78019984e-13 8.87382527e-16 0.00000000e+00 2.77132601e-13 0.00000000e+00 8.87382527e-16
6.30957344e+01 1.86898312e-13 5.86287821e-16 0.00000000e+00 1.86312024e-13 0.00000000e+00 5.86287821e-16
7.24435960e+01 1.19675527e-13 3.87356522e-16 0.00000000e+00 1.19288170e-13 0.00000000e+00 3.87356522e-16
8.31763771e+01 7.37482265e-14 2.55923916e-16 0.00000000e+00 7.34923026e-14 0.00000000e+00 2.55923916e-16
9.54992586e+01 4.40433454e-14 1.69087255e-16 0.00000000e+00 4.38742582e-14 0.00000000e+00 1.69087255e-16
1.09647820e+02 2.56608664e-14 1.11714841e-16 0.00000000e+00 2.55491516e-14 0.00000000e+00 1.11714841e-16
1.25892541e+02 1.48177256e-14 7.38092637e-17 0.00000000e+00 1.47439163e-14 0.00000000e+00 7.38092637e-17
1.44543977e+02 8.44834673e-15 4.87652969e-17 0.00000000e+00 8.39958143e-15 0.00000000e+00 4.87652969e-17
1.65958691e+02 4.57277819e-15 3.22189122e-17 0.00000000e+00 4.54055928e-15 0.00000000e+00 3.22189122e-17
1.90546072e+02 2.46412848e-15 2.12868242e-17 0.00000000e+00 2.44284165e-15 0.00000000e+00 2.12868242e-17
2.18776162e+02 1.32001869e-15 1.40640653e-17 0.00000000e+00 1.30595463e-15 0.00000000e+00 1.40640653e-17
2.51188643e+02 7.02645702e-16 9.29203577e-18 0.00000000e+00 6.93353666e-16 0.00000000e+00 9.29203577e-18
2.88403150e+02 3.71395262e-16 6.13918715e-18 0.00000000e+00 3.65256075e-16 0.00000000e+00 6.13918715e-18
3.31131121e+02 1.95447530e-16 4.05612073e-18 0.00000000e+00 1.91391409e-16 0.00000000e+00 4.05612073e-18
3.80189396e+02 1.02365695e-16 2.67985239e-18 0.00000000e+00 9.96858426e-17 0.00000000e+00 2.67985239e-18
4.36515832e+02 5.34673228e-17 1.77056092e-18 0.00000000e+00 5.16967619e-17 0.00000000e+00 1.77056092e-18
5.01187234e+02 2.78652002e-17 1.16979800e-18 0.00000000e+00 2.66954022e-17 0.00000000e+00 1.16979800e-18
5.75439937e+02 1.45082960e-17 7.72877871e-19 0.00000000e+00 1.37354181e-17 0.00000000e+00 7.72877871e-19
6.60693448e+02 7.55640233e-18 5.10635346e-19 0.00000000e+00 7.04576698e-18 0.00000000e+00 5.10635346e-19
7.58577575e+02 3.94194646e-18 3.37373427e-19 0.00000000e+00 3.60457303e-18 0.00000000e+00 3.37373427e-19
8.70963590e+02 2.06231392e-18 2.22900413e-19 0.00000000e+00 1.83941351e-18 0.00000000e+00 2.22900413e-19
1.00000000e+03 9.36485021e-19 0.00000000e+00 0.00000000e+00 9.36485021e-19 0.00000000e+00 0.00000000e+00
