# column 1: lambda (micron)
# column 2: total flux; lambda*F_lambda (W/m2)
# column 3: direct stellar flux; lambda*F_lambda (W/m2)
# column 4: scattered stellar flux; lambda*F_lambda (W/m2)
# column 5: total dust emission flux; lambda*F_lambda (W/m2)
# column 6: dust emission scattered flux; lambda*F_lambda (W/m2)
# column 7: transparent flux; lambda*F_lambda (W/m2)
1.00000000e-03 6.91107419e-13 6.90792929e-13 3.14490157e-16 0.00000000e+00 0.00000000e+00 6.93993746e-13
1.14815362e-03 8.14152923e-13 8.14147514e-13 5.40919118e-18 0.00000000e+00 0.00000000e+00 8.19135139e-13
1.31825674e-03 9.59554754e-13 9.59363478e-13 1.91275838e-16 0.00000000e+00 0.00000000e+00 9.66842108e-13
1.51356125e-03 1.13082298e-12 1.13078393e-12 3.90500688e-17 0.00000000e+00 0.00000000e+00 1.14118369e-12
1.73780083e-03 1.33473214e-12 1.33456134e-12 1.70806019e-16 0.00000000e+00 0.00000000e+00 1.34696266e-12
1.99526231e-03 1.57052415e-12 1.57047011e-12 5.40408567e-17 0.00000000e+00 0.00000000e+00 1.58984782e-12
2.29086765e-03 1.85412971e-12 1.85228522e-12 1.84448373e-15 0.00000000e+00 0.00000000e+00 1.87653019e-12
2.63026799e-03 2.18244474e-12 2.18065825e-12 1.78649020e-15 0.00000000e+00 0.00000000e+00 2.21490731e-12
3.01995172e-03 2.56571491e-12 2.56439589e-12 1.31901753e-15 0.00000000e+00 0.00000000e+00 2.61430080e-12
3.46736850e-03 3.01722786e-12 3.01640406e-12 8.23794501e-16 0.00000000e+00 0.00000000e+00 3.08571319e-12
3.98107171e-03 3.55279050e-12 3.54864272e-12 4.14777597e-15 0.00000000e+00 0.00000000e+00 3.64213095e-12
4.57088190e-03 4.23007177e-12 4.22495817e-12 5.11359966e-15 0.00000000e+00 0.00000000e+00 4.29888232e-12
5.24807460e-03 4.96904659e-12 4.96288193e-12 6.16465484e-15 0.00000000e+00 0.00000000e+00 5.07405951e-12
6.02559586e-03 5.83831438e-12 5.83115131e-12 7.16306933e-15 0.00000000e+00 0.00000000e+00 5.98901715e-12
6.91830971e-03 6.87184958e-12 6.85434841e-12 1.75011727e-14 0.00000000e+00 0.00000000e+00 7.06896053e-12
7.94328235e-03 8.12654770e-12 8.06153121e-12 6.50164838e-14 1.20814660e-304 6.44538758e-306 8.34363998e-12
9.12010839e-03 9.62002645e-12 9.47935690e-12 1.40669549e-13 1.08369415e-265 4.47990577e-267 9.84817045e-12
1.04712855e-02 1.06286509e-11 1.05613712e-11 6.72797202e-14 8.96594563e-232 6.99598931e-233 1.09990604e-11
1.20226443e-02 1.06343929e-11 1.05360909e-11 9.83020236e-14 2.40214425e-202 1.51868699e-203 1.09990604e-11
1.38038426e-02 1.06059024e-11 1.05061840e-11 9.97184053e-14 1.05525144e-176 6.46688035e-178 1.09990604e-11
1.58489319e-02 1.05991419e-11 1.04695471e-11 1.29594795e-13 2.11908295e-154 9.01651947e-156 1.09990604e-11
1.81970086e-02 1.05779372e-11 1.04358693e-11 1.42067950e-13 5.45687189e-135 2.58603180e-136 1.09990604e-11
2.08929613e-02 1.05526148e-11 1.04079583e-11 1.44656479e-13 3.91027175e-118 1.90711826e-119 1.09990604e-11
2.39883292e-02 1.05377113e-11 1.03719060e-11 1.65805310e-13 1.80416103e-103 9.50467026e-105 1.09990604e-11
2.75422870e-02 1.04941172e-11 1.03301280e-11 1.63989186e-13 1.02496923e-90 5.37825179e-92 1.09990604e-11
3.16227766e-02 1.04615400e-11 1.02893398e-11 1.72200162e-13 1.22908510e-79 6.83625195e-81 1.09990604e-11
3.63078055e-02 1.04239407e-11 1.02574603e-11 1.66480383e-13 5.10435855e-70 2.78133347e-71 1.09990604e-11
4.16869383e-02 1.04231479e-11 1.02299666e-11 1.93181314e-13 1.13640062e-61 7.12923991e-63 1.09990604e-11
4.78630092e-02 1.03609981e-11 1.01545619e-11 2.06436223e-13 1.95858878e-54 1.27823881e-55 1.09990604e-11
5.49540874e-02 1.02759971e-11 1.00506203e-11 2.25376803e-13 3.64219448e-48 2.63359076e-49 1.09990604e-11
6.30957344e-02 1.00462899e-11 9.79464141e-12 2.51648448e-13 1.27948565e-42 9.95969328e-44 1.09990604e-11
7.24435960e-02 9.74665739e-12 9.49985285e-12 2.46804534e-13 7.92541538e-38 5.95922319e-39 1.09990604e-11
8.31763771e-02 9.76609556e-12 9.52572110e-12 2.40374463e-13 8.79253169e-34 6.48149987e-35 1.09990604e-11
9.54992586e-02 9.83903575e-12 9.60199823e-12 2.37037514e-13 2.66644543e-30 1.98903426e-31 1.09990604e-11
1.09647820e-01 9.61264631e-12 9.38310405e-12 2.29542259e-13 2.44451412e-27 1.85361820e-28 1.05040253e-11
1.25892541e-01 9.14148309e-12 8.93333557e-12 2.08147521e-13 8.50024437e-25 6.48395731e-26 9.80292679e-12
1.44543977e-01 8.64566265e-12 8.47067621e-12 1.74986447e-13 1.23026097e-22 9.07384764e-24 9.14862359e-12
1.65958691e-01 8.14880884e-12 7.98202058e-12 1.66788262e-13 6.55056914e-21 5.17887891e-22 8.53799231e-12
1.90546072e-01 7.59898577e-12 7.41579926e-12 1.83186360e-13 1.42341269e-19 1.27762212e-20 7.96811805e-12
2.18776162e-01 7.00902262e-12 6.83533525e-12 1.73685659e-13 1.70839027e-18 1.55025420e-19 7.43628044e-12
2.51188643e-01 6.67108359e-12 6.48766675e-12 1.83395177e-13 2.16724634e-17 2.31794643e-18 6.93994070e-12
2.88403150e-01 6.28635061e-12 6.12430695e-12 1.61856132e-13 1.87528172e-16 2.02122814e-17 6.47672950e-12
3.31131121e-01 5.90183741e-12 5.75670471e-12 1.44023730e-13 1.10896378e-15 1.20172166e-16 6.04443567e-12
3.80189396e-01 5.53547921e-12 5.40449221e-12 1.26224217e-13 4.76277923e-15 5.16134567e-16 5.64099558e-12
4.36515832e-01 5.20027123e-12 5.07185882e-12 1.12958204e-13 1.54542093e-14 1.71684915e-15 5.26448339e-12
5.01187234e-01 4.89978110e-12 4.75835896e-12 1.01810886e-13 3.96112595e-14 4.47254683e-15 4.91310176e-12
5.75439937e-01 4.63623968e-12 4.46217190e-12 9.08582019e-14 8.32095773e-14 9.55721514e-15 4.58517335e-12
6.60693448e-01 4.41467728e-12 4.18223206e-12 8.37765036e-14 1.48668720e-13 1.74522555e-14 4.27913275e-12
7.58577575e-01 4.22758949e-12 3.91812450e-12 7.36494730e-14 2.35815512e-13 2.80320632e-14 3.99351904e-12
8.70963590e-01 4.07199742e-12 3.66961510e-12 6.38539870e-14 3.38528332e-13 4.01001352e-14 3.72696882e-12
1.00000000e+00 3.93460392e-12 3.43529417e-12 5.31327121e-14 4.46177033e-13 5.25520621e-14 3.47820968e-12
1.14815362e+00 3.82579379e-12 3.21451951e-12 4.41362164e-14 5.67138072e-13 6.46122624e-14 3.24605414e-12
1.31825674e+00 3.75262696e-12 3.00662956e-12 3.47712955e-14 7.11226103e-13 7.67961392e-14 3.02939399e-12
1.51356125e+00 3.72405762e-12 2.81093117e-12 2.67007388e-14 8.86425712e-13 8.67485160e-14 2.82719497e-12
1.73780083e+00 3.73701011e-12 2.62706325e-12 1.97323262e-14 1.09021453e-12 9.14401055e-14 2.63849186e-12
1.99526231e+00 3.77634201e-12 2.45448013e-12 1.34928471e-14 1.30836903e-12 8.72704900e-14 2.46238388e-12
2.29086765e+00 3.80531789e-12 2.29258204e-12 9.04662138e-15 1.50368923e-12 7.68736367e-14 2.29803035e-12
2.63026799e+00 3.78721752e-12 2.14085625e-12 6.15797102e-15 1.64020330e-12 6.28281466e-14 2.14464670e-12
3.01995172e+00 3.70743563e-12 1.99883000e-12 4.43035828e-15 1.70417527e-12 5.03299642e-14 2.00150076e-12
3.46736850e+00 3.56798740e-12 1.86599677e-12 2.98460468e-15 1.69900602e-12 3.90875174e-14 1.86790919e-12
3.98107171e+00 3.39284050e-12 1.74184744e-12 2.13125772e-15 1.64886180e-12 3.05132578e-14 1.74323429e-12
4.57088190e+00 3.19637259e-12 1.62586149e-12 1.46750140e-15 1.56904360e-12 2.30387934e-14 1.62688090e-12
5.24807460e+00 2.82861435e-12 1.34450398e-12 8.49558268e-16 1.48326080e-12 1.62301019e-14 1.34518114e-12
6.02559586e+00 2.29398859e-12 8.88380569e-13 3.84131582e-16 1.40522389e-12 1.10155289e-14 8.88752369e-13
6.70000000e+00 1.98980434e-12 6.46242502e-13 1.98585331e-16 1.34336325e-12 7.76065873e-15 6.46481889e-13
6.92422916e+00 1.90894732e-12 5.85478922e-13 1.59620447e-16 1.32330878e-12 6.83322205e-15 5.85688198e-13
7.15596261e+00 1.83924025e-12 5.30425122e-13 1.26539729e-16 1.30868858e-12 6.02409946e-15 5.30611407e-13
7.39545150e+00 1.79584915e-12 4.80541117e-13 9.61811202e-17 1.31521185e-12 5.14322956e-15 4.80713913e-13
7.64295536e+00 1.81444816e-12 4.35330305e-13 6.76322889e-17 1.37905022e-12 4.14181138e-15 4.35508666e-13
7.89874245e+00 1.91640634e-12 3.94345655e-13 4.02313459e-17 1.52202046e-12 3.09453797e-15 3.94554418e-13
8.16308998e+00 2.09472698e-12 3.57196058e-13 2.22901305e-17 1.73750863e-12 2.26629727e-15 3.57451415e-13
8.43628443e+00 2.35052207e-12 3.23516129e-13 1.21217267e-17 2.02699382e-12 1.61002257e-15 3.23837494e-13
8.71862190e+00 2.52492579e-12 2.93026851e-13 7.88734766e-18 2.23189106e-12 1.24470061e-15 2.93384550e-13
9.01040836e+00 2.67459541e-12 2.65402809e-13 5.40751781e-18 2.40918720e-12 9.49471467e-16 2.65795332e-13
9.31196005e+00 2.78840940e-12 2.40388140e-13 0.00000000e+00 2.54802126e-12 0.00000000e+00 2.40800541e-13
9.62360379e+00 2.74443190e-12 2.17772750e-13 0.00000000e+00 2.52665915e-12 0.00000000e+00 2.18156204e-13
9.94567731e+00 2.55053257e-12 1.97315310e-13 0.00000000e+00 2.35321726e-12 0.00000000e+00 1.97641289e-13
1.02785297e+01 2.37507954e-12 1.78788363e-13 0.00000000e+00 2.19629118e-12 0.00000000e+00 1.79055550e-13
1.06225216e+01 2.16965031e-12 1.62000920e-13 0.00000000e+00 2.00764939e-12 0.00000000e+00 1.62217572e-13
1.09780260e+01 1.97360340e-12 1.46793657e-13 0.00000000e+00 1.82680974e-12 0.00000000e+00 1.46962999e-13
1.13454280e+01 1.80293039e-12 1.33010041e-13 0.00000000e+00 1.66992035e-12 0.00000000e+00 1.33142932e-13
1.17251259e+01 1.65973068e-12 1.20517516e-13 0.00000000e+00 1.53921317e-12 0.00000000e+00 1.20622472e-13
1.21175312e+01 1.53089052e-12 1.09196941e-13 0.00000000e+00 1.42169358e-12 0.00000000e+00 1.09279408e-13
1.25230691e+01 1.42601070e-12 9.89384003e-14 0.00000000e+00 1.32707230e-12 0.00000000e+00 9.90030204e-14
1.29421791e+01 1.31794038e-12 8.96420116e-14 0.00000000e+00 1.22829837e-12 0.00000000e+00 8.96930008e-14
1.33753155e+01 1.23368327e-12 8.12179534e-14 0.00000000e+00 1.15246532e-12 0.00000000e+00 8.12584743e-14
1.38229477e+01 1.17004857e-12 7.35834242e-14 0.00000000e+00 1.09646515e-12 0.00000000e+00 7.36171115e-14
1.42855609e+01 1.13087144e-12 6.66650464e-14 0.00000000e+00 1.06420639e-12 0.00000000e+00 6.66943252e-14
1.47636563e+01 1.11813290e-12 6.03947544e-14 0.00000000e+00 1.05773815e-12 0.00000000e+00 6.04225420e-14
1.52577522e+01 1.12393250e-12 5.47136943e-14 0.00000000e+00 1.06921881e-12 0.00000000e+00 5.47405431e-14
1.57683840e+01 1.13418036e-12 4.95665920e-14 0.00000000e+00 1.08461377e-12 0.00000000e+00 4.95928665e-14
1.62961051e+01 1.13691231e-12 4.49035843e-14 0.00000000e+00 1.09200873e-12 0.00000000e+00 4.49292657e-14
1.68414875e+01 1.13765434e-12 4.06791739e-14 0.00000000e+00 1.09697517e-12 0.00000000e+00 4.07042194e-14
1.74051222e+01 1.13574293e-12 3.68527033e-14 0.00000000e+00 1.09889023e-12 0.00000000e+00 3.68764869e-14
1.79876201e+01 1.12008278e-12 3.33864994e-14 0.00000000e+00 1.08669628e-12 0.00000000e+00 3.34087056e-14
1.85896125e+01 1.09772356e-12 3.02469345e-14 0.00000000e+00 1.06747663e-12 0.00000000e+00 3.02670267e-14
1.92117518e+01 1.05961994e-12 2.74031356e-14 0.00000000e+00 1.03221681e-12 0.00000000e+00 2.74207841e-14
1.98547123e+01 1.02176646e-12 2.48269961e-14 0.00000000e+00 9.96939465e-13 0.00000000e+00 2.48421957e-14
2.05191907e+01 9.77622553e-13 2.24931335e-14 0.00000000e+00 9.55129420e-13 0.00000000e+00 2.25060919e-14
2.12059073e+01 9.36874868e-13 2.03786240e-14 0.00000000e+00 9.16496244e-13 0.00000000e+00 2.03896700e-14
2.19156062e+01 8.98226964e-13 1.84628099e-14 0.00000000e+00 8.79764154e-13 0.00000000e+00 1.84722717e-14
2.26490567e+01 8.57633464e-13 1.67270635e-14 0.00000000e+00 8.40906401e-13 0.00000000e+00 1.67351811e-14
2.34070535e+01 8.24907945e-13 1.51544653e-14 0.00000000e+00 8.09753480e-13 0.00000000e+00 1.51614426e-14
2.41904183e+01 7.86255439e-13 1.37296825e-14 0.00000000e+00 7.72525757e-13 0.00000000e+00 1.37356949e-14
2.50000000e+01 7.51372908e-13 1.24388293e-14 0.00000000e+00 7.38934079e-13 0.00000000e+00 1.24440213e-14
2.75422870e+01 6.53586823e-13 9.30299373e-15 0.00000000e+00 6.44283830e-13 0.00000000e+00 9.30637977e-15
3.16227766e+01 5.16887830e-13 6.14680375e-15 0.00000000e+00 5.10741026e-13 0.00000000e+00 6.14866414e-15
3.63078055e+01 3.88131745e-13 4.06136534e-15 0.00000000e+00 3.84070380e-13 0.00000000e+00 4.06238211e-15
4.16869383e+01 2.73456747e-13 2.68344826e-15 0.00000000e+00 2.70773298e-13 0.00000000e+00 2.68398924e-15
4.78630092e+01 1.80524503e-13 1.77301521e-15 0.00000000e+00 1.78751488e-13 0.00000000e+00 1.77329411e-15
5.49540874e+01 1.13038634e-13 1.17146307e-15 0.00000000e+00 1.11867171e-13 0.00000000e+00 1.17160380e-15
6.30957344e+01 6.78474021e-14 7.74000852e-16 0.00000000e+00 6.70734013e-14 0.00000000e+00 7.74070953e-16
7.24435960e+01 3.93214942e-14 5.11388936e-16 0.00000000e+00 3.88101052e-14 0.00000000e+00 5.11423607e-16
8.31763771e+01 2.22471985e-14 3.37877106e-16 0.00000000e+00 2.19093213e-14 0.00000000e+00 3.37894226e-16
9.54992586e+01 1.23810914e-14 2.23236028e-16 0.00000000e+00 1.21578553e-14 0.00000000e+00 2.23244502e-16
1.09647820e+02 6.80253910e-15 1.47491971e-16 0.00000000e+00 6.65504713e-15 0.00000000e+00 1.47496179e-16
1.25892541e+02 3.74731557e-15 9.74476378e-17 0.00000000e+00 3.64986793e-15 0.00000000e+00 9.74497594e-17
1.44543977e+02 2.05747260e-15 6.43833402e-17 0.00000000e+00 1.99308926e-15 0.00000000e+00 6.43844175e-17
1.65958691e+02 1.07909950e-15 4.25378345e-17 0.00000000e+00 1.03656167e-15 0.00000000e+00 4.25383628e-17
1.90546072e+02 5.68300560e-16 2.81045560e-17 0.00000000e+00 5.40196004e-16 0.00000000e+00 2.81048176e-17
2.18776162e+02 2.99812715e-16 1.85685385e-17 0.00000000e+00 2.81244177e-16 0.00000000e+00 1.85686688e-17
2.51188643e+02 1.58285659e-16 1.22681327e-17 0.00000000e+00 1.46017527e-16 0.00000000e+00 1.22681978e-17
2.88403150e+02 8.35955483e-17 8.10548536e-18 0.00000000e+00 7.54900630e-17 0.00000000e+00 8.10551794e-18
3.31131121e+02 4.42859621e-17 5.35524626e-18 0.00000000e+00 3.89307158e-17 0.00000000e+00 5.35526259e-18
3.80189396e+02 2.35441486e-17 3.53817872e-18 0.00000000e+00 2.00059699e-17 0.00000000e+00 3.53818691e-18
4.36515832e+02 1.25947006e-17 2.33765280e-18 0.00000000e+00 1.02570478e-17 0.00000000e+00 2.33765691e-18
5.01187234e+02 6.78946555e-18 1.54447254e-18 0.00000000e+00 5.24499301e-18 0.00000000e+00 1.54447460e-18
5.75439937e+02 3.69679842e-18 1.02042321e-18 0.00000000e+00 2.67637521e-18 0.00000000e+00 1.02042425e-18
6.60693448e+02 2.03732042e-18 6.74187096e-19 0.00000000e+00 1.36313332e-18 0.00000000e+00 6.74187617e-19
7.58577575e+02 1.13857395e-18 4.45431079e-19 0.00000000e+00 6.93142873e-19 0.00000000e+00 4.45431341e-19
8.70963590e+02 6.46161807e-19 2.94293437e-19 0.00000000e+00 3.51868370e-19 0.00000000e+00 2.94293569e-19
1.00000000e+03 1.78340956e-19 0.00000000e+00 0.00000000e+00 1.78340956e-19 0.00000000e+00 0.00000000e+00
