# column 1: lambda (micron)
# column 2: total flux; lambda*F_lambda (W/m2)
# column 3: direct stellar flux; lambda*F_lambda (W/m2)
# column 4: scattered stellar flux; lambda*F_lambda (W/m2)
# column 5: total dust emission flux; lambda*F_lambda (W/m2)
# column 6: dust emission scattered flux; lambda*F_lambda (W/m2)
# column 7: transparent flux; lambda*F_lambda (W/m2)
1.00000000e-03 1.04635802e-12 1.04634360e-12 1.44123142e-17 0.00000000e+00 0.00000000e+00 1.04634360e-12
1.14815362e-03 1.23508028e-12 1.23502095e-12 5.93357588e-17 0.00000000e+00 0.00000000e+00 1.23502095e-12
1.31825674e-03 1.45783880e-12 1.45772071e-12 1.18091967e-16 0.00000000e+00 0.00000000e+00 1.45772071e-12
1.51356125e-03 1.72067229e-12 1.72057784e-12 9.44514383e-17 0.00000000e+00 0.00000000e+00 1.72057784e-12
1.73780083e-03 2.03098728e-12 2.03083353e-12 1.53758089e-16 0.00000000e+00 0.00000000e+00 2.03083353e-12
1.99526231e-03 2.39726837e-12 2.39703472e-12 2.33656504e-16 0.00000000e+00 0.00000000e+00 2.39703472e-12
2.29086765e-03 2.83017180e-12 2.82926954e-12 9.02256966e-16 0.00000000e+00 0.00000000e+00 2.82926954e-12
2.63026799e-03 3.46809715e-12 3.33944522e-12 1.28651928e-13 0.00000000e+00 0.00000000e+00 3.33944522e-12
3.01995172e-03 3.94395299e-12 3.94161611e-12 2.33687837e-15 0.00000000e+00 0.00000000e+00 3.94161611e-12
3.46736850e-03 4.65550956e-12 4.65237083e-12 3.13872827e-15 0.00000000e+00 0.00000000e+00 4.65237083e-12
3.98107171e-03 5.57335310e-12 5.49128930e-12 8.20637989e-14 0.00000000e+00 0.00000000e+00 5.49128930e-12
4.57088190e-03 6.49171164e-12 6.48148207e-12 1.02295642e-14 0.00000000e+00 0.00000000e+00 6.48148207e-12
5.24807460e-03 7.68245992e-12 7.65022704e-12 3.22328843e-14 0.00000000e+00 0.00000000e+00 7.65022704e-12
6.02559586e-03 9.18796928e-12 9.02972084e-12 1.58248435e-13 0.00000000e+00 0.00000000e+00 9.02972084e-12
6.91830971e-03 1.12380933e-11 1.06579658e-11 5.80127421e-13 0.00000000e+00 0.00000000e+00 1.06579658e-11
7.94328235e-03 1.26918012e-11 1.25798170e-11 1.11984218e-13 0.00000000e+00 0.00000000e+00 1.25798170e-11
9.12010839e-03 1.51306642e-11 1.48482176e-11 2.82446602e-13 0.00000000e+00 0.00000000e+00 1.48482176e-11
1.04712855e-02 1.67518273e-11 1.65834298e-11 1.68397478e-13 0.00000000e+00 0.00000000e+00 1.65834298e-11
1.20226443e-02 1.68635867e-11 1.65834298e-11 2.80156948e-13 7.39170156e-312 4.75381253e-312 1.65834298e-11
1.38038426e-02 1.70145096e-11 1.65834298e-11 4.31079864e-13 1.73730605e-272 1.13137791e-272 1.65834298e-11
1.58489319e-02 1.70338522e-11 1.65834298e-11 4.50422387e-13 3.73884247e-238 2.69636266e-238 1.65834298e-11
1.81970086e-02 1.69924157e-11 1.65834298e-11 4.08985937e-13 2.49705176e-208 1.85249929e-208 1.65834298e-11
2.08929613e-02 1.70521270e-11 1.65834298e-11 4.68697219e-13 1.90083350e-182 1.38647329e-182 1.65834298e-11
2.39883292e-02 1.70827397e-11 1.65834298e-11 4.99309921e-13 6.14660627e-160 4.45593032e-160 1.65834298e-11
2.75422870e-02 1.71271245e-11 1.65834298e-11 5.43694734e-13 2.30605249e-140 1.67114440e-140 1.65834298e-11
3.16227766e-02 1.71260957e-11 1.65834298e-11 5.42665923e-13 2.40204661e-123 1.75515378e-123 1.65834298e-11
3.63078055e-02 1.71241071e-11 1.65834298e-11 5.40677279e-13 1.39847261e-108 9.99164476e-109 1.65834298e-11
4.16869383e-02 1.71667908e-11 1.65834298e-11 5.83360982e-13 1.11085826e-95 8.24124271e-96 1.65834298e-11
4.78630092e-02 1.71877473e-11 1.65834298e-11 6.04317514e-13 1.41888046e-84 1.09003671e-84 1.65834298e-11
5.49540874e-02 1.71648966e-11 1.65834298e-11 5.81466829e-13 5.63087368e-75 4.34994047e-75 1.65834298e-11
6.30957344e-02 1.71062664e-11 1.65834298e-11 5.22836586e-13 1.51232247e-66 1.05671512e-66 1.65834298e-11
7.24435960e-02 1.70077607e-11 1.65834298e-11 4.24330879e-13 5.10430576e-59 2.29039237e-59 1.65834298e-11
8.31763771e-02 1.69889857e-11 1.65834298e-11 4.05555876e-13 2.33162635e-52 6.39551043e-53 1.65834298e-11
9.54992586e-02 1.69854556e-11 1.65834298e-11 4.02025826e-13 1.64287252e-46 3.34428269e-47 1.65834298e-11
1.09647820e-01 1.62854847e-11 1.58370587e-11 4.48426020e-13 1.94504911e-41 3.67085858e-42 1.58370587e-11
1.25892541e-01 1.52557882e-11 1.47800032e-11 4.75785042e-13 4.71419029e-37 8.37966149e-38 1.47800032e-11
1.44543977e-01 1.42406828e-11 1.37935015e-11 4.47181273e-13 2.81375673e-33 4.72979691e-34 1.37935015e-11
1.65958691e-01 1.33275443e-11 1.28728446e-11 4.54699653e-13 3.88175963e-30 6.98104878e-31 1.28728446e-11
1.90546072e-01 1.24650091e-11 1.20136376e-11 4.51371512e-13 1.42164467e-27 2.82179359e-28 1.20136376e-11
2.18776162e-01 1.15829242e-11 1.12117790e-11 3.71145242e-13 1.98967299e-25 4.00016339e-26 1.12117790e-11
2.51188643e-01 1.08969290e-11 1.04634409e-11 4.33488110e-13 2.43401260e-23 5.96514931e-24 1.04634409e-11
2.88403150e-01 1.01833414e-11 9.76505125e-12 4.18290181e-13 1.52274145e-21 3.89415374e-22 9.76505125e-12
3.31131121e-01 9.52085770e-12 9.11327608e-12 4.07581566e-13 5.19349848e-20 1.36179852e-20 9.11327608e-12
3.80189396e-01 8.89252316e-12 8.50500410e-12 3.87517987e-13 1.07727817e-18 2.95097602e-19 8.50500410e-12
4.36515832e-01 8.29641141e-12 7.93733165e-12 3.59065245e-13 1.45098595e-17 4.15921278e-18 7.93733165e-12
5.01187234e-01 7.74622672e-12 7.40754890e-12 3.38542284e-13 1.35536740e-16 4.06874744e-17 7.40754890e-12
5.75439937e-01 7.22093152e-12 6.91312687e-12 3.06886350e-13 9.18304703e-16 2.83999603e-16 6.91312687e-12
6.60693448e-01 6.74080299e-12 6.45170538e-12 2.84391434e-13 4.70616973e-15 1.48657153e-15 6.45170538e-12
7.58577575e-01 6.30093066e-12 6.02108180e-12 2.60611351e-13 1.92375106e-14 6.16691683e-15 6.02108180e-12
8.70963590e-01 5.91188890e-12 5.61920048e-12 2.28086094e-13 6.46023290e-14 2.03980727e-14 5.61920048e-12
1.00000000e+00 5.62045729e-12 5.24414302e-12 1.96546915e-13 1.79767360e-13 5.43900524e-14 5.24414302e-12
1.14815362e+00 5.50437557e-12 4.89411902e-12 1.63991739e-13 4.46264806e-13 1.25323712e-13 4.89411902e-12
1.31825674e+00 5.68459109e-12 4.56745763e-12 1.28507544e-13 9.88625920e-13 2.44590196e-13 4.56745763e-12
1.51356125e+00 6.30977942e-12 4.26259947e-12 1.03495502e-13 1.94368444e-12 4.12904393e-13 4.26259947e-12
1.73780083e+00 7.49261518e-12 3.97808929e-12 8.04348668e-14 3.43409102e-12 6.16015305e-13 3.97808929e-12
1.99526231e+00 9.18100119e-12 3.71256894e-12 6.10856156e-14 5.40734664e-12 7.74903246e-13 3.71256894e-12
2.29086765e+00 1.12336969e-11 3.46477093e-12 4.60005084e-14 7.72292543e-12 8.57193988e-13 3.46477093e-12
2.63026799e+00 1.33753423e-11 3.23351237e-12 3.45309020e-14 1.01072990e-11 8.73996565e-13 3.23351237e-12
3.01995172e+00 1.55078465e-11 3.01768933e-12 2.55670276e-14 1.24645902e-11 8.29443303e-13 3.01768933e-12
3.46736850e+00 1.72529677e-11 2.81627154e-12 1.88473869e-14 1.44178488e-11 7.55046961e-13 2.81627154e-12
3.98107171e+00 1.87788100e-11 2.62829753e-12 1.36798627e-14 1.61368326e-11 6.55353040e-13 2.62829753e-12
4.57088190e+00 1.98450035e-11 2.45286997e-12 9.65869253e-15 1.73824749e-11 5.32129010e-13 2.45286997e-12
5.24807460e+00 2.02991210e-11 2.02814751e-12 5.77822463e-15 1.82651952e-11 3.91102268e-13 2.02814751e-12
6.02559586e+00 1.99362868e-11 1.33998377e-12 2.66623055e-15 1.85936368e-11 2.66888271e-13 1.33998377e-12
6.70000000e+00 1.94310488e-11 9.74709347e-13 1.39896686e-15 1.84549405e-11 1.86619115e-13 9.74709347e-13
6.92422916e+00 1.93396420e-11 8.83049889e-13 1.13864439e-15 1.84554535e-11 1.65498642e-13 8.83049889e-13
7.15596261e+00 1.91091381e-11 8.00009879e-13 9.08311906e-16 1.83082199e-11 1.44449291e-13 8.00009879e-13
7.39545150e+00 1.91957717e-11 7.24778763e-13 6.93128110e-16 1.84702998e-11 1.22555518e-13 7.24778763e-13
7.64295536e+00 1.94767374e-11 6.56622211e-13 4.69631450e-16 1.88196456e-11 9.81312658e-14 6.56622211e-13
7.89874245e+00 2.02679252e-11 5.94874946e-13 2.69844757e-16 1.96727804e-11 7.19778487e-14 5.94874946e-13
8.16308998e+00 2.09483474e-11 5.38934254e-13 1.46013396e-16 2.04092671e-11 5.03248403e-14 5.38934254e-13
8.43628443e+00 2.14599649e-11 4.88254098e-13 7.59532397e-17 2.09716349e-11 3.35477828e-14 4.88254098e-13
8.71862190e+00 2.16609736e-11 4.42339790e-13 4.70596056e-17 2.12185868e-11 2.48082208e-14 4.42339790e-13
9.01040836e+00 2.19192716e-11 4.00743158e-13 2.90569340e-17 2.15184994e-11 1.84052334e-14 4.00743158e-13
9.31196005e+00 2.18996945e-11 3.63058180e-13 0.00000000e+00 2.15366363e-11 0.00000000e+00 3.63058180e-13
9.62360379e+00 2.19593170e-11 3.28917012e-13 0.00000000e+00 2.16304000e-11 0.00000000e+00 3.28917012e-13
9.94567731e+00 2.15729426e-11 2.97986401e-13 0.00000000e+00 2.12749562e-11 0.00000000e+00 2.97986401e-13
1.02785297e+01 2.11104784e-11 2.69964435e-13 0.00000000e+00 2.08405140e-11 0.00000000e+00 2.69964435e-13
1.06225216e+01 2.07987874e-11 2.44577592e-13 0.00000000e+00 2.05542098e-11 0.00000000e+00 2.44577592e-13
1.09780260e+01 2.05319461e-11 2.21578069e-13 0.00000000e+00 2.03103680e-11 0.00000000e+00 2.21578069e-13
1.13454280e+01 2.02843544e-11 2.00741370e-13 0.00000000e+00 2.00836131e-11 0.00000000e+00 2.00741370e-13
1.17251259e+01 1.99115779e-11 1.81864106e-13 0.00000000e+00 1.97297138e-11 0.00000000e+00 1.81864106e-13
1.21175312e+01 1.94936451e-11 1.64762018e-13 0.00000000e+00 1.93288831e-11 0.00000000e+00 1.64762018e-13
1.25230691e+01 1.90763460e-11 1.49268171e-13 0.00000000e+00 1.89270779e-11 0.00000000e+00 1.49268171e-13
1.29421791e+01 1.85445803e-11 1.35231331e-13 0.00000000e+00 1.84093490e-11 0.00000000e+00 1.35231331e-13
1.33753155e+01 1.80137141e-11 1.22514483e-13 0.00000000e+00 1.78911996e-11 0.00000000e+00 1.22514483e-13
1.38229477e+01 1.74914589e-11 1.10993499e-13 0.00000000e+00 1.73804654e-11 0.00000000e+00 1.10993499e-13
1.42855609e+01 1.72338604e-11 1.00555922e-13 0.00000000e+00 1.71333045e-11 0.00000000e+00 1.00555922e-13
1.47636563e+01 1.73008780e-11 9.10998706e-14 0.00000000e+00 1.72097782e-11 0.00000000e+00 9.10998706e-14
1.52577522e+01 1.74597704e-11 8.25330452e-14 0.00000000e+00 1.73772374e-11 0.00000000e+00 8.25330452e-14
1.57683840e+01 1.76915563e-11 7.47718247e-14 0.00000000e+00 1.76167845e-11 0.00000000e+00 7.47718247e-14
1.62961051e+01 1.78832621e-11 6.77404517e-14 0.00000000e+00 1.78155217e-11 0.00000000e+00 6.77404517e-14
1.68414875e+01 1.80580464e-11 6.13702932e-14 0.00000000e+00 1.79966761e-11 0.00000000e+00 6.13702932e-14
1.74051222e+01 1.81964996e-11 5.55991699e-14 0.00000000e+00 1.81409004e-11 0.00000000e+00 5.55991699e-14
1.79876201e+01 1.81792231e-11 5.03707500e-14 0.00000000e+00 1.81288523e-11 0.00000000e+00 5.03707500e-14
1.85896125e+01 1.80985814e-11 4.56339988e-14 0.00000000e+00 1.80529474e-11 0.00000000e+00 4.56339988e-14
1.92117518e+01 1.77613916e-11 4.13426810e-14 0.00000000e+00 1.77200490e-11 0.00000000e+00 4.13426810e-14
1.98547123e+01 1.74636426e-11 3.74549090e-14 0.00000000e+00 1.74261877e-11 0.00000000e+00 3.74549090e-14
2.05191907e+01 1.69657444e-11 3.39327342e-14 0.00000000e+00 1.69318117e-11 0.00000000e+00 3.39327342e-14
2.12059073e+01 1.65451583e-11 3.07417768e-14 0.00000000e+00 1.65144165e-11 0.00000000e+00 3.07417768e-14
2.19156062e+01 1.59583674e-11 2.78508898e-14 0.00000000e+00 1.59305166e-11 0.00000000e+00 2.78508898e-14
2.26490567e+01 1.54562482e-11 2.52318552e-14 0.00000000e+00 1.54310164e-11 0.00000000e+00 2.52318552e-14
2.34070535e+01 1.48563308e-11 2.28591087e-14 0.00000000e+00 1.48334717e-11 0.00000000e+00 2.28591087e-14
2.41904183e+01 1.43636971e-11 2.07094900e-14 0.00000000e+00 1.43429876e-11 0.00000000e+00 2.07094900e-14
2.50000000e+01 1.37757815e-11 1.87620165e-14 0.00000000e+00 1.37570195e-11 0.00000000e+00 1.87620165e-14
2.75422870e+01 1.21710112e-11 1.40313526e-14 0.00000000e+00 1.21569798e-11 0.00000000e+00 1.40313526e-14
3.16227766e+01 9.67335721e-12 9.27042274e-15 0.00000000e+00 9.66408679e-12 0.00000000e+00 9.27042274e-15
3.63078055e+01 7.28208497e-12 6.12490756e-15 0.00000000e+00 7.27596006e-12 0.00000000e+00 6.12490756e-15
4.16869383e+01 5.13971698e-12 4.04668630e-15 0.00000000e+00 5.13567030e-12 0.00000000e+00 4.04668630e-15
4.78630092e+01 3.38169921e-12 2.67361912e-15 0.00000000e+00 3.37902559e-12 0.00000000e+00 2.67361912e-15
5.49540874e+01 2.10549406e-12 1.76644264e-15 0.00000000e+00 2.10372761e-12 0.00000000e+00 1.76644264e-15
6.30957344e+01 1.25183451e-12 1.16707708e-15 0.00000000e+00 1.25066744e-12 0.00000000e+00 1.16707708e-15
7.24435960e+01 7.19018050e-13 7.71080178e-16 0.00000000e+00 7.18246970e-13 0.00000000e+00 7.71080178e-16
8.31763771e+01 4.02721290e-13 5.09447621e-16 0.00000000e+00 4.02211842e-13 0.00000000e+00 5.09447621e-16
9.54992586e+01 2.21400075e-13 3.36588705e-16 0.00000000e+00 2.21063486e-13 0.00000000e+00 3.36588705e-16
1.09647820e+02 1.20258837e-13 2.22381952e-16 0.00000000e+00 1.20036455e-13 0.00000000e+00 2.22381952e-16
1.25892541e+02 6.54095290e-14 1.46926299e-16 0.00000000e+00 6.52626027e-14 0.00000000e+00 1.46926299e-16
1.44543977e+02 3.54506409e-14 9.70732430e-17 0.00000000e+00 3.53535677e-14 0.00000000e+00 9.70732430e-17
1.65958691e+02 1.83547252e-14 6.41356556e-17 0.00000000e+00 1.82905895e-14 0.00000000e+00 6.41356556e-17
1.90546072e+02 9.52482756e-15 4.23740075e-17 0.00000000e+00 9.48245356e-15 0.00000000e+00 4.23740075e-17
2.18776162e+02 4.94221122e-15 2.79962291e-17 0.00000000e+00 4.91421499e-15 0.00000000e+00 2.79962291e-17
2.51188643e+02 2.55899634e-15 1.84969251e-17 0.00000000e+00 2.54049942e-15 0.00000000e+00 1.84969251e-17
2.88403150e+02 1.32071114e-15 1.22207972e-17 0.00000000e+00 1.30849034e-15 0.00000000e+00 1.22207972e-17
3.31131121e+02 6.80658369e-16 8.07420067e-18 0.00000000e+00 6.72584168e-16 0.00000000e+00 8.07420067e-18
3.80189396e+02 3.49959796e-16 5.33457148e-18 0.00000000e+00 3.44625225e-16 0.00000000e+00 5.33457148e-18
4.36515832e+02 1.79752922e-16 3.52451642e-18 0.00000000e+00 1.76228406e-16 0.00000000e+00 3.52451642e-18
5.01187234e+02 9.22433321e-17 2.32862491e-18 0.00000000e+00 8.99147072e-17 0.00000000e+00 2.32862491e-18
5.75439937e+02 4.73289704e-17 1.53850722e-18 0.00000000e+00 4.57904632e-17 0.00000000e+00 1.53850722e-18
6.60693448e+02 2.42984463e-17 1.01648164e-18 0.00000000e+00 2.32819646e-17 0.00000000e+00 1.01648164e-18
7.58577575e+02 1.24923439e-17 6.71582760e-19 0.00000000e+00 1.18207612e-17 0.00000000e+00 6.71582760e-19
8.70963590e+02 6.43651070e-18 4.43710329e-19 0.00000000e+00 5.99280037e-18 0.00000000e+00 4.43710329e-19
1.00000000e+03 3.03387222e-18 0.00000000e+00 0.00000000e+00 3.03387222e-18 0.00000000e+00 0.00000000e+00
