# column 1: lambda (micron)
# column 2: total flux; lambda*F_lambda (W/m2)
# column 3: direct stellar flux; lambda*F_lambda (W/m2)
# column 4: scattered stellar flux; lambda*F_lambda (W/m2)
# column 5: total dust emission flux; lambda*F_lambda (W/m2)
# column 6: dust emission scattered flux; lambda*F_lambda (W/m2)
# column 7: transparent flux; lambda*F_lambda (W/m2)
1.00000000e-03 1.04634935e-12 1.04634360e-12 5.74943649e-18 0.00000000e+00 0.00000000e+00 1.04634360e-12
1.14815362e-03 1.23502982e-12 1.23502095e-12 8.87520622e-18 0.00000000e+00 0.00000000e+00 1.23502095e-12
1.31825674e-03 1.45773462e-12 1.45772071e-12 1.39042170e-17 0.00000000e+00 0.00000000e+00 1.45772071e-12
1.51356125e-03 1.72059986e-12 1.72057784e-12 2.20193104e-17 0.00000000e+00 0.00000000e+00 1.72057784e-12
1.73780083e-03 2.03087249e-12 2.03083353e-12 3.89684472e-17 0.00000000e+00 0.00000000e+00 2.03083353e-12
1.99526231e-03 2.39710606e-12 2.39703472e-12 7.13445653e-17 0.00000000e+00 0.00000000e+00 2.39703472e-12
2.29086765e-03 2.82937788e-12 2.82926954e-12 1.08343497e-16 0.00000000e+00 0.00000000e+00 2.82926954e-12
2.63026799e-03 3.33965742e-12 3.33944522e-12 2.12196598e-16 0.00000000e+00 0.00000000e+00 3.33944522e-12
3.01995172e-03 3.94199193e-12 3.94161611e-12 3.75817221e-16 0.00000000e+00 0.00000000e+00 3.94161611e-12
3.46736850e-03 4.65299368e-12 4.65237083e-12 6.22850876e-16 0.00000000e+00 0.00000000e+00 4.65237083e-12
3.98107171e-03 5.49230154e-12 5.49128930e-12 1.01224790e-15 0.00000000e+00 0.00000000e+00 5.49128930e-12
4.57088190e-03 6.48376814e-12 6.48148207e-12 2.28606326e-15 0.00000000e+00 0.00000000e+00 6.48148207e-12
5.24807460e-03 7.65411652e-12 7.65022704e-12 3.88948067e-15 0.00000000e+00 0.00000000e+00 7.65022704e-12
6.02559586e-03 9.04056584e-12 9.02972084e-12 1.08449996e-14 0.00000000e+00 0.00000000e+00 9.02972084e-12
6.91830971e-03 1.06695566e-11 1.06579658e-11 1.15907438e-14 0.00000000e+00 0.00000000e+00 1.06579658e-11
7.94328235e-03 1.26014984e-11 1.25798170e-11 2.16813978e-14 0.00000000e+00 0.00000000e+00 1.25798170e-11
9.12010839e-03 1.48811406e-11 1.48482176e-11 3.29229453e-14 0.00000000e+00 0.00000000e+00 1.48482176e-11
1.04712855e-02 1.66310202e-11 1.65834298e-11 4.75903721e-14 0.00000000e+00 0.00000000e+00 1.65834298e-11
1.20226443e-02 1.66577910e-11 1.65834298e-11 7.43612034e-14 0.00000000e+00 0.00000000e+00 1.65834298e-11
1.38038426e-02 1.66808310e-11 1.65834298e-11 9.74012601e-14 3.68785311e-290 2.28515049e-291 1.65834298e-11
1.58489319e-02 1.67291576e-11 1.65834298e-11 1.45727821e-13 2.47410309e-253 1.42036434e-254 1.65834298e-11
1.81970086e-02 1.67663714e-11 1.65834298e-11 1.82941621e-13 2.83480878e-221 2.02956658e-222 1.65834298e-11
2.08929613e-02 1.68386752e-11 1.65834298e-11 2.55245382e-13 2.09898170e-193 1.58021560e-194 1.65834298e-11
2.39883292e-02 1.69294224e-11 1.65834298e-11 3.45992577e-13 3.82458227e-169 3.25884061e-170 1.65834298e-11
2.75422870e-02 1.70251072e-11 1.65834298e-11 4.41677367e-13 4.98417968e-148 4.87463753e-149 1.65834298e-11
3.16227766e-02 1.71125790e-11 1.65834298e-11 5.29149174e-13 1.14924097e-129 1.23919205e-130 1.65834298e-11
3.63078055e-02 1.71837193e-11 1.65834298e-11 6.00289504e-13 1.06308830e-113 1.22151727e-114 1.65834298e-11
4.16869383e-02 1.73458962e-11 1.65834298e-11 7.62466395e-13 8.22680517e-100 1.13785283e-100 1.65834298e-11
4.78630092e-02 1.75037830e-11 1.65834298e-11 9.20353238e-13 9.64122153e-88 1.53056481e-88 1.65834298e-11
5.49540874e-02 1.75705499e-11 1.65834298e-11 9.87120143e-13 2.94900872e-77 5.26752104e-78 1.65834298e-11
6.30957344e-02 1.75230683e-11 1.65834298e-11 9.39638480e-13 4.90215321e-68 9.44134353e-69 1.65834298e-11
7.24435960e-02 1.73749861e-11 1.65834298e-11 7.91556272e-13 4.80557932e-60 8.79592446e-61 1.65834298e-11
8.31763771e-02 1.73448740e-11 1.65834298e-11 7.61444230e-13 3.45304634e-53 6.38523111e-54 1.65834298e-11
9.54992586e-02 1.73905183e-11 1.65834298e-11 8.07088498e-13 3.06134406e-47 5.94448026e-48 1.65834298e-11
1.09647820e-01 1.67230744e-11 1.58370587e-11 8.86015693e-13 4.19347145e-42 9.04168971e-43 1.58370587e-11
1.25892541e-01 1.56641321e-11 1.47800032e-11 8.84128914e-13 1.16361692e-37 2.60003628e-38 1.47800032e-11
1.44543977e-01 1.46422444e-11 1.37935015e-11 8.48742896e-13 7.86000973e-34 1.72376596e-34 1.37935015e-11
1.65958691e-01 1.37378941e-11 1.28728446e-11 8.65049500e-13 1.26828990e-30 3.04957129e-31 1.28728446e-11
1.90546072e-01 1.28945059e-11 1.20136376e-11 8.80868253e-13 5.57432886e-28 1.54519086e-28 1.20136376e-11
2.18776162e-01 1.19672323e-11 1.12117790e-11 7.55453311e-13 9.22722063e-26 2.67786801e-26 1.12117790e-11
2.51188643e-01 1.13250033e-11 1.04634409e-11 8.61562355e-13 1.37324354e-23 4.69873873e-24 1.04634409e-11
2.88403150e-01 1.05816461e-11 9.76505125e-12 8.16594833e-13 1.04409924e-21 3.64833848e-22 9.76505125e-12
3.31131121e-01 9.88757949e-12 9.11327608e-12 7.74303372e-13 4.30811011e-20 1.54235052e-20 9.11327608e-12
3.80189396e-01 9.22769653e-12 8.50500410e-12 7.22691363e-13 1.07475345e-18 3.88179732e-19 8.50500410e-12
4.36515832e-01 8.60087103e-12 7.93733165e-12 6.63522549e-13 1.68350318e-17 6.08888612e-18 7.93733165e-12
5.01187234e-01 8.00388766e-12 7.40754890e-12 5.96160917e-13 1.77840469e-16 6.43694605e-17 7.40754890e-12
5.75439937e-01 7.45210229e-12 6.91312687e-12 5.37680014e-13 1.29540619e-15 4.55007045e-16 6.91312687e-12
6.60693448e-01 6.93450756e-12 6.45170538e-12 4.75737393e-13 7.06478032e-15 2.43612337e-15 6.45170538e-12
7.58577575e-01 6.46009923e-12 6.02108180e-12 4.09396937e-13 2.96204999e-14 9.83647362e-15 6.02108180e-12
8.70963590e-01 6.06642243e-12 5.61920048e-12 3.48412525e-13 9.88094261e-14 3.08814595e-14 5.61920048e-12
1.00000000e+00 5.80416336e-12 5.24414302e-12 2.88941526e-13 2.71078818e-13 7.78497595e-14 5.24414302e-12
1.14815362e+00 5.76722888e-12 4.89411902e-12 2.28337473e-13 6.44772386e-13 1.65934250e-13 4.89411902e-12
1.31825674e+00 6.08881404e-12 4.56745763e-12 1.74035313e-13 1.34732110e-12 3.00116701e-13 4.56745763e-12
1.51356125e+00 6.90751834e-12 4.26259947e-12 1.31405826e-13 2.51351304e-12 4.80602354e-13 4.26259947e-12
1.73780083e+00 8.22153914e-12 3.97808929e-12 1.00237399e-13 4.14321245e-12 6.59795084e-13 3.97808929e-12
1.99526231e+00 9.91251255e-12 3.71256894e-12 7.38079372e-14 6.12613567e-12 7.88829030e-13 3.71256894e-12
2.29086765e+00 1.16551318e-11 3.46477093e-12 5.35729496e-14 8.13678790e-12 8.26507530e-13 3.46477093e-12
2.63026799e+00 1.33210601e-11 3.23351237e-12 3.89193181e-14 1.00486285e-11 7.89638246e-13 3.23351237e-12
3.01995172e+00 1.46614479e-11 3.01768933e-12 2.80068269e-14 1.16157517e-11 6.94864156e-13 3.01768933e-12
3.46736850e+00 1.55360548e-11 2.81627154e-12 1.97661007e-14 1.27000172e-11 5.69728770e-13 2.81627154e-12
3.98107171e+00 1.58916967e-11 2.62829753e-12 1.37457353e-14 1.32496534e-11 4.41366234e-13 2.62829753e-12
4.57088190e+00 1.57627271e-11 2.45286997e-12 9.40295456e-15 1.33004542e-11 3.20422524e-13 2.45286997e-12
5.24807460e+00 1.51788423e-11 2.02814751e-12 5.40071644e-15 1.31452940e-11 2.17594943e-13 2.02814751e-12
6.02559586e+00 1.41420221e-11 1.33998377e-12 2.40498161e-15 1.27996334e-11 1.40764663e-13 1.33998377e-12
6.70000000e+00 1.34193893e-11 9.74709347e-13 1.25572779e-15 1.24434243e-11 9.63973749e-14 9.74709347e-13
6.92422916e+00 1.31969010e-11 8.83049889e-13 1.01649813e-15 1.23128346e-11 8.54445306e-14 8.83049889e-13
7.15596261e+00 1.29960349e-11 8.00009879e-13 8.08752497e-16 1.21952163e-11 7.43351098e-14 8.00009879e-13
7.39545150e+00 1.30520033e-11 7.24778763e-13 6.14010308e-16 1.23266105e-11 6.37619908e-14 7.24778763e-13
7.64295536e+00 1.34217142e-11 6.56622211e-13 4.25133060e-16 1.27646669e-11 5.17675251e-14 6.56622211e-13
7.89874245e+00 1.43350947e-11 5.94874946e-13 2.52200332e-16 1.37399675e-11 3.92135271e-14 5.94874946e-13
8.16308998e+00 1.56023364e-11 5.38934254e-13 1.43522263e-16 1.50632586e-11 2.90520969e-14 5.38934254e-13
8.43628443e+00 1.70459059e-11 4.88254098e-13 7.74684781e-17 1.65575743e-11 2.08201690e-14 4.88254098e-13
8.71862190e+00 1.78903332e-11 4.42339790e-13 4.77648598e-17 1.74479457e-11 1.61254470e-14 4.42339790e-13
9.01040836e+00 1.88311048e-11 4.00743158e-13 3.01107761e-17 1.84303315e-11 1.25303579e-14 4.00743158e-13
9.31196005e+00 1.92962796e-11 3.63058180e-13 0.00000000e+00 1.89332214e-11 0.00000000e+00 3.63058180e-13
9.62360379e+00 1.91087487e-11 3.28917012e-13 0.00000000e+00 1.87798317e-11 0.00000000e+00 3.28917012e-13
9.94567731e+00 1.83441678e-11 2.97986401e-13 0.00000000e+00 1.80461813e-11 0.00000000e+00 2.97986401e-13
1.02785297e+01 1.76827686e-11 2.69964435e-13 0.00000000e+00 1.74128042e-11 0.00000000e+00 2.69964435e-13
1.06225216e+01 1.68130341e-11 2.44577592e-13 0.00000000e+00 1.65684565e-11 0.00000000e+00 2.44577592e-13
1.09780260e+01 1.60382666e-11 2.21578069e-13 0.00000000e+00 1.58166886e-11 0.00000000e+00 2.21578069e-13
1.13454280e+01 1.53406783e-11 2.00741370e-13 0.00000000e+00 1.51399369e-11 0.00000000e+00 2.00741370e-13
1.17251259e+01 1.48507885e-11 1.81864106e-13 0.00000000e+00 1.46689243e-11 0.00000000e+00 1.81864106e-13
1.21175312e+01 1.43020149e-11 1.64762018e-13 0.00000000e+00 1.41372529e-11 0.00000000e+00 1.64762018e-13
1.25230691e+01 1.37886040e-11 1.49268171e-13 0.00000000e+00 1.36393358e-11 0.00000000e+00 1.49268171e-13
1.29421791e+01 1.33764524e-11 1.35231331e-13 0.00000000e+00 1.32412210e-11 0.00000000e+00 1.35231331e-13
1.33753155e+01 1.31164417e-11 1.22514483e-13 0.00000000e+00 1.29939272e-11 0.00000000e+00 1.22514483e-13
1.38229477e+01 1.29185219e-11 1.10993499e-13 0.00000000e+00 1.28075284e-11 0.00000000e+00 1.10993499e-13
1.42855609e+01 1.29069256e-11 1.00555922e-13 0.00000000e+00 1.28063697e-11 0.00000000e+00 1.00555922e-13
1.47636563e+01 1.31793553e-11 9.10998706e-14 0.00000000e+00 1.30882555e-11 0.00000000e+00 9.10998706e-14
1.52577522e+01 1.34835549e-11 8.25330452e-14 0.00000000e+00 1.34010218e-11 0.00000000e+00 8.25330452e-14
1.57683840e+01 1.38427305e-11 7.47718247e-14 0.00000000e+00 1.37679587e-11 0.00000000e+00 7.47718247e-14
1.62961051e+01 1.42436720e-11 6.77404517e-14 0.00000000e+00 1.41759316e-11 0.00000000e+00 6.77404517e-14
1.68414875e+01 1.45938989e-11 6.13702932e-14 0.00000000e+00 1.45325286e-11 0.00000000e+00 6.13702932e-14
1.74051222e+01 1.49300836e-11 5.55991699e-14 0.00000000e+00 1.48744844e-11 0.00000000e+00 5.55991699e-14
1.79876201e+01 1.49939564e-11 5.03707500e-14 0.00000000e+00 1.49435857e-11 0.00000000e+00 5.03707500e-14
1.85896125e+01 1.51956113e-11 4.56339988e-14 0.00000000e+00 1.51499773e-11 0.00000000e+00 4.56339988e-14
1.92117518e+01 1.52153786e-11 4.13426810e-14 0.00000000e+00 1.51740359e-11 0.00000000e+00 4.13426810e-14
1.98547123e+01 1.52707101e-11 3.74549090e-14 0.00000000e+00 1.52332552e-11 0.00000000e+00 3.74549090e-14
2.05191907e+01 1.51655485e-11 3.39327342e-14 0.00000000e+00 1.51316158e-11 0.00000000e+00 3.39327342e-14
2.12059073e+01 1.50169079e-11 3.07417768e-14 0.00000000e+00 1.49861661e-11 0.00000000e+00 3.07417768e-14
2.19156062e+01 1.48298352e-11 2.78508898e-14 0.00000000e+00 1.48019843e-11 0.00000000e+00 2.78508898e-14
2.26490567e+01 1.47241913e-11 2.52318552e-14 0.00000000e+00 1.46989595e-11 0.00000000e+00 2.52318552e-14
2.34070535e+01 1.45976669e-11 2.28591087e-14 0.00000000e+00 1.45748078e-11 0.00000000e+00 2.28591087e-14
2.41904183e+01 1.43595524e-11 2.07094900e-14 0.00000000e+00 1.43388429e-11 0.00000000e+00 2.07094900e-14
2.50000000e+01 1.40992265e-11 1.87620165e-14 0.00000000e+00 1.40804645e-11 0.00000000e+00 1.87620165e-14
2.75422870e+01 1.32041929e-11 1.40313526e-14 0.00000000e+00 1.31901615e-11 0.00000000e+00 1.40313526e-14
3.16227766e+01 1.14474567e-11 9.27042274e-15 0.00000000e+00 1.14381863e-11 0.00000000e+00 9.27042274e-15
3.63078055e+01 9.28375853e-12 6.12490756e-15 0.00000000e+00 9.27763363e-12 0.00000000e+00 6.12490756e-15
4.16869383e+01 7.02420078e-12 4.04668630e-15 0.00000000e+00 7.02015410e-12 0.00000000e+00 4.04668630e-15
4.78630092e+01 4.93264736e-12 2.67361912e-15 0.00000000e+00 4.92997374e-12 0.00000000e+00 2.67361912e-15
5.49540874e+01 3.25680787e-12 1.76644264e-15 0.00000000e+00 3.25504143e-12 0.00000000e+00 1.76644264e-15
6.30957344e+01 2.03816049e-12 1.16707708e-15 0.00000000e+00 2.03699342e-12 0.00000000e+00 1.16707708e-15
7.24435960e+01 1.22064218e-12 7.71080178e-16 0.00000000e+00 1.21987110e-12 0.00000000e+00 7.71080178e-16
8.31763771e+01 7.07884196e-13 5.09447621e-16 0.00000000e+00 7.07374748e-13 0.00000000e+00 5.09447621e-16
9.54992586e+01 4.00539839e-13 3.36588705e-16 0.00000000e+00 4.00203251e-13 0.00000000e+00 3.36588705e-16
1.09647820e+02 2.22568747e-13 2.22381952e-16 0.00000000e+00 2.22346365e-13 0.00000000e+00 2.22381952e-16
1.25892541e+02 1.23268481e-13 1.46926299e-16 0.00000000e+00 1.23121554e-13 0.00000000e+00 1.46926299e-16
1.44543977e+02 6.77880394e-14 9.70732430e-17 0.00000000e+00 6.76909661e-14 0.00000000e+00 9.70732430e-17
1.65958691e+02 3.55288614e-14 6.41356556e-17 0.00000000e+00 3.54647257e-14 0.00000000e+00 6.41356556e-17
1.90546072e+02 1.86177167e-14 4.23740075e-17 0.00000000e+00 1.85753427e-14 0.00000000e+00 4.23740075e-17
2.18776162e+02 9.73395457e-15 2.79962291e-17 0.00000000e+00 9.70595834e-15 0.00000000e+00 2.79962291e-17
2.51188643e+02 5.07044817e-15 1.84969251e-17 0.00000000e+00 5.05195124e-15 0.00000000e+00 1.84969251e-17
2.88403150e+02 2.62845194e-15 1.22207972e-17 0.00000000e+00 2.61623114e-15 0.00000000e+00 1.22207972e-17
3.31131121e+02 1.35904319e-15 8.07420067e-18 0.00000000e+00 1.35096899e-15 0.00000000e+00 8.07420067e-18
3.80189396e+02 7.00221116e-16 5.33457148e-18 0.00000000e+00 6.94886545e-16 0.00000000e+00 5.33457148e-18
4.36515832e+02 3.60005338e-16 3.52451642e-18 0.00000000e+00 3.56480822e-16 0.00000000e+00 3.52451642e-18
5.01187234e+02 1.84699668e-16 2.32862491e-18 0.00000000e+00 1.82371043e-16 0.00000000e+00 2.32862491e-18
5.75439937e+02 9.46232954e-17 1.53850722e-18 0.00000000e+00 9.30847882e-17 0.00000000e+00 1.53850722e-18
6.60693448e+02 4.84344567e-17 1.01648164e-18 0.00000000e+00 4.74179750e-17 0.00000000e+00 1.01648164e-18
7.58577575e+02 2.47855782e-17 6.71582760e-19 0.00000000e+00 2.41139955e-17 0.00000000e+00 6.71582760e-19
8.70963590e+02 1.26855106e-17 4.43710329e-19 0.00000000e+00 1.22418003e-17 0.00000000e+00 4.43710329e-19
1.00000000e+03 6.20467992e-18 0.00000000e+00 0.00000000e+00 6.20467992e-18 0.00000000e+00 0.00000000e+00
