# column 1: lambda (micron)
# column 2: total flux; lambda*F_lambda (W/m2)
# column 3: direct stellar flux; lambda*F_lambda (W/m2)
# column 4: scattered stellar flux; lambda*F_lambda (W/m2)
# column 5: total dust emission flux; lambda*F_lambda (W/m2)
# column 6: dust emission scattered flux; lambda*F_lambda (W/m2)
# column 7: transparent flux; lambda*F_lambda (W/m2)
1.00000000e-03 2.06065629e-13 2.06064148e-13 1.48191957e-18 0.00000000e+00 0.00000000e+00 2.06075710e-13
1.14815362e-03 2.43224757e-13 2.43217383e-13 7.37415006e-18 0.00000000e+00 0.00000000e+00 2.43235413e-13
1.31825674e-03 2.87114735e-13 2.87068720e-13 4.60149954e-17 0.00000000e+00 0.00000000e+00 2.87095777e-13
1.51356125e-03 3.38839845e-13 3.38827419e-13 1.24254674e-17 0.00000000e+00 0.00000000e+00 3.38865070e-13
1.73780083e-03 3.99988430e-13 3.99924535e-13 6.38944722e-17 0.00000000e+00 0.00000000e+00 3.99969435e-13
1.99526231e-03 4.72175267e-13 4.72021916e-13 1.53351749e-16 0.00000000e+00 0.00000000e+00 4.72092178e-13
2.29086765e-03 5.57193353e-13 5.57132197e-13 6.11563520e-17 0.00000000e+00 0.00000000e+00 5.57220139e-13
2.63026799e-03 6.57925229e-13 6.57574041e-13 3.51188102e-16 0.00000000e+00 0.00000000e+00 6.57698429e-13
3.01995172e-03 7.76859981e-13 7.76113451e-13 7.46530882e-16 0.00000000e+00 0.00000000e+00 7.76295028e-13
3.46736850e-03 9.17092655e-13 9.16024434e-13 1.06822117e-15 0.00000000e+00 0.00000000e+00 9.16277040e-13
3.98107171e-03 1.11097438e-12 1.08115942e-12 2.98149670e-14 0.00000000e+00 0.00000000e+00 1.08150070e-12
4.57088190e-03 1.28244761e-12 1.27624888e-12 6.19872888e-15 0.00000000e+00 0.00000000e+00 1.27651759e-12
5.24807460e-03 1.55251694e-12 1.50629497e-12 4.62219730e-14 0.00000000e+00 0.00000000e+00 1.50670006e-12
6.02559586e-03 1.78291312e-12 1.77781267e-12 5.10044977e-15 0.00000000e+00 0.00000000e+00 1.77838917e-12
6.91830971e-03 2.10485811e-12 2.09828412e-12 6.57398679e-15 0.00000000e+00 0.00000000e+00 2.09906943e-12
7.94328235e-03 2.50226966e-12 2.47654087e-12 2.57287956e-14 0.00000000e+00 0.00000000e+00 2.47757497e-12
9.12010839e-03 2.96428555e-12 2.92297843e-12 4.13071273e-14 0.00000000e+00 0.00000000e+00 2.92433286e-12
1.04712855e-02 3.47093081e-12 3.26447084e-12 2.06459971e-13 0.00000000e+00 0.00000000e+00 3.26608014e-12
1.20226443e-02 3.32595510e-12 3.26437589e-12 6.15792177e-14 0.00000000e+00 0.00000000e+00 3.26608014e-12
1.38038426e-02 3.37615517e-12 3.26426327e-12 1.11891900e-13 4.29580679e-290 2.75766802e-291 3.26608014e-12
1.58489319e-02 3.34199651e-12 3.26412487e-12 7.78716424e-14 2.60195489e-253 1.63597832e-254 3.26608014e-12
1.81970086e-02 3.39616260e-12 3.26399723e-12 1.32165371e-13 2.68534860e-221 1.73811342e-222 3.26608014e-12
2.08929613e-02 3.37368480e-12 3.26389113e-12 1.09793667e-13 1.82612296e-193 1.19957814e-194 3.26608014e-12
2.39883292e-02 3.37660053e-12 3.26375368e-12 1.12846855e-13 3.06291759e-169 2.09325348e-170 3.26608014e-12
2.75422870e-02 3.36406597e-12 3.26359380e-12 1.00472170e-13 3.68745168e-148 2.56083172e-149 3.26608014e-12
3.16227766e-02 3.34880232e-12 3.26343709e-12 8.53652317e-14 7.89461225e-130 5.60336463e-131 3.26608014e-12
3.63078055e-02 3.34475410e-12 3.26331418e-12 8.14399206e-14 6.75662742e-114 4.49514507e-115 3.26608014e-12
4.16869383e-02 3.33798714e-12 3.26320788e-12 7.47792583e-14 4.77975292e-100 3.50217706e-101 3.26608014e-12
4.78630092e-02 3.33283010e-12 3.26291487e-12 6.99152290e-14 5.07360988e-88 3.86473342e-89 3.26608014e-12
5.49540874e-02 3.32152218e-12 3.26250744e-12 5.90147425e-14 1.40271773e-77 1.11867273e-78 3.26608014e-12
6.30957344e-02 3.31288241e-12 3.26148602e-12 5.13963931e-14 2.09620540e-68 1.64219475e-69 3.26608014e-12
7.24435960e-02 3.30491572e-12 3.26027655e-12 4.46391669e-14 1.88838203e-60 1.35877579e-61 3.26608014e-12
8.31763771e-02 3.30335770e-12 3.26038416e-12 4.29735409e-14 1.20344585e-53 8.28141996e-55 3.26608014e-12
9.54992586e-02 3.30619584e-12 3.26069978e-12 4.54960596e-14 9.21770563e-48 6.63141745e-49 3.26608014e-12
1.09647820e-01 3.15911021e-12 3.11481439e-12 4.42958201e-14 1.05146449e-42 8.19520107e-44 3.11908354e-12
1.25892541e-01 2.95279692e-12 2.90761812e-12 4.51788004e-14 2.43475167e-38 1.89825854e-39 2.91089813e-12
1.44543977e-01 2.75872637e-12 2.71407077e-12 4.46556010e-14 1.36168593e-34 1.00587353e-35 2.71660820e-12
1.65958691e-01 2.57538184e-12 2.53321517e-12 4.21666654e-14 1.75129055e-31 1.36421353e-32 2.53528629e-12
1.90546072e-01 2.40499226e-12 2.36400480e-12 4.09874616e-14 6.09453968e-29 5.25811399e-30 2.36606683e-12
2.18776162e-01 2.24326927e-12 2.20588483e-12 3.73844327e-14 8.31749066e-27 7.44989450e-28 2.20814205e-12
2.51188643e-01 2.09821487e-12 2.05907320e-12 3.91416773e-14 8.99237041e-25 9.42306853e-26 2.06075806e-12
2.88403150e-01 1.95750136e-12 1.92190576e-12 3.55956045e-14 5.21871558e-23 5.39454608e-24 1.92321132e-12
3.31131121e-01 1.82601202e-12 1.79378306e-12 3.22289521e-14 1.71716689e-21 1.77931727e-22 1.79484524e-12
3.80189396e-01 1.70292687e-12 1.67417651e-12 2.87503231e-14 3.54614965e-20 3.74311814e-21 1.67504704e-12
4.36515832e-01 1.58817552e-12 1.56253777e-12 2.56372693e-14 4.88757423e-19 5.17840314e-20 1.56324485e-12
5.01187234e-01 1.48291769e-12 1.45833842e-12 2.45745743e-14 4.69063627e-18 4.98720055e-19 1.45890498e-12
5.75439937e-01 1.38252736e-12 1.36108007e-12 2.14144512e-14 3.28394151e-17 3.50299374e-18 1.36152935e-12
6.60693448e-01 1.28988760e-12 1.27029992e-12 1.94148365e-14 1.72838766e-16 1.82208109e-17 1.27065312e-12
7.58577575e-01 1.20401607e-12 1.18556820e-12 1.77306444e-14 7.17227407e-16 7.44070185e-17 1.18584249e-12
8.70963590e-01 1.12408119e-12 1.10648431e-12 1.51642341e-14 2.43264205e-15 2.43904435e-16 1.10669260e-12
1.00000000e+00 1.05258499e-12 1.03267001e-12 1.30577205e-14 6.85725798e-15 6.59555297e-16 1.03282563e-12
1.14815362e+00 9.91233333e-13 9.63774762e-13 1.05040815e-14 1.69544898e-14 1.52097661e-15 9.63888963e-13
1.31825674e+00 9.45170326e-13 8.99471170e-13 8.54806335e-15 3.71510925e-14 3.01357028e-15 8.99553520e-13
1.51356125e+00 9.18326055e-13 8.39453409e-13 7.04779456e-15 7.18248517e-14 5.09430590e-15 8.39512191e-13
1.73780083e+00 9.11940160e-13 7.83437085e-13 5.44100072e-15 1.23062074e-13 7.30918343e-15 7.83478363e-13
1.99526231e+00 9.20842200e-13 7.31156021e-13 3.71197315e-15 1.85974206e-13 8.92794419e-15 7.31184552e-13
2.29086765e+00 9.37360958e-13 6.82361469e-13 2.61300186e-15 2.52386487e-13 9.16880261e-15 6.82381128e-13
2.63026799e+00 9.50193385e-13 6.36821449e-13 1.81865727e-15 3.11553279e-13 8.38712612e-15 6.36835122e-13
3.01995172e+00 9.50768897e-13 5.94319485e-13 1.21024638e-15 3.55239166e-13 7.07664454e-15 5.94329117e-13
3.46736850e+00 9.34594607e-13 5.54653308e-13 8.16886259e-16 3.79124412e-13 5.53288223e-15 5.54660204e-13
3.98107171e+00 9.01030573e-13 5.17634021e-13 5.49229809e-16 3.82847323e-13 4.09769923e-15 5.17639021e-13
4.57088190e+00 8.51143709e-13 4.83085168e-13 3.61424010e-16 3.67697117e-13 2.82207159e-15 4.83088843e-13
5.24807460e+00 7.40375944e-13 3.99437987e-13 2.00822412e-16 3.40737134e-13 1.82032460e-15 3.99440428e-13
6.02559586e+00 5.74729741e-13 2.63906334e-13 8.58906863e-17 3.10737516e-13 1.11363510e-15 2.63907674e-13
6.70000000e+00 4.76515010e-13 1.91966594e-13 4.59136785e-17 2.84502502e-13 7.27428794e-16 1.91967457e-13
6.92422916e+00 4.50029249e-13 1.73914518e-13 3.66265848e-17 2.76078104e-13 6.30304402e-16 1.73915272e-13
7.15596261e+00 4.28166634e-13 1.57560003e-13 2.76560173e-17 2.70578975e-13 5.36668982e-16 1.57560674e-13
7.39545150e+00 4.13813030e-13 1.42743402e-13 2.12622185e-17 2.71048366e-13 4.50704928e-16 1.42744025e-13
7.64295536e+00 4.20090072e-13 1.29320058e-13 1.50188320e-17 2.90754995e-13 3.77980646e-16 1.29320701e-13
7.89874245e+00 4.56830739e-13 1.17158922e-13 9.46324052e-18 3.39662353e-13 3.00753105e-16 1.17159675e-13
8.16308998e+00 5.16891282e-13 1.06141324e-13 4.88974341e-18 4.10745068e-13 2.35190632e-16 1.06142245e-13
8.43628443e+00 6.05282519e-13 9.61597098e-14 2.83304726e-18 5.09119976e-13 1.79358029e-16 9.61608686e-14
8.71862190e+00 6.64037846e-13 8.71168285e-14 1.76287736e-18 5.76919255e-13 1.36667668e-16 8.71181185e-14
9.01040836e+00 7.26843876e-13 7.89243124e-14 1.26547522e-18 6.47918298e-13 1.03144231e-16 7.89257281e-14
9.31196005e+00 7.73027639e-13 7.15022439e-14 0.00000000e+00 7.01525395e-13 0.00000000e+00 7.15037315e-14
9.62360379e+00 7.64540481e-13 6.47782994e-14 0.00000000e+00 6.99762181e-13 0.00000000e+00 6.47796826e-14
9.94567731e+00 7.04247351e-13 5.86867723e-14 0.00000000e+00 6.45560579e-13 0.00000000e+00 5.86879481e-14
1.02785297e+01 6.35613041e-13 5.31681028e-14 0.00000000e+00 5.82444938e-13 0.00000000e+00 5.31690665e-14
1.06225216e+01 5.70616835e-13 4.81683866e-14 0.00000000e+00 5.22448448e-13 0.00000000e+00 4.81691679e-14
1.09780260e+01 5.02192582e-13 4.36388379e-14 0.00000000e+00 4.58553745e-13 0.00000000e+00 4.36394486e-14
1.13454280e+01 4.41489390e-13 3.95352145e-14 0.00000000e+00 4.01954175e-13 0.00000000e+00 3.95356937e-14
1.17251259e+01 3.92628542e-13 3.58174683e-14 0.00000000e+00 3.56811073e-13 0.00000000e+00 3.58178467e-14
1.21175312e+01 3.48147762e-13 3.24493202e-14 0.00000000e+00 3.15698442e-13 0.00000000e+00 3.24496176e-14
1.25230691e+01 3.09345892e-13 2.93978961e-14 0.00000000e+00 2.79947996e-13 0.00000000e+00 2.93981291e-14
1.29421791e+01 2.75241738e-13 2.66334118e-14 0.00000000e+00 2.48608326e-13 0.00000000e+00 2.66335956e-14
1.33753155e+01 2.47074904e-13 2.41288866e-14 0.00000000e+00 2.22946017e-13 0.00000000e+00 2.41290327e-14
1.38229477e+01 2.28907364e-13 2.18598717e-14 0.00000000e+00 2.07047493e-13 0.00000000e+00 2.18599931e-14
1.42855609e+01 2.16532117e-13 1.98042234e-14 0.00000000e+00 1.96727893e-13 0.00000000e+00 1.98043289e-14
1.47636563e+01 2.16210182e-13 1.79418745e-14 0.00000000e+00 1.98268308e-13 0.00000000e+00 1.79419747e-14
1.52577522e+01 2.18454035e-13 1.62546553e-14 0.00000000e+00 2.02199380e-13 0.00000000e+00 1.62547521e-14
1.57683840e+01 2.22224168e-13 1.47260973e-14 0.00000000e+00 2.07498071e-13 0.00000000e+00 1.47261920e-14
1.62961051e+01 2.26779415e-13 1.33412817e-14 0.00000000e+00 2.13438133e-13 0.00000000e+00 1.33413743e-14
1.68414875e+01 2.31278778e-13 1.20866914e-14 0.00000000e+00 2.19192087e-13 0.00000000e+00 1.20867817e-14
1.74051222e+01 2.31962244e-13 1.09500824e-14 0.00000000e+00 2.21012161e-13 0.00000000e+00 1.09501681e-14
1.79876201e+01 2.30843817e-13 9.92035909e-15 0.00000000e+00 2.20923458e-13 0.00000000e+00 9.92043915e-15
1.85896125e+01 2.26533181e-13 8.98747110e-15 0.00000000e+00 2.17545709e-13 0.00000000e+00 8.98754353e-15
1.92117518e+01 2.17904595e-13 8.14231168e-15 0.00000000e+00 2.09762283e-13 0.00000000e+00 8.14237531e-15
1.98547123e+01 2.08654662e-13 7.37662999e-15 0.00000000e+00 2.01278032e-13 0.00000000e+00 7.37668479e-15
2.05191907e+01 1.98630848e-13 6.68295135e-15 0.00000000e+00 1.91947896e-13 0.00000000e+00 6.68299807e-15
2.12059073e+01 1.89706647e-13 6.05450426e-15 0.00000000e+00 1.83652143e-13 0.00000000e+00 6.05454408e-15
2.19156062e+01 1.81730561e-13 5.48515436e-15 0.00000000e+00 1.76245407e-13 0.00000000e+00 5.48518847e-15
2.26490567e+01 1.74518232e-13 4.96934452e-15 0.00000000e+00 1.69548887e-13 0.00000000e+00 4.96937378e-15
2.34070535e+01 1.68614623e-13 4.50203998e-15 0.00000000e+00 1.64112583e-13 0.00000000e+00 4.50206513e-15
2.41904183e+01 1.63276276e-13 4.07867946e-15 0.00000000e+00 1.59197597e-13 0.00000000e+00 4.07870113e-15
2.50000000e+01 1.58046928e-13 3.69513060e-15 0.00000000e+00 1.54351798e-13 0.00000000e+00 3.69514932e-15
2.75422870e+01 1.44890352e-13 2.76344039e-15 0.00000000e+00 1.42126911e-13 0.00000000e+00 2.76345259e-15
3.16227766e+01 1.29065955e-13 1.82578832e-15 0.00000000e+00 1.27240166e-13 0.00000000e+00 1.82579502e-15
3.63078055e+01 1.12774961e-13 1.20628714e-15 0.00000000e+00 1.11568674e-13 0.00000000e+00 1.20629081e-15
4.16869383e+01 9.52187126e-14 7.96986484e-16 0.00000000e+00 9.44217262e-14 0.00000000e+00 7.96988434e-16
4.78630092e+01 7.64943083e-14 5.26564031e-16 0.00000000e+00 7.59677443e-14 0.00000000e+00 5.26565037e-16
5.49540874e+01 5.87495204e-14 3.47897562e-16 0.00000000e+00 5.84016228e-14 0.00000000e+00 3.47898070e-16
6.30957344e+01 4.30723372e-14 2.29853722e-16 0.00000000e+00 4.28424835e-14 0.00000000e+00 2.29853975e-16
7.24435960e+01 3.02277003e-14 1.51862890e-16 0.00000000e+00 3.00758374e-14 0.00000000e+00 1.51863015e-16
8.31763771e+01 2.03836650e-14 1.00334838e-16 0.00000000e+00 2.02833302e-14 0.00000000e+00 1.00334899e-16
9.54992586e+01 1.32674538e-14 6.62905800e-17 0.00000000e+00 1.32011632e-14 0.00000000e+00 6.62906105e-17
1.09647820e+02 8.37962890e-15 4.37977569e-17 0.00000000e+00 8.33583115e-15 0.00000000e+00 4.37977720e-17
1.25892541e+02 5.19931001e-15 2.89368934e-17 0.00000000e+00 5.17037312e-15 0.00000000e+00 2.89369010e-17
1.44543977e+02 3.15902641e-15 1.91184170e-17 0.00000000e+00 3.13990799e-15 0.00000000e+00 1.91184209e-17
1.65958691e+02 1.81031569e-15 1.26314135e-17 0.00000000e+00 1.79768428e-15 0.00000000e+00 1.26314154e-17
1.90546072e+02 1.02491240e-15 8.34549247e-18 0.00000000e+00 1.01656691e-15 0.00000000e+00 8.34549342e-18
2.18776162e+02 5.73105643e-16 5.51381235e-18 0.00000000e+00 5.67591831e-16 0.00000000e+00 5.51381282e-18
2.51188643e+02 3.16457100e-16 3.64293977e-18 0.00000000e+00 3.12814160e-16 0.00000000e+00 3.64294000e-18
2.88403150e+02 1.72595014e-16 2.40686648e-18 0.00000000e+00 1.70188147e-16 0.00000000e+00 2.40686659e-18
3.31131121e+02 9.32859407e-17 1.59020093e-18 0.00000000e+00 9.16957398e-17 0.00000000e+00 1.59020099e-18
3.80189396e+02 4.99688373e-17 1.05063534e-18 0.00000000e+00 4.89182019e-17 0.00000000e+00 1.05063537e-18
4.36515832e+02 2.65915987e-17 6.94147893e-19 0.00000000e+00 2.58974509e-17 0.00000000e+00 6.94147908e-19
5.01187234e+02 1.40711373e-17 4.58618967e-19 0.00000000e+00 1.36125183e-17 0.00000000e+00 4.58618975e-19
5.75439937e+02 7.41524982e-18 3.03006548e-19 0.00000000e+00 7.11224327e-18 0.00000000e+00 3.03006552e-19
6.60693448e+02 3.89699811e-18 2.00194441e-19 0.00000000e+00 3.69680367e-18 0.00000000e+00 2.00194443e-19
7.58577575e+02 2.04524512e-18 1.32267156e-19 0.00000000e+00 1.91297796e-18 0.00000000e+00 1.32267157e-19
8.70963590e+02 1.07324400e-18 8.73880436e-20 0.00000000e+00 9.85855959e-19 0.00000000e+00 8.73880441e-20
1.00000000e+03 5.06213480e-19 0.00000000e+00 0.00000000e+00 5.06213480e-19 0.00000000e+00 0.00000000e+00
