# column 1: lambda (micron)
# column 2: total flux; lambda*F_lambda (W/m2)
# column 3: direct stellar flux; lambda*F_lambda (W/m2)
# column 4: scattered stellar flux; lambda*F_lambda (W/m2)
# column 5: total dust emission flux; lambda*F_lambda (W/m2)
# column 6: dust emission scattered flux; lambda*F_lambda (W/m2)
# column 7: transparent flux; lambda*F_lambda (W/m2)
1.00000000e-03 1.03829472e-12 1.03824732e-12 4.73985718e-17 0.00000000e+00 0.00000000e+00 1.04634360e-12
1.14815362e-03 1.22247337e-12 1.22241138e-12 6.19922321e-17 0.00000000e+00 0.00000000e+00 1.23502095e-12
1.31825674e-03 1.43905958e-12 1.43882408e-12 2.35493428e-16 0.00000000e+00 0.00000000e+00 1.45772071e-12
1.51356125e-03 1.69462419e-12 1.69431262e-12 3.11568274e-16 0.00000000e+00 0.00000000e+00 1.72057784e-12
1.73780083e-03 2.00919489e-12 1.99951424e-12 9.68064739e-15 0.00000000e+00 0.00000000e+00 2.03083353e-12
1.99526231e-03 2.34969444e-12 2.34814661e-12 1.54783372e-15 0.00000000e+00 0.00000000e+00 2.39703472e-12
2.29086765e-03 2.78195304e-12 2.76811713e-12 1.38359100e-14 0.00000000e+00 0.00000000e+00 2.82926954e-12
2.63026799e-03 3.26331205e-12 3.25313506e-12 1.01769878e-14 0.00000000e+00 0.00000000e+00 3.33944522e-12
3.01995172e-03 3.82687411e-12 3.81600857e-12 1.08655386e-14 0.00000000e+00 0.00000000e+00 3.94161611e-12
3.46736850e-03 4.56027696e-12 4.47812641e-12 8.21505502e-14 0.00000000e+00 0.00000000e+00 4.65237083e-12
3.98107171e-03 5.31193928e-12 5.25651791e-12 5.54213717e-14 0.00000000e+00 0.00000000e+00 5.49128930e-12
4.57088190e-03 6.41733258e-12 6.29529857e-12 1.22034003e-13 0.00000000e+00 0.00000000e+00 6.48148207e-12
5.24807460e-03 7.56469623e-12 7.37067159e-12 1.94024643e-13 0.00000000e+00 0.00000000e+00 7.65022704e-12
6.02559586e-03 8.75627041e-12 8.63337631e-12 1.22894096e-13 0.00000000e+00 0.00000000e+00 9.02972084e-12
6.91830971e-03 1.09923919e-11 1.01198961e-11 8.72495745e-13 0.00000000e+00 0.00000000e+00 1.06579658e-11
7.94328235e-03 1.28901067e-11 1.18733664e-11 1.01674024e-12 2.32342177e-303 1.41072756e-304 1.25798170e-11
9.12010839e-03 1.49725738e-11 1.39258083e-11 1.04676552e-12 1.16678172e-264 9.18585843e-266 1.48482176e-11
1.04712855e-02 1.66607890e-11 1.54896524e-11 1.17113660e-12 5.54742145e-231 5.01601357e-232 1.65834298e-11
1.20226443e-02 1.67592421e-11 1.54274024e-11 1.33183967e-12 9.67674945e-202 1.00950102e-202 1.65834298e-11
1.38038426e-02 1.64488677e-11 1.53538913e-11 1.09497635e-12 2.90870189e-176 3.66674060e-177 1.65834298e-11
1.58489319e-02 1.64175604e-11 1.52640314e-11 1.15352898e-12 4.11136816e-154 4.57370483e-155 1.65834298e-11
1.81970086e-02 1.62753362e-11 1.51816181e-11 1.09371809e-12 7.81846316e-135 9.52984394e-136 1.65834298e-11
2.08929613e-02 1.63333060e-11 1.51134536e-11 1.21985236e-12 4.27848991e-118 5.25402202e-119 1.65834298e-11
2.39883292e-02 1.62014901e-11 1.50255903e-11 1.17589972e-12 1.55395657e-103 1.92297982e-104 1.65834298e-11
2.75422870e-02 1.60494787e-11 1.49240324e-11 1.12544628e-12 7.19915260e-91 9.58180636e-92 1.65834298e-11
3.16227766e-02 1.59422956e-11 1.48251500e-11 1.11714568e-12 7.17474166e-80 9.74192435e-81 1.65834298e-11
3.63078055e-02 1.57744602e-11 1.47480501e-11 1.02641007e-12 2.52282205e-70 3.33502120e-71 1.65834298e-11
4.16869383e-02 1.57345410e-11 1.46816880e-11 1.05285303e-12 4.93149139e-62 7.18563399e-63 1.65834298e-11
4.78630092e-02 1.55169582e-11 1.45003043e-11 1.01665389e-12 7.40558668e-55 1.12142575e-55 1.65834298e-11
5.49540874e-02 1.52094679e-11 1.42517751e-11 9.57692859e-13 1.19791166e-48 1.82006352e-49 1.65834298e-11
6.30957344e-02 1.45279723e-11 1.36471592e-11 8.80813120e-13 3.52818852e-43 5.47370771e-44 1.65834298e-11
7.24435960e-02 1.37048970e-11 1.29640827e-11 7.40814356e-13 1.80938942e-38 2.55404841e-39 1.65834298e-11
8.31763771e-02 1.37363718e-11 1.30234548e-11 7.12917016e-13 1.89329843e-34 2.58057113e-35 1.65834298e-11
9.54992586e-02 1.39043412e-11 1.31991628e-11 7.05178428e-13 5.55887160e-31 7.57255652e-32 1.65834298e-11
1.09647820e-01 1.38567132e-11 1.31015894e-11 7.55123808e-13 5.27210221e-28 7.60827152e-29 1.58370587e-11
1.25892541e-01 1.33944031e-11 1.26440848e-11 7.50318343e-13 1.88562236e-25 2.80515991e-26 1.47800032e-11
1.44543977e-01 1.27928582e-11 1.21196189e-11 6.73239260e-13 2.75946038e-23 3.92624468e-24 1.37935015e-11
1.65958691e-01 1.21465814e-11 1.14957538e-11 6.50827629e-13 1.47745390e-21 2.22668346e-22 1.28728446e-11
1.90546072e-01 1.12928331e-11 1.06476228e-11 6.45210276e-13 3.08675379e-20 5.13584532e-21 1.20136376e-11
2.18776162e-01 1.02970307e-11 9.73155221e-12 5.65478161e-13 3.45774202e-19 5.65740391e-20 1.12117790e-11
2.51188643e-01 9.94140549e-12 9.34322063e-12 5.98180264e-13 4.59685061e-18 8.62855251e-19 1.04634409e-11
2.88403150e-01 9.45561995e-12 8.88883958e-12 5.66739926e-13 4.04438808e-17 7.50516424e-18 9.76505125e-12
3.31131121e-01 8.91511641e-12 8.39619645e-12 5.18680441e-13 2.39515584e-16 4.35685723e-17 9.11327608e-12
3.80189396e-01 8.38430191e-12 7.91442498e-12 4.68853078e-13 1.02385794e-15 1.79739829e-16 8.50500410e-12
4.36515832e-01 7.88753130e-12 7.45543014e-12 4.28766051e-13 3.33511450e-15 5.69296103e-16 7.93733165e-12
5.01187234e-01 7.41258046e-12 7.01973444e-12 3.84185385e-13 8.66063620e-15 1.44192566e-15 7.40754890e-12
5.75439937e-01 6.97030087e-12 6.60436405e-12 3.46677946e-13 1.92588726e-14 3.30147925e-15 6.91312687e-12
6.60693448e-01 6.55273882e-12 6.20811068e-12 3.05154715e-13 3.94734287e-14 7.25865599e-15 6.45170538e-12
7.58577575e-01 6.18125413e-12 5.83130478e-12 2.68321571e-13 8.16277804e-14 1.70462046e-14 6.02108180e-12
8.70963590e-01 5.88065177e-12 5.47466120e-12 2.31486700e-13 1.74503871e-13 4.10374750e-14 5.61920048e-12
1.00000000e+00 5.70000237e-12 5.13587687e-12 1.92301538e-13 3.71823956e-13 9.12878097e-14 5.24414302e-12
1.14815362e+00 5.73412216e-12 4.81449278e-12 1.53836508e-13 7.65792869e-13 1.81481609e-13 4.89411902e-12
1.31825674e+00 6.09086162e-12 4.50993327e-12 1.19134816e-13 1.46179353e-12 3.18012566e-13 4.56745763e-12
1.51356125e+00 6.86293013e-12 4.22147710e-12 9.16049952e-14 2.54984803e-12 4.85352027e-13 4.26259947e-12
1.73780083e+00 8.03444179e-12 3.94917848e-12 6.90469163e-14 4.01621639e-12 6.40662340e-13 3.97808929e-12
1.99526231e+00 9.42354277e-12 3.69256728e-12 5.08014103e-14 5.68017408e-12 7.35561063e-13 3.71256894e-12
2.29086765e+00 1.09129907e-11 3.45097921e-12 3.71237768e-14 7.42488776e-12 7.53189844e-13 3.46477093e-12
2.63026799e+00 1.22046065e-11 3.22391533e-12 2.70705906e-14 8.95362062e-12 7.05399644e-13 3.23351237e-12
3.01995172e+00 1.32104624e-11 3.01092624e-12 2.00251334e-14 1.01795110e-11 6.31673858e-13 3.01768933e-12
3.46736850e+00 1.39746604e-11 2.81142827e-12 1.45677923e-14 1.11486644e-11 5.38348635e-13 2.81627154e-12
3.98107171e+00 1.45262062e-11 2.62478502e-12 1.06397407e-14 1.18907815e-11 4.39030380e-13 2.62829753e-12
4.57088190e+00 1.48350680e-11 2.45028794e-12 7.54282406e-15 1.23772372e-11 3.39767601e-13 2.45286997e-12
5.24807460e+00 1.46576584e-11 2.02643227e-12 4.56123516e-15 1.26266649e-11 2.45243640e-13 2.02814751e-12
6.02559586e+00 1.39890303e-11 1.33904198e-12 2.13000390e-15 1.26478583e-11 1.67696095e-13 1.33998377e-12
6.70000000e+00 1.34962843e-11 9.74102953e-13 1.13488572e-15 1.25210465e-11 1.18171816e-13 9.74709347e-13
6.92422916e+00 1.33190508e-11 8.82519770e-13 9.20993894e-16 1.24356101e-11 1.04687683e-13 8.83049889e-13
7.15596261e+00 1.31651869e-11 7.99537998e-13 7.34274826e-16 1.23649146e-11 9.14883727e-14 8.00009879e-13
7.39545150e+00 1.31470924e-11 7.24341052e-13 5.57513789e-16 1.24221939e-11 7.78027360e-14 7.24778763e-13
7.64295536e+00 1.33670473e-11 6.56170411e-13 3.75467940e-16 1.27105015e-11 6.19761548e-14 6.56622211e-13
7.89874245e+00 1.38458191e-11 5.94346157e-13 2.11129327e-16 1.32512619e-11 4.44871693e-14 5.94874946e-13
8.16308998e+00 1.44915261e-11 5.38287486e-13 1.13932145e-16 1.39531247e-11 3.13738561e-14 5.38934254e-13
8.43628443e+00 1.52272191e-11 4.87440221e-13 5.89132497e-17 1.47397199e-11 2.11815266e-14 4.88254098e-13
8.71862190e+00 1.56757868e-11 4.41433963e-13 3.68991693e-17 1.52343159e-11 1.59794479e-14 4.42339790e-13
9.01040836e+00 1.59051452e-11 3.99749234e-13 2.37371579e-17 1.55053722e-11 1.21986544e-14 4.00743158e-13
9.31196005e+00 1.62926549e-11 3.62014002e-13 0.00000000e+00 1.59306409e-11 0.00000000e+00 3.63058180e-13
9.62360379e+00 1.60082633e-11 3.27946141e-13 0.00000000e+00 1.56803172e-11 0.00000000e+00 3.28917012e-13
9.94567731e+00 1.55458684e-11 2.97161022e-13 0.00000000e+00 1.52487074e-11 0.00000000e+00 2.97986401e-13
1.02785297e+01 1.53076009e-11 2.69287880e-13 0.00000000e+00 1.50383130e-11 0.00000000e+00 2.69964435e-13
1.06225216e+01 1.47829537e-11 2.44028971e-13 0.00000000e+00 1.45389248e-11 0.00000000e+00 2.44577592e-13
1.09780260e+01 1.43628193e-11 2.21149223e-13 0.00000000e+00 1.41416701e-11 0.00000000e+00 2.21578069e-13
1.13454280e+01 1.39918682e-11 2.00404816e-13 0.00000000e+00 1.37914634e-11 0.00000000e+00 2.00741370e-13
1.17251259e+01 1.37033295e-11 1.81598288e-13 0.00000000e+00 1.35217312e-11 0.00000000e+00 1.81864106e-13
1.21175312e+01 1.33306918e-11 1.64553147e-13 0.00000000e+00 1.31661386e-11 0.00000000e+00 1.64762018e-13
1.25230691e+01 1.30583550e-11 1.49104498e-13 0.00000000e+00 1.29092505e-11 0.00000000e+00 1.49268171e-13
1.29421791e+01 1.27792490e-11 1.35102179e-13 0.00000000e+00 1.26441469e-11 0.00000000e+00 1.35231331e-13
1.33753155e+01 1.24308513e-11 1.22411844e-13 0.00000000e+00 1.23084395e-11 0.00000000e+00 1.22514483e-13
1.38229477e+01 1.22334945e-11 1.10908168e-13 0.00000000e+00 1.21225863e-11 0.00000000e+00 1.10993499e-13
1.42855609e+01 1.21347776e-11 1.00481757e-13 0.00000000e+00 1.20342959e-11 0.00000000e+00 1.00555922e-13
1.47636563e+01 1.21625282e-11 9.10294839e-14 0.00000000e+00 1.20714987e-11 0.00000000e+00 9.10998706e-14
1.52577522e+01 1.23381434e-11 8.24650372e-14 0.00000000e+00 1.22556784e-11 0.00000000e+00 8.25330452e-14
1.57683840e+01 1.24648797e-11 7.47052722e-14 0.00000000e+00 1.23901744e-11 0.00000000e+00 7.47718247e-14
1.62961051e+01 1.26342924e-11 6.76754025e-14 0.00000000e+00 1.25666170e-11 0.00000000e+00 6.77404517e-14
1.68414875e+01 1.27038909e-11 6.13068556e-14 0.00000000e+00 1.26425840e-11 0.00000000e+00 6.13702932e-14
1.74051222e+01 1.28270092e-11 5.55389293e-14 0.00000000e+00 1.27714703e-11 0.00000000e+00 5.55991699e-14
1.79876201e+01 1.27868974e-11 5.03145049e-14 0.00000000e+00 1.27365829e-11 0.00000000e+00 5.03707500e-14
1.85896125e+01 1.27845787e-11 4.55831083e-14 0.00000000e+00 1.27389956e-11 0.00000000e+00 4.56339988e-14
1.92117518e+01 1.26208171e-11 4.12979797e-14 0.00000000e+00 1.25795191e-11 0.00000000e+00 4.13426810e-14
1.98547123e+01 1.24411507e-11 3.74164102e-14 0.00000000e+00 1.24037343e-11 0.00000000e+00 3.74549090e-14
2.05191907e+01 1.22052244e-11 3.38999116e-14 0.00000000e+00 1.21713245e-11 0.00000000e+00 3.39327342e-14
2.12059073e+01 1.19297205e-11 3.07137978e-14 0.00000000e+00 1.18990067e-11 0.00000000e+00 3.07417768e-14
2.19156062e+01 1.17503610e-11 2.78269234e-14 0.00000000e+00 1.17225341e-11 0.00000000e+00 2.78508898e-14
2.26490567e+01 1.14032363e-11 2.52112933e-14 0.00000000e+00 1.13780250e-11 0.00000000e+00 2.52318552e-14
2.34070535e+01 1.11368837e-11 2.28414351e-14 0.00000000e+00 1.11140422e-11 0.00000000e+00 2.28591087e-14
2.41904183e+01 1.08219729e-11 2.06942604e-14 0.00000000e+00 1.08012787e-11 0.00000000e+00 2.07094900e-14
2.50000000e+01 1.05425632e-11 1.87488648e-14 0.00000000e+00 1.05238144e-11 0.00000000e+00 1.87620165e-14
2.75422870e+01 9.47439848e-12 1.40227754e-14 0.00000000e+00 9.46037570e-12 0.00000000e+00 1.40313526e-14
3.16227766e+01 7.81605418e-12 9.26571008e-15 0.00000000e+00 7.80678847e-12 0.00000000e+00 9.27042274e-15
3.63078055e+01 6.06962408e-12 6.12233188e-15 0.00000000e+00 6.06350175e-12 0.00000000e+00 6.12490756e-15
4.16869383e+01 4.41752935e-12 4.04531585e-15 0.00000000e+00 4.41348403e-12 0.00000000e+00 4.04668630e-15
4.78630092e+01 3.00352277e-12 2.67291259e-15 0.00000000e+00 3.00084985e-12 0.00000000e+00 2.67361912e-15
5.49540874e+01 1.92630957e-12 1.76608614e-15 0.00000000e+00 1.92454348e-12 0.00000000e+00 1.76644264e-15
6.30957344e+01 1.17663008e-12 1.16689949e-15 0.00000000e+00 1.17546318e-12 0.00000000e+00 1.16707708e-15
7.24435960e+01 6.89571673e-13 7.70992344e-16 0.00000000e+00 6.88800681e-13 0.00000000e+00 7.71080178e-16
8.31763771e+01 3.92811699e-13 5.09404250e-16 0.00000000e+00 3.92302295e-13 0.00000000e+00 5.09447621e-16
9.54992586e+01 2.18912868e-13 3.36567238e-16 0.00000000e+00 2.18576301e-13 0.00000000e+00 3.36588705e-16
1.09647820e+02 1.20064069e-13 2.22371290e-16 0.00000000e+00 1.19841698e-13 0.00000000e+00 2.22381952e-16
1.25892541e+02 6.57991659e-14 1.46920924e-16 0.00000000e+00 6.56522449e-14 0.00000000e+00 1.46926299e-16
1.44543977e+02 3.58576752e-14 9.70705136e-17 0.00000000e+00 3.57606047e-14 0.00000000e+00 9.70732430e-17
1.65958691e+02 1.86484019e-14 6.41343173e-17 0.00000000e+00 1.85842676e-14 0.00000000e+00 6.41356556e-17
1.90546072e+02 9.70951412e-15 4.23733448e-17 0.00000000e+00 9.66714078e-15 0.00000000e+00 4.23740075e-17
2.18776162e+02 5.04920864e-15 2.79958990e-17 0.00000000e+00 5.02121274e-15 0.00000000e+00 2.79962291e-17
2.51188643e+02 2.61919277e-15 1.84967601e-17 0.00000000e+00 2.60069601e-15 0.00000000e+00 1.84969251e-17
2.88403150e+02 1.35341067e-15 1.22207147e-17 0.00000000e+00 1.34118995e-15 0.00000000e+00 1.22207972e-17
3.31131121e+02 6.98139962e-16 8.07415929e-18 0.00000000e+00 6.90065803e-16 0.00000000e+00 8.07420067e-18
3.80189396e+02 3.59168681e-16 5.33455073e-18 0.00000000e+00 3.53834130e-16 0.00000000e+00 5.33457148e-18
4.36515832e+02 1.84565101e-16 3.52450601e-18 0.00000000e+00 1.81040595e-16 0.00000000e+00 3.52451642e-18
5.01187234e+02 9.47357089e-17 2.32861968e-18 0.00000000e+00 9.24070892e-17 0.00000000e+00 2.32862491e-18
5.75439937e+02 4.86115512e-17 1.53850460e-18 0.00000000e+00 4.70730466e-17 0.00000000e+00 1.53850722e-18
6.60693448e+02 2.49552328e-17 1.01648032e-18 0.00000000e+00 2.39387524e-17 0.00000000e+00 1.01648164e-18
7.58577575e+02 1.28277032e-17 6.71582097e-19 0.00000000e+00 1.21561211e-17 0.00000000e+00 6.71582760e-19
8.70963590e+02 6.60718602e-18 4.43709996e-19 0.00000000e+00 6.16347602e-18 0.00000000e+00 4.43710329e-19
1.00000000e+03 3.12050705e-18 0.00000000e+00 0.00000000e+00 3.12050705e-18 0.00000000e+00 0.00000000e+00
