# column 1: lambda (micron)
# column 2: total flux; lambda*F_lambda (W/m2)
# column 3: direct stellar flux; lambda*F_lambda (W/m2)
# column 4: scattered stellar flux; lambda*F_lambda (W/m2)
# column 5: total dust emission flux; lambda*F_lambda (W/m2)
# column 6: dust emission scattered flux; lambda*F_lambda (W/m2)
# column 7: transparent flux; lambda*F_lambda (W/m2)
1.00000000e-03 5.25636803e-13 5.25636674e-13 1.29698692e-19 0.00000000e+00 0.00000000e+00 5.25636674e-13
1.14815362e-03 6.20420009e-13 6.20419813e-13 1.95719053e-19 0.00000000e+00 0.00000000e+00 6.20419813e-13
1.31825674e-03 7.32294682e-13 7.32294308e-13 3.74179955e-19 0.00000000e+00 0.00000000e+00 7.32294308e-13
1.51356125e-03 8.64342660e-13 8.64342083e-13 5.77197216e-19 0.00000000e+00 0.00000000e+00 8.64342083e-13
1.73780083e-03 1.02020173e-12 1.02020080e-12 9.35067530e-19 0.00000000e+00 0.00000000e+00 1.02020080e-12
1.99526231e-03 1.20416581e-12 1.20416405e-12 1.75245550e-18 0.00000000e+00 0.00000000e+00 1.20416405e-12
2.29086765e-03 1.42130261e-12 1.42129968e-12 2.93207418e-18 0.00000000e+00 0.00000000e+00 1.42129968e-12
2.63026799e-03 1.67759491e-12 1.67758934e-12 5.57140510e-18 0.00000000e+00 0.00000000e+00 1.67758934e-12
3.01995172e-03 1.98010341e-12 1.98009332e-12 1.00867544e-17 0.00000000e+00 0.00000000e+00 1.98009332e-12
3.46736850e-03 2.33716172e-12 2.33714500e-12 1.67151887e-17 0.00000000e+00 0.00000000e+00 2.33714500e-12
3.98107171e-03 2.75860866e-12 2.75858048e-12 2.81796570e-17 0.00000000e+00 0.00000000e+00 2.75858048e-12
4.57088190e-03 3.25606944e-12 3.25600946e-12 5.99799366e-17 0.00000000e+00 0.00000000e+00 3.25600946e-12
5.24807460e-03 3.84325657e-12 3.84313516e-12 1.21413783e-16 0.00000000e+00 0.00000000e+00 3.84313516e-12
6.02559586e-03 4.53634008e-12 4.53613173e-12 2.08350381e-16 0.00000000e+00 0.00000000e+00 4.53613173e-12
6.91830971e-03 5.35439038e-12 5.35408989e-12 3.00484289e-16 0.00000000e+00 0.00000000e+00 5.35408989e-12
7.94328235e-03 6.32008504e-12 6.31954278e-12 5.42251434e-16 3.13463461e-303 2.18760732e-305 6.31954278e-12
9.12010839e-03 7.45997171e-12 7.45908676e-12 8.84958722e-16 1.58145836e-264 8.18118976e-267 7.45908676e-12
1.04712855e-02 8.33199948e-12 8.33078048e-12 1.21900259e-15 7.57665925e-231 4.51205197e-233 8.33078048e-12
1.20226443e-02 8.33262127e-12 8.33078048e-12 1.84079418e-15 1.33992631e-201 2.66144700e-203 8.33078048e-12
1.38038426e-02 8.33353354e-12 8.33078048e-12 2.75306751e-15 3.98625362e-176 5.97816450e-178 8.33078048e-12
1.58489319e-02 8.33426451e-12 8.33078048e-12 3.48403275e-15 5.84623196e-154 8.76863289e-156 8.33078048e-12
1.81970086e-02 8.33537087e-12 8.33078048e-12 4.59039331e-15 1.11820816e-134 1.66688032e-136 8.33078048e-12
2.08929613e-02 8.33993965e-12 8.33078048e-12 9.15917893e-15 6.23482420e-118 1.21473813e-119 8.33078048e-12
2.39883292e-02 8.33961675e-12 8.33078048e-12 8.83627798e-15 2.30991744e-103 5.09382666e-105 8.33078048e-12
2.75422870e-02 8.34237771e-12 8.33078048e-12 1.15972329e-14 1.08550643e-90 2.82024730e-92 8.33078048e-12
3.16227766e-02 8.34552940e-12 8.33078048e-12 1.47489279e-14 1.10450749e-79 3.35026097e-81 8.33078048e-12
3.63078055e-02 8.34741891e-12 8.33078048e-12 1.66384360e-14 3.96288046e-70 1.23650951e-71 8.33078048e-12
4.16869383e-02 8.35369282e-12 8.33078048e-12 2.29123444e-14 7.79925028e-62 3.01707854e-63 8.33078048e-12
4.78630092e-02 8.36251133e-12 8.33078048e-12 3.17308576e-14 1.21156800e-54 5.60925365e-56 8.33078048e-12
5.49540874e-02 8.37106206e-12 8.33078048e-12 4.02815878e-14 2.05777354e-48 1.05873949e-49 8.33078048e-12
6.30957344e-02 8.37968648e-12 8.33078048e-12 4.89059996e-14 6.75838398e-43 3.78338408e-44 8.33078048e-12
7.24435960e-02 8.37914681e-12 8.33078048e-12 4.83663358e-14 3.95564621e-38 2.04745592e-39 8.33078048e-12
8.31763771e-02 8.38082760e-12 8.33078048e-12 5.00471252e-14 4.11589348e-34 2.13575480e-35 8.33078048e-12
9.54992586e-02 8.38125220e-12 8.33078048e-12 5.04717226e-14 1.17704970e-30 6.30659313e-32 8.33078048e-12
1.09647820e-01 8.00475677e-12 7.95583672e-12 4.89200497e-14 1.01603417e-27 5.99571140e-29 7.95583672e-12
1.25892541e-01 7.46656716e-12 7.42481883e-12 4.17483267e-14 3.33570311e-25 1.97823710e-26 7.42481883e-12
1.44543977e-01 6.96545691e-12 6.92924411e-12 3.62128037e-14 4.60335106e-23 2.74564208e-24 6.92924411e-12
1.65958691e-01 6.50462237e-12 6.46674687e-12 3.78754979e-14 2.35688552e-21 1.58312234e-22 6.46674687e-12
1.90546072e-01 6.07747380e-12 6.03511933e-12 4.23544244e-14 4.99737987e-20 3.90784874e-21 6.03511933e-12
2.18776162e-01 5.67506670e-12 5.63230107e-12 4.27650375e-14 5.93311622e-19 4.74161346e-20 5.63230107e-12
2.51188643e-01 5.30462732e-12 5.25636919e-12 4.82508278e-14 7.30006320e-18 7.35066867e-19 5.25636919e-12
2.88403150e-01 4.94762011e-12 4.90552916e-12 4.20297396e-14 6.12177885e-17 6.19877449e-18 4.90552916e-12
3.31131121e-01 4.61806237e-12 4.57810618e-12 3.96034592e-14 3.52732225e-16 3.50131403e-17 4.57810618e-12
3.80189396e-01 4.30844437e-12 4.27253728e-12 3.44297335e-14 1.47735171e-15 1.45766027e-16 4.27253728e-12
4.36515832e-01 4.02461513e-12 3.98736380e-12 3.25615036e-14 4.68982817e-15 4.58700424e-16 3.98736380e-12
5.01187234e-01 3.76230846e-12 3.72122441e-12 2.93484434e-14 1.17356022e-14 1.14263183e-15 3.72122441e-12
5.75439937e-01 3.52408969e-12 3.47284869e-12 2.71276668e-14 2.41133374e-14 2.31484191e-15 3.47284869e-12
6.60693448e-01 3.30633374e-12 3.24105097e-12 2.31930019e-14 4.20897679e-14 3.94630725e-15 3.24105097e-12
7.58577575e-01 3.11043293e-12 3.02472476e-12 2.07840049e-14 6.49241653e-14 5.88146851e-15 3.02472476e-12
8.70963590e-01 2.93197082e-12 2.82283739e-12 1.85854939e-14 9.05479400e-14 7.85512130e-15 2.82283739e-12
1.00000000e+00 2.76539493e-12 2.63442513e-12 1.54363115e-14 1.15533484e-13 9.33137256e-15 2.63442513e-12
1.14815362e+00 2.61171800e-12 2.45858859e-12 1.24185847e-14 1.40710829e-13 1.03838998e-14 2.45858859e-12
1.31825674e+00 2.47205208e-12 2.29448837e-12 9.72083799e-15 1.67842868e-13 1.10922947e-14 2.29448837e-12
1.51356125e+00 2.34752368e-12 2.14134114e-12 7.32313760e-15 1.98859399e-13 1.14077936e-14 2.14134114e-12
1.73780083e+00 2.23768850e-12 1.99841583e-12 5.17582124e-15 2.34096852e-13 1.09447205e-14 1.99841583e-12
1.99526231e+00 2.14083088e-12 1.86503017e-12 3.59797599e-15 2.72202736e-13 9.91204168e-15 1.86503017e-12
2.29086765e+00 2.05045157e-12 1.74054743e-12 2.43588691e-15 3.07468253e-13 8.40207898e-15 1.74054743e-12
2.63026799e+00 1.95949553e-12 1.62437337e-12 1.68238498e-15 3.33439775e-13 6.80141505e-15 1.62437337e-12
3.01995172e+00 1.86218528e-12 1.51595343e-12 1.16451227e-15 3.45067328e-13 5.31617835e-15 1.51595343e-12
3.46736850e+00 1.75834043e-12 1.41477006e-12 7.39403542e-16 3.42830961e-13 4.07699495e-15 1.41477006e-12
3.98107171e+00 1.64699360e-12 1.32034025e-12 5.26863890e-16 3.26126494e-13 3.04232272e-15 1.32034025e-12
4.57088190e+00 1.53553253e-12 1.23221321e-12 3.41583533e-16 3.02977729e-13 2.15357724e-15 1.23221321e-12
5.24807460e+00 1.29511949e-12 1.01885146e-12 2.03444301e-16 2.76064582e-13 1.49146763e-15 1.01885146e-12
6.02559586e+00 9.23856081e-13 6.73148485e-13 8.99355099e-17 2.50617660e-13 9.74431259e-16 6.73148485e-13
6.70000000e+00 7.21469218e-13 4.89650796e-13 4.57075966e-17 2.31772714e-13 6.80867267e-16 4.89650796e-13
6.92422916e+00 6.69261561e-13 4.43605145e-13 3.69511575e-17 2.25619465e-13 5.96501872e-16 4.43605145e-13
7.15596261e+00 6.23805474e-13 4.01889522e-13 2.75049505e-17 2.21888446e-13 5.22918685e-16 4.01889522e-13
7.39545150e+00 5.87463239e-13 3.64096743e-13 2.27691629e-17 2.23343727e-13 4.46522206e-16 3.64096743e-13
7.64295536e+00 5.69319618e-13 3.29857910e-13 1.54534467e-17 2.39446255e-13 3.66410732e-16 3.29857910e-13
7.89874245e+00 5.78037854e-13 2.98838820e-13 9.14275180e-18 2.79189891e-13 2.87950900e-16 2.98838820e-13
8.16308998e+00 6.09193543e-13 2.70736695e-13 5.54288040e-18 3.38451306e-13 2.20769546e-16 2.70736695e-13
8.43628443e+00 6.67360413e-13 2.45277229e-13 2.98483500e-18 4.22080199e-13 1.66653872e-16 2.45277229e-13
8.71862190e+00 7.05779087e-13 2.22211915e-13 1.92752925e-18 4.83565245e-13 1.30012442e-16 2.22211915e-13
9.01040836e+00 7.45411493e-13 2.01315610e-13 1.33249289e-18 5.44094551e-13 9.84744427e-17 2.01315610e-13
9.31196005e+00 7.77897885e-13 1.82384346e-13 0.00000000e+00 5.95513539e-13 0.00000000e+00 1.82384346e-13
9.62360379e+00 7.54482226e-13 1.65233336e-13 0.00000000e+00 5.89248890e-13 0.00000000e+00 1.65233336e-13
9.94567731e+00 6.93304367e-13 1.49695167e-13 0.00000000e+00 5.43609200e-13 0.00000000e+00 1.49695167e-13
1.02785297e+01 6.25882914e-13 1.35618173e-13 0.00000000e+00 4.90264741e-13 0.00000000e+00 1.35618173e-13
1.06225216e+01 5.62289320e-13 1.22864947e-13 0.00000000e+00 4.39424373e-13 0.00000000e+00 1.22864947e-13
1.09780260e+01 4.96795679e-13 1.11311006e-13 0.00000000e+00 3.85484673e-13 0.00000000e+00 1.11311006e-13
1.13454280e+01 4.38341744e-13 1.00843571e-13 0.00000000e+00 3.37498173e-13 0.00000000e+00 1.00843571e-13
1.17251259e+01 3.93071681e-13 9.13604705e-14 0.00000000e+00 3.01711210e-13 0.00000000e+00 9.13604705e-14
1.21175312e+01 3.51052436e-13 8.27691389e-14 0.00000000e+00 2.68283297e-13 0.00000000e+00 8.27691389e-14
1.25230691e+01 3.14321872e-13 7.49857166e-14 0.00000000e+00 2.39336155e-13 0.00000000e+00 7.49857166e-14
1.29421791e+01 2.83671516e-13 6.79342298e-14 0.00000000e+00 2.15737286e-13 0.00000000e+00 6.79342298e-14
1.33753155e+01 2.57658426e-13 6.15458488e-14 0.00000000e+00 1.96112577e-13 0.00000000e+00 6.15458488e-14
1.38229477e+01 2.39123119e-13 5.57582167e-14 0.00000000e+00 1.83364902e-13 0.00000000e+00 5.57582167e-14
1.42855609e+01 2.25904256e-13 5.05148403e-14 0.00000000e+00 1.75389415e-13 0.00000000e+00 5.05148403e-14
1.47636563e+01 2.22532499e-13 4.57645392e-14 0.00000000e+00 1.76767960e-13 0.00000000e+00 4.57645392e-14
1.52577522e+01 2.21532369e-13 4.14609457e-14 0.00000000e+00 1.80071423e-13 0.00000000e+00 4.14609457e-14
1.57683840e+01 2.21964964e-13 3.75620523e-14 0.00000000e+00 1.84402912e-13 0.00000000e+00 3.75620523e-14
1.62961051e+01 2.22787461e-13 3.40298020e-14 0.00000000e+00 1.88757659e-13 0.00000000e+00 3.40298020e-14
1.68414875e+01 2.23291372e-13 3.08297166e-14 0.00000000e+00 1.92461655e-13 0.00000000e+00 3.08297166e-14
1.74051222e+01 2.22824371e-13 2.79305599e-14 0.00000000e+00 1.94893811e-13 0.00000000e+00 2.79305599e-14
1.79876201e+01 2.19520048e-13 2.53040334e-14 0.00000000e+00 1.94216014e-13 0.00000000e+00 2.53040334e-14
1.85896125e+01 2.13313355e-13 2.29244994e-14 0.00000000e+00 1.90388856e-13 0.00000000e+00 2.29244994e-14
1.92117518e+01 2.05225227e-13 2.07687314e-14 0.00000000e+00 1.84456496e-13 0.00000000e+00 2.07687314e-14
1.98547123e+01 1.94805446e-13 1.88156870e-14 0.00000000e+00 1.75989759e-13 0.00000000e+00 1.88156870e-14
2.05191907e+01 1.85154655e-13 1.70463024e-14 0.00000000e+00 1.68108352e-13 0.00000000e+00 1.70463024e-14
2.12059073e+01 1.76106802e-13 1.54433068e-14 0.00000000e+00 1.60663495e-13 0.00000000e+00 1.54433068e-14
2.19156062e+01 1.67593733e-13 1.39910532e-14 0.00000000e+00 1.53602679e-13 0.00000000e+00 1.39910532e-14
2.26490567e+01 1.60293157e-13 1.26753663e-14 0.00000000e+00 1.47617791e-13 0.00000000e+00 1.26753663e-14
2.34070535e+01 1.53046531e-13 1.14834036e-14 0.00000000e+00 1.41563128e-13 0.00000000e+00 1.14834036e-14
2.41904183e+01 1.45933581e-13 1.04035303e-14 0.00000000e+00 1.35530050e-13 0.00000000e+00 1.04035303e-14
2.50000000e+01 1.40206489e-13 9.42520591e-15 0.00000000e+00 1.30781283e-13 0.00000000e+00 9.42520591e-15
2.75422870e+01 1.23205580e-13 7.04872996e-15 0.00000000e+00 1.16156850e-13 0.00000000e+00 7.04872996e-15
3.16227766e+01 1.00718445e-13 4.65704970e-15 0.00000000e+00 9.60613957e-14 0.00000000e+00 4.65704970e-15
3.63078055e+01 7.89676290e-14 3.07688223e-15 0.00000000e+00 7.58907468e-14 0.00000000e+00 3.07688223e-15
4.16869383e+01 5.85921067e-14 2.03287593e-15 0.00000000e+00 5.65592308e-14 0.00000000e+00 2.03287593e-15
4.78630092e+01 4.09611750e-14 1.34310781e-15 0.00000000e+00 3.96180672e-14 0.00000000e+00 1.34310781e-15
5.49540874e+01 2.71697383e-14 8.87382527e-16 0.00000000e+00 2.62823558e-14 0.00000000e+00 8.87382527e-16
6.30957344e+01 1.73220012e-14 5.86287821e-16 0.00000000e+00 1.67357134e-14 0.00000000e+00 5.86287821e-16
7.24435960e+01 1.06493087e-14 3.87356522e-16 0.00000000e+00 1.02619521e-14 0.00000000e+00 3.87356522e-16
8.31763771e+01 6.37219234e-15 2.55923916e-16 0.00000000e+00 6.11626843e-15 0.00000000e+00 2.55923916e-16
9.54992586e+01 3.73286415e-15 1.69087255e-16 0.00000000e+00 3.56377690e-15 0.00000000e+00 1.69087255e-16
1.09647820e+02 2.15208452e-15 1.11714841e-16 0.00000000e+00 2.04036968e-15 0.00000000e+00 1.11714841e-16
1.25892541e+02 1.23778154e-15 7.38092637e-17 0.00000000e+00 1.16397227e-15 0.00000000e+00 7.38092637e-17
1.44543977e+02 7.06544240e-16 4.87652969e-17 0.00000000e+00 6.57778943e-16 0.00000000e+00 4.87652969e-17
1.65958691e+02 3.84929546e-16 3.22189122e-17 0.00000000e+00 3.52710634e-16 0.00000000e+00 3.22189122e-17
1.90546072e+02 2.10033669e-16 2.12868242e-17 0.00000000e+00 1.88746844e-16 0.00000000e+00 2.12868242e-17
2.18776162e+02 1.14632171e-16 1.40640653e-17 0.00000000e+00 1.00568106e-16 0.00000000e+00 1.40640653e-17
2.51188643e+02 6.25524937e-17 9.29203577e-18 0.00000000e+00 5.32604580e-17 0.00000000e+00 9.29203577e-18
2.88403150e+02 3.41509955e-17 6.13918715e-18 0.00000000e+00 2.80118084e-17 0.00000000e+00 6.13918715e-18
3.31131121e+02 1.87182007e-17 4.05612073e-18 0.00000000e+00 1.46620800e-17 0.00000000e+00 4.05612073e-18
3.80189396e+02 1.03112612e-17 2.67985239e-18 0.00000000e+00 7.63140879e-18 0.00000000e+00 2.67985239e-18
4.36515832e+02 5.72662387e-18 1.77056092e-18 0.00000000e+00 3.95606295e-18 0.00000000e+00 1.77056092e-18
5.01187234e+02 3.21214447e-18 1.16979800e-18 0.00000000e+00 2.04234648e-18 0.00000000e+00 1.16979800e-18
5.75439937e+02 1.82364260e-18 7.72877871e-19 0.00000000e+00 1.05076473e-18 0.00000000e+00 7.72877871e-19
6.60693448e+02 1.04963445e-18 5.10635346e-19 0.00000000e+00 5.38999105e-19 0.00000000e+00 5.10635346e-19
7.58577575e+02 6.13143449e-19 3.37373427e-19 0.00000000e+00 2.75770022e-19 0.00000000e+00 3.37373427e-19
8.70963590e+02 3.63641046e-19 2.22900413e-19 0.00000000e+00 1.40740633e-19 0.00000000e+00 2.22900413e-19
1.00000000e+03 7.16627928e-20 0.00000000e+00 0.00000000e+00 7.16627928e-20 0.00000000e+00 0.00000000e+00
