# column 1: lambda (micron)
# column 2: total flux; lambda*F_lambda (W/m2)
# column 3: direct stellar flux; lambda*F_lambda (W/m2)
# column 4: scattered stellar flux; lambda*F_lambda (W/m2)
# column 5: total dust emission flux; lambda*F_lambda (W/m2)
# column 6: dust emission scattered flux; lambda*F_lambda (W/m2)
# column 7: transparent flux; lambda*F_lambda (W/m2)
1.00000000e-03 1.04634401e-12 1.04634360e-12 4.02472479e-19 0.00000000e+00 0.00000000e+00 1.04634360e-12
1.14815362e-03 1.23502161e-12 1.23502095e-12 6.57971772e-19 0.00000000e+00 0.00000000e+00 1.23502095e-12
1.31825674e-03 1.45772169e-12 1.45772071e-12 9.79778995e-19 0.00000000e+00 0.00000000e+00 1.45772071e-12
1.51356125e-03 1.72057940e-12 1.72057784e-12 1.55952655e-18 0.00000000e+00 0.00000000e+00 1.72057784e-12
1.73780083e-03 2.03083629e-12 2.03083353e-12 2.76226968e-18 0.00000000e+00 0.00000000e+00 2.03083353e-12
1.99526231e-03 2.39703962e-12 2.39703472e-12 4.90114972e-18 0.00000000e+00 0.00000000e+00 2.39703472e-12
2.29086765e-03 2.82927702e-12 2.82926954e-12 7.48056268e-18 0.00000000e+00 0.00000000e+00 2.82926954e-12
2.63026799e-03 3.33946084e-12 3.33944522e-12 1.56152956e-17 0.00000000e+00 0.00000000e+00 3.33944522e-12
3.01995172e-03 3.94164185e-12 3.94161611e-12 2.57365522e-17 0.00000000e+00 0.00000000e+00 3.94161611e-12
3.46736850e-03 4.65241128e-12 4.65237083e-12 4.04472992e-17 0.00000000e+00 0.00000000e+00 4.65237083e-12
3.98107171e-03 5.49135292e-12 5.49128930e-12 6.36283531e-17 0.00000000e+00 0.00000000e+00 5.49128930e-12
4.57088190e-03 6.48163228e-12 6.48148207e-12 1.50203544e-16 0.00000000e+00 0.00000000e+00 6.48148207e-12
5.24807460e-03 7.65049414e-12 7.65022704e-12 2.67094683e-16 0.00000000e+00 0.00000000e+00 7.65022704e-12
6.02559586e-03 9.03019594e-12 9.02972084e-12 4.75095165e-16 0.00000000e+00 0.00000000e+00 9.02972084e-12
6.91830971e-03 1.06587229e-11 1.06579658e-11 7.57083903e-16 0.00000000e+00 0.00000000e+00 1.06579658e-11
7.94328235e-03 1.25810363e-11 1.25798170e-11 1.21922910e-15 0.00000000e+00 0.00000000e+00 1.25798170e-11
9.12010839e-03 1.48501306e-11 1.48482176e-11 1.91294506e-15 0.00000000e+00 0.00000000e+00 1.48482176e-11
1.04712855e-02 1.65860594e-11 1.65834298e-11 2.62960912e-15 0.00000000e+00 0.00000000e+00 1.65834298e-11
1.20226443e-02 1.65874657e-11 1.65834298e-11 4.03596270e-15 1.32787215e-311 5.50957858e-314 1.65834298e-11
1.38038426e-02 1.65896061e-11 1.65834298e-11 6.17632941e-15 3.92127711e-272 2.34897481e-274 1.65834298e-11
1.58489319e-02 1.65915022e-11 1.65834298e-11 8.07237895e-15 8.88938579e-238 7.59622075e-240 1.65834298e-11
1.81970086e-02 1.65941808e-11 1.65834298e-11 1.07509661e-14 7.02726748e-208 7.21977891e-210 1.65834298e-11
2.08929613e-02 1.65982702e-11 1.65834298e-11 1.48403935e-14 6.88834816e-182 9.41956929e-184 1.65834298e-11
2.39883292e-02 1.66055012e-11 1.65834298e-11 2.20714505e-14 2.88537067e-159 5.07718544e-161 1.65834298e-11
2.75422870e-02 1.66125168e-11 1.65834298e-11 2.90869821e-14 1.40073990e-139 3.19862865e-141 1.65834298e-11
3.16227766e-02 1.66187140e-11 1.65834298e-11 3.52842037e-14 1.83111380e-122 5.04830805e-124 1.65834298e-11
3.63078055e-02 1.66250125e-11 1.65834298e-11 4.15826780e-14 1.37872057e-107 4.36913162e-109 1.65834298e-11
4.16869383e-02 1.66417117e-11 1.65834298e-11 5.82818718e-14 1.17202248e-94 5.06045575e-96 1.65834298e-11
4.78630092e-02 1.66622904e-11 1.65834298e-11 7.88605736e-14 1.99620670e-83 1.16633474e-84 1.65834298e-11
5.49540874e-02 1.66832967e-11 1.65834298e-11 9.98669490e-14 1.12497701e-73 8.24186230e-75 1.65834298e-11
6.30957344e-02 1.67017562e-11 1.65834298e-11 1.18326416e-13 4.34123963e-65 3.84559938e-66 1.65834298e-11
7.24435960e-02 1.66995980e-11 1.65834298e-11 1.16168251e-13 1.20408309e-57 1.04255516e-58 1.65834298e-11
8.31763771e-02 1.66951713e-11 1.65834298e-11 1.11741523e-13 2.74273523e-51 2.39332114e-52 1.65834298e-11
9.54992586e-02 1.67033913e-11 1.65834298e-11 1.19961559e-13 9.10170790e-46 8.42815808e-47 1.65834298e-11
1.09647820e-01 1.59635744e-11 1.58370587e-11 1.26515641e-13 5.45330255e-41 5.60746099e-42 1.58370587e-11
1.25892541e-01 1.48939214e-11 1.47800032e-11 1.13918211e-13 8.16628960e-37 8.64666617e-38 1.47800032e-11
1.44543977e-01 1.38967198e-11 1.37935015e-11 1.03218318e-13 3.56251205e-33 3.84465304e-34 1.37935015e-11
1.65958691e-01 1.29827905e-11 1.28728446e-11 1.09945920e-13 4.11154029e-30 5.16607790e-31 1.28728446e-11
1.90546072e-01 1.21413620e-11 1.20136376e-11 1.27724367e-13 1.39864097e-27 2.10127162e-28 1.20136376e-11
2.18776162e-01 1.13401047e-11 1.12117790e-11 1.28325782e-13 1.91353961e-25 3.03010366e-26 1.12117790e-11
2.51188643e-01 1.06180474e-11 1.04634409e-11 1.54606500e-13 2.17906353e-23 4.36535189e-24 1.04634409e-11
2.88403150e-01 9.90747411e-12 9.76505125e-12 1.42422857e-13 1.29395742e-21 2.70556392e-22 9.76505125e-12
3.31131121e-01 9.24550816e-12 9.11327608e-12 1.32232041e-13 4.19427436e-20 8.94099368e-21 9.11327608e-12
3.80189396e-01 8.62360392e-12 8.50500410e-12 1.18599007e-13 8.20331512e-19 1.79172543e-19 8.50500410e-12
4.36515832e-01 8.05206392e-12 7.93733165e-12 1.14721852e-13 1.04220487e-17 2.38174018e-18 7.93733165e-12
5.01187234e-01 7.51457286e-12 7.40754890e-12 1.06933646e-13 9.03163825e-17 2.16048618e-17 7.40754890e-12
5.75439937e-01 7.01715187e-12 6.91312687e-12 1.03456568e-13 5.68437005e-16 1.39759905e-16 6.91312687e-12
6.60693448e-01 6.55121778e-12 6.45170538e-12 9.68016988e-14 2.71070343e-15 6.79515009e-16 6.45170538e-12
7.58577575e-01 6.11991163e-12 6.02108180e-12 8.85894290e-14 1.02404072e-14 2.54879091e-15 6.02108180e-12
8.70963590e-01 5.73059033e-12 5.61920048e-12 7.97153601e-14 3.16744933e-14 7.62328046e-15 5.61920048e-12
1.00000000e+00 5.39726277e-12 5.24414302e-12 7.12285981e-14 8.18911604e-14 1.84859052e-14 5.24414302e-12
1.14815362e+00 5.13816057e-12 4.89411902e-12 5.96092341e-14 1.84432309e-13 3.77195556e-14 4.89411902e-12
1.31825674e+00 4.98289176e-12 4.56745763e-12 4.73748274e-14 3.68059306e-13 6.54284058e-14 4.56745763e-12
1.51356125e+00 4.95158502e-12 4.26259947e-12 3.71953193e-14 6.51790225e-13 9.74190208e-14 4.26259947e-12
1.73780083e+00 5.02840592e-12 3.97808929e-12 2.76337212e-14 1.02268291e-12 1.24816647e-13 3.97808929e-12
1.99526231e+00 5.16978476e-12 3.71256894e-12 2.02104425e-14 1.43700538e-12 1.36667964e-13 3.71256894e-12
2.29086765e+00 5.30184106e-12 3.46477093e-12 1.41082119e-14 1.82296192e-12 1.30920597e-13 3.46477093e-12
2.63026799e+00 5.36581501e-12 3.23351237e-12 9.76518296e-15 2.12253746e-12 1.13783616e-13 3.23351237e-12
3.01995172e+00 5.31896309e-12 3.01768933e-12 6.79950600e-15 2.29447425e-12 9.12250112e-14 3.01768933e-12
3.46736850e+00 5.16346606e-12 2.81627154e-12 4.45542772e-15 2.34273908e-12 6.89713264e-14 2.81627154e-12
3.98107171e+00 4.91250578e-12 2.62829753e-12 3.07235246e-15 2.28113590e-12 4.97693456e-14 2.62829753e-12
4.57088190e+00 4.59857740e-12 2.45286997e-12 2.02139482e-15 2.14368604e-12 3.37933428e-14 2.45286997e-12
5.24807460e+00 3.99984991e-12 2.02814751e-12 1.15186410e-15 1.97055053e-12 2.18587421e-14 2.02814751e-12
6.02559586e+00 3.13643759e-12 1.33998377e-12 5.02244903e-16 1.79595157e-12 1.33522553e-14 1.33998377e-12
6.70000000e+00 2.63606270e-12 9.74709347e-13 2.53538363e-16 1.66109981e-12 8.82609997e-15 9.74709347e-13
6.92422916e+00 2.50027799e-12 8.83049889e-13 2.06626741e-16 1.61702147e-12 7.65086868e-15 8.83049889e-13
7.15596261e+00 2.38875723e-12 8.00009879e-13 1.62189516e-16 1.58858516e-12 6.52526493e-15 8.00009879e-13
7.39545150e+00 2.32075248e-12 7.24778763e-13 1.21802441e-16 1.59585192e-12 5.58953233e-15 7.24778763e-13
7.64295536e+00 2.36098823e-12 6.56622211e-13 8.59626052e-17 1.70428005e-12 4.67730100e-15 6.56622211e-13
7.89874245e+00 2.55680014e-12 5.94874946e-13 5.37504402e-17 1.96187144e-12 3.78748392e-15 5.94874946e-13
8.16308998e+00 2.86653386e-12 5.38934254e-13 3.12296652e-17 2.32756837e-12 3.00379034e-15 5.38934254e-13
8.43628443e+00 3.29641801e-12 4.88254098e-13 1.74684867e-17 2.80814644e-12 2.31848250e-15 4.88254098e-13
8.71862190e+00 3.56696706e-12 4.42339790e-13 1.12332825e-17 3.12461604e-12 1.82690366e-15 4.42339790e-13
9.01040836e+00 3.83983236e-12 4.00743158e-13 7.44133368e-18 3.43908176e-12 1.41431003e-15 4.00743158e-13
9.31196005e+00 4.01549614e-12 3.63058180e-13 0.00000000e+00 3.65243796e-12 0.00000000e+00 3.63058180e-13
9.62360379e+00 3.94490672e-12 3.28917012e-13 0.00000000e+00 3.61598971e-12 0.00000000e+00 3.28917012e-13
9.94567731e+00 3.68123881e-12 2.97986401e-13 0.00000000e+00 3.38325241e-12 0.00000000e+00 2.97986401e-13
1.02785297e+01 3.38488717e-12 2.69964435e-13 0.00000000e+00 3.11492273e-12 0.00000000e+00 2.69964435e-13
1.06225216e+01 3.09244491e-12 2.44577592e-13 0.00000000e+00 2.84786732e-12 0.00000000e+00 2.44577592e-13
1.09780260e+01 2.77716346e-12 2.21578069e-13 0.00000000e+00 2.55558539e-12 0.00000000e+00 2.21578069e-13
1.13454280e+01 2.51804547e-12 2.00741370e-13 0.00000000e+00 2.31730410e-12 0.00000000e+00 2.00741370e-13
1.17251259e+01 2.27696190e-12 1.81864106e-13 0.00000000e+00 2.09509779e-12 0.00000000e+00 1.81864106e-13
1.21175312e+01 2.06426680e-12 1.64762018e-13 0.00000000e+00 1.89950478e-12 0.00000000e+00 1.64762018e-13
1.25230691e+01 1.86431838e-12 1.49268171e-13 0.00000000e+00 1.71505021e-12 0.00000000e+00 1.49268171e-13
1.29421791e+01 1.70126954e-12 1.35231331e-13 0.00000000e+00 1.56603821e-12 0.00000000e+00 1.35231331e-13
1.33753155e+01 1.54974743e-12 1.22514483e-13 0.00000000e+00 1.42723294e-12 0.00000000e+00 1.22514483e-13
1.38229477e+01 1.45139722e-12 1.10993499e-13 0.00000000e+00 1.34040372e-12 0.00000000e+00 1.10993499e-13
1.42855609e+01 1.39161304e-12 1.00555922e-13 0.00000000e+00 1.29105712e-12 0.00000000e+00 1.00555922e-13
1.47636563e+01 1.39649733e-12 9.10998706e-14 0.00000000e+00 1.30539746e-12 0.00000000e+00 9.10998706e-14
1.52577522e+01 1.41884096e-12 8.25330452e-14 0.00000000e+00 1.33630791e-12 0.00000000e+00 8.25330452e-14
1.57683840e+01 1.44920450e-12 7.47718247e-14 0.00000000e+00 1.37443267e-12 0.00000000e+00 7.47718247e-14
1.62961051e+01 1.47765014e-12 6.77404517e-14 0.00000000e+00 1.40990969e-12 0.00000000e+00 6.77404517e-14
1.68414875e+01 1.51008371e-12 6.13702932e-14 0.00000000e+00 1.44871342e-12 0.00000000e+00 6.13702932e-14
1.74051222e+01 1.52150747e-12 5.55991699e-14 0.00000000e+00 1.46590830e-12 0.00000000e+00 5.55991699e-14
1.79876201e+01 1.52310299e-12 5.03707500e-14 0.00000000e+00 1.47273224e-12 0.00000000e+00 5.03707500e-14
1.85896125e+01 1.49971152e-12 4.56339988e-14 0.00000000e+00 1.45407753e-12 0.00000000e+00 4.56339988e-14
1.92117518e+01 1.45554327e-12 4.13426810e-14 0.00000000e+00 1.41420059e-12 0.00000000e+00 4.13426810e-14
1.98547123e+01 1.39907865e-12 3.74549090e-14 0.00000000e+00 1.36162374e-12 0.00000000e+00 3.74549090e-14
2.05191907e+01 1.34091177e-12 3.39327342e-14 0.00000000e+00 1.30697903e-12 0.00000000e+00 3.39327342e-14
2.12059073e+01 1.28107368e-12 3.07417768e-14 0.00000000e+00 1.25033191e-12 0.00000000e+00 3.07417768e-14
2.19156062e+01 1.22797779e-12 2.78508898e-14 0.00000000e+00 1.20012690e-12 0.00000000e+00 2.78508898e-14
2.26490567e+01 1.17971839e-12 2.52318552e-14 0.00000000e+00 1.15448653e-12 0.00000000e+00 2.52318552e-14
2.34070535e+01 1.13234123e-12 2.28591087e-14 0.00000000e+00 1.10948212e-12 0.00000000e+00 2.28591087e-14
2.41904183e+01 1.08754432e-12 2.07094900e-14 0.00000000e+00 1.06683483e-12 0.00000000e+00 2.07094900e-14
2.50000000e+01 1.04470304e-12 1.87620165e-14 0.00000000e+00 1.02594102e-12 0.00000000e+00 1.87620165e-14
2.75422870e+01 9.23645087e-13 1.40313526e-14 0.00000000e+00 9.09613735e-13 0.00000000e+00 1.40313526e-14
3.16227766e+01 7.60441416e-13 9.27042274e-15 0.00000000e+00 7.51170994e-13 0.00000000e+00 9.27042274e-15
3.63078055e+01 5.98210970e-13 6.12490756e-15 0.00000000e+00 5.92086063e-13 0.00000000e+00 6.12490756e-15
4.16869383e+01 4.42767429e-13 4.04668630e-15 0.00000000e+00 4.38720742e-13 0.00000000e+00 4.04668630e-15
4.78630092e+01 3.08560736e-13 2.67361912e-15 0.00000000e+00 3.05887117e-13 0.00000000e+00 2.67361912e-15
5.49540874e+01 2.04079205e-13 1.76644264e-15 0.00000000e+00 2.02312763e-13 0.00000000e+00 1.76644264e-15
6.30957344e+01 1.29578086e-13 1.16707708e-15 0.00000000e+00 1.28411009e-13 0.00000000e+00 1.16707708e-15
7.24435960e+01 7.94699967e-14 7.71080178e-16 0.00000000e+00 7.86989166e-14 0.00000000e+00 7.71080178e-16
8.31763771e+01 4.74391733e-14 5.09447621e-16 0.00000000e+00 4.69297256e-14 0.00000000e+00 5.09447621e-16
9.54992586e+01 2.77450550e-14 3.36588705e-16 0.00000000e+00 2.74084663e-14 0.00000000e+00 3.36588705e-16
1.09647820e+02 1.59542572e-14 2.22381952e-16 0.00000000e+00 1.57318753e-14 0.00000000e+00 2.22381952e-16
1.25892541e+02 9.14627056e-15 1.46926299e-16 0.00000000e+00 8.99934426e-15 0.00000000e+00 1.46926299e-16
1.44543977e+02 5.19852146e-15 9.70732430e-17 0.00000000e+00 5.10144822e-15 0.00000000e+00 9.70732430e-17
1.65958691e+02 2.81033744e-15 6.41356556e-17 0.00000000e+00 2.74620178e-15 0.00000000e+00 6.41356556e-17
1.90546072e+02 1.51725908e-15 4.23740075e-17 0.00000000e+00 1.47488508e-15 0.00000000e+00 4.23740075e-17
2.18776162e+02 8.16309261e-16 2.79962291e-17 0.00000000e+00 7.88313031e-16 0.00000000e+00 2.79962291e-17
2.51188643e+02 4.37209552e-16 1.84969251e-17 0.00000000e+00 4.18712627e-16 0.00000000e+00 1.84969251e-17
2.88403150e+02 2.33009677e-16 1.22207972e-17 0.00000000e+00 2.20788880e-16 0.00000000e+00 1.22207972e-17
3.31131121e+02 1.23911838e-16 8.07420067e-18 0.00000000e+00 1.15837637e-16 0.00000000e+00 8.07420067e-18
3.80189396e+02 6.57524424e-17 5.33457148e-18 0.00000000e+00 6.04178709e-17 0.00000000e+00 5.33457148e-18
4.36515832e+02 3.49014908e-17 3.52451642e-18 0.00000000e+00 3.13769743e-17 0.00000000e+00 3.52451642e-18
5.01187234e+02 1.85533460e-17 2.32862491e-18 0.00000000e+00 1.62247211e-17 0.00000000e+00 2.32862491e-18
5.75439937e+02 9.89779353e-18 1.53850722e-18 0.00000000e+00 8.35928631e-18 0.00000000e+00 1.53850722e-18
6.60693448e+02 5.30977300e-18 1.01648164e-18 0.00000000e+00 4.29329136e-18 0.00000000e+00 1.01648164e-18
7.58577575e+02 2.87054173e-18 6.71582760e-19 0.00000000e+00 2.19895897e-18 0.00000000e+00 6.71582760e-19
8.70963590e+02 1.56701517e-18 4.43710329e-19 0.00000000e+00 1.12330484e-18 0.00000000e+00 4.43710329e-19
1.00000000e+03 5.72439194e-19 0.00000000e+00 0.00000000e+00 5.72439194e-19 0.00000000e+00 0.00000000e+00
