# column 1: lambda (micron)
# column 2: total flux; lambda*F_lambda (W/m2)
# column 3: direct stellar flux; lambda*F_lambda (W/m2)
# column 4: scattered stellar flux; lambda*F_lambda (W/m2)
# column 5: total dust emission flux; lambda*F_lambda (W/m2)
# column 6: dust emission scattered flux; lambda*F_lambda (W/m2)
# column 7: transparent flux; lambda*F_lambda (W/m2)
1.00000000e-03 1.07335994e-12 1.07335627e-12 3.66882253e-18 0.00000000e+00 0.00000000e+00 1.07335627e-12
1.14815362e-03 1.26691031e-12 1.26690456e-12 5.75638443e-18 0.00000000e+00 0.00000000e+00 1.26690456e-12
1.31825674e-03 1.49536220e-12 1.49535359e-12 8.61474997e-18 0.00000000e+00 0.00000000e+00 1.49535359e-12
1.51356125e-03 1.76501026e-12 1.76499670e-12 1.35650061e-17 0.00000000e+00 0.00000000e+00 1.76499670e-12
1.73780083e-03 2.08328638e-12 2.08326203e-12 2.43563174e-17 0.00000000e+00 0.00000000e+00 2.08326203e-12
1.99526231e-03 2.45896041e-12 2.45891716e-12 4.32544238e-17 0.00000000e+00 0.00000000e+00 2.45891716e-12
2.29086765e-03 2.90237808e-12 2.90231066e-12 6.74178801e-17 0.00000000e+00 0.00000000e+00 2.90231066e-12
2.63026799e-03 3.42579243e-12 3.42565717e-12 1.35262647e-16 0.00000000e+00 0.00000000e+00 3.42565717e-12
3.01995172e-03 4.04360146e-12 4.04337385e-12 2.27609042e-16 0.00000000e+00 0.00000000e+00 4.04337385e-12
3.46736850e-03 4.77285353e-12 4.77247759e-12 3.75937781e-16 0.00000000e+00 0.00000000e+00 4.77247759e-12
3.98107171e-03 5.63367308e-12 5.63305378e-12 6.19297825e-16 0.00000000e+00 0.00000000e+00 5.63305378e-12
4.57088190e-03 6.65015777e-12 6.64880962e-12 1.34814906e-15 0.00000000e+00 0.00000000e+00 6.64880962e-12
5.24807460e-03 7.85029464e-12 7.84772720e-12 2.56744342e-15 0.00000000e+00 0.00000000e+00 7.84772720e-12
6.02559586e-03 9.26734082e-12 9.26283435e-12 4.50646757e-15 0.00000000e+00 0.00000000e+00 9.26283435e-12
6.91830971e-03 1.09398718e-11 1.09331145e-11 6.75722411e-15 0.00000000e+00 0.00000000e+00 1.09331145e-11
7.94328235e-03 1.29193061e-11 1.29045807e-11 1.47254475e-14 0.00000000e+00 0.00000000e+00 1.29045807e-11
9.12010839e-03 1.52601166e-11 1.52315429e-11 2.85736769e-14 0.00000000e+00 0.00000000e+00 1.52315429e-11
1.04712855e-02 1.70427592e-11 1.70115517e-11 3.12075084e-14 0.00000000e+00 0.00000000e+00 1.70115517e-11
1.20226443e-02 1.70591404e-11 1.70115517e-11 4.75887241e-14 0.00000000e+00 0.00000000e+00 1.70115517e-11
1.38038426e-02 1.70744901e-11 1.70115517e-11 6.29383742e-14 1.30721014e-300 2.46912687e-301 1.70115517e-11
1.58489319e-02 1.70928078e-11 1.70115517e-11 8.12561048e-14 1.04385178e-262 1.83492011e-263 1.70115517e-11
1.81970086e-02 1.71305327e-11 1.70115517e-11 1.18981032e-13 1.06124808e-229 2.93890769e-230 1.70115517e-11
2.08929613e-02 1.71693462e-11 1.70115517e-11 1.57794457e-13 5.19063140e-201 1.33863936e-201 1.70115517e-11
2.39883292e-02 1.72197887e-11 1.70115517e-11 2.08236960e-13 5.07871184e-176 1.54911467e-176 1.70115517e-11
2.75422870e-02 1.72782070e-11 1.70115517e-11 2.66655277e-13 2.75883145e-154 9.19348372e-155 1.70115517e-11
3.16227766e-02 1.73241318e-11 1.70115517e-11 3.12580081e-13 2.32331725e-135 8.71616325e-136 1.70115517e-11
3.63078055e-02 1.73663029e-11 1.70115517e-11 3.54751168e-13 6.03407150e-119 2.26950812e-119 1.70115517e-11
4.16869383e-02 1.74843012e-11 1.70115517e-11 4.72749458e-13 1.30525785e-104 6.18265078e-105 1.70115517e-11
4.78630092e-02 1.75736002e-11 1.70115517e-11 5.62048495e-13 3.64901429e-92 1.87011534e-92 1.70115517e-11
5.49540874e-02 1.76151478e-11 1.70115517e-11 6.03596075e-13 2.23607371e-81 1.23609783e-81 1.70115517e-11
6.30957344e-02 1.75812735e-11 1.70115517e-11 5.69721747e-13 7.05832260e-72 4.02224288e-72 1.70115517e-11
7.24435960e-02 1.74605785e-11 1.70115517e-11 4.49026805e-13 1.07000891e-63 5.73250171e-64 1.70115517e-11
8.31763771e-02 1.74504958e-11 1.70115517e-11 4.38944086e-13 1.15027709e-56 6.03690548e-57 1.70115517e-11
9.54992586e-02 1.74801461e-11 1.70115517e-11 4.68594415e-13 1.50823715e-50 8.01105649e-51 1.70115517e-11
1.09647820e-01 1.67792450e-11 1.62459122e-11 5.33332863e-13 3.61403249e-45 1.85759313e-45 1.62459122e-11
1.25892541e-01 1.57211847e-11 1.51615674e-11 5.59617323e-13 2.15871165e-40 9.90693070e-41 1.51615674e-11
1.44543977e-01 1.46881559e-11 1.41495980e-11 5.38557880e-13 4.01013293e-36 1.57282951e-36 1.41495980e-11
1.65958691e-01 1.37694367e-11 1.32051732e-11 5.64263507e-13 1.74044621e-32 6.92837998e-33 1.32051732e-11
1.90546072e-01 1.29089378e-11 1.23237846e-11 5.85153197e-13 1.70135781e-29 7.06912266e-30 1.23237846e-11
2.18776162e-01 1.19942364e-11 1.15012250e-11 4.93011384e-13 5.20065861e-27 2.12873562e-27 1.15012250e-11
2.51188643e-01 1.13010768e-11 1.07335677e-11 5.67509041e-13 1.51938042e-24 6.87069297e-25 1.07335677e-11
2.88403150e-01 1.05770921e-11 1.00171482e-11 5.59943860e-13 1.88033172e-22 8.37652600e-23 1.00171482e-11
3.31131121e-01 9.86570631e-12 9.34854667e-12 5.17159626e-13 1.12069252e-20 4.90012943e-21 9.34854667e-12
3.80189396e-01 9.22132500e-12 8.72457139e-12 4.96753244e-13 3.62487127e-19 1.54403371e-19 8.72457139e-12
4.36515832e-01 8.59506417e-12 8.14224377e-12 4.52813438e-13 6.96168977e-18 2.83781909e-18 8.14224377e-12
5.01187234e-01 8.00676338e-12 7.59878402e-12 4.07894411e-13 8.49480722e-17 3.34296592e-17 7.59878402e-12
5.75439937e-01 7.46135567e-12 7.09159786e-12 3.69071045e-13 6.86759651e-16 2.55912684e-16 7.09159786e-12
6.60693448e-01 6.95310557e-12 6.61826421e-12 3.30766634e-13 4.07473060e-15 1.43348041e-15 6.61826421e-12
7.58577575e-01 6.47852357e-12 6.17652353e-12 2.84053470e-13 1.79465606e-14 5.96670923e-15 6.17652353e-12
8.70963590e-01 6.06346118e-12 5.76426715e-12 2.35340623e-13 6.38534001e-14 1.95342768e-14 5.76426715e-12
1.00000000e+00 5.75771983e-12 5.37952711e-12 1.94577552e-13 1.83615168e-13 5.03385839e-14 5.37952711e-12
1.14815362e+00 5.62925910e-12 5.02046681e-12 1.53509849e-13 4.55282434e-13 1.08927908e-13 5.02046681e-12
1.31825674e+00 5.79747006e-12 4.68537225e-12 1.17147028e-13 9.94950783e-13 2.04073816e-13 4.68537225e-12
1.51356125e+00 6.38272333e-12 4.37264380e-12 8.91621287e-14 1.92091740e-12 3.27745929e-13 4.37264380e-12
1.73780083e+00 7.40793915e-12 4.08078863e-12 6.82780623e-14 3.25887246e-12 4.65860606e-13 4.08078863e-12
1.99526231e+00 8.81688520e-12 3.80841354e-12 5.05623866e-14 4.95790927e-12 5.76896440e-13 3.80841354e-12
2.29086765e+00 1.04146345e-11 3.55421832e-12 3.74817743e-14 6.82293440e-12 6.28403762e-13 3.55421832e-12
2.63026799e+00 1.20132763e-11 3.31698953e-12 2.77945781e-14 8.66849219e-12 6.33644433e-13 3.31698953e-12
3.01995172e+00 1.34067888e-11 3.09559474e-12 2.02443848e-14 1.02909497e-11 5.95376242e-13 3.09559474e-12
3.46736850e+00 1.46618352e-11 2.88897711e-12 1.45393212e-14 1.17583188e-11 5.29716977e-13 2.88897711e-12
3.98107171e+00 1.56750619e-11 2.69615031e-12 1.05533458e-14 1.29683582e-11 4.44848810e-13 2.69615031e-12
4.57088190e+00 1.63952169e-11 2.51619387e-12 7.47535618e-15 1.38715477e-11 3.53709706e-13 2.51619387e-12
5.24807460e+00 1.67186869e-11 2.08050667e-12 4.45723259e-15 1.46337230e-11 2.63395353e-13 2.08050667e-12
6.02559586e+00 1.65374041e-11 1.37457712e-12 2.07366160e-15 1.51607533e-11 1.86900985e-13 1.37457712e-12
6.70000000e+00 1.63161843e-11 9.99872685e-13 1.10456716e-15 1.53152070e-11 1.35131884e-13 9.99872685e-13
6.92422916e+00 1.63391148e-11 9.05846924e-13 8.99707955e-16 1.54323682e-11 1.21328010e-13 9.05846924e-13
7.15596261e+00 1.62729886e-11 8.20663132e-13 7.16344423e-16 1.54516091e-11 1.06555325e-13 8.20663132e-13
7.39545150e+00 1.61983685e-11 7.43489831e-13 5.46223407e-16 1.54543324e-11 9.07358234e-14 7.43489831e-13
7.64295536e+00 1.63847695e-11 6.73573732e-13 3.65539100e-16 1.57108302e-11 7.17161712e-14 6.73573732e-13
7.89874245e+00 1.68017875e-11 6.10232385e-13 2.07408300e-16 1.61913477e-11 5.14400395e-14 6.10232385e-13
8.16308998e+00 1.74429546e-11 5.52847515e-13 1.11895424e-16 1.68899952e-11 3.55612534e-14 5.52847515e-13
8.43628443e+00 1.83071030e-11 5.00858987e-13 5.76130055e-17 1.78061864e-11 2.40891796e-14 5.00858987e-13
8.71862190e+00 1.87732442e-11 4.53759343e-13 3.56818803e-17 1.83194492e-11 1.82203534e-14 4.53759343e-13
9.01040836e+00 1.91255518e-11 4.11088843e-13 2.20693374e-17 1.87144409e-11 1.36807044e-14 4.11088843e-13
9.31196005e+00 1.95830844e-11 3.72430980e-13 0.00000000e+00 1.92106534e-11 0.00000000e+00 3.72430980e-13
9.62360379e+00 1.95182462e-11 3.37408415e-13 0.00000000e+00 1.91808377e-11 0.00000000e+00 3.37408415e-13
9.94567731e+00 1.89637266e-11 3.05679292e-13 0.00000000e+00 1.86580473e-11 0.00000000e+00 3.05679292e-13
1.02785297e+01 1.85511792e-11 2.76933904e-13 0.00000000e+00 1.82742453e-11 0.00000000e+00 2.76933904e-13
1.06225216e+01 1.80638208e-11 2.50891667e-13 0.00000000e+00 1.78129292e-11 0.00000000e+00 2.50891667e-13
1.09780260e+01 1.76208667e-11 2.27298384e-13 0.00000000e+00 1.73935683e-11 0.00000000e+00 2.27298384e-13
1.13454280e+01 1.72471305e-11 2.05923759e-13 0.00000000e+00 1.70412068e-11 0.00000000e+00 2.05923759e-13
1.17251259e+01 1.69089665e-11 1.86559155e-13 0.00000000e+00 1.67224074e-11 0.00000000e+00 1.86559155e-13
1.21175312e+01 1.64173249e-11 1.69015555e-13 0.00000000e+00 1.62483093e-11 0.00000000e+00 1.69015555e-13
1.25230691e+01 1.60470922e-11 1.53121715e-13 0.00000000e+00 1.58939705e-11 0.00000000e+00 1.53121715e-13
1.29421791e+01 1.58530376e-11 1.38722496e-13 0.00000000e+00 1.57143151e-11 0.00000000e+00 1.38722496e-13
1.33753155e+01 1.55159745e-11 1.25677347e-13 0.00000000e+00 1.53902972e-11 0.00000000e+00 1.25677347e-13
1.38229477e+01 1.52127745e-11 1.13858934e-13 0.00000000e+00 1.50989155e-11 0.00000000e+00 1.13858934e-13
1.42855609e+01 1.49953526e-11 1.03151898e-13 0.00000000e+00 1.48922007e-11 0.00000000e+00 1.03151898e-13
1.47636563e+01 1.48563739e-11 9.34517274e-14 0.00000000e+00 1.47629221e-11 0.00000000e+00 9.34517274e-14
1.52577522e+01 1.48586960e-11 8.46637387e-14 0.00000000e+00 1.47740323e-11 0.00000000e+00 8.46637387e-14
1.57683840e+01 1.47927346e-11 7.67021526e-14 0.00000000e+00 1.47160325e-11 0.00000000e+00 7.67021526e-14
1.62961051e+01 1.47378747e-11 6.94892560e-14 0.00000000e+00 1.46683855e-11 0.00000000e+00 6.94892560e-14
1.68414875e+01 1.45893604e-11 6.29546439e-14 0.00000000e+00 1.45264057e-11 0.00000000e+00 6.29546439e-14
1.74051222e+01 1.44894999e-11 5.70345319e-14 0.00000000e+00 1.44324654e-11 0.00000000e+00 5.70345319e-14
1.79876201e+01 1.41370110e-11 5.16711337e-14 0.00000000e+00 1.40853399e-11 0.00000000e+00 5.16711337e-14
1.85896125e+01 1.39043462e-11 4.68120974e-14 0.00000000e+00 1.38575341e-11 0.00000000e+00 4.68120974e-14
1.92117518e+01 1.35790274e-11 4.24099939e-14 0.00000000e+00 1.35366174e-11 0.00000000e+00 4.24099939e-14
1.98547123e+01 1.31129362e-11 3.84218542e-14 0.00000000e+00 1.30745143e-11 0.00000000e+00 3.84218542e-14
2.05191907e+01 1.27074878e-11 3.48087501e-14 0.00000000e+00 1.26726791e-11 0.00000000e+00 3.48087501e-14
2.12059073e+01 1.22038671e-11 3.15354141e-14 0.00000000e+00 1.21723317e-11 0.00000000e+00 3.15354141e-14
2.19156062e+01 1.18137694e-11 2.85698952e-14 0.00000000e+00 1.17851995e-11 0.00000000e+00 2.85698952e-14
2.26490567e+01 1.13049503e-11 2.58832470e-14 0.00000000e+00 1.12790671e-11 0.00000000e+00 2.58832470e-14
2.34070535e+01 1.08677104e-11 2.34492452e-14 0.00000000e+00 1.08442611e-11 0.00000000e+00 2.34492452e-14
2.41904183e+01 1.04103439e-11 2.12441313e-14 0.00000000e+00 1.03890998e-11 0.00000000e+00 2.12441313e-14
2.50000000e+01 9.99214999e-12 1.92463813e-14 0.00000000e+00 9.97290361e-12 0.00000000e+00 1.92463813e-14
2.75422870e+01 8.59999672e-12 1.43935895e-14 0.00000000e+00 8.58560313e-12 0.00000000e+00 1.43935895e-14
3.16227766e+01 6.66297063e-12 9.50975027e-15 0.00000000e+00 6.65346088e-12 0.00000000e+00 9.50975027e-15
3.63078055e+01 4.92148918e-12 6.28302969e-15 0.00000000e+00 4.91520615e-12 0.00000000e+00 6.28302969e-15
4.16869383e+01 3.44231579e-12 4.15115655e-15 0.00000000e+00 3.43816464e-12 0.00000000e+00 4.15115655e-15
4.78630092e+01 2.27180482e-12 2.74264194e-15 0.00000000e+00 2.26906217e-12 0.00000000e+00 2.74264194e-15
5.49540874e+01 1.41982940e-12 1.81204556e-15 0.00000000e+00 1.41801735e-12 0.00000000e+00 1.81204556e-15
6.30957344e+01 8.50077083e-13 1.19720663e-15 0.00000000e+00 8.48879876e-13 0.00000000e+00 1.19720663e-15
7.24435960e+01 4.89655396e-13 7.90986575e-16 0.00000000e+00 4.88864409e-13 0.00000000e+00 7.90986575e-16
8.31763771e+01 2.74308473e-13 5.22599647e-16 0.00000000e+00 2.73785874e-13 0.00000000e+00 5.22599647e-16
9.54992586e+01 1.50535636e-13 3.45278163e-16 0.00000000e+00 1.50190358e-13 0.00000000e+00 3.45278163e-16
1.09647820e+02 8.14038578e-14 2.28123020e-16 0.00000000e+00 8.11757347e-14 0.00000000e+00 2.28123020e-16
1.25892541e+02 4.39967549e-14 1.50719385e-16 0.00000000e+00 4.38460355e-14 0.00000000e+00 1.50719385e-16
1.44543977e+02 2.36955725e-14 9.95793099e-17 0.00000000e+00 2.35959932e-14 0.00000000e+00 9.95793099e-17
1.65958691e+02 1.21914842e-14 6.57913976e-17 0.00000000e+00 1.21256928e-14 0.00000000e+00 6.57913976e-17
1.90546072e+02 6.28647381e-15 4.34679453e-17 0.00000000e+00 6.24300586e-15 0.00000000e+00 4.34679453e-17
2.18776162e+02 3.24194149e-15 2.87189867e-17 0.00000000e+00 3.21322250e-15 0.00000000e+00 2.87189867e-17
2.51188643e+02 1.66936611e-15 1.89744463e-17 0.00000000e+00 1.65039167e-15 0.00000000e+00 1.89744463e-17
2.88403150e+02 8.57491033e-16 1.25362924e-17 0.00000000e+00 8.44954740e-16 0.00000000e+00 1.25362924e-17
3.31131121e+02 4.40209932e-16 8.28264623e-18 0.00000000e+00 4.31927286e-16 0.00000000e+00 8.28264623e-18
3.80189396e+02 2.25686434e-16 5.47229010e-18 0.00000000e+00 2.20214144e-16 0.00000000e+00 5.47229010e-18
4.36515832e+02 1.15721661e-16 3.61550621e-18 0.00000000e+00 1.12106154e-16 0.00000000e+00 3.61550621e-18
5.01187234e+02 5.93534335e-17 2.38874127e-18 0.00000000e+00 5.69646923e-17 0.00000000e+00 2.38874127e-18
5.75439937e+02 3.04831259e-17 1.57822570e-18 0.00000000e+00 2.89049002e-17 0.00000000e+00 1.57822570e-18
6.60693448e+02 1.56921299e-17 1.04272338e-18 0.00000000e+00 1.46494065e-17 0.00000000e+00 1.04272338e-18
7.58577575e+02 8.10561937e-18 6.88920507e-19 0.00000000e+00 7.41669886e-18 0.00000000e+00 6.88920507e-19
8.70963590e+02 4.20575331e-18 4.55165265e-19 0.00000000e+00 3.75058804e-18 0.00000000e+00 4.55165265e-19
1.00000000e+03 1.89455095e-18 0.00000000e+00 0.00000000e+00 1.89455095e-18 0.00000000e+00 0.00000000e+00
