# column 1: lambda (micron)
# column 2: total flux; lambda*F_lambda (W/m2)
# column 3: direct stellar flux; lambda*F_lambda (W/m2)
# column 4: scattered stellar flux; lambda*F_lambda (W/m2)
# column 5: total dust emission flux; lambda*F_lambda (W/m2)
# column 6: dust emission scattered flux; lambda*F_lambda (W/m2)
# column 7: transparent flux; lambda*F_lambda (W/m2)
1.00000000e-03 1.03858145e-12 1.03856026e-12 2.11910173e-17 0.00000000e+00 0.00000000e+00 1.04634360e-12
1.14815362e-03 1.22294873e-12 1.22289818e-12 5.05429149e-17 0.00000000e+00 0.00000000e+00 1.23502095e-12
1.31825674e-03 1.44863955e-12 1.43955263e-12 9.08692460e-15 0.00000000e+00 0.00000000e+00 1.45772071e-12
1.51356125e-03 1.69788292e-12 1.69532412e-12 2.55879706e-15 0.00000000e+00 0.00000000e+00 1.72057784e-12
1.73780083e-03 2.00170674e-12 2.00072028e-12 9.86463762e-16 0.00000000e+00 0.00000000e+00 2.03083353e-12
1.99526231e-03 2.35142730e-12 2.35002459e-12 1.40270668e-15 0.00000000e+00 0.00000000e+00 2.39703472e-12
2.29086765e-03 2.77110314e-12 2.77046483e-12 6.38313121e-16 0.00000000e+00 0.00000000e+00 2.82926954e-12
2.63026799e-03 3.25775003e-12 3.25644166e-12 1.30836825e-15 0.00000000e+00 0.00000000e+00 3.33944522e-12
3.01995172e-03 3.82376792e-12 3.82080629e-12 2.96163042e-15 0.00000000e+00 0.00000000e+00 3.94161611e-12
3.46736850e-03 4.48930152e-12 4.48476327e-12 4.53825270e-15 0.00000000e+00 0.00000000e+00 4.65237083e-12
3.98107171e-03 5.32261403e-12 5.26543633e-12 5.71777017e-14 0.00000000e+00 0.00000000e+00 5.49128930e-12
4.57088190e-03 6.54988692e-12 6.30242119e-12 2.47465733e-13 0.00000000e+00 0.00000000e+00 6.48148207e-12
5.24807460e-03 7.41781513e-12 7.38132454e-12 3.64905875e-14 0.00000000e+00 0.00000000e+00 7.65022704e-12
6.02559586e-03 9.06102294e-12 8.64842383e-12 4.12599107e-13 0.00000000e+00 0.00000000e+00 9.02972084e-12
6.91830971e-03 1.04596939e-11 1.01402560e-11 3.19437913e-13 0.00000000e+00 0.00000000e+00 1.06579658e-11
7.94328235e-03 1.21367475e-11 1.19000200e-11 2.36727446e-13 7.52748463e-304 8.10237431e-306 1.25798170e-11
9.12010839e-03 1.42753986e-11 1.39605027e-11 3.14895891e-13 5.37947738e-265 1.09901453e-266 1.48482176e-11
1.04712855e-02 1.60255909e-11 1.55307106e-11 4.94880282e-13 3.42571126e-231 4.40569310e-233 1.65834298e-11
1.20226443e-02 1.58883620e-11 1.54707125e-11 4.17649485e-13 7.74154154e-202 1.26244895e-203 1.65834298e-11
1.38038426e-02 1.58493443e-11 1.53998485e-11 4.49495797e-13 2.91815797e-176 7.32064041e-178 1.65834298e-11
1.58489319e-02 1.57857525e-11 1.53132065e-11 4.72546017e-13 5.19322043e-154 1.32263251e-155 1.65834298e-11
1.81970086e-02 1.57661780e-11 1.52337270e-11 5.32451021e-13 1.18006170e-134 3.38905004e-136 1.65834298e-11
2.08929613e-02 1.57264190e-11 1.51679765e-11 5.58442514e-13 7.63539268e-118 2.72041012e-119 1.65834298e-11
2.39883292e-02 1.56639340e-11 1.50832078e-11 5.80726222e-13 3.21881963e-103 1.28531319e-104 1.65834298e-11
2.75422870e-02 1.55958506e-11 1.49852028e-11 6.10647792e-13 1.69248612e-90 7.69479254e-92 1.65834298e-11
3.16227766e-02 1.55390844e-11 1.48897548e-11 6.49329622e-13 1.89789040e-79 9.68574091e-81 1.65834298e-11
3.63078055e-02 1.54602836e-11 1.48153157e-11 6.44967937e-13 7.41992663e-70 3.98161185e-71 1.65834298e-11
4.16869383e-02 1.54575710e-11 1.47512317e-11 7.06339378e-13 1.57529578e-61 1.01532868e-62 1.65834298e-11
4.78630092e-02 1.53113891e-11 1.45760171e-11 7.35371956e-13 2.60562329e-54 1.89418967e-55 1.65834298e-11
5.49540874e-02 1.50816073e-11 1.43358024e-11 7.45804859e-13 4.67496807e-48 3.75217716e-49 1.65834298e-11
6.30957344e-02 1.44784959e-11 1.37507290e-11 7.27766972e-13 1.60074993e-42 1.41061113e-43 1.65834298e-11
7.24435960e-02 1.37401785e-11 1.30885171e-11 6.51661366e-13 9.64283038e-38 7.97909071e-39 1.65834298e-11
8.31763771e-02 1.37561031e-11 1.31461284e-11 6.09974679e-13 1.04112836e-33 8.45963700e-35 1.65834298e-11
9.54992586e-02 1.39254848e-11 1.33165660e-11 6.08918858e-13 3.08428196e-30 2.53436948e-31 1.65834298e-11
1.09647820e-01 1.38257166e-11 1.31983284e-11 6.27388165e-13 2.76551105e-27 2.45317575e-28 1.58370587e-11
1.25892541e-01 1.33363802e-11 1.27208851e-11 6.15495121e-13 9.36097823e-25 8.13821182e-26 1.47800032e-11
1.44543977e-01 1.27285908e-11 1.21806031e-11 5.47987719e-13 1.32557075e-22 1.14011997e-23 1.37935015e-11
1.65958691e-01 1.20804875e-11 1.15463261e-11 5.34161357e-13 6.94765990e-21 6.49432202e-22 1.28728446e-11
1.90546072e-01 1.12386963e-11 1.06976027e-11 5.41093420e-13 1.50243979e-19 1.63009831e-20 1.20136376e-11
2.18776162e-01 1.02570237e-11 9.78515778e-12 4.71864163e-13 1.79578886e-18 1.94984614e-19 1.12117790e-11
2.51188643e-01 9.89168478e-12 9.38435776e-12 5.07304398e-13 2.26227916e-17 3.00434195e-18 1.04634409e-11
2.88403150e-01 9.38860041e-12 8.92132016e-12 4.67087441e-13 1.92808486e-16 2.58610853e-17 9.76505125e-12
3.31131121e-01 8.85776839e-12 8.42293499e-12 4.33709259e-13 1.12413760e-15 1.48643844e-16 9.11327608e-12
3.80189396e-01 8.34030875e-12 7.93655391e-12 3.99003438e-13 4.75139990e-15 6.18738444e-16 8.50500410e-12
4.36515832e-01 7.84598996e-12 7.47356906e-12 3.57176119e-13 1.52447902e-14 1.98992586e-15 7.93733165e-12
5.01187234e-01 7.40140737e-12 7.03439481e-12 3.28510592e-13 3.85019622e-14 5.04477010e-15 7.40754890e-12
5.75439937e-01 6.98546367e-12 6.61608190e-12 2.89308528e-13 8.00732454e-14 1.05699922e-14 6.91312687e-12
6.60693448e-01 6.62347954e-12 6.21738762e-12 2.63243262e-13 1.42848654e-13 1.93983766e-14 6.45170538e-12
7.58577575e-01 6.29570281e-12 5.83855478e-12 2.27426999e-13 2.29721034e-13 3.26998678e-14 6.02108180e-12
8.70963590e-01 6.02983087e-12 5.48019893e-12 1.97898095e-13 3.51733841e-13 5.63753646e-14 5.61920048e-12
1.00000000e+00 5.84267385e-12 5.14003529e-12 1.64665435e-13 5.37973132e-13 9.74053517e-14 5.24414302e-12
1.14815362e+00 5.81582949e-12 4.81755774e-12 1.33534968e-13 8.64736782e-13 1.70612613e-13 4.89411902e-12
1.31825674e+00 6.06206482e-12 4.51215147e-12 1.04458192e-13 1.44545516e-12 2.84111661e-13 4.56745763e-12
1.51356125e+00 6.73500798e-12 4.22306510e-12 8.22829034e-14 2.42965998e-12 4.37360898e-13 4.26259947e-12
1.73780083e+00 7.84864788e-12 3.95029620e-12 6.37113653e-14 3.83464031e-12 5.86838312e-13 3.97808929e-12
1.99526231e+00 9.35143085e-12 3.69334127e-12 4.77598606e-14 5.61032973e-12 6.93804089e-13 3.71256894e-12
2.29086765e+00 1.10359577e-11 3.45151326e-12 3.58178344e-14 7.54862662e-12 7.36058466e-13 3.46477093e-12
2.63026799e+00 1.26856644e-11 3.22428714e-12 2.67169731e-14 9.43466025e-12 7.27558456e-13 3.23351237e-12
3.01995172e+00 1.42725324e-11 3.01118834e-12 1.99411515e-14 1.12414029e-11 6.88555746e-13 3.01768933e-12
3.46736850e+00 1.56399071e-11 2.81161602e-12 1.46045218e-14 1.28136865e-11 6.29541356e-13 2.81627154e-12
3.98107171e+00 1.70365904e-11 2.62492121e-12 1.06449742e-14 1.44010242e-11 5.64517800e-13 2.62829753e-12
4.57088190e+00 1.82939978e-11 2.45038806e-12 7.66619610e-15 1.58359435e-11 4.68686250e-13 2.45286997e-12
5.24807460e+00 1.90004983e-11 2.02649879e-12 4.60421010e-15 1.69693953e-11 3.55226707e-13 2.02814751e-12
6.02559586e+00 1.90859242e-11 1.33907851e-12 2.14504487e-15 1.77447007e-11 2.48326378e-13 1.33998377e-12
6.70000000e+00 1.89807679e-11 9.74126472e-13 1.14816301e-15 1.80054933e-11 1.76427435e-13 9.74709347e-13
6.92422916e+00 1.89797280e-11 8.82540331e-13 9.33932029e-16 1.80962538e-11 1.57768454e-13 8.83049889e-13
7.15596261e+00 1.88462808e-11 7.99556300e-13 7.50225076e-16 1.80459743e-11 1.37949603e-13 8.00009879e-13
7.39545150e+00 1.87856792e-11 7.24358029e-13 5.60550865e-16 1.80607606e-11 1.16446710e-13 7.24778763e-13
7.64295536e+00 1.88524622e-11 6.56187934e-13 3.78939498e-16 1.81958954e-11 9.16866040e-14 6.56622211e-13
7.89874245e+00 1.89524146e-11 5.94366663e-13 2.14803770e-16 1.83578332e-11 6.48156700e-14 5.94874946e-13
8.16308998e+00 1.92957157e-11 5.38312564e-13 1.14435687e-16 1.87572887e-11 4.42993025e-14 5.38934254e-13
8.43628443e+00 1.95724486e-11 4.87471772e-13 5.92510729e-17 1.90849176e-11 2.88024914e-14 4.88254098e-13
8.71862190e+00 1.95600788e-11 4.41469071e-13 3.56410371e-17 1.91185740e-11 2.12696289e-14 4.42339790e-13
9.01040836e+00 1.99058190e-11 3.99787749e-13 2.23228053e-17 1.95060089e-11 1.54985416e-14 4.00743158e-13
9.31196005e+00 2.00655905e-11 3.62054457e-13 0.00000000e+00 1.97035360e-11 0.00000000e+00 3.63058180e-13
9.62360379e+00 1.96137318e-11 3.27983754e-13 0.00000000e+00 1.92857480e-11 0.00000000e+00 3.28917012e-13
9.94567731e+00 1.95036869e-11 2.97193001e-13 0.00000000e+00 1.92064939e-11 0.00000000e+00 2.97986401e-13
1.02785297e+01 1.90434925e-11 2.69314097e-13 0.00000000e+00 1.87741784e-11 0.00000000e+00 2.69964435e-13
1.06225216e+01 1.84648988e-11 2.44050233e-13 0.00000000e+00 1.82208486e-11 0.00000000e+00 2.44577592e-13
1.09780260e+01 1.83440360e-11 2.21165846e-13 0.00000000e+00 1.81228701e-11 0.00000000e+00 2.21578069e-13
1.13454280e+01 1.80584965e-11 2.00417863e-13 0.00000000e+00 1.78580786e-11 0.00000000e+00 2.00741370e-13
1.17251259e+01 1.77246208e-11 1.81608594e-13 0.00000000e+00 1.75430122e-11 0.00000000e+00 1.81864106e-13
1.21175312e+01 1.71571501e-11 1.64561245e-13 0.00000000e+00 1.69925889e-11 0.00000000e+00 1.64762018e-13
1.25230691e+01 1.68813037e-11 1.49110844e-13 0.00000000e+00 1.67321928e-11 0.00000000e+00 1.49268171e-13
1.29421791e+01 1.62518934e-11 1.35107187e-13 0.00000000e+00 1.61167862e-11 0.00000000e+00 1.35231331e-13
1.33753155e+01 1.57643648e-11 1.22415824e-13 0.00000000e+00 1.56419489e-11 0.00000000e+00 1.22514483e-13
1.38229477e+01 1.53279243e-11 1.10911477e-13 0.00000000e+00 1.52170128e-11 0.00000000e+00 1.10993499e-13
1.42855609e+01 1.49363388e-11 1.00484633e-13 0.00000000e+00 1.48358541e-11 0.00000000e+00 1.00555922e-13
1.47636563e+01 1.47811563e-11 9.10322137e-14 0.00000000e+00 1.46901240e-11 0.00000000e+00 9.10998706e-14
1.52577522e+01 1.45983028e-11 8.24676746e-14 0.00000000e+00 1.45158351e-11 0.00000000e+00 8.25330452e-14
1.57683840e+01 1.45568371e-11 7.47078532e-14 0.00000000e+00 1.44821292e-11 0.00000000e+00 7.47718247e-14
1.62961051e+01 1.42871557e-11 6.76779250e-14 0.00000000e+00 1.42194778e-11 0.00000000e+00 6.77404517e-14
1.68414875e+01 1.41548388e-11 6.13093155e-14 0.00000000e+00 1.40935295e-11 0.00000000e+00 6.13702932e-14
1.74051222e+01 1.39194959e-11 5.55412653e-14 0.00000000e+00 1.38639546e-11 0.00000000e+00 5.55991699e-14
1.79876201e+01 1.37041710e-11 5.03166859e-14 0.00000000e+00 1.36538543e-11 0.00000000e+00 5.03707500e-14
1.85896125e+01 1.32609641e-11 4.55850816e-14 0.00000000e+00 1.32153791e-11 0.00000000e+00 4.56339988e-14
1.92117518e+01 1.28508219e-11 4.12997131e-14 0.00000000e+00 1.28095222e-11 0.00000000e+00 4.13426810e-14
1.98547123e+01 1.22670770e-11 3.74179030e-14 0.00000000e+00 1.22296591e-11 0.00000000e+00 3.74549090e-14
2.05191907e+01 1.18547537e-11 3.39011844e-14 0.00000000e+00 1.18208525e-11 0.00000000e+00 3.39327342e-14
2.12059073e+01 1.12734451e-11 3.07148828e-14 0.00000000e+00 1.12427302e-11 0.00000000e+00 3.07417768e-14
2.19156062e+01 1.07273914e-11 2.78278528e-14 0.00000000e+00 1.06995635e-11 0.00000000e+00 2.78508898e-14
2.26490567e+01 1.02609743e-11 2.52120907e-14 0.00000000e+00 1.02357623e-11 0.00000000e+00 2.52318552e-14
2.34070535e+01 9.76271002e-12 2.28421205e-14 0.00000000e+00 9.73986790e-12 0.00000000e+00 2.28591087e-14
2.41904183e+01 9.22709715e-12 2.06948511e-14 0.00000000e+00 9.20640230e-12 0.00000000e+00 2.07094900e-14
2.50000000e+01 8.70580585e-12 1.87493749e-14 0.00000000e+00 8.68705648e-12 0.00000000e+00 1.87620165e-14
2.75422870e+01 7.29708471e-12 1.40231081e-14 0.00000000e+00 7.28306161e-12 0.00000000e+00 1.40313526e-14
3.16227766e+01 5.45916340e-12 9.26589287e-15 0.00000000e+00 5.44989751e-12 0.00000000e+00 9.27042274e-15
3.63078055e+01 3.88946113e-12 6.12243179e-15 0.00000000e+00 3.88333870e-12 0.00000000e+00 6.12490756e-15
4.16869383e+01 2.61143505e-12 4.04536901e-15 0.00000000e+00 2.60738968e-12 0.00000000e+00 4.04668630e-15
4.78630092e+01 1.65251542e-12 2.67294000e-15 0.00000000e+00 1.64984248e-12 0.00000000e+00 2.67361912e-15
5.49540874e+01 9.94311711e-13 1.76609997e-15 0.00000000e+00 9.92545611e-13 0.00000000e+00 1.76644264e-15
6.30957344e+01 5.75480465e-13 1.16690638e-15 0.00000000e+00 5.74313558e-13 0.00000000e+00 1.16707708e-15
7.24435960e+01 3.21986106e-13 7.70995751e-16 0.00000000e+00 3.21215111e-13 0.00000000e+00 7.71080178e-16
8.31763771e+01 1.76001689e-13 5.09405932e-16 0.00000000e+00 1.75492283e-13 0.00000000e+00 5.09447621e-16
9.54992586e+01 9.46274331e-14 3.36568071e-16 0.00000000e+00 9.42908650e-14 0.00000000e+00 3.36588705e-16
1.09647820e+02 5.03872138e-14 2.22371703e-16 0.00000000e+00 5.01648421e-14 0.00000000e+00 2.22381952e-16
1.25892541e+02 2.69183417e-14 1.46921133e-16 0.00000000e+00 2.67714206e-14 0.00000000e+00 1.46926299e-16
1.44543977e+02 1.43573513e-14 9.70706195e-17 0.00000000e+00 1.42602807e-14 0.00000000e+00 9.70732430e-17
1.65958691e+02 7.32918049e-15 6.41343692e-17 0.00000000e+00 7.26504612e-15 0.00000000e+00 6.41356556e-17
1.90546072e+02 3.75771246e-15 4.23733705e-17 0.00000000e+00 3.71533909e-15 0.00000000e+00 4.23740075e-17
2.18776162e+02 1.93013591e-15 2.79959118e-17 0.00000000e+00 1.90214000e-15 0.00000000e+00 2.79962291e-17
2.51188643e+02 9.91422991e-16 1.84967665e-17 0.00000000e+00 9.72926224e-16 0.00000000e+00 1.84969251e-17
2.88403150e+02 5.08626284e-16 1.22207179e-17 0.00000000e+00 4.96405566e-16 0.00000000e+00 1.22207972e-17
3.31131121e+02 2.61118707e-16 8.07416090e-18 0.00000000e+00 2.53044546e-16 0.00000000e+00 8.07420067e-18
3.80189396e+02 1.34053584e-16 5.33455154e-18 0.00000000e+00 1.28719032e-16 0.00000000e+00 5.33457148e-18
4.36515832e+02 6.89317848e-17 3.52450642e-18 0.00000000e+00 6.54072784e-17 0.00000000e+00 3.52451642e-18
5.01187234e+02 3.55151011e-17 2.32861988e-18 0.00000000e+00 3.31864812e-17 0.00000000e+00 2.32862491e-18
5.75439937e+02 1.83570369e-17 1.53850470e-18 0.00000000e+00 1.68185323e-17 0.00000000e+00 1.53850722e-18
6.60693448e+02 9.53146549e-18 1.01648037e-18 0.00000000e+00 8.51498512e-18 0.00000000e+00 1.01648164e-18
7.58577575e+02 4.97888868e-18 6.71582123e-19 0.00000000e+00 4.30730655e-18 0.00000000e+00 6.71582760e-19
8.70963590e+02 2.62037103e-18 4.43710009e-19 0.00000000e+00 2.17666102e-18 0.00000000e+00 4.43710329e-19
1.00000000e+03 1.09883590e-18 0.00000000e+00 0.00000000e+00 1.09883590e-18 0.00000000e+00 0.00000000e+00
