# column 1: lambda (micron)
# column 2: total flux; lambda*F_lambda (W/m2)
# column 3: direct stellar flux; lambda*F_lambda (W/m2)
# column 4: scattered stellar flux; lambda*F_lambda (W/m2)
# column 5: total dust emission flux; lambda*F_lambda (W/m2)
# column 6: dust emission scattered flux; lambda*F_lambda (W/m2)
# column 7: transparent flux; lambda*F_lambda (W/m2)
1.00000000e-03 1.07336017e-12 1.07335627e-12 3.89659467e-18 0.00000000e+00 0.00000000e+00 1.07335627e-12
1.14815362e-03 1.26691042e-12 1.26690456e-12 5.86237063e-18 0.00000000e+00 0.00000000e+00 1.26690456e-12
1.31825674e-03 1.49536245e-12 1.49535359e-12 8.85831682e-18 0.00000000e+00 0.00000000e+00 1.49535359e-12
1.51356125e-03 1.76501030e-12 1.76499670e-12 1.36020577e-17 0.00000000e+00 0.00000000e+00 1.76499670e-12
1.73780083e-03 2.08328580e-12 2.08326203e-12 2.37777707e-17 0.00000000e+00 0.00000000e+00 2.08326203e-12
1.99526231e-03 2.45895866e-12 2.45891716e-12 4.14969059e-17 0.00000000e+00 0.00000000e+00 2.45891716e-12
2.29086765e-03 2.90237545e-12 2.90231066e-12 6.47896546e-17 0.00000000e+00 0.00000000e+00 2.90231066e-12
2.63026799e-03 3.42578362e-12 3.42565717e-12 1.26451041e-16 0.00000000e+00 0.00000000e+00 3.42565717e-12
3.01995172e-03 4.04358545e-12 4.04337385e-12 2.11607750e-16 0.00000000e+00 0.00000000e+00 4.04337385e-12
3.46736850e-03 4.77282285e-12 4.77247759e-12 3.45262066e-16 0.00000000e+00 0.00000000e+00 4.77247759e-12
3.98107171e-03 5.63361480e-12 5.63305378e-12 5.61019496e-16 0.00000000e+00 0.00000000e+00 5.63305378e-12
4.57088190e-03 6.65009327e-12 6.64880962e-12 1.28365303e-15 0.00000000e+00 0.00000000e+00 6.64880962e-12
5.24807460e-03 7.85020128e-12 7.84772720e-12 2.47408228e-15 0.00000000e+00 0.00000000e+00 7.84772720e-12
6.02559586e-03 9.26688095e-12 9.26283435e-12 4.04659748e-15 0.00000000e+00 0.00000000e+00 9.26283435e-12
6.91830971e-03 1.09396749e-11 1.09331145e-11 6.56032850e-15 0.00000000e+00 0.00000000e+00 1.09331145e-11
7.94328235e-03 1.29195397e-11 1.29045807e-11 1.49589711e-14 4.24552461e-304 5.94974983e-306 1.29045807e-11
9.12010839e-03 1.52482121e-11 1.52315429e-11 1.66692231e-14 2.60188782e-265 1.86565024e-267 1.52315429e-11
1.04712855e-02 1.70353385e-11 1.70115517e-11 2.37867752e-14 1.49634918e-231 2.53352147e-233 1.70115517e-11
1.20226443e-02 1.70501076e-11 1.70115517e-11 3.85559194e-14 3.03237486e-202 4.68833636e-204 1.70115517e-11
1.38038426e-02 1.70708673e-11 1.70115517e-11 5.93155731e-14 1.03983397e-176 2.03595126e-178 1.70115517e-11
1.58489319e-02 1.71026260e-11 1.70115517e-11 9.10742404e-14 1.72240617e-154 4.58193473e-156 1.70115517e-11
1.81970086e-02 1.71190698e-11 1.70115517e-11 1.07518087e-13 3.66946431e-135 1.25037391e-136 1.70115517e-11
2.08929613e-02 1.71559645e-11 1.70115517e-11 1.44412830e-13 2.23576651e-118 8.88988625e-120 1.70115517e-11
2.39883292e-02 1.72070907e-11 1.70115517e-11 1.95538970e-13 8.94962912e-104 3.92372244e-105 1.70115517e-11
2.75422870e-02 1.72620429e-11 1.70115517e-11 2.50491170e-13 4.51380648e-91 2.38313570e-92 1.70115517e-11
3.16227766e-02 1.73182627e-11 1.70115517e-11 3.06711002e-13 4.87494377e-80 2.89585568e-81 1.70115517e-11
3.63078055e-02 1.73525688e-11 1.70115517e-11 3.41017068e-13 1.84748876e-70 1.18785883e-71 1.70115517e-11
4.16869383e-02 1.74724208e-11 1.70115517e-11 4.60869103e-13 3.83318417e-62 3.11367856e-63 1.70115517e-11
4.78630092e-02 1.75659317e-11 1.70115517e-11 5.54380007e-13 6.21579648e-55 5.82050397e-56 1.70115517e-11
5.49540874e-02 1.76278189e-11 1.70115517e-11 6.16267221e-13 1.09243400e-48 1.09987825e-49 1.70115517e-11
6.30957344e-02 1.76192006e-11 1.70115517e-11 6.07648891e-13 3.64404944e-43 3.54499440e-44 1.70115517e-11
7.24435960e-02 1.75290730e-11 1.70115517e-11 5.17521325e-13 2.15276799e-38 1.79396667e-39 1.70115517e-11
8.31763771e-02 1.75077848e-11 1.70115517e-11 4.96233073e-13 2.28355255e-34 1.83721907e-35 1.70115517e-11
9.54992586e-02 1.75270185e-11 1.70115517e-11 5.15466801e-13 6.68177750e-31 5.59183705e-32 1.70115517e-11
1.09647820e-01 1.68224867e-11 1.62459122e-11 5.76574514e-13 5.93587410e-28 5.77251523e-29 1.62459122e-11
1.25892541e-01 1.57361651e-11 1.51615674e-11 5.74597724e-13 2.00590813e-25 2.13652081e-26 1.51615674e-11
1.44543977e-01 1.47064777e-11 1.41495980e-11 5.56879691e-13 2.81422009e-23 3.05270499e-24 1.41495980e-11
1.65958691e-01 1.37827929e-11 1.32051732e-11 5.77619767e-13 1.47123907e-21 1.79505606e-22 1.32051732e-11
1.90546072e-01 1.29110945e-11 1.23237846e-11 5.87309861e-13 3.15854159e-20 4.28089580e-21 1.23237846e-11
2.18776162e-01 1.20171104e-11 1.15012250e-11 5.15885000e-13 3.73184190e-19 4.76084070e-20 1.15012250e-11
2.51188643e-01 1.13167392e-11 1.07335677e-11 5.83166791e-13 4.70884886e-18 7.56877238e-19 1.07335677e-11
2.88403150e-01 1.05842890e-11 1.00171482e-11 5.67100675e-13 4.01148599e-17 6.71391774e-18 1.00171482e-11
3.31131121e-01 9.87628409e-12 9.34854667e-12 5.27504559e-13 2.32854933e-16 3.86753102e-17 9.34854667e-12
3.80189396e-01 9.21286481e-12 8.72457139e-12 4.87314154e-13 9.79262962e-16 1.60456505e-16 8.72457139e-12
4.36515832e-01 8.59575249e-12 8.14224377e-12 4.50380306e-13 3.12840849e-15 5.09657911e-16 8.14224377e-12
5.01187234e-01 8.01050848e-12 7.59878402e-12 4.03814171e-13 7.91028914e-15 1.28690187e-15 7.59878402e-12
5.75439937e-01 7.47589980e-12 7.09159786e-12 3.67508481e-13 1.67934517e-14 2.78453612e-15 7.09159786e-12
6.60693448e-01 6.97461661e-12 6.61826421e-12 3.24017148e-13 3.23352589e-14 5.80824998e-15 6.61826421e-12
7.58577575e-01 6.52031399e-12 6.17652353e-12 2.81569539e-13 6.22209157e-14 1.29262473e-14 6.17652353e-12
8.70963590e-01 6.13191329e-12 5.76426715e-12 2.38235339e-13 1.29410802e-13 3.02300644e-14 5.76426715e-12
1.00000000e+00 5.85032846e-12 5.37952711e-12 1.97584770e-13 2.73216577e-13 6.71772003e-14 5.37952711e-12
1.14815362e+00 5.76741449e-12 5.02046681e-12 1.60948634e-13 5.85999047e-13 1.35888019e-13 5.02046681e-12
1.31825674e+00 5.97254297e-12 4.68537225e-12 1.21562019e-13 1.16560870e-12 2.42286287e-13 4.68537225e-12
1.51356125e+00 6.60348081e-12 4.37264380e-12 9.26826376e-14 2.13815438e-12 3.82654665e-13 4.37264380e-12
1.73780083e+00 7.70248863e-12 4.08078863e-12 7.09708449e-14 3.55072915e-12 5.31804004e-13 4.08078863e-12
1.99526231e+00 9.15990677e-12 3.80841354e-12 5.40832176e-14 5.29741001e-12 6.58129941e-13 3.80841354e-12
2.29086765e+00 1.07988459e-11 3.55421832e-12 4.08738486e-14 7.20375369e-12 7.25390980e-13 3.55421832e-12
2.63026799e+00 1.24472981e-11 3.31698953e-12 3.04022245e-14 9.09990631e-12 7.35264395e-13 3.31698953e-12
3.01995172e+00 1.41247606e-11 3.09559474e-12 2.25256158e-14 1.10066403e-11 7.08513325e-13 3.09559474e-12
3.46736850e+00 1.55359663e-11 2.88897711e-12 1.62429849e-14 1.26307462e-11 6.25945410e-13 2.88897711e-12
3.98107171e+00 1.67288245e-11 2.69615031e-12 1.15631632e-14 1.40211110e-11 5.20783307e-13 2.69615031e-12
4.57088190e+00 1.75779338e-11 2.51619387e-12 7.83719899e-15 1.50539027e-11 3.99630992e-13 2.51619387e-12
5.24807460e+00 1.77103798e-11 2.08050667e-12 4.56540996e-15 1.56253078e-11 2.82035364e-13 2.08050667e-12
6.02559586e+00 1.71644858e-11 1.37457712e-12 2.00948403e-15 1.57878992e-11 1.84847100e-13 1.37457712e-12
6.70000000e+00 1.65036078e-11 9.99872685e-13 1.03830798e-15 1.55026968e-11 1.24903204e-13 9.99872685e-13
6.92422916e+00 1.62335316e-11 9.05846924e-13 8.39655739e-16 1.53268450e-11 1.09613467e-13 9.05846924e-13
7.15596261e+00 1.61017489e-11 8.20663132e-13 6.65780886e-16 1.52804200e-11 9.44022800e-14 8.20663132e-13
7.39545150e+00 1.60232765e-11 7.43489831e-13 5.08508517e-16 1.52792782e-11 8.03899127e-14 7.43489831e-13
7.64295536e+00 1.62365245e-11 6.73573732e-13 3.53744550e-16 1.55625970e-11 6.53365071e-14 6.73573732e-13
7.89874245e+00 1.69324037e-11 6.10232385e-13 2.09286781e-16 1.63219620e-11 4.91185018e-14 6.10232385e-13
8.16308998e+00 1.78466584e-11 5.52847515e-13 1.18492623e-16 1.72936924e-11 3.56390531e-14 5.52847515e-13
8.43628443e+00 1.86754106e-11 5.00858987e-13 6.09905123e-17 1.81744906e-11 2.46926543e-14 5.00858987e-13
8.71862190e+00 1.90329866e-11 4.53759343e-13 3.66870563e-17 1.85791906e-11 1.84704204e-14 4.53759343e-13
9.01040836e+00 1.94919062e-11 4.11088843e-13 2.09870381e-17 1.90807964e-11 1.36391028e-14 4.11088843e-13
9.31196005e+00 1.95657435e-11 3.72430980e-13 0.00000000e+00 1.91933125e-11 0.00000000e+00 3.72430980e-13
9.62360379e+00 1.95509279e-11 3.37408415e-13 0.00000000e+00 1.92135195e-11 0.00000000e+00 3.37408415e-13
9.94567731e+00 1.89316683e-11 3.05679292e-13 0.00000000e+00 1.86259890e-11 0.00000000e+00 3.05679292e-13
1.02785297e+01 1.84628455e-11 2.76933904e-13 0.00000000e+00 1.81859116e-11 0.00000000e+00 2.76933904e-13
1.06225216e+01 1.77367082e-11 2.50891667e-13 0.00000000e+00 1.74858166e-11 0.00000000e+00 2.50891667e-13
1.09780260e+01 1.70723463e-11 2.27298384e-13 0.00000000e+00 1.68450479e-11 0.00000000e+00 2.27298384e-13
1.13454280e+01 1.64230032e-11 2.05923759e-13 0.00000000e+00 1.62170795e-11 0.00000000e+00 2.05923759e-13
1.17251259e+01 1.58678516e-11 1.86559155e-13 0.00000000e+00 1.56812924e-11 0.00000000e+00 1.86559155e-13
1.21175312e+01 1.51583336e-11 1.69015555e-13 0.00000000e+00 1.49893180e-11 0.00000000e+00 1.69015555e-13
1.25230691e+01 1.45581231e-11 1.53121715e-13 0.00000000e+00 1.44050014e-11 0.00000000e+00 1.53121715e-13
1.29421791e+01 1.38994691e-11 1.38722496e-13 0.00000000e+00 1.37607466e-11 0.00000000e+00 1.38722496e-13
1.33753155e+01 1.32186866e-11 1.25677347e-13 0.00000000e+00 1.30930093e-11 0.00000000e+00 1.25677347e-13
1.38229477e+01 1.26603003e-11 1.13858934e-13 0.00000000e+00 1.25464413e-11 0.00000000e+00 1.13858934e-13
1.42855609e+01 1.23102658e-11 1.03151898e-13 0.00000000e+00 1.22071139e-11 0.00000000e+00 1.03151898e-13
1.47636563e+01 1.22166719e-11 9.34517274e-14 0.00000000e+00 1.21232202e-11 0.00000000e+00 9.34517274e-14
1.52577522e+01 1.21801926e-11 8.46637387e-14 0.00000000e+00 1.20955289e-11 0.00000000e+00 8.46637387e-14
1.57683840e+01 1.21540494e-11 7.67021526e-14 0.00000000e+00 1.20773473e-11 0.00000000e+00 7.67021526e-14
1.62961051e+01 1.21677085e-11 6.94892560e-14 0.00000000e+00 1.20982193e-11 0.00000000e+00 6.94892560e-14
1.68414875e+01 1.20346803e-11 6.29546439e-14 0.00000000e+00 1.19717257e-11 0.00000000e+00 6.29546439e-14
1.74051222e+01 1.19696084e-11 5.70345319e-14 0.00000000e+00 1.19125739e-11 0.00000000e+00 5.70345319e-14
1.79876201e+01 1.17048187e-11 5.16711337e-14 0.00000000e+00 1.16531475e-11 0.00000000e+00 5.16711337e-14
1.85896125e+01 1.13807050e-11 4.68120974e-14 0.00000000e+00 1.13338929e-11 0.00000000e+00 4.68120974e-14
1.92117518e+01 1.10181388e-11 4.24099939e-14 0.00000000e+00 1.09757288e-11 0.00000000e+00 4.24099939e-14
1.98547123e+01 1.05078761e-11 3.84218542e-14 0.00000000e+00 1.04694542e-11 0.00000000e+00 3.84218542e-14
2.05191907e+01 1.00581585e-11 3.48087501e-14 0.00000000e+00 1.00233497e-11 0.00000000e+00 3.48087501e-14
2.12059073e+01 9.55006200e-12 3.15354141e-14 0.00000000e+00 9.51852658e-12 0.00000000e+00 3.15354141e-14
2.19156062e+01 9.10154327e-12 2.85698952e-14 0.00000000e+00 9.07297337e-12 0.00000000e+00 2.85698952e-14
2.26490567e+01 8.65195296e-12 2.58832470e-14 0.00000000e+00 8.62606971e-12 0.00000000e+00 2.58832470e-14
2.34070535e+01 8.16839770e-12 2.34492452e-14 0.00000000e+00 8.14494845e-12 0.00000000e+00 2.34492452e-14
2.41904183e+01 7.73786807e-12 2.12441313e-14 0.00000000e+00 7.71662394e-12 0.00000000e+00 2.12441313e-14
2.50000000e+01 7.31454418e-12 1.92463813e-14 0.00000000e+00 7.29529780e-12 0.00000000e+00 1.92463813e-14
2.75422870e+01 6.10886928e-12 1.43935895e-14 0.00000000e+00 6.09447569e-12 0.00000000e+00 1.43935895e-14
3.16227766e+01 4.53910176e-12 9.50975027e-15 0.00000000e+00 4.52959201e-12 0.00000000e+00 9.50975027e-15
3.63078055e+01 3.21568300e-12 6.28302969e-15 0.00000000e+00 3.20939997e-12 0.00000000e+00 6.28302969e-15
4.16869383e+01 2.13927722e-12 4.15115655e-15 0.00000000e+00 2.13512606e-12 0.00000000e+00 4.15115655e-15
4.78630092e+01 1.34299207e-12 2.74264194e-15 0.00000000e+00 1.34024943e-12 0.00000000e+00 2.74264194e-15
5.49540874e+01 8.01005773e-13 1.81204556e-15 0.00000000e+00 7.99193727e-13 0.00000000e+00 1.81204556e-15
6.30957344e+01 4.59623421e-13 1.19720663e-15 0.00000000e+00 4.58426215e-13 0.00000000e+00 1.19720663e-15
7.24435960e+01 2.55655877e-13 7.90986575e-16 0.00000000e+00 2.54864890e-13 0.00000000e+00 7.90986575e-16
8.31763771e+01 1.39059029e-13 5.22599647e-16 0.00000000e+00 1.38536429e-13 0.00000000e+00 5.22599647e-16
9.54992586e+01 7.45879312e-14 3.45278163e-16 0.00000000e+00 7.42426530e-14 0.00000000e+00 3.45278163e-16
1.09647820e+02 3.96412239e-14 2.28123020e-16 0.00000000e+00 3.94131009e-14 0.00000000e+00 2.28123020e-16
1.25892541e+02 2.11606666e-14 1.50719385e-16 0.00000000e+00 2.10099472e-14 0.00000000e+00 1.50719385e-16
1.44543977e+02 1.12927059e-14 9.95793099e-17 0.00000000e+00 1.11931266e-14 0.00000000e+00 9.95793099e-17
1.65958691e+02 5.76234123e-15 6.57913976e-17 0.00000000e+00 5.69654984e-15 0.00000000e+00 6.57913976e-17
1.90546072e+02 2.95544574e-15 4.34679453e-17 0.00000000e+00 2.91197779e-15 0.00000000e+00 4.34679453e-17
2.18776162e+02 1.51980423e-15 2.87189867e-17 0.00000000e+00 1.49108525e-15 0.00000000e+00 2.87189867e-17
2.51188643e+02 7.81806370e-16 1.89744463e-17 0.00000000e+00 7.62831924e-16 0.00000000e+00 1.89744463e-17
2.88403150e+02 4.01850494e-16 1.25362924e-17 0.00000000e+00 3.89314202e-16 0.00000000e+00 1.25362924e-17
3.31131121e+02 2.06812252e-16 8.28264623e-18 0.00000000e+00 1.98529606e-16 0.00000000e+00 8.28264623e-18
3.80189396e+02 1.06492342e-16 5.47229010e-18 0.00000000e+00 1.01020052e-16 0.00000000e+00 5.47229010e-18
4.36515832e+02 5.49664790e-17 3.61550621e-18 0.00000000e+00 5.13509728e-17 0.00000000e+00 3.61550621e-18
5.01187234e+02 2.84520855e-17 2.38874127e-18 0.00000000e+00 2.60633442e-17 0.00000000e+00 2.38874127e-18
5.75439937e+02 1.47915548e-17 1.57822570e-18 0.00000000e+00 1.32133291e-17 0.00000000e+00 1.57822570e-18
6.60693448e+02 7.73461763e-18 1.04272338e-18 0.00000000e+00 6.69189425e-18 0.00000000e+00 1.04272338e-18
7.58577575e+02 4.07499267e-18 6.88920507e-19 0.00000000e+00 3.38607216e-18 0.00000000e+00 6.88920507e-19
8.70963590e+02 2.16672949e-18 4.55165265e-19 0.00000000e+00 1.71156423e-18 0.00000000e+00 4.55165265e-19
1.00000000e+03 8.64259233e-19 0.00000000e+00 0.00000000e+00 8.64259233e-19 0.00000000e+00 0.00000000e+00
