# column 1: lambda (micron)
# column 2: total flux; lambda*F_lambda (W/m2)
# column 3: direct stellar flux; lambda*F_lambda (W/m2)
# column 4: scattered stellar flux; lambda*F_lambda (W/m2)
# column 5: total dust emission flux; lambda*F_lambda (W/m2)
# column 6: dust emission scattered flux; lambda*F_lambda (W/m2)
# column 7: transparent flux; lambda*F_lambda (W/m2)
1.00000000e-03 1.07336272e-12 1.07335627e-12 6.45126185e-18 0.00000000e+00 0.00000000e+00 1.07335627e-12
1.14815362e-03 1.26691391e-12 1.26690456e-12 9.35805971e-18 0.00000000e+00 0.00000000e+00 1.26690456e-12
1.31825674e-03 1.49536705e-12 1.49535359e-12 1.34558366e-17 0.00000000e+00 0.00000000e+00 1.49535359e-12
1.51356125e-03 1.76501628e-12 1.76499670e-12 1.95815260e-17 0.00000000e+00 0.00000000e+00 1.76499670e-12
1.73780083e-03 2.08329788e-12 2.08326203e-12 3.58553998e-17 0.00000000e+00 0.00000000e+00 2.08326203e-12
1.99526231e-03 2.45897469e-12 2.45891716e-12 5.75277863e-17 0.00000000e+00 0.00000000e+00 2.45891716e-12
2.29086765e-03 2.90240039e-12 2.90231066e-12 8.97256824e-17 0.00000000e+00 0.00000000e+00 2.90231066e-12
2.63026799e-03 3.42582804e-12 3.42565717e-12 1.70876310e-16 0.00000000e+00 0.00000000e+00 3.42565717e-12
3.01995172e-03 4.04364296e-12 4.04337385e-12 2.69115009e-16 0.00000000e+00 0.00000000e+00 4.04337385e-12
3.46736850e-03 4.77288980e-12 4.77247759e-12 4.12213125e-16 0.00000000e+00 0.00000000e+00 4.77247759e-12
3.98107171e-03 5.63367655e-12 5.63305378e-12 6.22765223e-16 0.00000000e+00 0.00000000e+00 5.63305378e-12
4.57088190e-03 6.65048419e-12 6.64880962e-12 1.67456634e-15 0.00000000e+00 0.00000000e+00 6.64880962e-12
5.24807460e-03 7.85054719e-12 7.84772720e-12 2.81999352e-15 0.00000000e+00 0.00000000e+00 7.84772720e-12
6.02559586e-03 9.26777756e-12 9.26283435e-12 4.94321085e-15 0.00000000e+00 0.00000000e+00 9.26283435e-12
6.91830971e-03 1.09416814e-11 1.09331145e-11 8.56690847e-15 0.00000000e+00 0.00000000e+00 1.09331145e-11
7.94328235e-03 1.29174004e-11 1.29045807e-11 1.28197302e-14 0.00000000e+00 0.00000000e+00 1.29045807e-11
9.12010839e-03 1.52494087e-11 1.52315429e-11 1.78657738e-14 0.00000000e+00 0.00000000e+00 1.52315429e-11
1.04712855e-02 1.70357940e-11 1.70115517e-11 2.42423070e-14 0.00000000e+00 0.00000000e+00 1.70115517e-11
1.20226443e-02 1.70484714e-11 1.70115517e-11 3.69196631e-14 0.00000000e+00 0.00000000e+00 1.70115517e-11
1.38038426e-02 1.70846821e-11 1.70115517e-11 7.31304181e-14 1.36511521e-273 1.01103583e-273 1.70115517e-11
1.58489319e-02 1.70907796e-11 1.70115517e-11 7.92279106e-14 3.36176073e-239 2.49809299e-239 1.70115517e-11
1.81970086e-02 1.71155593e-11 1.70115517e-11 1.04007584e-13 2.99474256e-209 2.27415535e-209 1.70115517e-11
2.08929613e-02 1.71429802e-11 1.70115517e-11 1.31428478e-13 3.20260991e-183 2.45822053e-183 1.70115517e-11
2.39883292e-02 1.71886664e-11 1.70115517e-11 1.77114712e-13 1.24751186e-160 9.42180687e-161 1.70115517e-11
2.75422870e-02 1.72300193e-11 1.70115517e-11 2.18467554e-13 5.69414543e-141 4.32399216e-141 1.70115517e-11
3.16227766e-02 1.72603595e-11 1.70115517e-11 2.48807767e-13 6.97675726e-124 5.34657158e-124 1.70115517e-11
3.63078055e-02 1.72895504e-11 1.70115517e-11 2.77998653e-13 4.92615247e-109 3.77105604e-109 1.70115517e-11
4.16869383e-02 1.73577987e-11 1.70115517e-11 3.46247000e-13 4.16448003e-96 3.22932981e-96 1.70115517e-11
4.78630092e-02 1.74203729e-11 1.70115517e-11 4.08821191e-13 6.18041544e-85 4.96010653e-85 1.70115517e-11
5.49540874e-02 1.74462500e-11 1.70115517e-11 4.34698278e-13 2.97256779e-75 2.26182753e-75 1.70115517e-11
6.30957344e-02 1.74101337e-11 1.70115517e-11 3.98582011e-13 1.10327864e-66 6.54054440e-67 1.70115517e-11
7.24435960e-02 1.73317068e-11 1.70115517e-11 3.20155051e-13 5.24191433e-59 1.66658815e-59 1.70115517e-11
8.31763771e-02 1.73256401e-11 1.70115517e-11 3.14088362e-13 2.70054993e-52 5.43768376e-53 1.70115517e-11
9.54992586e-02 1.73352644e-11 1.70115517e-11 3.23712700e-13 1.87991341e-46 2.95011195e-47 1.70115517e-11
1.09647820e-01 1.66159185e-11 1.62459122e-11 3.70006340e-13 2.08065992e-41 3.18151230e-42 1.62459122e-11
1.25892541e-01 1.55506511e-11 1.51615674e-11 3.89083678e-13 4.83266159e-37 7.44231429e-38 1.51615674e-11
1.44543977e-01 1.45291067e-11 1.41495980e-11 3.79508747e-13 2.80066550e-33 4.17062066e-34 1.41495980e-11
1.65958691e-01 1.36116205e-11 1.32051732e-11 4.06447316e-13 3.76807943e-30 6.08804868e-31 1.32051732e-11
1.90546072e-01 1.27423316e-11 1.23237846e-11 4.18547002e-13 1.39889098e-27 2.59831974e-28 1.23237846e-11
2.18776162e-01 1.18501063e-11 1.15012250e-11 3.48881304e-13 1.97528218e-25 3.65809398e-26 1.15012250e-11
2.51188643e-01 1.11455516e-11 1.07335677e-11 4.11983902e-13 2.38254909e-23 5.52678277e-24 1.07335677e-11
2.88403150e-01 1.04394189e-11 1.00171482e-11 4.22270626e-13 1.47585488e-21 3.67289788e-22 1.00171482e-11
3.31131121e-01 9.75783823e-12 9.34854667e-12 4.09291504e-13 5.05150894e-20 1.31689894e-20 9.34854667e-12
3.80189396e-01 9.11981523e-12 8.72457139e-12 3.95242779e-13 1.06085171e-18 2.91600846e-19 8.72457139e-12
4.36515832e-01 8.51509484e-12 8.14224377e-12 3.72836506e-13 1.45618819e-17 4.22745780e-18 8.14224377e-12
5.01187234e-01 7.95585952e-12 7.59878402e-12 3.56937344e-13 1.38163826e-16 4.26473531e-17 7.59878402e-12
5.75439937e-01 7.42670672e-12 7.09159786e-12 3.34154645e-13 9.54205491e-16 3.07106022e-16 7.09159786e-12
6.60693448e-01 6.93915678e-12 6.61826421e-12 3.15905410e-13 4.98716009e-15 1.63251071e-15 6.61826421e-12
7.58577575e-01 6.47703968e-12 6.17652353e-12 2.79931778e-13 2.05843703e-14 6.76245836e-15 6.17652353e-12
8.70963590e-01 6.08779627e-12 5.76426715e-12 2.52553041e-13 7.09760721e-14 2.27486823e-14 5.76426715e-12
1.00000000e+00 5.79594160e-12 5.37952711e-12 2.14891115e-13 2.01523369e-13 6.10859769e-14 5.37952711e-12
1.14815362e+00 5.70209378e-12 5.02046681e-12 1.80301195e-13 5.01325776e-13 1.41025313e-13 5.02046681e-12
1.31825674e+00 5.93126234e-12 4.68537225e-12 1.41531255e-13 1.10435884e-12 2.74577345e-13 4.68537225e-12
1.51356125e+00 6.63157989e-12 4.37264380e-12 1.11449649e-13 2.14748644e-12 4.61403880e-13 4.37264380e-12
1.73780083e+00 7.91248738e-12 4.08078863e-12 8.83788589e-14 3.74331989e-12 6.70126455e-13 4.08078863e-12
1.99526231e+00 9.65964585e-12 3.80841354e-12 6.74052097e-14 5.78382710e-12 8.40106288e-13 3.80841354e-12
2.29086765e+00 1.17407133e-11 3.55421832e-12 5.15355974e-14 8.13495937e-12 9.29296898e-13 3.55421832e-12
2.63026799e+00 1.38410081e-11 3.31698953e-12 3.79896159e-14 1.04860290e-11 9.36231434e-13 3.31698953e-12
3.01995172e+00 1.57127805e-11 3.09559474e-12 2.81157230e-14 1.25890701e-11 8.75485078e-13 3.09559474e-12
3.46736850e+00 1.73707180e-11 2.88897711e-12 2.04505288e-14 1.44612904e-11 7.87928734e-13 2.88897711e-12
3.98107171e+00 1.86783356e-11 2.69615031e-12 1.45335710e-14 1.59676517e-11 6.63771566e-13 2.69615031e-12
4.57088190e+00 1.95931144e-11 2.51619387e-12 1.00520526e-14 1.70668684e-11 5.19831773e-13 2.51619387e-12
5.24807460e+00 1.96364166e-11 2.08050667e-12 5.85073544e-15 1.75500592e-11 3.65752675e-13 2.08050667e-12
6.02559586e+00 1.89783864e-11 1.37457712e-12 2.60859477e-15 1.76012007e-11 2.39938890e-13 1.37457712e-12
6.70000000e+00 1.82881775e-11 9.99872685e-13 1.35132882e-15 1.72869534e-11 1.63005360e-13 9.99872685e-13
6.92422916e+00 1.80475184e-11 9.05846924e-13 1.09720840e-15 1.71405742e-11 1.42925487e-13 9.05846924e-13
7.15596261e+00 1.78814670e-11 8.20663132e-13 8.71345945e-16 1.70599325e-11 1.23678663e-13 8.20663132e-13
7.39545150e+00 1.78300446e-11 7.43489831e-13 6.65461809e-16 1.70858893e-11 1.05166138e-13 7.43489831e-13
7.64295536e+00 1.82640414e-11 6.73573732e-13 4.57723873e-16 1.75900099e-11 8.56693222e-14 6.73573732e-13
7.89874245e+00 1.90725020e-11 6.10232385e-13 2.73296982e-16 1.84619963e-11 6.46701830e-14 6.10232385e-13
8.16308998e+00 2.00437251e-11 5.52847515e-13 1.54781292e-16 1.94907228e-11 4.69089166e-14 5.52847515e-13
8.43628443e+00 2.08429043e-11 5.00858987e-13 8.15778586e-17 2.03419637e-11 3.22582814e-14 5.00858987e-13
8.71862190e+00 2.13271490e-11 4.53759343e-13 4.95476627e-17 2.08733401e-11 2.41920761e-14 4.53759343e-13
9.01040836e+00 2.15173171e-11 4.11088843e-13 2.98765845e-17 2.11061984e-11 1.77957423e-14 4.11088843e-13
9.31196005e+00 2.19326890e-11 3.72430980e-13 0.00000000e+00 2.15602581e-11 0.00000000e+00 3.72430980e-13
9.62360379e+00 2.18233988e-11 3.37408415e-13 0.00000000e+00 2.14859904e-11 0.00000000e+00 3.37408415e-13
9.94567731e+00 2.12642628e-11 3.05679292e-13 0.00000000e+00 2.09585835e-11 0.00000000e+00 3.05679292e-13
1.02785297e+01 2.09177146e-11 2.76933904e-13 0.00000000e+00 2.06407807e-11 0.00000000e+00 2.76933904e-13
1.06225216e+01 2.04991680e-11 2.50891667e-13 0.00000000e+00 2.02482763e-11 0.00000000e+00 2.50891667e-13
1.09780260e+01 1.99693037e-11 2.27298384e-13 0.00000000e+00 1.97420053e-11 0.00000000e+00 2.27298384e-13
1.13454280e+01 1.94597604e-11 2.05923759e-13 0.00000000e+00 1.92538367e-11 0.00000000e+00 2.05923759e-13
1.17251259e+01 1.90229864e-11 1.86559155e-13 0.00000000e+00 1.88364273e-11 0.00000000e+00 1.86559155e-13
1.21175312e+01 1.83584405e-11 1.69015555e-13 0.00000000e+00 1.81894250e-11 0.00000000e+00 1.69015555e-13
1.25230691e+01 1.77259997e-11 1.53121715e-13 0.00000000e+00 1.75728780e-11 0.00000000e+00 1.53121715e-13
1.29421791e+01 1.70607401e-11 1.38722496e-13 0.00000000e+00 1.69220176e-11 0.00000000e+00 1.38722496e-13
1.33753155e+01 1.63928038e-11 1.25677347e-13 0.00000000e+00 1.62671265e-11 0.00000000e+00 1.25677347e-13
1.38229477e+01 1.57636915e-11 1.13858934e-13 0.00000000e+00 1.56498326e-11 0.00000000e+00 1.13858934e-13
1.42855609e+01 1.54578956e-11 1.03151898e-13 0.00000000e+00 1.53547437e-11 0.00000000e+00 1.03151898e-13
1.47636563e+01 1.55364732e-11 9.34517274e-14 0.00000000e+00 1.54430214e-11 0.00000000e+00 9.34517274e-14
1.52577522e+01 1.57369232e-11 8.46637387e-14 0.00000000e+00 1.56522594e-11 0.00000000e+00 8.46637387e-14
1.57683840e+01 1.61069994e-11 7.67021526e-14 0.00000000e+00 1.60302972e-11 0.00000000e+00 7.67021526e-14
1.62961051e+01 1.63766521e-11 6.94892560e-14 0.00000000e+00 1.63071628e-11 0.00000000e+00 6.94892560e-14
1.68414875e+01 1.66029677e-11 6.29546439e-14 0.00000000e+00 1.65400130e-11 0.00000000e+00 6.29546439e-14
1.74051222e+01 1.67037511e-11 5.70345319e-14 0.00000000e+00 1.66467166e-11 0.00000000e+00 5.70345319e-14
1.79876201e+01 1.67889362e-11 5.16711337e-14 0.00000000e+00 1.67372650e-11 0.00000000e+00 5.16711337e-14
1.85896125e+01 1.66203127e-11 4.68120974e-14 0.00000000e+00 1.65735006e-11 0.00000000e+00 4.68120974e-14
1.92117518e+01 1.62612306e-11 4.24099939e-14 0.00000000e+00 1.62188206e-11 0.00000000e+00 4.24099939e-14
1.98547123e+01 1.58944116e-11 3.84218542e-14 0.00000000e+00 1.58559897e-11 0.00000000e+00 3.84218542e-14
2.05191907e+01 1.53848612e-11 3.48087501e-14 0.00000000e+00 1.53500524e-11 0.00000000e+00 3.48087501e-14
2.12059073e+01 1.48661228e-11 3.15354141e-14 0.00000000e+00 1.48345874e-11 0.00000000e+00 3.15354141e-14
2.19156062e+01 1.43936938e-11 2.85698952e-14 0.00000000e+00 1.43651239e-11 0.00000000e+00 2.85698952e-14
2.26490567e+01 1.38430542e-11 2.58832470e-14 0.00000000e+00 1.38171709e-11 0.00000000e+00 2.58832470e-14
2.34070535e+01 1.33409886e-11 2.34492452e-14 0.00000000e+00 1.33175394e-11 0.00000000e+00 2.34492452e-14
2.41904183e+01 1.27862470e-11 2.12441313e-14 0.00000000e+00 1.27650029e-11 0.00000000e+00 2.12441313e-14
2.50000000e+01 1.22565655e-11 1.92463813e-14 0.00000000e+00 1.22373191e-11 0.00000000e+00 1.92463813e-14
2.75422870e+01 1.06940010e-11 1.43935895e-14 0.00000000e+00 1.06796074e-11 0.00000000e+00 1.43935895e-14
3.16227766e+01 8.42843062e-12 9.50975027e-15 0.00000000e+00 8.41892087e-12 0.00000000e+00 9.50975027e-15
3.63078055e+01 6.28661985e-12 6.28302969e-15 0.00000000e+00 6.28033682e-12 0.00000000e+00 6.28302969e-15
4.16869383e+01 4.38054136e-12 4.15115655e-15 0.00000000e+00 4.37639021e-12 0.00000000e+00 4.15115655e-15
4.78630092e+01 2.85208930e-12 2.74264194e-15 0.00000000e+00 2.84934665e-12 0.00000000e+00 2.74264194e-15
5.49540874e+01 1.75701534e-12 1.81204556e-15 0.00000000e+00 1.75520330e-12 0.00000000e+00 1.81204556e-15
6.30957344e+01 1.03662144e-12 1.19720663e-15 0.00000000e+00 1.03542423e-12 0.00000000e+00 1.19720663e-15
7.24435960e+01 5.91779285e-13 7.90986575e-16 0.00000000e+00 5.90988299e-13 0.00000000e+00 7.90986575e-16
8.31763771e+01 3.29690368e-13 5.22599647e-16 0.00000000e+00 3.29167768e-13 0.00000000e+00 5.22599647e-16
9.54992586e+01 1.80706080e-13 3.45278163e-16 0.00000000e+00 1.80360802e-13 0.00000000e+00 3.45278163e-16
1.09647820e+02 9.79039233e-14 2.28123020e-16 0.00000000e+00 9.76758002e-14 0.00000000e+00 2.28123020e-16
1.25892541e+02 5.31569035e-14 1.50719385e-16 0.00000000e+00 5.30061841e-14 0.00000000e+00 1.50719385e-16
1.44543977e+02 2.87814697e-14 9.95793099e-17 0.00000000e+00 2.86818904e-14 0.00000000e+00 9.95793099e-17
1.65958691e+02 1.48830713e-14 6.57913976e-17 0.00000000e+00 1.48172799e-14 0.00000000e+00 6.57913976e-17
1.90546072e+02 7.71873638e-15 4.34679453e-17 0.00000000e+00 7.67526844e-15 0.00000000e+00 4.34679453e-17
2.18776162e+02 4.00350805e-15 2.87189867e-17 0.00000000e+00 3.97478906e-15 0.00000000e+00 2.87189867e-17
2.51188643e+02 2.07288555e-15 1.89744463e-17 0.00000000e+00 2.05391111e-15 0.00000000e+00 1.89744463e-17
2.88403150e+02 1.07004022e-15 1.25362924e-17 0.00000000e+00 1.05750393e-15 0.00000000e+00 1.25362924e-17
3.31131121e+02 5.51717083e-16 8.28264623e-18 0.00000000e+00 5.43434437e-16 0.00000000e+00 8.28264623e-18
3.80189396e+02 2.83873076e-16 5.47229010e-18 0.00000000e+00 2.78400786e-16 0.00000000e+00 5.47229010e-18
4.36515832e+02 1.45968115e-16 3.61550621e-18 0.00000000e+00 1.42352609e-16 0.00000000e+00 3.61550621e-18
5.01187234e+02 7.50118878e-17 2.38874127e-18 0.00000000e+00 7.26231465e-17 0.00000000e+00 2.38874127e-18
5.75439937e+02 3.85608753e-17 1.57822570e-18 0.00000000e+00 3.69826496e-17 0.00000000e+00 1.57822570e-18
6.60693448e+02 1.98455373e-17 1.04272338e-18 0.00000000e+00 1.88028139e-17 0.00000000e+00 1.04272338e-18
7.58577575e+02 1.02353596e-17 6.88920507e-19 0.00000000e+00 9.54643908e-18 0.00000000e+00 6.88920507e-19
8.70963590e+02 5.29489257e-18 4.55165265e-19 0.00000000e+00 4.83972731e-18 0.00000000e+00 4.55165265e-19
1.00000000e+03 2.45012402e-18 0.00000000e+00 0.00000000e+00 2.45012402e-18 0.00000000e+00 0.00000000e+00
