# column 1: lambda (micron)
# column 2: total flux; lambda*F_lambda (W/m2)
# column 3: direct stellar flux; lambda*F_lambda (W/m2)
# column 4: scattered stellar flux; lambda*F_lambda (W/m2)
# column 5: total dust emission flux; lambda*F_lambda (W/m2)
# column 6: dust emission scattered flux; lambda*F_lambda (W/m2)
# column 7: transparent flux; lambda*F_lambda (W/m2)
1.00000000e-03 5.25637621e-13 5.25636674e-13 9.47469276e-19 0.00000000e+00 0.00000000e+00 5.25636674e-13
1.14815362e-03 6.20421312e-13 6.20419813e-13 1.49922857e-18 0.00000000e+00 0.00000000e+00 6.20419813e-13
1.31825674e-03 7.32296586e-13 7.32294308e-13 2.27781634e-18 0.00000000e+00 0.00000000e+00 7.32294308e-13
1.51356125e-03 8.64345625e-13 8.64342083e-13 3.54218202e-18 0.00000000e+00 0.00000000e+00 8.64342083e-13
1.73780083e-03 1.02020747e-12 1.02020080e-12 6.67440512e-18 0.00000000e+00 0.00000000e+00 1.02020080e-12
1.99526231e-03 1.20417478e-12 1.20416405e-12 1.07299339e-17 0.00000000e+00 0.00000000e+00 1.20416405e-12
2.29086765e-03 1.42131816e-12 1.42129968e-12 1.84754688e-17 0.00000000e+00 0.00000000e+00 1.42129968e-12
2.63026799e-03 1.67762251e-12 1.67758934e-12 3.31651673e-17 0.00000000e+00 0.00000000e+00 1.67758934e-12
3.01995172e-03 1.98015154e-12 1.98009332e-12 5.82248680e-17 0.00000000e+00 0.00000000e+00 1.98009332e-12
3.46736850e-03 2.33724766e-12 2.33714500e-12 1.02655149e-16 0.00000000e+00 0.00000000e+00 2.33714500e-12
3.98107171e-03 2.75872665e-12 2.75858048e-12 1.46171743e-16 0.00000000e+00 0.00000000e+00 2.75858048e-12
4.57088190e-03 3.25635631e-12 3.25600946e-12 3.46847368e-16 0.00000000e+00 0.00000000e+00 3.25600946e-12
5.24807460e-03 3.84372441e-12 3.84313516e-12 5.89247722e-16 0.00000000e+00 0.00000000e+00 3.84313516e-12
6.02559586e-03 4.53724956e-12 4.53613173e-12 1.11782831e-15 0.00000000e+00 0.00000000e+00 4.53613173e-12
6.91830971e-03 5.35582483e-12 5.35408989e-12 1.73494080e-15 0.00000000e+00 0.00000000e+00 5.35408989e-12
7.94328235e-03 6.32257610e-12 6.31954278e-12 3.03331979e-15 5.02408887e-305 6.18394649e-306 6.31954278e-12
9.12010839e-03 7.46342129e-12 7.45908676e-12 4.33453505e-15 4.37388526e-266 1.98900738e-267 7.45908676e-12
1.04712855e-02 8.33756590e-12 8.33078048e-12 6.78542276e-15 3.68160852e-232 2.32690761e-233 8.33078048e-12
1.20226443e-02 8.34021077e-12 8.33078048e-12 9.43029516e-15 1.01717582e-202 4.75885394e-204 8.33078048e-12
1.38038426e-02 8.34839266e-12 8.33078048e-12 1.76121798e-14 4.83846718e-177 4.55132645e-178 8.33078048e-12
1.58489319e-02 8.35299112e-12 8.33078048e-12 2.22106425e-14 9.82446808e-155 6.15182089e-156 8.33078048e-12
1.81970086e-02 8.35739997e-12 8.33078048e-12 2.66194962e-14 2.58274121e-135 1.69037490e-136 8.33078048e-12
2.08929613e-02 8.36938110e-12 8.33078048e-12 3.86006268e-14 1.85962460e-118 1.00448917e-119 8.33078048e-12
2.39883292e-02 8.38061397e-12 8.33078048e-12 4.98334901e-14 8.79792126e-104 5.45077658e-105 8.33078048e-12
2.75422870e-02 8.40045438e-12 8.33078048e-12 6.96739070e-14 5.04517296e-91 3.18905907e-92 8.33078048e-12
3.16227766e-02 8.40516083e-12 8.33078048e-12 7.43803578e-14 6.13787044e-80 4.04944460e-81 8.33078048e-12
3.63078055e-02 8.41378943e-12 8.33078048e-12 8.30089560e-14 2.57087547e-70 1.67563485e-71 8.33078048e-12
4.16869383e-02 8.43613382e-12 8.33078048e-12 1.05353344e-13 5.80704846e-62 4.19597525e-63 8.33078048e-12
4.78630092e-02 8.46040981e-12 8.33078048e-12 1.29629335e-13 1.01374718e-54 8.16412201e-56 8.33078048e-12
5.49540874e-02 8.47255239e-12 8.33078048e-12 1.41771912e-13 1.89202667e-48 1.66828877e-49 8.33078048e-12
6.30957344e-02 8.49372848e-12 8.33078048e-12 1.62948004e-13 6.70251299e-43 6.26291639e-44 8.33078048e-12
7.24435960e-02 8.48716315e-12 8.33078048e-12 1.56382678e-13 4.15202813e-38 3.66991884e-39 8.33078048e-12
8.31763771e-02 8.48559222e-12 8.33078048e-12 1.54811744e-13 4.63682007e-34 3.98567952e-35 8.33078048e-12
9.54992586e-02 8.48764117e-12 8.33078048e-12 1.56860694e-13 1.41576651e-30 1.26681108e-31 8.33078048e-12
1.09647820e-01 8.11218801e-12 7.95583672e-12 1.56351294e-13 1.30957593e-27 1.21821498e-28 7.95583672e-12
1.25892541e-01 7.56636757e-12 7.42481883e-12 1.41548737e-13 4.55667995e-25 4.17442080e-26 7.42481883e-12
1.44543977e-01 7.05820655e-12 6.92924411e-12 1.28962436e-13 6.62628470e-23 5.96568103e-24 6.92924411e-12
1.65958691e-01 6.59721440e-12 6.46674687e-12 1.30467529e-13 3.54800802e-21 3.49349769e-22 6.46674687e-12
1.90546072e-01 6.17237603e-12 6.03511933e-12 1.37256622e-13 7.75828821e-20 8.70362750e-21 6.03511933e-12
2.18776162e-01 5.77160377e-12 5.63230107e-12 1.39301767e-13 9.40300443e-19 1.08512677e-19 5.63230107e-12
2.51188643e-01 5.40999308e-12 5.25636919e-12 1.53611826e-13 1.20562196e-17 1.69234171e-18 5.25636919e-12
2.88403150e-01 5.03990345e-12 4.90552916e-12 1.34270042e-13 1.04253258e-16 1.45260273e-17 4.90552916e-12
3.31131121e-01 4.70094236e-12 4.57810618e-12 1.22217143e-13 6.19031346e-16 8.44760343e-17 4.57810618e-12
3.80189396e-01 4.38365562e-12 4.27253728e-12 1.08466394e-13 2.65193630e-15 3.58524723e-16 4.27253728e-12
4.36515832e-01 4.09640398e-12 3.98736380e-12 1.00380174e-13 8.66000713e-15 1.16386641e-15 3.98736380e-12
5.01187234e-01 3.83715266e-12 3.72122441e-12 9.37355235e-14 2.21927250e-14 3.00893098e-15 3.72122441e-12
5.75439937e-01 3.60530969e-12 3.47284869e-12 8.57596825e-14 4.67013217e-14 6.31950111e-15 3.47284869e-12
6.60693448e-01 3.40262678e-12 3.24105097e-12 7.70367723e-14 8.45390371e-14 1.14050116e-14 3.24105097e-12
7.58577575e-01 3.22974480e-12 3.02472476e-12 6.85960684e-14 1.36423972e-13 1.83445097e-14 3.02472476e-12
8.70963590e-01 3.08466481e-12 2.82283739e-12 5.99172144e-14 2.01910206e-13 2.68666893e-14 2.82283739e-12
1.00000000e+00 2.96486588e-12 2.63442513e-12 5.12882296e-14 2.79152518e-13 3.62444657e-14 2.63442513e-12
1.14815362e+00 2.88352926e-12 2.45858859e-12 4.30387394e-14 3.81901932e-13 4.80820066e-14 2.45858859e-12
1.31825674e+00 2.85032391e-12 2.29448837e-12 3.42972413e-14 5.21538292e-13 6.20957623e-14 2.29448837e-12
1.51356125e+00 2.87725028e-12 2.14134114e-12 2.73877579e-14 7.08521383e-13 7.68441294e-14 2.14134114e-12
1.73780083e+00 2.96584681e-12 1.99841583e-12 2.01874649e-14 9.47243515e-13 8.82051373e-14 1.99841583e-12
1.99526231e+00 3.08761934e-12 1.86503017e-12 1.47509063e-14 1.20783826e-12 9.07387394e-14 1.86503017e-12
2.29086765e+00 3.19922627e-12 1.74054743e-12 1.02298554e-14 1.44844899e-12 8.46970485e-14 1.74054743e-12
2.63026799e+00 3.27128883e-12 1.62437337e-12 7.17204013e-15 1.63974342e-12 7.26561692e-14 1.62437337e-12
3.01995172e+00 3.27955096e-12 1.51595343e-12 4.98558362e-15 1.75861194e-12 5.94708621e-14 1.51595343e-12
3.46736850e+00 3.21828766e-12 1.41477006e-12 3.51515291e-15 1.80000245e-12 4.67017258e-14 1.41477006e-12
3.98107171e+00 3.09201301e-12 1.32034025e-12 2.45638363e-15 1.76921638e-12 3.50152695e-14 1.32034025e-12
4.57088190e+00 2.92636745e-12 1.23221321e-12 1.64206089e-15 1.69251217e-12 2.50403507e-14 1.23221321e-12
5.24807460e+00 2.60495243e-12 1.01885146e-12 9.49487186e-16 1.58515148e-12 1.68506173e-14 1.01885146e-12
6.02559586e+00 2.14383131e-12 6.73148485e-13 4.12505053e-16 1.47027032e-12 1.07453316e-14 6.73148485e-13
6.70000000e+00 1.86582374e-12 4.89650796e-13 2.13122619e-16 1.37595982e-12 7.21383472e-15 4.89650796e-13
6.92422916e+00 1.78971925e-12 4.43605145e-13 1.71953622e-16 1.34594216e-12 6.29748830e-15 4.43605145e-13
7.15596261e+00 1.72646980e-12 4.01889522e-13 1.38364180e-16 1.32444191e-12 5.43211937e-15 4.01889522e-13
7.39545150e+00 1.69208337e-12 3.64096743e-13 1.02391441e-16 1.32788424e-12 4.63843211e-15 3.64096743e-13
7.64295536e+00 1.73388403e-12 3.29857910e-13 7.27619204e-17 1.40395336e-12 3.79718820e-15 3.29857910e-13
7.89874245e+00 1.87343821e-12 2.98838820e-13 4.37304557e-17 1.57455566e-12 2.96189402e-15 2.98838820e-13
8.16308998e+00 2.09000493e-12 2.70736695e-13 2.48785431e-17 1.81924335e-12 2.26694302e-15 2.70736695e-13
8.43628443e+00 2.38386132e-12 2.45277229e-13 1.39400833e-17 2.13857015e-12 1.67067123e-15 2.45277229e-13
8.71862190e+00 2.57576490e-12 2.22211915e-13 8.75027797e-18 2.35354423e-12 1.28740858e-15 2.22211915e-13
9.01040836e+00 2.75039270e-12 2.01315610e-13 5.80711331e-18 2.54907128e-12 9.73635059e-16 2.01315610e-13
9.31196005e+00 2.89166544e-12 1.82384346e-13 0.00000000e+00 2.70928109e-12 0.00000000e+00 1.82384346e-13
9.62360379e+00 2.82020420e-12 1.65233336e-13 0.00000000e+00 2.65497086e-12 0.00000000e+00 1.65233336e-13
9.94567731e+00 2.64414940e-12 1.49695167e-13 0.00000000e+00 2.49445423e-12 0.00000000e+00 1.49695167e-13
1.02785297e+01 2.43675091e-12 1.35618173e-13 0.00000000e+00 2.30113274e-12 0.00000000e+00 1.35618173e-13
1.06225216e+01 2.24512421e-12 1.22864947e-13 0.00000000e+00 2.12225926e-12 0.00000000e+00 1.22864947e-13
1.09780260e+01 2.02335817e-12 1.11311006e-13 0.00000000e+00 1.91204716e-12 0.00000000e+00 1.11311006e-13
1.13454280e+01 1.84601521e-12 1.00843571e-13 0.00000000e+00 1.74517164e-12 0.00000000e+00 1.00843571e-13
1.17251259e+01 1.69323600e-12 9.13604705e-14 0.00000000e+00 1.60187553e-12 0.00000000e+00 9.13604705e-14
1.21175312e+01 1.55086622e-12 8.27691389e-14 0.00000000e+00 1.46809708e-12 0.00000000e+00 8.27691389e-14
1.25230691e+01 1.42196570e-12 7.49857166e-14 0.00000000e+00 1.34697998e-12 0.00000000e+00 7.49857166e-14
1.29421791e+01 1.31583122e-12 6.79342298e-14 0.00000000e+00 1.24789699e-12 0.00000000e+00 6.79342298e-14
1.33753155e+01 1.21736094e-12 6.15458488e-14 0.00000000e+00 1.15581509e-12 0.00000000e+00 6.15458488e-14
1.38229477e+01 1.15148080e-12 5.57582167e-14 0.00000000e+00 1.09572258e-12 0.00000000e+00 5.57582167e-14
1.42855609e+01 1.10930037e-12 5.05148403e-14 0.00000000e+00 1.05878553e-12 0.00000000e+00 5.05148403e-14
1.47636563e+01 1.10833337e-12 4.57645392e-14 0.00000000e+00 1.06256883e-12 0.00000000e+00 4.57645392e-14
1.52577522e+01 1.12252760e-12 4.14609457e-14 0.00000000e+00 1.08106665e-12 0.00000000e+00 4.14609457e-14
1.57683840e+01 1.13850329e-12 3.75620523e-14 0.00000000e+00 1.10094124e-12 0.00000000e+00 3.75620523e-14
1.62961051e+01 1.15473796e-12 3.40298020e-14 0.00000000e+00 1.12070816e-12 0.00000000e+00 3.40298020e-14
1.68414875e+01 1.16552661e-12 3.08297166e-14 0.00000000e+00 1.13469689e-12 0.00000000e+00 3.08297166e-14
1.74051222e+01 1.16825460e-12 2.79305599e-14 0.00000000e+00 1.14032404e-12 0.00000000e+00 2.79305599e-14
1.79876201e+01 1.16570176e-12 2.53040334e-14 0.00000000e+00 1.14039773e-12 0.00000000e+00 2.53040334e-14
1.85896125e+01 1.14494555e-12 2.29244994e-14 0.00000000e+00 1.12202105e-12 0.00000000e+00 2.29244994e-14
1.92117518e+01 1.11730352e-12 2.07687314e-14 0.00000000e+00 1.09653479e-12 0.00000000e+00 2.07687314e-14
1.98547123e+01 1.07722155e-12 1.88156870e-14 0.00000000e+00 1.05840587e-12 0.00000000e+00 1.88156870e-14
2.05191907e+01 1.03650033e-12 1.70463024e-14 0.00000000e+00 1.01945403e-12 0.00000000e+00 1.70463024e-14
2.12059073e+01 9.96824813e-13 1.54433068e-14 0.00000000e+00 9.81381506e-13 0.00000000e+00 1.54433068e-14
2.19156062e+01 9.59673538e-13 1.39910532e-14 0.00000000e+00 9.45682485e-13 0.00000000e+00 1.39910532e-14
2.26490567e+01 9.24281389e-13 1.26753663e-14 0.00000000e+00 9.11606023e-13 0.00000000e+00 1.26753663e-14
2.34070535e+01 8.90315128e-13 1.14834036e-14 0.00000000e+00 8.78831724e-13 0.00000000e+00 1.14834036e-14
2.41904183e+01 8.57922369e-13 1.04035303e-14 0.00000000e+00 8.47518839e-13 0.00000000e+00 1.04035303e-14
2.50000000e+01 8.26899573e-13 9.42520591e-15 0.00000000e+00 8.17474367e-13 0.00000000e+00 9.42520591e-15
2.75422870e+01 7.32645972e-13 7.04872996e-15 0.00000000e+00 7.25597242e-13 0.00000000e+00 7.04872996e-15
3.16227766e+01 6.00518435e-13 4.65704970e-15 0.00000000e+00 5.95861385e-13 0.00000000e+00 4.65704970e-15
3.63078055e+01 4.67545348e-13 3.07688223e-15 0.00000000e+00 4.64468466e-13 0.00000000e+00 3.07688223e-15
4.16869383e+01 3.41789098e-13 2.03287593e-15 0.00000000e+00 3.39756222e-13 0.00000000e+00 2.03287593e-15
4.78630092e+01 2.33534106e-13 1.34310781e-15 0.00000000e+00 2.32190998e-13 0.00000000e+00 1.34310781e-15
5.49540874e+01 1.51506893e-13 8.87382527e-16 0.00000000e+00 1.50619510e-13 0.00000000e+00 8.87382527e-16
6.30957344e+01 9.39449299e-14 5.86287821e-16 0.00000000e+00 9.33586420e-14 0.00000000e+00 5.86287821e-16
7.24435960e+01 5.62582877e-14 3.87356522e-16 0.00000000e+00 5.58709312e-14 0.00000000e+00 3.87356522e-16
8.31763771e+01 3.27889576e-14 2.55923916e-16 0.00000000e+00 3.25330337e-14 0.00000000e+00 2.55923916e-16
9.54992586e+01 1.87398594e-14 1.69087255e-16 0.00000000e+00 1.85707721e-14 0.00000000e+00 1.69087255e-16
1.09647820e+02 1.05506587e-14 1.11714841e-16 0.00000000e+00 1.04389438e-14 0.00000000e+00 1.11714841e-16
1.25892541e+02 5.93428152e-15 7.38092637e-17 0.00000000e+00 5.86047226e-15 0.00000000e+00 7.38092637e-17
1.44543977e+02 3.31612775e-15 4.87652969e-17 0.00000000e+00 3.26736245e-15 0.00000000e+00 4.87652969e-17
1.65958691e+02 1.76419726e-15 3.22189122e-17 0.00000000e+00 1.73197835e-15 0.00000000e+00 3.22189122e-17
1.90546072e+02 9.38877877e-16 2.12868242e-17 0.00000000e+00 9.17591053e-16 0.00000000e+00 2.12868242e-17
2.18776162e+02 4.98803655e-16 1.40640653e-17 0.00000000e+00 4.84739589e-16 0.00000000e+00 1.40640653e-17
2.51188643e+02 2.64146517e-16 9.29203577e-18 0.00000000e+00 2.54854481e-16 0.00000000e+00 9.29203577e-18
2.88403150e+02 1.39347244e-16 6.13918715e-18 0.00000000e+00 1.33208057e-16 0.00000000e+00 6.13918715e-18
3.31131121e+02 7.34117901e-17 4.05612073e-18 0.00000000e+00 6.93556694e-17 0.00000000e+00 4.05612073e-18
3.80189396e+02 3.86155619e-17 2.67985239e-18 0.00000000e+00 3.59357096e-17 0.00000000e+00 2.67985239e-18
4.36515832e+02 2.03270642e-17 1.77056092e-18 0.00000000e+00 1.85565032e-17 0.00000000e+00 1.77056092e-18
5.01187234e+02 1.07179997e-17 1.16979800e-18 0.00000000e+00 9.54820172e-18 0.00000000e+00 1.16979800e-18
5.75439937e+02 5.67129606e-18 7.72877871e-19 0.00000000e+00 4.89841819e-18 0.00000000e+00 7.72877871e-19
6.60693448e+02 3.01718327e-18 5.10635346e-19 0.00000000e+00 2.50654792e-18 0.00000000e+00 5.10635346e-19
7.58577575e+02 1.61710110e-18 3.37373427e-19 0.00000000e+00 1.27972767e-18 0.00000000e+00 3.37373427e-19
8.70963590e+02 8.74827898e-19 2.22900413e-19 0.00000000e+00 6.51927486e-19 0.00000000e+00 2.22900413e-19
1.00000000e+03 3.31430121e-19 0.00000000e+00 0.00000000e+00 3.31430121e-19 0.00000000e+00 0.00000000e+00
