# column 1: lambda (micron)
# column 2: total flux; lambda*F_lambda (W/m2)
# column 3: direct stellar flux; lambda*F_lambda (W/m2)
# column 4: scattered stellar flux; lambda*F_lambda (W/m2)
# column 5: total dust emission flux; lambda*F_lambda (W/m2)
# column 6: dust emission scattered flux; lambda*F_lambda (W/m2)
# column 7: transparent flux; lambda*F_lambda (W/m2)
1.00000000e-03 5.24634913e-13 5.24631118e-13 3.79499102e-18 0.00000000e+00 0.00000000e+00 5.25636674e-13
1.14815362e-03 6.18873928e-13 6.18852240e-13 2.16881932e-17 0.00000000e+00 0.00000000e+00 6.20419813e-13
1.31825674e-03 7.29956640e-13 7.29942691e-13 1.39487008e-17 0.00000000e+00 0.00000000e+00 7.32294308e-13
1.51356125e-03 8.61089105e-13 8.61070604e-13 1.85004034e-17 0.00000000e+00 0.00000000e+00 8.64342083e-13
1.73780083e-03 1.01632050e-12 1.01629957e-12 2.09273502e-17 0.00000000e+00 0.00000000e+00 1.02020080e-12
1.99526231e-03 1.19816966e-12 1.19806282e-12 1.06846560e-16 0.00000000e+00 0.00000000e+00 1.20416405e-12
2.29086765e-03 1.41410277e-12 1.41366430e-12 4.38475289e-16 0.00000000e+00 0.00000000e+00 1.42129968e-12
2.63026799e-03 1.66807799e-12 1.66679528e-12 1.28271584e-15 0.00000000e+00 0.00000000e+00 1.67758934e-12
3.01995172e-03 1.96479093e-12 1.96434816e-12 4.42773646e-16 0.00000000e+00 0.00000000e+00 1.98009332e-12
3.46736850e-03 2.32084511e-12 2.31525580e-12 5.58930978e-15 0.00000000e+00 0.00000000e+00 2.33714500e-12
3.98107171e-03 2.77801050e-12 2.72902676e-12 4.89837408e-14 0.00000000e+00 0.00000000e+00 2.75858048e-12
4.57088190e-03 3.23433074e-12 3.23269927e-12 1.63146511e-15 0.00000000e+00 0.00000000e+00 3.25600946e-12
5.24807460e-03 3.83752565e-12 3.80802882e-12 2.94968321e-14 0.00000000e+00 0.00000000e+00 3.84313516e-12
6.02559586e-03 4.50367042e-12 4.48621651e-12 1.74539104e-14 0.00000000e+00 0.00000000e+00 4.53613173e-12
6.91830971e-03 5.35463616e-12 5.28615087e-12 6.84852904e-14 0.00000000e+00 0.00000000e+00 5.35408989e-12
7.94328235e-03 6.26707076e-12 6.23014398e-12 3.69267785e-14 2.86871556e-303 1.65161421e-304 6.31954278e-12
9.12010839e-03 7.38429058e-12 7.34208353e-12 4.22070491e-14 1.53025404e-264 1.74562852e-265 7.45908676e-12
1.04712855e-02 8.25203353e-12 8.19182873e-12 6.02048071e-14 6.79964383e-231 3.58784158e-232 8.33078048e-12
1.20226443e-02 8.25535534e-12 8.18370088e-12 7.16544679e-14 1.20486224e-201 8.87604120e-203 8.33078048e-12
1.38038426e-02 8.24273803e-12 8.17407080e-12 6.86672257e-14 3.55451431e-176 2.28871307e-177 8.33078048e-12
1.58489319e-02 8.23686492e-12 8.16225170e-12 7.46132261e-14 5.16361820e-154 3.13740669e-155 8.33078048e-12
1.81970086e-02 8.23881811e-12 8.15136584e-12 8.74522738e-14 9.81050446e-135 5.65510646e-136 8.33078048e-12
2.08929613e-02 8.22960331e-12 8.14232840e-12 8.72749080e-14 5.41036775e-118 3.02048851e-119 8.33078048e-12
2.39883292e-02 8.22313743e-12 8.13063383e-12 9.25036029e-14 1.99144210e-103 1.12532366e-104 8.33078048e-12
2.75422870e-02 8.21225037e-12 8.11705212e-12 9.51982561e-14 9.29491370e-91 5.37992859e-92 8.33078048e-12
3.16227766e-02 8.20089130e-12 8.10376113e-12 9.71301778e-14 9.35126148e-80 5.14474680e-81 8.33078048e-12
3.63078055e-02 8.18881955e-12 8.09335156e-12 9.54679903e-14 3.35456279e-70 1.84519158e-71 8.33078048e-12
4.16869383e-02 8.18865474e-12 8.08435885e-12 1.04295885e-13 6.56698174e-62 4.02471406e-63 8.33078048e-12
4.78630092e-02 8.16985673e-12 8.05962236e-12 1.10234362e-13 1.00819615e-54 6.68812409e-56 8.33078048e-12
5.49540874e-02 8.14179647e-12 8.02534735e-12 1.16449121e-13 1.70177531e-48 1.17935958e-49 8.33078048e-12
6.30957344e-02 8.06896320e-12 7.94004240e-12 1.28920800e-13 5.50326190e-43 3.80403701e-44 8.33078048e-12
7.24435960e-02 7.96979427e-12 7.84016997e-12 1.29624294e-13 3.18549247e-38 2.02188173e-39 8.33078048e-12
8.31763771e-02 7.96936031e-12 7.84900600e-12 1.20354313e-13 3.31106841e-34 2.02996054e-35 8.33078048e-12
9.54992586e-02 7.99316455e-12 7.87497907e-12 1.18185477e-13 9.51042306e-31 6.07051755e-32 8.33078048e-12
1.09647820e-01 7.70268776e-12 7.59251090e-12 1.10176859e-13 8.25595589e-28 5.90130907e-29 7.95583672e-12
1.25892541e-01 7.24422376e-12 7.14456000e-12 9.96637591e-14 2.74959299e-25 2.06765044e-26 7.42481883e-12
1.44543977e-01 6.79663039e-12 6.71174455e-12 8.48858446e-14 3.83484590e-23 2.93275616e-24 6.92924411e-12
1.65958691e-01 6.36757450e-12 6.28887495e-12 7.86995507e-14 1.98352266e-21 1.71968363e-22 6.46674687e-12
1.90546072e-01 5.93836107e-12 5.85818680e-12 8.01742295e-14 4.18066904e-20 4.09629519e-21 6.03511933e-12
2.18776162e-01 5.51587670e-12 5.43910214e-12 7.67740702e-14 4.91154768e-19 4.70160618e-20 5.63230107e-12
2.51188643e-01 5.18543204e-12 5.11167095e-12 7.37549532e-14 6.13968673e-18 7.39627484e-19 5.25636919e-12
2.88403150e-01 4.85808697e-12 4.79314856e-12 6.48860439e-14 5.23632755e-17 6.46419469e-18 4.90552916e-12
3.31131121e-01 4.54391399e-12 4.48654476e-12 5.70645239e-14 3.04708817e-16 3.74010717e-17 4.57810618e-12
3.80189396e-01 4.24920495e-12 4.19740692e-12 5.05094511e-14 1.28858090e-15 1.55194021e-16 4.27253728e-12
4.36515832e-01 3.97517212e-12 3.92627100e-12 4.47639357e-14 4.13717880e-15 5.04537281e-16 3.98736380e-12
5.01187234e-01 3.72077142e-12 3.67222131e-12 3.80964640e-14 1.04536392e-14 1.24144665e-15 3.72122441e-12
5.75439937e-01 3.48945224e-12 3.43395172e-12 3.37891910e-14 2.17113256e-14 2.48937368e-15 3.47284869e-12
6.60693448e-01 3.27718689e-12 3.21044613e-12 2.83500812e-14 3.83906791e-14 4.27609672e-15 3.24105097e-12
7.58577575e-01 3.08523928e-12 3.00093903e-12 2.44667201e-14 5.98335314e-14 6.33091442e-15 3.02472476e-12
8.70963590e-01 2.91027920e-12 2.80476197e-12 2.08622679e-14 8.46549536e-14 8.35540794e-15 2.82283739e-12
1.00000000e+00 2.74679130e-12 2.62091223e-12 1.62804745e-14 1.09598597e-13 9.95091822e-15 2.63442513e-12
1.14815362e+00 2.59750477e-12 2.44866689e-12 1.29956673e-14 1.35842205e-13 1.10071696e-14 2.45858859e-12
1.31825674e+00 2.46272606e-12 2.28733068e-12 1.02977061e-14 1.65097678e-13 1.15536717e-14 2.29448837e-12
1.51356125e+00 2.34235059e-12 2.13623006e-12 6.79681988e-15 1.99323706e-13 1.18807644e-14 2.14134114e-12
1.73780083e+00 2.23889398e-12 1.99482576e-12 5.23997994e-15 2.38828242e-13 1.15589507e-14 1.99841583e-12
1.99526231e+00 2.14737217e-12 1.86254818e-12 3.72259914e-15 2.81101387e-13 1.04384064e-14 1.86503017e-12
2.29086765e+00 2.06080163e-12 1.73883693e-12 2.49806237e-15 3.19466632e-13 8.84134642e-15 1.74054743e-12
2.63026799e+00 1.97262032e-12 1.62318357e-12 1.69108910e-15 3.47745664e-13 7.13672032e-15 1.62437337e-12
3.01995172e+00 1.87714464e-12 1.51511521e-12 1.16651128e-15 3.60862924e-13 5.60740717e-15 1.51595343e-12
3.46736850e+00 1.77340509e-12 1.41416990e-12 8.04933664e-16 3.58430257e-13 4.26192060e-15 1.41477006e-12
3.98107171e+00 1.66280960e-12 1.31990505e-12 5.33326256e-16 3.42371224e-13 3.16523440e-15 1.32034025e-12
4.57088190e+00 1.55039076e-12 1.23189333e-12 3.45932768e-16 3.18151493e-13 2.31026899e-15 1.23221321e-12
5.24807460e+00 1.30946078e-12 1.01863898e-12 2.16677485e-16 2.90605117e-13 1.59309809e-15 1.01885146e-12
6.02559586e+00 9.38512856e-13 6.73031826e-13 8.77700982e-17 2.65393260e-13 1.05880933e-15 6.73148485e-13
6.70000000e+00 7.35435829e-13 4.89575685e-13 4.74562995e-17 2.45812689e-13 7.38172078e-16 4.89650796e-13
6.92422916e+00 6.82866396e-13 4.43539482e-13 3.81601715e-17 2.39288754e-13 6.60308807e-16 4.43605145e-13
7.15596261e+00 6.37523419e-13 4.01831073e-13 3.02769858e-17 2.35662069e-13 5.70859712e-16 4.01889522e-13
7.39545150e+00 6.01429879e-13 3.64042526e-13 2.24785842e-17 2.37364875e-13 4.87714758e-16 3.64096743e-13
7.64295536e+00 5.84264253e-13 3.29801946e-13 1.53609783e-17 2.54446945e-13 4.00948100e-16 3.29857910e-13
7.89874245e+00 5.94628248e-13 2.98773314e-13 9.18704384e-18 2.95845747e-13 3.10153860e-16 2.98838820e-13
8.16308998e+00 6.28240826e-13 2.70656564e-13 5.36303780e-18 3.57578899e-13 2.36151992e-16 2.70736695e-13
8.43628443e+00 6.88888743e-13 2.45176378e-13 3.05517416e-18 4.43709310e-13 1.74382018e-16 2.45277229e-13
8.71862190e+00 7.27708078e-13 2.22099653e-13 2.01998295e-18 5.05606405e-13 1.40018084e-16 2.22211915e-13
9.01040836e+00 7.71150618e-13 2.01192410e-13 1.29022585e-18 5.69956918e-13 1.07353982e-16 2.01315610e-13
9.31196005e+00 8.04104454e-13 1.82254898e-13 0.00000000e+00 6.21849556e-13 0.00000000e+00 1.82384346e-13
9.62360379e+00 7.82298649e-13 1.65112972e-13 0.00000000e+00 6.17185677e-13 0.00000000e+00 1.65233336e-13
9.94567731e+00 7.21564490e-13 1.49592848e-13 0.00000000e+00 5.71971642e-13 0.00000000e+00 1.49695167e-13
1.02785297e+01 6.51426213e-13 1.35534311e-13 0.00000000e+00 5.15891902e-13 0.00000000e+00 1.35618173e-13
1.06225216e+01 5.83940363e-13 1.22796950e-13 0.00000000e+00 4.61143413e-13 0.00000000e+00 1.22864947e-13
1.09780260e+01 5.15584440e-13 1.11257860e-13 0.00000000e+00 4.04326580e-13 0.00000000e+00 1.11311006e-13
1.13454280e+01 4.56955719e-13 1.00801867e-13 0.00000000e+00 3.56153851e-13 0.00000000e+00 1.00843571e-13
1.17251259e+01 4.09340397e-13 9.13275341e-14 0.00000000e+00 3.18012863e-13 0.00000000e+00 9.13604705e-14
1.21175312e+01 3.67010394e-13 8.27432605e-14 0.00000000e+00 2.84267134e-13 0.00000000e+00 8.27691389e-14
1.25230691e+01 3.30709252e-13 7.49654394e-14 0.00000000e+00 2.55743813e-13 0.00000000e+00 7.49857166e-14
1.29421791e+01 2.98961229e-13 6.79182302e-14 0.00000000e+00 2.31042998e-13 0.00000000e+00 6.79342298e-14
1.33753155e+01 2.71169095e-13 6.15331343e-14 0.00000000e+00 2.09635961e-13 0.00000000e+00 6.15458488e-14
1.38229477e+01 2.52599958e-13 5.57476465e-14 0.00000000e+00 1.96852311e-13 0.00000000e+00 5.57582167e-14
1.42855609e+01 2.39617942e-13 5.05056535e-14 0.00000000e+00 1.89112288e-13 0.00000000e+00 5.05148403e-14
1.47636563e+01 2.35980137e-13 4.57558202e-14 0.00000000e+00 1.90224316e-13 0.00000000e+00 4.57645392e-14
1.52577522e+01 2.35126195e-13 4.14525212e-14 0.00000000e+00 1.93673673e-13 0.00000000e+00 4.14609457e-14
1.57683840e+01 2.35761176e-13 3.75538079e-14 0.00000000e+00 1.98207369e-13 0.00000000e+00 3.75620523e-14
1.62961051e+01 2.37222505e-13 3.40217436e-14 0.00000000e+00 2.03200762e-13 0.00000000e+00 3.40298020e-14
1.68414875e+01 2.38913649e-13 3.08218576e-14 0.00000000e+00 2.08091791e-13 0.00000000e+00 3.08297166e-14
1.74051222e+01 2.37203246e-13 2.79230969e-14 0.00000000e+00 2.09280149e-13 0.00000000e+00 2.79305599e-14
1.79876201e+01 2.33689730e-13 2.52970652e-14 0.00000000e+00 2.08392665e-13 0.00000000e+00 2.53040334e-14
1.85896125e+01 2.28183961e-13 2.29181946e-14 0.00000000e+00 2.05265766e-13 0.00000000e+00 2.29244994e-14
1.92117518e+01 2.19332161e-13 2.07631935e-14 0.00000000e+00 1.98568968e-13 0.00000000e+00 2.07687314e-14
1.98547123e+01 2.09002267e-13 1.88109176e-14 0.00000000e+00 1.90191349e-13 0.00000000e+00 1.88156870e-14
2.05191907e+01 1.98822594e-13 1.70422363e-14 0.00000000e+00 1.81780358e-13 0.00000000e+00 1.70463024e-14
2.12059073e+01 1.89795184e-13 1.54398408e-14 0.00000000e+00 1.74355344e-13 0.00000000e+00 1.54433068e-14
2.19156062e+01 1.80771278e-13 1.39880843e-14 0.00000000e+00 1.66783194e-13 0.00000000e+00 1.39910532e-14
2.26490567e+01 1.73006392e-13 1.26728192e-14 0.00000000e+00 1.60333573e-13 0.00000000e+00 1.26753663e-14
2.34070535e+01 1.65578686e-13 1.14812143e-14 0.00000000e+00 1.54097471e-13 0.00000000e+00 1.14834036e-14
2.41904183e+01 1.58170083e-13 1.04016438e-14 0.00000000e+00 1.47768439e-13 0.00000000e+00 1.04035303e-14
2.50000000e+01 1.51926816e-13 9.42357682e-15 0.00000000e+00 1.42503239e-13 0.00000000e+00 9.42520591e-15
2.75422870e+01 1.33532572e-13 7.04766754e-15 0.00000000e+00 1.26484904e-13 0.00000000e+00 7.04872996e-15
3.16227766e+01 1.09573058e-13 4.65646599e-15 0.00000000e+00 1.04916592e-13 0.00000000e+00 4.65704970e-15
3.63078055e+01 8.62136858e-14 3.07656321e-15 0.00000000e+00 8.31371226e-14 0.00000000e+00 3.07688223e-15
4.16869383e+01 6.41059104e-14 2.03270619e-15 0.00000000e+00 6.20732042e-14 0.00000000e+00 2.03287593e-15
4.78630092e+01 4.48828907e-14 1.34302030e-15 0.00000000e+00 4.35398704e-14 0.00000000e+00 1.34310781e-15
5.49540874e+01 2.98224599e-14 8.87338376e-16 0.00000000e+00 2.89351216e-14 0.00000000e+00 8.87382527e-16
6.30957344e+01 1.90090738e-14 5.86265828e-16 0.00000000e+00 1.84228080e-14 0.00000000e+00 5.86287821e-16
7.24435960e+01 1.16912679e-14 3.87345645e-16 0.00000000e+00 1.13039223e-14 0.00000000e+00 3.87356522e-16
8.31763771e+01 6.99139547e-15 2.55918545e-16 0.00000000e+00 6.73547692e-15 0.00000000e+00 2.55923916e-16
9.54992586e+01 4.09371393e-15 1.69084596e-16 0.00000000e+00 3.92462934e-15 0.00000000e+00 1.69087255e-16
1.09647820e+02 2.35785239e-15 1.11713521e-16 0.00000000e+00 2.24613887e-15 0.00000000e+00 1.11714841e-16
1.25892541e+02 1.35421673e-15 7.38085981e-17 0.00000000e+00 1.28040813e-15 0.00000000e+00 7.38092637e-17
1.44543977e+02 7.72091222e-16 4.87649589e-17 0.00000000e+00 7.23326263e-16 0.00000000e+00 4.87652969e-17
1.65958691e+02 4.20009684e-16 3.22187464e-17 0.00000000e+00 3.87790937e-16 0.00000000e+00 3.22189122e-17
1.90546072e+02 2.28723226e-16 2.12867421e-17 0.00000000e+00 2.07436484e-16 0.00000000e+00 2.12868242e-17
2.18776162e+02 1.24551168e-16 1.40640244e-17 0.00000000e+00 1.10487144e-16 0.00000000e+00 1.40640653e-17
2.51188643e+02 6.77871111e-17 9.29201534e-18 0.00000000e+00 5.84950957e-17 0.00000000e+00 9.29203577e-18
2.88403150e+02 3.68943550e-17 6.13917693e-18 0.00000000e+00 3.07551781e-17 0.00000000e+00 6.13918715e-18
3.31131121e+02 2.01499667e-17 4.05611560e-18 0.00000000e+00 1.60938511e-17 0.00000000e+00 4.05612073e-18
3.80189396e+02 1.10545344e-17 2.67984982e-18 0.00000000e+00 8.37468459e-18 0.00000000e+00 2.67985239e-18
4.36515832e+02 6.11092095e-18 1.77055963e-18 0.00000000e+00 4.34036133e-18 0.00000000e+00 1.77056092e-18
5.01187234e+02 3.41009651e-18 1.16979735e-18 0.00000000e+00 2.24029916e-18 0.00000000e+00 1.16979800e-18
5.75439937e+02 1.92530325e-18 7.72877546e-19 0.00000000e+00 1.15242570e-18 0.00000000e+00 7.72877871e-19
6.60693448e+02 1.10169250e-18 5.10635182e-19 0.00000000e+00 5.91057321e-19 0.00000000e+00 5.10635346e-19
7.58577575e+02 6.39737131e-19 3.37373345e-19 0.00000000e+00 3.02363786e-19 0.00000000e+00 3.37373427e-19
8.70963590e+02 3.77194885e-19 2.22900372e-19 0.00000000e+00 1.54294513e-19 0.00000000e+00 2.22900413e-19
1.00000000e+03 7.85556336e-20 0.00000000e+00 0.00000000e+00 7.85556336e-20 0.00000000e+00 0.00000000e+00
