# column 1: lambda (micron)
# column 2: total flux; lambda*F_lambda (W/m2)
# column 3: direct stellar flux; lambda*F_lambda (W/m2)
# column 4: scattered stellar flux; lambda*F_lambda (W/m2)
# column 5: total dust emission flux; lambda*F_lambda (W/m2)
# column 6: dust emission scattered flux; lambda*F_lambda (W/m2)
# column 7: transparent flux; lambda*F_lambda (W/m2)
1.00000000e-03 8.46530232e-13 8.46529401e-13 8.31408755e-19 0.00000000e+00 0.00000000e+00 8.46529401e-13
1.14815362e-03 9.99177382e-13 9.99176121e-13 1.26151147e-18 0.00000000e+00 0.00000000e+00 9.99176121e-13
1.31825674e-03 1.17935023e-12 1.17934819e-12 2.03547684e-18 0.00000000e+00 0.00000000e+00 1.17934819e-12
1.51356125e-03 1.39201211e-12 1.39200901e-12 3.10153521e-18 0.00000000e+00 0.00000000e+00 1.39200901e-12
1.73780083e-03 1.64302271e-12 1.64301696e-12 5.75265643e-18 0.00000000e+00 0.00000000e+00 1.64301696e-12
1.99526231e-03 1.93929707e-12 1.93928682e-12 1.02435955e-17 0.00000000e+00 0.00000000e+00 1.93928682e-12
2.29086765e-03 2.28899602e-12 2.28898025e-12 1.57690992e-17 0.00000000e+00 0.00000000e+00 2.28898025e-12
2.63026799e-03 2.70176284e-12 2.70173063e-12 3.22133109e-17 0.00000000e+00 0.00000000e+00 2.70173063e-12
3.01995172e-03 3.18896346e-12 3.18890841e-12 5.50517086e-17 0.00000000e+00 0.00000000e+00 3.18890841e-12
3.46736850e-03 3.76402415e-12 3.76393440e-12 8.97476595e-17 0.00000000e+00 0.00000000e+00 3.76393440e-12
3.98107171e-03 4.44279321e-12 4.44264945e-12 1.43764365e-16 0.00000000e+00 0.00000000e+00 4.44264945e-12
4.57088190e-03 5.24406406e-12 5.24375082e-12 3.13239038e-16 0.00000000e+00 0.00000000e+00 5.24375082e-12
5.24807460e-03 6.18986287e-12 6.18930730e-12 5.55569430e-16 0.00000000e+00 0.00000000e+00 6.18930730e-12
6.02559586e-03 7.30639923e-12 7.30536713e-12 1.03210291e-15 0.00000000e+00 0.00000000e+00 7.30536713e-12
6.91830971e-03 8.62437531e-12 8.62267558e-12 1.69973420e-15 0.00000000e+00 0.00000000e+00 8.62267558e-12
7.94328235e-03 1.01802366e-11 1.01775219e-11 2.71472889e-15 1.18437058e-303 3.66847612e-306 1.01775219e-11
9.12010839e-03 1.20172658e-11 1.20127391e-11 4.52661354e-15 5.89699250e-265 1.65276728e-267 1.20127391e-11
1.04712855e-02 1.34223267e-11 1.34165878e-11 5.73885642e-15 2.78803659e-231 1.05704856e-233 1.34165878e-11
1.20226443e-02 1.34253300e-11 1.34165878e-11 8.74217236e-15 4.83692126e-202 4.66582098e-204 1.34165878e-11
1.38038426e-02 1.34291533e-11 1.34165878e-11 1.25654469e-14 1.43460400e-176 1.56034906e-178 1.34165878e-11
1.58489319e-02 1.34352691e-11 1.34165878e-11 1.86812473e-14 2.08244274e-154 1.85787204e-156 1.34165878e-11
1.81970086e-02 1.34432395e-11 1.34165878e-11 2.66516983e-14 3.96880013e-135 4.80902506e-137 1.34165878e-11
2.08929613e-02 1.34512069e-11 1.34165878e-11 3.46190662e-14 2.19526971e-118 3.30527280e-120 1.34165878e-11
2.39883292e-02 1.34633866e-11 1.34165878e-11 4.67987171e-14 8.10604230e-104 1.57319399e-105 1.34165878e-11
2.75422870e-02 1.34780211e-11 1.34165878e-11 6.14332651e-14 3.79788775e-91 9.51125440e-93 1.34165878e-11
3.16227766e-02 1.34962090e-11 1.34165878e-11 7.96211362e-14 3.85186889e-80 1.15721103e-81 1.34165878e-11
3.63078055e-02 1.35054966e-11 1.34165878e-11 8.89088029e-14 1.38072206e-70 4.58299103e-72 1.34165878e-11
4.16869383e-02 1.35366236e-11 1.34165878e-11 1.20035795e-13 2.72337080e-62 1.25822518e-63 1.34165878e-11
4.78630092e-02 1.35725104e-11 1.34165878e-11 1.55922547e-13 4.25070195e-55 2.55564354e-56 1.34165878e-11
5.49540874e-02 1.36058912e-11 1.34165878e-11 1.89303387e-13 7.27003182e-49 5.30074854e-50 1.34165878e-11
6.30957344e-02 1.36193072e-11 1.34165878e-11 2.02719361e-13 2.40518285e-43 2.03752057e-44 1.34165878e-11
7.24435960e-02 1.36086435e-11 1.34165878e-11 1.92055657e-13 1.41037830e-38 1.15239298e-39 1.34165878e-11
8.31763771e-02 1.36060998e-11 1.34165878e-11 1.89512004e-13 1.46339089e-34 1.17982327e-35 1.34165878e-11
9.54992586e-02 1.36173030e-11 1.34165878e-11 2.00715191e-13 4.18614745e-31 3.54245581e-32 1.34165878e-11
1.09647820e-01 1.30193909e-11 1.28127470e-11 2.06643948e-13 3.60813380e-28 3.30857702e-29 1.28127470e-11
1.25892541e-01 1.21479477e-11 1.19575512e-11 1.90396485e-13 1.17848684e-25 1.04932621e-26 1.19575512e-11
1.44543977e-01 1.13399011e-11 1.11594361e-11 1.80465021e-13 1.61664570e-23 1.40057607e-24 1.11594361e-11
1.65958691e-01 1.05969978e-11 1.04145917e-11 1.82406038e-13 8.29004238e-22 7.98985688e-23 1.04145917e-11
1.90546072e-01 9.92256656e-12 9.71946251e-12 2.03104031e-13 1.77568383e-20 2.06180827e-21 9.71946251e-12
2.18776162e-01 9.26862902e-12 9.07073019e-12 1.97898615e-13 2.12265220e-19 2.62017963e-20 9.07073019e-12
2.51188643e-01 8.69531242e-12 8.46529796e-12 2.30011813e-13 2.63871335e-18 4.07710666e-19 8.46529796e-12
2.88403150e-01 8.11481454e-12 7.90027573e-12 2.14516802e-13 2.20074832e-17 3.33480366e-18 7.90027573e-12
3.31131121e-01 7.56493528e-12 7.37296631e-12 1.91842844e-13 1.26133843e-16 1.84830380e-17 7.37296631e-12
3.80189396e-01 7.05799805e-12 6.88085251e-12 1.76619495e-13 5.26038641e-16 7.51094715e-17 6.88085251e-12
4.36515832e-01 6.59218320e-12 6.42158520e-12 1.68927934e-13 1.67006878e-15 2.35934545e-16 6.42158520e-12
5.01187234e-01 6.14869802e-12 5.99297201e-12 1.51512397e-13 4.21361058e-15 6.00126395e-16 5.99297201e-12
5.75439937e-01 5.74462384e-12 5.59296690e-12 1.42686760e-13 8.97018142e-15 1.31540887e-15 5.59296690e-12
6.60693448e-01 5.36455384e-12 5.21966041e-12 1.27711697e-13 1.71817315e-14 2.69237404e-15 5.21966041e-12
7.58577575e-01 5.01748930e-12 4.87127053e-12 1.13683589e-13 3.25351786e-14 5.66950641e-15 4.87127053e-12
8.70963590e-01 4.71252442e-12 4.54613417e-12 1.02306249e-13 6.40840002e-14 1.21964088e-14 4.54613417e-12
1.00000000e+00 4.45991470e-12 4.24269927e-12 8.77660672e-14 1.29449367e-13 2.52195339e-14 4.24269927e-12
1.14815362e+00 4.29263653e-12 3.95951734e-12 7.28688605e-14 2.60250333e-13 4.77036157e-14 3.95951734e-12
1.31825674e+00 4.25144070e-12 3.69523659e-12 5.69878167e-14 4.99216296e-13 8.07913845e-14 3.69523659e-12
1.51356125e+00 4.37255233e-12 3.44859544e-12 4.43663234e-14 8.79590572e-13 1.21276964e-13 3.44859544e-12
1.73780083e+00 4.64497981e-12 3.21841652e-12 3.29295492e-14 1.39363374e-12 1.58457014e-13 3.21841652e-12
1.99526231e+00 5.00966517e-12 3.00360106e-12 2.37929327e-14 1.98227118e-12 1.78543924e-13 3.00360106e-12
2.29086765e+00 5.37619869e-12 2.80312361e-12 1.72634251e-14 2.55581165e-12 1.79384287e-13 2.80312361e-12
2.63026799e+00 5.66276732e-12 2.61602716e-12 1.23057807e-14 3.03443438e-12 1.67672810e-13 2.61602716e-12
3.01995172e+00 5.82806850e-12 2.44141860e-12 8.83247899e-15 3.37781742e-12 1.46960532e-13 2.44141860e-12
3.46736850e+00 5.83662000e-12 2.27846441e-12 6.20769768e-15 3.55194789e-12 1.20888923e-13 2.27846441e-12
3.98107171e+00 5.76819597e-12 2.12638671e-12 4.38374450e-15 3.63742552e-12 9.60755318e-14 2.12638671e-12
4.57088190e+00 5.57771943e-12 1.98445954e-12 2.89740459e-15 3.59036248e-12 7.14091863e-14 1.98445954e-12
5.24807460e+00 5.14094847e-12 1.64084388e-12 1.73930801e-15 3.49836529e-12 4.93988298e-14 1.64084388e-12
6.02559586e+00 4.44594681e-12 1.08409480e-12 7.72785802e-16 3.36107923e-12 3.24174843e-14 1.08409480e-12
6.70000000e+00 4.01082923e-12 7.88574724e-13 4.03450583e-16 3.22185105e-12 2.20764147e-14 7.88574724e-13
6.92422916e+00 3.87985843e-12 7.14418944e-13 3.32140007e-16 3.16510735e-12 1.94743945e-14 7.14418944e-13
7.15596261e+00 3.77522127e-12 6.47236606e-13 2.64386075e-16 3.12772028e-12 1.69670862e-14 6.47236606e-13
7.39545150e+00 3.72552897e-12 5.86371942e-13 1.98177114e-16 3.13895885e-12 1.44309964e-14 5.86371942e-13
7.64295536e+00 3.80423304e-12 5.31230854e-13 1.37313629e-16 3.27286487e-12 1.17404505e-14 5.31230854e-13
7.89874245e+00 4.07079339e-12 4.81275108e-13 8.03226171e-17 3.58943796e-12 8.89075099e-15 4.81275108e-13
8.16308998e+00 4.46213479e-12 4.36017088e-13 4.55139611e-17 4.02607219e-12 6.63794972e-15 4.36017088e-13
8.43628443e+00 4.94537900e-12 3.95015029e-13 2.47025489e-17 4.55033927e-12 4.77091508e-15 3.95015029e-13
8.71862190e+00 5.27795766e-12 3.57868711e-13 1.56372967e-17 4.92007331e-12 3.61456618e-15 3.57868711e-13
9.01040836e+00 5.57628702e-12 3.24215549e-13 9.83082702e-18 5.25206164e-12 2.75979470e-15 3.24215549e-13
9.31196005e+00 5.72338924e-12 2.93727053e-13 0.00000000e+00 5.42966219e-12 0.00000000e+00 2.93727053e-13
9.62360379e+00 5.63280949e-12 2.66105627e-13 0.00000000e+00 5.36670387e-12 0.00000000e+00 2.66105627e-13
9.94567731e+00 5.36075973e-12 2.41081657e-13 0.00000000e+00 5.11967807e-12 0.00000000e+00 2.41081657e-13
1.02785297e+01 5.01586683e-12 2.18410884e-13 0.00000000e+00 4.79745595e-12 0.00000000e+00 2.18410884e-13
1.06225216e+01 4.67477450e-12 1.97872020e-13 0.00000000e+00 4.47690248e-12 0.00000000e+00 1.97872020e-13
1.09780260e+01 4.33644451e-12 1.79264583e-13 0.00000000e+00 4.15717993e-12 0.00000000e+00 1.79264583e-13
1.13454280e+01 4.00628998e-12 1.62406948e-13 0.00000000e+00 3.84388304e-12 0.00000000e+00 1.62406948e-13
1.17251259e+01 3.75025286e-12 1.47134567e-13 0.00000000e+00 3.60311830e-12 0.00000000e+00 1.47134567e-13
1.21175312e+01 3.51329588e-12 1.33298366e-13 0.00000000e+00 3.37999752e-12 0.00000000e+00 1.33298366e-13
1.25230691e+01 3.28062971e-12 1.20763289e-13 0.00000000e+00 3.15986642e-12 0.00000000e+00 1.20763289e-13
1.29421791e+01 3.07896286e-12 1.09406983e-13 0.00000000e+00 2.96955588e-12 0.00000000e+00 1.09406983e-13
1.33753155e+01 2.89866714e-12 9.91185987e-14 0.00000000e+00 2.79954854e-12 0.00000000e+00 9.91185987e-14
1.38229477e+01 2.76340339e-12 8.97977103e-14 0.00000000e+00 2.67360568e-12 0.00000000e+00 8.97977103e-14
1.42855609e+01 2.68839556e-12 8.13533371e-14 0.00000000e+00 2.60704222e-12 0.00000000e+00 8.13533371e-14
1.47636563e+01 2.68608328e-12 7.37030537e-14 0.00000000e+00 2.61238022e-12 0.00000000e+00 7.37030537e-14
1.52577522e+01 2.71932354e-12 6.67721855e-14 0.00000000e+00 2.65255136e-12 0.00000000e+00 6.67721855e-14
1.57683840e+01 2.73871329e-12 6.04930805e-14 0.00000000e+00 2.67822021e-12 0.00000000e+00 6.04930805e-14
1.62961051e+01 2.76197000e-12 5.48044484e-14 0.00000000e+00 2.70716555e-12 0.00000000e+00 5.48044484e-14
1.68414875e+01 2.80997219e-12 4.96507622e-14 0.00000000e+00 2.76032143e-12 0.00000000e+00 4.96507622e-14
1.74051222e+01 2.79832711e-12 4.49817171e-14 0.00000000e+00 2.75334540e-12 0.00000000e+00 4.49817171e-14
1.79876201e+01 2.77252016e-12 4.07517384e-14 0.00000000e+00 2.73176842e-12 0.00000000e+00 4.07517384e-14
1.85896125e+01 2.73818926e-12 3.69195372e-14 0.00000000e+00 2.70126972e-12 0.00000000e+00 3.69195372e-14
1.92117518e+01 2.68181219e-12 3.34477076e-14 0.00000000e+00 2.64836449e-12 0.00000000e+00 3.34477076e-14
1.98547123e+01 2.58749788e-12 3.03023610e-14 0.00000000e+00 2.55719552e-12 0.00000000e+00 3.03023610e-14
2.05191907e+01 2.50272830e-12 2.74527957e-14 0.00000000e+00 2.47527551e-12 0.00000000e+00 2.74527957e-14
2.12059073e+01 2.40668779e-12 2.48711970e-14 0.00000000e+00 2.38181660e-12 0.00000000e+00 2.48711970e-14
2.19156062e+01 2.31273318e-12 2.25323660e-14 0.00000000e+00 2.29020081e-12 0.00000000e+00 2.25323660e-14
2.26490567e+01 2.23355926e-12 2.04134733e-14 0.00000000e+00 2.21314579e-12 0.00000000e+00 2.04134733e-14
2.34070535e+01 2.15423957e-12 1.84938366e-14 0.00000000e+00 2.13574573e-12 0.00000000e+00 1.84938366e-14
2.41904183e+01 2.06498104e-12 1.67547181e-14 0.00000000e+00 2.04822632e-12 0.00000000e+00 1.67547181e-14
2.50000000e+01 1.98053408e-12 1.51791424e-14 0.00000000e+00 1.96535494e-12 0.00000000e+00 1.51791424e-14
2.75422870e+01 1.72722448e-12 1.13518661e-14 0.00000000e+00 1.71587262e-12 0.00000000e+00 1.13518661e-14
3.16227766e+01 1.38174422e-12 7.50010357e-15 0.00000000e+00 1.37424412e-12 0.00000000e+00 7.50010357e-15
3.63078055e+01 1.04006817e-12 4.95526929e-15 0.00000000e+00 1.03511290e-12 0.00000000e+00 4.95526929e-15
4.16869383e+01 7.32559318e-13 3.27391395e-15 0.00000000e+00 7.29285404e-13 0.00000000e+00 3.27391395e-15
4.78630092e+01 4.84975640e-13 2.16305350e-15 0.00000000e+00 4.82812586e-13 0.00000000e+00 2.16305350e-15
5.49540874e+01 3.03089193e-13 1.42911527e-15 0.00000000e+00 3.01660078e-13 0.00000000e+00 1.42911527e-15
6.30957344e+01 1.81111565e-13 9.44207098e-16 0.00000000e+00 1.80167358e-13 0.00000000e+00 9.44207098e-16
7.24435960e+01 1.04475964e-13 6.23831443e-16 0.00000000e+00 1.03852132e-13 0.00000000e+00 6.23831443e-16
8.31763771e+01 5.86973885e-14 4.12161347e-16 0.00000000e+00 5.82852272e-14 0.00000000e+00 4.12161347e-16
9.54992586e+01 3.24031430e-14 2.72312302e-16 0.00000000e+00 3.21308307e-14 0.00000000e+00 2.72312302e-16
1.09647820e+02 1.76545863e-14 1.79914953e-16 0.00000000e+00 1.74746713e-14 0.00000000e+00 1.79914953e-16
1.25892541e+02 9.63713113e-15 1.18868631e-16 0.00000000e+00 9.51826250e-15 0.00000000e+00 1.18868631e-16
1.44543977e+02 5.24135133e-15 7.85357256e-17 0.00000000e+00 5.16281561e-15 0.00000000e+00 7.85357256e-17
1.65958691e+02 2.72227697e-15 5.18880394e-17 0.00000000e+00 2.67038893e-15 0.00000000e+00 5.18880394e-17
1.90546072e+02 1.41870149e-15 3.42820876e-17 0.00000000e+00 1.38441940e-15 0.00000000e+00 3.42820876e-17
2.18776162e+02 7.40074643e-16 2.26499507e-17 0.00000000e+00 7.17424693e-16 0.00000000e+00 2.26499507e-17
2.51188643e+02 3.85789501e-16 1.49646740e-17 0.00000000e+00 3.70824827e-16 0.00000000e+00 1.49646740e-17
2.88403150e+02 2.00854941e-16 9.88706207e-18 0.00000000e+00 1.90967879e-16 0.00000000e+00 9.88706207e-18
3.31131121e+02 1.04675489e-16 6.53231713e-18 0.00000000e+00 9.81431723e-17 0.00000000e+00 6.53231713e-18
3.80189396e+02 5.45922919e-17 4.31585913e-18 0.00000000e+00 5.02764327e-17 0.00000000e+00 4.31585913e-18
4.36515832e+02 2.85568634e-17 2.85145985e-18 0.00000000e+00 2.57054036e-17 0.00000000e+00 2.85145985e-18
5.01187234e+02 1.49968013e-17 1.88394084e-18 0.00000000e+00 1.31128605e-17 0.00000000e+00 1.88394084e-18
5.75439937e+02 7.92156317e-18 1.24470737e-18 0.00000000e+00 6.67685580e-18 0.00000000e+00 1.24470737e-18
6.60693448e+02 4.21667574e-18 8.22370004e-19 0.00000000e+00 3.39430573e-18 0.00000000e+00 8.22370004e-19
7.58577575e+02 2.26646420e-18 5.43334473e-19 0.00000000e+00 1.72312973e-18 0.00000000e+00 5.43334473e-19
8.70963590e+02 1.23245366e-18 3.58977527e-19 0.00000000e+00 8.73476136e-19 0.00000000e+00 3.58977527e-19
1.00000000e+03 4.42151656e-19 0.00000000e+00 0.00000000e+00 4.42151656e-19 0.00000000e+00 0.00000000e+00
