# column 1: lambda (micron)
# column 2: total flux; lambda*F_lambda (W/m2)
# column 3: direct stellar flux; lambda*F_lambda (W/m2)
# column 4: scattered stellar flux; lambda*F_lambda (W/m2)
# column 5: total dust emission flux; lambda*F_lambda (W/m2)
# column 6: dust emission scattered flux; lambda*F_lambda (W/m2)
# column 7: transparent flux; lambda*F_lambda (W/m2)
1.00000000e-03 5.25641039e-13 5.25636674e-13 4.36551922e-18 0.00000000e+00 0.00000000e+00 5.25636674e-13
1.14815362e-03 6.20426840e-13 6.20419813e-13 7.02742016e-18 0.00000000e+00 0.00000000e+00 6.20419813e-13
1.31825674e-03 7.32305102e-13 7.32294308e-13 1.07938302e-17 0.00000000e+00 0.00000000e+00 7.32294308e-13
1.51356125e-03 8.64358603e-13 8.64342083e-13 1.65203699e-17 0.00000000e+00 0.00000000e+00 8.64342083e-13
1.73780083e-03 1.02023273e-12 1.02020080e-12 3.19292515e-17 0.00000000e+00 0.00000000e+00 1.02020080e-12
1.99526231e-03 1.20422071e-12 1.20416405e-12 5.66545538e-17 0.00000000e+00 0.00000000e+00 1.20416405e-12
2.29086765e-03 1.42138914e-12 1.42129968e-12 8.94607412e-17 0.00000000e+00 0.00000000e+00 1.42129968e-12
2.63026799e-03 1.67777799e-12 1.67758934e-12 1.88648794e-16 0.00000000e+00 0.00000000e+00 1.67758934e-12
3.01995172e-03 1.98037318e-12 1.98009332e-12 2.79863842e-16 0.00000000e+00 0.00000000e+00 1.98009332e-12
3.46736850e-03 2.33761122e-12 2.33714500e-12 4.66217910e-16 0.00000000e+00 0.00000000e+00 2.33714500e-12
3.98107171e-03 2.75934290e-12 2.75858048e-12 7.62421796e-16 0.00000000e+00 0.00000000e+00 2.75858048e-12
4.57088190e-03 3.25773681e-12 3.25600946e-12 1.72734447e-15 0.00000000e+00 0.00000000e+00 3.25600946e-12
5.24807460e-03 3.84644766e-12 3.84313516e-12 3.31250246e-15 0.00000000e+00 0.00000000e+00 3.84313516e-12
6.02559586e-03 4.54180255e-12 4.53613173e-12 5.67081237e-15 0.00000000e+00 0.00000000e+00 4.53613173e-12
6.91830971e-03 5.36350369e-12 5.35408989e-12 9.41379560e-15 0.00000000e+00 0.00000000e+00 5.35408989e-12
7.94328235e-03 6.33830633e-12 6.31954278e-12 1.87635502e-14 0.00000000e+00 0.00000000e+00 6.31954278e-12
9.12010839e-03 7.48274878e-12 7.45908676e-12 2.36620243e-14 0.00000000e+00 0.00000000e+00 7.45908676e-12
1.04712855e-02 8.36872383e-12 8.33078048e-12 3.79433552e-14 0.00000000e+00 0.00000000e+00 8.33078048e-12
1.20226443e-02 8.38745785e-12 8.33078048e-12 5.66773709e-14 8.03847630e-311 8.92953153e-313 8.33078048e-12
1.38038426e-02 8.40820701e-12 8.33078048e-12 7.74265332e-14 1.63451403e-271 1.99610346e-273 8.33078048e-12
1.58489319e-02 8.43251108e-12 8.33078048e-12 1.01730608e-13 2.69748585e-237 5.78554453e-239 8.33078048e-12
1.81970086e-02 8.45601097e-12 8.33078048e-12 1.25230499e-13 1.60769471e-207 3.72071971e-209 8.33078048e-12
2.08929613e-02 8.51942974e-12 8.33078048e-12 1.88649265e-13 1.23719880e-181 3.75914425e-183 8.33078048e-12
2.39883292e-02 8.52339791e-12 8.33078048e-12 1.92617431e-13 4.20160720e-159 1.61755400e-160 8.33078048e-12
2.75422870e-02 8.54881368e-12 8.33078048e-12 2.18033207e-13 1.69497377e-139 7.61364582e-141 8.33078048e-12
3.16227766e-02 8.55732714e-12 8.33078048e-12 2.26546662e-13 1.89168176e-122 1.01426860e-123 8.33078048e-12
3.63078055e-02 8.53870091e-12 8.33078048e-12 2.07920438e-13 1.23385062e-107 6.86619240e-109 8.33078048e-12
4.16869383e-02 8.55232547e-12 8.33078048e-12 2.21544994e-13 9.30845025e-95 6.55887982e-96 8.33078048e-12
4.78630092e-02 8.54268105e-12 8.33078048e-12 2.11900570e-13 1.41758850e-83 1.14844368e-84 8.33078048e-12
5.49540874e-02 8.52569355e-12 8.33078048e-12 1.94913072e-13 7.21047270e-74 6.33022877e-75 8.33078048e-12
6.30957344e-02 8.50974706e-12 8.33078048e-12 1.78966580e-13 2.54016341e-65 2.43272840e-66 8.33078048e-12
7.24435960e-02 8.48087138e-12 8.33078048e-12 1.50090909e-13 6.49742799e-58 5.88573999e-59 8.33078048e-12
8.31763771e-02 8.48053176e-12 8.33078048e-12 1.49751281e-13 1.36618540e-51 1.23515327e-52 8.33078048e-12
9.54992586e-02 8.48660773e-12 8.33078048e-12 1.55827258e-13 4.20596190e-46 4.14293883e-47 8.33078048e-12
1.09647820e-01 8.12604738e-12 7.95583672e-12 1.70210665e-13 2.38585632e-41 2.76646671e-42 7.95583672e-12
1.25892541e-01 7.59668949e-12 7.42481883e-12 1.71870661e-13 3.55098971e-37 4.58122497e-38 7.42481883e-12
1.44543977e-01 7.09019888e-12 6.92924411e-12 1.60954770e-13 1.61799914e-33 2.25300325e-34 6.92924411e-12
1.65958691e-01 6.62886176e-12 6.46674687e-12 1.62114897e-13 2.01473187e-30 3.24841292e-31 6.46674687e-12
1.90546072e-01 6.21060617e-12 6.03511933e-12 1.75486845e-13 7.34118786e-28 1.40295353e-28 6.03511933e-12
2.18776162e-01 5.78930914e-12 5.63230107e-12 1.57008071e-13 1.07236231e-25 2.20378110e-26 5.63230107e-12
2.51188643e-01 5.44313060e-12 5.25636919e-12 1.86761402e-13 1.33564142e-23 3.32342606e-24 5.25636919e-12
2.88403150e-01 5.08128733e-12 4.90552916e-12 1.75758173e-13 8.60366513e-22 2.18606866e-22 4.90552916e-12
3.31131121e-01 4.73801524e-12 4.57810618e-12 1.59909029e-13 3.06494121e-20 7.85592355e-21 4.57810618e-12
3.80189396e-01 4.42418342e-12 4.27253728e-12 1.51645470e-13 6.65757234e-19 1.75580549e-19 4.27253728e-12
4.36515832e-01 4.13028642e-12 3.98736380e-12 1.42913403e-13 9.22055883e-18 2.43613328e-18 3.98736380e-12
5.01187234e-01 3.85361739e-12 3.72122441e-12 1.32305128e-13 8.78460418e-17 2.36224073e-17 3.72122441e-12
5.75439937e-01 3.60040571e-12 3.47284869e-12 1.26965411e-13 5.91609392e-16 1.59437138e-16 3.47284869e-12
6.60693448e-01 3.35878401e-12 3.24105097e-12 1.14777143e-13 2.95589553e-15 7.91744995e-16 3.24105097e-12
7.58577575e-01 3.14232465e-12 3.02472476e-12 1.05798625e-13 1.18012702e-14 3.09888507e-15 3.02472476e-12
8.70963590e-01 2.95757936e-12 2.82283739e-12 9.68751598e-14 3.78668102e-14 9.52754512e-15 2.82283739e-12
1.00000000e+00 2.81834556e-12 2.63442513e-12 8.33019821e-14 1.00618440e-13 2.37607431e-14 2.63442513e-12
1.14815362e+00 2.76496188e-12 2.45858859e-12 7.16617102e-14 2.34711585e-13 5.07367238e-14 2.45858859e-12
1.31825674e+00 2.83390678e-12 2.29448837e-12 5.79471377e-14 4.81471272e-13 9.12953907e-14 2.29448837e-12
1.51356125e+00 3.06870528e-12 2.14134114e-12 4.68585515e-14 8.80505588e-13 1.43496331e-13 2.14134114e-12
1.73780083e+00 3.46220453e-12 1.99841583e-12 3.65405965e-14 1.42724810e-12 1.93872478e-13 1.99841583e-12
1.99526231e+00 3.95359035e-12 1.86503017e-12 2.71965455e-14 2.06136363e-12 2.22689568e-13 1.86503017e-12
2.29086765e+00 4.43612094e-12 1.74054743e-12 1.96004319e-14 2.67597308e-12 2.23375007e-13 1.74054743e-12
2.63026799e+00 4.84422246e-12 1.62437337e-12 1.38308582e-14 3.20601823e-12 2.03947603e-13 1.62437337e-12
3.01995172e+00 5.11845623e-12 1.51595343e-12 9.80795515e-15 3.59269484e-12 1.72849943e-13 1.51595343e-12
3.46736850e+00 5.21849127e-12 1.41477006e-12 6.68997318e-15 3.79703124e-12 1.39621620e-13 1.41477006e-12
3.98107171e+00 5.19632446e-12 1.32034025e-12 4.80058313e-15 3.87118363e-12 1.06156403e-13 1.32034025e-12
4.57088190e+00 5.01492713e-12 1.23221321e-12 3.29835143e-15 3.77941556e-12 7.68072638e-14 1.23221321e-12
5.24807460e+00 4.63971137e-12 1.01885146e-12 1.93491225e-15 3.61892499e-12 5.20890790e-14 1.01885146e-12
6.02559586e+00 4.10679460e-12 6.73148485e-13 8.84320646e-16 3.43276179e-12 3.33329328e-14 6.73148485e-13
6.70000000e+00 3.74926381e-12 4.89650796e-13 4.69105485e-16 3.25914391e-12 2.25729069e-14 4.89650796e-13
6.92422916e+00 3.64057704e-12 4.43605145e-13 3.79467211e-16 3.19659243e-12 1.98297045e-14 4.43605145e-13
7.15596261e+00 3.55699765e-12 4.01889522e-13 3.02415300e-16 3.15480572e-12 1.72030030e-14 4.01889522e-13
7.39545150e+00 3.52749752e-12 3.64096743e-13 2.26873817e-16 3.16317391e-12 1.45761573e-14 3.64096743e-13
7.64295536e+00 3.62813028e-12 3.29857910e-13 1.56085942e-16 3.29811628e-12 1.18489378e-14 3.29857910e-13
7.89874245e+00 3.89702894e-12 2.98838820e-13 9.09892849e-17 3.59809913e-12 8.91336856e-15 2.98838820e-13
8.16308998e+00 4.28025900e-12 2.70736695e-13 5.11718111e-17 4.00947114e-12 6.58828354e-15 2.70736695e-13
8.43628443e+00 4.75994391e-12 2.45277229e-13 2.71079875e-17 4.51463958e-12 4.70334311e-15 2.45277229e-13
8.71862190e+00 5.06185019e-12 2.22211915e-13 1.73176712e-17 4.83962096e-12 3.59257873e-15 2.22211915e-13
9.01040836e+00 5.37399397e-12 2.01315610e-13 1.12871443e-17 5.17266707e-12 2.74498956e-15 2.01315610e-13
9.31196005e+00 5.51140900e-12 1.82384346e-13 0.00000000e+00 5.32902465e-12 0.00000000e+00 1.82384346e-13
9.62360379e+00 5.43266717e-12 1.65233336e-13 0.00000000e+00 5.26743384e-12 0.00000000e+00 1.65233336e-13
9.94567731e+00 5.11183313e-12 1.49695167e-13 0.00000000e+00 4.96213796e-12 0.00000000e+00 1.49695167e-13
1.02785297e+01 4.76342667e-12 1.35618173e-13 0.00000000e+00 4.62780849e-12 0.00000000e+00 1.35618173e-13
1.06225216e+01 4.44437067e-12 1.22864947e-13 0.00000000e+00 4.32150572e-12 0.00000000e+00 1.22864947e-13
1.09780260e+01 4.10248381e-12 1.11311006e-13 0.00000000e+00 3.99117280e-12 0.00000000e+00 1.11311006e-13
1.13454280e+01 3.82974452e-12 1.00843571e-13 0.00000000e+00 3.72890095e-12 0.00000000e+00 1.00843571e-13
1.17251259e+01 3.57356093e-12 9.13604705e-14 0.00000000e+00 3.48220046e-12 0.00000000e+00 9.13604705e-14
1.21175312e+01 3.36583745e-12 8.27691389e-14 0.00000000e+00 3.28306831e-12 0.00000000e+00 8.27691389e-14
1.25230691e+01 3.15889391e-12 7.49857166e-14 0.00000000e+00 3.08390819e-12 0.00000000e+00 7.49857166e-14
1.29421791e+01 2.97654167e-12 6.79342298e-14 0.00000000e+00 2.90860744e-12 0.00000000e+00 6.79342298e-14
1.33753155e+01 2.81501925e-12 6.15458488e-14 0.00000000e+00 2.75347340e-12 0.00000000e+00 6.15458488e-14
1.38229477e+01 2.71223720e-12 5.57582167e-14 0.00000000e+00 2.65647898e-12 0.00000000e+00 5.57582167e-14
1.42855609e+01 2.65421452e-12 5.05148403e-14 0.00000000e+00 2.60369968e-12 0.00000000e+00 5.05148403e-14
1.47636563e+01 2.66747825e-12 4.57645392e-14 0.00000000e+00 2.62171371e-12 0.00000000e+00 4.57645392e-14
1.52577522e+01 2.70093049e-12 4.14609457e-14 0.00000000e+00 2.65946955e-12 0.00000000e+00 4.14609457e-14
1.57683840e+01 2.74776787e-12 3.75620523e-14 0.00000000e+00 2.71020582e-12 0.00000000e+00 3.75620523e-14
1.62961051e+01 2.78913090e-12 3.40298020e-14 0.00000000e+00 2.75510109e-12 0.00000000e+00 3.40298020e-14
1.68414875e+01 2.83337939e-12 3.08297166e-14 0.00000000e+00 2.80254967e-12 0.00000000e+00 3.08297166e-14
1.74051222e+01 2.85173251e-12 2.79305599e-14 0.00000000e+00 2.82380195e-12 0.00000000e+00 2.79305599e-14
1.79876201e+01 2.86557945e-12 2.53040334e-14 0.00000000e+00 2.84027542e-12 0.00000000e+00 2.53040334e-14
1.85896125e+01 2.86491688e-12 2.29244994e-14 0.00000000e+00 2.84199238e-12 0.00000000e+00 2.29244994e-14
1.92117518e+01 2.82965730e-12 2.07687314e-14 0.00000000e+00 2.80888857e-12 0.00000000e+00 2.07687314e-14
1.98547123e+01 2.78545659e-12 1.88156870e-14 0.00000000e+00 2.76664090e-12 0.00000000e+00 1.88156870e-14
2.05191907e+01 2.74426973e-12 1.70463024e-14 0.00000000e+00 2.72722342e-12 0.00000000e+00 1.70463024e-14
2.12059073e+01 2.69724066e-12 1.54433068e-14 0.00000000e+00 2.68179736e-12 0.00000000e+00 1.54433068e-14
2.19156062e+01 2.67582546e-12 1.39910532e-14 0.00000000e+00 2.66183441e-12 0.00000000e+00 1.39910532e-14
2.26490567e+01 2.63981361e-12 1.26753663e-14 0.00000000e+00 2.62713824e-12 0.00000000e+00 1.26753663e-14
2.34070535e+01 2.59942665e-12 1.14834036e-14 0.00000000e+00 2.58794325e-12 0.00000000e+00 1.14834036e-14
2.41904183e+01 2.56098737e-12 1.04035303e-14 0.00000000e+00 2.55058384e-12 0.00000000e+00 1.04035303e-14
2.50000000e+01 2.52878047e-12 9.42520591e-15 0.00000000e+00 2.51935526e-12 0.00000000e+00 9.42520591e-15
2.75422870e+01 2.38562236e-12 7.04872996e-15 0.00000000e+00 2.37857363e-12 0.00000000e+00 7.04872996e-15
3.16227766e+01 2.13888711e-12 4.65704970e-15 0.00000000e+00 2.13423006e-12 0.00000000e+00 4.65704970e-15
3.63078055e+01 1.81937691e-12 3.07688223e-15 0.00000000e+00 1.81630003e-12 0.00000000e+00 3.07688223e-15
4.16869383e+01 1.44136935e-12 2.03287593e-15 0.00000000e+00 1.43933648e-12 0.00000000e+00 2.03287593e-15
4.78630092e+01 1.06392022e-12 1.34310781e-15 0.00000000e+00 1.06257711e-12 0.00000000e+00 1.34310781e-15
5.49540874e+01 7.36376185e-13 8.87382527e-16 0.00000000e+00 7.35488802e-13 0.00000000e+00 8.87382527e-16
6.30957344e+01 4.82410223e-13 5.86287821e-16 0.00000000e+00 4.81823935e-13 0.00000000e+00 5.86287821e-16
7.24435960e+01 3.02334368e-13 3.87356522e-16 0.00000000e+00 3.01947011e-13 0.00000000e+00 3.87356522e-16
8.31763771e+01 1.82611953e-13 2.55923916e-16 0.00000000e+00 1.82356030e-13 0.00000000e+00 2.55923916e-16
9.54992586e+01 1.07308787e-13 1.69087255e-16 0.00000000e+00 1.07139700e-13 0.00000000e+00 1.69087255e-16
1.09647820e+02 6.16997682e-14 1.11714841e-16 0.00000000e+00 6.15880534e-14 0.00000000e+00 1.11714841e-16
1.25892541e+02 3.52411068e-14 7.38092637e-17 0.00000000e+00 3.51672975e-14 0.00000000e+00 7.38092637e-17
1.44543977e+02 1.99092481e-14 4.87652969e-17 0.00000000e+00 1.98604828e-14 0.00000000e+00 4.87652969e-17
1.65958691e+02 1.06870238e-14 3.22189122e-17 0.00000000e+00 1.06548049e-14 0.00000000e+00 3.22189122e-17
1.90546072e+02 5.71789718e-15 2.12868242e-17 0.00000000e+00 5.69661035e-15 0.00000000e+00 2.12868242e-17
2.18776162e+02 3.04525650e-15 1.40640653e-17 0.00000000e+00 3.03119244e-15 0.00000000e+00 1.40640653e-17
2.51188643e+02 1.61198846e-15 9.29203577e-18 0.00000000e+00 1.60269643e-15 0.00000000e+00 9.29203577e-18
2.88403150e+02 8.47641577e-16 6.13918715e-18 0.00000000e+00 8.41502390e-16 0.00000000e+00 6.13918715e-18
3.31131121e+02 4.43811027e-16 4.05612073e-18 0.00000000e+00 4.39754906e-16 0.00000000e+00 4.05612073e-18
3.80189396e+02 2.31211468e-16 2.67985239e-18 0.00000000e+00 2.28531616e-16 0.00000000e+00 2.67985239e-18
4.36515832e+02 1.20071495e-16 1.77056092e-18 0.00000000e+00 1.18300934e-16 0.00000000e+00 1.77056092e-18
5.01187234e+02 6.21620059e-17 1.16979800e-18 0.00000000e+00 6.09922079e-17 0.00000000e+00 1.16979800e-18
5.75439937e+02 3.21153194e-17 7.72877871e-19 0.00000000e+00 3.13424416e-17 0.00000000e+00 7.72877871e-19
6.60693448e+02 1.65707445e-17 5.10635346e-19 0.00000000e+00 1.60601092e-17 0.00000000e+00 5.10635346e-19
7.58577575e+02 8.54624151e-18 3.37373427e-19 0.00000000e+00 8.20886809e-18 0.00000000e+00 3.37373427e-19
8.70963590e+02 4.40868967e-18 2.22900413e-19 0.00000000e+00 4.18578926e-18 0.00000000e+00 2.22900413e-19
1.00000000e+03 2.12969584e-18 0.00000000e+00 0.00000000e+00 2.12969584e-18 0.00000000e+00 0.00000000e+00
