# column 1: lambda (micron)
# column 2: total flux; lambda*F_lambda (W/m2)
# column 3: direct stellar flux; lambda*F_lambda (W/m2)
# column 4: scattered stellar flux; lambda*F_lambda (W/m2)
# column 5: total dust emission flux; lambda*F_lambda (W/m2)
# column 6: dust emission scattered flux; lambda*F_lambda (W/m2)
# column 7: transparent flux; lambda*F_lambda (W/m2)
1.00000000e-03 1.04448801e-12 1.04448491e-12 3.10772193e-18 0.00000000e+00 0.00000000e+00 1.04634360e-12
1.14815362e-03 1.23213086e-12 1.23212334e-12 7.52206950e-18 0.00000000e+00 0.00000000e+00 1.23502095e-12
1.31825674e-03 1.45338822e-12 1.45337371e-12 1.45106102e-17 0.00000000e+00 0.00000000e+00 1.45772071e-12
1.51356125e-03 1.71457836e-12 1.71453033e-12 4.80319057e-17 0.00000000e+00 0.00000000e+00 1.72057784e-12
1.73780083e-03 2.02394978e-12 2.02362189e-12 3.27884251e-16 0.00000000e+00 0.00000000e+00 2.03083353e-12
1.99526231e-03 2.38593121e-12 2.38575574e-12 1.75474851e-16 0.00000000e+00 0.00000000e+00 2.39703472e-12
2.29086765e-03 2.81564118e-12 2.81515432e-12 4.86858344e-16 0.00000000e+00 0.00000000e+00 2.82926954e-12
2.63026799e-03 3.32376070e-12 3.31948992e-12 4.27077618e-15 0.00000000e+00 0.00000000e+00 3.33944522e-12
3.01995172e-03 3.91402848e-12 3.91250599e-12 1.52248783e-15 0.00000000e+00 0.00000000e+00 3.94161611e-12
3.46736850e-03 4.61469189e-12 4.61189935e-12 2.79254131e-15 0.00000000e+00 0.00000000e+00 4.65237083e-12
3.98107171e-03 5.48882801e-12 5.43664407e-12 5.21839468e-14 0.00000000e+00 0.00000000e+00 5.49128930e-12
4.57088190e-03 6.44590569e-12 6.43838672e-12 7.51896942e-15 0.00000000e+00 0.00000000e+00 6.48148207e-12
5.24807460e-03 7.59786001e-12 7.58531862e-12 1.25413865e-14 0.00000000e+00 0.00000000e+00 7.65022704e-12
6.02559586e-03 8.96168979e-12 8.93742595e-12 2.42638420e-14 0.00000000e+00 0.00000000e+00 9.02972084e-12
6.91830971e-03 1.05720420e-11 1.05323367e-11 3.97052855e-14 0.00000000e+00 0.00000000e+00 1.06579658e-11
7.94328235e-03 1.24880175e-11 1.24144969e-11 7.35205370e-14 3.21210153e-303 4.08270690e-305 1.25798170e-11
9.12010839e-03 1.47453323e-11 1.46318382e-11 1.13494090e-13 1.63566289e-264 1.70419473e-266 1.48482176e-11
1.04712855e-02 1.64357025e-11 1.63264508e-11 1.09251694e-13 7.92520263e-231 1.12009233e-232 1.65834298e-11
1.20226443e-02 1.64538232e-11 1.63114094e-11 1.42413771e-13 1.39017169e-201 1.68178070e-203 1.65834298e-11
1.38038426e-02 1.64381829e-11 1.62935867e-11 1.44596210e-13 4.21041976e-176 7.64910772e-178 1.65834298e-11
1.58489319e-02 1.64355113e-11 1.62717106e-11 1.63800670e-13 6.22504469e-154 1.29083024e-155 1.65834298e-11
1.81970086e-02 1.64304906e-11 1.62515599e-11 1.78930720e-13 1.20326541e-134 3.10077596e-136 1.65834298e-11
2.08929613e-02 1.64455467e-11 1.62348293e-11 2.10717416e-13 6.75040789e-118 2.16852011e-119 1.65834298e-11
2.39883292e-02 1.64707571e-11 1.62131776e-11 2.57579472e-13 2.52465165e-103 1.02684069e-104 1.65834298e-11
2.75422870e-02 1.64789711e-11 1.61880293e-11 2.90941757e-13 1.19290221e-90 5.63721225e-92 1.65834298e-11
3.16227766e-02 1.64882876e-11 1.61634164e-11 3.24871208e-13 1.22209650e-79 6.73486573e-81 1.65834298e-11
3.63078055e-02 1.64937027e-11 1.61441375e-11 3.49565218e-13 4.40579913e-70 2.56870604e-71 1.65834298e-11
4.16869383e-02 1.65573794e-11 1.61274811e-11 4.29898253e-13 8.75634846e-62 6.47359870e-63 1.65834298e-11
4.78630092e-02 1.65888852e-11 1.60816574e-11 5.07227824e-13 1.37388449e-54 1.22848365e-55 1.65834298e-11
5.49540874e-02 1.65859018e-11 1.60181470e-11 5.67754795e-13 2.34714353e-48 2.33728206e-49 1.65834298e-11
6.30957344e-02 1.64551991e-11 1.58599957e-11 5.95203428e-13 7.68307934e-43 7.97227839e-44 1.65834298e-11
7.24435960e-02 1.62121522e-11 1.56746824e-11 5.37469815e-13 4.44926403e-38 4.18669682e-39 1.65834298e-11
8.31763771e-02 1.62118231e-11 1.56910845e-11 5.20738641e-13 4.62828187e-34 4.25220437e-35 1.65834298e-11
9.54992586e-02 1.62702949e-11 1.57392898e-11 5.31005127e-13 1.32846322e-30 1.26198890e-31 1.65834298e-11
1.09647820e-01 1.57333646e-11 1.51644079e-11 5.68956721e-13 1.15964881e-27 1.23427219e-28 1.58370587e-11
1.25892541e-01 1.48110791e-11 1.42612913e-11 5.49787808e-13 3.84409815e-25 4.24483036e-26 1.47800032e-11
1.44543977e-01 1.38932950e-11 1.33910402e-11 5.02254856e-13 5.31752898e-23 5.85638955e-24 1.37935015e-11
1.65958691e-01 1.30639305e-11 1.25437569e-11 5.20173614e-13 2.74227429e-21 3.30946584e-22 1.28728446e-11
1.90546072e-01 1.22317437e-11 1.16862663e-11 5.45477297e-13 5.85807800e-20 8.09659661e-21 1.20136376e-11
2.18776162e-01 1.13588211e-11 1.08542455e-11 5.04574951e-13 6.91927573e-19 9.44469216e-20 1.12117790e-11
2.51188643e-01 1.07739269e-11 1.01957289e-11 5.78189370e-13 8.64101997e-18 1.43866879e-18 1.04634409e-11
2.88403150e-01 1.01038107e-11 9.55716633e-12 5.46571646e-13 7.27214473e-17 1.22115754e-17 9.76505125e-12
3.31131121e-01 9.45585773e-12 8.94392095e-12 5.11517263e-13 4.19518815e-16 6.95288983e-17 9.11327608e-12
3.80189396e-01 8.83310960e-12 8.36605256e-12 4.65301118e-13 1.75591694e-15 2.86107038e-16 8.50500410e-12
4.36515832e-01 8.26831982e-12 7.82435146e-12 4.38389293e-13 5.57906797e-15 8.97746053e-16 7.93733165e-12
5.01187234e-01 7.72888127e-12 7.31693348e-12 3.97873139e-13 1.40746507e-14 2.26528892e-15 7.40754890e-12
5.75439937e-01 7.23655132e-12 6.84120459e-12 3.65569642e-13 2.97770840e-14 4.87148546e-15 6.91312687e-12
6.60693448e-01 6.78112654e-12 6.39511919e-12 3.30050931e-13 5.59564262e-14 9.60403215e-15 6.45170538e-12
7.58577575e-01 6.37803602e-12 5.97710616e-12 2.97811741e-13 1.03118112e-13 1.99235390e-14 6.02108180e-12
8.70963590e-01 6.03770273e-12 5.58578397e-12 2.55308188e-13 1.96610579e-13 4.30427152e-14 5.61920048e-12
1.00000000e+00 5.82014387e-12 5.21916248e-12 2.16621997e-13 3.84359392e-13 9.03132367e-14 5.24414302e-12
1.14815362e+00 5.80882888e-12 4.87577808e-12 1.79316240e-13 7.53734563e-13 1.75131721e-13 4.89411902e-12
1.31825674e+00 6.10923039e-12 4.55422656e-12 1.36824773e-13 1.41817906e-12 3.05063650e-13 4.56745763e-12
1.51356125e+00 6.82091548e-12 4.25315184e-12 1.05435586e-13 2.46232806e-12 4.65070138e-13 4.26259947e-12
1.73780083e+00 7.92300152e-12 3.97145333e-12 8.11456421e-14 3.87040255e-12 6.27716950e-13 3.97808929e-12
1.99526231e+00 9.30185282e-12 3.70798126e-12 6.10026993e-14 5.53286886e-12 7.30568212e-13 3.71256894e-12
2.29086765e+00 1.07380999e-11 3.46160931e-12 4.49649108e-14 7.23152571e-12 7.65312456e-13 3.46477093e-12
2.63026799e+00 1.20057843e-11 3.23131321e-12 3.28430976e-14 8.74162802e-12 7.24734258e-13 3.23351237e-12
3.01995172e+00 1.29795672e-11 3.01614000e-12 2.37136153e-14 9.93971357e-12 6.35404130e-13 3.01768933e-12
3.46736850e+00 1.35837302e-11 2.81516224e-12 1.66389242e-14 1.07519290e-11 5.23182913e-13 2.81627154e-12
3.98107171e+00 1.38723043e-11 2.62749314e-12 1.15922904e-14 1.12332189e-11 4.04728786e-13 2.62829753e-12
4.57088190e+00 1.37434169e-11 2.45227874e-12 7.70394441e-15 1.12834342e-11 2.88144943e-13 2.45286997e-12
5.24807460e+00 1.31373971e-11 2.02775478e-12 4.42217560e-15 1.11052201e-11 1.92104527e-13 2.02814751e-12
6.02559586e+00 1.20464023e-11 1.33976815e-12 1.91620140e-15 1.07047179e-11 1.20507343e-13 1.33998377e-12
6.70000000e+00 1.12902492e-11 9.74570517e-13 9.85001835e-16 1.03146937e-11 8.01327529e-14 9.74709347e-13
6.92422916e+00 1.10456108e-11 8.82928523e-13 7.90531154e-16 1.01618917e-11 6.98298768e-14 8.83049889e-13
7.15596261e+00 1.08522809e-11 7.99901846e-13 6.23254424e-16 1.00517558e-11 6.00255960e-14 8.00009879e-13
7.39545150e+00 1.08312086e-11 7.24678553e-13 4.79203878e-16 1.01060508e-11 5.13149907e-14 7.24778763e-13
7.64295536e+00 1.11595908e-11 6.56518772e-13 3.34992702e-16 1.05027371e-11 4.23431089e-14 6.56622211e-13
7.89874245e+00 1.19935556e-11 5.94753871e-13 2.06467124e-16 1.13985952e-11 3.31551873e-14 5.94874946e-13
8.16308998e+00 1.30224354e-11 5.38786148e-13 1.20499212e-16 1.24835287e-11 2.52356046e-14 5.38934254e-13
8.43628443e+00 1.41342884e-11 4.88067692e-13 6.51565915e-17 1.36461556e-11 1.82745839e-14 4.88254098e-13
8.71862190e+00 1.48424453e-11 4.42132293e-13 4.05658212e-17 1.44002725e-11 1.40920578e-14 4.42339790e-13
9.01040836e+00 1.53407714e-11 4.00515443e-13 2.45668408e-17 1.49402314e-11 1.05450666e-14 4.00743158e-13
9.31196005e+00 1.57940470e-11 3.62818914e-13 0.00000000e+00 1.54312281e-11 0.00000000e+00 3.63058180e-13
9.62360379e+00 1.55041337e-11 3.28694537e-13 0.00000000e+00 1.51754392e-11 0.00000000e+00 3.28917012e-13
9.94567731e+00 1.49495773e-11 2.97797279e-13 0.00000000e+00 1.46517800e-11 0.00000000e+00 2.97986401e-13
1.02785297e+01 1.43798807e-11 2.69809430e-13 0.00000000e+00 1.41100713e-11 0.00000000e+00 2.69964435e-13
1.06225216e+01 1.37634949e-11 2.44451910e-13 0.00000000e+00 1.35190430e-11 0.00000000e+00 2.44577592e-13
1.09780260e+01 1.30714535e-11 2.21479838e-13 0.00000000e+00 1.28499736e-11 0.00000000e+00 2.21578069e-13
1.13454280e+01 1.24200789e-11 2.00664287e-13 0.00000000e+00 1.22194146e-11 0.00000000e+00 2.00741370e-13
1.17251259e+01 1.17584149e-11 1.81803229e-13 0.00000000e+00 1.15766116e-11 0.00000000e+00 1.81864106e-13
1.21175312e+01 1.12034627e-11 1.64714186e-13 0.00000000e+00 1.10387486e-11 0.00000000e+00 1.64762018e-13
1.25230691e+01 1.06580742e-11 1.49230692e-13 0.00000000e+00 1.05088435e-11 0.00000000e+00 1.49268171e-13
1.29421791e+01 1.01179953e-11 1.35201758e-13 0.00000000e+00 9.98279349e-12 0.00000000e+00 1.35231331e-13
1.33753155e+01 9.60058899e-12 1.22490982e-13 0.00000000e+00 9.47809801e-12 0.00000000e+00 1.22514483e-13
1.38229477e+01 9.25722855e-12 1.10973962e-13 0.00000000e+00 9.14625459e-12 0.00000000e+00 1.10993499e-13
1.42855609e+01 9.09110179e-12 1.00538941e-13 0.00000000e+00 8.99056285e-12 0.00000000e+00 1.00555922e-13
1.47636563e+01 9.18729054e-12 9.10837551e-14 0.00000000e+00 9.09620679e-12 0.00000000e+00 9.10998706e-14
1.52577522e+01 9.31120058e-12 8.25174740e-14 0.00000000e+00 9.22868311e-12 0.00000000e+00 8.25330452e-14
1.57683840e+01 9.51873602e-12 7.47565864e-14 0.00000000e+00 9.44397944e-12 0.00000000e+00 7.47718247e-14
1.62961051e+01 9.71721460e-12 6.77255572e-14 0.00000000e+00 9.64948905e-12 0.00000000e+00 6.77404517e-14
1.68414875e+01 9.85809282e-12 6.13557673e-14 0.00000000e+00 9.79673705e-12 0.00000000e+00 6.13702932e-14
1.74051222e+01 1.00080128e-11 5.55853758e-14 0.00000000e+00 9.95242738e-12 0.00000000e+00 5.55991699e-14
1.79876201e+01 9.99567698e-12 5.03578706e-14 0.00000000e+00 9.94531911e-12 0.00000000e+00 5.03707500e-14
1.85896125e+01 9.96432810e-12 4.56223456e-14 0.00000000e+00 9.91870575e-12 0.00000000e+00 4.56339988e-14
1.92117518e+01 9.78973839e-12 4.13324451e-14 0.00000000e+00 9.74840594e-12 0.00000000e+00 4.13426810e-14
1.98547123e+01 9.53652364e-12 3.74460935e-14 0.00000000e+00 9.49907755e-12 0.00000000e+00 3.74549090e-14
2.05191907e+01 9.26628802e-12 3.39252187e-14 0.00000000e+00 9.23236280e-12 0.00000000e+00 3.39327342e-14
2.12059073e+01 8.97601920e-12 3.07353705e-14 0.00000000e+00 8.94528383e-12 0.00000000e+00 3.07417768e-14
2.19156062e+01 8.67976881e-12 2.78454023e-14 0.00000000e+00 8.65192341e-12 0.00000000e+00 2.78508898e-14
2.26490567e+01 8.38094040e-12 2.52271474e-14 0.00000000e+00 8.35571326e-12 0.00000000e+00 2.52318552e-14
2.34070535e+01 8.09731060e-12 2.28550622e-14 0.00000000e+00 8.07445554e-12 0.00000000e+00 2.28591087e-14
2.41904183e+01 7.80003089e-12 2.07060031e-14 0.00000000e+00 7.77932489e-12 0.00000000e+00 2.07094900e-14
2.50000000e+01 7.52876382e-12 1.87590054e-14 0.00000000e+00 7.51000481e-12 0.00000000e+00 1.87620165e-14
2.75422870e+01 6.61807613e-12 1.40293889e-14 0.00000000e+00 6.60404674e-12 0.00000000e+00 1.40313526e-14
3.16227766e+01 5.30239879e-12 9.26934385e-15 0.00000000e+00 5.29312945e-12 0.00000000e+00 9.27042274e-15
3.63078055e+01 3.99141920e-12 6.12431793e-15 0.00000000e+00 3.98529488e-12 0.00000000e+00 6.12490756e-15
4.16869383e+01 2.81120928e-12 4.04637258e-15 0.00000000e+00 2.80716291e-12 0.00000000e+00 4.04668630e-15
4.78630092e+01 1.84955256e-12 2.67345739e-15 0.00000000e+00 1.84687910e-12 0.00000000e+00 2.67361912e-15
5.49540874e+01 1.14818195e-12 1.76636103e-15 0.00000000e+00 1.14641559e-12 0.00000000e+00 1.76644264e-15
6.30957344e+01 6.82387506e-13 1.16703643e-15 0.00000000e+00 6.81220470e-13 0.00000000e+00 1.16707708e-15
7.24435960e+01 3.91757523e-13 7.71060073e-16 0.00000000e+00 3.90986463e-13 0.00000000e+00 7.71080178e-16
8.31763771e+01 2.19082591e-13 5.09437694e-16 0.00000000e+00 2.18573153e-13 0.00000000e+00 5.09447621e-16
9.54992586e+01 1.20487453e-13 3.36583792e-16 0.00000000e+00 1.20150870e-13 0.00000000e+00 3.36588705e-16
1.09647820e+02 6.54454006e-14 2.22379512e-16 0.00000000e+00 6.52230211e-14 0.00000000e+00 2.22381952e-16
1.25892541e+02 3.56018495e-14 1.46925069e-16 0.00000000e+00 3.54549244e-14 0.00000000e+00 1.46926299e-16
1.44543977e+02 1.93073161e-14 9.70726183e-17 0.00000000e+00 1.92102435e-14 0.00000000e+00 9.70732430e-17
1.65958691e+02 9.99373169e-15 6.41353493e-17 0.00000000e+00 9.92959634e-15 0.00000000e+00 6.41356556e-17
1.90546072e+02 5.18683926e-15 4.23738558e-17 0.00000000e+00 5.14446541e-15 0.00000000e+00 4.23740075e-17
2.18776162e+02 2.69280409e-15 2.79961535e-17 0.00000000e+00 2.66480794e-15 0.00000000e+00 2.79962291e-17
2.51188643e+02 1.39576333e-15 1.84968874e-17 0.00000000e+00 1.37726644e-15 0.00000000e+00 1.84969251e-17
2.88403150e+02 7.21339807e-16 1.22207784e-17 0.00000000e+00 7.09119029e-16 0.00000000e+00 1.22207972e-17
3.31131121e+02 3.72487834e-16 8.07419120e-18 0.00000000e+00 3.64413642e-16 0.00000000e+00 8.07420067e-18
3.80189396e+02 1.92014758e-16 5.33456673e-18 0.00000000e+00 1.86680192e-16 0.00000000e+00 5.33457148e-18
4.36515832e+02 9.89730825e-17 3.52451404e-18 0.00000000e+00 9.54485685e-17 0.00000000e+00 3.52451642e-18
5.01187234e+02 5.10201635e-17 2.32862371e-18 0.00000000e+00 4.86915397e-17 0.00000000e+00 2.32862491e-18
5.75439937e+02 2.63325008e-17 1.53850662e-18 0.00000000e+00 2.47939941e-17 0.00000000e+00 1.53850722e-18
6.60693448e+02 1.36213966e-17 1.01648134e-18 0.00000000e+00 1.26049153e-17 0.00000000e+00 1.01648164e-18
7.58577575e+02 7.07088911e-18 6.71582608e-19 0.00000000e+00 6.39930650e-18 0.00000000e+00 6.71582760e-19
8.70963590e+02 3.68772105e-18 4.43710253e-19 0.00000000e+00 3.24401080e-18 0.00000000e+00 4.43710329e-19
1.00000000e+03 1.64219791e-18 0.00000000e+00 0.00000000e+00 1.64219791e-18 0.00000000e+00 0.00000000e+00
