# column 1: lambda (micron)
# column 2: total flux; lambda*F_lambda (W/m2)
# column 3: direct stellar flux; lambda*F_lambda (W/m2)
# column 4: scattered stellar flux; lambda*F_lambda (W/m2)
# column 5: total dust emission flux; lambda*F_lambda (W/m2)
# column 6: dust emission scattered flux; lambda*F_lambda (W/m2)
# column 7: transparent flux; lambda*F_lambda (W/m2)
1.00000000e-03 8.46530773e-13 8.46529401e-13 1.37177045e-18 0.00000000e+00 0.00000000e+00 8.46529401e-13
1.14815362e-03 9.99178250e-13 9.99176121e-13 2.12947155e-18 0.00000000e+00 0.00000000e+00 9.99176121e-13
1.31825674e-03 1.17935145e-12 1.17934819e-12 3.25642493e-18 0.00000000e+00 0.00000000e+00 1.17934819e-12
1.51356125e-03 1.39201407e-12 1.39200901e-12 5.06326547e-18 0.00000000e+00 0.00000000e+00 1.39200901e-12
1.73780083e-03 1.64302603e-12 1.64301696e-12 9.06765601e-18 0.00000000e+00 0.00000000e+00 1.64301696e-12
1.99526231e-03 1.93930243e-12 1.93928682e-12 1.56094394e-17 0.00000000e+00 0.00000000e+00 1.93928682e-12
2.29086765e-03 2.28900467e-12 2.28898025e-12 2.44162630e-17 0.00000000e+00 0.00000000e+00 2.28898025e-12
2.63026799e-03 2.70177771e-12 2.70173063e-12 4.70822954e-17 0.00000000e+00 0.00000000e+00 2.70173063e-12
3.01995172e-03 3.18898586e-12 3.18890841e-12 7.74512424e-17 0.00000000e+00 0.00000000e+00 3.18890841e-12
3.46736850e-03 3.76406198e-12 3.76393440e-12 1.27580080e-16 0.00000000e+00 0.00000000e+00 3.76393440e-12
3.98107171e-03 4.44284672e-12 4.44264945e-12 1.97271116e-16 0.00000000e+00 0.00000000e+00 4.44264945e-12
4.57088190e-03 5.24421738e-12 5.24375082e-12 4.66561461e-16 0.00000000e+00 0.00000000e+00 5.24375082e-12
5.24807460e-03 6.19010229e-12 6.18930730e-12 7.94991591e-16 0.00000000e+00 0.00000000e+00 6.18930730e-12
6.02559586e-03 7.30684854e-12 7.30536713e-12 1.48141151e-15 0.00000000e+00 0.00000000e+00 7.30536713e-12
6.91830971e-03 8.62484870e-12 8.62267558e-12 2.17312928e-15 0.00000000e+00 0.00000000e+00 8.62267558e-12
7.94328235e-03 1.01810582e-11 1.01775219e-11 3.53628406e-15 0.00000000e+00 0.00000000e+00 1.01775219e-11
9.12010839e-03 1.20185723e-11 1.20127391e-11 5.83315254e-15 0.00000000e+00 0.00000000e+00 1.20127391e-11
1.04712855e-02 1.34244665e-11 1.34165878e-11 7.87866602e-15 0.00000000e+00 0.00000000e+00 1.34165878e-11
1.20226443e-02 1.34287274e-11 1.34165878e-11 1.21395925e-14 0.00000000e+00 0.00000000e+00 1.34165878e-11
1.38038426e-02 1.34344456e-11 1.34165878e-11 1.78578102e-14 1.46340492e-288 1.50517043e-289 1.34165878e-11
1.58489319e-02 1.34402957e-11 1.34165878e-11 2.37078920e-14 7.86079883e-252 9.62904617e-253 1.34165878e-11
1.81970086e-02 1.34583662e-11 1.34165878e-11 4.17783584e-14 7.08930051e-220 7.66316379e-221 1.34165878e-11
2.08929613e-02 1.34646734e-11 1.34165878e-11 4.80856102e-14 4.35217313e-192 4.79930578e-193 1.34165878e-11
2.39883292e-02 1.34838182e-11 1.34165878e-11 6.72303601e-14 6.71571832e-168 7.61893077e-169 1.34165878e-11
2.75422870e-02 1.35018709e-11 1.34165878e-11 8.52830652e-14 7.50871343e-147 8.79068110e-148 1.34165878e-11
3.16227766e-02 1.35174944e-11 1.34165878e-11 1.00906530e-13 1.49662441e-128 1.71010964e-129 1.34165878e-11
3.63078055e-02 1.35312101e-11 1.34165878e-11 1.14622222e-13 1.21199742e-112 1.36558934e-113 1.34165878e-11
4.16869383e-02 1.35719664e-11 1.34165878e-11 1.55378571e-13 8.27263190e-99 1.02990832e-99 1.34165878e-11
4.78630092e-02 1.36167102e-11 1.34165878e-11 2.00122346e-13 8.39509942e-87 1.12280714e-87 1.34165878e-11
5.49540874e-02 1.36429280e-11 1.34165878e-11 2.26340119e-13 2.22391842e-76 3.04230048e-77 1.34165878e-11
6.30957344e-02 1.36583667e-11 1.34165878e-11 2.41778826e-13 3.18364524e-67 4.36686676e-68 1.34165878e-11
7.24435960e-02 1.36351362e-11 1.34165878e-11 2.18548312e-13 2.73719636e-59 3.44903258e-60 1.34165878e-11
8.31763771e-02 1.36287340e-11 1.34165878e-11 2.12146202e-13 1.70776443e-52 2.07543276e-53 1.34165878e-11
9.54992586e-02 1.36410527e-11 1.34165878e-11 2.24464812e-13 1.30554445e-46 1.64375828e-47 1.34165878e-11
1.09647820e-01 1.30519742e-11 1.28127470e-11 2.39227217e-13 1.52626714e-41 2.11394197e-42 1.28127470e-11
1.25892541e-01 1.21895880e-11 1.19575512e-11 2.32036846e-13 3.66265410e-37 5.23097979e-38 1.19575512e-11
1.44543977e-01 1.13726013e-11 1.11594361e-11 2.13165196e-13 2.13299398e-33 3.10409665e-34 1.11594361e-11
1.65958691e-01 1.06421452e-11 1.04145917e-11 2.27553448e-13 2.90445402e-30 4.59391026e-31 1.04145917e-11
1.90546072e-01 9.96718955e-12 9.71946251e-12 2.47727038e-13 1.06883349e-27 1.93697006e-28 9.71946251e-12
2.18776162e-01 9.29326597e-12 9.07073019e-12 2.22535776e-13 1.51065759e-25 2.79954735e-26 9.07073019e-12
2.51188643e-01 8.73348209e-12 8.46529796e-12 2.68184126e-13 1.81156560e-23 4.11314737e-24 8.46529796e-12
2.88403150e-01 8.15822254e-12 7.90027573e-12 2.57946803e-13 1.11749651e-21 2.65514736e-22 7.90027573e-12
3.31131121e-01 7.60599750e-12 7.37296631e-12 2.33031157e-13 3.83496928e-20 9.44107106e-21 7.37296631e-12
3.80189396e-01 7.10382071e-12 6.88085251e-12 2.22967406e-13 7.94537934e-19 2.00557975e-19 6.88085251e-12
4.36515832e-01 6.62348391e-12 6.42158520e-12 2.01887851e-13 1.08523979e-17 2.86636924e-18 6.42158520e-12
5.01187234e-01 6.18000683e-12 5.99297201e-12 1.86933358e-13 1.01465020e-16 2.76880509e-17 5.99297201e-12
5.75439937e-01 5.77024897e-12 5.59296690e-12 1.76593967e-13 6.88105734e-16 1.91110930e-16 5.59296690e-12
6.60693448e-01 5.38439862e-12 5.21966041e-12 1.61226751e-13 3.51145822e-15 9.77310666e-16 5.21966041e-12
7.58577575e-01 5.03622351e-12 4.87127053e-12 1.50933515e-13 1.40194655e-14 3.82411710e-15 4.87127053e-12
8.70963590e-01 4.72502541e-12 4.54613417e-12 1.33559156e-13 4.53320851e-14 1.19265488e-14 4.54613417e-12
1.00000000e+00 4.47933589e-12 4.24269927e-12 1.14476624e-13 1.22159999e-13 3.00164027e-14 4.24269927e-12
1.14815362e+00 4.34101081e-12 3.95951734e-12 9.66300245e-14 2.84863445e-13 6.37216424e-14 3.95951734e-12
1.31825674e+00 4.35238181e-12 3.69523659e-12 7.67735482e-14 5.80371673e-13 1.13545234e-13 3.69523659e-12
1.51356125e+00 4.57123104e-12 3.44859544e-12 6.05266519e-14 1.06210895e-12 1.78397269e-13 3.44859544e-12
1.73780083e+00 4.97558121e-12 3.21841652e-12 4.70929233e-14 1.71007176e-12 2.38234079e-13 3.21841652e-12
1.99526231e+00 5.51423969e-12 3.00360106e-12 3.35762969e-14 2.47706233e-12 2.73450887e-13 3.00360106e-12
2.29086765e+00 6.04796313e-12 2.80312361e-12 2.42844137e-14 3.22055511e-12 2.77613773e-13 2.80312361e-12
2.63026799e+00 6.51863072e-12 2.61602716e-12 1.70284780e-14 3.88557508e-12 2.54813490e-13 2.61602716e-12
3.01995172e+00 6.82923014e-12 2.44141860e-12 1.20685692e-14 4.37574297e-12 2.19369601e-13 2.44141860e-12
3.46736850e+00 6.94663487e-12 2.27846441e-12 8.36720801e-15 4.65980326e-12 1.77035210e-13 2.27846441e-12
3.98107171e+00 6.87039213e-12 2.12638671e-12 5.75970573e-15 4.73824572e-12 1.35670945e-13 2.12638671e-12
4.57088190e+00 6.66345813e-12 1.98445954e-12 3.92112930e-15 4.67507746e-12 9.83510567e-14 1.98445954e-12
5.24807460e+00 6.14017293e-12 1.64084388e-12 2.21017229e-15 4.49711888e-12 6.61549147e-14 1.64084388e-12
6.02559586e+00 5.33769487e-12 1.08409480e-12 9.73279166e-16 4.25262679e-12 4.20517265e-14 1.08409480e-12
6.70000000e+00 4.81071987e-12 7.88574724e-13 5.02814687e-16 4.02164234e-12 2.80751106e-14 7.88574724e-13
6.92422916e+00 4.66244122e-12 7.14418944e-13 4.06304301e-16 3.94761597e-12 2.44940338e-14 7.14418944e-13
7.15596261e+00 4.53725639e-12 6.47236606e-13 3.24595694e-16 3.88969519e-12 2.11553384e-14 6.47236606e-13
7.39545150e+00 4.48657128e-12 5.86371942e-13 2.45496330e-16 3.89995384e-12 1.79914324e-14 5.86371942e-13
7.64295536e+00 4.63948160e-12 5.31230854e-13 1.71544819e-16 4.10807920e-12 1.48829911e-14 5.31230854e-13
7.89874245e+00 5.03640288e-12 4.81275108e-13 1.04495653e-16 4.55502328e-12 1.17110499e-14 4.81275108e-13
8.16308998e+00 5.60551147e-12 4.36017088e-13 5.98573226e-17 5.16943452e-12 8.92269043e-15 4.36017088e-13
8.43628443e+00 6.33584698e-12 3.95015029e-13 3.33398568e-17 5.94079861e-12 6.56931569e-15 3.95015029e-13
8.71862190e+00 6.74912175e-12 3.57868711e-13 2.09979133e-17 6.39123204e-12 5.08597953e-15 3.57868711e-13
9.01040836e+00 7.13213279e-12 3.24215549e-13 1.39346450e-17 6.80790331e-12 3.86338129e-15 3.24215549e-13
9.31196005e+00 7.37556538e-12 2.93727053e-13 0.00000000e+00 7.08183833e-12 0.00000000e+00 2.93727053e-13
9.62360379e+00 7.24080026e-12 2.66105627e-13 0.00000000e+00 6.97469464e-12 0.00000000e+00 2.66105627e-13
9.94567731e+00 6.88192493e-12 2.41081657e-13 0.00000000e+00 6.64084327e-12 0.00000000e+00 2.41081657e-13
1.02785297e+01 6.47706582e-12 2.18410884e-13 0.00000000e+00 6.25865494e-12 0.00000000e+00 2.18410884e-13
1.06225216e+01 6.02962012e-12 1.97872020e-13 0.00000000e+00 5.83174810e-12 0.00000000e+00 1.97872020e-13
1.09780260e+01 5.57608149e-12 1.79264583e-13 0.00000000e+00 5.39681690e-12 0.00000000e+00 1.79264583e-13
1.13454280e+01 5.18104867e-12 1.62406948e-13 0.00000000e+00 5.01864172e-12 0.00000000e+00 1.62406948e-13
1.17251259e+01 4.84663778e-12 1.47134567e-13 0.00000000e+00 4.69950321e-12 0.00000000e+00 1.47134567e-13
1.21175312e+01 4.50996129e-12 1.33298366e-13 0.00000000e+00 4.37666292e-12 0.00000000e+00 1.33298366e-13
1.25230691e+01 4.18088480e-12 1.20763289e-13 0.00000000e+00 4.06012151e-12 0.00000000e+00 1.20763289e-13
1.29421791e+01 3.89190366e-12 1.09406983e-13 0.00000000e+00 3.78249668e-12 0.00000000e+00 1.09406983e-13
1.33753155e+01 3.62730255e-12 9.91185987e-14 0.00000000e+00 3.52818395e-12 0.00000000e+00 9.91185987e-14
1.38229477e+01 3.44547822e-12 8.97977103e-14 0.00000000e+00 3.35568051e-12 0.00000000e+00 8.97977103e-14
1.42855609e+01 3.33249602e-12 8.13533371e-14 0.00000000e+00 3.25114268e-12 0.00000000e+00 8.13533371e-14
1.47636563e+01 3.34558417e-12 7.37030537e-14 0.00000000e+00 3.27188112e-12 0.00000000e+00 7.37030537e-14
1.52577522e+01 3.38913856e-12 6.67721855e-14 0.00000000e+00 3.32236638e-12 0.00000000e+00 6.67721855e-14
1.57683840e+01 3.45942965e-12 6.04930805e-14 0.00000000e+00 3.39893657e-12 0.00000000e+00 6.04930805e-14
1.62961051e+01 3.52669258e-12 5.48044484e-14 0.00000000e+00 3.47188813e-12 0.00000000e+00 5.48044484e-14
1.68414875e+01 3.59251157e-12 4.96507622e-14 0.00000000e+00 3.54286081e-12 0.00000000e+00 4.96507622e-14
1.74051222e+01 3.61414829e-12 4.49817171e-14 0.00000000e+00 3.56916658e-12 0.00000000e+00 4.49817171e-14
1.79876201e+01 3.61092317e-12 4.07517384e-14 0.00000000e+00 3.57017143e-12 0.00000000e+00 4.07517384e-14
1.85896125e+01 3.57696632e-12 3.69195372e-14 0.00000000e+00 3.54004678e-12 0.00000000e+00 3.69195372e-14
1.92117518e+01 3.48839746e-12 3.34477076e-14 0.00000000e+00 3.45494975e-12 0.00000000e+00 3.34477076e-14
1.98547123e+01 3.38239855e-12 3.03023610e-14 0.00000000e+00 3.35209619e-12 0.00000000e+00 3.03023610e-14
2.05191907e+01 3.26184817e-12 2.74527957e-14 0.00000000e+00 3.23439538e-12 0.00000000e+00 2.74527957e-14
2.12059073e+01 3.14066793e-12 2.48711970e-14 0.00000000e+00 3.11579673e-12 0.00000000e+00 2.48711970e-14
2.19156062e+01 3.03359538e-12 2.25323660e-14 0.00000000e+00 3.01106301e-12 0.00000000e+00 2.25323660e-14
2.26490567e+01 2.92027633e-12 2.04134733e-14 0.00000000e+00 2.89986286e-12 0.00000000e+00 2.04134733e-14
2.34070535e+01 2.81318290e-12 1.84938366e-14 0.00000000e+00 2.79468906e-12 0.00000000e+00 1.84938366e-14
2.41904183e+01 2.71305635e-12 1.67547181e-14 0.00000000e+00 2.69630163e-12 0.00000000e+00 1.67547181e-14
2.50000000e+01 2.60980391e-12 1.51791424e-14 0.00000000e+00 2.59462477e-12 0.00000000e+00 1.51791424e-14
2.75422870e+01 2.31306684e-12 1.13518661e-14 0.00000000e+00 2.30171497e-12 0.00000000e+00 1.13518661e-14
3.16227766e+01 1.88990126e-12 7.50010357e-15 0.00000000e+00 1.88240116e-12 0.00000000e+00 7.50010357e-15
3.63078055e+01 1.46747448e-12 4.95526929e-15 0.00000000e+00 1.46251921e-12 0.00000000e+00 4.95526929e-15
4.16869383e+01 1.06825528e-12 3.27391395e-15 0.00000000e+00 1.06498136e-12 0.00000000e+00 3.27391395e-15
4.78630092e+01 7.27162591e-13 2.16305350e-15 0.00000000e+00 7.24999538e-13 0.00000000e+00 2.16305350e-15
5.49540874e+01 4.68602049e-13 1.42911527e-15 0.00000000e+00 4.67172933e-13 0.00000000e+00 1.42911527e-15
6.30957344e+01 2.88696117e-13 9.44207098e-16 0.00000000e+00 2.87751910e-13 0.00000000e+00 9.44207098e-16
7.24435960e+01 1.71727734e-13 6.23831443e-16 0.00000000e+00 1.71103903e-13 0.00000000e+00 6.23831443e-16
8.31763771e+01 9.94431766e-14 4.12161347e-16 0.00000000e+00 9.90310152e-14 0.00000000e+00 4.12161347e-16
9.54992586e+01 5.64991979e-14 2.72312302e-16 0.00000000e+00 5.62268856e-14 0.00000000e+00 2.72312302e-16
1.09647820e+02 3.16039987e-14 1.79914953e-16 0.00000000e+00 3.14240837e-14 0.00000000e+00 1.79914953e-16
1.25892541e+02 1.76690440e-14 1.18868631e-16 0.00000000e+00 1.75501754e-14 0.00000000e+00 1.18868631e-16
1.44543977e+02 9.81687452e-15 7.85357256e-17 0.00000000e+00 9.73833880e-15 0.00000000e+00 7.85357256e-17
1.65958691e+02 5.19412412e-15 5.18880394e-17 0.00000000e+00 5.14223608e-15 0.00000000e+00 5.18880394e-17
1.90546072e+02 2.74965934e-15 3.42820876e-17 0.00000000e+00 2.71537726e-15 0.00000000e+00 3.42820876e-17
2.18776162e+02 1.45273364e-15 2.26499507e-17 0.00000000e+00 1.43008369e-15 0.00000000e+00 2.26499507e-17
2.51188643e+02 7.64883195e-16 1.49646740e-17 0.00000000e+00 7.49918521e-16 0.00000000e+00 1.49646740e-17
2.88403150e+02 4.00940657e-16 9.88706207e-18 0.00000000e+00 3.91053595e-16 0.00000000e+00 9.88706207e-18
3.31131121e+02 2.09727547e-16 6.53231713e-18 0.00000000e+00 2.03195230e-16 0.00000000e+00 6.53231713e-18
3.80189396e+02 1.09412184e-16 4.31585913e-18 0.00000000e+00 1.05096324e-16 0.00000000e+00 4.31585913e-18
4.36515832e+02 5.70381137e-17 2.85145985e-18 0.00000000e+00 5.41866539e-17 0.00000000e+00 2.85145985e-18
5.01187234e+02 2.97283260e-17 1.88394084e-18 0.00000000e+00 2.78443852e-17 0.00000000e+00 1.88394084e-18
5.75439937e+02 1.55130018e-17 1.24470737e-18 0.00000000e+00 1.42682944e-17 0.00000000e+00 1.24470737e-18
6.60693448e+02 8.11621261e-18 8.22370004e-19 0.00000000e+00 7.29384261e-18 0.00000000e+00 8.22370004e-19
7.58577575e+02 4.26398191e-18 5.43334473e-19 0.00000000e+00 3.72064744e-18 0.00000000e+00 5.43334473e-19
8.70963590e+02 2.25293522e-18 3.58977527e-19 0.00000000e+00 1.89395769e-18 0.00000000e+00 3.58977527e-19
1.00000000e+03 9.62226255e-19 0.00000000e+00 0.00000000e+00 9.62226255e-19 0.00000000e+00 0.00000000e+00
