# column 1: lambda (micron)
# column 2: total flux; lambda*F_lambda (W/m2)
# column 3: direct stellar flux; lambda*F_lambda (W/m2)
# column 4: scattered stellar flux; lambda*F_lambda (W/m2)
# column 5: total dust emission flux; lambda*F_lambda (W/m2)
# column 6: dust emission scattered flux; lambda*F_lambda (W/m2)
# column 7: transparent flux; lambda*F_lambda (W/m2)
1.00000000e-03 8.46459419e-13 8.46458623e-13 7.95541512e-19 0.00000000e+00 0.00000000e+00 8.46529401e-13
1.14815362e-03 9.99067025e-13 9.99065752e-13 1.27354518e-18 0.00000000e+00 0.00000000e+00 9.99176121e-13
1.31825674e-03 1.17918456e-12 1.17918257e-12 1.99401076e-18 0.00000000e+00 0.00000000e+00 1.17934819e-12
1.51356125e-03 1.39178166e-12 1.39177853e-12 3.12191758e-18 0.00000000e+00 0.00000000e+00 1.39200901e-12
1.73780083e-03 1.64274763e-12 1.64274211e-12 5.52171940e-18 0.00000000e+00 0.00000000e+00 1.64301696e-12
1.99526231e-03 1.93886729e-12 1.93885673e-12 1.05661431e-17 0.00000000e+00 0.00000000e+00 1.93928682e-12
2.29086765e-03 2.28845816e-12 2.28844193e-12 1.62244764e-17 0.00000000e+00 0.00000000e+00 2.28898025e-12
2.63026799e-03 2.70100270e-12 2.70096922e-12 3.34815988e-17 0.00000000e+00 0.00000000e+00 2.70173063e-12
3.01995172e-03 3.18785463e-12 3.18779694e-12 5.76901754e-17 0.00000000e+00 0.00000000e+00 3.18890841e-12
3.46736850e-03 3.76248399e-12 3.76238817e-12 9.58231801e-17 0.00000000e+00 0.00000000e+00 3.76393440e-12
3.98107171e-03 4.44072174e-12 4.44056044e-12 1.61296700e-16 0.00000000e+00 0.00000000e+00 4.44264945e-12
4.57088190e-03 5.24244845e-12 5.24210596e-12 3.42489919e-16 0.00000000e+00 0.00000000e+00 5.24375082e-12
5.24807460e-03 6.18745824e-12 6.18682769e-12 6.30545283e-16 0.00000000e+00 0.00000000e+00 6.18930730e-12
6.02559586e-03 7.30318593e-12 7.30183837e-12 1.34755976e-15 0.00000000e+00 0.00000000e+00 7.30536713e-12
6.91830971e-03 8.61980486e-12 8.61786871e-12 1.93614952e-15 0.00000000e+00 0.00000000e+00 8.62267558e-12
7.94328235e-03 1.01800209e-11 1.01711923e-11 8.82862487e-15 9.02017214e-304 1.09819110e-306 1.01775219e-11
9.12010839e-03 1.20100177e-11 1.20044488e-11 5.56883265e-15 3.90198430e-265 7.70107717e-268 1.20127391e-11
1.04712855e-02 1.34135676e-11 1.34067376e-11 6.83002009e-15 1.62909626e-231 3.43123467e-234 1.34165878e-11
1.20226443e-02 1.34181067e-11 1.34061565e-11 1.19502097e-14 2.52648635e-202 8.46925950e-205 1.34165878e-11
1.38038426e-02 1.34229229e-11 1.34054673e-11 1.74555812e-14 6.82491709e-177 3.20850550e-179 1.34165878e-11
1.58489319e-02 1.34252495e-11 1.34046203e-11 2.06291447e-14 9.16748344e-155 5.96835399e-157 1.34165878e-11
1.81970086e-02 1.34341778e-11 1.34038392e-11 3.03386131e-14 1.62608886e-135 1.42378799e-137 1.34165878e-11
2.08929613e-02 1.34422267e-11 1.34031899e-11 3.90367609e-14 8.46211421e-119 1.04874856e-120 1.34165878e-11
2.39883292e-02 1.34563581e-11 1.34023488e-11 5.40093643e-14 2.96239520e-104 5.06321857e-106 1.34165878e-11
2.75422870e-02 1.34729241e-11 1.34013704e-11 7.15536578e-14 1.32325953e-91 2.85872483e-93 1.34165878e-11
3.16227766e-02 1.34882657e-11 1.34004115e-11 8.78541800e-14 1.28933017e-80 3.48611492e-82 1.34165878e-11
3.63078055e-02 1.35008703e-11 1.33996594e-11 1.01210912e-13 4.46679134e-71 1.40129820e-72 1.34165878e-11
4.16869383e-02 1.35343190e-11 1.33990089e-11 1.35310081e-13 8.53643978e-63 3.72869297e-64 1.34165878e-11
4.78630092e-02 1.35799706e-11 1.33972161e-11 1.82754454e-13 1.29730785e-55 7.41589153e-57 1.34165878e-11
5.49540874e-02 1.36093715e-11 1.33947232e-11 2.14648293e-13 2.16856686e-49 1.50717862e-50 1.34165878e-11
6.30957344e-02 1.36316679e-11 1.33884744e-11 2.43193496e-13 7.06273364e-44 5.86211058e-45 1.34165878e-11
7.24435960e-02 1.36165579e-11 1.33810764e-11 2.35481542e-13 4.08189133e-39 3.26069934e-40 1.34165878e-11
8.31763771e-02 1.36115123e-11 1.33817345e-11 2.29777760e-13 4.16801712e-35 3.27761979e-36 1.34165878e-11
9.54992586e-02 1.36198829e-11 1.33836650e-11 2.36217905e-13 1.17399374e-31 9.59574441e-33 1.34165878e-11
1.09647820e-01 1.30313077e-11 1.27866219e-11 2.44685795e-13 9.97108695e-29 8.84482254e-30 1.28127470e-11
1.25892541e-01 1.21587839e-11 1.19374780e-11 2.21305947e-13 3.21284238e-26 2.73586491e-27 1.19575512e-11
1.44543977e-01 1.13565201e-11 1.11439066e-11 2.12613506e-13 4.35956740e-24 3.60491311e-25 1.11594361e-11
1.65958691e-01 1.06152331e-11 1.04019158e-11 2.13317251e-13 2.21387682e-22 2.03049964e-23 1.04145917e-11
1.90546072e-01 9.94741424e-12 9.70684236e-12 2.40571870e-13 4.70308912e-21 5.16468061e-22 9.71946251e-12
2.18776162e-01 9.28898658e-12 9.05691602e-12 2.32070499e-13 5.59904294e-20 6.57752021e-21 9.07073019e-12
2.51188643e-01 8.71764557e-12 8.45498604e-12 2.62658843e-13 6.86066829e-19 9.78070261e-20 8.46529796e-12
2.88403150e-01 8.14168459e-12 7.89228497e-12 2.49393929e-13 5.68728853e-18 7.92012644e-19 7.90027573e-12
3.31131121e-01 7.58709862e-12 7.36646509e-12 2.20601073e-13 3.24491370e-17 4.35309677e-18 7.37296631e-12
3.80189396e-01 7.07884155e-12 6.87552423e-12 2.03182085e-13 1.35244096e-16 1.78495841e-17 6.88085251e-12
4.36515832e-01 6.60500372e-12 6.41725722e-12 1.87314752e-13 4.31750763e-16 5.68068799e-17 6.42158520e-12
5.01187234e-01 6.15902256e-12 5.98950411e-12 1.68398680e-13 1.11977459e-15 1.53531951e-16 5.99297201e-12
5.75439937e-01 5.74785479e-12 5.59021682e-12 1.55039468e-13 2.59850395e-15 4.07131194e-16 5.59296690e-12
6.60693448e-01 5.36652418e-12 5.21749843e-12 1.43059739e-13 5.96601358e-15 1.13702889e-15 5.21966041e-12
7.58577575e-01 5.01199984e-12 4.86959154e-12 1.27924700e-13 1.44835968e-14 3.22244681e-15 4.87127053e-12
8.70963590e-01 4.69132459e-12 4.54485916e-12 1.10992715e-13 3.54727156e-14 8.36781242e-15 4.54613417e-12
1.00000000e+00 4.42074494e-12 4.24174667e-12 9.64770939e-14 8.25211799e-14 1.89849220e-14 4.24269927e-12
1.14815362e+00 4.21395836e-12 3.95881827e-12 7.72099342e-14 1.77930158e-13 3.73195075e-14 3.95951734e-12
1.31825674e+00 4.10618840e-12 3.69473249e-12 6.07683372e-14 3.50687572e-13 6.36416696e-14 3.69523659e-12
1.51356125e+00 4.12383456e-12 3.44823560e-12 4.84832452e-14 6.27115711e-13 9.62761216e-14 3.44859544e-12
1.73780083e+00 4.25991866e-12 3.21816384e-12 3.61840740e-14 1.00557075e-12 1.25371966e-13 3.21841652e-12
1.99526231e+00 4.47835232e-12 3.00342641e-12 2.53204866e-14 1.44960542e-12 1.40207708e-13 3.00360106e-12
2.29086765e+00 4.72585058e-12 2.80300327e-12 1.85579996e-14 1.90428931e-12 1.39375396e-13 2.80312361e-12
2.63026799e+00 4.93974325e-12 2.61594346e-12 1.25514742e-14 2.31124831e-12 1.25406168e-13 2.61602716e-12
3.01995172e+00 5.07003325e-12 2.44135964e-12 8.95011556e-15 2.61972349e-12 1.04197982e-13 2.44141860e-12
3.46736850e+00 5.09926951e-12 2.27842220e-12 5.98226347e-15 2.81486505e-12 8.33154790e-14 2.27846441e-12
3.98107171e+00 5.02653630e-12 2.12635610e-12 4.11963825e-15 2.89606056e-12 6.35403395e-14 2.12638671e-12
4.57088190e+00 4.85579470e-12 1.98443704e-12 2.76151386e-15 2.86859614e-12 4.59461227e-14 1.98445954e-12
5.24807460e+00 4.42675162e-12 1.64082893e-12 1.65337000e-15 2.78426932e-12 3.14077182e-14 1.64084388e-12
6.02559586e+00 3.74768079e-12 1.08408659e-12 7.44088863e-16 2.66285011e-12 2.07779671e-14 1.08409480e-12
6.70000000e+00 3.34214567e-12 7.88569442e-13 3.91547134e-16 2.55318468e-12 1.44624662e-14 7.88574724e-13
6.92422916e+00 3.22992464e-12 7.14414326e-13 3.18387903e-16 2.51519193e-12 1.28402738e-14 7.14418944e-13
7.15596261e+00 3.14298746e-12 6.47232495e-13 2.55587750e-16 2.49549938e-12 1.12184781e-14 6.47236606e-13
7.39545150e+00 3.10293770e-12 5.86368129e-13 1.92315425e-16 2.51637726e-12 9.61269828e-15 5.86371942e-13
7.64295536e+00 3.17089501e-12 5.31226918e-13 1.29682662e-16 2.63953841e-12 7.76074901e-15 5.31230854e-13
7.89874245e+00 3.44198023e-12 4.81270501e-13 7.68059015e-17 2.96063292e-12 5.85083693e-15 4.81275108e-13
8.16308998e+00 3.82837291e-12 4.36011452e-13 4.36130429e-17 3.39231785e-12 4.35192281e-15 4.36017088e-13
8.43628443e+00 4.40111469e-12 3.95007936e-13 2.39478850e-17 4.00608281e-12 3.16174598e-15 3.95015029e-13
8.71862190e+00 4.77883222e-12 3.57860815e-13 1.57011889e-17 4.42095571e-12 2.49172618e-15 3.57868711e-13
9.01040836e+00 5.22275598e-12 3.24206882e-13 1.02332926e-17 4.89853886e-12 1.97955770e-15 3.24215549e-13
9.31196005e+00 5.55753442e-12 2.93717947e-13 0.00000000e+00 5.26381647e-12 0.00000000e+00 2.93727053e-13
9.62360379e+00 5.48482765e-12 2.66097160e-13 0.00000000e+00 5.21873049e-12 0.00000000e+00 2.66105627e-13
9.94567731e+00 5.16735612e-12 2.41074459e-13 0.00000000e+00 4.92628167e-12 0.00000000e+00 2.41081657e-13
1.02785297e+01 4.83984760e-12 2.18404985e-13 0.00000000e+00 4.62144261e-12 0.00000000e+00 2.18410884e-13
1.06225216e+01 4.47991378e-12 1.97867237e-13 0.00000000e+00 4.28204654e-12 0.00000000e+00 1.97872020e-13
1.09780260e+01 4.05610654e-12 1.79260845e-13 0.00000000e+00 3.87684569e-12 0.00000000e+00 1.79264583e-13
1.13454280e+01 3.73428101e-12 1.62404015e-13 0.00000000e+00 3.57187699e-12 0.00000000e+00 1.62406948e-13
1.17251259e+01 3.47368302e-12 1.47132250e-13 0.00000000e+00 3.32655077e-12 0.00000000e+00 1.47134567e-13
1.21175312e+01 3.21751564e-12 1.33296546e-13 0.00000000e+00 3.08421910e-12 0.00000000e+00 1.33298366e-13
1.25230691e+01 3.03114404e-12 1.20761863e-13 0.00000000e+00 2.91038217e-12 0.00000000e+00 1.20763289e-13
1.29421791e+01 2.85151775e-12 1.09405858e-13 0.00000000e+00 2.74211189e-12 0.00000000e+00 1.09406983e-13
1.33753155e+01 2.70966453e-12 9.91177044e-14 0.00000000e+00 2.61054683e-12 0.00000000e+00 9.91185987e-14
1.38229477e+01 2.63267182e-12 8.97969669e-14 0.00000000e+00 2.54287485e-12 0.00000000e+00 8.97977103e-14
1.42855609e+01 2.59444929e-12 8.13526910e-14 0.00000000e+00 2.51309660e-12 0.00000000e+00 8.13533371e-14
1.47636563e+01 2.64627787e-12 7.37024405e-14 0.00000000e+00 2.57257543e-12 0.00000000e+00 7.37030537e-14
1.52577522e+01 2.72476681e-12 6.67715931e-14 0.00000000e+00 2.65799522e-12 0.00000000e+00 6.67721855e-14
1.57683840e+01 2.79894496e-12 6.04925007e-14 0.00000000e+00 2.73845246e-12 0.00000000e+00 6.04930805e-14
1.62961051e+01 2.90096177e-12 5.48038816e-14 0.00000000e+00 2.84615789e-12 0.00000000e+00 5.48044484e-14
1.68414875e+01 2.97658247e-12 4.96502095e-14 0.00000000e+00 2.92693226e-12 0.00000000e+00 4.96507622e-14
1.74051222e+01 3.04989544e-12 4.49811922e-14 0.00000000e+00 3.00491425e-12 0.00000000e+00 4.49817171e-14
1.79876201e+01 3.09905547e-12 4.07512483e-14 0.00000000e+00 3.05830422e-12 0.00000000e+00 4.07517384e-14
1.85896125e+01 3.13956596e-12 3.69190938e-14 0.00000000e+00 3.10264687e-12 0.00000000e+00 3.69195372e-14
1.92117518e+01 3.13102923e-12 3.34473181e-14 0.00000000e+00 3.09758191e-12 0.00000000e+00 3.34477076e-14
1.98547123e+01 3.09828080e-12 3.03020256e-14 0.00000000e+00 3.06797877e-12 0.00000000e+00 3.03023610e-14
2.05191907e+01 3.07743061e-12 2.74525097e-14 0.00000000e+00 3.04997810e-12 0.00000000e+00 2.74527957e-14
2.12059073e+01 3.04637271e-12 2.48709532e-14 0.00000000e+00 3.02150175e-12 0.00000000e+00 2.48711970e-14
2.19156062e+01 3.02159181e-12 2.25321572e-14 0.00000000e+00 2.99905966e-12 0.00000000e+00 2.25323660e-14
2.26490567e+01 3.00080410e-12 2.04132942e-14 0.00000000e+00 2.98039080e-12 0.00000000e+00 2.04134733e-14
2.34070535e+01 2.96148052e-12 1.84936826e-14 0.00000000e+00 2.94298684e-12 0.00000000e+00 1.84938366e-14
2.41904183e+01 2.93784585e-12 1.67545854e-14 0.00000000e+00 2.92109126e-12 0.00000000e+00 1.67547181e-14
2.50000000e+01 2.91088277e-12 1.51790278e-14 0.00000000e+00 2.89570374e-12 0.00000000e+00 1.51791424e-14
2.75422870e+01 2.79003505e-12 1.13517914e-14 0.00000000e+00 2.77868326e-12 0.00000000e+00 1.13518661e-14
3.16227766e+01 2.52885137e-12 7.50006252e-15 0.00000000e+00 2.52135130e-12 0.00000000e+00 7.50010357e-15
3.63078055e+01 2.16849263e-12 4.95524685e-15 0.00000000e+00 2.16353739e-12 0.00000000e+00 4.95526929e-15
4.16869383e+01 1.72875560e-12 3.27390202e-15 0.00000000e+00 1.72548170e-12 0.00000000e+00 3.27391395e-15
4.78630092e+01 1.29188757e-12 2.16304734e-15 0.00000000e+00 1.28972452e-12 0.00000000e+00 2.16305350e-15
5.49540874e+01 9.00751523e-13 1.42911217e-15 0.00000000e+00 8.99322411e-13 0.00000000e+00 1.42911527e-15
6.30957344e+01 5.95897061e-13 9.44205551e-16 0.00000000e+00 5.94952856e-13 0.00000000e+00 9.44207098e-16
7.24435960e+01 3.75003188e-13 6.23830678e-16 0.00000000e+00 3.74379357e-13 0.00000000e+00 6.23831443e-16
8.31763771e+01 2.26668155e-13 4.12160969e-16 0.00000000e+00 2.26255994e-13 0.00000000e+00 4.12161347e-16
9.54992586e+01 1.33120186e-13 2.72312115e-16 0.00000000e+00 1.32847874e-13 0.00000000e+00 2.72312302e-16
1.09647820e+02 7.62798793e-14 1.79914861e-16 0.00000000e+00 7.60999644e-14 0.00000000e+00 1.79914953e-16
1.25892541e+02 4.33761604e-14 1.18868584e-16 0.00000000e+00 4.32572918e-14 0.00000000e+00 1.18868631e-16
1.44543977e+02 2.43839141e-14 7.85357019e-17 0.00000000e+00 2.43053784e-14 0.00000000e+00 7.85357256e-17
1.65958691e+02 1.30332207e-14 5.18880277e-17 0.00000000e+00 1.29813327e-14 0.00000000e+00 5.18880394e-17
1.90546072e+02 6.94152901e-15 3.42820819e-17 0.00000000e+00 6.90724693e-15 0.00000000e+00 3.42820876e-17
2.18776162e+02 3.67995553e-15 2.26499478e-17 0.00000000e+00 3.65730558e-15 0.00000000e+00 2.26499507e-17
2.51188643e+02 1.93954560e-15 1.49646726e-17 0.00000000e+00 1.92458093e-15 0.00000000e+00 1.49646740e-17
2.88403150e+02 1.01590781e-15 9.88706136e-18 0.00000000e+00 1.00602075e-15 0.00000000e+00 9.88706207e-18
3.31131121e+02 5.30176972e-16 6.53231677e-18 0.00000000e+00 5.23644655e-16 0.00000000e+00 6.53231713e-18
3.80189396e+02 2.75457526e-16 4.31585895e-18 0.00000000e+00 2.71141667e-16 0.00000000e+00 4.31585913e-18
4.36515832e+02 1.42742711e-16 2.85145976e-18 0.00000000e+00 1.39891251e-16 0.00000000e+00 2.85145985e-18
5.01187234e+02 7.37951827e-17 1.88394079e-18 0.00000000e+00 7.19112419e-17 0.00000000e+00 1.88394084e-18
5.75439937e+02 3.80996177e-17 1.24470735e-18 0.00000000e+00 3.68549104e-17 0.00000000e+00 1.24470737e-18
6.60693448e+02 1.96634901e-17 8.22369992e-19 0.00000000e+00 1.88411201e-17 0.00000000e+00 8.22370004e-19
7.58577575e+02 1.01536755e-17 5.43334467e-19 0.00000000e+00 9.61034106e-18 0.00000000e+00 5.43334473e-19
8.70963590e+02 5.25044845e-18 3.58977524e-19 0.00000000e+00 4.89147092e-18 0.00000000e+00 3.58977527e-19
1.00000000e+03 2.48471549e-18 0.00000000e+00 0.00000000e+00 2.48471549e-18 0.00000000e+00 0.00000000e+00
