# column 1: lambda (micron)
# column 2: total flux; lambda*F_lambda (W/m2)
# column 3: direct stellar flux; lambda*F_lambda (W/m2)
# column 4: scattered stellar flux; lambda*F_lambda (W/m2)
# column 5: total dust emission flux; lambda*F_lambda (W/m2)
# column 6: dust emission scattered flux; lambda*F_lambda (W/m2)
# column 7: transparent flux; lambda*F_lambda (W/m2)
1.00000000e-03 5.25524902e-13 5.25524776e-13 1.25716353e-19 0.00000000e+00 0.00000000e+00 5.25636674e-13
1.14815362e-03 6.20245531e-13 6.20245327e-13 2.04325672e-19 0.00000000e+00 0.00000000e+00 6.20419813e-13
1.31825674e-03 7.32032807e-13 7.32032471e-13 3.36162345e-19 0.00000000e+00 0.00000000e+00 7.32294308e-13
1.51356125e-03 8.63978220e-13 8.63977732e-13 4.88112077e-19 0.00000000e+00 0.00000000e+00 8.64342083e-13
1.73780083e-03 1.01976715e-12 1.01976630e-12 8.44532473e-19 0.00000000e+00 0.00000000e+00 1.02020080e-12
1.99526231e-03 1.20348558e-12 1.20348416e-12 1.42019581e-18 0.00000000e+00 0.00000000e+00 1.20416405e-12
2.29086765e-03 1.42045103e-12 1.42044871e-12 2.31691770e-18 0.00000000e+00 0.00000000e+00 1.42129968e-12
2.63026799e-03 1.67639033e-12 1.67638576e-12 4.56517314e-18 0.00000000e+00 0.00000000e+00 1.67758934e-12
3.01995172e-03 1.97834497e-12 1.97833648e-12 8.49159188e-18 0.00000000e+00 0.00000000e+00 1.98009332e-12
3.46736850e-03 2.33471302e-12 2.33470107e-12 1.19440277e-17 0.00000000e+00 0.00000000e+00 2.33714500e-12
3.98107171e-03 2.75529944e-12 2.75527881e-12 2.06283646e-17 0.00000000e+00 0.00000000e+00 2.75858048e-12
4.57088190e-03 3.25345865e-12 3.25340945e-12 4.92077717e-17 0.00000000e+00 0.00000000e+00 3.25600946e-12
5.24807460e-03 3.83930220e-12 3.83921594e-12 8.62657884e-17 0.00000000e+00 0.00000000e+00 3.84313516e-12
6.02559586e-03 4.53070608e-12 4.53055460e-12 1.51479450e-16 0.00000000e+00 0.00000000e+00 4.53613173e-12
6.91830971e-03 5.34674248e-12 5.34649318e-12 2.49295433e-16 0.00000000e+00 0.00000000e+00 5.35408989e-12
7.94328235e-03 6.30996432e-12 6.30953996e-12 4.24353921e-16 1.33394529e-303 9.01635501e-306 6.31954278e-12
9.12010839e-03 7.44673937e-12 7.44598621e-12 7.53160563e-16 5.86945485e-265 1.03648784e-266 7.45908676e-12
1.04712855e-02 8.31626122e-12 8.31521545e-12 1.04576762e-15 2.44637408e-231 2.50202174e-233 8.33078048e-12
1.20226443e-02 8.32038472e-12 8.31429774e-12 6.08697369e-15 3.80086860e-202 3.07950592e-204 8.33078048e-12
1.38038426e-02 8.31989075e-12 8.31320937e-12 6.68138149e-15 1.03774825e-176 1.61301774e-178 8.33078048e-12
1.58489319e-02 8.31989177e-12 8.31187204e-12 8.01972886e-15 1.39658735e-154 2.26446828e-156 8.33078048e-12
1.81970086e-02 8.32026595e-12 8.31063878e-12 9.62716997e-15 2.47947468e-135 4.01067954e-137 8.33078048e-12
2.08929613e-02 8.32140414e-12 8.30961382e-12 1.17903226e-14 1.28998080e-118 2.22544781e-120 8.33078048e-12
2.39883292e-02 8.32015243e-12 8.30828600e-12 1.18664308e-14 4.52452698e-104 9.98955565e-106 8.33078048e-12
2.75422870e-02 8.32263729e-12 8.30674179e-12 1.58955088e-14 2.01357206e-91 4.35401282e-93 8.33078048e-12
3.16227766e-02 8.32251442e-12 8.30522840e-12 1.72860267e-14 1.96300020e-80 5.24403126e-82 8.33078048e-12
3.63078055e-02 8.32293381e-12 8.30404156e-12 1.88922459e-14 6.78409103e-71 1.88079878e-72 8.33078048e-12
4.16869383e-02 8.32773125e-12 8.30301518e-12 2.47160726e-14 1.28943195e-62 4.36374668e-64 8.33078048e-12
4.78630092e-02 8.33036738e-12 8.30018663e-12 3.01807596e-14 1.94355506e-55 8.00374894e-57 8.33078048e-12
5.49540874e-02 8.33121900e-12 8.29625459e-12 3.49644089e-14 3.22160841e-49 1.52179594e-50 8.33078048e-12
6.30957344e-02 8.32671233e-12 8.28640320e-12 4.03091285e-14 1.03416719e-43 5.64628631e-45 8.33078048e-12
7.24435960e-02 8.31555119e-12 8.27474924e-12 4.08019464e-14 5.94264585e-39 3.20459744e-40 8.33078048e-12
8.31763771e-02 8.31576025e-12 8.27578561e-12 3.99746437e-14 6.07724808e-35 3.18072089e-36 8.33078048e-12
9.54992586e-02 8.31867626e-12 8.27882596e-12 3.98502995e-14 1.71484845e-31 9.19574467e-33 8.33078048e-12
1.09647820e-01 7.95512451e-12 7.91459627e-12 4.05282400e-14 1.46181745e-28 8.30725593e-30 7.95583672e-12
1.25892541e-01 7.42948662e-12 7.39312290e-12 3.63637240e-14 4.74212628e-26 2.51559403e-27 7.42481883e-12
1.44543977e-01 6.93466049e-12 6.90471736e-12 2.99431279e-14 6.46568529e-24 3.22255972e-25 6.92924411e-12
1.65958691e-01 6.47694865e-12 6.44672424e-12 3.02244079e-14 3.27920304e-22 1.78919840e-23 6.46674687e-12
1.90546072e-01 6.04917535e-12 6.01518602e-12 3.39893172e-14 6.87783126e-21 4.30539779e-22 6.03511933e-12
2.18776162e-01 5.64282464e-12 5.61048562e-12 3.23389424e-14 8.12251387e-20 5.42747620e-21 5.63230107e-12
2.51188643e-01 5.27724980e-12 5.24008068e-12 3.71681296e-14 9.83703077e-19 7.57767559e-20 5.25636919e-12
2.88403150e-01 4.92617842e-12 4.89290509e-12 3.32651218e-14 8.20400375e-18 6.16504638e-19 4.90552916e-12
3.31131121e-01 4.59482594e-12 4.56783433e-12 2.69445732e-14 4.70406985e-17 3.38037460e-18 4.57810618e-12
3.80189396e-01 4.28957164e-12 4.26411794e-12 2.52577115e-14 1.95994866e-16 1.35402720e-17 4.27253728e-12
4.36515832e-01 4.00240874e-12 3.98052452e-12 2.12638228e-14 6.20402635e-16 4.18606167e-17 3.98736380e-12
5.01187234e-01 3.73618938e-12 3.71574387e-12 1.88978009e-14 1.54771161e-15 1.02450945e-16 3.72122441e-12
5.75439937e-01 3.49057565e-12 3.46850226e-12 1.88959315e-14 3.17745107e-15 2.06270165e-16 3.47284869e-12
6.60693448e-01 3.26005214e-12 3.23763382e-12 1.68682077e-14 5.55011206e-15 3.52537252e-16 3.24105097e-12
7.58577575e-01 3.04588172e-12 3.02207086e-12 1.52057190e-14 8.60513334e-15 5.34065533e-16 3.02472476e-12
8.70963590e-01 2.84603400e-12 2.82082194e-12 1.30696952e-14 1.21423683e-14 7.32766686e-16 2.82283739e-12
1.00000000e+00 2.66072585e-12 2.63291927e-12 1.18741591e-14 1.59324166e-14 9.03768823e-16 2.63442513e-12
1.14815362e+00 2.48777102e-12 2.45748346e-12 9.59141613e-15 2.06961406e-14 1.15673472e-15 2.45858859e-12
1.31825674e+00 2.32937727e-12 2.29369144e-12 7.84854958e-15 2.78372763e-14 1.52717211e-15 2.29448837e-12
1.51356125e+00 2.18699417e-12 2.14077226e-12 6.42849372e-15 3.97934085e-14 2.16070336e-15 2.14134114e-12
1.73780083e+00 2.06241520e-12 1.99801635e-12 5.14298002e-15 5.92558732e-14 3.05820232e-15 1.99841583e-12
1.99526231e+00 1.95652125e-12 1.86475405e-12 3.84294841e-15 8.79242520e-14 4.01208586e-15 1.86503017e-12
2.29086765e+00 1.86775906e-12 1.74035716e-12 2.64525801e-15 1.24756640e-13 4.60548146e-15 1.74054743e-12
2.63026799e+00 1.79156111e-12 1.62424104e-12 1.86008707e-15 1.65459986e-13 4.59556489e-15 1.62437337e-12
3.01995172e+00 1.72085525e-12 1.51586021e-12 1.21158172e-15 2.03783450e-13 4.06440992e-15 1.51595343e-12
3.46736850e+00 1.64911281e-12 1.41470332e-12 7.60300025e-16 2.33649190e-13 3.25386845e-15 1.41477006e-12
3.98107171e+00 1.57043415e-12 1.32029185e-12 4.73221593e-16 2.49669078e-13 2.29519144e-15 1.32034025e-12
4.57088190e+00 1.48407188e-12 1.23217764e-12 2.97793034e-16 2.51596443e-13 1.51707355e-15 1.23221321e-12
5.24807460e+00 1.26035199e-12 1.01882784e-12 1.53375902e-16 2.41370782e-13 9.11559554e-16 1.01885146e-12
6.02559586e+00 8.97452298e-13 6.73135514e-13 6.21500732e-17 2.24254634e-13 5.15607117e-16 6.73148485e-13
6.70000000e+00 6.97670341e-13 4.89642444e-13 2.88119075e-17 2.07999085e-13 3.12918926e-16 4.89650796e-13
6.92422916e+00 6.46236376e-13 4.43597844e-13 2.38695769e-17 2.02614663e-13 2.61003981e-16 4.43605145e-13
7.15596261e+00 6.00938430e-13 4.01883023e-13 1.82160292e-17 1.99037191e-13 2.21645563e-16 4.01889522e-13
7.39545150e+00 5.64519221e-13 3.64090714e-13 1.39643186e-17 2.00414543e-13 1.87716810e-16 3.64096743e-13
7.64295536e+00 5.46047325e-13 3.29851687e-13 1.04373980e-17 2.16185200e-13 1.61477317e-16 3.29857910e-13
7.89874245e+00 5.53770933e-13 2.98831536e-13 7.40684504e-18 2.54931991e-13 1.40972104e-16 2.98838820e-13
8.16308998e+00 5.83058458e-13 2.70727784e-13 4.48927301e-18 3.12326185e-13 1.23734425e-16 2.70736695e-13
8.43628443e+00 6.40405389e-13 2.45266014e-13 2.76154485e-18 3.95136613e-13 1.02177333e-16 2.45277229e-13
8.71862190e+00 6.77812453e-13 2.22199430e-13 1.79809642e-18 4.55611225e-13 7.79505685e-17 2.22211915e-13
9.01040836e+00 7.22022565e-13 2.01301908e-13 9.15469146e-19 5.20719742e-13 5.24897314e-17 2.01315610e-13
9.31196005e+00 7.56247780e-13 1.82369949e-13 0.00000000e+00 5.73877831e-13 0.00000000e+00 1.82384346e-13
9.62360379e+00 7.39751933e-13 1.65219949e-13 0.00000000e+00 5.74531985e-13 0.00000000e+00 1.65233336e-13
9.94567731e+00 6.87167865e-13 1.49683787e-13 0.00000000e+00 5.37484078e-13 0.00000000e+00 1.49695167e-13
1.02785297e+01 6.23598903e-13 1.35608846e-13 0.00000000e+00 4.87990057e-13 0.00000000e+00 1.35618173e-13
1.06225216e+01 5.62622339e-13 1.22857385e-13 0.00000000e+00 4.39764954e-13 0.00000000e+00 1.22864947e-13
1.09780260e+01 4.97165988e-13 1.11305096e-13 0.00000000e+00 3.85860892e-13 0.00000000e+00 1.11311006e-13
1.13454280e+01 4.40068721e-13 1.00838934e-13 0.00000000e+00 3.39229787e-13 0.00000000e+00 1.00843571e-13
1.17251259e+01 3.90550343e-13 9.13568079e-14 0.00000000e+00 2.99193535e-13 0.00000000e+00 9.13604705e-14
1.21175312e+01 3.47052835e-13 8.27662612e-14 0.00000000e+00 2.64286574e-13 0.00000000e+00 8.27691389e-14
1.25230691e+01 3.07693566e-13 7.49834619e-14 0.00000000e+00 2.32710104e-13 0.00000000e+00 7.49857166e-14
1.29421791e+01 2.74260908e-13 6.79324507e-14 0.00000000e+00 2.06328457e-13 0.00000000e+00 6.79342298e-14
1.33753155e+01 2.45751733e-13 6.15444350e-14 0.00000000e+00 1.84207298e-13 0.00000000e+00 6.15458488e-14
1.38229477e+01 2.26111598e-13 5.57570413e-14 0.00000000e+00 1.70354557e-13 0.00000000e+00 5.57582167e-14
1.42855609e+01 2.13128979e-13 5.05138188e-14 0.00000000e+00 1.62615160e-13 0.00000000e+00 5.05148403e-14
1.47636563e+01 2.11299604e-13 4.57635697e-14 0.00000000e+00 1.65536034e-13 0.00000000e+00 4.57645392e-14
1.52577522e+01 2.12197772e-13 4.14600089e-14 0.00000000e+00 1.70737763e-13 0.00000000e+00 4.14609457e-14
1.57683840e+01 2.15573371e-13 3.75611356e-14 0.00000000e+00 1.78012235e-13 0.00000000e+00 3.75620523e-14
1.62961051e+01 2.19824106e-13 3.40289060e-14 0.00000000e+00 1.85795200e-13 0.00000000e+00 3.40298020e-14
1.68414875e+01 2.24231945e-13 3.08288427e-14 0.00000000e+00 1.93403103e-13 0.00000000e+00 3.08297166e-14
1.74051222e+01 2.26046089e-13 2.79297300e-14 0.00000000e+00 1.98116359e-13 0.00000000e+00 2.79305599e-14
1.79876201e+01 2.25220565e-13 2.53032585e-14 0.00000000e+00 1.99917307e-13 0.00000000e+00 2.53040334e-14
1.85896125e+01 2.20816041e-13 2.29237983e-14 0.00000000e+00 1.97892243e-13 0.00000000e+00 2.29244994e-14
1.92117518e+01 2.12059959e-13 2.07681156e-14 0.00000000e+00 1.91291843e-13 0.00000000e+00 2.07687314e-14
1.98547123e+01 2.01699338e-13 1.88151567e-14 0.00000000e+00 1.82884182e-13 0.00000000e+00 1.88156870e-14
2.05191907e+01 1.90520474e-13 1.70458503e-14 0.00000000e+00 1.73474623e-13 0.00000000e+00 1.70463024e-14
2.12059073e+01 1.80550006e-13 1.54429214e-14 0.00000000e+00 1.65107084e-13 0.00000000e+00 1.54433068e-14
2.19156062e+01 1.71433837e-13 1.39907231e-14 0.00000000e+00 1.57443114e-13 0.00000000e+00 1.39910532e-14
2.26490567e+01 1.63315708e-13 1.26750831e-14 0.00000000e+00 1.50640625e-13 0.00000000e+00 1.26753663e-14
2.34070535e+01 1.55926689e-13 1.14831601e-14 0.00000000e+00 1.44443528e-13 0.00000000e+00 1.14834036e-14
2.41904183e+01 1.48941387e-13 1.04033206e-14 0.00000000e+00 1.38538067e-13 0.00000000e+00 1.04035303e-14
2.50000000e+01 1.42583189e-13 9.42502477e-15 0.00000000e+00 1.33158165e-13 0.00000000e+00 9.42520591e-15
2.75422870e+01 1.25712098e-13 7.04861183e-15 0.00000000e+00 1.18663487e-13 0.00000000e+00 7.04872996e-15
3.16227766e+01 1.04604128e-13 4.65698480e-15 0.00000000e+00 9.99471428e-14 0.00000000e+00 4.65704970e-15
3.63078055e+01 8.41810614e-14 3.07684675e-15 0.00000000e+00 8.11042146e-14 0.00000000e+00 3.07688223e-15
4.16869383e+01 6.43062202e-14 2.03285705e-15 0.00000000e+00 6.22733631e-14 0.00000000e+00 2.03287593e-15
4.78630092e+01 4.62574789e-14 1.34309808e-15 0.00000000e+00 4.49143809e-14 0.00000000e+00 1.34310781e-15
5.49540874e+01 3.16226638e-14 8.87377618e-16 0.00000000e+00 3.07352862e-14 0.00000000e+00 8.87382527e-16
6.30957344e+01 2.06879408e-14 5.86285376e-16 0.00000000e+00 2.01016554e-14 0.00000000e+00 5.86287821e-16
7.24435960e+01 1.30354311e-14 3.87355313e-16 0.00000000e+00 1.26480758e-14 0.00000000e+00 3.87356522e-16
8.31763771e+01 7.96917930e-15 2.55923319e-16 0.00000000e+00 7.71325598e-15 0.00000000e+00 2.55923916e-16
9.54992586e+01 4.75785872e-15 1.69086959e-16 0.00000000e+00 4.58877176e-15 0.00000000e+00 1.69087255e-16
1.09647820e+02 2.78489766e-15 1.11714695e-16 0.00000000e+00 2.67318296e-15 0.00000000e+00 1.11714841e-16
1.25892541e+02 1.62115670e-15 7.38091897e-17 0.00000000e+00 1.54734751e-15 0.00000000e+00 7.38092637e-17
1.44543977e+02 9.34198243e-16 4.87652594e-17 0.00000000e+00 8.85432984e-16 0.00000000e+00 4.87652969e-17
1.65958691e+02 5.12671491e-16 3.22188937e-17 0.00000000e+00 4.80452597e-16 0.00000000e+00 3.22189122e-17
1.90546072e+02 2.80946597e-16 2.12868151e-17 0.00000000e+00 2.59659782e-16 0.00000000e+00 2.12868242e-17
2.18776162e+02 1.53559551e-16 1.40640607e-17 0.00000000e+00 1.39495490e-16 0.00000000e+00 1.40640653e-17
2.51188643e+02 8.36914832e-17 9.29203350e-18 0.00000000e+00 7.43994497e-17 0.00000000e+00 9.29203577e-18
2.88403150e+02 4.55024779e-17 6.13918602e-18 0.00000000e+00 3.93632919e-17 0.00000000e+00 6.13918715e-18
3.31131121e+02 2.47656813e-17 4.05612016e-18 0.00000000e+00 2.07095612e-17 0.00000000e+00 4.05612073e-18
3.80189396e+02 1.35063518e-17 2.67985210e-18 0.00000000e+00 1.08264996e-17 0.00000000e+00 2.67985239e-18
4.36515832e+02 7.40393158e-18 1.77056077e-18 0.00000000e+00 5.63337081e-18 0.00000000e+00 1.77056092e-18
5.01187234e+02 4.08745261e-18 1.16979792e-18 0.00000000e+00 2.91765469e-18 0.00000000e+00 1.16979800e-18
5.75439937e+02 2.27813320e-18 7.72877835e-19 0.00000000e+00 1.50525537e-18 0.00000000e+00 7.72877871e-19
6.60693448e+02 1.28461091e-18 5.10635328e-19 0.00000000e+00 7.73975584e-19 0.00000000e+00 5.10635346e-19
7.58577575e+02 7.34176445e-19 3.37373418e-19 0.00000000e+00 3.96803027e-19 0.00000000e+00 3.37373427e-19
8.70963590e+02 4.25768247e-19 2.22900408e-19 0.00000000e+00 2.02867839e-19 0.00000000e+00 2.22900413e-19
1.00000000e+03 1.03454462e-19 0.00000000e+00 0.00000000e+00 1.03454462e-19 0.00000000e+00 0.00000000e+00
