# column 1: lambda (micron)
# column 2: total flux; lambda*F_lambda (W/m2)
# column 3: direct stellar flux; lambda*F_lambda (W/m2)
# column 4: scattered stellar flux; lambda*F_lambda (W/m2)
# column 5: total dust emission flux; lambda*F_lambda (W/m2)
# column 6: dust emission scattered flux; lambda*F_lambda (W/m2)
# column 7: transparent flux; lambda*F_lambda (W/m2)
1.00000000e-03 9.68073665e-13 9.68073281e-13 3.84407481e-19 0.00000000e+00 0.00000000e+00 9.68073281e-13
1.14815362e-03 1.14263745e-12 1.14263687e-12 5.84335681e-19 0.00000000e+00 0.00000000e+00 1.14263687e-12
1.31825674e-03 1.34867876e-12 1.34867788e-12 8.85391603e-19 0.00000000e+00 0.00000000e+00 1.34867788e-12
1.51356125e-03 1.59187369e-12 1.59187233e-12 1.36266190e-18 0.00000000e+00 0.00000000e+00 1.59187233e-12
1.73780083e-03 1.87892215e-12 1.87891976e-12 2.38773453e-18 0.00000000e+00 0.00000000e+00 1.87891976e-12
1.99526231e-03 2.21773202e-12 2.21772777e-12 4.25596089e-18 0.00000000e+00 0.00000000e+00 2.21772777e-12
2.29086765e-03 2.61763640e-12 2.61762985e-12 6.55734620e-18 0.00000000e+00 0.00000000e+00 2.61762985e-12
2.63026799e-03 3.08965555e-12 3.08964252e-12 1.30310428e-17 0.00000000e+00 0.00000000e+00 3.08964252e-12
3.01995172e-03 3.64679089e-12 3.64676883e-12 2.20644045e-17 0.00000000e+00 0.00000000e+00 3.64676883e-12
3.46736850e-03 4.30439275e-12 4.30435650e-12 3.62487840e-17 0.00000000e+00 0.00000000e+00 4.30435650e-12
3.98107171e-03 5.08057894e-12 5.08052080e-12 5.81362745e-17 0.00000000e+00 0.00000000e+00 5.08052080e-12
4.57088190e-03 5.99677774e-12 5.99664354e-12 1.34203888e-16 0.00000000e+00 0.00000000e+00 5.99664354e-12
5.24807460e-03 7.07820364e-12 7.07796211e-12 2.41528359e-16 0.00000000e+00 0.00000000e+00 7.07796211e-12
6.02559586e-03 8.35468286e-12 8.35426474e-12 4.18119237e-16 0.00000000e+00 0.00000000e+00 8.35426474e-12
6.91830971e-03 9.86135581e-12 9.86071107e-12 6.44742856e-16 0.00000000e+00 0.00000000e+00 9.86071107e-12
7.94328235e-03 1.16398936e-11 1.16388008e-11 1.09286667e-15 4.34016009e-303 4.31650301e-305 1.16388008e-11
9.12010839e-03 1.37393250e-11 1.37375167e-11 1.80831378e-15 2.16854784e-264 2.64857741e-266 1.37375167e-11
1.04712855e-02 1.53454140e-11 1.53429287e-11 2.48529743e-15 1.02557637e-230 1.34385527e-232 1.53429287e-11
1.20226443e-02 1.53466685e-11 1.53429287e-11 3.73980760e-15 1.78642091e-201 3.98592332e-203 1.53429287e-11
1.38038426e-02 1.53480672e-11 1.53429287e-11 5.13853649e-15 5.29434227e-176 1.20814320e-177 1.53429287e-11
1.58489319e-02 1.53500179e-11 1.53429287e-11 7.08923563e-15 7.75372514e-154 2.32549369e-155 1.53429287e-11
1.81970086e-02 1.53524270e-11 1.53429287e-11 9.49829653e-15 1.47004680e-134 4.09182729e-136 1.53429287e-11
2.08929613e-02 1.53581824e-11 1.53429287e-11 1.52537337e-14 8.14109992e-118 2.65733561e-119 1.53429287e-11
2.39883292e-02 1.53621757e-11 1.53429287e-11 1.92470465e-14 3.00650545e-103 1.15289125e-104 1.53429287e-11
2.75422870e-02 1.53701111e-11 1.53429287e-11 2.71824422e-14 1.40257740e-90 5.76073697e-92 1.53429287e-11
3.16227766e-02 1.53762629e-11 1.53429287e-11 3.33342381e-14 1.41936032e-79 6.46745031e-81 1.53429287e-11
3.63078055e-02 1.53823794e-11 1.53429287e-11 3.94507782e-14 5.08918298e-70 2.49496671e-71 1.53429287e-11
4.16869383e-02 1.53995061e-11 1.53429287e-11 5.65774163e-14 9.96100036e-62 5.59563781e-63 1.53429287e-11
4.78630092e-02 1.54201713e-11 1.53429287e-11 7.72426587e-14 1.54515905e-54 1.02995010e-55 1.53429287e-11
5.49540874e-02 1.54410437e-11 1.53429287e-11 9.81150623e-14 2.61574338e-48 1.94625543e-49 1.53429287e-11
6.30957344e-02 1.54675517e-11 1.53429287e-11 1.24623055e-13 8.49328340e-43 6.59082728e-44 1.53429287e-11
7.24435960e-02 1.54709000e-11 1.53429287e-11 1.27971327e-13 4.90151633e-38 3.35638294e-39 1.53429287e-11
8.31763771e-02 1.54660680e-11 1.53429287e-11 1.23139317e-13 5.08830279e-34 3.39731646e-35 1.53429287e-11
9.54992586e-02 1.54744337e-11 1.53429287e-11 1.31505047e-13 1.45652694e-30 1.02042588e-31 1.53429287e-11
1.09647820e-01 1.47820639e-11 1.46523889e-11 1.29675059e-13 1.27020441e-27 1.00504887e-28 1.46523889e-11
1.25892541e-01 1.37900455e-11 1.36744049e-11 1.15640565e-13 4.20110893e-25 3.38042120e-26 1.36744049e-11
1.44543977e-01 1.28600578e-11 1.27616972e-11 9.83605314e-14 5.82264199e-23 4.68691151e-24 1.27616972e-11
1.65958691e-01 1.20135878e-11 1.19099088e-11 1.03678985e-13 2.99850214e-21 2.69043244e-22 1.19099088e-11
1.90546072e-01 1.12340505e-11 1.11149736e-11 1.19076790e-13 6.37322968e-20 6.64476506e-21 1.11149736e-11
2.18776162e-01 1.04924351e-11 1.03730969e-11 1.19337450e-13 7.51467578e-19 7.87012185e-20 1.03730969e-11
2.51188643e-01 9.82585419e-12 9.68073733e-12 1.45107520e-13 9.33213195e-18 1.19601408e-18 9.68073733e-12
2.88403150e-01 9.16393869e-12 9.03458975e-12 1.29270225e-13 7.87172449e-17 1.01814022e-17 9.03458975e-12
3.31131121e-01 8.54579856e-12 8.43156974e-12 1.13773829e-13 4.54987932e-16 5.82908527e-17 8.43156974e-12
3.80189396e-01 7.97455268e-12 7.86879872e-12 1.03849962e-13 1.90399024e-15 2.35044511e-16 7.86879872e-12
4.36515832e-01 7.44565093e-12 7.34359025e-12 9.59972240e-14 6.06345574e-15 7.45758288e-16 7.34359025e-12
5.01187234e-01 6.95879997e-12 6.85343719e-12 9.01622567e-14 1.52005315e-14 1.84392982e-15 6.85343719e-12
5.75439937e-01 6.50864209e-12 6.39599973e-12 8.12082854e-14 3.14340757e-14 3.75531649e-15 6.39599973e-12
6.60693448e-01 6.10248229e-12 5.96909425e-12 7.76847752e-14 5.57032580e-14 6.65725921e-15 5.96909425e-12
7.58577575e-01 5.72887041e-12 5.57068288e-12 6.96756532e-14 8.85118729e-14 1.05646240e-14 5.57068288e-12
8.70963590e-01 5.39170104e-12 5.19886376e-12 6.23254175e-14 1.30511866e-13 1.54448574e-14 5.19886376e-12
1.00000000e+00 5.09282003e-12 4.85186196e-12 5.69193815e-14 1.84038684e-13 2.19868314e-14 4.85186196e-12
1.14815362e+00 4.83681040e-12 4.52802104e-12 4.79999583e-14 2.60789399e-13 3.09700201e-14 4.52802104e-12
1.31825674e+00 4.64321114e-12 4.22579511e-12 3.96731669e-14 3.77742860e-13 4.36426332e-14 4.22579511e-12
1.51356125e+00 4.52329393e-12 3.94374146e-12 3.17053192e-14 5.47847147e-13 5.90900097e-14 3.94374146e-12
1.73780083e+00 4.47517446e-12 3.68051368e-12 2.45386244e-14 7.70122157e-13 7.39841530e-14 3.68051368e-12
1.99526231e+00 4.47758377e-12 3.43485522e-12 1.89426491e-14 1.02378589e-12 8.30383630e-14 3.43485522e-12
2.29086765e+00 4.48217141e-12 3.20559341e-12 1.34808194e-14 1.26309718e-12 8.07550077e-14 3.20559341e-12
2.63026799e+00 4.45798471e-12 2.99163384e-12 9.45466318e-15 1.45689621e-12 7.05643075e-14 2.99163384e-12
3.01995172e+00 4.37343853e-12 2.79195514e-12 6.31526029e-15 1.57516812e-12 5.55973384e-14 2.79195514e-12
3.46736850e+00 4.21947296e-12 2.60560415e-12 3.97331825e-15 1.60989550e-12 4.00321107e-14 2.60560415e-12
3.98107171e+00 3.99954483e-12 2.43169128e-12 2.43522112e-15 1.56541834e-12 2.63017066e-14 2.43169128e-12
4.57088190e+00 3.72848522e-12 2.26938634e-12 1.45811198e-15 1.45764076e-12 1.60148436e-14 2.26938634e-12
5.24807460e+00 3.19827815e-12 1.87643467e-12 7.67520967e-16 1.32107596e-12 9.20021997e-15 1.87643467e-12
6.02559586e+00 2.41970099e-12 1.23974809e-12 3.06438926e-16 1.17964646e-12 5.05430088e-15 1.23974809e-12
6.70000000e+00 1.97309615e-12 9.01797527e-13 1.49776015e-16 1.07114885e-12 3.02717087e-15 9.01797527e-13
6.92422916e+00 1.85425455e-12 8.16994532e-13 1.17108713e-16 1.03714291e-12 2.55228653e-15 8.16994532e-13
7.15596261e+00 1.75470677e-12 7.40166218e-13 9.26750833e-17 1.01444788e-12 2.16592936e-15 7.40166218e-13
7.39545150e+00 1.69062398e-12 6.70562664e-13 7.17562403e-17 1.01998955e-12 1.84074792e-15 6.70562664e-13
7.64295536e+00 1.71027145e-12 6.07504471e-13 5.22054984e-17 1.10271478e-12 1.60052719e-15 6.07504471e-13
7.89874245e+00 1.85393182e-12 5.50376127e-13 3.62436886e-17 1.30351945e-12 1.45286637e-15 5.50376127e-13
8.16308998e+00 2.09397207e-12 4.98620004e-13 2.43746256e-17 1.59532769e-12 1.30799177e-15 4.98620004e-13
8.43628443e+00 2.44755585e-12 4.51730909e-13 1.54457018e-17 1.99580949e-12 1.13166082e-15 4.51730909e-13
8.71862190e+00 2.68351893e-12 4.09251158e-13 9.88771588e-18 2.27425789e-12 9.08930966e-16 4.09251158e-13
9.01040836e+00 2.91947521e-12 3.70766106e-13 5.35335373e-18 2.54870375e-12 6.08425990e-16 3.70766106e-13
9.31196005e+00 3.10215478e-12 3.35900102e-13 0.00000000e+00 2.76625468e-12 0.00000000e+00 3.35900102e-13
9.62360379e+00 3.04856396e-12 3.04312818e-13 0.00000000e+00 2.74425114e-12 0.00000000e+00 3.04312818e-13
9.94567731e+00 2.82494243e-12 2.75695930e-13 0.00000000e+00 2.54924650e-12 0.00000000e+00 2.75695930e-13
1.02785297e+01 2.56394143e-12 2.49770110e-13 0.00000000e+00 2.31417132e-12 0.00000000e+00 2.49770110e-13
1.06225216e+01 2.31142089e-12 2.26282295e-13 0.00000000e+00 2.08513859e-12 0.00000000e+00 2.26282295e-13
1.09780260e+01 2.03833214e-12 2.05003220e-13 0.00000000e+00 1.83332892e-12 0.00000000e+00 2.05003220e-13
1.13454280e+01 1.80410805e-12 1.85725182e-13 0.00000000e+00 1.61838287e-12 0.00000000e+00 1.85725182e-13
1.17251259e+01 1.59976765e-12 1.68260007e-13 0.00000000e+00 1.43150764e-12 0.00000000e+00 1.68260007e-13
1.21175312e+01 1.41795814e-12 1.52437217e-13 0.00000000e+00 1.26552092e-12 0.00000000e+00 1.52437217e-13
1.25230691e+01 1.25515770e-12 1.38102367e-13 0.00000000e+00 1.11705533e-12 0.00000000e+00 1.38102367e-13
1.29421791e+01 1.11787031e-12 1.25115533e-13 0.00000000e+00 9.92754775e-13 0.00000000e+00 1.25115533e-13
1.33753155e+01 9.99872040e-13 1.13349952e-13 0.00000000e+00 8.86522088e-13 0.00000000e+00 1.13349952e-13
1.38229477e+01 9.21807450e-13 1.02690779e-13 0.00000000e+00 8.19116671e-13 0.00000000e+00 1.02690779e-13
1.42855609e+01 8.74176217e-13 9.30339713e-14 0.00000000e+00 7.81142246e-13 0.00000000e+00 9.30339713e-14
1.47636563e+01 8.75691013e-13 8.42852675e-14 0.00000000e+00 7.91405746e-13 0.00000000e+00 8.42852675e-14
1.52577522e+01 8.88973341e-13 7.63592720e-14 0.00000000e+00 8.12614069e-13 0.00000000e+00 7.63592720e-14
1.57683840e+01 9.11513837e-13 6.91786191e-14 0.00000000e+00 8.42335218e-13 0.00000000e+00 6.91786191e-14
1.62961051e+01 9.36984647e-13 6.26732185e-14 0.00000000e+00 8.74311429e-13 0.00000000e+00 6.26732185e-14
1.68414875e+01 9.62775908e-13 5.67795711e-14 0.00000000e+00 9.05996336e-13 0.00000000e+00 5.67795711e-14
1.74051222e+01 9.71766774e-13 5.14401489e-14 0.00000000e+00 9.20326625e-13 0.00000000e+00 5.14401489e-14
1.79876201e+01 9.71498319e-13 4.66028339e-14 0.00000000e+00 9.24895485e-13 0.00000000e+00 4.66028339e-14
1.85896125e+01 9.52935114e-13 4.22204090e-14 0.00000000e+00 9.10714705e-13 0.00000000e+00 4.22204090e-14
1.92117518e+01 9.16778697e-13 3.82500974e-14 0.00000000e+00 8.78528600e-13 0.00000000e+00 3.82500974e-14
1.98547123e+01 8.70873351e-13 3.46531450e-14 0.00000000e+00 8.36220207e-13 0.00000000e+00 3.46531450e-14
2.05191907e+01 8.20743355e-13 3.13944418e-14 0.00000000e+00 7.89348913e-13 0.00000000e+00 3.13944418e-14
2.12059073e+01 7.74515458e-13 2.84421796e-14 0.00000000e+00 7.46073279e-13 0.00000000e+00 2.84421796e-14
2.19156062e+01 7.33270666e-13 2.57675415e-14 0.00000000e+00 7.07503124e-13 0.00000000e+00 2.57675415e-14
2.26490567e+01 6.94068045e-13 2.33444203e-14 0.00000000e+00 6.70723625e-13 0.00000000e+00 2.33444203e-14
2.34070535e+01 6.58113632e-13 2.11491639e-14 0.00000000e+00 6.36964468e-13 0.00000000e+00 2.11491639e-14
2.41904183e+01 6.24562201e-13 1.91603445e-14 0.00000000e+00 6.05401857e-13 0.00000000e+00 1.91603445e-14
2.50000000e+01 5.92973158e-13 1.73585491e-14 0.00000000e+00 5.75614609e-13 0.00000000e+00 1.73585491e-14
2.75422870e+01 5.06336442e-13 1.29817562e-14 0.00000000e+00 4.93354686e-13 0.00000000e+00 1.29817562e-14
3.16227766e+01 3.96390472e-13 8.57696126e-15 0.00000000e+00 3.87813511e-13 0.00000000e+00 8.57696126e-15
3.63078055e+01 2.95347891e-13 5.66674211e-15 0.00000000e+00 2.89681149e-13 0.00000000e+00 5.66674211e-15
4.16869383e+01 2.06062742e-13 3.74397938e-15 0.00000000e+00 2.02318763e-13 0.00000000e+00 3.74397938e-15
4.78630092e+01 1.34843913e-13 2.47362265e-15 0.00000000e+00 1.32370290e-13 0.00000000e+00 2.47362265e-15
5.49540874e+01 8.38117910e-14 1.63430628e-15 0.00000000e+00 8.21774848e-14 0.00000000e+00 1.63430628e-15
6.30957344e+01 5.01075118e-14 1.07977545e-15 0.00000000e+00 4.90277363e-14 0.00000000e+00 1.07977545e-15
7.24435960e+01 2.90650449e-14 7.13400564e-16 0.00000000e+00 2.83516443e-14 0.00000000e+00 7.13400564e-16
8.31763771e+01 1.65018482e-14 4.71339078e-16 0.00000000e+00 1.60305091e-14 0.00000000e+00 4.71339078e-16
9.54992586e+01 9.23252396e-15 3.11410641e-16 0.00000000e+00 8.92111332e-15 0.00000000e+00 3.11410641e-16
1.09647820e+02 5.11109411e-15 2.05746970e-16 0.00000000e+00 4.90534714e-15 0.00000000e+00 2.05746970e-16
1.25892541e+02 2.83953104e-15 1.35935675e-16 0.00000000e+00 2.70359537e-15 0.00000000e+00 1.35935675e-16
1.44543977e+02 1.57375640e-15 8.98118099e-17 0.00000000e+00 1.48394459e-15 0.00000000e+00 8.98118099e-17
1.65958691e+02 8.34476915e-16 5.93380743e-17 0.00000000e+00 7.75138840e-16 0.00000000e+00 5.93380743e-17
1.90546072e+02 4.44894823e-16 3.92042769e-17 0.00000000e+00 4.05690546e-16 0.00000000e+00 3.92042769e-17
2.18776162e+02 2.38009853e-16 2.59020089e-17 0.00000000e+00 2.12107844e-16 0.00000000e+00 2.59020089e-17
2.51188643e+02 1.27656983e-16 1.71132876e-17 0.00000000e+00 1.10543695e-16 0.00000000e+00 1.71132876e-17
2.88403150e+02 6.86538931e-17 1.13066370e-17 0.00000000e+00 5.73472561e-17 0.00000000e+00 1.13066370e-17
3.31131121e+02 3.71380233e-17 7.47022097e-18 0.00000000e+00 2.96678023e-17 0.00000000e+00 7.47022097e-18
3.80189396e+02 2.02234999e-17 4.93552605e-18 0.00000000e+00 1.52879739e-17 0.00000000e+00 4.93552605e-18
4.36515832e+02 1.11183268e-17 3.26086972e-18 0.00000000e+00 7.85745706e-18 0.00000000e+00 3.26086972e-18
5.01187234e+02 6.18125464e-18 2.15443526e-18 0.00000000e+00 4.02681938e-18 0.00000000e+00 2.15443526e-18
5.75439937e+02 3.48217111e-18 1.42342126e-18 0.00000000e+00 2.05874984e-18 0.00000000e+00 1.42342126e-18
6.60693448e+02 1.99080109e-18 9.40445101e-19 0.00000000e+00 1.05035599e-18 0.00000000e+00 9.40445101e-19
7.58577575e+02 1.15624699e-18 6.21345916e-19 0.00000000e+00 5.34901077e-19 0.00000000e+00 6.21345916e-19
8.70963590e+02 6.82416107e-19 4.10519176e-19 0.00000000e+00 2.71896931e-19 0.00000000e+00 4.10519176e-19
1.00000000e+03 1.37967555e-19 0.00000000e+00 0.00000000e+00 1.37967555e-19 0.00000000e+00 0.00000000e+00
