# column 1: lambda (micron)
# column 2: total flux; lambda*F_lambda (W/m2)
# column 3: direct stellar flux; lambda*F_lambda (W/m2)
# column 4: scattered stellar flux; lambda*F_lambda (W/m2)
# column 5: total dust emission flux; lambda*F_lambda (W/m2)
# column 6: dust emission scattered flux; lambda*F_lambda (W/m2)
# column 7: transparent flux; lambda*F_lambda (W/m2)
1.00000000e-03 8.46529765e-13 8.46529401e-13 3.63786690e-19 0.00000000e+00 0.00000000e+00 8.46529401e-13
1.14815362e-03 9.99176681e-13 9.99176121e-13 5.60424536e-19 0.00000000e+00 0.00000000e+00 9.99176121e-13
1.31825674e-03 1.17934904e-12 1.17934819e-12 8.46525332e-19 0.00000000e+00 0.00000000e+00 1.17934819e-12
1.51356125e-03 1.39201035e-12 1.39200901e-12 1.33759377e-18 0.00000000e+00 0.00000000e+00 1.39200901e-12
1.73780083e-03 1.64301937e-12 1.64301696e-12 2.40694592e-18 0.00000000e+00 0.00000000e+00 1.64301696e-12
1.99526231e-03 1.93929127e-12 1.93928682e-12 4.44822757e-18 0.00000000e+00 0.00000000e+00 1.93928682e-12
2.29086765e-03 2.28898804e-12 2.28898025e-12 7.78849513e-18 0.00000000e+00 0.00000000e+00 2.28898025e-12
2.63026799e-03 2.70174409e-12 2.70173063e-12 1.34610281e-17 0.00000000e+00 0.00000000e+00 2.70173063e-12
3.01995172e-03 3.18892996e-12 3.18890841e-12 2.15492316e-17 0.00000000e+00 0.00000000e+00 3.18890841e-12
3.46736850e-03 3.76396981e-12 3.76393440e-12 3.54014094e-17 0.00000000e+00 0.00000000e+00 3.76393440e-12
3.98107171e-03 4.44270635e-12 4.44264945e-12 5.68996255e-17 0.00000000e+00 0.00000000e+00 4.44264945e-12
4.57088190e-03 5.24388197e-12 5.24375082e-12 1.31146740e-16 0.00000000e+00 0.00000000e+00 5.24375082e-12
5.24807460e-03 6.18952775e-12 6.18930730e-12 2.20448212e-16 0.00000000e+00 0.00000000e+00 6.18930730e-12
6.02559586e-03 7.30577243e-12 7.30536713e-12 4.05302778e-16 0.00000000e+00 0.00000000e+00 7.30536713e-12
6.91830971e-03 8.62332864e-12 8.62267558e-12 6.53066763e-16 0.00000000e+00 0.00000000e+00 8.62267558e-12
7.94328235e-03 1.01785761e-11 1.01775219e-11 1.05414477e-15 0.00000000e+00 0.00000000e+00 1.01775219e-11
9.12010839e-03 1.20147414e-11 1.20127391e-11 2.00223513e-15 0.00000000e+00 0.00000000e+00 1.20127391e-11
1.04712855e-02 1.34189400e-11 1.34165878e-11 2.35211919e-15 0.00000000e+00 0.00000000e+00 1.34165878e-11
1.20226443e-02 1.34211735e-11 1.34165878e-11 4.58566303e-15 1.14347061e-313 6.06456258e-315 1.34165878e-11
1.38038426e-02 1.34213556e-11 1.34165878e-11 4.76778811e-15 3.74848313e-274 1.82695835e-275 1.34165878e-11
1.58489319e-02 1.34235069e-11 1.34165878e-11 6.91901362e-15 9.48562525e-240 6.27405413e-241 1.34165878e-11
1.81970086e-02 1.34291915e-11 1.34165878e-11 1.26036404e-14 8.20108425e-210 6.17849859e-211 1.34165878e-11
2.08929613e-02 1.34310510e-11 1.34165878e-11 1.44631719e-14 8.59932567e-184 6.45064142e-185 1.34165878e-11
2.39883292e-02 1.34339075e-11 1.34165878e-11 1.73196476e-14 3.83255876e-161 3.11354539e-162 1.34165878e-11
2.75422870e-02 1.34415213e-11 1.34165878e-11 2.49334310e-14 1.96270932e-141 1.77256351e-142 1.34165878e-11
3.16227766e-02 1.34470953e-11 1.34165878e-11 3.05075032e-14 2.66757033e-124 2.45706959e-125 1.34165878e-11
3.63078055e-02 1.34538598e-11 1.34165878e-11 3.72719791e-14 2.08165461e-109 1.97424860e-110 1.34165878e-11
4.16869383e-02 1.34672097e-11 1.34165878e-11 5.06218665e-14 1.83397729e-96 1.99027838e-97 1.34165878e-11
4.78630092e-02 1.34857450e-11 1.34165878e-11 6.91571524e-14 3.15738124e-85 3.71429314e-86 1.34165878e-11
5.49540874e-02 1.35040017e-11 1.34165878e-11 8.74138201e-14 1.78149798e-75 2.21737628e-76 1.34165878e-11
6.30957344e-02 1.35231059e-11 1.34165878e-11 1.06518042e-13 6.78246442e-67 9.35039273e-68 1.34165878e-11
7.24435960e-02 1.35209014e-11 1.34165878e-11 1.04313540e-13 1.96057249e-59 2.65106305e-60 1.34165878e-11
8.31763771e-02 1.35196112e-11 1.34165878e-11 1.03023390e-13 5.73941256e-53 7.35765942e-54 1.34165878e-11
9.54992586e-02 1.35259521e-11 1.34165878e-11 1.09364265e-13 2.91695046e-47 3.79010677e-48 1.34165878e-11
1.09647820e-01 1.29224074e-11 1.28127470e-11 1.09660405e-13 2.92650192e-42 3.97832997e-43 1.28127470e-11
1.25892541e-01 1.20536282e-11 1.19575512e-11 9.60769938e-14 6.87964320e-38 9.12058213e-39 1.19575512e-11
1.44543977e-01 1.12455145e-11 1.11594361e-11 8.60783975e-14 4.19044232e-34 5.31979296e-35 1.11594361e-11
1.65958691e-01 1.05025204e-11 1.04145917e-11 8.79286775e-14 6.16085392e-31 8.60847734e-32 1.04145917e-11
1.90546072e-01 9.82169393e-12 9.71946251e-12 1.02231417e-13 2.49797995e-28 4.19366007e-29 9.71946251e-12
2.18776162e-01 9.17328289e-12 9.07073019e-12 1.02552700e-13 3.94365640e-26 7.24046446e-27 9.07073019e-12
2.51188643e-01 8.58546597e-12 8.46529796e-12 1.20168004e-13 5.04682727e-24 1.10028447e-24 8.46529796e-12
2.88403150e-01 8.00825970e-12 7.90027573e-12 1.07983964e-13 3.29794690e-22 7.07091345e-23 7.90027573e-12
3.31131121e-01 7.47322204e-12 7.37296631e-12 1.00255724e-13 1.17653032e-20 2.46616374e-21 7.37296631e-12
3.80189396e-01 6.97214170e-12 6.88085251e-12 9.12889323e-14 2.50824935e-19 5.21902203e-20 6.88085251e-12
4.36515832e-01 6.50600367e-12 6.42158520e-12 8.44150461e-14 3.41989285e-18 7.13120511e-19 6.42158520e-12
5.01187234e-01 6.07078356e-12 5.99297201e-12 7.77800153e-14 3.15392567e-17 6.62239882e-18 5.99297201e-12
5.75439937e-01 5.66633125e-12 5.59296690e-12 7.31574011e-14 2.06945077e-16 4.33146126e-17 5.59296690e-12
6.60693448e-01 5.28913445e-12 5.21966041e-12 6.84590244e-14 1.01500921e-15 2.11516714e-16 5.21966041e-12
7.58577575e-01 4.93853275e-12 4.87127053e-12 6.33516987e-14 3.91051988e-15 7.98078140e-16 4.87127053e-12
8.70963590e-01 4.61408145e-12 4.54613417e-12 5.56793955e-14 1.22678771e-14 2.40207570e-15 4.54613417e-12
1.00000000e+00 4.32521845e-12 4.24269927e-12 5.04483290e-14 3.20708495e-14 5.91306058e-15 4.24269927e-12
1.14815362e+00 4.07499618e-12 3.95951734e-12 4.24265242e-14 7.30523137e-14 1.22354292e-14 3.95951734e-12
1.31825674e+00 3.87843891e-12 3.69523659e-12 3.42863039e-14 1.48916018e-13 2.20717252e-14 3.69523659e-12
1.51356125e+00 3.74641594e-12 3.44859544e-12 2.77609422e-14 2.70059559e-13 3.42299583e-14 3.44859544e-12
1.73780083e+00 3.67672585e-12 3.21841652e-12 2.16069746e-14 4.36702353e-13 4.60137227e-14 3.21841652e-12
1.99526231e+00 3.65319199e-12 3.00360106e-12 1.63789358e-14 6.33211988e-13 5.28665107e-14 3.00360106e-12
2.29086765e+00 3.64538961e-12 2.80312361e-12 1.15455787e-14 8.30720422e-13 5.22470401e-14 2.80312361e-12
2.63026799e+00 3.62427879e-12 2.61602716e-12 8.10932800e-15 1.00014230e-12 4.58363215e-14 2.61602716e-12
3.01995172e+00 3.56416282e-12 2.44141860e-12 5.18061907e-15 1.11756359e-12 3.61463846e-14 2.44141860e-12
3.46736850e+00 3.45589127e-12 2.27846441e-12 3.44490476e-15 1.17398195e-12 2.58937682e-14 2.27846441e-12
3.98107171e+00 3.29550583e-12 2.12638671e-12 2.13546793e-15 1.16698365e-12 1.71166105e-14 2.12638671e-12
4.57088190e+00 3.09457886e-12 1.98445954e-12 1.31874151e-15 1.10880057e-12 1.05185740e-14 1.98445954e-12
5.24807460e+00 2.66380185e-12 1.64084388e-12 6.88068423e-16 1.02226991e-12 6.11349664e-15 1.64084388e-12
6.02559586e+00 2.01404728e-12 1.08409480e-12 2.73019444e-16 9.29679459e-13 3.35770114e-15 1.08409480e-12
6.70000000e+00 1.64531725e-12 7.88574724e-13 1.31296622e-16 8.56611229e-13 2.04392843e-15 7.88574724e-13
6.92422916e+00 1.54780720e-12 7.14418944e-13 1.06857992e-16 8.33281399e-13 1.73730547e-15 7.14418944e-13
7.15596261e+00 1.46584233e-12 6.47236606e-13 8.09804348e-17 8.18524742e-13 1.46758784e-15 6.47236606e-13
7.39545150e+00 1.41237606e-12 5.86371942e-13 6.32108023e-17 8.25940909e-13 1.24526223e-15 5.86371942e-13
7.64295536e+00 1.42364626e-12 5.31230854e-13 4.67843002e-17 8.92368624e-13 1.09138221e-15 5.31230854e-13
7.89874245e+00 1.53670123e-12 4.81275108e-13 3.13824882e-17 1.05539474e-12 9.63596945e-16 4.81275108e-13
8.16308998e+00 1.72839673e-12 4.36017088e-13 2.07405027e-17 1.29235890e-12 8.61683291e-16 4.36017088e-13
8.43628443e+00 2.01648691e-12 3.95015029e-13 1.24451131e-17 1.62145944e-12 7.19749739e-16 3.95015029e-13
8.71862190e+00 2.21409379e-12 3.57868711e-13 7.87122314e-18 1.85621721e-12 5.69921918e-16 3.57868711e-13
9.01040836e+00 2.42587927e-12 3.24215549e-13 4.34718847e-18 2.10165937e-12 3.87392542e-16 3.24215549e-13
9.31196005e+00 2.59238367e-12 2.93727053e-13 0.00000000e+00 2.29865661e-12 0.00000000e+00 2.93727053e-13
9.62360379e+00 2.56163971e-12 2.66105627e-13 0.00000000e+00 2.29553409e-12 0.00000000e+00 2.66105627e-13
9.94567731e+00 2.38941743e-12 2.41081657e-13 0.00000000e+00 2.14833578e-12 0.00000000e+00 2.41081657e-13
1.02785297e+01 2.17364258e-12 2.18410884e-13 0.00000000e+00 1.95523170e-12 0.00000000e+00 2.18410884e-13
1.06225216e+01 1.97096137e-12 1.97872020e-13 0.00000000e+00 1.77308935e-12 0.00000000e+00 1.97872020e-13
1.09780260e+01 1.74688992e-12 1.79264583e-13 0.00000000e+00 1.56762534e-12 0.00000000e+00 1.79264583e-13
1.13454280e+01 1.55118528e-12 1.62406948e-13 0.00000000e+00 1.38877833e-12 0.00000000e+00 1.62406948e-13
1.17251259e+01 1.38596792e-12 1.47134567e-13 0.00000000e+00 1.23883335e-12 0.00000000e+00 1.47134567e-13
1.21175312e+01 1.23741999e-12 1.33298366e-13 0.00000000e+00 1.10412162e-12 0.00000000e+00 1.33298366e-13
1.25230691e+01 1.10578289e-12 1.20763289e-13 0.00000000e+00 9.85019604e-13 0.00000000e+00 1.20763289e-13
1.29421791e+01 9.94136783e-13 1.09406983e-13 0.00000000e+00 8.84729799e-13 0.00000000e+00 1.09406983e-13
1.33753155e+01 8.99016300e-13 9.91185987e-14 0.00000000e+00 7.99897701e-13 0.00000000e+00 9.91185987e-14
1.38229477e+01 8.37091949e-13 8.97977103e-14 0.00000000e+00 7.47294238e-13 0.00000000e+00 8.97977103e-14
1.42855609e+01 8.02895657e-13 8.13533371e-14 0.00000000e+00 7.21542320e-13 0.00000000e+00 8.13533371e-14
1.47636563e+01 8.13196049e-13 7.37030537e-14 0.00000000e+00 7.39492995e-13 0.00000000e+00 7.37030537e-14
1.52577522e+01 8.34699251e-13 6.67721855e-14 0.00000000e+00 7.67927065e-13 0.00000000e+00 6.67721855e-14
1.57683840e+01 8.67362976e-13 6.04930805e-14 0.00000000e+00 8.06869895e-13 0.00000000e+00 6.04930805e-14
1.62961051e+01 9.00955727e-13 5.48044484e-14 0.00000000e+00 8.46151278e-13 0.00000000e+00 5.48044484e-14
1.68414875e+01 9.38122051e-13 4.96507622e-14 0.00000000e+00 8.88471288e-13 0.00000000e+00 4.96507622e-14
1.74051222e+01 9.60670641e-13 4.49817171e-14 0.00000000e+00 9.15688923e-13 0.00000000e+00 4.49817171e-14
1.79876201e+01 9.77041976e-13 4.07517384e-14 0.00000000e+00 9.36290237e-13 0.00000000e+00 4.07517384e-14
1.85896125e+01 9.72431067e-13 3.69195372e-14 0.00000000e+00 9.35511530e-13 0.00000000e+00 3.69195372e-14
1.92117518e+01 9.51298855e-13 3.34477076e-14 0.00000000e+00 9.17851148e-13 0.00000000e+00 3.34477076e-14
1.98547123e+01 9.19924248e-13 3.03023610e-14 0.00000000e+00 8.89621887e-13 0.00000000e+00 3.03023610e-14
2.05191907e+01 8.85089329e-13 2.74527957e-14 0.00000000e+00 8.57636533e-13 0.00000000e+00 2.74527957e-14
2.12059073e+01 8.51990168e-13 2.48711970e-14 0.00000000e+00 8.27118971e-13 0.00000000e+00 2.48711970e-14
2.19156062e+01 8.23364820e-13 2.25323660e-14 0.00000000e+00 8.00832454e-13 0.00000000e+00 2.25323660e-14
2.26490567e+01 7.96070832e-13 2.04134733e-14 0.00000000e+00 7.75657359e-13 0.00000000e+00 2.04134733e-14
2.34070535e+01 7.72642748e-13 1.84938366e-14 0.00000000e+00 7.54148912e-13 0.00000000e+00 1.84938366e-14
2.41904183e+01 7.49299163e-13 1.67547181e-14 0.00000000e+00 7.32544445e-13 0.00000000e+00 1.67547181e-14
2.50000000e+01 7.27128953e-13 1.51791424e-14 0.00000000e+00 7.11949810e-13 0.00000000e+00 1.51791424e-14
2.75422870e+01 6.65886633e-13 1.13518661e-14 0.00000000e+00 6.54534766e-13 0.00000000e+00 1.13518661e-14
3.16227766e+01 5.75594828e-13 7.50010357e-15 0.00000000e+00 5.68094725e-13 0.00000000e+00 7.50010357e-15
3.63078055e+01 4.74569749e-13 4.95526929e-15 0.00000000e+00 4.69614480e-13 0.00000000e+00 4.95526929e-15
4.16869383e+01 3.66162447e-13 3.27391395e-15 0.00000000e+00 3.62888533e-13 0.00000000e+00 3.27391395e-15
4.78630092e+01 2.63403211e-13 2.16305350e-15 0.00000000e+00 2.61240157e-13 0.00000000e+00 2.16305350e-15
5.49540874e+01 1.78675417e-13 1.42911527e-15 0.00000000e+00 1.77246301e-13 0.00000000e+00 1.42911527e-15
6.30957344e+01 1.15343608e-13 9.44207098e-16 0.00000000e+00 1.14399400e-13 0.00000000e+00 9.44207098e-16
7.24435960e+01 7.15244063e-14 6.23831443e-16 0.00000000e+00 7.09005748e-14 0.00000000e+00 6.23831443e-16
8.31763771e+01 4.29612743e-14 4.12161347e-16 0.00000000e+00 4.25491130e-14 0.00000000e+00 4.12161347e-16
9.54992586e+01 2.51874298e-14 2.72312302e-16 0.00000000e+00 2.49151175e-14 0.00000000e+00 2.72312302e-16
1.09647820e+02 1.44831081e-14 1.79914953e-16 0.00000000e+00 1.43031932e-14 0.00000000e+00 1.79914953e-16
1.25892541e+02 8.28844207e-15 1.18868631e-16 0.00000000e+00 8.16957343e-15 0.00000000e+00 1.18868631e-16
1.44543977e+02 4.69783278e-15 7.85357256e-17 0.00000000e+00 4.61929706e-15 0.00000000e+00 7.85357256e-17
1.65958691e+02 2.53142837e-15 5.18880394e-17 0.00000000e+00 2.47954033e-15 0.00000000e+00 5.18880394e-17
1.90546072e+02 1.36167686e-15 3.42820876e-17 0.00000000e+00 1.32739477e-15 0.00000000e+00 3.42820876e-17
2.18776162e+02 7.29933012e-16 2.26499507e-17 0.00000000e+00 7.07283062e-16 0.00000000e+00 2.26499507e-17
2.51188643e+02 3.89521382e-16 1.49646740e-17 0.00000000e+00 3.74556708e-16 0.00000000e+00 1.49646740e-17
2.88403150e+02 2.06844772e-16 9.88706207e-18 0.00000000e+00 1.96957710e-16 0.00000000e+00 9.88706207e-18
3.31131121e+02 1.09605792e-16 6.53231713e-18 0.00000000e+00 1.03073475e-16 0.00000000e+00 6.53231713e-18
3.80189396e+02 5.79546129e-17 4.31585913e-18 0.00000000e+00 5.36387538e-17 0.00000000e+00 4.31585913e-18
4.36515832e+02 3.06514185e-17 2.85145985e-18 0.00000000e+00 2.77999587e-17 0.00000000e+00 2.85145985e-18
5.01187234e+02 1.62332540e-17 1.88394084e-18 0.00000000e+00 1.43493132e-17 0.00000000e+00 1.88394084e-18
5.75439937e+02 8.62598019e-18 1.24470737e-18 0.00000000e+00 7.38127282e-18 0.00000000e+00 1.24470737e-18
6.60693448e+02 4.60807196e-18 8.22370004e-19 0.00000000e+00 3.78570195e-18 0.00000000e+00 8.22370004e-19
7.58577575e+02 2.47993713e-18 5.43334473e-19 0.00000000e+00 1.93660266e-18 0.00000000e+00 5.43334473e-19
8.70963590e+02 1.34719976e-18 3.58977527e-19 0.00000000e+00 9.88222232e-19 0.00000000e+00 3.58977527e-19
1.00000000e+03 5.03127129e-19 0.00000000e+00 0.00000000e+00 5.03127129e-19 0.00000000e+00 0.00000000e+00
