# column 1: lambda (micron)
# column 2: total flux; lambda*F_lambda (W/m2)
# column 3: direct stellar flux; lambda*F_lambda (W/m2)
# column 4: scattered stellar flux; lambda*F_lambda (W/m2)
# column 5: total dust emission flux; lambda*F_lambda (W/m2)
# column 6: dust emission scattered flux; lambda*F_lambda (W/m2)
# column 7: transparent flux; lambda*F_lambda (W/m2)
1.00000000e-03 8.46529798e-13 8.46529401e-13 3.97006911e-19 0.00000000e+00 0.00000000e+00 8.46529401e-13
1.14815362e-03 9.99176743e-13 9.99176121e-13 6.22483720e-19 0.00000000e+00 0.00000000e+00 9.99176121e-13
1.31825674e-03 1.17934913e-12 1.17934819e-12 9.34256377e-19 0.00000000e+00 0.00000000e+00 1.17934819e-12
1.51356125e-03 1.39201047e-12 1.39200901e-12 1.45562668e-18 0.00000000e+00 0.00000000e+00 1.39200901e-12
1.73780083e-03 1.64301954e-12 1.64301696e-12 2.57588336e-18 0.00000000e+00 0.00000000e+00 1.64301696e-12
1.99526231e-03 1.93929127e-12 1.93928682e-12 4.44716502e-18 0.00000000e+00 0.00000000e+00 1.93928682e-12
2.29086765e-03 2.28898721e-12 2.28898025e-12 6.95762646e-18 0.00000000e+00 0.00000000e+00 2.28898025e-12
2.63026799e-03 2.70174461e-12 2.70173063e-12 1.39858371e-17 0.00000000e+00 0.00000000e+00 2.70173063e-12
3.01995172e-03 3.18893120e-12 3.18890841e-12 2.27901376e-17 0.00000000e+00 0.00000000e+00 3.18890841e-12
3.46736850e-03 3.76397083e-12 3.76393440e-12 3.64217529e-17 0.00000000e+00 0.00000000e+00 3.76393440e-12
3.98107171e-03 4.44270864e-12 4.44264945e-12 5.91897322e-17 0.00000000e+00 0.00000000e+00 4.44264945e-12
4.57088190e-03 5.24388254e-12 5.24375082e-12 1.31715371e-16 0.00000000e+00 0.00000000e+00 5.24375082e-12
5.24807460e-03 6.18954309e-12 6.18930730e-12 2.35785969e-16 0.00000000e+00 0.00000000e+00 6.18930730e-12
6.02559586e-03 7.31225651e-12 7.30536713e-12 6.88938261e-15 0.00000000e+00 0.00000000e+00 7.30536713e-12
6.91830971e-03 8.62855808e-12 8.62267558e-12 5.88250258e-15 0.00000000e+00 0.00000000e+00 8.62267558e-12
7.94328235e-03 1.01818484e-11 1.01775219e-11 4.32644626e-15 1.19674107e-303 5.87617754e-306 1.01775219e-11
9.12010839e-03 1.20199745e-11 1.20127391e-11 7.23533015e-15 5.41590540e-265 2.05040479e-266 1.20127391e-11
1.04712855e-02 1.34277711e-11 1.34165878e-11 1.11832762e-14 2.22301102e-231 2.28876606e-233 1.34165878e-11
1.20226443e-02 1.34384654e-11 1.34165878e-11 2.18775647e-14 3.47308679e-202 3.13140083e-204 1.34165878e-11
1.38038426e-02 1.34329402e-11 1.34165878e-11 1.63523479e-14 9.50078362e-177 1.40611023e-178 1.34165878e-11
1.58489319e-02 1.34339108e-11 1.34165878e-11 1.73229345e-14 1.29223436e-154 2.89762973e-156 1.34165878e-11
1.81970086e-02 1.34385403e-11 1.34165878e-11 2.19524677e-14 2.30313952e-135 5.47361899e-137 1.34165878e-11
2.08929613e-02 1.34425563e-11 1.34165878e-11 2.59684274e-14 1.20886517e-118 3.75135942e-120 1.34165878e-11
2.39883292e-02 1.34469940e-11 1.34165878e-11 3.04061516e-14 4.23047352e-104 1.35504030e-105 1.34165878e-11
2.75422870e-02 1.34531884e-11 1.34165878e-11 3.66005295e-14 1.89423658e-91 6.73520946e-93 1.34165878e-11
3.16227766e-02 1.34605424e-11 1.34165878e-11 4.39545797e-14 1.84431621e-80 6.98746292e-82 1.34165878e-11
3.63078055e-02 1.34637316e-11 1.34165878e-11 4.71438097e-14 6.39730339e-71 2.62951377e-72 1.34165878e-11
4.16869383e-02 1.34784669e-11 1.34165878e-11 6.18790365e-14 1.22149195e-62 6.35382251e-64 1.34165878e-11
4.78630092e-02 1.34974061e-11 1.34165878e-11 8.08183011e-14 1.84695991e-55 1.12889670e-56 1.34165878e-11
5.49540874e-02 1.35138500e-11 1.34165878e-11 9.72621688e-14 3.06975278e-49 2.13494173e-50 1.34165878e-11
6.30957344e-02 1.35295974e-11 1.34165878e-11 1.13009569e-13 9.83001384e-44 7.41840987e-45 1.34165878e-11
7.24435960e-02 1.35277938e-11 1.34165878e-11 1.11205963e-13 5.61825846e-39 4.01503719e-40 1.34165878e-11
8.31763771e-02 1.35255184e-11 1.34165878e-11 1.08930606e-13 5.74934540e-35 4.02494350e-36 1.34165878e-11
9.54992586e-02 1.35315746e-11 1.34165878e-11 1.14986790e-13 1.62376190e-31 1.18300382e-32 1.34165878e-11
1.09647820e-01 1.29268895e-11 1.28127470e-11 1.14142586e-13 1.39183692e-28 1.08863601e-29 1.28127470e-11
1.25892541e-01 1.20640209e-11 1.19575512e-11 1.06469656e-13 4.54465802e-26 3.52013529e-27 1.19575512e-11
1.44543977e-01 1.12510720e-11 1.11594361e-11 9.16359083e-14 6.21785867e-24 4.67472590e-25 1.11594361e-11
1.65958691e-01 1.05067656e-11 1.04145917e-11 9.21738336e-14 3.16570993e-22 2.58885435e-23 1.04145917e-11
1.90546072e-01 9.82465287e-12 9.71946251e-12 1.05190346e-13 6.68526569e-21 6.42686066e-22 9.71946251e-12
2.18776162e-01 9.17867606e-12 9.07073019e-12 1.07945791e-13 7.89140570e-20 7.90711782e-21 9.07073019e-12
2.51188643e-01 8.58768749e-12 8.46529796e-12 1.22388557e-13 9.67979911e-19 1.16055266e-19 8.46529796e-12
2.88403150e-01 8.01251020e-12 7.90027573e-12 1.12226384e-13 8.08260801e-18 9.51262714e-19 7.90027573e-12
3.31131121e-01 7.47465698e-12 7.37296631e-12 1.01644310e-13 4.63685926e-17 5.23578758e-18 7.37296631e-12
3.80189396e-01 6.97133314e-12 6.88085251e-12 9.02868124e-14 1.93815181e-16 2.15270008e-17 6.88085251e-12
4.36515832e-01 6.50731207e-12 6.42158520e-12 8.51110506e-14 6.15814774e-16 6.75216490e-17 6.42158520e-12
5.01187234e-01 6.07340161e-12 5.99297201e-12 7.88743950e-14 1.55520656e-15 1.71147058e-16 5.99297201e-12
5.75439937e-01 5.66784415e-12 5.59296690e-12 7.15839543e-14 3.29329306e-15 3.59854537e-16 5.59296690e-12
6.60693448e-01 5.29256393e-12 5.21966041e-12 6.66328574e-14 6.27065546e-15 7.17846885e-16 5.21966041e-12
7.58577575e-01 4.94450904e-12 4.87127053e-12 6.15707566e-14 1.16677555e-14 1.45647260e-15 4.87127053e-12
8.70963590e-01 4.62586304e-12 4.54613417e-12 5.74626674e-14 2.22662046e-14 3.00119813e-15 4.54613417e-12
1.00000000e+00 4.33510424e-12 4.24269927e-12 4.87970397e-14 4.36079349e-14 6.13581067e-15 4.24269927e-12
1.14815362e+00 4.08677450e-12 3.95951734e-12 4.10980748e-14 8.61590837e-14 1.19355638e-14 3.95951734e-12
1.31825674e+00 3.89689717e-12 3.69523659e-12 3.64596832e-14 1.65200900e-13 2.13194341e-14 3.69523659e-12
1.51356125e+00 3.77339473e-12 3.44859544e-12 2.87376286e-14 2.96061666e-13 3.44963862e-14 3.44859544e-12
1.73780083e+00 3.72164336e-12 3.21841652e-12 2.32320801e-14 4.79994758e-13 4.82234998e-14 3.21841652e-12
1.99526231e+00 3.72370931e-12 3.00360106e-12 1.72753774e-14 7.02832874e-13 5.80336102e-14 3.00360106e-12
2.29086765e+00 3.74748145e-12 2.80312361e-12 1.23651223e-14 9.31992723e-13 5.99394286e-14 2.80312361e-12
2.63026799e+00 3.75331672e-12 2.61602716e-12 8.56632007e-15 1.12872323e-12 5.37392638e-14 2.61602716e-12
3.01995172e+00 3.71408763e-12 2.44141860e-12 5.63523863e-15 1.26703379e-12 4.31934036e-14 2.44141860e-12
3.46736850e+00 3.61382331e-12 2.27846441e-12 3.67270337e-15 1.33168619e-12 3.11778793e-14 2.27846441e-12
3.98107171e+00 3.44822035e-12 2.12638671e-12 2.21609000e-15 1.31961755e-12 2.06394757e-14 2.12638671e-12
4.57088190e+00 3.23001173e-12 1.98445954e-12 1.31401582e-15 1.24423817e-12 1.25938171e-14 1.98445954e-12
5.24807460e+00 2.77502657e-12 1.64084388e-12 6.96700272e-16 1.13348599e-12 7.20727170e-15 1.64084388e-12
6.02559586e+00 2.10038873e-12 1.08409480e-12 2.80133169e-16 1.01601380e-12 3.91449857e-15 1.08409480e-12
6.70000000e+00 1.71297152e-12 7.88574724e-13 1.34513369e-16 9.24262285e-13 2.33610682e-15 7.88574724e-13
6.92422916e+00 1.60973253e-12 7.14418944e-13 1.08938681e-16 8.95204645e-13 1.97310085e-15 7.14418944e-13
7.15596261e+00 1.52386225e-12 6.47236606e-13 8.56207285e-17 8.76540023e-13 1.66361052e-15 6.47236606e-13
7.39545150e+00 1.46866462e-12 5.86371942e-13 6.43000748e-17 8.82228380e-13 1.42504955e-15 5.86371942e-13
7.64295536e+00 1.48753399e-12 5.31230854e-13 4.76990955e-17 9.56255439e-13 1.23817626e-15 5.31230854e-13
7.89874245e+00 1.61741319e-12 4.81275108e-13 3.26742725e-17 1.13610541e-12 1.11564022e-15 4.81275108e-13
8.16308998e+00 1.83256046e-12 4.36017088e-13 2.18245166e-17 1.39652155e-12 1.00843104e-15 4.36017088e-13
8.43628443e+00 2.14976504e-12 3.95015029e-13 1.35267825e-17 1.75473648e-12 8.64555486e-16 3.95015029e-13
8.71862190e+00 2.36162031e-12 3.57868711e-13 8.32083765e-18 2.00374328e-12 6.81007063e-16 3.57868711e-13
9.01040836e+00 2.58230969e-12 3.24215549e-13 4.42026509e-18 2.25808972e-12 4.54349496e-16 3.24215549e-13
9.31196005e+00 2.74349739e-12 2.93727053e-13 0.00000000e+00 2.44977034e-12 0.00000000e+00 2.93727053e-13
9.62360379e+00 2.69773108e-12 2.66105627e-13 0.00000000e+00 2.43162545e-12 0.00000000e+00 2.66105627e-13
9.94567731e+00 2.50315737e-12 2.41081657e-13 0.00000000e+00 2.26207572e-12 0.00000000e+00 2.41081657e-13
1.02785297e+01 2.27406140e-12 2.18410884e-13 0.00000000e+00 2.05565052e-12 0.00000000e+00 2.18410884e-13
1.06225216e+01 2.04829803e-12 1.97872020e-13 0.00000000e+00 1.85042601e-12 0.00000000e+00 1.97872020e-13
1.09780260e+01 1.80390465e-12 1.79264583e-13 0.00000000e+00 1.62464007e-12 0.00000000e+00 1.79264583e-13
1.13454280e+01 1.59369939e-12 1.62406948e-13 0.00000000e+00 1.43129244e-12 0.00000000e+00 1.62406948e-13
1.17251259e+01 1.41441919e-12 1.47134567e-13 0.00000000e+00 1.26728463e-12 0.00000000e+00 1.47134567e-13
1.21175312e+01 1.25247890e-12 1.33298366e-13 0.00000000e+00 1.11918054e-12 0.00000000e+00 1.33298366e-13
1.25230691e+01 1.10770671e-12 1.20763289e-13 0.00000000e+00 9.86943425e-13 0.00000000e+00 1.20763289e-13
1.29421791e+01 9.87337972e-13 1.09406983e-13 0.00000000e+00 8.77930989e-13 0.00000000e+00 1.09406983e-13
1.33753155e+01 8.84724651e-13 9.91185987e-14 0.00000000e+00 7.85606052e-13 0.00000000e+00 9.91185987e-14
1.38229477e+01 8.16252024e-13 8.97977103e-14 0.00000000e+00 7.26454314e-13 0.00000000e+00 8.97977103e-14
1.42855609e+01 7.75957515e-13 8.13533371e-14 0.00000000e+00 6.94604177e-13 0.00000000e+00 8.13533371e-14
1.47636563e+01 7.80273951e-13 7.37030537e-14 0.00000000e+00 7.06570898e-13 0.00000000e+00 7.37030537e-14
1.52577522e+01 7.95044785e-13 6.67721855e-14 0.00000000e+00 7.28272600e-13 0.00000000e+00 6.67721855e-14
1.57683840e+01 8.19540381e-13 6.04930805e-14 0.00000000e+00 7.59047300e-13 0.00000000e+00 6.04930805e-14
1.62961051e+01 8.45114102e-13 5.48044484e-14 0.00000000e+00 7.90309654e-13 0.00000000e+00 5.48044484e-14
1.68414875e+01 8.71951163e-13 4.96507622e-14 0.00000000e+00 8.22300401e-13 0.00000000e+00 4.96507622e-14
1.74051222e+01 8.85823699e-13 4.49817171e-14 0.00000000e+00 8.40841981e-13 0.00000000e+00 4.49817171e-14
1.79876201e+01 8.90621963e-13 4.07517384e-14 0.00000000e+00 8.49870224e-13 0.00000000e+00 4.07517384e-14
1.85896125e+01 8.77457460e-13 3.69195372e-14 0.00000000e+00 8.40537923e-13 0.00000000e+00 3.69195372e-14
1.92117518e+01 8.49053608e-13 3.34477076e-14 0.00000000e+00 8.15605900e-13 0.00000000e+00 3.34477076e-14
1.98547123e+01 8.11733610e-13 3.03023610e-14 0.00000000e+00 7.81431249e-13 0.00000000e+00 3.03023610e-14
2.05191907e+01 7.70860943e-13 2.74527957e-14 0.00000000e+00 7.43408147e-13 0.00000000e+00 2.74527957e-14
2.12059073e+01 7.32312229e-13 2.48711970e-14 0.00000000e+00 7.07441032e-13 0.00000000e+00 2.48711970e-14
2.19156062e+01 6.98641032e-13 2.25323660e-14 0.00000000e+00 6.76108666e-13 0.00000000e+00 2.25323660e-14
2.26490567e+01 6.66480993e-13 2.04134733e-14 0.00000000e+00 6.46067519e-13 0.00000000e+00 2.04134733e-14
2.34070535e+01 6.37609130e-13 1.84938366e-14 0.00000000e+00 6.19115293e-13 0.00000000e+00 1.84938366e-14
2.41904183e+01 6.10145410e-13 1.67547181e-14 0.00000000e+00 5.93390692e-13 0.00000000e+00 1.67547181e-14
2.50000000e+01 5.83797329e-13 1.51791424e-14 0.00000000e+00 5.68618186e-13 0.00000000e+00 1.51791424e-14
2.75422870e+01 5.11585498e-13 1.13518661e-14 0.00000000e+00 5.00233632e-13 0.00000000e+00 1.13518661e-14
3.16227766e+01 4.15787534e-13 7.50010357e-15 0.00000000e+00 4.08287431e-13 0.00000000e+00 7.50010357e-15
3.63078055e+01 3.21641828e-13 4.95526929e-15 0.00000000e+00 3.16686558e-13 0.00000000e+00 4.95526929e-15
4.16869383e+01 2.32841692e-13 3.27391395e-15 0.00000000e+00 2.29567778e-13 0.00000000e+00 3.27391395e-15
4.78630092e+01 1.57584795e-13 2.16305350e-15 0.00000000e+00 1.55421741e-13 0.00000000e+00 2.16305350e-15
5.49540874e+01 1.00890982e-13 1.42911527e-15 0.00000000e+00 9.94618671e-14 0.00000000e+00 1.42911527e-15
6.30957344e+01 6.18609604e-14 9.44207098e-16 0.00000000e+00 6.09167533e-14 0.00000000e+00 9.44207098e-16
7.24435960e+01 3.66655938e-14 6.23831443e-16 0.00000000e+00 3.60417623e-14 0.00000000e+00 6.23831443e-16
8.31763771e+01 2.11845793e-14 4.12161347e-16 0.00000000e+00 2.07724179e-14 0.00000000e+00 4.12161347e-16
9.54992586e+01 1.20200811e-14 2.72312302e-16 0.00000000e+00 1.17477688e-14 0.00000000e+00 2.72312302e-16
1.09647820e+02 6.72619118e-15 1.79914953e-16 0.00000000e+00 6.54627623e-15 0.00000000e+00 1.79914953e-16
1.25892541e+02 3.76603561e-15 1.18868631e-16 0.00000000e+00 3.64716698e-15 0.00000000e+00 1.18868631e-16
1.44543977e+02 2.09800569e-15 7.85357256e-17 0.00000000e+00 2.01946996e-15 0.00000000e+00 7.85357256e-17
1.65958691e+02 1.11557255e-15 5.18880394e-17 0.00000000e+00 1.06368451e-15 0.00000000e+00 5.18880394e-17
1.90546072e+02 5.94767367e-16 3.42820876e-17 0.00000000e+00 5.60485279e-16 0.00000000e+00 3.42820876e-17
2.18776162e+02 3.17339966e-16 2.26499507e-17 0.00000000e+00 2.94690015e-16 0.00000000e+00 2.26499507e-17
2.51188643e+02 1.69272345e-16 1.49646740e-17 0.00000000e+00 1.54307671e-16 0.00000000e+00 1.49646740e-17
2.88403150e+02 9.02546672e-17 9.88706207e-18 0.00000000e+00 8.03676051e-17 0.00000000e+00 9.88706207e-18
3.31131121e+02 4.82481145e-17 6.53231713e-18 0.00000000e+00 4.17157974e-17 0.00000000e+00 6.53231713e-18
3.80189396e+02 2.58732051e-17 4.31585913e-18 0.00000000e+00 2.15573459e-17 0.00000000e+00 4.31585913e-18
4.36515832e+02 1.39578297e-17 2.85145985e-18 0.00000000e+00 1.11063698e-17 0.00000000e+00 2.85145985e-18
5.01187234e+02 7.58744221e-18 1.88394084e-18 0.00000000e+00 5.70350137e-18 0.00000000e+00 1.88394084e-18
5.75439937e+02 4.16576633e-18 1.24470737e-18 0.00000000e+00 2.92105896e-18 0.00000000e+00 1.24470737e-18
6.60693448e+02 2.31489461e-18 8.22370004e-19 0.00000000e+00 1.49252460e-18 0.00000000e+00 8.22370004e-19
7.58577575e+02 1.30438339e-18 5.43334473e-19 0.00000000e+00 7.61048914e-19 0.00000000e+00 5.43334473e-19
8.70963590e+02 7.46251625e-19 3.58977527e-19 0.00000000e+00 3.87274098e-19 0.00000000e+00 3.58977527e-19
1.00000000e+03 1.96697976e-19 0.00000000e+00 0.00000000e+00 1.96697976e-19 0.00000000e+00 0.00000000e+00
