# column 1: lambda (micron)
# column 2: total flux; lambda*F_lambda (W/m2)
# column 3: direct stellar flux; lambda*F_lambda (W/m2)
# column 4: scattered stellar flux; lambda*F_lambda (W/m2)
# column 5: total dust emission flux; lambda*F_lambda (W/m2)
# column 6: dust emission scattered flux; lambda*F_lambda (W/m2)
# column 7: transparent flux; lambda*F_lambda (W/m2)
1.00000000e-03 1.07336726e-12 1.07335627e-12 1.09906279e-17 0.00000000e+00 0.00000000e+00 1.07335627e-12
1.14815362e-03 1.26692135e-12 1.26690456e-12 1.67913955e-17 0.00000000e+00 0.00000000e+00 1.26690456e-12
1.31825674e-03 1.49537784e-12 1.49535359e-12 2.42492891e-17 0.00000000e+00 0.00000000e+00 1.49535359e-12
1.51356125e-03 1.76503253e-12 1.76499670e-12 3.58302504e-17 0.00000000e+00 0.00000000e+00 1.76499670e-12
1.73780083e-03 2.08332476e-12 2.08326203e-12 6.27342972e-17 0.00000000e+00 0.00000000e+00 2.08326203e-12
1.99526231e-03 2.45901458e-12 2.45891716e-12 9.74253668e-17 0.00000000e+00 0.00000000e+00 2.45891716e-12
2.29086765e-03 2.90245906e-12 2.90231066e-12 1.48391629e-16 0.00000000e+00 0.00000000e+00 2.90231066e-12
2.63026799e-03 3.42593761e-12 3.42565717e-12 2.80436787e-16 0.00000000e+00 0.00000000e+00 3.42565717e-12
3.01995172e-03 4.04379465e-12 4.04337385e-12 4.20799984e-16 0.00000000e+00 0.00000000e+00 4.04337385e-12
3.46736850e-03 4.77310128e-12 4.77247759e-12 6.23692754e-16 0.00000000e+00 0.00000000e+00 4.77247759e-12
3.98107171e-03 5.63404093e-12 5.63305378e-12 9.87147020e-16 0.00000000e+00 0.00000000e+00 5.63305378e-12
4.57088190e-03 6.65149967e-12 6.64880962e-12 2.69004566e-15 0.00000000e+00 0.00000000e+00 6.64880962e-12
5.24807460e-03 7.85239273e-12 7.84772720e-12 4.66552841e-15 0.00000000e+00 0.00000000e+00 7.84772720e-12
6.02559586e-03 9.27490918e-12 9.26283435e-12 1.20748236e-14 0.00000000e+00 0.00000000e+00 9.26283435e-12
6.91830971e-03 1.09436301e-11 1.09331145e-11 1.05155481e-14 0.00000000e+00 0.00000000e+00 1.09331145e-11
7.94328235e-03 1.29224983e-11 1.29045807e-11 1.79175692e-14 1.75328389e-303 1.20086300e-305 1.29045807e-11
9.12010839e-03 1.52634542e-11 1.52315429e-11 3.19112760e-14 9.65689575e-265 1.02924149e-266 1.52315429e-11
1.04712855e-02 1.70808857e-11 1.70115517e-11 6.93340232e-14 5.03919312e-231 1.29514049e-232 1.70115517e-11
1.20226443e-02 1.70696998e-11 1.70115517e-11 5.81481157e-14 9.36742086e-202 2.52246507e-203 1.70115517e-11
1.38038426e-02 1.70903010e-11 1.70115517e-11 7.87492373e-14 2.94516094e-176 6.76711918e-178 1.70115517e-11
1.58489319e-02 1.71530013e-11 1.70115517e-11 1.41449546e-13 4.56293554e-154 1.40381360e-155 1.70115517e-11
1.81970086e-02 1.71689276e-11 1.70115517e-11 1.57375911e-13 9.10362206e-135 2.86826940e-136 1.70115517e-11
2.08929613e-02 1.72174737e-11 1.70115517e-11 2.05922032e-13 5.27426090e-118 2.04384599e-119 1.70115517e-11
2.39883292e-02 1.72702498e-11 1.70115517e-11 2.58698117e-13 2.02162315e-103 8.92705696e-105 1.70115517e-11
2.75422870e-02 1.73241380e-11 1.70115517e-11 3.12586240e-13 9.80306348e-91 5.13737040e-92 1.70115517e-11
3.16227766e-02 1.73491786e-11 1.70115517e-11 3.37626862e-13 1.02100442e-79 5.81018348e-81 1.70115517e-11
3.63078055e-02 1.73740486e-11 1.70115517e-11 3.62496890e-13 3.74601179e-70 2.22827877e-71 1.70115517e-11
4.16869383e-02 1.74619124e-11 1.70115517e-11 4.50360671e-13 7.53681854e-62 5.38823979e-63 1.70115517e-11
4.78630092e-02 1.74790638e-11 1.70115517e-11 4.67512132e-13 1.18995195e-54 9.61192403e-56 1.70115517e-11
5.49540874e-02 1.74807425e-11 1.70115517e-11 4.69190796e-13 2.04004582e-48 1.69241794e-49 1.70115517e-11
6.30957344e-02 1.73992676e-11 1.70115517e-11 3.87715917e-13 6.70085701e-43 5.46623008e-44 1.70115517e-11
7.24435960e-02 1.73248695e-11 1.70115517e-11 3.13317789e-13 3.91109083e-38 2.73520010e-39 1.70115517e-11
8.31763771e-02 1.73025315e-11 1.70115517e-11 2.90979809e-13 4.09987480e-34 2.78975740e-35 1.70115517e-11
9.54992586e-02 1.73080016e-11 1.70115517e-11 2.96449920e-13 1.18322284e-30 8.24656022e-32 1.70115517e-11
1.09647820e-01 1.65882100e-11 1.62459122e-11 3.42297803e-13 1.03702263e-27 8.19042491e-29 1.62459122e-11
1.25892541e-01 1.55280818e-11 1.51615674e-11 3.66514373e-13 3.46393732e-25 2.96310925e-26 1.51615674e-11
1.44543977e-01 1.45183581e-11 1.41495980e-11 3.68760099e-13 4.81280936e-23 4.09259868e-24 1.41495980e-11
1.65958691e-01 1.35733562e-11 1.32051732e-11 3.68183039e-13 2.48241500e-21 2.30509004e-22 1.32051732e-11
1.90546072e-01 1.26789658e-11 1.23237846e-11 3.55181075e-13 5.27334182e-20 5.39196242e-21 1.23237846e-11
2.18776162e-01 1.17858674e-11 1.15012250e-11 2.84641708e-13 6.22339062e-19 6.08132080e-20 1.15012250e-11
2.51188643e-01 1.10591477e-11 1.07335677e-11 3.25572327e-13 7.69913244e-18 9.09639102e-19 1.07335677e-11
2.88403150e-01 1.03536105e-11 1.00171482e-11 3.36397484e-13 6.48192308e-17 7.63575094e-18 1.00171482e-11
3.31131121e-01 9.67806065e-12 9.34854667e-12 3.29139258e-13 3.74715677e-16 4.33645897e-17 9.34854667e-12
3.80189396e-01 9.04568041e-12 8.72457139e-12 3.19539112e-13 1.56990946e-15 1.76845174e-16 8.72457139e-12
4.36515832e-01 8.44872576e-12 8.14224377e-12 3.01487553e-13 4.99443588e-15 5.57250182e-16 8.14224377e-12
5.01187234e-01 7.90164126e-12 7.59878402e-12 2.90309526e-13 1.25477119e-14 1.38558474e-15 7.59878402e-12
5.75439937e-01 7.38397834e-12 7.09159786e-12 2.66367526e-13 2.60129520e-14 2.87959857e-15 7.09159786e-12
6.60693448e-01 6.91294808e-12 6.61826421e-12 2.47695647e-13 4.69882297e-14 5.57119483e-15 6.61826421e-12
7.58577575e-01 6.49376891e-12 6.17652353e-12 2.36746380e-13 8.04989958e-14 1.15660356e-14 6.17652353e-12
8.70963590e-01 6.11921747e-12 5.76426715e-12 2.16668631e-13 1.38281688e-13 2.57114841e-14 5.76426715e-12
1.00000000e+00 5.82719375e-12 5.37952711e-12 1.95547946e-13 2.52118690e-13 5.75344518e-14 5.37952711e-12
1.14815362e+00 5.69893558e-12 5.02046681e-12 1.71444877e-13 5.07023888e-13 1.23010802e-13 5.02046681e-12
1.31825674e+00 5.84934669e-12 4.68537225e-12 1.45621439e-13 1.01835300e-12 2.37746068e-13 4.68537225e-12
1.51356125e+00 6.47606066e-12 4.37264380e-12 1.23548101e-13 1.97986876e-12 4.17368928e-13 4.37264380e-12
1.73780083e+00 7.70317357e-12 4.08078863e-12 1.03180377e-13 3.51920456e-12 6.39192218e-13 4.08078863e-12
1.99526231e+00 9.56681469e-12 3.80841354e-12 8.32084552e-14 5.67519269e-12 8.49886031e-13 3.80841354e-12
2.29086765e+00 1.17871441e-11 3.55421832e-12 6.30638450e-14 8.16986197e-12 9.71493374e-13 3.55421832e-12
2.63026799e+00 1.41064611e-11 3.31698953e-12 4.62190887e-14 1.07432525e-11 9.66850575e-13 3.31698953e-12
3.01995172e+00 1.61104207e-11 3.09559474e-12 3.16749603e-14 1.29831510e-11 8.45452456e-13 3.09559474e-12
3.46736850e+00 1.77121223e-11 2.88897711e-12 2.09625034e-14 1.48021827e-11 6.63821074e-13 2.88897711e-12
3.98107171e+00 1.85531743e-11 2.69615031e-12 1.32391766e-14 1.58437849e-11 4.65588450e-13 2.69615031e-12
4.57088190e+00 1.86554219e-11 2.51619387e-12 8.10894965e-15 1.61311191e-11 2.95718593e-13 2.51619387e-12
5.24807460e+00 1.77974219e-11 2.08050667e-12 4.26633975e-15 1.57126489e-11 1.75829970e-13 2.08050667e-12
6.02559586e+00 1.61209089e-11 1.37457712e-12 1.73728419e-15 1.47445945e-11 9.68686171e-14 1.37457712e-12
6.70000000e+00 1.47543157e-11 9.99872685e-13 8.40267509e-16 1.37536028e-11 5.80846534e-14 9.99872685e-13
6.92422916e+00 1.43021944e-11 9.05846924e-13 6.61064079e-16 1.33956864e-11 4.89235408e-14 9.05846924e-13
7.15596261e+00 1.39393422e-11 8.20663132e-13 5.16917846e-16 1.31181621e-11 4.10619247e-14 8.20663132e-13
7.39545150e+00 1.38391282e-11 7.43489831e-13 3.91813604e-16 1.30952466e-11 3.46060722e-14 7.43489831e-13
7.64295536e+00 1.43663281e-11 6.73573732e-13 2.81532483e-16 1.36924729e-11 2.98553698e-14 6.73573732e-13
7.89874245e+00 1.57634614e-11 6.10232385e-13 1.83781903e-16 1.51530452e-11 2.60137185e-14 6.10232385e-13
8.16308998e+00 1.75755167e-11 5.52847515e-13 1.09976455e-16 1.70225592e-11 2.21599052e-14 5.52847515e-13
8.43628443e+00 1.95838378e-11 5.00858987e-13 5.66400066e-17 1.90829221e-11 1.72029915e-14 5.00858987e-13
8.71862190e+00 2.05872479e-11 4.53759343e-13 2.78655463e-17 2.01334607e-11 1.21986552e-14 4.53759343e-13
9.01040836e+00 2.14408316e-11 4.11088843e-13 8.62163094e-18 2.10297342e-11 6.58701395e-15 4.11088843e-13
9.31196005e+00 2.18926327e-11 3.72430980e-13 0.00000000e+00 2.15202017e-11 0.00000000e+00 3.72430980e-13
9.62360379e+00 2.15998315e-11 3.37408415e-13 0.00000000e+00 2.12624231e-11 0.00000000e+00 3.37408415e-13
9.94567731e+00 2.08471940e-11 3.05679292e-13 0.00000000e+00 2.05415147e-11 0.00000000e+00 3.05679292e-13
1.02785297e+01 1.98192628e-11 2.76933904e-13 0.00000000e+00 1.95423289e-11 0.00000000e+00 2.76933904e-13
1.06225216e+01 1.87535410e-11 2.50891667e-13 0.00000000e+00 1.85026493e-11 0.00000000e+00 2.50891667e-13
1.09780260e+01 1.73877055e-11 2.27298384e-13 0.00000000e+00 1.71604071e-11 0.00000000e+00 2.27298384e-13
1.13454280e+01 1.60493349e-11 2.05923759e-13 0.00000000e+00 1.58434112e-11 0.00000000e+00 2.05923759e-13
1.17251259e+01 1.47760871e-11 1.86559155e-13 0.00000000e+00 1.45895279e-11 0.00000000e+00 1.86559155e-13
1.21175312e+01 1.34773140e-11 1.69015555e-13 0.00000000e+00 1.33082984e-11 0.00000000e+00 1.69015555e-13
1.25230691e+01 1.22874017e-11 1.53121715e-13 0.00000000e+00 1.21342800e-11 0.00000000e+00 1.53121715e-13
1.29421791e+01 1.10946863e-11 1.38722496e-13 0.00000000e+00 1.09559638e-11 0.00000000e+00 1.38722496e-13
1.33753155e+01 1.00437727e-11 1.25677347e-13 0.00000000e+00 9.91809537e-12 0.00000000e+00 1.25677347e-13
1.38229477e+01 9.29305687e-12 1.13858934e-13 0.00000000e+00 9.17919793e-12 0.00000000e+00 1.13858934e-13
1.42855609e+01 8.80108420e-12 1.03151898e-13 0.00000000e+00 8.69793230e-12 0.00000000e+00 1.03151898e-13
1.47636563e+01 8.73993477e-12 9.34517274e-14 0.00000000e+00 8.64648305e-12 0.00000000e+00 9.34517274e-14
1.52577522e+01 8.76219634e-12 8.46637387e-14 0.00000000e+00 8.67753260e-12 0.00000000e+00 8.46637387e-14
1.57683840e+01 8.83218084e-12 7.67021526e-14 0.00000000e+00 8.75547869e-12 0.00000000e+00 7.67021526e-14
1.62961051e+01 8.90849853e-12 6.94892560e-14 0.00000000e+00 8.83900927e-12 0.00000000e+00 6.94892560e-14
1.68414875e+01 8.94920434e-12 6.29546439e-14 0.00000000e+00 8.88624970e-12 0.00000000e+00 6.29546439e-14
1.74051222e+01 8.86711416e-12 5.70345319e-14 0.00000000e+00 8.81007963e-12 0.00000000e+00 5.70345319e-14
1.79876201e+01 8.67313233e-12 5.16711337e-14 0.00000000e+00 8.62146119e-12 0.00000000e+00 5.16711337e-14
1.85896125e+01 8.33834081e-12 4.68120974e-14 0.00000000e+00 8.29152871e-12 0.00000000e+00 4.68120974e-14
1.92117518e+01 7.89304733e-12 4.24099939e-14 0.00000000e+00 7.85063734e-12 0.00000000e+00 4.24099939e-14
1.98547123e+01 7.37262770e-12 3.84218542e-14 0.00000000e+00 7.33420585e-12 0.00000000e+00 3.84218542e-14
2.05191907e+01 6.82976726e-12 3.48087501e-14 0.00000000e+00 6.79495851e-12 0.00000000e+00 3.48087501e-14
2.12059073e+01 6.32440929e-12 3.15354141e-14 0.00000000e+00 6.29287388e-12 0.00000000e+00 3.15354141e-14
2.19156062e+01 5.85725592e-12 2.85698952e-14 0.00000000e+00 5.82868602e-12 0.00000000e+00 2.85698952e-14
2.26490567e+01 5.40956946e-12 2.58832470e-14 0.00000000e+00 5.38368622e-12 0.00000000e+00 2.58832470e-14
2.34070535e+01 5.00625079e-12 2.34492452e-14 0.00000000e+00 4.98280155e-12 0.00000000e+00 2.34492452e-14
2.41904183e+01 4.62145471e-12 2.12441313e-14 0.00000000e+00 4.60021057e-12 0.00000000e+00 2.12441313e-14
2.50000000e+01 4.27074906e-12 1.92463813e-14 0.00000000e+00 4.25150268e-12 0.00000000e+00 1.92463813e-14
2.75422870e+01 3.34653309e-12 1.43935895e-14 0.00000000e+00 3.33213950e-12 0.00000000e+00 1.43935895e-14
3.16227766e+01 2.30492044e-12 9.50975027e-15 0.00000000e+00 2.29541069e-12 0.00000000e+00 9.50975027e-15
3.63078055e+01 1.51770703e-12 6.28302969e-15 0.00000000e+00 1.51142400e-12 0.00000000e+00 6.28302969e-15
4.16869383e+01 9.44031574e-13 4.15115655e-15 0.00000000e+00 9.39880418e-13 0.00000000e+00 4.15115655e-15
4.78630092e+01 5.54674157e-13 2.74264194e-15 0.00000000e+00 5.51931515e-13 0.00000000e+00 2.74264194e-15
5.49540874e+01 3.12259874e-13 1.81204556e-15 0.00000000e+00 3.10447828e-13 0.00000000e+00 1.81204556e-15
6.30957344e+01 1.70557998e-13 1.19720663e-15 0.00000000e+00 1.69360792e-13 0.00000000e+00 1.19720663e-15
7.24435960e+01 9.11428330e-14 7.90986575e-16 0.00000000e+00 9.03518464e-14 0.00000000e+00 7.90986575e-16
8.31763771e+01 4.80514497e-14 5.22599647e-16 0.00000000e+00 4.75288501e-14 0.00000000e+00 5.22599647e-16
9.54992586e+01 2.51636429e-14 3.45278163e-16 0.00000000e+00 2.48183647e-14 0.00000000e+00 3.45278163e-16
1.09647820e+02 1.31308806e-14 2.28123020e-16 0.00000000e+00 1.29027576e-14 0.00000000e+00 2.28123020e-16
1.25892541e+02 6.92351621e-15 1.50719385e-16 0.00000000e+00 6.77279683e-15 0.00000000e+00 1.50719385e-16
1.44543977e+02 3.66276321e-15 9.95793099e-17 0.00000000e+00 3.56318390e-15 0.00000000e+00 9.95793099e-17
1.65958691e+02 1.85861989e-15 6.57913976e-17 0.00000000e+00 1.79282849e-15 0.00000000e+00 6.57913976e-17
1.90546072e+02 9.51837620e-16 4.34679453e-17 0.00000000e+00 9.08369674e-16 0.00000000e+00 4.34679453e-17
2.18776162e+02 4.90508726e-16 2.87189867e-17 0.00000000e+00 4.61789739e-16 0.00000000e+00 2.87189867e-17
2.51188643e+02 2.53870545e-16 1.89744463e-17 0.00000000e+00 2.34896098e-16 0.00000000e+00 1.89744463e-17
2.88403150e+02 1.31863872e-16 1.25362924e-17 0.00000000e+00 1.19327579e-16 0.00000000e+00 1.25362924e-17
3.31131121e+02 6.89033112e-17 8.28264623e-18 0.00000000e+00 6.06206650e-17 0.00000000e+00 8.28264623e-18
3.80189396e+02 3.62225631e-17 5.47229010e-18 0.00000000e+00 3.07502730e-17 0.00000000e+00 5.47229010e-18
4.36515832e+02 1.92063239e-17 3.61550621e-18 0.00000000e+00 1.55908177e-17 0.00000000e+00 3.61550621e-18
5.01187234e+02 1.02850779e-17 2.38874127e-18 0.00000000e+00 7.89633664e-18 0.00000000e+00 2.38874127e-18
5.75439937e+02 5.57432377e-18 1.57822570e-18 0.00000000e+00 3.99609806e-18 0.00000000e+00 1.57822570e-18
6.60693448e+02 3.06354361e-18 1.04272338e-18 0.00000000e+00 2.02082023e-18 0.00000000e+00 1.04272338e-18
7.58577575e+02 1.71017858e-18 6.88920507e-19 0.00000000e+00 1.02125807e-18 0.00000000e+00 6.88920507e-19
8.70963590e+02 9.70846442e-19 4.55165265e-19 0.00000000e+00 5.15681177e-19 0.00000000e+00 4.55165265e-19
1.00000000e+03 2.60166323e-19 0.00000000e+00 0.00000000e+00 2.60166323e-19 0.00000000e+00 0.00000000e+00
