# column 1: lambda (micron)
# column 2: total flux; lambda*F_lambda (W/m2)
# column 3: direct stellar flux; lambda*F_lambda (W/m2)
# column 4: scattered stellar flux; lambda*F_lambda (W/m2)
# column 5: total dust emission flux; lambda*F_lambda (W/m2)
# column 6: dust emission scattered flux; lambda*F_lambda (W/m2)
# column 7: transparent flux; lambda*F_lambda (W/m2)
1.00000000e-03 3.57785612e-13 3.57785423e-13 1.88828297e-19 0.00000000e+00 0.00000000e+00 3.57785423e-13
1.14815362e-03 4.22301824e-13 4.22301518e-13 3.05309919e-19 0.00000000e+00 0.00000000e+00 4.22301518e-13
1.31825674e-03 4.98451595e-13 4.98451197e-13 3.98682547e-19 0.00000000e+00 0.00000000e+00 4.98451197e-13
1.51356125e-03 5.88332940e-13 5.88332233e-13 7.06300820e-19 0.00000000e+00 0.00000000e+00 5.88332233e-13
1.73780083e-03 6.94421970e-13 6.94420676e-13 1.29410388e-18 0.00000000e+00 0.00000000e+00 6.94420676e-13
1.99526231e-03 8.19641309e-13 8.19639053e-13 2.25535912e-18 0.00000000e+00 0.00000000e+00 8.19639053e-13
2.29086765e-03 9.67440458e-13 9.67436888e-13 3.56942316e-18 0.00000000e+00 0.00000000e+00 9.67436888e-13
2.63026799e-03 1.14189298e-12 1.14188572e-12 7.25418580e-18 0.00000000e+00 0.00000000e+00 1.14188572e-12
3.01995172e-03 1.34780472e-12 1.34779128e-12 1.34330457e-17 0.00000000e+00 0.00000000e+00 1.34779128e-12
3.46736850e-03 1.59084746e-12 1.59082586e-12 2.15980031e-17 0.00000000e+00 0.00000000e+00 1.59082586e-12
3.98107171e-03 1.87771785e-12 1.87768459e-12 3.32568700e-17 0.00000000e+00 0.00000000e+00 1.87768459e-12
4.57088190e-03 2.21634011e-12 2.21626987e-12 7.02332131e-17 0.00000000e+00 0.00000000e+00 2.21626987e-12
5.24807460e-03 2.61607472e-12 2.61590907e-12 1.65650779e-16 0.00000000e+00 0.00000000e+00 2.61590907e-12
6.02559586e-03 3.08886709e-12 3.08761145e-12 1.25563896e-15 0.00000000e+00 0.00000000e+00 3.08761145e-12
6.91830971e-03 3.64631083e-12 3.64437151e-12 1.93931824e-15 0.00000000e+00 0.00000000e+00 3.64437151e-12
7.94328235e-03 4.30651517e-12 4.30152690e-12 4.98826760e-15 1.17810128e-303 6.59958155e-305 4.30152690e-12
9.12010839e-03 5.08134239e-12 5.07718096e-12 4.16142274e-15 5.56597980e-265 4.72110104e-266 5.07718096e-12
1.04712855e-02 5.67752384e-12 5.67051724e-12 7.00659966e-15 2.50520581e-231 2.62578619e-232 5.67051724e-12
1.20226443e-02 5.67538624e-12 5.67051724e-12 4.86900231e-15 3.88498172e-202 2.46003199e-203 5.67051724e-12
1.38038426e-02 5.67801212e-12 5.67051724e-12 7.49488229e-15 1.15547505e-176 1.35055023e-177 5.67051724e-12
1.58489319e-02 5.68034852e-12 5.67051724e-12 9.83127931e-15 1.58922096e-154 1.84588516e-155 5.67051724e-12
1.81970086e-02 5.68168169e-12 5.67051724e-12 1.11644527e-14 2.91366198e-135 3.66898339e-136 5.67051724e-12
2.08929613e-02 5.68451475e-12 5.67051724e-12 1.39975119e-14 1.52511389e-118 1.76195666e-119 5.67051724e-12
2.39883292e-02 5.68886781e-12 5.67051724e-12 1.83505750e-14 5.38939620e-104 6.28076939e-105 5.67051724e-12
2.75422870e-02 5.69272071e-12 5.67051724e-12 2.22034721e-14 2.39788107e-91 2.64220486e-92 5.67051724e-12
3.16227766e-02 5.69363222e-12 5.67051724e-12 2.31149789e-14 2.34307814e-80 2.59469919e-81 5.67051724e-12
3.63078055e-02 5.69803151e-12 5.67051724e-12 2.75142737e-14 8.07606640e-71 8.46730881e-72 5.67051724e-12
4.16869383e-02 5.70524196e-12 5.67051724e-12 3.47247239e-14 1.55086412e-62 1.73728380e-63 5.67051724e-12
4.78630092e-02 5.70711504e-12 5.67051724e-12 3.65977985e-14 2.29146419e-55 2.52326463e-56 5.67051724e-12
5.49540874e-02 5.71191670e-12 5.67051724e-12 4.13994576e-14 3.69255470e-49 4.06228015e-50 5.67051724e-12
6.30957344e-02 5.71869261e-12 5.67051724e-12 4.81753727e-14 1.11620419e-43 1.21538465e-44 5.67051724e-12
7.24435960e-02 5.71370521e-12 5.67051724e-12 4.31879731e-14 5.98039233e-39 5.64222549e-40 5.67051724e-12
8.31763771e-02 5.71340896e-12 5.67051724e-12 4.28917203e-14 6.20260962e-35 5.61352712e-36 5.67051724e-12
9.54992586e-02 5.71429808e-12 5.67051724e-12 4.37808426e-14 1.78339681e-31 1.66585100e-32 5.67051724e-12
1.09647820e-01 5.45980896e-12 5.41530405e-12 4.45049110e-14 1.61808674e-28 1.65328639e-29 5.41530405e-12
1.25892541e-01 5.09328288e-12 5.05385580e-12 3.94270833e-14 5.55820197e-26 5.78064509e-27 5.05385580e-12
1.44543977e-01 4.75341573e-12 4.71653266e-12 3.68830696e-14 7.99917139e-24 8.12691348e-25 4.71653266e-12
1.65958691e-01 4.43645062e-12 4.40172439e-12 3.47262330e-14 4.18754925e-22 4.34428457e-23 4.40172439e-12
1.90546072e-01 4.14618982e-12 4.10792822e-12 3.82615982e-14 8.70803507e-21 9.88036206e-22 4.10792822e-12
2.18776162e-01 3.86822157e-12 3.83374167e-12 3.44797927e-14 9.85185934e-20 1.10222589e-20 3.83374167e-12
2.51188643e-01 3.61429650e-12 3.57785591e-12 3.64393356e-14 1.26142454e-18 1.54816575e-19 3.57785591e-12
2.88403150e-01 3.37106581e-12 3.33904941e-12 3.20054205e-14 1.09737381e-17 1.28220121e-18 3.33904941e-12
3.31131121e-01 3.14640939e-12 3.11618222e-12 3.01625049e-14 6.46566603e-17 7.16881509e-18 3.11618222e-12
3.80189396e-01 2.93496184e-12 2.90819046e-12 2.64954564e-14 2.75920101e-16 2.89514553e-17 2.90819046e-12
4.36515832e-01 2.73909081e-12 2.71408126e-12 2.41176186e-14 8.91930444e-16 8.87489300e-17 2.71408126e-12
5.01187234e-01 2.55633678e-12 2.53292801e-12 2.11388315e-14 2.26994116e-15 2.08710278e-16 2.53292801e-12
5.75439937e-01 2.38780262e-12 2.36386595e-12 1.91853573e-14 4.75130822e-15 4.05758827e-16 2.36386595e-12
6.60693448e-01 2.23181631e-12 2.20608807e-12 1.72893397e-14 8.43890566e-15 6.55235907e-16 2.20608807e-12
7.58577575e-01 2.08700382e-12 2.05884118e-12 1.47979512e-14 1.33646920e-14 9.68170926e-16 2.05884118e-12
8.70963590e-01 1.95311419e-12 1.92142238e-12 1.24124572e-14 1.92793519e-14 1.27663497e-15 1.92142238e-12
1.00000000e+00 1.82913474e-12 1.79317570e-12 1.00721983e-14 2.58868370e-14 1.54363836e-15 1.79317570e-12
1.14815362e+00 1.71598684e-12 1.67348894e-12 8.43563335e-15 3.40622720e-14 1.84313812e-15 1.67348894e-12
1.31825674e+00 1.61398754e-12 1.56179075e-12 6.78302899e-15 4.54137591e-14 2.22911255e-15 1.56179075e-12
1.51356125e+00 1.52520005e-12 1.45754793e-12 5.63525114e-15 6.20168674e-14 2.80239273e-15 1.45754793e-12
1.73780083e+00 1.45020847e-12 1.36026288e-12 4.37688637e-15 8.55687021e-14 3.51065233e-15 1.36026288e-12
1.99526231e+00 1.38863374e-12 1.26947118e-12 3.36199961e-15 1.15800556e-13 4.17893773e-15 1.26947118e-12
2.29086765e+00 1.33780157e-12 1.18473944e-12 2.32685548e-15 1.50735274e-13 4.50556879e-15 1.18473944e-12
2.63026799e+00 1.29296937e-12 1.10566318e-12 1.68159043e-15 1.85624606e-13 4.33120747e-15 1.10566318e-12
3.01995172e+00 1.24864575e-12 1.03186491e-12 1.12561345e-15 2.15655218e-13 3.83430061e-15 1.03186491e-12
3.46736850e+00 1.20041771e-12 9.62992369e-13 7.28025048e-16 2.36697313e-13 3.04958438e-15 9.62992369e-13
3.98107171e+00 1.14463837e-12 8.98716770e-13 4.55120865e-16 2.45466483e-13 2.18067923e-15 8.98716770e-13
4.57088190e+00 1.08060263e-12 8.38731291e-13 2.72799050e-16 2.41598535e-13 1.45022934e-15 8.38731291e-13
5.24807460e+00 9.22428720e-13 6.93502223e-13 1.41640664e-16 2.28784857e-13 8.96870283e-16 6.93502223e-13
6.02559586e+00 6.68949124e-13 4.58192375e-13 5.63955193e-17 2.10700354e-13 5.10695304e-16 4.58192375e-13
6.70000000e+00 5.27587404e-13 3.33290895e-13 2.70089337e-17 1.94269500e-13 3.10453006e-16 3.33290895e-13
6.92422916e+00 4.90824350e-13 3.01948975e-13 2.23895653e-17 1.88852986e-13 2.63150967e-16 3.01948975e-13
7.15596261e+00 4.58942474e-13 2.73554377e-13 1.71925326e-17 1.85370904e-13 2.22334368e-16 2.73554377e-13
7.39545150e+00 4.34308617e-13 2.47829944e-13 1.26176928e-17 1.86466056e-13 1.86627476e-16 2.47829944e-13
7.64295536e+00 4.25857526e-13 2.24524577e-13 9.42689752e-18 2.01323521e-13 1.64182321e-16 2.24524577e-13
7.89874245e+00 4.41068505e-13 2.03410795e-13 6.63977971e-18 2.37651070e-13 1.42593514e-16 2.03410795e-13
8.16308998e+00 4.76179641e-13 1.84282505e-13 4.35505643e-18 2.91892781e-13 1.22602718e-16 1.84282505e-13
8.43628443e+00 5.34086353e-13 1.66952996e-13 2.67145001e-18 3.67130686e-13 1.00831644e-16 1.66952996e-13
8.71862190e+00 5.72481077e-13 1.51253114e-13 1.50789121e-18 4.21226455e-13 7.74024356e-17 1.51253114e-13
9.01040836e+00 6.15016805e-13 1.37029614e-13 7.95914437e-19 4.77986395e-13 4.96683625e-17 1.37029614e-13
9.31196005e+00 6.48425037e-13 1.24143660e-13 0.00000000e+00 5.24281377e-13 0.00000000e+00 1.24143660e-13
9.62360379e+00 6.34195516e-13 1.12469472e-13 0.00000000e+00 5.21726045e-13 0.00000000e+00 1.12469472e-13
9.94567731e+00 5.87077071e-13 1.01893097e-13 0.00000000e+00 4.85183974e-13 0.00000000e+00 1.01893097e-13
1.02785297e+01 5.31178391e-13 9.23113014e-14 0.00000000e+00 4.38867089e-13 0.00000000e+00 9.23113014e-14
1.06225216e+01 4.78834000e-13 8.36305558e-14 0.00000000e+00 3.95203444e-13 0.00000000e+00 8.36305558e-14
1.09780260e+01 4.21787014e-13 7.57661279e-14 0.00000000e+00 3.46020887e-13 0.00000000e+00 7.57661279e-14
1.13454280e+01 3.72324678e-13 6.86412529e-14 0.00000000e+00 3.03683425e-13 0.00000000e+00 6.86412529e-14
1.17251259e+01 3.28999440e-13 6.21863851e-14 0.00000000e+00 2.66813054e-13 0.00000000e+00 6.21863851e-14
1.21175312e+01 2.91025129e-13 5.63385184e-14 0.00000000e+00 2.34686610e-13 0.00000000e+00 5.63385184e-14
1.25230691e+01 2.56808951e-13 5.10405718e-14 0.00000000e+00 2.05768379e-13 0.00000000e+00 5.10405718e-14
1.29421791e+01 2.27915238e-13 4.62408321e-14 0.00000000e+00 1.81674406e-13 0.00000000e+00 4.62408321e-14
1.33753155e+01 2.03149638e-13 4.18924490e-14 0.00000000e+00 1.61257189e-13 0.00000000e+00 4.18924490e-14
1.38229477e+01 1.86006724e-13 3.79529781e-14 0.00000000e+00 1.48053746e-13 0.00000000e+00 3.79529781e-14
1.42855609e+01 1.74629668e-13 3.43839660e-14 0.00000000e+00 1.40245702e-13 0.00000000e+00 3.43839660e-14
1.47636563e+01 1.72735657e-13 3.11505758e-14 0.00000000e+00 1.41585081e-13 0.00000000e+00 3.11505758e-14
1.52577522e+01 1.73284915e-13 2.82212462e-14 0.00000000e+00 1.45063669e-13 0.00000000e+00 2.82212462e-14
1.57683840e+01 1.75179892e-13 2.55673842e-14 0.00000000e+00 1.49612508e-13 0.00000000e+00 2.55673842e-14
1.62961051e+01 1.77778338e-13 2.31630853e-14 0.00000000e+00 1.54615253e-13 0.00000000e+00 2.31630853e-14
1.68414875e+01 1.80449754e-13 2.09848813e-14 0.00000000e+00 1.59464873e-13 0.00000000e+00 2.09848813e-14
1.74051222e+01 1.80151474e-13 1.90115106e-14 0.00000000e+00 1.61139963e-13 0.00000000e+00 1.90115106e-14
1.79876201e+01 1.78266849e-13 1.72237112e-14 0.00000000e+00 1.61043138e-13 0.00000000e+00 1.72237112e-14
1.85896125e+01 1.73144478e-13 1.56040325e-14 0.00000000e+00 1.57540445e-13 0.00000000e+00 1.56040325e-14
1.92117518e+01 1.64880857e-13 1.41366646e-14 0.00000000e+00 1.50744193e-13 0.00000000e+00 1.41366646e-14
1.98547123e+01 1.55234312e-13 1.28072847e-14 0.00000000e+00 1.42427027e-13 0.00000000e+00 1.28072847e-14
2.05191907e+01 1.45241474e-13 1.16029167e-14 0.00000000e+00 1.33638557e-13 0.00000000e+00 1.16029167e-14
2.12059073e+01 1.35744178e-13 1.05118047e-14 0.00000000e+00 1.25232373e-13 0.00000000e+00 1.05118047e-14
2.19156062e+01 1.27549899e-13 9.52329842e-15 0.00000000e+00 1.18026600e-13 0.00000000e+00 9.52329842e-15
2.26490567e+01 1.19911290e-13 8.62774902e-15 0.00000000e+00 1.11283541e-13 0.00000000e+00 8.62774902e-15
2.34070535e+01 1.12927322e-13 7.81641505e-15 0.00000000e+00 1.05110907e-13 0.00000000e+00 7.81641505e-15
2.41904183e+01 1.06555972e-13 7.08137710e-15 0.00000000e+00 9.94745954e-14 0.00000000e+00 7.08137710e-15
2.50000000e+01 1.00616985e-13 6.41546044e-15 0.00000000e+00 9.42015246e-14 0.00000000e+00 6.41546044e-15
2.75422870e+01 8.48381529e-14 4.79786316e-15 0.00000000e+00 8.00402898e-14 0.00000000e+00 4.79786316e-15
3.16227766e+01 6.58058382e-14 3.16991676e-15 0.00000000e+00 6.26359215e-14 0.00000000e+00 3.16991676e-15
3.63078055e+01 4.90634868e-14 2.09434323e-15 0.00000000e+00 4.69691436e-14 0.00000000e+00 2.09434323e-15
4.16869383e+01 3.45724638e-14 1.38371885e-15 0.00000000e+00 3.31887449e-14 0.00000000e+00 1.38371885e-15
4.78630092e+01 2.29512868e-14 9.14213979e-16 0.00000000e+00 2.20370729e-14 0.00000000e+00 9.14213979e-16
5.49540874e+01 1.44953444e-14 6.04015186e-16 0.00000000e+00 1.38913292e-14 0.00000000e+00 6.04015186e-16
6.30957344e+01 8.81413804e-15 3.99068876e-16 0.00000000e+00 8.41506917e-15 0.00000000e+00 3.99068876e-16
7.24435960e+01 5.20149240e-15 2.63662192e-16 0.00000000e+00 4.93783021e-15 0.00000000e+00 2.63662192e-16
8.31763771e+01 3.00244818e-15 1.74199882e-16 0.00000000e+00 2.82824830e-15 0.00000000e+00 1.74199882e-16
9.54992586e+01 1.70688135e-15 1.15092721e-16 0.00000000e+00 1.59178862e-15 0.00000000e+00 1.15092721e-16
1.09647820e+02 9.59882908e-16 7.60410067e-17 0.00000000e+00 8.83841902e-16 0.00000000e+00 7.60410067e-17
1.25892541e+02 5.41296122e-16 5.02397949e-17 0.00000000e+00 4.91056327e-16 0.00000000e+00 5.02397949e-17
1.44543977e+02 3.04533249e-16 3.31931033e-17 0.00000000e+00 2.71340146e-16 0.00000000e+00 3.31931033e-17
1.65958691e+02 1.64599926e-16 2.19304659e-17 0.00000000e+00 1.42669460e-16 0.00000000e+00 2.19304659e-17
1.90546072e+02 8.95629828e-17 1.44893151e-17 0.00000000e+00 7.50736677e-17 0.00000000e+00 1.44893151e-17
2.18776162e+02 4.90026103e-17 9.57299556e-18 0.00000000e+00 3.94296147e-17 0.00000000e+00 9.57299556e-18
2.51188643e+02 2.69527546e-17 6.32481544e-18 0.00000000e+00 2.06279392e-17 0.00000000e+00 6.32481544e-18
2.88403150e+02 1.49145772e-17 4.17876412e-18 0.00000000e+00 1.07358131e-17 0.00000000e+00 4.17876412e-18
3.31131121e+02 8.33018250e-18 2.76088208e-18 0.00000000e+00 5.56930042e-18 0.00000000e+00 2.76088208e-18
3.80189396e+02 4.70072775e-18 1.82409670e-18 0.00000000e+00 2.87663105e-18 0.00000000e+00 1.82409670e-18
4.36515832e+02 2.68659945e-18 1.20516874e-18 0.00000000e+00 1.48143071e-18 0.00000000e+00 1.20516874e-18
5.01187234e+02 1.55675363e-18 7.96247089e-19 0.00000000e+00 7.60506546e-19 0.00000000e+00 7.96247089e-19
5.75439937e+02 9.15459251e-19 5.26075235e-19 0.00000000e+00 3.89384016e-19 0.00000000e+00 5.26075235e-19
6.60693448e+02 5.46483406e-19 3.47574461e-19 0.00000000e+00 1.98908945e-19 0.00000000e+00 3.47574461e-19
7.58577575e+02 3.31044505e-19 2.29640169e-19 0.00000000e+00 1.01404337e-19 0.00000000e+00 2.29640169e-19
8.70963590e+02 2.03314238e-19 1.51721755e-19 0.00000000e+00 5.15924830e-20 0.00000000e+00 1.51721755e-19
1.00000000e+03 2.62000947e-20 0.00000000e+00 0.00000000e+00 2.62000947e-20 0.00000000e+00 0.00000000e+00
