# column 1: lambda (micron)
# column 2: total flux; lambda*F_lambda (W/m2)
# column 3: direct stellar flux; lambda*F_lambda (W/m2)
# column 4: scattered stellar flux; lambda*F_lambda (W/m2)
# column 5: total dust emission flux; lambda*F_lambda (W/m2)
# column 6: dust emission scattered flux; lambda*F_lambda (W/m2)
# column 7: transparent flux; lambda*F_lambda (W/m2)
1.00000000e-03 6.93993899e-13 6.93993746e-13 1.53464008e-19 0.00000000e+00 0.00000000e+00 6.93993746e-13
1.14815362e-03 8.19135397e-13 8.19135139e-13 2.57976350e-19 0.00000000e+00 0.00000000e+00 8.19135139e-13
1.31825674e-03 9.66842504e-13 9.66842108e-13 3.95863869e-19 0.00000000e+00 0.00000000e+00 9.66842108e-13
1.51356125e-03 1.14118431e-12 1.14118369e-12 6.19349408e-19 0.00000000e+00 0.00000000e+00 1.14118369e-12
1.73780083e-03 1.34696384e-12 1.34696266e-12 1.17964227e-18 0.00000000e+00 0.00000000e+00 1.34696266e-12
1.99526231e-03 1.58984990e-12 1.58984782e-12 2.07497877e-18 0.00000000e+00 0.00000000e+00 1.58984782e-12
2.29086765e-03 1.87653363e-12 1.87653019e-12 3.43571346e-18 0.00000000e+00 0.00000000e+00 1.87653019e-12
2.63026799e-03 2.21491424e-12 2.21490731e-12 6.93396431e-18 0.00000000e+00 0.00000000e+00 2.21490731e-12
3.01995172e-03 2.61431222e-12 2.61430080e-12 1.14126977e-17 0.00000000e+00 0.00000000e+00 2.61430080e-12
3.46736850e-03 3.08573234e-12 3.08571319e-12 1.91491288e-17 0.00000000e+00 0.00000000e+00 3.08571319e-12
3.98107171e-03 3.64216267e-12 3.64213095e-12 3.17203120e-17 0.00000000e+00 0.00000000e+00 3.64213095e-12
4.57088190e-03 4.29894951e-12 4.29888232e-12 6.71867359e-17 0.00000000e+00 0.00000000e+00 4.29888232e-12
5.24807460e-03 5.07418010e-12 5.07405951e-12 1.20587550e-16 0.00000000e+00 0.00000000e+00 5.07405951e-12
6.02559586e-03 5.98924431e-12 5.98901715e-12 2.27158418e-16 0.00000000e+00 0.00000000e+00 5.98901715e-12
6.91830971e-03 7.06931443e-12 7.06896053e-12 3.53903749e-16 0.00000000e+00 0.00000000e+00 7.06896053e-12
7.94328235e-03 8.34424886e-12 8.34363998e-12 6.08879976e-16 0.00000000e+00 0.00000000e+00 8.34363998e-12
9.12010839e-03 9.84915026e-12 9.84817045e-12 9.79812213e-16 0.00000000e+00 0.00000000e+00 9.84817045e-12
1.04712855e-02 1.10003466e-11 1.09990604e-11 1.28613350e-15 0.00000000e+00 0.00000000e+00 1.09990604e-11
1.20226443e-02 1.10012344e-11 1.09990604e-11 2.17398906e-15 0.00000000e+00 0.00000000e+00 1.09990604e-11
1.38038426e-02 1.10027679e-11 1.09990604e-11 3.70741787e-15 4.81086961e-289 1.85061197e-290 1.09990604e-11
1.58489319e-02 1.10029908e-11 1.09990604e-11 3.93034565e-15 2.58806331e-252 1.43910024e-253 1.09990604e-11
1.81970086e-02 1.10049617e-11 1.09990604e-11 5.90121652e-15 2.35296810e-220 1.17766926e-221 1.09990604e-11
2.08929613e-02 1.10070833e-11 1.09990604e-11 8.02288714e-15 1.44621719e-192 7.96895841e-194 1.09990604e-11
2.39883292e-02 1.10093053e-11 1.09990604e-11 1.02448481e-14 2.23323679e-168 1.37197257e-169 1.09990604e-11
2.75422870e-02 1.10137777e-11 1.09990604e-11 1.47172314e-14 2.48407088e-147 1.54519085e-148 1.09990604e-11
3.16227766e-02 1.10170910e-11 1.09990604e-11 1.80305075e-14 4.97482520e-129 3.26249577e-130 1.09990604e-11
3.63078055e-02 1.10198103e-11 1.09990604e-11 2.07498769e-14 4.03864974e-113 2.71239109e-114 1.09990604e-11
4.16869383e-02 1.10268529e-11 1.09990604e-11 2.77924312e-14 2.72585770e-99 2.15221795e-100 1.09990604e-11
4.78630092e-02 1.10353966e-11 1.09990604e-11 3.63361926e-14 2.79967154e-87 2.53746505e-88 1.09990604e-11
5.49540874e-02 1.10464873e-11 1.09990604e-11 4.74268791e-14 7.43806474e-77 7.29383172e-78 1.09990604e-11
6.30957344e-02 1.10532464e-11 1.09990604e-11 5.41859393e-14 1.08712307e-67 1.15734490e-68 1.09990604e-11
7.24435960e-02 1.10506075e-11 1.09990604e-11 5.15470063e-14 9.44902658e-60 9.12314379e-61 1.09990604e-11
8.31763771e-02 1.10491496e-11 1.09990604e-11 5.00891914e-14 5.83341672e-53 5.49458787e-54 1.09990604e-11
9.54992586e-02 1.10526205e-11 1.09990604e-11 5.35600232e-14 4.39177726e-47 4.31833882e-48 1.09990604e-11
1.09647820e-01 1.05582816e-11 1.05040253e-11 5.42562890e-14 4.92797525e-42 5.17155120e-43 1.05040253e-11
1.25892541e-01 9.85376773e-12 9.80292679e-12 5.08409358e-14 1.12308750e-37 1.17893817e-38 9.80292679e-12
1.44543977e-01 9.19499605e-12 9.14862359e-12 4.63724566e-14 6.19018140e-34 6.24317549e-35 9.14862359e-12
1.65958691e-01 8.58553141e-12 8.53799231e-12 4.75390997e-14 7.89913562e-31 8.57199679e-32 8.53799231e-12
1.90546072e-01 8.02070842e-12 7.96811805e-12 5.25903688e-14 2.73457003e-28 3.41205688e-29 7.96811805e-12
2.18776162e-01 7.48884459e-12 7.43628044e-12 5.25641533e-14 3.65764557e-26 4.73358993e-27 7.43628044e-12
2.51188643e-01 7.00114143e-12 6.93994070e-12 6.12007309e-14 3.88237377e-24 5.96460172e-25 6.93994070e-12
2.88403150e-01 6.53356752e-12 6.47672950e-12 5.68380122e-14 2.15494027e-22 3.26878910e-23 6.47672950e-12
3.31131121e-01 6.09374858e-12 6.04443567e-12 4.93129091e-14 6.65664071e-21 1.01155210e-21 6.04443567e-12
3.80189396e-01 5.68550044e-12 5.64099558e-12 4.45047276e-14 1.26998866e-19 1.95190704e-20 5.64099558e-12
4.36515832e-01 5.30678498e-12 5.26448339e-12 4.22999810e-14 1.60975382e-18 2.49783793e-19 5.26448339e-12
5.01187234e-01 4.95077973e-12 4.91310176e-12 3.76636026e-14 1.43656260e-17 2.26982475e-18 4.91310176e-12
5.75439937e-01 4.61944079e-12 4.58517335e-12 3.41731248e-14 9.43176315e-17 1.48402514e-17 4.58517335e-12
6.60693448e-01 4.31112721e-12 4.27913275e-12 3.15252894e-14 4.69175646e-16 7.21570972e-17 4.27913275e-12
7.58577575e-01 4.02418765e-12 3.99351904e-12 2.88188241e-14 1.84978574e-15 2.76567967e-16 3.99351904e-12
8.70963590e-01 3.75755085e-12 3.72696882e-12 2.46572577e-14 5.92477028e-15 8.22776881e-16 3.72696882e-12
1.00000000e+00 3.51566285e-12 3.47820968e-12 2.16688076e-14 1.57843662e-14 2.02323592e-15 3.47820968e-12
1.14815362e+00 3.30072245e-12 3.24605414e-12 1.81227210e-14 3.65455812e-14 4.17304598e-15 3.24605414e-12
1.31825674e+00 3.11943486e-12 3.02939399e-12 1.51003010e-14 7.49405720e-14 7.44369860e-15 3.02939399e-12
1.51356125e+00 2.97493480e-12 2.82719497e-12 1.15827040e-14 1.36157131e-13 1.14240538e-14 2.82719497e-12
1.73780083e+00 2.86572466e-12 2.63849186e-12 8.58242006e-15 2.18650377e-13 1.50008696e-14 2.63849186e-12
1.99526231e+00 2.78095048e-12 2.46238388e-12 6.11464817e-15 3.12451955e-13 1.68771588e-14 2.46238388e-12
2.29086765e+00 2.70350225e-12 2.29803035e-12 4.16373346e-15 4.01308173e-13 1.60474599e-14 2.29803035e-12
2.63026799e+00 2.61779319e-12 2.14464670e-12 2.60930778e-15 4.70537182e-13 1.32951005e-14 2.14464670e-12
3.01995172e+00 2.51370963e-12 2.00150076e-12 1.55258356e-15 5.10656290e-13 9.86672176e-15 2.00150076e-12
3.46736850e+00 2.38779269e-12 1.86790919e-12 9.57129530e-16 5.18926371e-13 6.64199769e-15 1.86790919e-12
3.98107171e+00 2.24070005e-12 1.74323429e-12 5.81836176e-16 4.96883929e-13 4.09430475e-15 1.74323429e-12
4.57088190e+00 2.08033506e-12 1.62688090e-12 3.22572086e-16 4.53131592e-13 2.34550475e-15 1.62688090e-12
5.24807460e+00 1.74502248e-12 1.34518114e-12 1.63512614e-16 3.99677821e-13 1.27296066e-15 1.34518114e-12
6.02559586e+00 1.23557302e-12 8.88752369e-13 6.47938600e-17 3.46755855e-13 6.48644406e-16 8.88752369e-13
6.70000000e+00 9.53584577e-13 6.46481889e-13 3.11172275e-17 3.07071571e-13 3.66544882e-16 6.46481889e-13
6.92422916e+00 8.80566335e-13 5.85688198e-13 2.26353007e-17 2.94855502e-13 3.05126001e-16 5.85688198e-13
7.15596261e+00 8.17500901e-13 5.30611407e-13 1.81565860e-17 2.86871338e-13 2.51614957e-16 5.30611407e-13
7.39545150e+00 7.68779701e-13 4.80713913e-13 1.39852192e-17 2.88051803e-13 2.08958523e-16 4.80713913e-13
7.64295536e+00 7.50546073e-13 4.35508666e-13 9.85236828e-18 3.15027555e-13 1.83764075e-16 4.35508666e-13
7.89874245e+00 7.77000851e-13 3.94554418e-13 7.29229946e-18 3.82439141e-13 1.70647577e-16 3.94554418e-13
8.16308998e+00 8.40382064e-13 3.57451415e-13 5.00102613e-18 4.82925648e-13 1.58738331e-16 3.57451415e-13
8.43628443e+00 9.50596988e-13 3.23837494e-13 3.08788729e-18 6.26756407e-13 1.45198965e-16 3.23837494e-13
8.71862190e+00 1.02300216e-12 2.93384550e-13 1.93577463e-18 7.29615676e-13 1.13618228e-16 2.93384550e-13
9.01040836e+00 1.10265479e-12 2.65795332e-13 9.54090163e-19 8.36858506e-13 7.35954396e-17 2.65795332e-13
9.31196005e+00 1.16409431e-12 2.40800541e-13 0.00000000e+00 9.23293764e-13 0.00000000e+00 2.40800541e-13
9.62360379e+00 1.13234926e-12 2.18156204e-13 0.00000000e+00 9.14193058e-13 0.00000000e+00 2.18156204e-13
9.94567731e+00 1.03491302e-12 1.97641289e-13 0.00000000e+00 8.37271731e-13 0.00000000e+00 1.97641289e-13
1.02785297e+01 9.23404927e-13 1.79055550e-13 0.00000000e+00 7.44349377e-13 0.00000000e+00 1.79055550e-13
1.06225216e+01 8.17492019e-13 1.62217572e-13 0.00000000e+00 6.55274447e-13 0.00000000e+00 1.62217572e-13
1.09780260e+01 7.04898436e-13 1.46962999e-13 0.00000000e+00 5.57935437e-13 0.00000000e+00 1.46962999e-13
1.13454280e+01 6.11142320e-13 1.33142932e-13 0.00000000e+00 4.77999389e-13 0.00000000e+00 1.33142932e-13
1.17251259e+01 5.31946997e-13 1.20622472e-13 0.00000000e+00 4.11324525e-13 0.00000000e+00 1.20622472e-13
1.21175312e+01 4.62678121e-13 1.09279408e-13 0.00000000e+00 3.53398712e-13 0.00000000e+00 1.09279408e-13
1.25230691e+01 4.01970212e-13 9.90030204e-14 0.00000000e+00 3.02967191e-13 0.00000000e+00 9.90030204e-14
1.29421791e+01 3.51652265e-13 8.96930008e-14 0.00000000e+00 2.61959264e-13 0.00000000e+00 8.96930008e-14
1.33753155e+01 3.09616714e-13 8.12584743e-14 0.00000000e+00 2.28358240e-13 0.00000000e+00 8.12584743e-14
1.38229477e+01 2.80353410e-13 7.36171115e-14 0.00000000e+00 2.06736298e-13 0.00000000e+00 7.36171115e-14
1.42855609e+01 2.60968706e-13 6.66943252e-14 0.00000000e+00 1.94274381e-13 0.00000000e+00 6.66943252e-14
1.47636563e+01 2.56414132e-13 6.04225420e-14 0.00000000e+00 1.95991590e-13 0.00000000e+00 6.04225420e-14
1.52577522e+01 2.55668679e-13 5.47405431e-14 0.00000000e+00 2.00928136e-13 0.00000000e+00 5.47405431e-14
1.57683840e+01 2.57830244e-13 4.95928665e-14 0.00000000e+00 2.08237378e-13 0.00000000e+00 4.95928665e-14
1.62961051e+01 2.60761138e-13 4.49292657e-14 0.00000000e+00 2.15831872e-13 0.00000000e+00 4.49292657e-14
1.68414875e+01 2.64073844e-13 4.07042194e-14 0.00000000e+00 2.23369625e-13 0.00000000e+00 4.07042194e-14
1.74051222e+01 2.63296408e-13 3.68764869e-14 0.00000000e+00 2.26419921e-13 0.00000000e+00 3.68764869e-14
1.79876201e+01 2.60066620e-13 3.34087056e-14 0.00000000e+00 2.26657914e-13 0.00000000e+00 3.34087056e-14
1.85896125e+01 2.51613755e-13 3.02670267e-14 0.00000000e+00 2.21346728e-13 0.00000000e+00 3.02670267e-14
1.92117518e+01 2.38649205e-13 2.74207841e-14 0.00000000e+00 2.11228420e-13 0.00000000e+00 2.74207841e-14
1.98547123e+01 2.23357623e-13 2.48421957e-14 0.00000000e+00 1.98515427e-13 0.00000000e+00 2.48421957e-14
2.05191907e+01 2.08025921e-13 2.25060919e-14 0.00000000e+00 1.85519830e-13 0.00000000e+00 2.25060919e-14
2.12059073e+01 1.93921461e-13 2.03896700e-14 0.00000000e+00 1.73531791e-13 0.00000000e+00 2.03896700e-14
2.19156062e+01 1.81700226e-13 1.84722717e-14 0.00000000e+00 1.63227955e-13 0.00000000e+00 1.84722717e-14
2.26490567e+01 1.70527929e-13 1.67351811e-14 0.00000000e+00 1.53792747e-13 0.00000000e+00 1.67351811e-14
2.34070535e+01 1.60500616e-13 1.51614426e-14 0.00000000e+00 1.45339174e-13 0.00000000e+00 1.51614426e-14
2.41904183e+01 1.51425067e-13 1.37356949e-14 0.00000000e+00 1.37689372e-13 0.00000000e+00 1.37356949e-14
2.50000000e+01 1.43169691e-13 1.24440213e-14 0.00000000e+00 1.30725669e-13 0.00000000e+00 1.24440213e-14
2.75422870e+01 1.21829653e-13 9.30637977e-15 0.00000000e+00 1.12523273e-13 0.00000000e+00 9.30637977e-15
3.16227766e+01 9.69001026e-14 6.14866414e-15 0.00000000e+00 9.07514385e-14 0.00000000e+00 6.14866414e-15
3.63078055e+01 7.49566635e-14 4.06238211e-15 0.00000000e+00 7.08942814e-14 0.00000000e+00 4.06238211e-15
4.16869383e+01 5.51312521e-14 2.68398924e-15 0.00000000e+00 5.24472629e-14 0.00000000e+00 2.68398924e-15
4.78630092e+01 3.83929535e-14 1.77329411e-15 0.00000000e+00 3.66196594e-14 0.00000000e+00 1.77329411e-15
5.49540874e+01 2.55148078e-14 1.17160380e-15 0.00000000e+00 2.43432040e-14 0.00000000e+00 1.17160380e-15
6.30957344e+01 1.63221861e-14 7.74070953e-16 0.00000000e+00 1.55481152e-14 0.00000000e+00 7.74070953e-16
7.24435960e+01 1.01124078e-14 5.11423607e-16 0.00000000e+00 9.60098422e-15 0.00000000e+00 5.11423607e-16
8.31763771e+01 6.10869805e-15 3.37894226e-16 0.00000000e+00 5.77080383e-15 0.00000000e+00 3.37894226e-16
9.54992586e+01 3.61915724e-15 2.23244502e-16 0.00000000e+00 3.39591274e-15 0.00000000e+00 2.23244502e-16
1.09647820e+02 2.11008818e-15 1.47496179e-16 0.00000000e+00 1.96259200e-15 0.00000000e+00 1.47496179e-16
1.25892541e+02 1.22743883e-15 9.74497594e-17 0.00000000e+00 1.12998907e-15 0.00000000e+00 9.74497594e-17
1.44543977e+02 7.08611655e-16 6.43844175e-17 0.00000000e+00 6.44227238e-16 0.00000000e+00 6.43844175e-17
1.65958691e+02 3.90746331e-16 4.25383628e-17 0.00000000e+00 3.48207968e-16 0.00000000e+00 4.25383628e-17
1.90546072e+02 2.15784636e-16 2.81048176e-17 0.00000000e+00 1.87679818e-16 0.00000000e+00 2.81048176e-17
2.18776162e+02 1.19207966e-16 1.85686688e-17 0.00000000e+00 1.00639298e-16 0.00000000e+00 1.85686688e-17
2.51188643e+02 6.58723293e-17 1.22681978e-17 0.00000000e+00 5.36041314e-17 0.00000000e+00 1.22681978e-17
2.88403150e+02 3.64393505e-17 8.10551794e-18 0.00000000e+00 2.83338326e-17 0.00000000e+00 8.10551794e-18
3.31131121e+02 2.02516198e-17 5.35526259e-18 0.00000000e+00 1.48963572e-17 0.00000000e+00 5.35526259e-18
3.80189396e+02 1.13216706e-17 3.53818691e-18 0.00000000e+00 7.78348372e-18 0.00000000e+00 3.53818691e-18
4.36515832e+02 6.38616982e-18 2.33765691e-18 0.00000000e+00 4.04851291e-18 0.00000000e+00 2.33765691e-18
5.01187234e+02 3.64074019e-18 1.54447460e-18 0.00000000e+00 2.09626558e-18 0.00000000e+00 1.54447460e-18
5.75439937e+02 2.10171514e-18 1.02042425e-18 0.00000000e+00 1.08129089e-18 0.00000000e+00 1.02042425e-18
6.60693448e+02 1.23009555e-18 6.74187617e-19 0.00000000e+00 5.55907935e-19 0.00000000e+00 6.74187617e-19
7.58577575e+02 7.30409300e-19 4.45431341e-19 0.00000000e+00 2.84977959e-19 0.00000000e+00 4.45431341e-19
8.70963590e+02 4.39981417e-19 2.94293569e-19 0.00000000e+00 1.45687849e-19 0.00000000e+00 2.94293569e-19
1.00000000e+03 7.42920097e-20 0.00000000e+00 0.00000000e+00 7.42920097e-20 0.00000000e+00 0.00000000e+00
