# column 1: lambda (micron)
# column 2: total flux; lambda*F_lambda (W/m2)
# column 3: direct stellar flux; lambda*F_lambda (W/m2)
# column 4: scattered stellar flux; lambda*F_lambda (W/m2)
# column 5: total dust emission flux; lambda*F_lambda (W/m2)
# column 6: dust emission scattered flux; lambda*F_lambda (W/m2)
# column 7: transparent flux; lambda*F_lambda (W/m2)
1.00000000e-03 9.68073329e-13 9.68073281e-13 4.79933133e-20 0.00000000e+00 0.00000000e+00 9.68073281e-13
1.14815362e-03 1.14263694e-12 1.14263687e-12 7.40093481e-20 0.00000000e+00 0.00000000e+00 1.14263687e-12
1.31825674e-03 1.34867799e-12 1.34867788e-12 1.10515439e-19 0.00000000e+00 0.00000000e+00 1.34867788e-12
1.51356125e-03 1.59187250e-12 1.59187233e-12 1.71231514e-19 0.00000000e+00 0.00000000e+00 1.59187233e-12
1.73780083e-03 1.87892007e-12 1.87891976e-12 3.14948818e-19 0.00000000e+00 0.00000000e+00 1.87891976e-12
1.99526231e-03 2.21772831e-12 2.21772777e-12 5.42215484e-19 0.00000000e+00 0.00000000e+00 2.21772777e-12
2.29086765e-03 2.61763068e-12 2.61762985e-12 8.39061704e-19 0.00000000e+00 0.00000000e+00 2.61762985e-12
2.63026799e-03 3.08964419e-12 3.08964252e-12 1.66692798e-18 0.00000000e+00 0.00000000e+00 3.08964252e-12
3.01995172e-03 3.64677185e-12 3.64676883e-12 3.02037306e-18 0.00000000e+00 0.00000000e+00 3.64676883e-12
3.46736850e-03 4.30436115e-12 4.30435650e-12 4.65066532e-18 0.00000000e+00 0.00000000e+00 4.30435650e-12
3.98107171e-03 5.08052806e-12 5.08052080e-12 7.26103021e-18 0.00000000e+00 0.00000000e+00 5.08052080e-12
4.57088190e-03 5.99665982e-12 5.99664354e-12 1.62822670e-17 0.00000000e+00 0.00000000e+00 5.99664354e-12
5.24807460e-03 7.07799386e-12 7.07796211e-12 3.17488379e-17 0.00000000e+00 0.00000000e+00 7.07796211e-12
6.02559586e-03 8.35432082e-12 8.35426474e-12 5.60816472e-17 0.00000000e+00 0.00000000e+00 8.35426474e-12
6.91830971e-03 9.86079733e-12 9.86071107e-12 8.62620864e-17 0.00000000e+00 0.00000000e+00 9.86071107e-12
7.94328235e-03 1.16389558e-11 1.16388008e-11 1.55034157e-16 8.10619088e-304 5.98927786e-307 1.16388008e-11
9.12010839e-03 1.37377685e-11 1.37375167e-11 2.51786875e-16 3.52030631e-265 8.84315382e-268 1.37375167e-11
1.04712855e-02 1.53432752e-11 1.53429287e-11 3.46505918e-16 1.47206720e-231 2.47518118e-234 1.53429287e-11
1.20226443e-02 1.53434181e-11 1.53429287e-11 4.89426324e-16 2.28433748e-202 3.11507812e-205 1.53429287e-11
1.38038426e-02 1.53458307e-11 1.53429287e-11 2.90203342e-15 6.17569474e-177 9.81577022e-180 1.53429287e-11
1.58489319e-02 1.53439096e-11 1.53429287e-11 9.80890666e-16 8.29968264e-155 1.87395650e-157 1.53429287e-11
1.81970086e-02 1.53442290e-11 1.53429287e-11 1.30036041e-15 1.47218490e-135 4.57698824e-138 1.53429287e-11
2.08929613e-02 1.53447088e-11 1.53429287e-11 1.78010076e-15 7.65028708e-119 3.15627616e-121 1.53429287e-11
2.39883292e-02 1.53455823e-11 1.53429287e-11 2.65359761e-15 2.67197749e-104 1.45509888e-106 1.53429287e-11
2.75422870e-02 1.53466082e-11 1.53429287e-11 3.67958483e-15 1.19139221e-91 8.74604750e-94 1.53429287e-11
3.16227766e-02 1.53474165e-11 1.53429287e-11 4.48786667e-15 1.15786269e-80 1.10070380e-82 1.53429287e-11
3.63078055e-02 1.53481766e-11 1.53429287e-11 5.24791901e-15 4.00318402e-71 4.49083394e-73 1.53429287e-11
4.16869383e-02 1.53503141e-11 1.53429287e-11 7.38544898e-15 7.59001813e-63 1.16757059e-64 1.53429287e-11
4.78630092e-02 1.53524830e-11 1.53429287e-11 9.55435119e-15 1.14485430e-55 2.45841851e-57 1.53429287e-11
5.49540874e-02 1.53568789e-11 1.53429287e-11 1.39502623e-14 1.90157586e-49 5.26962797e-51 1.53429287e-11
6.30957344e-02 1.53630368e-11 1.53429287e-11 2.01080888e-14 6.16451200e-44 2.29363173e-45 1.53429287e-11
7.24435960e-02 1.53638266e-11 1.53429287e-11 2.08979373e-14 3.58142528e-39 1.39608495e-40 1.53429287e-11
8.31763771e-02 1.53631153e-11 1.53429287e-11 2.01866305e-14 3.66252029e-35 1.41785989e-36 1.53429287e-11
9.54992586e-02 1.53641496e-11 1.53429287e-11 2.12209640e-14 1.02999422e-31 4.13821623e-33 1.53429287e-11
1.09647820e-01 1.46733440e-11 1.46523889e-11 2.09551201e-14 8.69413098e-29 3.56843600e-30 1.46523889e-11
1.25892541e-01 1.36912228e-11 1.36744049e-11 1.68178135e-14 2.79883569e-26 1.00724797e-27 1.36744049e-11
1.44543977e-01 1.27764204e-11 1.27616972e-11 1.47231473e-14 3.79821962e-24 1.26186814e-25 1.27616972e-11
1.65958691e-01 1.19250402e-11 1.19099088e-11 1.51313780e-14 1.91621181e-22 6.93125279e-24 1.19099088e-11
1.90546072e-01 1.11326231e-11 1.11149736e-11 1.76495123e-14 4.02661202e-21 1.81089004e-22 1.11149736e-11
2.18776162e-01 1.03922415e-11 1.03730969e-11 1.91445401e-14 4.78466830e-20 2.45801300e-21 1.03730969e-11
2.51188643e-01 9.70286473e-12 9.68073733e-12 2.21268218e-14 5.75904317e-19 3.54542166e-20 9.68073733e-12
2.88403150e-01 9.05485741e-12 9.03458975e-12 2.02628822e-14 4.77120214e-18 2.72831861e-19 9.03458975e-12
3.31131121e-01 8.44962504e-12 8.43156974e-12 1.80280150e-14 2.72803618e-17 1.46679145e-18 8.43156974e-12
3.80189396e-01 7.88509074e-12 7.86879872e-12 1.61784367e-14 1.13581966e-16 5.90631291e-18 7.86879872e-12
4.36515832e-01 7.35810269e-12 7.34359025e-12 1.41539714e-14 3.58468034e-16 1.79193263e-17 7.34359025e-12
5.01187234e-01 6.86838703e-12 6.85343719e-12 1.40559255e-14 8.93916729e-16 4.49037273e-17 6.85343719e-12
5.75439937e-01 6.41059017e-12 6.39599973e-12 1.27564370e-14 1.83400275e-15 9.30345370e-17 6.39599973e-12
6.60693448e-01 5.98441889e-12 5.96909425e-12 1.21279762e-14 3.19665741e-15 1.59883025e-16 5.96909425e-12
7.58577575e-01 5.58730380e-12 5.57068288e-12 1.16819151e-14 4.93900248e-15 2.46418857e-16 5.57068288e-12
8.70963590e-01 5.21582791e-12 5.19886376e-12 1.00525083e-14 6.91163911e-15 3.37569974e-16 5.19886376e-12
1.00000000e+00 4.86925886e-12 4.85186196e-12 8.46347260e-15 8.93342274e-15 4.18779152e-16 4.85186196e-12
1.14815362e+00 4.54693739e-12 4.52802104e-12 7.62275701e-15 1.12935922e-14 5.14392270e-16 4.52802104e-12
1.31825674e+00 4.24721192e-12 4.22579511e-12 6.71075089e-15 1.47060550e-14 6.80204531e-16 4.22579511e-12
1.51356125e+00 3.96948784e-12 3.94374146e-12 5.16124474e-15 2.05851355e-14 9.71880676e-16 3.94374146e-12
1.73780083e+00 3.71593784e-12 3.68051368e-12 4.42441854e-15 3.09997341e-14 1.45377184e-15 3.68051368e-12
1.99526231e+00 3.48557731e-12 3.43485522e-12 3.07665059e-15 4.76454322e-14 2.04688709e-15 3.43485522e-12
2.29086765e+00 3.27925429e-12 3.20559341e-12 2.25319528e-15 7.14076810e-14 2.54472027e-15 3.20559341e-12
2.63026799e+00 3.09389741e-12 2.99163384e-12 1.55985965e-15 1.00703713e-13 2.79223919e-15 2.99163384e-12
3.01995172e+00 2.92522781e-12 2.79195514e-12 1.06657428e-15 1.32206088e-13 2.72971016e-15 2.79195514e-12
3.46736850e+00 2.76811076e-12 2.60560415e-12 7.05210562e-16 1.61801400e-13 2.39979094e-15 2.60560415e-12
3.98107171e+00 2.61634531e-12 2.43169128e-12 4.11287316e-16 1.84242745e-13 1.87717511e-15 2.43169128e-12
4.57088190e+00 2.46707057e-12 2.26938634e-12 2.78168212e-16 1.97406061e-13 1.34056644e-15 2.26938634e-12
5.24807460e+00 2.07711956e-12 1.87643467e-12 1.45495931e-16 2.00539392e-13 8.79725896e-16 1.87643467e-12
6.02559586e+00 1.43604453e-12 1.23974809e-12 6.16799121e-17 1.96234758e-13 5.38396309e-16 1.23974809e-12
6.70000000e+00 1.09037022e-12 9.01797527e-13 2.84306864e-17 1.88544263e-13 3.49390065e-16 9.01797527e-13
6.92422916e+00 1.00259468e-12 8.16994532e-13 2.26233581e-17 1.85577521e-13 3.00820200e-16 8.16994532e-13
7.15596261e+00 9.24082357e-13 7.40166218e-13 1.83340049e-17 1.83897805e-13 2.56091115e-16 7.40166218e-13
7.39545150e+00 8.56338680e-13 6.70562664e-13 1.42097282e-17 1.85761806e-13 2.18562068e-16 6.70562664e-13
7.64295536e+00 8.06118184e-13 6.07504471e-13 9.73702462e-18 1.98603976e-13 1.86992271e-16 6.07504471e-13
7.89874245e+00 7.80147872e-13 5.50376127e-13 6.72427266e-18 2.29765020e-13 1.58397037e-16 5.50376127e-13
8.16308998e+00 7.75228797e-13 4.98620004e-13 4.41914844e-18 2.76604374e-13 1.34749365e-16 4.98620004e-13
8.43628443e+00 7.95630668e-13 4.51730909e-13 2.47537833e-18 3.43897285e-13 1.07146884e-16 4.51730909e-13
8.71862190e+00 8.05463618e-13 4.09251158e-13 1.52208719e-18 3.96210939e-13 8.24985294e-17 4.09251158e-13
9.01040836e+00 8.22040580e-13 3.70766106e-13 9.33853352e-19 4.51273540e-13 5.64110937e-17 3.70766106e-13
9.31196005e+00 8.35822784e-13 3.35900102e-13 0.00000000e+00 4.99922682e-13 0.00000000e+00 3.35900102e-13
9.62360379e+00 8.10420577e-13 3.04312818e-13 0.00000000e+00 5.06107759e-13 0.00000000e+00 3.04312818e-13
9.94567731e+00 7.54377671e-13 2.75695930e-13 0.00000000e+00 4.78681741e-13 0.00000000e+00 2.75695930e-13
1.02785297e+01 6.91489214e-13 2.49770110e-13 0.00000000e+00 4.41719104e-13 0.00000000e+00 2.49770110e-13
1.06225216e+01 6.30219646e-13 2.26282295e-13 0.00000000e+00 4.03937351e-13 0.00000000e+00 2.26282295e-13
1.09780260e+01 5.64844566e-13 2.05003220e-13 0.00000000e+00 3.59841346e-13 0.00000000e+00 2.05003220e-13
1.13454280e+01 5.07555273e-13 1.85725182e-13 0.00000000e+00 3.21830091e-13 0.00000000e+00 1.85725182e-13
1.17251259e+01 4.56538802e-13 1.68260007e-13 0.00000000e+00 2.88278795e-13 0.00000000e+00 1.68260007e-13
1.21175312e+01 4.10765703e-13 1.52437217e-13 0.00000000e+00 2.58328486e-13 0.00000000e+00 1.52437217e-13
1.25230691e+01 3.69175021e-13 1.38102367e-13 0.00000000e+00 2.31072654e-13 0.00000000e+00 1.38102367e-13
1.29421791e+01 3.32869178e-13 1.25115533e-13 0.00000000e+00 2.07753645e-13 0.00000000e+00 1.25115533e-13
1.33753155e+01 3.01262829e-13 1.13349952e-13 0.00000000e+00 1.87912877e-13 0.00000000e+00 1.13349952e-13
1.38229477e+01 2.78079703e-13 1.02690779e-13 0.00000000e+00 1.75388923e-13 0.00000000e+00 1.02690779e-13
1.42855609e+01 2.61494180e-13 9.30339713e-14 0.00000000e+00 1.68460209e-13 0.00000000e+00 9.30339713e-14
1.47636563e+01 2.56374756e-13 8.42852675e-14 0.00000000e+00 1.72089489e-13 0.00000000e+00 8.42852675e-14
1.52577522e+01 2.54180217e-13 7.63592720e-14 0.00000000e+00 1.77820945e-13 0.00000000e+00 7.63592720e-14
1.57683840e+01 2.54490078e-13 6.91786191e-14 0.00000000e+00 1.85311459e-13 0.00000000e+00 6.91786191e-14
1.62961051e+01 2.56273291e-13 6.26732185e-14 0.00000000e+00 1.93600073e-13 0.00000000e+00 6.26732185e-14
1.68414875e+01 2.58361945e-13 5.67795711e-14 0.00000000e+00 2.01582374e-13 0.00000000e+00 5.67795711e-14
1.74051222e+01 2.58049060e-13 5.14401489e-14 0.00000000e+00 2.06608911e-13 0.00000000e+00 5.14401489e-14
1.79876201e+01 2.55457648e-13 4.66028339e-14 0.00000000e+00 2.08854814e-13 0.00000000e+00 4.66028339e-14
1.85896125e+01 2.48801318e-13 4.22204090e-14 0.00000000e+00 2.06580909e-13 0.00000000e+00 4.22204090e-14
1.92117518e+01 2.38534547e-13 3.82500974e-14 0.00000000e+00 2.00284450e-13 0.00000000e+00 3.82500974e-14
1.98547123e+01 2.26385452e-13 3.46531450e-14 0.00000000e+00 1.91732307e-13 0.00000000e+00 3.46531450e-14
2.05191907e+01 2.13700461e-13 3.13944418e-14 0.00000000e+00 1.82306020e-13 0.00000000e+00 3.13944418e-14
2.12059073e+01 2.01665680e-13 2.84421796e-14 0.00000000e+00 1.73223501e-13 0.00000000e+00 2.84421796e-14
2.19156062e+01 1.90948479e-13 2.57675415e-14 0.00000000e+00 1.65180937e-13 0.00000000e+00 2.57675415e-14
2.26490567e+01 1.81019564e-13 2.33444203e-14 0.00000000e+00 1.57675144e-13 0.00000000e+00 2.33444203e-14
2.34070535e+01 1.71865903e-13 2.11491639e-14 0.00000000e+00 1.50716739e-13 0.00000000e+00 2.11491639e-14
2.41904183e+01 1.63170625e-13 1.91603445e-14 0.00000000e+00 1.44010281e-13 0.00000000e+00 1.91603445e-14
2.50000000e+01 1.55121184e-13 1.73585491e-14 0.00000000e+00 1.37762635e-13 0.00000000e+00 1.73585491e-14
2.75422870e+01 1.33365444e-13 1.29817562e-14 0.00000000e+00 1.20383688e-13 0.00000000e+00 1.29817562e-14
3.16227766e+01 1.05986346e-13 8.57696126e-15 0.00000000e+00 9.74093847e-14 0.00000000e+00 8.57696126e-15
3.63078055e+01 8.07111242e-14 5.66674211e-15 0.00000000e+00 7.50443821e-14 0.00000000e+00 5.66674211e-15
4.16869383e+01 5.79889261e-14 3.74397938e-15 0.00000000e+00 5.42449468e-14 0.00000000e+00 3.74397938e-15
4.78630092e+01 3.92460725e-14 2.47362265e-15 0.00000000e+00 3.67724499e-14 0.00000000e+00 2.47362265e-15
5.49540874e+01 2.52397828e-14 1.63430628e-15 0.00000000e+00 2.36054765e-14 0.00000000e+00 1.63430628e-15
6.30957344e+01 1.56005534e-14 1.07977545e-15 0.00000000e+00 1.45207779e-14 0.00000000e+00 1.07977545e-15
7.24435960e+01 9.33961447e-15 7.13400564e-16 0.00000000e+00 8.62621391e-15 0.00000000e+00 7.13400564e-16
8.31763771e+01 5.46310803e-15 4.71339078e-16 0.00000000e+00 4.99176895e-15 0.00000000e+00 4.71339078e-16
9.54992586e+01 3.14314729e-15 3.11410641e-16 0.00000000e+00 2.83173664e-15 0.00000000e+00 3.11410641e-16
1.09647820e+02 1.78802777e-15 2.05746970e-16 0.00000000e+00 1.58228080e-15 0.00000000e+00 2.05746970e-16
1.25892541e+02 1.01925589e-15 1.35935675e-16 0.00000000e+00 8.83320218e-16 0.00000000e+00 1.35935675e-16
1.44543977e+02 5.79710693e-16 8.98118099e-17 0.00000000e+00 4.89898883e-16 0.00000000e+00 8.98118099e-17
1.65958691e+02 3.17896630e-16 5.93380743e-17 0.00000000e+00 2.58558556e-16 0.00000000e+00 5.93380743e-17
1.90546072e+02 1.75654373e-16 3.92042769e-17 0.00000000e+00 1.36450096e-16 0.00000000e+00 3.92042769e-17
2.18776162e+02 9.77275667e-17 2.59020089e-17 0.00000000e+00 7.18255578e-17 0.00000000e+00 2.59020089e-17
2.51188643e+02 5.47594442e-17 1.71132876e-17 0.00000000e+00 3.76461566e-17 0.00000000e+00 1.71132876e-17
2.88403150e+02 3.09287335e-17 1.13066370e-17 0.00000000e+00 1.96220966e-17 0.00000000e+00 1.13066370e-17
3.31131121e+02 1.76618293e-17 7.47022097e-18 0.00000000e+00 1.01916083e-17 0.00000000e+00 7.47022097e-18
3.80189396e+02 1.02049383e-17 4.93552605e-18 0.00000000e+00 5.26941224e-18 0.00000000e+00 4.93552605e-18
4.36515832e+02 5.97678476e-18 3.26086972e-18 0.00000000e+00 2.71591503e-18 0.00000000e+00 3.26086972e-18
5.01187234e+02 3.54962518e-18 2.15443526e-18 0.00000000e+00 1.39518992e-18 0.00000000e+00 2.15443526e-18
5.75439937e+02 2.13817239e-18 1.42342126e-18 0.00000000e+00 7.14751132e-19 0.00000000e+00 1.42342126e-18
6.60693448e+02 1.30573482e-18 9.40445101e-19 0.00000000e+00 3.65289720e-19 0.00000000e+00 9.40445101e-19
7.58577575e+02 8.07645203e-19 6.21345916e-19 0.00000000e+00 1.86299287e-19 0.00000000e+00 6.21345916e-19
8.70963590e+02 5.05336036e-19 4.10519176e-19 0.00000000e+00 9.48168604e-20 0.00000000e+00 4.10519176e-19
1.00000000e+03 4.81640624e-20 0.00000000e+00 0.00000000e+00 4.81640624e-20 0.00000000e+00 0.00000000e+00
