# column 1: lambda (micron)
# column 2: total flux; lambda*F_lambda (W/m2)
# column 3: direct stellar flux; lambda*F_lambda (W/m2)
# column 4: scattered stellar flux; lambda*F_lambda (W/m2)
# column 5: total dust emission flux; lambda*F_lambda (W/m2)
# column 6: dust emission scattered flux; lambda*F_lambda (W/m2)
# column 7: transparent flux; lambda*F_lambda (W/m2)
1.00000000e-03 6.93993822e-13 6.93993746e-13 7.62906368e-20 0.00000000e+00 0.00000000e+00 6.93993746e-13
1.14815362e-03 8.19135252e-13 8.19135139e-13 1.12637283e-19 0.00000000e+00 0.00000000e+00 8.19135139e-13
1.31825674e-03 9.66842280e-13 9.66842108e-13 1.71653299e-19 0.00000000e+00 0.00000000e+00 9.66842108e-13
1.51356125e-03 1.14118397e-12 1.14118369e-12 2.77607993e-19 0.00000000e+00 0.00000000e+00 1.14118369e-12
1.73780083e-03 1.34696315e-12 1.34696266e-12 4.90449993e-19 0.00000000e+00 0.00000000e+00 1.34696266e-12
1.99526231e-03 1.58984870e-12 1.58984782e-12 8.76491507e-19 0.00000000e+00 0.00000000e+00 1.58984782e-12
2.29086765e-03 1.87653152e-12 1.87653019e-12 1.33036491e-18 0.00000000e+00 0.00000000e+00 1.87653019e-12
2.63026799e-03 2.21490995e-12 2.21490731e-12 2.64116740e-18 0.00000000e+00 0.00000000e+00 2.21490731e-12
3.01995172e-03 2.61430505e-12 2.61430080e-12 4.24840536e-18 0.00000000e+00 0.00000000e+00 2.61430080e-12
3.46736850e-03 3.08572161e-12 3.08571319e-12 8.42052764e-18 0.00000000e+00 0.00000000e+00 3.08571319e-12
3.98107171e-03 3.64214344e-12 3.64213095e-12 1.24868656e-17 0.00000000e+00 0.00000000e+00 3.64213095e-12
4.57088190e-03 4.29890891e-12 4.29888232e-12 2.65911177e-17 0.00000000e+00 0.00000000e+00 4.29888232e-12
5.24807460e-03 5.07410685e-12 5.07405951e-12 4.73362851e-17 0.00000000e+00 0.00000000e+00 5.07405951e-12
6.02559586e-03 5.98910691e-12 5.98901715e-12 8.97661957e-17 0.00000000e+00 0.00000000e+00 5.98901715e-12
6.91830971e-03 7.06910116e-12 7.06896053e-12 1.40633284e-16 0.00000000e+00 0.00000000e+00 7.06896053e-12
7.94328235e-03 8.34386395e-12 8.34363998e-12 2.23963366e-16 0.00000000e+00 0.00000000e+00 8.34363998e-12
9.12010839e-03 9.84854934e-12 9.84817045e-12 3.78891633e-16 0.00000000e+00 0.00000000e+00 9.84817045e-12
1.04712855e-02 1.09995772e-11 1.09990604e-11 5.16752947e-16 0.00000000e+00 0.00000000e+00 1.09990604e-11
1.20226443e-02 1.09998827e-11 1.09990604e-11 8.22225352e-16 0.00000000e+00 0.00000000e+00 1.09990604e-11
1.38038426e-02 1.10001444e-11 1.09990604e-11 1.08395115e-15 1.72967838e-292 1.50117048e-293 1.09990604e-11
1.58489319e-02 1.10021162e-11 1.09990604e-11 3.05580162e-15 1.16819616e-255 9.54638198e-257 1.09990604e-11
1.81970086e-02 1.10010788e-11 1.09990604e-11 2.01836081e-15 1.32325878e-223 1.06604456e-224 1.09990604e-11
2.08929613e-02 1.10021763e-11 1.09990604e-11 3.11582969e-15 9.96299738e-196 9.60657828e-197 1.09990604e-11
2.39883292e-02 1.10030974e-11 1.09990604e-11 4.03696313e-15 1.80338567e-171 1.82358399e-172 1.09990604e-11
2.75422870e-02 1.10046556e-11 1.09990604e-11 5.59510786e-15 2.30085291e-150 2.29850973e-151 1.09990604e-11
3.16227766e-02 1.10061459e-11 1.09990604e-11 7.08544053e-15 5.20605073e-132 5.41520038e-133 1.09990604e-11
3.63078055e-02 1.10069720e-11 1.09990604e-11 7.91150891e-15 4.68301902e-116 4.87211543e-117 1.09990604e-11
4.16869383e-02 1.10109239e-11 1.09990604e-11 1.18634371e-14 3.46602187e-102 3.97892025e-103 1.09990604e-11
4.78630092e-02 1.10153840e-11 1.09990604e-11 1.63235671e-14 3.81058990e-90 4.84954110e-91 1.09990604e-11
5.49540874e-02 1.10197942e-11 1.09990604e-11 2.07338019e-14 1.06906804e-79 1.44617523e-80 1.09990604e-11
6.30957344e-02 1.10243717e-11 1.09990604e-11 2.53112245e-14 1.58870532e-70 2.47543390e-71 1.09990604e-11
7.24435960e-02 1.10260903e-11 1.09990604e-11 2.70298141e-14 1.37770985e-62 2.22605522e-63 1.09990604e-11
8.31763771e-02 1.10228277e-11 1.09990604e-11 2.37672628e-14 9.00605855e-56 1.39048328e-56 1.09990604e-11
9.54992586e-02 1.10267680e-11 1.09990604e-11 2.77075835e-14 7.25059003e-50 1.09510786e-50 1.09990604e-11
1.09647820e-01 1.05303154e-11 1.05040253e-11 2.62900760e-14 9.06252265e-45 1.31085564e-45 1.05040253e-11
1.25892541e-01 9.82601262e-12 9.80292679e-12 2.30858238e-14 2.33490825e-40 3.06157737e-41 9.80292679e-12
1.44543977e-01 9.16862837e-12 9.14862359e-12 2.00047819e-14 1.50767381e-36 1.69518536e-37 9.14862359e-12
1.65958691e-01 8.55979913e-12 8.53799231e-12 2.18068197e-14 2.40115357e-33 2.54276562e-34 8.53799231e-12
1.90546072e-01 7.99236212e-12 7.96811805e-12 2.42440703e-14 1.13199658e-30 1.26601244e-31 7.96811805e-12
2.18776162e-01 7.46210018e-12 7.43628044e-12 2.58197429e-14 2.28783022e-28 2.62881191e-29 7.43628044e-12
2.51188643e-01 6.96832119e-12 6.93994070e-12 2.83804928e-14 3.85880661e-26 4.53779608e-27 6.93994070e-12
2.88403150e-01 6.50112932e-12 6.47672950e-12 2.43998175e-14 3.45769342e-24 3.71274319e-25 6.47672950e-12
3.31131121e-01 6.06707419e-12 6.04443567e-12 2.26385215e-14 1.67404797e-22 1.64195007e-23 6.04443567e-12
3.80189396e-01 5.66132527e-12 5.64099558e-12 2.03296895e-14 4.71265924e-21 4.35318595e-22 5.64099558e-12
4.36515832e-01 5.28279396e-12 5.26448339e-12 1.83104923e-14 8.15899112e-20 7.16855065e-21 5.26448339e-12
5.01187234e-01 4.93009136e-12 4.91310176e-12 1.69886782e-14 9.16989403e-19 7.61389294e-20 4.91310176e-12
5.75439937e-01 4.59927689e-12 4.58517335e-12 1.40964304e-14 7.10732668e-18 5.64791384e-19 4.58517335e-12
6.60693448e-01 4.29322013e-12 4.27913275e-12 1.40474337e-14 3.99511981e-17 3.05681797e-18 4.27913275e-12
7.58577575e-01 4.00665862e-12 3.99351904e-12 1.29667175e-14 1.72861600e-16 1.25033652e-17 3.99351904e-12
8.70963590e-01 3.73920252e-12 3.72696882e-12 1.16304978e-14 6.03204113e-16 4.10072517e-17 3.72696882e-12
1.00000000e+00 3.48996957e-12 3.47820968e-12 1.00061249e-14 1.75376162e-15 1.12420939e-16 3.47820968e-12
1.14815362e+00 3.25928970e-12 3.24605414e-12 8.73984442e-15 4.49570937e-15 2.68323688e-16 3.24605414e-12
1.31825674e+00 3.04676275e-12 3.02939399e-12 6.97255405e-15 1.03962075e-14 5.89156589e-16 3.02939399e-12
1.51356125e+00 2.85430083e-12 2.82719497e-12 5.51996698e-15 2.15858890e-14 1.14631533e-15 2.82719497e-12
1.73780083e+00 2.68332690e-12 2.63849186e-12 4.72861324e-15 4.01064182e-14 1.91610661e-15 2.63849186e-12
1.99526231e+00 2.53223067e-12 2.46238388e-12 3.30307335e-15 6.65437140e-14 2.73809994e-15 2.46238388e-12
2.29086765e+00 2.40007380e-12 2.29803035e-12 2.35407214e-15 9.96893775e-14 3.33865922e-15 2.29803035e-12
2.63026799e+00 2.28247704e-12 2.14464670e-12 1.68138340e-15 1.36148950e-13 3.55483718e-15 2.14464670e-12
3.01995172e+00 2.17327989e-12 2.00150076e-12 1.10986589e-15 1.70669268e-13 3.37526261e-15 2.00150076e-12
3.46736850e+00 2.06767188e-12 1.86790919e-12 7.30059115e-16 1.99032629e-13 2.84371255e-15 1.86790919e-12
3.98107171e+00 1.95997500e-12 1.74323429e-12 4.50448380e-16 2.16290267e-13 2.13800013e-15 1.74323429e-12
4.57088190e+00 1.84869116e-12 1.62688090e-12 2.85816954e-16 2.21524451e-13 1.46836197e-15 1.62688090e-12
5.24807460e+00 1.56129405e-12 1.34518114e-12 1.51029829e-16 2.15961874e-13 9.28849804e-16 1.34518114e-12
6.02559586e+00 1.09268660e-12 8.88752369e-13 6.20209678e-17 2.03872212e-13 5.40958064e-16 8.88752369e-13
6.70000000e+00 8.37682140e-13 6.46481889e-13 2.98208395e-17 1.91170430e-13 3.43332243e-16 6.46481889e-13
6.92422916e+00 7.72325105e-13 5.85688198e-13 2.48446046e-17 1.86612062e-13 2.90929978e-16 5.85688198e-13
7.15596261e+00 7.14471350e-13 5.30611407e-13 1.86752514e-17 1.83841268e-13 2.47629389e-16 5.30611407e-13
7.39545150e+00 6.65924179e-13 4.80713913e-13 1.40025993e-17 1.85196263e-13 2.09240620e-16 4.80713913e-13
7.64295536e+00 6.34656256e-13 4.35508666e-13 1.06824413e-17 1.99136907e-13 1.80210989e-16 4.35508666e-13
7.89874245e+00 6.28124400e-13 3.94554418e-13 7.12290115e-18 2.33562859e-13 1.54558309e-16 3.94554418e-13
8.16308998e+00 6.42726429e-13 3.57451415e-13 4.90034419e-18 2.85270114e-13 1.34233441e-16 3.57451415e-13
8.43628443e+00 6.81337612e-13 3.23837494e-13 2.54555862e-18 3.57497573e-13 1.08609942e-16 3.23837494e-13
8.71862190e+00 7.04402365e-13 2.93384550e-13 1.70470252e-18 4.11016110e-13 8.33449177e-17 2.93384550e-13
9.01040836e+00 7.34575586e-13 2.65795332e-13 9.37514208e-19 4.68779317e-13 5.47453746e-17 2.65795332e-13
9.31196005e+00 7.57644255e-13 2.40800541e-13 0.00000000e+00 5.16843714e-13 0.00000000e+00 2.40800541e-13
9.62360379e+00 7.36191941e-13 2.18156204e-13 0.00000000e+00 5.18035737e-13 0.00000000e+00 2.18156204e-13
9.94567731e+00 6.82026525e-13 1.97641289e-13 0.00000000e+00 4.84385236e-13 0.00000000e+00 1.97641289e-13
1.02785297e+01 6.20610486e-13 1.79055550e-13 0.00000000e+00 4.41554936e-13 0.00000000e+00 1.79055550e-13
1.06225216e+01 5.61598027e-13 1.62217572e-13 0.00000000e+00 3.99380455e-13 0.00000000e+00 1.62217572e-13
1.09780260e+01 4.99355358e-13 1.46962999e-13 0.00000000e+00 3.52392359e-13 0.00000000e+00 1.46962999e-13
1.13454280e+01 4.43401529e-13 1.33142932e-13 0.00000000e+00 3.10258597e-13 0.00000000e+00 1.33142932e-13
1.17251259e+01 3.96135586e-13 1.20622472e-13 0.00000000e+00 2.75513114e-13 0.00000000e+00 1.20622472e-13
1.21175312e+01 3.52659809e-13 1.09279408e-13 0.00000000e+00 2.43380401e-13 0.00000000e+00 1.09279408e-13
1.25230691e+01 3.14427255e-13 9.90030204e-14 0.00000000e+00 2.15424234e-13 0.00000000e+00 9.90030204e-14
1.29421791e+01 2.81035469e-13 8.96930008e-14 0.00000000e+00 1.91342468e-13 0.00000000e+00 8.96930008e-14
1.33753155e+01 2.52381451e-13 8.12584743e-14 0.00000000e+00 1.71122977e-13 0.00000000e+00 8.12584743e-14
1.38229477e+01 2.31701345e-13 7.36171115e-14 0.00000000e+00 1.58084234e-13 0.00000000e+00 7.36171115e-14
1.42855609e+01 2.17489708e-13 6.66943252e-14 0.00000000e+00 1.50795383e-13 0.00000000e+00 6.66943252e-14
1.47636563e+01 2.13510441e-13 6.04225420e-14 0.00000000e+00 1.53087899e-13 0.00000000e+00 6.04225420e-14
1.52577522e+01 2.12141741e-13 5.47405431e-14 0.00000000e+00 1.57401198e-13 0.00000000e+00 5.47405431e-14
1.57683840e+01 2.13277991e-13 4.95928665e-14 0.00000000e+00 1.63685125e-13 0.00000000e+00 4.95928665e-14
1.62961051e+01 2.14699730e-13 4.49292657e-14 0.00000000e+00 1.69770465e-13 0.00000000e+00 4.49292657e-14
1.68414875e+01 2.16685374e-13 4.07042194e-14 0.00000000e+00 1.75981154e-13 0.00000000e+00 4.07042194e-14
1.74051222e+01 2.16101682e-13 3.68764869e-14 0.00000000e+00 1.79225196e-13 0.00000000e+00 3.68764869e-14
1.79876201e+01 2.13543752e-13 3.34087056e-14 0.00000000e+00 1.80135046e-13 0.00000000e+00 3.34087056e-14
1.85896125e+01 2.07703463e-13 3.02670267e-14 0.00000000e+00 1.77436437e-13 0.00000000e+00 3.02670267e-14
1.92117518e+01 1.98367726e-13 2.74207841e-14 0.00000000e+00 1.70946942e-13 0.00000000e+00 2.74207841e-14
1.98547123e+01 1.87347467e-13 2.48421957e-14 0.00000000e+00 1.62505272e-13 0.00000000e+00 2.48421957e-14
2.05191907e+01 1.76127787e-13 2.25060919e-14 0.00000000e+00 1.53621695e-13 0.00000000e+00 2.25060919e-14
2.12059073e+01 1.65445747e-13 2.03896700e-14 0.00000000e+00 1.45056077e-13 0.00000000e+00 2.03896700e-14
2.19156062e+01 1.56200066e-13 1.84722717e-14 0.00000000e+00 1.37727795e-13 0.00000000e+00 1.84722717e-14
2.26490567e+01 1.47353771e-13 1.67351811e-14 0.00000000e+00 1.30618590e-13 0.00000000e+00 1.67351811e-14
2.34070535e+01 1.39377541e-13 1.51614426e-14 0.00000000e+00 1.24216099e-13 0.00000000e+00 1.51614426e-14
2.41904183e+01 1.31822751e-13 1.37356949e-14 0.00000000e+00 1.18087057e-13 0.00000000e+00 1.37356949e-14
2.50000000e+01 1.25172673e-13 1.24440213e-14 0.00000000e+00 1.12728651e-13 0.00000000e+00 1.24440213e-14
2.75422870e+01 1.06907913e-13 9.30637977e-15 0.00000000e+00 9.76015331e-14 0.00000000e+00 9.30637977e-15
3.16227766e+01 8.43282060e-14 6.14866414e-15 0.00000000e+00 7.81795419e-14 0.00000000e+00 6.14866414e-15
3.63078055e+01 6.40369810e-14 4.06238211e-15 0.00000000e+00 5.99745989e-14 0.00000000e+00 4.06238211e-15
4.16869383e+01 4.59636643e-14 2.68398924e-15 0.00000000e+00 4.32796750e-14 0.00000000e+00 2.68398924e-15
4.78630092e+01 3.10902996e-14 1.77329411e-15 0.00000000e+00 2.93170055e-14 0.00000000e+00 1.77329411e-15
5.49540874e+01 1.99954737e-14 1.17160380e-15 0.00000000e+00 1.88238699e-14 0.00000000e+00 1.17160380e-15
6.30957344e+01 1.23606735e-14 7.74070953e-16 0.00000000e+00 1.15866025e-14 0.00000000e+00 7.74070953e-16
7.24435960e+01 7.40333297e-15 5.11423607e-16 0.00000000e+00 6.89190937e-15 0.00000000e+00 5.11423607e-16
8.31763771e+01 4.33187406e-15 3.37894226e-16 0.00000000e+00 3.99397983e-15 0.00000000e+00 3.37894226e-16
9.54992586e+01 2.49351934e-15 2.23244502e-16 0.00000000e+00 2.27027483e-15 0.00000000e+00 2.23244502e-16
1.09647820e+02 1.41817501e-15 1.47496179e-16 0.00000000e+00 1.27067883e-15 0.00000000e+00 1.47496179e-16
1.25892541e+02 8.07969188e-16 9.74497594e-17 0.00000000e+00 7.10519429e-16 0.00000000e+00 9.74497594e-17
1.44543977e+02 4.59043375e-16 6.43844175e-17 0.00000000e+00 3.94658958e-16 0.00000000e+00 6.43844175e-17
1.65958691e+02 2.51112279e-16 4.25383628e-17 0.00000000e+00 2.08573916e-16 0.00000000e+00 4.25383628e-17
1.90546072e+02 1.38318340e-16 2.81048176e-17 0.00000000e+00 1.10213523e-16 0.00000000e+00 2.81048176e-17
2.18776162e+02 7.66485055e-17 1.85686688e-17 0.00000000e+00 5.80798366e-17 0.00000000e+00 1.85686688e-17
2.51188643e+02 4.27385475e-17 1.22681978e-17 0.00000000e+00 3.04703497e-17 0.00000000e+00 1.22681978e-17
2.88403150e+02 2.40011144e-17 8.10551794e-18 0.00000000e+00 1.58955965e-17 0.00000000e+00 8.10551794e-18
3.31131121e+02 1.36176736e-17 5.35526259e-18 0.00000000e+00 8.26241102e-18 0.00000000e+00 5.35526259e-18
3.80189396e+02 7.81299712e-18 3.53818691e-18 0.00000000e+00 4.27481022e-18 0.00000000e+00 3.53818691e-18
4.36515832e+02 4.54225177e-18 2.33765691e-18 0.00000000e+00 2.20459486e-18 0.00000000e+00 2.33765691e-18
5.01187234e+02 2.67758087e-18 1.54447460e-18 0.00000000e+00 1.13310627e-18 0.00000000e+00 1.54447460e-18
5.75439937e+02 1.60116781e-18 1.02042425e-18 0.00000000e+00 5.80743556e-19 0.00000000e+00 1.02042425e-18
6.60693448e+02 9.71105561e-19 6.74187617e-19 0.00000000e+00 2.96917945e-19 0.00000000e+00 6.74187617e-19
7.58577575e+02 5.96912724e-19 4.45431341e-19 0.00000000e+00 1.51481383e-19 0.00000000e+00 4.45431341e-19
8.70963590e+02 3.71412757e-19 2.94293569e-19 0.00000000e+00 7.71191887e-20 0.00000000e+00 2.94293569e-19
1.00000000e+03 3.91844950e-20 0.00000000e+00 0.00000000e+00 3.91844950e-20 0.00000000e+00 0.00000000e+00
