# column 1: lambda (micron)
# column 2: total flux; lambda*F_lambda (W/m2)
# column 3: direct stellar flux; lambda*F_lambda (W/m2)
# column 4: scattered stellar flux; lambda*F_lambda (W/m2)
# column 5: total dust emission flux; lambda*F_lambda (W/m2)
# column 6: dust emission scattered flux; lambda*F_lambda (W/m2)
# column 7: transparent flux; lambda*F_lambda (W/m2)
1.00000000e-03 1.07336134e-12 1.07335627e-12 5.06780376e-18 0.00000000e+00 0.00000000e+00 1.07335627e-12
1.14815362e-03 1.26691188e-12 1.26690456e-12 7.31990673e-18 0.00000000e+00 0.00000000e+00 1.26690456e-12
1.31825674e-03 1.49536423e-12 1.49535359e-12 1.06427506e-17 0.00000000e+00 0.00000000e+00 1.49535359e-12
1.51356125e-03 1.76501212e-12 1.76499670e-12 1.54179197e-17 0.00000000e+00 0.00000000e+00 1.76499670e-12
1.73780083e-03 2.08328970e-12 2.08326203e-12 2.76718840e-17 0.00000000e+00 0.00000000e+00 2.08326203e-12
1.99526231e-03 2.45896177e-12 2.45891716e-12 4.46136925e-17 0.00000000e+00 0.00000000e+00 2.45891716e-12
2.29086765e-03 2.90238000e-12 2.90231066e-12 6.93350672e-17 0.00000000e+00 0.00000000e+00 2.90231066e-12
2.63026799e-03 3.42585220e-12 3.42565717e-12 1.95035111e-16 0.00000000e+00 0.00000000e+00 3.42565717e-12
3.01995172e-03 4.04381956e-12 4.04337385e-12 4.45714305e-16 0.00000000e+00 0.00000000e+00 4.04337385e-12
3.46736850e-03 4.77287993e-12 4.77247759e-12 4.02337824e-16 0.00000000e+00 0.00000000e+00 4.77247759e-12
3.98107171e-03 5.63523175e-12 5.63305378e-12 2.17796490e-15 0.00000000e+00 0.00000000e+00 5.63305378e-12
4.57088190e-03 6.65064053e-12 6.64880962e-12 1.83091286e-15 0.00000000e+00 0.00000000e+00 6.64880962e-12
5.24807460e-03 7.85055841e-12 7.84772720e-12 2.83121271e-15 0.00000000e+00 0.00000000e+00 7.84772720e-12
6.02559586e-03 9.26986318e-12 9.26283435e-12 7.02882316e-15 0.00000000e+00 0.00000000e+00 9.26283435e-12
6.91830971e-03 1.09465737e-11 1.09331145e-11 1.34591320e-14 0.00000000e+00 0.00000000e+00 1.09331145e-11
7.94328235e-03 1.29188385e-11 1.29045807e-11 1.42577971e-14 1.10043208e-303 2.69081534e-306 1.29045807e-11
9.12010839e-03 1.52682132e-11 1.52315429e-11 3.66703546e-14 5.09342822e-265 1.96122822e-267 1.52315429e-11
1.04712855e-02 1.70591637e-11 1.70115517e-11 4.76119508e-14 2.25308082e-231 7.70995916e-234 1.70115517e-11
1.20226443e-02 1.70981177e-11 1.70115517e-11 8.65659512e-14 3.68212954e-202 2.28520831e-204 1.70115517e-11
1.38038426e-02 1.70809905e-11 1.70115517e-11 6.94387447e-14 1.03965070e-176 7.83967456e-179 1.70115517e-11
1.58489319e-02 1.70928223e-11 1.70115517e-11 8.12705494e-14 1.45202833e-154 1.43240011e-156 1.70115517e-11
1.81970086e-02 1.71285853e-11 1.70115517e-11 1.17033603e-13 2.66459617e-135 3.35320054e-137 1.70115517e-11
2.08929613e-02 1.71605964e-11 1.70115517e-11 1.49044644e-13 1.42810695e-118 2.35410698e-120 1.70115517e-11
2.39883292e-02 1.71953526e-11 1.70115517e-11 1.83800842e-13 5.13038549e-104 1.10909343e-105 1.70115517e-11
2.75422870e-02 1.72520427e-11 1.70115517e-11 2.40490936e-13 2.34621772e-91 6.47043872e-93 1.70115517e-11
3.16227766e-02 1.72964647e-11 1.70115517e-11 2.84912951e-13 2.33066877e-80 7.72543415e-82 1.70115517e-11
3.63078055e-02 1.73243900e-11 1.70115517e-11 3.12838292e-13 8.20666301e-71 3.03668247e-72 1.70115517e-11
4.16869383e-02 1.74208153e-11 1.70115517e-11 4.09263606e-13 1.59112789e-62 7.81370936e-64 1.70115517e-11
4.78630092e-02 1.75100603e-11 1.70115517e-11 4.98508619e-13 2.44950456e-55 1.54263885e-56 1.70115517e-11
5.49540874e-02 1.75690526e-11 1.70115517e-11 5.57500902e-13 4.12987814e-49 3.03066144e-50 1.70115517e-11
6.30957344e-02 1.75785972e-11 1.70115517e-11 5.67045452e-13 1.35310989e-43 1.14509180e-44 1.70115517e-11
7.24435960e-02 1.75045224e-11 1.70115517e-11 4.92970703e-13 7.85407083e-39 6.22891410e-40 1.70115517e-11
8.31763771e-02 1.74957252e-11 1.70115517e-11 4.84173503e-13 8.08595824e-35 6.35855999e-36 1.70115517e-11
9.54992586e-02 1.75130283e-11 1.70115517e-11 5.01476581e-13 2.29076115e-31 1.85033404e-32 1.70115517e-11
1.09647820e-01 1.67750968e-11 1.62459122e-11 5.29184664e-13 1.95653914e-28 1.69534710e-29 1.62459122e-11
1.25892541e-01 1.56806686e-11 1.51615674e-11 5.19101174e-13 6.35073895e-26 5.35842932e-27 1.51615674e-11
1.44543977e-01 1.46298526e-11 1.41495980e-11 4.80254674e-13 8.66405133e-24 7.11937787e-25 1.41495980e-11
1.65958691e-01 1.37026505e-11 1.32051732e-11 4.97477356e-13 4.41132817e-22 3.96142600e-23 1.32051732e-11
1.90546072e-01 1.28310369e-11 1.23237846e-11 5.07252273e-13 9.36258670e-21 9.77692958e-22 1.23237846e-11
2.18776162e-01 1.19568238e-11 1.15012250e-11 4.55598632e-13 1.11226444e-19 1.20513923e-20 1.15012250e-11
2.51188643e-01 1.12378259e-11 1.07335677e-11 5.04256822e-13 1.36100112e-18 1.76376046e-19 1.07335677e-11
2.88403150e-01 1.05030868e-11 1.00171482e-11 4.85927286e-13 1.13077883e-17 1.42315373e-18 1.00171482e-11
3.31131121e-01 9.80392820e-12 9.34854667e-12 4.55316821e-13 6.47104225e-17 7.86522262e-18 9.34854667e-12
3.80189396e-01 9.13634194e-12 8.72457139e-12 4.11501084e-13 2.69463528e-16 3.17449547e-17 8.72457139e-12
4.36515832e-01 8.53036206e-12 8.14224377e-12 3.87260564e-13 8.57722916e-16 1.01317160e-16 8.14224377e-12
5.01187234e-01 7.95362985e-12 7.59878402e-12 3.52648684e-13 2.19715036e-15 2.72320972e-16 7.59878402e-12
5.75439937e-01 7.41873541e-12 7.09159786e-12 3.22156009e-13 4.98153931e-15 7.26981399e-16 7.09159786e-12
6.60693448e-01 6.92345328e-12 6.61826421e-12 2.93861961e-13 1.13271087e-14 2.21099969e-15 6.61826421e-12
7.58577575e-01 6.46931242e-12 6.17652353e-12 2.64130067e-13 2.86588146e-14 7.11054037e-15 6.17652353e-12
8.70963590e-01 6.07322762e-12 5.76426715e-12 2.30980119e-13 7.79803472e-14 2.12473376e-14 5.76426715e-12
1.00000000e+00 5.77812338e-12 5.37952711e-12 1.97215662e-13 2.01380611e-13 5.43359093e-14 5.37952711e-12
1.14815362e+00 5.66465993e-12 5.02046681e-12 1.70041499e-13 4.74151615e-13 1.18278781e-13 5.02046681e-12
1.31825674e+00 5.85097393e-12 4.68537225e-12 1.37870395e-13 1.02773128e-12 2.27122660e-13 4.68537225e-12
1.51356125e+00 6.44993447e-12 4.37264380e-12 1.13132143e-13 1.96415853e-12 3.81284666e-13 4.37264380e-12
1.73780083e+00 7.55763271e-12 4.08078863e-12 9.31474125e-14 3.38369667e-12 5.64394387e-13 4.08078863e-12
1.99526231e+00 9.05150441e-12 3.80841354e-12 7.48126233e-14 5.16827824e-12 7.21073628e-13 3.80841354e-12
2.29086765e+00 1.08388177e-11 3.55421832e-12 5.78255222e-14 7.22677387e-12 8.15848625e-13 3.55421832e-12
2.63026799e+00 1.26528075e-11 3.31698953e-12 4.28938308e-14 9.29292419e-12 8.05620482e-13 3.31698953e-12
3.01995172e+00 1.41391884e-11 3.09559474e-12 3.03490300e-14 1.10132447e-11 6.99715718e-13 3.09559474e-12
3.46736850e+00 1.52370157e-11 2.88897711e-12 2.04554879e-14 1.23275831e-11 5.53608846e-13 2.88897711e-12
3.98107171e+00 1.57192257e-11 2.69615031e-12 1.33864128e-14 1.30096890e-11 3.91621131e-13 2.69615031e-12
4.57088190e+00 1.56921573e-11 2.51619387e-12 8.38991734e-15 1.31675735e-11 2.54710888e-13 2.51619387e-12
5.24807460e+00 1.49048663e-11 2.08050667e-12 4.52743809e-15 1.28198322e-11 1.55528284e-13 2.08050667e-12
6.02559586e+00 1.35769212e-11 1.37457712e-12 1.85502330e-15 1.22004890e-11 8.87440468e-14 1.37457712e-12
6.70000000e+00 1.25209655e-11 9.99872685e-13 9.14448909e-16 1.15201784e-11 5.50206849e-14 9.99872685e-13
6.92422916e+00 1.21989638e-11 9.05846924e-13 7.26848888e-16 1.12923901e-11 4.69043420e-14 9.05846924e-13
7.15596261e+00 1.19354752e-11 8.20663132e-13 5.68802169e-16 1.11142433e-11 3.98497806e-14 8.20663132e-13
7.39545150e+00 1.18769665e-11 7.43489831e-13 4.33209831e-16 1.11330435e-11 3.39286997e-14 7.43489831e-13
7.64295536e+00 1.23858719e-11 6.73573732e-13 3.14809831e-16 1.17119833e-11 2.93962197e-14 6.73573732e-13
7.89874245e+00 1.36149597e-11 6.10232385e-13 2.07901597e-16 1.30045194e-11 2.51102728e-14 6.10232385e-13
8.16308998e+00 1.52270110e-11 5.52847515e-13 1.28356515e-16 1.46740351e-11 2.12640120e-14 5.52847515e-13
8.43628443e+00 1.70192867e-11 5.00858987e-13 7.18082241e-17 1.65183559e-11 1.68125379e-14 5.00858987e-13
8.71862190e+00 1.79844631e-11 4.53759343e-13 4.09065659e-17 1.75306628e-11 1.26418466e-14 4.53759343e-13
9.01040836e+00 1.88981609e-11 4.11088843e-13 1.80607672e-17 1.84870540e-11 7.98876991e-15 4.11088843e-13
9.31196005e+00 1.93247360e-11 3.72430980e-13 0.00000000e+00 1.89523050e-11 0.00000000e+00 3.72430980e-13
9.62360379e+00 1.91462366e-11 3.37408415e-13 0.00000000e+00 1.88088282e-11 0.00000000e+00 3.37408415e-13
9.94567731e+00 1.83896034e-11 3.05679292e-13 0.00000000e+00 1.80839241e-11 0.00000000e+00 3.05679292e-13
1.02785297e+01 1.75463288e-11 2.76933904e-13 0.00000000e+00 1.72693949e-11 0.00000000e+00 2.76933904e-13
1.06225216e+01 1.65975780e-11 2.50891667e-13 0.00000000e+00 1.63466864e-11 0.00000000e+00 2.50891667e-13
1.09780260e+01 1.55514113e-11 2.27298384e-13 0.00000000e+00 1.53241130e-11 0.00000000e+00 2.27298384e-13
1.13454280e+01 1.44398725e-11 2.05923759e-13 0.00000000e+00 1.42339487e-11 0.00000000e+00 2.05923759e-13
1.17251259e+01 1.34285642e-11 1.86559155e-13 0.00000000e+00 1.32420050e-11 0.00000000e+00 1.86559155e-13
1.21175312e+01 1.24294567e-11 1.69015555e-13 0.00000000e+00 1.22604412e-11 0.00000000e+00 1.69015555e-13
1.25230691e+01 1.14201742e-11 1.53121715e-13 0.00000000e+00 1.12670525e-11 0.00000000e+00 1.53121715e-13
1.29421791e+01 1.04988586e-11 1.38722496e-13 0.00000000e+00 1.03601361e-11 0.00000000e+00 1.38722496e-13
1.33753155e+01 9.62057638e-12 1.25677347e-13 0.00000000e+00 9.49489903e-12 0.00000000e+00 1.25677347e-13
1.38229477e+01 9.03131989e-12 1.13858934e-13 0.00000000e+00 8.91746095e-12 0.00000000e+00 1.13858934e-13
1.42855609e+01 8.61993656e-12 1.03151898e-13 0.00000000e+00 8.51678466e-12 0.00000000e+00 1.03151898e-13
1.47636563e+01 8.60621418e-12 9.34517274e-14 0.00000000e+00 8.51276245e-12 0.00000000e+00 9.34517274e-14
1.52577522e+01 8.70961225e-12 8.46637387e-14 0.00000000e+00 8.62494851e-12 0.00000000e+00 8.46637387e-14
1.57683840e+01 8.82823087e-12 7.67021526e-14 0.00000000e+00 8.75152872e-12 0.00000000e+00 7.67021526e-14
1.62961051e+01 8.94939610e-12 6.94892560e-14 0.00000000e+00 8.87990684e-12 0.00000000e+00 6.94892560e-14
1.68414875e+01 9.02978264e-12 6.29546439e-14 0.00000000e+00 8.96682799e-12 0.00000000e+00 6.29546439e-14
1.74051222e+01 8.99985767e-12 5.70345319e-14 0.00000000e+00 8.94282314e-12 0.00000000e+00 5.70345319e-14
1.79876201e+01 8.87059467e-12 5.16711337e-14 0.00000000e+00 8.81892353e-12 0.00000000e+00 5.16711337e-14
1.85896125e+01 8.61133654e-12 4.68120974e-14 0.00000000e+00 8.56452445e-12 0.00000000e+00 4.68120974e-14
1.92117518e+01 8.21516528e-12 4.24099939e-14 0.00000000e+00 8.17275528e-12 0.00000000e+00 4.24099939e-14
1.98547123e+01 7.77614061e-12 3.84218542e-14 0.00000000e+00 7.73771875e-12 0.00000000e+00 3.84218542e-14
2.05191907e+01 7.28030702e-12 3.48087501e-14 0.00000000e+00 7.24549827e-12 0.00000000e+00 3.48087501e-14
2.12059073e+01 6.81482228e-12 3.15354141e-14 0.00000000e+00 6.78328687e-12 0.00000000e+00 3.15354141e-14
2.19156062e+01 6.39136871e-12 2.85698952e-14 0.00000000e+00 6.36279881e-12 0.00000000e+00 2.85698952e-14
2.26490567e+01 5.96002538e-12 2.58832470e-14 0.00000000e+00 5.93414213e-12 0.00000000e+00 2.58832470e-14
2.34070535e+01 5.57828113e-12 2.34492452e-14 0.00000000e+00 5.55483189e-12 0.00000000e+00 2.34492452e-14
2.41904183e+01 5.19885307e-12 2.12441313e-14 0.00000000e+00 5.17760894e-12 0.00000000e+00 2.12441313e-14
2.50000000e+01 4.84844937e-12 1.92463813e-14 0.00000000e+00 4.82920299e-12 0.00000000e+00 1.92463813e-14
2.75422870e+01 3.91082559e-12 1.43935895e-14 0.00000000e+00 3.89643200e-12 0.00000000e+00 1.43935895e-14
3.16227766e+01 2.78365347e-12 9.50975027e-15 0.00000000e+00 2.77414372e-12 0.00000000e+00 9.50975027e-15
3.63078055e+01 1.88432567e-12 6.28302969e-15 0.00000000e+00 1.87804264e-12 0.00000000e+00 6.28302969e-15
4.16869383e+01 1.20235757e-12 4.15115655e-15 0.00000000e+00 1.19820641e-12 0.00000000e+00 4.15115655e-15
4.78630092e+01 7.23393671e-13 2.74264194e-15 0.00000000e+00 7.20651029e-13 0.00000000e+00 2.74264194e-15
5.49540874e+01 4.15129111e-13 1.81204556e-15 0.00000000e+00 4.13317066e-13 0.00000000e+00 1.81204556e-15
6.30957344e+01 2.30363544e-13 1.19720663e-15 0.00000000e+00 2.29166338e-13 0.00000000e+00 1.19720663e-15
7.24435960e+01 1.24724778e-13 7.90986575e-16 0.00000000e+00 1.23933791e-13 0.00000000e+00 7.90986575e-16
8.31763771e+01 6.64730361e-14 5.22599647e-16 0.00000000e+00 6.59504365e-14 0.00000000e+00 5.22599647e-16
9.54992586e+01 3.51025768e-14 3.45278163e-16 0.00000000e+00 3.47572987e-14 0.00000000e+00 3.45278163e-16
1.09647820e+02 1.84395094e-14 2.28123020e-16 0.00000000e+00 1.82113863e-14 0.00000000e+00 2.28123020e-16
1.25892541e+02 9.77000494e-15 1.50719385e-16 0.00000000e+00 9.61928556e-15 0.00000000e+00 1.50719385e-16
1.44543977e+02 5.18693552e-15 9.95793099e-17 0.00000000e+00 5.08735621e-15 0.00000000e+00 9.95793099e-17
1.65958691e+02 2.63726975e-15 6.57913976e-17 0.00000000e+00 2.57147835e-15 0.00000000e+00 6.57913976e-17
1.90546072e+02 1.35134125e-15 4.34679453e-17 0.00000000e+00 1.30787330e-15 0.00000000e+00 4.34679453e-17
2.18776162e+02 6.95736653e-16 2.87189867e-17 0.00000000e+00 6.67017666e-16 0.00000000e+00 2.87189867e-17
2.51188643e+02 3.59169572e-16 1.89744463e-17 0.00000000e+00 3.40195126e-16 0.00000000e+00 1.89744463e-17
2.88403150e+02 1.85743710e-16 1.25362924e-17 0.00000000e+00 1.73207418e-16 0.00000000e+00 1.25362924e-17
3.31131121e+02 9.64440963e-17 8.28264623e-18 0.00000000e+00 8.81614500e-17 0.00000000e+00 8.28264623e-18
3.80189396e+02 5.02656215e-17 5.47229010e-18 0.00000000e+00 4.47933314e-17 0.00000000e+00 5.47229010e-18
4.36515832e+02 2.63577228e-17 3.61550621e-18 0.00000000e+00 2.27422166e-17 0.00000000e+00 3.61550621e-18
5.01187234e+02 1.39207375e-17 2.38874127e-18 0.00000000e+00 1.15319962e-17 0.00000000e+00 2.38874127e-18
5.75439937e+02 7.42007861e-18 1.57822570e-18 0.00000000e+00 5.84185290e-18 0.00000000e+00 1.57822570e-18
6.60693448e+02 3.99951138e-18 1.04272338e-18 0.00000000e+00 2.95678800e-18 0.00000000e+00 1.04272338e-18
7.58577575e+02 2.18429783e-18 6.88920507e-19 0.00000000e+00 1.49537732e-18 0.00000000e+00 6.88920507e-19
8.70963590e+02 1.21073385e-18 4.55165265e-19 0.00000000e+00 7.55568581e-19 0.00000000e+00 4.55165265e-19
1.00000000e+03 3.81401963e-19 0.00000000e+00 0.00000000e+00 3.81401963e-19 0.00000000e+00 0.00000000e+00
