# column 1: lambda (micron)
# column 2: total flux; lambda*F_lambda (W/m2)
# column 3: direct stellar flux; lambda*F_lambda (W/m2)
# column 4: scattered stellar flux; lambda*F_lambda (W/m2)
# column 5: total dust emission flux; lambda*F_lambda (W/m2)
# column 6: dust emission scattered flux; lambda*F_lambda (W/m2)
# column 7: transparent flux; lambda*F_lambda (W/m2)
1.00000000e-03 9.68073341e-13 9.68073281e-13 6.02991640e-20 0.00000000e+00 0.00000000e+00 9.68073281e-13
1.14815362e-03 1.14263696e-12 1.14263687e-12 9.32173328e-20 0.00000000e+00 0.00000000e+00 1.14263687e-12
1.31825674e-03 1.34867802e-12 1.34867788e-12 1.43866822e-19 0.00000000e+00 0.00000000e+00 1.34867788e-12
1.51356125e-03 1.59187254e-12 1.59187233e-12 2.08696052e-19 0.00000000e+00 0.00000000e+00 1.59187233e-12
1.73780083e-03 1.87892015e-12 1.87891976e-12 3.87980248e-19 0.00000000e+00 0.00000000e+00 1.87891976e-12
1.99526231e-03 2.21772845e-12 2.21772777e-12 6.85889284e-19 0.00000000e+00 0.00000000e+00 2.21772777e-12
2.29086765e-03 2.61763094e-12 2.61762985e-12 1.09740039e-18 0.00000000e+00 0.00000000e+00 2.61762985e-12
2.63026799e-03 3.08964486e-12 3.08964252e-12 2.33781625e-18 0.00000000e+00 0.00000000e+00 3.08964252e-12
3.01995172e-03 3.64677250e-12 3.64676883e-12 3.67265535e-18 0.00000000e+00 0.00000000e+00 3.64676883e-12
3.46736850e-03 4.30436249e-12 4.30435650e-12 5.99088106e-18 0.00000000e+00 0.00000000e+00 4.30435650e-12
3.98107171e-03 5.08053106e-12 5.08052080e-12 1.02626227e-17 0.00000000e+00 0.00000000e+00 5.08052080e-12
4.57088190e-03 5.99666629e-12 5.99664354e-12 2.27458458e-17 0.00000000e+00 0.00000000e+00 5.99664354e-12
5.24807460e-03 7.07800239e-12 7.07796211e-12 4.02775486e-17 0.00000000e+00 0.00000000e+00 7.07796211e-12
6.02559586e-03 8.35434024e-12 8.35426474e-12 7.54952657e-17 0.00000000e+00 0.00000000e+00 8.35426474e-12
6.91830971e-03 9.86083028e-12 9.86071107e-12 1.19206695e-16 0.00000000e+00 0.00000000e+00 9.86071107e-12
7.94328235e-03 1.16389917e-11 1.16388008e-11 1.90970154e-16 1.49837802e-303 1.03499043e-305 1.16388008e-11
9.12010839e-03 1.37378237e-11 1.37375167e-11 3.06980077e-16 6.88245270e-265 2.99074905e-266 1.37375167e-11
1.04712855e-02 1.53433795e-11 1.53429287e-11 4.50856245e-16 2.83204764e-231 2.73377192e-233 1.53429287e-11
1.20226443e-02 1.53435941e-11 1.53429287e-11 6.65411938e-16 4.48941182e-202 6.47950124e-204 1.53429287e-11
1.38038426e-02 1.53438514e-11 1.53429287e-11 9.22694441e-16 1.23154060e-176 2.04287089e-178 1.53429287e-11
1.58489319e-02 1.53443097e-11 1.53429287e-11 1.38107625e-15 1.68197592e-154 3.71241461e-156 1.53429287e-11
1.81970086e-02 1.53449856e-11 1.53429287e-11 2.05697488e-15 3.00492607e-135 6.19127066e-137 1.53429287e-11
2.08929613e-02 1.53453975e-11 1.53429287e-11 2.46887209e-15 1.57761238e-118 3.80432573e-120 1.53429287e-11
2.39883292e-02 1.53464153e-11 1.53429287e-11 3.48661426e-15 5.56987827e-104 1.63822376e-105 1.53429287e-11
2.75422870e-02 1.53479258e-11 1.53429287e-11 4.99709955e-15 2.50053068e-91 8.05777871e-93 1.53429287e-11
3.16227766e-02 1.53493511e-11 1.53429287e-11 6.42241627e-15 2.44380253e-80 8.71143053e-82 1.53429287e-11
3.63078055e-02 1.53505025e-11 1.53429287e-11 7.57385712e-15 8.51158024e-71 3.44375644e-72 1.53429287e-11
4.16869383e-02 1.53529874e-11 1.53429287e-11 1.00587436e-14 1.62712717e-62 7.95023041e-64 1.53429287e-11
4.78630092e-02 1.53571486e-11 1.53429287e-11 1.42199676e-14 2.46331860e-55 1.42243282e-56 1.53429287e-11
5.49540874e-02 1.53618015e-11 1.53429287e-11 1.88728401e-14 4.10402856e-49 2.75142684e-50 1.53429287e-11
6.30957344e-02 1.53678163e-11 1.53429287e-11 2.48876286e-14 1.32027846e-43 1.01602910e-44 1.53429287e-11
7.24435960e-02 1.53701654e-11 1.53429287e-11 2.72367042e-14 7.54478471e-39 5.39122812e-40 1.53429287e-11
8.31763771e-02 1.53694457e-11 1.53429287e-11 2.65170607e-14 7.72824584e-35 5.37392701e-36 1.53429287e-11
9.54992586e-02 1.53714382e-11 1.53429287e-11 2.85094940e-14 2.18805660e-31 1.56272832e-32 1.53429287e-11
1.09647820e-01 1.46799806e-11 1.46523889e-11 2.75917467e-14 1.87818661e-28 1.46206593e-29 1.46523889e-11
1.25892541e-01 1.36981016e-11 1.36744049e-11 2.36966872e-14 6.11911878e-26 4.65731583e-27 1.36744049e-11
1.44543977e-01 1.27813229e-11 1.27616972e-11 1.96256956e-14 8.36706892e-24 5.95475759e-25 1.27616972e-11
1.65958691e-01 1.19309698e-11 1.19099088e-11 2.10609917e-14 4.25166956e-22 3.23568043e-23 1.19099088e-11
1.90546072e-01 1.11393725e-11 1.11149736e-11 2.43988455e-14 8.96020918e-21 7.88620966e-22 1.11149736e-11
2.18776162e-01 1.03994345e-11 1.03730969e-11 2.63374185e-14 1.05915279e-19 9.90736973e-21 1.03730969e-11
2.51188643e-01 9.71171140e-12 9.68073733e-12 3.09727747e-14 1.28977676e-18 1.36448584e-19 9.68073733e-12
2.88403150e-01 9.06160402e-12 9.03458975e-12 2.70035235e-14 1.07451813e-17 1.08247524e-18 9.03458975e-12
3.31131121e-01 8.45553255e-12 8.43156974e-12 2.39012458e-14 6.15619066e-17 5.87148442e-18 8.43156974e-12
3.80189396e-01 7.89066468e-12 7.86879872e-12 2.16097045e-14 2.56247094e-16 2.30880590e-17 7.86879872e-12
4.36515832e-01 7.36323935e-12 7.34359025e-12 1.88391089e-14 8.09987469e-16 6.98346932e-17 7.34359025e-12
5.01187234e-01 6.87384335e-12 6.85343719e-12 1.83857062e-14 2.02045739e-15 1.67557750e-16 6.85343719e-12
5.75439937e-01 6.41590593e-12 6.39599973e-12 1.57582556e-14 4.14794271e-15 3.29135958e-16 6.39599973e-12
6.60693448e-01 5.99145601e-12 5.96909425e-12 1.50933806e-14 7.26837638e-15 5.52659677e-16 5.96909425e-12
7.58577575e-01 5.59636197e-12 5.57068288e-12 1.43117884e-14 1.13672974e-14 8.28251057e-16 5.57068288e-12
8.70963590e-01 5.22846087e-12 5.19886376e-12 1.32431125e-14 1.63540000e-14 1.13523995e-15 5.19886376e-12
1.00000000e+00 4.88569161e-12 4.85186196e-12 1.16230881e-14 2.22065568e-14 1.45312538e-15 4.85186196e-12
1.14815362e+00 4.56843884e-12 4.52802104e-12 1.03633856e-14 3.00544080e-14 1.81001404e-15 4.52802104e-12
1.31825674e+00 4.27596217e-12 4.22579511e-12 8.27180091e-15 4.18952561e-14 2.36409613e-15 4.22579511e-12
1.51356125e+00 4.01016306e-12 3.94374146e-12 6.37161992e-15 6.00499798e-14 3.07532991e-15 3.94374146e-12
1.73780083e+00 3.77175734e-12 3.68051368e-12 5.17614985e-15 8.60675067e-14 3.94182871e-15 3.68051368e-12
1.99526231e+00 3.55800021e-12 3.43485522e-12 3.62226218e-15 1.19522722e-13 4.70674673e-15 3.43485522e-12
2.29086765e+00 3.36565720e-12 3.20559341e-12 2.76087917e-15 1.57302909e-13 4.99324739e-15 3.20559341e-12
2.63026799e+00 3.18814479e-12 2.99163384e-12 1.94715193e-15 1.94563799e-13 4.87844800e-15 2.99163384e-12
3.01995172e+00 3.01931713e-12 2.79195514e-12 1.25501337e-15 2.26106968e-13 4.25185994e-15 2.79195514e-12
3.46736850e+00 2.85402239e-12 2.60560415e-12 8.10877936e-16 2.47607366e-13 3.34458234e-15 2.60560415e-12
3.98107171e+00 2.68774387e-12 2.43169128e-12 4.95046917e-16 2.55557548e-13 2.41213949e-15 2.43169128e-12
4.57088190e+00 2.52061893e-12 2.26938634e-12 2.94264623e-16 2.50938323e-13 1.58817741e-15 2.26938634e-12
5.24807460e+00 2.11360665e-12 1.87643467e-12 1.58713410e-16 2.37013272e-13 9.67434228e-16 1.87643467e-12
6.02559586e+00 1.45767415e-12 1.23974809e-12 5.99611794e-17 2.17866101e-13 5.56699656e-16 1.23974809e-12
6.70000000e+00 1.10248487e-12 9.01797527e-13 3.15549940e-17 2.00655784e-13 3.41796932e-16 9.01797527e-13
6.92422916e+00 1.01207620e-12 8.16994532e-13 2.43337700e-17 1.95057332e-13 2.88984151e-16 8.16994532e-13
7.15596261e+00 9.31596503e-13 7.40166218e-13 1.84582337e-17 1.91411828e-13 2.42529809e-16 7.40166218e-13
7.39545150e+00 8.63333004e-13 6.70562664e-13 1.46651827e-17 1.92755675e-13 2.07787475e-16 6.70562664e-13
7.64295536e+00 8.16079089e-13 6.07504471e-13 1.11803466e-17 2.08563438e-13 1.80182867e-16 6.07504471e-13
7.89874245e+00 7.98024033e-13 5.50376127e-13 7.38464791e-18 2.47640521e-13 1.58516487e-16 5.50376127e-13
8.16308998e+00 8.04142997e-13 4.98620004e-13 5.01891257e-18 3.05517974e-13 1.39271307e-16 4.98620004e-13
8.43628443e+00 8.40678274e-13 4.51730909e-13 2.94012217e-18 3.88944426e-13 1.16889727e-16 4.51730909e-13
8.71862190e+00 8.58427071e-13 4.09251158e-13 1.99549815e-18 4.49173918e-13 9.04218568e-17 4.09251158e-13
9.01040836e+00 8.84142188e-13 3.70766106e-13 1.01696586e-18 5.13375064e-13 6.00913996e-17 3.70766106e-13
9.31196005e+00 9.01570732e-13 3.35900102e-13 0.00000000e+00 5.65670630e-13 0.00000000e+00 3.35900102e-13
9.62360379e+00 8.69789980e-13 3.04312818e-13 0.00000000e+00 5.65477162e-13 0.00000000e+00 3.04312818e-13
9.94567731e+00 8.00921424e-13 2.75695930e-13 0.00000000e+00 5.25225494e-13 0.00000000e+00 2.75695930e-13
1.02785297e+01 7.24238256e-13 2.49770110e-13 0.00000000e+00 4.74468147e-13 0.00000000e+00 2.49770110e-13
1.06225216e+01 6.51801196e-13 2.26282295e-13 0.00000000e+00 4.25518902e-13 0.00000000e+00 2.26282295e-13
1.09780260e+01 5.75736185e-13 2.05003220e-13 0.00000000e+00 3.70732964e-13 0.00000000e+00 2.05003220e-13
1.13454280e+01 5.09682851e-13 1.85725182e-13 0.00000000e+00 3.23957669e-13 0.00000000e+00 1.85725182e-13
1.17251259e+01 4.52497719e-13 1.68260007e-13 0.00000000e+00 2.84237712e-13 0.00000000e+00 1.68260007e-13
1.21175312e+01 4.01279240e-13 1.52437217e-13 0.00000000e+00 2.48842023e-13 0.00000000e+00 1.52437217e-13
1.25230691e+01 3.55567538e-13 1.38102367e-13 0.00000000e+00 2.17465171e-13 0.00000000e+00 1.38102367e-13
1.29421791e+01 3.16362185e-13 1.25115533e-13 0.00000000e+00 1.91246652e-13 0.00000000e+00 1.25115533e-13
1.33753155e+01 2.82754984e-13 1.13349952e-13 0.00000000e+00 1.69405032e-13 0.00000000e+00 1.13349952e-13
1.38229477e+01 2.57937194e-13 1.02690779e-13 0.00000000e+00 1.55246415e-13 0.00000000e+00 1.02690779e-13
1.42855609e+01 2.40191495e-13 9.30339713e-14 0.00000000e+00 1.47157524e-13 0.00000000e+00 9.30339713e-14
1.47636563e+01 2.33061878e-13 8.42852675e-14 0.00000000e+00 1.48776611e-13 0.00000000e+00 8.42852675e-14
1.52577522e+01 2.29074152e-13 7.63592720e-14 0.00000000e+00 1.52714880e-13 0.00000000e+00 7.63592720e-14
1.57683840e+01 2.27552082e-13 6.91786191e-14 0.00000000e+00 1.58373463e-13 0.00000000e+00 6.91786191e-14
1.62961051e+01 2.26622869e-13 6.26732185e-14 0.00000000e+00 1.63949650e-13 0.00000000e+00 6.26732185e-14
1.68414875e+01 2.26457397e-13 5.67795711e-14 0.00000000e+00 1.69677826e-13 0.00000000e+00 5.67795711e-14
1.74051222e+01 2.23281406e-13 5.14401489e-14 0.00000000e+00 1.71841257e-13 0.00000000e+00 5.14401489e-14
1.79876201e+01 2.18806269e-13 4.66028339e-14 0.00000000e+00 1.72203435e-13 0.00000000e+00 4.66028339e-14
1.85896125e+01 2.10621008e-13 4.22204090e-14 0.00000000e+00 1.68400599e-13 0.00000000e+00 4.22204090e-14
1.92117518e+01 1.99595849e-13 3.82500974e-14 0.00000000e+00 1.61345752e-13 0.00000000e+00 3.82500974e-14
1.98547123e+01 1.86899269e-13 3.46531450e-14 0.00000000e+00 1.52246124e-13 0.00000000e+00 3.46531450e-14
2.05191907e+01 1.74154669e-13 3.13944418e-14 0.00000000e+00 1.42760227e-13 0.00000000e+00 3.13944418e-14
2.12059073e+01 1.62236384e-13 2.84421796e-14 0.00000000e+00 1.33794204e-13 0.00000000e+00 2.84421796e-14
2.19156062e+01 1.51754325e-13 2.57675415e-14 0.00000000e+00 1.25986784e-13 0.00000000e+00 2.57675415e-14
2.26490567e+01 1.41998332e-13 2.33444203e-14 0.00000000e+00 1.18653911e-13 0.00000000e+00 2.33444203e-14
2.34070535e+01 1.33188201e-13 2.11491639e-14 0.00000000e+00 1.12039037e-13 0.00000000e+00 2.11491639e-14
2.41904183e+01 1.25055738e-13 1.91603445e-14 0.00000000e+00 1.05895394e-13 0.00000000e+00 1.91603445e-14
2.50000000e+01 1.17677515e-13 1.73585491e-14 0.00000000e+00 1.00318966e-13 0.00000000e+00 1.73585491e-14
2.75422870e+01 9.81688740e-14 1.29817562e-14 0.00000000e+00 8.51871178e-14 0.00000000e+00 1.29817562e-14
3.16227766e+01 7.52436128e-14 8.57696126e-15 0.00000000e+00 6.66666515e-14 0.00000000e+00 8.57696126e-15
3.63078055e+01 5.57739335e-14 5.66674211e-15 0.00000000e+00 5.01071914e-14 0.00000000e+00 5.66674211e-15
4.16869383e+01 3.91927860e-14 3.74397938e-15 0.00000000e+00 3.54488067e-14 0.00000000e+00 3.74397938e-15
4.78630092e+01 2.60463770e-14 2.47362265e-15 0.00000000e+00 2.35727543e-14 0.00000000e+00 2.47362265e-15
5.49540874e+01 1.65317528e-14 1.63430628e-15 0.00000000e+00 1.48974466e-14 0.00000000e+00 1.63430628e-15
6.30957344e+01 1.01262600e-14 1.07977545e-15 0.00000000e+00 9.04648451e-15 0.00000000e+00 1.07977545e-15
7.24435960e+01 6.03276102e-15 7.13400564e-16 0.00000000e+00 5.31936045e-15 0.00000000e+00 7.13400564e-16
8.31763771e+01 3.52505767e-15 4.71339078e-16 0.00000000e+00 3.05371859e-15 0.00000000e+00 4.71339078e-16
9.54992586e+01 2.03359216e-15 3.11410641e-16 0.00000000e+00 1.72218152e-15 0.00000000e+00 3.11410641e-16
1.09647820e+02 1.16378922e-15 2.05746970e-16 0.00000000e+00 9.58042253e-16 0.00000000e+00 2.05746970e-16
1.25892541e+02 6.69104066e-16 1.35935675e-16 0.00000000e+00 5.33168391e-16 0.00000000e+00 1.35935675e-16
1.44543977e+02 3.84829248e-16 8.98118099e-17 0.00000000e+00 2.95017438e-16 0.00000000e+00 8.98118099e-17
1.65958691e+02 2.14670014e-16 5.93380743e-17 0.00000000e+00 1.55331939e-16 0.00000000e+00 5.93380743e-17
1.90546072e+02 1.21039133e-16 3.92042769e-17 0.00000000e+00 8.18348559e-17 0.00000000e+00 3.92042769e-17
2.18776162e+02 6.89253051e-17 2.59020089e-17 0.00000000e+00 4.30232962e-17 0.00000000e+00 2.59020089e-17
2.51188643e+02 3.96411819e-17 1.71132876e-17 0.00000000e+00 2.25278943e-17 0.00000000e+00 1.71132876e-17
2.88403150e+02 2.30399914e-17 1.13066370e-17 0.00000000e+00 1.17333544e-17 0.00000000e+00 1.13066370e-17
3.31131121e+02 1.35610010e-17 7.47022097e-18 0.00000000e+00 6.09077999e-18 0.00000000e+00 7.47022097e-18
3.80189396e+02 8.08326815e-18 4.93552605e-18 0.00000000e+00 3.14774210e-18 0.00000000e+00 4.93552605e-18
4.36515832e+02 4.88271440e-18 3.26086972e-18 0.00000000e+00 1.62184468e-18 0.00000000e+00 3.26086972e-18
5.01187234e+02 2.98736911e-18 2.15443526e-18 0.00000000e+00 8.32933849e-19 0.00000000e+00 2.15443526e-18
5.75439937e+02 1.85004296e-18 1.42342126e-18 0.00000000e+00 4.26621700e-19 0.00000000e+00 1.42342126e-18
6.60693448e+02 1.15844426e-18 9.40445101e-19 0.00000000e+00 2.17999161e-19 0.00000000e+00 9.40445101e-19
7.58577575e+02 7.32512282e-19 6.21345916e-19 0.00000000e+00 1.11166366e-19 0.00000000e+00 6.21345916e-19
8.70963590e+02 4.67091591e-19 4.10519176e-19 0.00000000e+00 5.65724157e-20 0.00000000e+00 4.10519176e-19
1.00000000e+03 2.87348632e-20 0.00000000e+00 0.00000000e+00 2.87348632e-20 0.00000000e+00 0.00000000e+00
