# column 1: lambda (micron)
# column 2: total flux; lambda*F_lambda (W/m2)
# column 3: direct stellar flux; lambda*F_lambda (W/m2)
# column 4: scattered stellar flux; lambda*F_lambda (W/m2)
# column 5: total dust emission flux; lambda*F_lambda (W/m2)
# column 6: dust emission scattered flux; lambda*F_lambda (W/m2)
# column 7: transparent flux; lambda*F_lambda (W/m2)
1.00000000e-03 1.07336234e-12 1.07335627e-12 6.06540430e-18 0.00000000e+00 0.00000000e+00 1.07335627e-12
1.14815362e-03 1.26691127e-12 1.26690456e-12 6.71800953e-18 0.00000000e+00 0.00000000e+00 1.26690456e-12
1.31825674e-03 1.49541638e-12 1.49535359e-12 6.27855658e-17 0.00000000e+00 0.00000000e+00 1.49535359e-12
1.51356125e-03 1.76504021e-12 1.76499670e-12 4.35075840e-17 0.00000000e+00 0.00000000e+00 1.76499670e-12
1.73780083e-03 2.08331830e-12 2.08326203e-12 5.62758074e-17 0.00000000e+00 0.00000000e+00 2.08326203e-12
1.99526231e-03 2.45900745e-12 2.45891716e-12 9.02945747e-17 0.00000000e+00 0.00000000e+00 2.45891716e-12
2.29086765e-03 2.90855863e-12 2.90231066e-12 6.24796838e-15 0.00000000e+00 0.00000000e+00 2.90231066e-12
2.63026799e-03 3.54296373e-12 3.42565717e-12 1.17306562e-13 0.00000000e+00 0.00000000e+00 3.42565717e-12
3.01995172e-03 4.06325855e-12 4.04337385e-12 1.98847010e-14 0.00000000e+00 0.00000000e+00 4.04337385e-12
3.46736850e-03 4.78378325e-12 4.77247759e-12 1.13056631e-14 0.00000000e+00 0.00000000e+00 4.77247759e-12
3.98107171e-03 6.03762286e-12 5.63305378e-12 4.04569077e-13 0.00000000e+00 0.00000000e+00 5.63305378e-12
4.57088190e-03 6.65141436e-12 6.64880962e-12 2.60474200e-15 0.00000000e+00 0.00000000e+00 6.64880962e-12
5.24807460e-03 7.85492025e-12 7.84772720e-12 7.19305388e-15 0.00000000e+00 0.00000000e+00 7.84772720e-12
6.02559586e-03 9.28796866e-12 9.26283435e-12 2.51343059e-14 0.00000000e+00 0.00000000e+00 9.26283435e-12
6.91830971e-03 1.09513528e-11 1.09331145e-11 1.82383067e-14 0.00000000e+00 0.00000000e+00 1.09331145e-11
7.94328235e-03 1.30259953e-11 1.29045807e-11 1.21414645e-13 2.51562227e-303 3.09341769e-305 1.29045807e-11
9.12010839e-03 1.53103099e-11 1.52315429e-11 7.87669650e-14 1.10415040e-264 9.32393767e-267 1.52315429e-11
1.04712855e-02 1.71029555e-11 1.70115517e-11 9.14038301e-14 4.68411020e-231 3.54018184e-233 1.70115517e-11
1.20226443e-02 1.71270894e-11 1.70115517e-11 1.15537639e-13 7.39394634e-202 8.59428299e-204 1.70115517e-11
1.38038426e-02 1.71520142e-11 1.70115517e-11 1.40462472e-13 2.03671739e-176 4.05453904e-178 1.70115517e-11
1.58489319e-02 1.71359726e-11 1.70115517e-11 1.24420893e-13 2.76562303e-154 6.18669918e-156 1.70115517e-11
1.81970086e-02 1.71758904e-11 1.70115517e-11 1.64338725e-13 4.94122210e-135 1.13236714e-136 1.70115517e-11
2.08929613e-02 1.71843222e-11 1.70115517e-11 1.72770497e-13 2.59792611e-118 7.50497288e-120 1.70115517e-11
2.39883292e-02 1.72208803e-11 1.70115517e-11 2.09328575e-13 9.19112177e-104 3.45346905e-105 1.70115517e-11
2.75422870e-02 1.72473334e-11 1.70115517e-11 2.35781718e-13 4.12476520e-91 1.72692869e-92 1.70115517e-11
3.16227766e-02 1.72783707e-11 1.70115517e-11 2.66818945e-13 4.02344024e-80 1.78843642e-81 1.70115517e-11
3.63078055e-02 1.72935895e-11 1.70115517e-11 2.82037799e-13 1.40074712e-70 6.98247698e-72 1.70115517e-11
4.16869383e-02 1.73535121e-11 1.70115517e-11 3.41960344e-13 2.68737264e-62 1.68081344e-63 1.70115517e-11
4.78630092e-02 1.74236030e-11 1.70115517e-11 4.12051311e-13 4.08486241e-55 3.10295322e-56 1.70115517e-11
5.49540874e-02 1.74755328e-11 1.70115517e-11 4.63981075e-13 6.81259517e-49 5.96079497e-50 1.70115517e-11
6.30957344e-02 1.75025822e-11 1.70115517e-11 4.91030447e-13 2.18738074e-43 2.12620990e-44 1.70115517e-11
7.24435960e-02 1.74595440e-11 1.70115517e-11 4.47992252e-13 1.24510955e-38 1.14031760e-39 1.70115517e-11
8.31763771e-02 1.74373602e-11 1.70115517e-11 4.25808529e-13 1.27320850e-34 1.13010008e-35 1.70115517e-11
9.54992586e-02 1.74530418e-11 1.70115517e-11 4.41490119e-13 3.61108742e-31 3.34700129e-32 1.70115517e-11
1.09647820e-01 1.67056099e-11 1.62459122e-11 4.59697745e-13 3.10783001e-28 3.08435610e-29 1.62459122e-11
1.25892541e-01 1.56067313e-11 1.51615674e-11 4.45163910e-13 1.01575386e-25 9.95688003e-27 1.51615674e-11
1.44543977e-01 1.45572130e-11 1.41495980e-11 4.07614979e-13 1.39125756e-23 1.32443865e-24 1.41495980e-11
1.65958691e-01 1.36290817e-11 1.32051732e-11 4.23908529e-13 7.08770699e-22 7.19617512e-23 1.32051732e-11
1.90546072e-01 1.27814270e-11 1.23237846e-11 4.57642381e-13 1.50299609e-20 1.78514421e-21 1.23237846e-11
2.18776162e-01 1.19149532e-11 1.15012250e-11 4.13728049e-13 1.76766054e-19 2.13725462e-20 1.15012250e-11
2.51188643e-01 1.12041268e-11 1.07335677e-11 4.70556928e-13 2.17838619e-18 3.10158509e-19 1.07335677e-11
2.88403150e-01 1.04645133e-11 1.00171482e-11 4.47346851e-13 1.81998789e-17 2.54830746e-18 1.00171482e-11
3.31131121e-01 9.76922015e-12 9.34854667e-12 4.20568933e-13 1.04539705e-16 1.42996166e-17 9.34854667e-12
3.80189396e-01 9.11641612e-12 8.72457139e-12 3.91408616e-13 4.36110950e-16 5.74479941e-17 8.72457139e-12
4.36515832e-01 8.50900277e-12 8.14224377e-12 3.65361490e-13 1.39750748e-15 1.83613932e-16 8.14224377e-12
5.01187234e-01 7.94519112e-12 7.59878402e-12 3.42766837e-13 3.64027004e-15 4.96821315e-16 7.59878402e-12
5.75439937e-01 7.42104900e-12 7.09159786e-12 3.21009462e-13 8.44167088e-15 1.32740257e-15 7.09159786e-12
6.60693448e-01 6.93289177e-12 6.61826421e-12 2.95245501e-13 1.93820601e-14 3.76419185e-15 6.61826421e-12
7.58577575e-01 6.49103419e-12 6.17652353e-12 2.67369711e-13 4.71409395e-14 1.11395672e-14 6.17652353e-12
8.70963590e-01 6.12349714e-12 5.76426715e-12 2.40017205e-13 1.19212787e-13 3.14472627e-14 5.76426715e-12
1.00000000e+00 5.87190629e-12 5.37952711e-12 2.07856031e-13 2.84523145e-13 7.58255500e-14 5.37952711e-12
1.14815362e+00 5.82247081e-12 5.02046681e-12 1.74189311e-13 6.27814688e-13 1.59815066e-13 5.02046681e-12
1.31825674e+00 6.08000018e-12 4.68537225e-12 1.42525833e-13 1.25210210e-12 2.86297995e-13 4.68537225e-12
1.51356125e+00 6.73695053e-12 4.37264380e-12 1.17407894e-13 2.24689883e-12 4.55085520e-13 4.37264380e-12
1.73780083e+00 7.79961637e-12 4.08078863e-12 9.46951086e-14 3.62413263e-12 6.27477338e-13 4.08078863e-12
1.99526231e+00 9.08409240e-12 3.80841354e-12 7.57664737e-14 5.19991238e-12 7.46013513e-13 3.80841354e-12
2.29086765e+00 1.04492821e-11 3.55421832e-12 5.70946876e-14 6.83796906e-12 7.82364739e-13 3.55421832e-12
2.63026799e+00 1.16185397e-11 3.31698953e-12 4.22724727e-14 8.25927766e-12 7.23461253e-13 3.31698953e-12
3.01995172e+00 1.23961927e-11 3.09559474e-12 2.98441828e-14 9.27075375e-12 5.99115386e-13 3.09559474e-12
3.46736850e+00 1.28090061e-11 2.88897711e-12 2.03345249e-14 9.89969445e-12 4.53865350e-13 2.88897711e-12
3.98107171e+00 1.26994141e-11 2.69615031e-12 1.31521003e-14 9.99011169e-12 3.10828284e-13 2.69615031e-12
4.57088190e+00 1.22420091e-11 2.51619387e-12 8.26311285e-15 9.71755213e-12 1.95879856e-13 2.51619387e-12
5.24807460e+00 1.12796975e-11 2.08050667e-12 4.45948598e-15 9.19473135e-12 1.17138689e-13 2.08050667e-12
6.02559586e+00 9.92733185e-12 1.37457712e-12 1.84201857e-15 8.55091271e-12 6.62751099e-14 1.37457712e-12
6.70000000e+00 9.03106460e-12 9.99872685e-13 9.08006126e-16 8.03028391e-12 4.09321926e-14 9.99872685e-13
6.92422916e+00 8.75015015e-12 9.05846924e-13 7.27362468e-16 7.84357586e-12 3.48204331e-14 9.05846924e-13
7.15596261e+00 8.54591687e-12 8.20663132e-13 5.69642032e-16 7.72468410e-12 2.97916249e-14 8.20663132e-13
7.39545150e+00 8.52137144e-12 7.43489831e-13 4.39525117e-16 7.77744208e-12 2.53954948e-14 7.43489831e-13
7.64295536e+00 8.91841785e-12 6.73573732e-13 3.18194357e-16 8.24452592e-12 2.21057499e-14 6.73573732e-13
7.89874245e+00 9.92950153e-12 6.10232385e-13 2.12094343e-16 9.31905705e-12 1.92452255e-14 6.10232385e-13
8.16308998e+00 1.12480606e-11 5.52847515e-13 1.34428810e-16 1.06950787e-11 1.66446699e-14 5.52847515e-13
8.43628443e+00 1.28968698e-11 5.00858987e-13 7.83367804e-17 1.23959325e-11 1.35673823e-14 5.00858987e-13
8.71862190e+00 1.38460260e-11 4.53759343e-13 4.87463859e-17 1.33922180e-11 1.06289110e-14 4.53759343e-13
9.01040836e+00 1.47424896e-11 4.11088843e-13 2.61660493e-17 1.43313746e-11 7.24255666e-15 4.11088843e-13
9.31196005e+00 1.53279668e-11 3.72430980e-13 0.00000000e+00 1.49555359e-11 0.00000000e+00 3.72430980e-13
9.62360379e+00 1.51353251e-11 3.37408415e-13 0.00000000e+00 1.47979167e-11 0.00000000e+00 3.37408415e-13
9.94567731e+00 1.45334077e-11 3.05679292e-13 0.00000000e+00 1.42277285e-11 0.00000000e+00 3.05679292e-13
1.02785297e+01 1.37394214e-11 2.76933904e-13 0.00000000e+00 1.34624875e-11 0.00000000e+00 2.76933904e-13
1.06225216e+01 1.29511866e-11 2.50891667e-13 0.00000000e+00 1.27002949e-11 0.00000000e+00 2.50891667e-13
1.09780260e+01 1.20151982e-11 2.27298384e-13 0.00000000e+00 1.17878998e-11 0.00000000e+00 2.27298384e-13
1.13454280e+01 1.11939694e-11 2.05923759e-13 0.00000000e+00 1.09880456e-11 0.00000000e+00 2.05923759e-13
1.17251259e+01 1.03357900e-11 1.86559155e-13 0.00000000e+00 1.01492309e-11 0.00000000e+00 1.86559155e-13
1.21175312e+01 9.58495475e-12 1.69015555e-13 0.00000000e+00 9.41593919e-12 0.00000000e+00 1.69015555e-13
1.25230691e+01 8.85455104e-12 1.53121715e-13 0.00000000e+00 8.70142933e-12 0.00000000e+00 1.53121715e-13
1.29421791e+01 8.20304865e-12 1.38722496e-13 0.00000000e+00 8.06432615e-12 0.00000000e+00 1.38722496e-13
1.33753155e+01 7.61624673e-12 1.25677347e-13 0.00000000e+00 7.49056938e-12 0.00000000e+00 1.25677347e-13
1.38229477e+01 7.21954701e-12 1.13858934e-13 0.00000000e+00 7.10568808e-12 0.00000000e+00 1.13858934e-13
1.42855609e+01 7.01022468e-12 1.03151898e-13 0.00000000e+00 6.90707278e-12 0.00000000e+00 1.03151898e-13
1.47636563e+01 7.12880590e-12 9.34517274e-14 0.00000000e+00 7.03535418e-12 0.00000000e+00 9.34517274e-14
1.52577522e+01 7.31442299e-12 8.46637387e-14 0.00000000e+00 7.22975925e-12 0.00000000e+00 8.46637387e-14
1.57683840e+01 7.55054082e-12 7.67021526e-14 0.00000000e+00 7.47383866e-12 0.00000000e+00 7.67021526e-14
1.62961051e+01 7.81067084e-12 6.94892560e-14 0.00000000e+00 7.74118158e-12 0.00000000e+00 6.94892560e-14
1.68414875e+01 8.05071201e-12 6.29546439e-14 0.00000000e+00 7.98775737e-12 0.00000000e+00 6.29546439e-14
1.74051222e+01 8.21269301e-12 5.70345319e-14 0.00000000e+00 8.15565848e-12 0.00000000e+00 5.70345319e-14
1.79876201e+01 8.28979612e-12 5.16711337e-14 0.00000000e+00 8.23812499e-12 0.00000000e+00 5.16711337e-14
1.85896125e+01 8.21330076e-12 4.68120974e-14 0.00000000e+00 8.16648866e-12 0.00000000e+00 4.68120974e-14
1.92117518e+01 8.02018608e-12 4.24099939e-14 0.00000000e+00 7.97777608e-12 0.00000000e+00 4.24099939e-14
1.98547123e+01 7.73054054e-12 3.84218542e-14 0.00000000e+00 7.69211869e-12 0.00000000e+00 3.84218542e-14
2.05191907e+01 7.40702940e-12 3.48087501e-14 0.00000000e+00 7.37222065e-12 0.00000000e+00 3.48087501e-14
2.12059073e+01 7.10072756e-12 3.15354141e-14 0.00000000e+00 7.06919215e-12 0.00000000e+00 3.15354141e-14
2.19156062e+01 6.80325427e-12 2.85698952e-14 0.00000000e+00 6.77468438e-12 0.00000000e+00 2.85698952e-14
2.26490567e+01 6.50678264e-12 2.58832470e-14 0.00000000e+00 6.48089939e-12 0.00000000e+00 2.58832470e-14
2.34070535e+01 6.22130682e-12 2.34492452e-14 0.00000000e+00 6.19785757e-12 0.00000000e+00 2.34492452e-14
2.41904183e+01 5.93488774e-12 2.12441313e-14 0.00000000e+00 5.91364361e-12 0.00000000e+00 2.12441313e-14
2.50000000e+01 5.66108573e-12 1.92463813e-14 0.00000000e+00 5.64183935e-12 0.00000000e+00 1.92463813e-14
2.75422870e+01 4.85903716e-12 1.43935895e-14 0.00000000e+00 4.84464357e-12 0.00000000e+00 1.43935895e-14
3.16227766e+01 3.76654125e-12 9.50975027e-15 0.00000000e+00 3.75703150e-12 0.00000000e+00 9.50975027e-15
3.63078055e+01 2.74821000e-12 6.28302969e-15 0.00000000e+00 2.74192697e-12 0.00000000e+00 6.28302969e-15
4.16869383e+01 1.86986217e-12 4.15115655e-15 0.00000000e+00 1.86571101e-12 0.00000000e+00 4.15115655e-15
4.78630092e+01 1.18760237e-12 2.74264194e-15 0.00000000e+00 1.18485973e-12 0.00000000e+00 2.74264194e-15
5.49540874e+01 7.15050727e-13 1.81204556e-15 0.00000000e+00 7.13238681e-13 0.00000000e+00 1.81204556e-15
6.30957344e+01 4.13680623e-13 1.19720663e-15 0.00000000e+00 4.12483416e-13 0.00000000e+00 1.19720663e-15
7.24435960e+01 2.32100334e-13 7.90986575e-16 0.00000000e+00 2.31309348e-13 0.00000000e+00 7.90986575e-16
8.31763771e+01 1.27577178e-13 5.22599647e-16 0.00000000e+00 1.27054578e-13 0.00000000e+00 5.22599647e-16
9.54992586e+01 6.91632663e-14 3.45278163e-16 0.00000000e+00 6.88179881e-14 0.00000000e+00 3.45278163e-16
1.09647820e+02 3.71414993e-14 2.28123020e-16 0.00000000e+00 3.69133763e-14 0.00000000e+00 2.28123020e-16
1.25892541e+02 2.00462786e-14 1.50719385e-16 0.00000000e+00 1.98955592e-14 0.00000000e+00 1.50719385e-16
1.44543977e+02 1.08055720e-14 9.95793099e-17 0.00000000e+00 1.07059926e-14 0.00000000e+00 9.95793099e-17
1.65958691e+02 5.56180765e-15 6.57913976e-17 0.00000000e+00 5.49601625e-15 0.00000000e+00 6.57913976e-17
1.90546072e+02 2.87602602e-15 4.34679453e-17 0.00000000e+00 2.83255807e-15 0.00000000e+00 4.34679453e-17
2.18776162e+02 1.48984989e-15 2.87189867e-17 0.00000000e+00 1.46113090e-15 0.00000000e+00 2.87189867e-17
2.51188643e+02 7.71553216e-16 1.89744463e-17 0.00000000e+00 7.52578770e-16 0.00000000e+00 1.89744463e-17
2.88403150e+02 3.98966585e-16 1.25362924e-17 0.00000000e+00 3.86430292e-16 0.00000000e+00 1.25362924e-17
3.31131121e+02 2.06416112e-16 8.28264623e-18 0.00000000e+00 1.98133466e-16 0.00000000e+00 8.28264623e-18
3.80189396e+02 1.06779351e-16 5.47229010e-18 0.00000000e+00 1.01307061e-16 0.00000000e+00 5.47229010e-18
4.36515832e+02 5.53331670e-17 3.61550621e-18 0.00000000e+00 5.17176608e-17 0.00000000e+00 3.61550621e-18
5.01187234e+02 2.87379176e-17 2.38874127e-18 0.00000000e+00 2.63491763e-17 0.00000000e+00 2.38874127e-18
5.75439937e+02 1.49808227e-17 1.57822570e-18 0.00000000e+00 1.34025970e-17 0.00000000e+00 1.57822570e-18
6.60693448e+02 7.85035322e-18 1.04272338e-18 0.00000000e+00 6.80762983e-18 0.00000000e+00 1.04272338e-18
7.58577575e+02 4.14241010e-18 6.88920507e-19 0.00000000e+00 3.45348959e-18 0.00000000e+00 6.88920507e-19
8.70963590e+02 2.20475325e-18 4.55165265e-19 0.00000000e+00 1.74958799e-18 0.00000000e+00 4.55165265e-19
1.00000000e+03 8.85206141e-19 0.00000000e+00 0.00000000e+00 8.85206141e-19 0.00000000e+00 0.00000000e+00
