# column 1: lambda (micron)
# column 2: total flux; lambda*F_lambda (W/m2)
# column 3: direct stellar flux; lambda*F_lambda (W/m2)
# column 4: scattered stellar flux; lambda*F_lambda (W/m2)
# column 5: total dust emission flux; lambda*F_lambda (W/m2)
# column 6: dust emission scattered flux; lambda*F_lambda (W/m2)
# column 7: transparent flux; lambda*F_lambda (W/m2)
1.00000000e-03 1.07305929e-12 1.07305900e-12 2.94223887e-19 0.00000000e+00 0.00000000e+00 1.07335627e-12
1.14815362e-03 1.26644144e-12 1.26644101e-12 4.32211121e-19 0.00000000e+00 0.00000000e+00 1.26690456e-12
1.31825674e-03 1.49465866e-12 1.49465799e-12 6.65386911e-19 0.00000000e+00 0.00000000e+00 1.49535359e-12
1.51356125e-03 1.76402978e-12 1.76402877e-12 1.00273872e-18 0.00000000e+00 0.00000000e+00 1.76499670e-12
1.73780083e-03 2.08210962e-12 2.08210776e-12 1.85846086e-18 0.00000000e+00 0.00000000e+00 2.08326203e-12
1.99526231e-03 2.45711425e-12 2.45711101e-12 3.24201045e-18 0.00000000e+00 0.00000000e+00 2.45891716e-12
2.29086765e-03 2.90005500e-12 2.90005006e-12 4.93808718e-18 0.00000000e+00 0.00000000e+00 2.90231066e-12
2.63026799e-03 3.42246966e-12 3.42245991e-12 9.75012169e-18 0.00000000e+00 0.00000000e+00 3.42565717e-12
3.01995172e-03 4.03872325e-12 4.03870701e-12 1.62416169e-17 0.00000000e+00 0.00000000e+00 4.04337385e-12
3.46736850e-03 4.76601146e-12 4.76598571e-12 2.57437972e-17 0.00000000e+00 0.00000000e+00 4.77247759e-12
3.98107171e-03 5.62432456e-12 5.62428368e-12 4.08850662e-17 0.00000000e+00 0.00000000e+00 5.63305378e-12
4.57088190e-03 6.64199793e-12 6.64190288e-12 9.50594753e-17 0.00000000e+00 0.00000000e+00 6.64880962e-12
5.24807460e-03 7.83748768e-12 7.83731643e-12 1.71245116e-16 0.00000000e+00 0.00000000e+00 7.84772720e-12
6.02559586e-03 9.24833265e-12 9.24802009e-12 3.12554912e-16 0.00000000e+00 0.00000000e+00 9.26283435e-12
6.91830971e-03 1.09222538e-11 1.09129363e-11 9.31742700e-15 0.00000000e+00 0.00000000e+00 1.09331145e-11
7.94328235e-03 1.28822586e-11 1.28780121e-11 4.24650927e-15 2.73172918e-303 2.98963586e-305 1.29045807e-11
9.12010839e-03 1.52000301e-11 1.51967473e-11 3.28282787e-15 1.23239904e-264 4.48229623e-267 1.52315429e-11
1.04712855e-02 1.69745922e-11 1.69702111e-11 4.38112849e-15 5.37402410e-231 1.92448849e-233 1.70115517e-11
1.20226443e-02 1.69768908e-11 1.69677744e-11 9.11642382e-15 8.66048807e-202 4.41647872e-204 1.70115517e-11
1.38038426e-02 1.69755186e-11 1.69648846e-11 1.06339342e-14 2.41774185e-176 1.51707552e-178 1.70115517e-11
1.58489319e-02 1.69729006e-11 1.69613340e-11 1.15665257e-14 3.34010861e-154 2.49538620e-156 1.70115517e-11
1.81970086e-02 1.69724078e-11 1.69580599e-11 1.43478739e-14 6.06864123e-135 5.31722224e-137 1.70115517e-11
2.08929613e-02 1.69720395e-11 1.69553389e-11 1.67005802e-14 3.22756360e-118 4.00707156e-120 1.70115517e-11
2.39883292e-02 1.69727411e-11 1.69518140e-11 2.09270603e-14 1.14970899e-103 1.80171083e-105 1.70115517e-11
2.75422870e-02 1.69723809e-11 1.69477149e-11 2.46660121e-14 5.21562622e-91 1.01589339e-92 1.70115517e-11
3.16227766e-02 1.69729614e-11 1.69436978e-11 2.92636194e-14 5.14210798e-80 1.15767461e-81 1.70115517e-11
3.63078055e-02 1.69741986e-11 1.69405477e-11 3.36509727e-14 1.80298580e-70 4.78048791e-72 1.70115517e-11
4.16869383e-02 1.69840457e-11 1.69378235e-11 4.62221971e-14 3.46746303e-62 1.19946173e-63 1.70115517e-11
4.78630092e-02 1.69914087e-11 1.69303167e-11 6.10920214e-14 5.30651970e-55 2.46190885e-56 1.70115517e-11
5.49540874e-02 1.69967046e-11 1.69198826e-11 7.68220023e-14 8.90813590e-49 4.98553046e-50 1.70115517e-11
6.30957344e-02 1.69904400e-11 1.68937474e-11 9.66926061e-14 2.91065100e-43 1.98708746e-44 1.70115517e-11
7.24435960e-02 1.69607385e-11 1.68628421e-11 9.78963804e-14 1.69127495e-38 1.13406082e-39 1.70115517e-11
8.31763771e-02 1.69635348e-11 1.68655899e-11 9.79448592e-14 1.73811951e-34 1.15245398e-35 1.70115517e-11
9.54992586e-02 1.69736548e-11 1.68736517e-11 1.00003130e-13 4.91152408e-31 3.31480155e-32 1.70115517e-11
1.09647820e-01 1.62398662e-11 1.61364325e-11 1.03433680e-13 4.19240215e-28 3.06294804e-29 1.62459122e-11
1.25892541e-01 1.51680851e-11 1.50774136e-11 9.06714509e-14 1.35794586e-25 9.37893758e-27 1.51615674e-11
1.44543977e-01 1.41631905e-11 1.40844715e-11 7.87190850e-14 1.84935545e-23 1.21015701e-24 1.41495980e-11
1.65958691e-01 1.32337952e-11 1.31520030e-11 8.17921571e-14 9.39889806e-22 6.75809562e-23 1.32051732e-11
1.90546072e-01 1.23663539e-11 1.22708533e-11 9.55005288e-14 1.98988961e-20 1.69995380e-21 1.23237846e-11
2.18776162e-01 1.15415857e-11 1.14433008e-11 9.82846196e-14 2.36864239e-19 2.19033659e-20 1.15012250e-11
2.51188643e-01 1.08033162e-11 1.06903135e-11 1.12999749e-13 2.89229331e-18 3.24032890e-19 1.07335677e-11
2.88403150e-01 1.00864967e-11 9.98362235e-12 1.02850289e-13 2.40494610e-17 2.61803263e-18 1.00171482e-11
3.31131121e-01 9.41247752e-12 9.32126622e-12 9.10737232e-14 1.37576200e-16 1.43521018e-17 9.34854667e-12
3.80189396e-01 8.78700085e-12 8.70220999e-12 8.42182458e-14 5.72617594e-16 5.77147726e-17 8.72457139e-12
4.36515832e-01 8.20366516e-12 8.12407826e-12 7.77730200e-14 1.81387456e-15 1.81627700e-16 8.14224377e-12
5.01187234e-01 7.66100584e-12 7.58422686e-12 7.22375622e-14 4.54141493e-15 4.55734999e-16 7.59878402e-12
5.75439937e-01 7.15943807e-12 7.08005272e-12 6.99810266e-14 9.40432054e-15 9.45272350e-16 7.09159786e-12
6.60693448e-01 6.68965373e-12 6.60918715e-12 6.36151873e-14 1.68513877e-14 1.72810443e-15 6.61826421e-12
7.58577575e-01 6.25703971e-12 6.16947375e-12 5.99152669e-14 2.76506941e-14 2.92181385e-15 6.17652353e-12
8.70963590e-01 5.85843120e-12 5.75891320e-12 5.57933048e-14 4.37246991e-14 4.96783541e-15 5.76426715e-12
1.00000000e+00 5.49508332e-12 5.37552677e-12 5.07105356e-14 6.88460144e-14 8.28654850e-15 5.37952711e-12
1.14815362e+00 5.17272413e-12 5.01753099e-12 4.29351090e-14 1.12258035e-13 1.39230338e-14 5.02046681e-12
1.31825674e+00 4.90742284e-12 4.68325512e-12 3.60459948e-14 1.88121733e-13 2.28101990e-14 4.68537225e-12
1.51356125e+00 4.71132389e-12 4.37113250e-12 2.97654710e-14 3.10425925e-13 3.53013309e-14 4.37264380e-12
1.73780083e+00 4.58569744e-12 4.07972735e-12 2.34439618e-14 4.82526131e-13 4.79751953e-14 4.08078863e-12
1.99526231e+00 4.51825288e-12 3.80767997e-12 1.74787021e-14 6.93094208e-13 5.73671364e-14 3.80841354e-12
2.29086765e+00 4.47625973e-12 3.55371284e-12 1.24165913e-14 9.10130293e-13 5.82248990e-14 3.55421832e-12
2.63026799e+00 4.42623445e-12 3.31663797e-12 8.32721275e-15 1.10126928e-12 5.24849649e-14 3.31698953e-12
3.01995172e+00 4.33662459e-12 3.09534708e-12 5.36162458e-15 1.23591589e-12 4.10563872e-14 3.09559474e-12
3.46736850e+00 4.19186294e-12 2.88879979e-12 3.37773708e-15 1.29968541e-12 2.91185004e-14 2.88897711e-12
3.98107171e+00 3.98471263e-12 2.69602174e-12 2.10416861e-15 1.28658672e-12 1.88326665e-14 2.69615031e-12
4.57088190e+00 3.73166743e-12 2.51609937e-12 1.21114111e-15 1.21435691e-12 1.13459339e-14 2.51619387e-12
5.24807460e+00 3.18811056e-12 2.08044390e-12 6.24558456e-16 1.10704210e-12 6.42865305e-15 2.08050667e-12
6.02559586e+00 2.36746853e-12 1.37454266e-12 2.46847733e-16 9.92679019e-13 3.43382734e-15 1.37457712e-12
6.70000000e+00 1.90221128e-12 9.99850496e-13 1.17036478e-16 9.02243752e-13 2.03294882e-15 9.99872685e-13
6.92422916e+00 1.77921660e-12 9.05827526e-13 9.33226309e-17 8.73295747e-13 1.72014849e-15 9.05846924e-13
7.15596261e+00 1.67590840e-12 8.20645866e-13 7.11778818e-17 8.55191352e-13 1.43216026e-15 8.20663132e-13
7.39545150e+00 1.60445927e-12 7.43473815e-13 5.67004643e-17 8.60928752e-13 1.21886521e-15 7.43489831e-13
7.64295536e+00 1.60794635e-12 6.73557200e-13 4.05152084e-17 9.34348633e-13 1.07019155e-15 6.73573732e-13
7.89874245e+00 1.72158651e-12 6.10213034e-13 2.83618468e-17 1.11134512e-12 9.65523675e-16 6.10232385e-13
8.16308998e+00 1.92399484e-12 5.52823842e-13 1.95157564e-17 1.37115149e-12 8.83738675e-16 5.52847515e-13
8.43628443e+00 2.23103462e-12 5.00829192e-13 1.19163602e-17 1.73019351e-12 7.59912517e-16 5.00858987e-13
8.71862190e+00 2.43657960e-12 4.53726175e-13 7.11352030e-18 1.98284631e-12 5.91457581e-16 4.53759343e-13
9.01040836e+00 2.64977613e-12 4.11052442e-13 3.31976904e-18 2.23872037e-12 3.63933213e-16 4.11088843e-13
9.31196005e+00 2.81469129e-12 3.72392731e-13 0.00000000e+00 2.44229856e-12 0.00000000e+00 3.72430980e-13
9.62360379e+00 2.76676743e-12 3.37372849e-13 0.00000000e+00 2.42939458e-12 0.00000000e+00 3.37408415e-13
9.94567731e+00 2.56619257e-12 3.05649059e-13 0.00000000e+00 2.26054351e-12 0.00000000e+00 3.05679292e-13
1.02785297e+01 2.32280074e-12 2.76909126e-13 0.00000000e+00 2.04589161e-12 0.00000000e+00 2.76933904e-13
1.06225216e+01 2.09197118e-12 2.50871577e-13 0.00000000e+00 1.84109961e-12 0.00000000e+00 2.50891667e-13
1.09780260e+01 1.83897364e-12 2.27282682e-13 0.00000000e+00 1.61169096e-12 0.00000000e+00 2.27298384e-13
1.13454280e+01 1.62008894e-12 2.05911438e-13 0.00000000e+00 1.41417750e-12 0.00000000e+00 2.05923759e-13
1.17251259e+01 1.43378176e-12 1.86549425e-13 0.00000000e+00 1.24723234e-12 0.00000000e+00 1.86559155e-13
1.21175312e+01 1.26716611e-12 1.69007910e-13 0.00000000e+00 1.09815820e-12 0.00000000e+00 1.69015555e-13
1.25230691e+01 1.11903322e-12 1.53115725e-13 0.00000000e+00 9.65917499e-13 0.00000000e+00 1.53121715e-13
1.29421791e+01 9.92993816e-13 1.38717770e-13 0.00000000e+00 8.54276046e-13 0.00000000e+00 1.38722496e-13
1.33753155e+01 8.87688491e-13 1.25673591e-13 0.00000000e+00 7.62014900e-13 0.00000000e+00 1.25677347e-13
1.38229477e+01 8.17338338e-13 1.13855812e-13 0.00000000e+00 7.03482527e-13 0.00000000e+00 1.13858934e-13
1.42855609e+01 7.73970285e-13 1.03149184e-13 0.00000000e+00 6.70821101e-13 0.00000000e+00 1.03151898e-13
1.47636563e+01 7.75180344e-13 9.34491517e-14 0.00000000e+00 6.81731192e-13 0.00000000e+00 9.34517274e-14
1.52577522e+01 7.87433488e-13 8.46612500e-14 0.00000000e+00 7.02772238e-13 0.00000000e+00 8.46637387e-14
1.57683840e+01 8.08232807e-13 7.66997171e-14 0.00000000e+00 7.31533090e-13 0.00000000e+00 7.67021526e-14
1.62961051e+01 8.31893327e-13 6.94868754e-14 0.00000000e+00 7.62406451e-13 0.00000000e+00 6.94892560e-14
1.68414875e+01 8.56105107e-13 6.29523222e-14 0.00000000e+00 7.93152785e-13 0.00000000e+00 6.29546439e-14
1.74051222e+01 8.67566191e-13 5.70323271e-14 0.00000000e+00 8.10533864e-13 0.00000000e+00 5.70345319e-14
1.79876201e+01 8.69710307e-13 5.16690752e-14 0.00000000e+00 8.18041232e-13 0.00000000e+00 5.16711337e-14
1.85896125e+01 8.54222833e-13 4.68102349e-14 0.00000000e+00 8.07412598e-13 0.00000000e+00 4.68120974e-14
1.92117518e+01 8.22422099e-13 4.24083579e-14 0.00000000e+00 7.80013741e-13 0.00000000e+00 4.24099939e-14
1.98547123e+01 7.82483317e-13 3.84204452e-14 0.00000000e+00 7.44062872e-13 0.00000000e+00 3.84218542e-14
2.05191907e+01 7.40147255e-13 3.48075489e-14 0.00000000e+00 7.05339706e-13 0.00000000e+00 3.48087501e-14
2.12059073e+01 7.00009979e-13 3.15343902e-14 0.00000000e+00 6.68475589e-13 0.00000000e+00 3.15354141e-14
2.19156062e+01 6.63761585e-13 2.85690182e-14 0.00000000e+00 6.35192567e-13 0.00000000e+00 2.85698952e-14
2.26490567e+01 6.30438521e-13 2.58824946e-14 0.00000000e+00 6.04556026e-13 0.00000000e+00 2.58832470e-14
2.34070535e+01 5.99748033e-13 2.34485984e-14 0.00000000e+00 5.76299434e-13 0.00000000e+00 2.34492452e-14
2.41904183e+01 5.71462327e-13 2.12435740e-14 0.00000000e+00 5.50218753e-13 0.00000000e+00 2.12441313e-14
2.50000000e+01 5.44884700e-13 1.92459001e-14 0.00000000e+00 5.25638800e-13 0.00000000e+00 1.92463813e-14
2.75422870e+01 4.72136145e-13 1.43932756e-14 0.00000000e+00 4.57742869e-13 0.00000000e+00 1.43935895e-14
3.16227766e+01 3.77627068e-13 9.50957784e-15 0.00000000e+00 3.68117490e-13 0.00000000e+00 9.50975027e-15
3.63078055e+01 2.88385936e-13 6.28293546e-15 0.00000000e+00 2.82103001e-13 0.00000000e+00 6.28302969e-15
4.16869383e+01 2.06429543e-13 4.15110641e-15 0.00000000e+00 2.02278436e-13 0.00000000e+00 4.15115655e-15
4.78630092e+01 1.38345254e-13 2.74261609e-15 0.00000000e+00 1.35602638e-13 0.00000000e+00 2.74264194e-15
5.49540874e+01 8.78825763e-14 1.81203252e-15 0.00000000e+00 8.60705438e-14 0.00000000e+00 1.81204556e-15
6.30957344e+01 5.35776526e-14 1.19720013e-15 0.00000000e+00 5.23804525e-14 0.00000000e+00 1.19720663e-15
7.24435960e+01 3.16052567e-14 7.90983361e-16 0.00000000e+00 3.08142734e-14 0.00000000e+00 7.90986575e-16
8.31763771e+01 1.82018890e-14 5.22598061e-16 0.00000000e+00 1.76792910e-14 0.00000000e+00 5.22599647e-16
9.54992586e+01 1.03061293e-14 3.45277378e-16 0.00000000e+00 9.96085189e-15 0.00000000e+00 3.45278163e-16
1.09647820e+02 5.76181150e-15 2.28122630e-16 0.00000000e+00 5.53368887e-15 0.00000000e+00 2.28123020e-16
1.25892541e+02 3.22638128e-15 1.50719188e-16 0.00000000e+00 3.07566210e-15 0.00000000e+00 1.50719385e-16
1.44543977e+02 1.79929007e-15 9.95792101e-17 0.00000000e+00 1.69971086e-15 0.00000000e+00 9.95793099e-17
1.65958691e+02 9.59432891e-16 6.57913487e-17 0.00000000e+00 8.93641543e-16 0.00000000e+00 6.57913976e-17
1.90546072e+02 5.13664064e-16 4.34679211e-17 0.00000000e+00 4.70196143e-16 0.00000000e+00 4.34679453e-17
2.18776162e+02 2.75642069e-16 2.87189746e-17 0.00000000e+00 2.46923094e-16 0.00000000e+00 2.87189867e-17
2.51188643e+02 1.48137436e-16 1.89744403e-17 0.00000000e+00 1.29162996e-16 0.00000000e+00 1.89744463e-17
2.88403150e+02 7.97521760e-17 1.25362894e-17 0.00000000e+00 6.72158866e-17 0.00000000e+00 1.25362924e-17
3.31131121e+02 4.31474579e-17 8.28264472e-18 0.00000000e+00 3.48648132e-17 0.00000000e+00 8.28264623e-18
3.80189396e+02 2.34784887e-17 5.47228934e-18 0.00000000e+00 1.80061993e-17 0.00000000e+00 5.47229010e-18
4.36515832e+02 1.28876582e-17 3.61550583e-18 0.00000000e+00 9.27215241e-18 0.00000000e+00 3.61550621e-18
5.01187234e+02 7.14826562e-18 2.38874108e-18 0.00000000e+00 4.75952455e-18 0.00000000e+00 2.38874127e-18
5.75439937e+02 4.01493706e-18 1.57822561e-18 0.00000000e+00 2.43671145e-18 0.00000000e+00 1.57822570e-18
6.60693448e+02 2.28738333e-18 1.04272333e-18 0.00000000e+00 1.24466000e-18 0.00000000e+00 1.04272338e-18
7.58577575e+02 1.32341350e-18 6.88920482e-19 0.00000000e+00 6.34493017e-19 0.00000000e+00 6.88920507e-19
8.70963590e+02 7.77965780e-19 4.55165253e-19 0.00000000e+00 3.22800527e-19 0.00000000e+00 4.55165265e-19
1.00000000e+03 1.63919638e-19 0.00000000e+00 0.00000000e+00 1.63919638e-19 0.00000000e+00 0.00000000e+00
