# column 1: lambda (micron)
# column 2: total flux; lambda*F_lambda (W/m2)
# column 3: direct stellar flux; lambda*F_lambda (W/m2)
# column 4: scattered stellar flux; lambda*F_lambda (W/m2)
# column 5: total dust emission flux; lambda*F_lambda (W/m2)
# column 6: dust emission scattered flux; lambda*F_lambda (W/m2)
# column 7: transparent flux; lambda*F_lambda (W/m2)
1.00000000e-03 8.46530562e-13 8.46529401e-13 1.16081161e-18 0.00000000e+00 0.00000000e+00 8.46529401e-13
1.14815362e-03 9.99177881e-13 9.99176121e-13 1.76042358e-18 0.00000000e+00 0.00000000e+00 9.99176121e-13
1.31825674e-03 1.17935085e-12 1.17934819e-12 2.65752079e-18 0.00000000e+00 0.00000000e+00 1.17934819e-12
1.51356125e-03 1.39201300e-12 1.39200901e-12 3.99306271e-18 0.00000000e+00 0.00000000e+00 1.39200901e-12
1.73780083e-03 1.64302397e-12 1.64301696e-12 7.00769658e-18 0.00000000e+00 0.00000000e+00 1.64301696e-12
1.99526231e-03 1.93929880e-12 1.93928682e-12 1.19828289e-17 0.00000000e+00 0.00000000e+00 1.93928682e-12
2.29086765e-03 2.28899927e-12 2.28898025e-12 1.90165355e-17 0.00000000e+00 0.00000000e+00 2.28898025e-12
2.63026799e-03 2.70176855e-12 2.70173063e-12 3.79224600e-17 0.00000000e+00 0.00000000e+00 2.70173063e-12
3.01995172e-03 3.18896903e-12 3.18890841e-12 6.06175068e-17 0.00000000e+00 0.00000000e+00 3.18890841e-12
3.46736850e-03 3.76403396e-12 3.76393440e-12 9.95580426e-17 0.00000000e+00 0.00000000e+00 3.76393440e-12
3.98107171e-03 4.44280307e-12 4.44264945e-12 1.53621022e-16 0.00000000e+00 0.00000000e+00 4.44264945e-12
4.57088190e-03 5.24411548e-12 5.24375082e-12 3.64655087e-16 0.00000000e+00 0.00000000e+00 5.24375082e-12
5.24807460e-03 6.18996324e-12 6.18930730e-12 6.55940213e-16 0.00000000e+00 0.00000000e+00 6.18930730e-12
6.02559586e-03 7.30655125e-12 7.30536713e-12 1.18412052e-15 0.00000000e+00 0.00000000e+00 7.30536713e-12
6.91830971e-03 8.62444782e-12 8.62267558e-12 1.77224043e-15 0.00000000e+00 0.00000000e+00 8.62267558e-12
7.94328235e-03 1.01804669e-11 1.01775219e-11 2.94500215e-15 1.41619074e-303 6.49149526e-306 1.01775219e-11
9.12010839e-03 1.20178380e-11 1.20127391e-11 5.09890503e-15 6.46776448e-265 3.72814405e-267 1.20127391e-11
1.04712855e-02 1.34226248e-11 1.34165878e-11 6.03693349e-15 2.84850260e-231 3.48391217e-233 1.34165878e-11
1.20226443e-02 1.34433117e-11 1.34165878e-11 2.67238773e-14 4.58177552e-202 4.08478454e-204 1.34165878e-11
1.38038426e-02 1.34323509e-11 1.34165878e-11 1.57631041e-14 1.30486910e-176 3.58873117e-178 1.34165878e-11
1.58489319e-02 1.34361314e-11 1.34165878e-11 1.95435134e-14 1.80271712e-154 4.85104885e-156 1.34165878e-11
1.81970086e-02 1.34454982e-11 1.34165878e-11 2.89104021e-14 3.25541703e-135 6.82934935e-137 1.34165878e-11
2.08929613e-02 1.34572819e-11 1.34165878e-11 4.06940164e-14 1.73334622e-118 4.27618618e-120 1.34165878e-11
2.39883292e-02 1.34680504e-11 1.34165878e-11 5.14625845e-14 6.19651219e-104 1.87689873e-105 1.34165878e-11
2.75422870e-02 1.34812592e-11 1.34165878e-11 6.46713397e-14 2.81536217e-91 9.81317854e-93 1.34165878e-11
3.16227766e-02 1.34941612e-11 1.34165878e-11 7.75733871e-14 2.77663078e-80 1.06186124e-81 1.34165878e-11
3.63078055e-02 1.35077657e-11 1.34165878e-11 9.11779076e-14 9.74389467e-71 4.12166479e-72 1.34165878e-11
4.16869383e-02 1.35465797e-11 1.34165878e-11 1.29991855e-13 1.88015323e-62 9.96673947e-64 1.34165878e-11
4.78630092e-02 1.35817301e-11 1.34165878e-11 1.65142306e-13 2.87052512e-55 1.81741054e-56 1.34165878e-11
5.49540874e-02 1.36133501e-11 1.34165878e-11 1.96762218e-13 4.81192978e-49 3.50719373e-50 1.34165878e-11
6.30957344e-02 1.36394545e-11 1.34165878e-11 2.22866618e-13 1.56017709e-43 1.27515753e-44 1.34165878e-11
7.24435960e-02 1.36219394e-11 1.34165878e-11 2.05351582e-13 8.98781566e-39 6.90718237e-40 1.34165878e-11
8.31763771e-02 1.36218550e-11 1.34165878e-11 2.05267137e-13 9.23142854e-35 6.95925471e-36 1.34165878e-11
9.54992586e-02 1.36305865e-11 1.34165878e-11 2.13998613e-13 2.61821306e-31 2.04275328e-32 1.34165878e-11
1.09647820e-01 1.30368634e-11 1.28127470e-11 2.24116418e-13 2.25033780e-28 1.91776966e-29 1.28127470e-11
1.25892541e-01 1.21633880e-11 1.19575512e-11 2.05836839e-13 7.32441639e-26 6.06968996e-27 1.19575512e-11
1.44543977e-01 1.13502086e-11 1.11594361e-11 1.90772516e-13 1.00407154e-23 8.11534297e-25 1.11594361e-11
1.65958691e-01 1.06101608e-11 1.04145917e-11 1.95569032e-13 5.11887160e-22 4.50280627e-23 1.04145917e-11
1.90546072e-01 9.93195421e-12 9.71946251e-12 2.12491681e-13 1.08495955e-20 1.12246199e-21 9.71946251e-12
2.18776162e-01 9.27409349e-12 9.07073019e-12 2.03363169e-13 1.28572838e-19 1.38949547e-20 9.07073019e-12
2.51188643e-01 8.70620558e-12 8.46529796e-12 2.40906036e-13 1.58078090e-18 2.04715871e-19 8.46529796e-12
2.88403150e-01 8.11895540e-12 7.90027573e-12 2.18666483e-13 1.31863510e-17 1.67074800e-18 7.90027573e-12
3.31131121e-01 7.57605123e-12 7.37296631e-12 2.03009071e-13 7.58495609e-17 9.46886064e-18 7.37296631e-12
3.80189396e-01 7.06184755e-12 6.88085251e-12 1.80678245e-13 3.16791385e-16 3.85918054e-17 6.88085251e-12
4.36515832e-01 6.59346139e-12 6.42158520e-12 1.70867479e-13 1.00870980e-15 1.22715826e-16 6.42158520e-12
5.01187234e-01 6.15632225e-12 5.99297201e-12 1.60780034e-13 2.57021195e-15 3.19059809e-16 5.99297201e-12
5.75439937e-01 5.74684858e-12 5.59296690e-12 1.48278957e-13 5.60272376e-15 7.35948388e-16 5.59296690e-12
6.60693448e-01 5.37021639e-12 5.21966041e-12 1.39154535e-13 1.14014414e-14 1.71786643e-15 5.21966041e-12
7.58577575e-01 5.01971549e-12 4.87127053e-12 1.24826681e-13 2.36182756e-14 4.17224515e-15 4.87127053e-12
8.70963590e-01 4.71241418e-12 4.54613417e-12 1.14871372e-13 5.14086307e-14 1.02038452e-14 4.54613417e-12
1.00000000e+00 4.45484830e-12 4.24269927e-12 1.01366269e-13 1.10782759e-13 2.27199423e-14 4.24269927e-12
1.14815362e+00 4.27816229e-12 3.95951734e-12 8.56304360e-14 2.33014518e-13 4.62578717e-14 3.95951734e-12
1.31825674e+00 4.22027810e-12 3.69523659e-12 7.12747637e-14 4.53766749e-13 8.20359768e-14 3.69523659e-12
1.51356125e+00 4.32152072e-12 3.44859544e-12 5.81340741e-14 8.14791212e-13 1.29632989e-13 3.44859544e-12
1.73780083e+00 4.57918011e-12 3.21841652e-12 4.64768757e-14 1.31428671e-12 1.78927917e-13 3.21841652e-12
1.99526231e+00 4.93506345e-12 3.00360106e-12 3.58687748e-14 1.89559361e-12 2.09624061e-13 3.00360106e-12
2.29086765e+00 5.30495516e-12 2.80312361e-12 2.68219232e-14 2.47500963e-12 2.13608901e-13 2.80312361e-12
2.63026799e+00 5.60026926e-12 2.61602716e-12 1.89049841e-14 2.96533711e-12 1.90028631e-13 2.61602716e-12
3.01995172e+00 5.73661916e-12 2.44141860e-12 1.24176569e-14 3.28278290e-12 1.50418450e-13 2.44141860e-12
3.46736850e+00 5.70882775e-12 2.27846441e-12 8.05044819e-15 3.42231289e-12 1.08530550e-13 2.27846441e-12
3.98107171e+00 5.49670962e-12 2.12638671e-12 5.01010079e-15 3.36531281e-12 7.12839086e-14 2.12638671e-12
4.57088190e+00 5.15444112e-12 1.98445954e-12 3.05179472e-15 3.16692978e-12 4.32977332e-14 1.98445954e-12
5.24807460e+00 4.53543457e-12 1.64084388e-12 1.59717875e-15 2.89299352e-12 2.47952324e-14 1.64084388e-12
6.02559586e+00 3.68761156e-12 1.08409480e-12 6.42634869e-16 2.60287413e-12 1.34539322e-14 1.08409480e-12
6.70000000e+00 3.16440798e-12 7.88574724e-13 3.12513329e-16 2.37552075e-12 8.07741468e-15 7.88574724e-13
6.92422916e+00 3.02024057e-12 7.14418944e-13 2.45842884e-16 2.30557578e-12 6.85630801e-15 7.14418944e-13
7.15596261e+00 2.90535312e-12 6.47236606e-13 1.95362676e-16 2.25792115e-12 5.80683780e-15 6.47236606e-13
7.39545150e+00 2.85739411e-12 5.86371942e-13 1.49905664e-16 2.27087227e-12 4.92470024e-15 5.86371942e-13
7.64295536e+00 2.97773871e-12 5.31230854e-13 1.09962236e-16 2.44639790e-12 4.34973758e-15 5.31230854e-13
7.89874245e+00 3.34690275e-12 4.81275108e-13 7.61618378e-17 2.86555148e-12 3.87263466e-15 4.81275108e-13
8.16308998e+00 3.89341684e-12 4.36017088e-13 4.89904001e-17 3.45735076e-12 3.47853322e-15 4.36017088e-13
8.43628443e+00 4.64470036e-12 3.95015029e-13 3.01058726e-17 4.24965523e-12 2.95620810e-15 3.95015029e-13
8.71862190e+00 5.12695746e-12 3.57868711e-13 1.88562603e-17 4.76906989e-12 2.31229862e-15 3.57868711e-13
9.01040836e+00 5.60343606e-12 3.24215549e-13 9.42343100e-18 5.27921108e-12 1.51992647e-15 3.24215549e-13
9.31196005e+00 5.93470089e-12 2.93727053e-13 0.00000000e+00 5.64097384e-12 0.00000000e+00 2.93727053e-13
9.62360379e+00 5.86024056e-12 2.66105627e-13 0.00000000e+00 5.59413494e-12 0.00000000e+00 2.66105627e-13
9.94567731e+00 5.49061347e-12 2.41081657e-13 0.00000000e+00 5.24953181e-12 0.00000000e+00 2.41081657e-13
1.02785297e+01 5.03034485e-12 2.18410884e-13 0.00000000e+00 4.81193396e-12 0.00000000e+00 2.18410884e-13
1.06225216e+01 4.58443972e-12 1.97872020e-13 0.00000000e+00 4.38656770e-12 0.00000000e+00 1.97872020e-13
1.09780260e+01 4.08434864e-12 1.79264583e-13 0.00000000e+00 3.90508406e-12 0.00000000e+00 1.79264583e-13
1.13454280e+01 3.65901225e-12 1.62406948e-13 0.00000000e+00 3.49660531e-12 0.00000000e+00 1.62406948e-13
1.17251259e+01 3.28267389e-12 1.47134567e-13 0.00000000e+00 3.13553932e-12 0.00000000e+00 1.47134567e-13
1.21175312e+01 2.94226597e-12 1.33298366e-13 0.00000000e+00 2.80896761e-12 0.00000000e+00 1.33298366e-13
1.25230691e+01 2.63270338e-12 1.20763289e-13 0.00000000e+00 2.51194009e-12 0.00000000e+00 1.20763289e-13
1.29421791e+01 2.36802278e-12 1.09406983e-13 0.00000000e+00 2.25861580e-12 0.00000000e+00 1.09406983e-13
1.33753155e+01 2.14358056e-12 9.91185987e-14 0.00000000e+00 2.04446196e-12 0.00000000e+00 9.91185987e-14
1.38229477e+01 1.99646644e-12 8.97977103e-14 0.00000000e+00 1.90666873e-12 0.00000000e+00 8.97977103e-14
1.42855609e+01 1.91386489e-12 8.13533371e-14 0.00000000e+00 1.83251155e-12 0.00000000e+00 8.13533371e-14
1.47636563e+01 1.93866734e-12 7.37030537e-14 0.00000000e+00 1.86496429e-12 0.00000000e+00 7.37030537e-14
1.52577522e+01 1.98993011e-12 6.67721855e-14 0.00000000e+00 1.92315792e-12 0.00000000e+00 6.67721855e-14
1.57683840e+01 2.06044543e-12 6.04930805e-14 0.00000000e+00 1.99995235e-12 0.00000000e+00 6.04930805e-14
1.62961051e+01 2.13663531e-12 5.48044484e-14 0.00000000e+00 2.08183087e-12 0.00000000e+00 5.48044484e-14
1.68414875e+01 2.21065782e-12 4.96507622e-14 0.00000000e+00 2.16100706e-12 0.00000000e+00 4.96507622e-14
1.74051222e+01 2.25693390e-12 4.49817171e-14 0.00000000e+00 2.21195218e-12 0.00000000e+00 4.49817171e-14
1.79876201e+01 2.27547924e-12 4.07517384e-14 0.00000000e+00 2.23472750e-12 0.00000000e+00 4.07517384e-14
1.85896125e+01 2.25168291e-12 3.69195372e-14 0.00000000e+00 2.21476337e-12 0.00000000e+00 3.69195372e-14
1.92117518e+01 2.19185874e-12 3.34477076e-14 0.00000000e+00 2.15841103e-12 0.00000000e+00 3.34477076e-14
1.98547123e+01 2.10537830e-12 3.03023610e-14 0.00000000e+00 2.07507594e-12 0.00000000e+00 3.03023610e-14
2.05191907e+01 2.00751551e-12 2.74527957e-14 0.00000000e+00 1.98006271e-12 0.00000000e+00 2.74527957e-14
2.12059073e+01 1.91575825e-12 2.48711970e-14 0.00000000e+00 1.89088705e-12 0.00000000e+00 2.48711970e-14
2.19156062e+01 1.83308818e-12 2.25323660e-14 0.00000000e+00 1.81055582e-12 0.00000000e+00 2.25323660e-14
2.26490567e+01 1.75265805e-12 2.04134733e-14 0.00000000e+00 1.73224457e-12 0.00000000e+00 2.04134733e-14
2.34070535e+01 1.67822077e-12 1.84938366e-14 0.00000000e+00 1.65972694e-12 0.00000000e+00 1.84938366e-14
2.41904183e+01 1.60541691e-12 1.67547181e-14 0.00000000e+00 1.58866220e-12 0.00000000e+00 1.67547181e-14
2.50000000e+01 1.53653745e-12 1.51791424e-14 0.00000000e+00 1.52135831e-12 0.00000000e+00 1.51791424e-14
2.75422870e+01 1.33978574e-12 1.13518661e-14 0.00000000e+00 1.32843387e-12 0.00000000e+00 1.13518661e-14
3.16227766e+01 1.06842667e-12 7.50010357e-15 0.00000000e+00 1.06092657e-12 0.00000000e+00 7.50010357e-15
3.63078055e+01 8.05686417e-13 4.95526929e-15 0.00000000e+00 8.00731147e-13 0.00000000e+00 4.95526929e-15
4.16869383e+01 5.65425328e-13 3.27391395e-15 0.00000000e+00 5.62151414e-13 0.00000000e+00 3.27391395e-15
4.78630092e+01 3.70556109e-13 2.16305350e-15 0.00000000e+00 3.68393055e-13 0.00000000e+00 2.16305350e-15
5.49540874e+01 2.29687637e-13 1.42911527e-15 0.00000000e+00 2.28258521e-13 0.00000000e+00 1.42911527e-15
6.30957344e+01 1.36507407e-13 9.44207098e-16 0.00000000e+00 1.35563200e-13 0.00000000e+00 9.44207098e-16
7.24435960e+01 7.85597486e-14 6.23831443e-16 0.00000000e+00 7.79359171e-14 0.00000000e+00 6.23831443e-16
8.31763771e+01 4.41814181e-14 4.12161347e-16 0.00000000e+00 4.37692568e-14 0.00000000e+00 4.12161347e-16
9.54992586e+01 2.44600665e-14 2.72312302e-16 0.00000000e+00 2.41877542e-14 0.00000000e+00 2.72312302e-16
1.09647820e+02 1.33866416e-14 1.79914953e-16 0.00000000e+00 1.32067266e-14 0.00000000e+00 1.79914953e-16
1.25892541e+02 7.34948442e-15 1.18868631e-16 0.00000000e+00 7.23061579e-15 0.00000000e+00 1.18868631e-16
1.44543977e+02 4.02267725e-15 7.85357256e-17 0.00000000e+00 3.94414153e-15 0.00000000e+00 7.85357256e-17
1.65958691e+02 2.10093332e-15 5.18880394e-17 0.00000000e+00 2.04904528e-15 0.00000000e+00 5.18880394e-17
1.90546072e+02 1.10141080e-15 3.42820876e-17 0.00000000e+00 1.06712871e-15 0.00000000e+00 3.42820876e-17
2.18776162e+02 5.78133811e-16 2.26499507e-17 0.00000000e+00 5.55483861e-16 0.00000000e+00 2.26499507e-17
2.51188643e+02 3.03333395e-16 1.49646740e-17 0.00000000e+00 2.88368721e-16 0.00000000e+00 1.49646740e-17
2.88403150e+02 1.58967269e-16 9.88706207e-18 0.00000000e+00 1.49080207e-16 0.00000000e+00 9.88706207e-18
3.31131121e+02 8.34233147e-17 6.53231713e-18 0.00000000e+00 7.68909975e-17 0.00000000e+00 6.53231713e-18
3.80189396e+02 4.38326139e-17 4.31585913e-18 0.00000000e+00 3.95167547e-17 0.00000000e+00 4.31585913e-18
4.36515832e+02 2.31143574e-17 2.85145985e-18 0.00000000e+00 2.02628976e-17 0.00000000e+00 2.85145985e-18
5.01187234e+02 1.22471005e-17 1.88394084e-18 0.00000000e+00 1.03631596e-17 0.00000000e+00 1.88394084e-18
5.75439937e+02 6.53353688e-18 1.24470737e-18 0.00000000e+00 5.28882951e-18 0.00000000e+00 1.24470737e-18
6.60693448e+02 3.51650459e-18 8.22370004e-19 0.00000000e+00 2.69413459e-18 0.00000000e+00 8.22370004e-19
7.58577575e+02 1.91348681e-18 5.43334473e-19 0.00000000e+00 1.37015234e-18 0.00000000e+00 5.43334473e-19
8.70963590e+02 1.05462254e-18 3.58977527e-19 0.00000000e+00 6.95645010e-19 0.00000000e+00 3.58977527e-19
1.00000000e+03 3.52625472e-19 0.00000000e+00 0.00000000e+00 3.52625472e-19 0.00000000e+00 0.00000000e+00
