# column 1: lambda (micron)
# column 2: total flux; lambda*F_lambda (W/m2)
# column 3: direct stellar flux; lambda*F_lambda (W/m2)
# column 4: scattered stellar flux; lambda*F_lambda (W/m2)
# column 5: total dust emission flux; lambda*F_lambda (W/m2)
# column 6: dust emission scattered flux; lambda*F_lambda (W/m2)
# column 7: transparent flux; lambda*F_lambda (W/m2)
1.00000000e-03 9.68073369e-13 9.68073281e-13 8.78383753e-20 0.00000000e+00 0.00000000e+00 9.68073281e-13
1.14815362e-03 1.14263702e-12 1.14263687e-12 1.53522647e-19 0.00000000e+00 0.00000000e+00 1.14263687e-12
1.31825674e-03 1.34867810e-12 1.34867788e-12 2.25935143e-19 0.00000000e+00 0.00000000e+00 1.34867788e-12
1.51356125e-03 1.59187269e-12 1.59187233e-12 3.59643502e-19 0.00000000e+00 0.00000000e+00 1.59187233e-12
1.73780083e-03 1.87892039e-12 1.87891976e-12 6.33592763e-19 0.00000000e+00 0.00000000e+00 1.87891976e-12
1.99526231e-03 2.21772885e-12 2.21772777e-12 1.08456715e-18 0.00000000e+00 0.00000000e+00 2.21772777e-12
2.29086765e-03 2.61763168e-12 2.61762985e-12 1.83438332e-18 0.00000000e+00 0.00000000e+00 2.61762985e-12
2.63026799e-03 3.08964607e-12 3.08964252e-12 3.54527476e-18 0.00000000e+00 0.00000000e+00 3.08964252e-12
3.01995172e-03 3.64677474e-12 3.64676883e-12 5.91561294e-18 0.00000000e+00 0.00000000e+00 3.64676883e-12
3.46736850e-03 4.30436667e-12 4.30435650e-12 1.01669446e-17 0.00000000e+00 0.00000000e+00 4.30435650e-12
3.98107171e-03 5.08053742e-12 5.08052080e-12 1.66160300e-17 0.00000000e+00 0.00000000e+00 5.08052080e-12
4.57088190e-03 5.99667911e-12 5.99664354e-12 3.55744125e-17 0.00000000e+00 0.00000000e+00 5.99664354e-12
5.24807460e-03 7.07802752e-12 7.07796211e-12 6.54004615e-17 0.00000000e+00 0.00000000e+00 7.07796211e-12
6.02559586e-03 8.35438588e-12 8.35426474e-12 1.21137224e-16 0.00000000e+00 0.00000000e+00 8.35426474e-12
6.91830971e-03 9.86089199e-12 9.86071107e-12 1.80922409e-16 0.00000000e+00 0.00000000e+00 9.86071107e-12
7.94328235e-03 1.16391154e-11 1.16388008e-11 3.14648403e-16 0.00000000e+00 0.00000000e+00 1.16388008e-11
9.12010839e-03 1.37380530e-11 1.37375167e-11 5.36299696e-16 0.00000000e+00 0.00000000e+00 1.37375167e-11
1.04712855e-02 1.53436342e-11 1.53429287e-11 7.05563087e-16 0.00000000e+00 0.00000000e+00 1.53429287e-11
1.20226443e-02 1.53441040e-11 1.53429287e-11 1.17529262e-15 0.00000000e+00 0.00000000e+00 1.53429287e-11
1.38038426e-02 1.53444691e-11 1.53429287e-11 1.54047052e-15 1.19088506e-289 9.13469731e-292 1.53429287e-11
1.58489319e-02 1.53449693e-11 1.53429287e-11 2.04064662e-15 6.59124185e-253 6.38787426e-255 1.53429287e-11
1.81970086e-02 1.53459048e-11 1.53429287e-11 2.97613794e-15 6.26587025e-221 7.66437127e-223 1.53429287e-11
2.08929613e-02 1.53468106e-11 1.53429287e-11 3.88196301e-15 3.96970764e-193 5.24935344e-195 1.53429287e-11
2.39883292e-02 1.53481591e-11 1.53429287e-11 5.23043328e-15 6.28318602e-169 1.01546494e-170 1.53429287e-11
2.75422870e-02 1.53511383e-11 1.53429287e-11 8.20962878e-15 7.20991730e-148 1.42753467e-149 1.53429287e-11
3.16227766e-02 1.53530042e-11 1.53429287e-11 1.00755535e-14 1.47993614e-129 3.36028898e-131 1.53429287e-11
3.63078055e-02 1.53534901e-11 1.53429287e-11 1.05614478e-14 1.22791496e-113 3.17402585e-115 1.53429287e-11
4.16869383e-02 1.53591902e-11 1.53429287e-11 1.62615352e-14 8.41761686e-100 2.84362362e-101 1.53429287e-11
4.78630092e-02 1.53655204e-11 1.53429287e-11 2.25917138e-14 8.80383785e-88 3.89992148e-89 1.53429287e-11
5.49540874e-02 1.53730450e-11 1.53429287e-11 3.01162915e-14 2.40382043e-77 1.30821787e-78 1.53429287e-11
6.30957344e-02 1.53833814e-11 1.53429287e-11 4.04526884e-14 3.65455532e-68 2.49118475e-69 1.53429287e-11
7.24435960e-02 1.53848824e-11 1.53429287e-11 4.19537286e-14 3.32413682e-60 2.31405388e-61 1.53429287e-11
8.31763771e-02 1.53829337e-11 1.53429287e-11 4.00050506e-14 2.07246941e-53 1.43307810e-54 1.53429287e-11
9.54992586e-02 1.53847559e-11 1.53429287e-11 4.18272801e-14 1.55727285e-47 1.10440220e-48 1.53429287e-11
1.09647820e-01 1.46952544e-11 1.46523889e-11 4.28655290e-14 1.71572976e-42 1.25584269e-43 1.46523889e-11
1.25892541e-01 1.37099760e-11 1.36744049e-11 3.55710909e-14 3.83463478e-38 2.56861441e-39 1.36744049e-11
1.44543977e-01 1.27939832e-11 1.27616972e-11 3.22859322e-14 2.08855560e-34 1.29401282e-35 1.27616972e-11
1.65958691e-01 1.19446107e-11 1.19099088e-11 3.47018915e-14 2.63947598e-31 1.77506860e-32 1.19099088e-11
1.90546072e-01 1.11528193e-11 1.11149736e-11 3.78456797e-14 9.22426594e-29 7.62721365e-30 1.11149736e-11
2.18776162e-01 1.04147342e-11 1.03730969e-11 4.16372800e-14 1.27496569e-26 1.18823173e-27 1.03730969e-11
2.51188643e-01 9.72806042e-12 9.68073733e-12 4.73230823e-14 1.34023950e-24 1.47070961e-25 9.68073733e-12
2.88403150e-01 9.07719223e-12 9.03458975e-12 4.26024774e-14 7.55059402e-23 8.05376759e-24 9.03458975e-12
3.31131121e-01 8.46775298e-12 8.43156974e-12 3.61832356e-14 2.42081529e-21 2.55632918e-22 8.43156974e-12
3.80189396e-01 7.90075416e-12 7.86879872e-12 3.19553849e-14 4.83864451e-20 5.08203778e-21 7.86879872e-12
4.36515832e-01 7.37549077e-12 7.34359025e-12 3.18998693e-14 6.46379432e-19 6.89787516e-20 7.34359025e-12
5.01187234e-01 6.88247819e-12 6.85343719e-12 2.90349566e-14 6.04314779e-18 6.62537495e-19 6.85343719e-12
5.75439937e-01 6.42255942e-12 6.39599973e-12 2.65186215e-14 4.10651631e-17 4.52082974e-18 6.39599973e-12
6.60693448e-01 5.99385641e-12 5.96909425e-12 2.45514367e-14 2.10717407e-16 2.33682591e-17 5.96909425e-12
7.58577575e-01 5.59420239e-12 5.57068288e-12 2.26657268e-14 8.53775274e-16 9.47938723e-17 5.57068288e-12
8.70963590e-01 5.22212480e-12 5.19886376e-12 2.04394123e-14 2.82162571e-15 3.05136858e-16 5.19886376e-12
1.00000000e+00 4.87763271e-12 4.85186196e-12 1.79702575e-14 7.80048959e-15 8.18815110e-16 4.85186196e-12
1.14815362e+00 4.56249292e-12 4.52802104e-12 1.55726937e-14 1.88991811e-14 1.86884181e-15 4.52802104e-12
1.31825674e+00 4.27897746e-12 4.22579511e-12 1.23129169e-14 4.08694265e-14 3.67542732e-15 4.22579511e-12
1.51356125e+00 4.03268922e-12 3.94374146e-12 1.00849098e-14 7.88628425e-14 6.29215218e-15 3.94374146e-12
1.73780083e+00 3.82294091e-12 3.68051368e-12 7.47754393e-15 1.34949680e-13 9.08268417e-15 3.68051368e-12
1.99526231e+00 3.64567087e-12 3.43485522e-12 5.40865925e-15 2.05406983e-13 1.10276803e-14 3.43485522e-12
2.29086765e+00 3.48966885e-12 3.20559341e-12 3.65955047e-15 2.80415892e-13 1.13037451e-14 3.20559341e-12
2.63026799e+00 3.34204924e-12 2.99163384e-12 2.48443168e-15 3.47930971e-13 1.00133050e-14 2.99163384e-12
3.01995172e+00 3.18963301e-12 2.79195514e-12 1.50213286e-15 3.96175736e-13 7.87957332e-15 2.79195514e-12
3.46736850e+00 3.02638665e-12 2.60560415e-12 9.59675816e-16 4.19822824e-13 5.58531244e-15 2.60560415e-12
3.98107171e+00 2.84824689e-12 2.43169128e-12 5.34017932e-16 4.16021592e-13 3.59586466e-15 2.43169128e-12
4.57088190e+00 2.65956978e-12 2.26938634e-12 3.01116109e-16 3.89882326e-13 2.11244956e-15 2.26938634e-12
5.24807460e+00 2.22749411e-12 1.87643467e-12 1.63850270e-16 3.50895591e-13 1.17736594e-15 1.87643467e-12
6.02559586e+00 1.54857284e-12 1.23974809e-12 6.55102135e-17 3.08759236e-13 6.07653070e-16 1.23974809e-12
6.70000000e+00 1.17751811e-12 9.01797527e-13 2.97902555e-17 2.75690794e-13 3.48733979e-16 9.01797527e-13
6.92422916e+00 1.08228880e-12 8.16994532e-13 2.37594791e-17 2.65270507e-13 2.87867343e-16 8.16994532e-13
7.15596261e+00 9.98630199e-13 7.40166218e-13 1.88175957e-17 2.58445164e-13 2.40655467e-16 7.40166218e-13
7.39545150e+00 9.30090345e-13 6.70562664e-13 1.39074275e-17 2.59513773e-13 1.97954749e-16 6.70562664e-13
7.64295536e+00 8.90865395e-13 6.07504471e-13 1.03434606e-17 2.83350581e-13 1.75255367e-16 6.07504471e-13
7.89874245e+00 8.93249357e-13 5.50376127e-13 7.30435680e-18 3.42865925e-13 1.57395425e-16 5.50376127e-13
8.16308998e+00 9.30637201e-13 4.98620004e-13 4.87531667e-18 4.32012322e-13 1.45731590e-16 4.98620004e-13
8.43628443e+00 1.01108120e-12 4.51730909e-13 3.24935216e-18 5.59347041e-13 1.28240048e-16 4.51730909e-13
8.71862190e+00 1.06082819e-12 4.09251158e-13 1.99521263e-18 6.51575037e-13 1.03989287e-16 4.09251158e-13
9.01040836e+00 1.11895063e-12 3.70766106e-13 1.05811458e-18 7.48183468e-13 7.08028978e-17 3.70766106e-13
9.31196005e+00 1.16148071e-12 3.35900102e-13 0.00000000e+00 8.25580612e-13 0.00000000e+00 3.35900102e-13
9.62360379e+00 1.12517479e-12 3.04312818e-13 0.00000000e+00 8.20861969e-13 0.00000000e+00 3.04312818e-13
9.94567731e+00 1.03033955e-12 2.75695930e-13 0.00000000e+00 7.54643620e-13 0.00000000e+00 2.75695930e-13
1.02785297e+01 9.21769153e-13 2.49770110e-13 0.00000000e+00 6.71999044e-13 0.00000000e+00 2.49770110e-13
1.06225216e+01 8.19044496e-13 2.26282295e-13 0.00000000e+00 5.92762201e-13 0.00000000e+00 2.26282295e-13
1.09780260e+01 7.12177783e-13 2.05003220e-13 0.00000000e+00 5.07174563e-13 0.00000000e+00 2.05003220e-13
1.13454280e+01 6.21070775e-13 1.85725182e-13 0.00000000e+00 4.35345593e-13 0.00000000e+00 1.85725182e-13
1.17251259e+01 5.44362061e-13 1.68260007e-13 0.00000000e+00 3.76102054e-13 0.00000000e+00 1.68260007e-13
1.21175312e+01 4.76146781e-13 1.52437217e-13 0.00000000e+00 3.23709564e-13 0.00000000e+00 1.52437217e-13
1.25230691e+01 4.16684981e-13 1.38102367e-13 0.00000000e+00 2.78582614e-13 0.00000000e+00 1.38102367e-13
1.29421791e+01 3.66659175e-13 1.25115533e-13 0.00000000e+00 2.41543642e-13 0.00000000e+00 1.25115533e-13
1.33753155e+01 3.24460449e-13 1.13349952e-13 0.00000000e+00 2.11110497e-13 0.00000000e+00 1.13349952e-13
1.38229477e+01 2.94373489e-13 1.02690779e-13 0.00000000e+00 1.91682710e-13 0.00000000e+00 1.02690779e-13
1.42855609e+01 2.73654071e-13 9.30339713e-14 0.00000000e+00 1.80620100e-13 0.00000000e+00 9.30339713e-14
1.47636563e+01 2.67095313e-13 8.42852675e-14 0.00000000e+00 1.82810046e-13 0.00000000e+00 8.42852675e-14
1.52577522e+01 2.64373701e-13 7.63592720e-14 0.00000000e+00 1.88014429e-13 0.00000000e+00 7.63592720e-14
1.57683840e+01 2.64580567e-13 6.91786191e-14 0.00000000e+00 1.95401948e-13 0.00000000e+00 6.91786191e-14
1.62961051e+01 2.65882049e-13 6.26732185e-14 0.00000000e+00 2.03208831e-13 0.00000000e+00 6.26732185e-14
1.68414875e+01 2.67902316e-13 5.67795711e-14 0.00000000e+00 2.11122745e-13 0.00000000e+00 5.67795711e-14
1.74051222e+01 2.66521742e-13 5.14401489e-14 0.00000000e+00 2.15081593e-13 0.00000000e+00 5.14401489e-14
1.79876201e+01 2.62831431e-13 4.66028339e-14 0.00000000e+00 2.16228597e-13 0.00000000e+00 4.66028339e-14
1.85896125e+01 2.54361818e-13 4.22204090e-14 0.00000000e+00 2.12141409e-13 0.00000000e+00 4.22204090e-14
1.92117518e+01 2.41867340e-13 3.82500974e-14 0.00000000e+00 2.03617243e-13 0.00000000e+00 3.82500974e-14
1.98547123e+01 2.27336562e-13 3.46531450e-14 0.00000000e+00 1.92683417e-13 0.00000000e+00 3.46531450e-14
2.05191907e+01 2.12593900e-13 3.13944418e-14 0.00000000e+00 1.81199459e-13 0.00000000e+00 3.13944418e-14
2.12059073e+01 1.98960764e-13 2.84421796e-14 0.00000000e+00 1.70518585e-13 0.00000000e+00 2.84421796e-14
2.19156062e+01 1.87185781e-13 2.57675415e-14 0.00000000e+00 1.61418239e-13 0.00000000e+00 2.57675415e-14
2.26490567e+01 1.76588108e-13 2.33444203e-14 0.00000000e+00 1.53243688e-13 0.00000000e+00 2.33444203e-14
2.34070535e+01 1.67070917e-13 2.11491639e-14 0.00000000e+00 1.45921753e-13 0.00000000e+00 2.11491639e-14
2.41904183e+01 1.58475627e-13 1.91603445e-14 0.00000000e+00 1.39315283e-13 0.00000000e+00 1.91603445e-14
2.50000000e+01 1.50694853e-13 1.73585491e-14 0.00000000e+00 1.33336304e-13 0.00000000e+00 1.73585491e-14
2.75422870e+01 1.30751737e-13 1.29817562e-14 0.00000000e+00 1.17769980e-13 0.00000000e+00 1.29817562e-14
3.16227766e+01 1.07320469e-13 8.57696126e-15 0.00000000e+00 9.87435079e-14 0.00000000e+00 8.57696126e-15
3.63078055e+01 8.61666489e-14 5.66674211e-15 0.00000000e+00 8.04999068e-14 0.00000000e+00 5.66674211e-15
4.16869383e+01 6.60575058e-14 3.74397938e-15 0.00000000e+00 6.23135264e-14 0.00000000e+00 3.74397938e-15
4.78630092e+01 4.79694752e-14 2.47362265e-15 0.00000000e+00 4.54958525e-14 0.00000000e+00 2.47362265e-15
5.49540874e+01 3.32059786e-14 1.63430628e-15 0.00000000e+00 3.15716723e-14 0.00000000e+00 1.63430628e-15
6.30957344e+01 2.20540182e-14 1.07977545e-15 0.00000000e+00 2.09742428e-14 0.00000000e+00 1.07977545e-15
7.24435960e+01 1.41282378e-14 7.13400564e-16 0.00000000e+00 1.34148372e-14 0.00000000e+00 7.13400564e-16
8.31763771e+01 8.78560922e-15 4.71339078e-16 0.00000000e+00 8.31427014e-15 0.00000000e+00 4.71339078e-16
9.54992586e+01 5.33379944e-15 3.11410641e-16 0.00000000e+00 5.02238880e-15 0.00000000e+00 3.11410641e-16
1.09647820e+02 3.17362031e-15 2.05746970e-16 0.00000000e+00 2.96787334e-15 0.00000000e+00 2.05746970e-16
1.25892541e+02 1.87633116e-15 1.35935675e-16 0.00000000e+00 1.74039548e-15 0.00000000e+00 1.35935675e-16
1.44543977e+02 1.09728599e-15 8.98118099e-17 0.00000000e+00 1.00747418e-15 0.00000000e+00 8.98118099e-17
1.65958691e+02 6.11487252e-16 5.93380743e-17 0.00000000e+00 5.52149177e-16 0.00000000e+00 5.93380743e-17
1.90546072e+02 3.40234593e-16 3.92042769e-17 0.00000000e+00 3.01030316e-16 0.00000000e+00 3.92042769e-17
2.18776162e+02 1.88869774e-16 2.59020089e-17 0.00000000e+00 1.62967765e-16 0.00000000e+00 2.59020089e-17
2.51188643e+02 1.04612191e-16 1.71132876e-17 0.00000000e+00 8.74989032e-17 0.00000000e+00 1.71132876e-17
2.88403150e+02 5.78687413e-17 1.13066370e-17 0.00000000e+00 4.65621043e-17 0.00000000e+00 1.13066370e-17
3.31131121e+02 3.20895236e-17 7.47022097e-18 0.00000000e+00 2.46193027e-17 0.00000000e+00 7.47022097e-18
3.80189396e+02 1.78615031e-17 4.93552605e-18 0.00000000e+00 1.29259771e-17 0.00000000e+00 4.93552605e-18
4.36515832e+02 1.00117647e-17 3.26086972e-18 0.00000000e+00 6.75089499e-18 0.00000000e+00 3.26086972e-18
5.01187234e+02 5.66214779e-18 2.15443526e-18 0.00000000e+00 3.50771253e-18 0.00000000e+00 2.15443526e-18
5.75439937e+02 3.23812952e-18 1.42342126e-18 0.00000000e+00 1.81470825e-18 0.00000000e+00 1.42342126e-18
6.60693448e+02 1.87578231e-18 9.40445101e-19 0.00000000e+00 9.35337208e-19 0.00000000e+00 9.40445101e-19
7.58577575e+02 1.10187362e-18 6.21345916e-19 0.00000000e+00 4.80527702e-19 0.00000000e+00 6.21345916e-19
8.70963590e+02 6.56634287e-19 4.10519176e-19 0.00000000e+00 2.46115111e-19 0.00000000e+00 4.10519176e-19
1.00000000e+03 1.25704679e-19 0.00000000e+00 0.00000000e+00 1.25704679e-19 0.00000000e+00 0.00000000e+00
