# column 1: lambda (micron)
# column 2: total flux; lambda*F_lambda (W/m2)
# column 3: direct stellar flux; lambda*F_lambda (W/m2)
# column 4: scattered stellar flux; lambda*F_lambda (W/m2)
# column 5: total dust emission flux; lambda*F_lambda (W/m2)
# column 6: dust emission scattered flux; lambda*F_lambda (W/m2)
# column 7: transparent flux; lambda*F_lambda (W/m2)
1.00000000e-03 1.07335768e-12 1.07335627e-12 1.40554149e-18 0.00000000e+00 0.00000000e+00 1.07335627e-12
1.14815362e-03 1.26690672e-12 1.26690456e-12 2.16867966e-18 0.00000000e+00 0.00000000e+00 1.26690456e-12
1.31825674e-03 1.49535680e-12 1.49535359e-12 3.21456326e-18 0.00000000e+00 0.00000000e+00 1.49535359e-12
1.51356125e-03 1.76500161e-12 1.76499670e-12 4.91364169e-18 0.00000000e+00 0.00000000e+00 1.76499670e-12
1.73780083e-03 2.08327064e-12 2.08326203e-12 8.61672640e-18 0.00000000e+00 0.00000000e+00 2.08326203e-12
1.99526231e-03 2.45893197e-12 2.45891716e-12 1.48145307e-17 0.00000000e+00 0.00000000e+00 2.45891716e-12
2.29086765e-03 2.90233384e-12 2.90231066e-12 2.31719297e-17 0.00000000e+00 0.00000000e+00 2.90231066e-12
2.63026799e-03 3.42570306e-12 3.42565717e-12 4.58940557e-17 0.00000000e+00 0.00000000e+00 3.42565717e-12
3.01995172e-03 4.04344915e-12 4.04337385e-12 7.53071001e-17 0.00000000e+00 0.00000000e+00 4.04337385e-12
3.46736850e-03 4.77259970e-12 4.77247759e-12 1.22111986e-16 0.00000000e+00 0.00000000e+00 4.77247759e-12
3.98107171e-03 5.63324234e-12 5.63305378e-12 1.88560266e-16 0.00000000e+00 0.00000000e+00 5.63305378e-12
4.57088190e-03 6.64926055e-12 6.64880962e-12 4.50928897e-16 0.00000000e+00 0.00000000e+00 6.64880962e-12
5.24807460e-03 7.84852273e-12 7.84772720e-12 7.95536685e-16 0.00000000e+00 0.00000000e+00 7.84772720e-12
6.02559586e-03 9.26423756e-12 9.26283435e-12 1.40320756e-15 0.00000000e+00 0.00000000e+00 9.26283435e-12
6.91830971e-03 1.09353152e-11 1.09331145e-11 2.20069161e-15 0.00000000e+00 0.00000000e+00 1.09331145e-11
7.94328235e-03 1.29081569e-11 1.29045807e-11 3.57617438e-15 0.00000000e+00 0.00000000e+00 1.29045807e-11
9.12010839e-03 1.52373512e-11 1.52315429e-11 5.80829285e-15 0.00000000e+00 0.00000000e+00 1.52315429e-11
1.04712855e-02 1.70192762e-11 1.70115517e-11 7.72449338e-15 0.00000000e+00 0.00000000e+00 1.70115517e-11
1.20226443e-02 1.70234988e-11 1.70115517e-11 1.19470901e-14 0.00000000e+00 0.00000000e+00 1.70115517e-11
1.38038426e-02 1.70296632e-11 1.70115517e-11 1.81114781e-14 2.86056964e-278 1.22397648e-280 1.70115517e-11
1.58489319e-02 1.70361529e-11 1.70115517e-11 2.46012317e-14 2.38301537e-243 1.41329256e-245 1.70115517e-11
1.81970086e-02 1.70431853e-11 1.70115517e-11 3.16336057e-14 5.85927949e-213 4.71166410e-215 1.70115517e-11
2.08929613e-02 1.70593163e-11 1.70115517e-11 4.77645692e-14 1.54314444e-186 1.82163145e-188 1.70115517e-11
2.39883292e-02 1.70799688e-11 1.70115517e-11 6.84170344e-14 1.52753143e-163 2.32086943e-165 1.70115517e-11
2.75422870e-02 1.70988251e-11 1.70115517e-11 8.72733870e-14 1.56801496e-143 3.08188487e-145 1.70115517e-11
3.16227766e-02 1.71145890e-11 1.70115517e-11 1.03037315e-13 3.93933445e-126 9.73894134e-128 1.70115517e-11
3.63078055e-02 1.71323009e-11 1.70115517e-11 1.20749171e-13 5.24047002e-111 1.53052656e-112 1.70115517e-11
4.16869383e-02 1.71822396e-11 1.70115517e-11 1.70687885e-13 7.31136471e-98 2.95611901e-99 1.70115517e-11
4.78630092e-02 1.72348384e-11 1.70115517e-11 2.23286684e-13 1.92166811e-86 1.06870138e-87 1.70115517e-11
5.49540874e-02 1.72935777e-11 1.70115517e-11 2.82025974e-13 1.58501411e-76 1.09774726e-77 1.70115517e-11
6.30957344e-02 1.73445913e-11 1.70115517e-11 3.33039572e-13 8.63211675e-68 7.46100281e-69 1.70115517e-11
7.24435960e-02 1.73313354e-11 1.70115517e-11 3.19783689e-13 3.30151954e-60 2.93317503e-61 1.70115517e-11
8.31763771e-02 1.73256840e-11 1.70115517e-11 3.14132255e-13 1.01644118e-53 9.32993053e-55 1.70115517e-11
9.54992586e-02 1.73439690e-11 1.70115517e-11 3.32417324e-13 4.60832251e-48 4.89195195e-49 1.70115517e-11
1.09647820e-01 1.65919688e-11 1.62459122e-11 3.46056632e-13 3.94396967e-43 5.31367128e-44 1.62459122e-11
1.25892541e-01 1.54674803e-11 1.51615674e-11 3.05912883e-13 9.12598317e-39 1.52492121e-39 1.51615674e-11
1.44543977e-01 1.44286986e-11 1.41495980e-11 2.79100587e-13 6.66542742e-35 1.30281276e-35 1.41495980e-11
1.65958691e-01 1.34992740e-11 1.32051732e-11 2.94100869e-13 1.35917110e-31 3.21684861e-32 1.32051732e-11
1.90546072e-01 1.26535605e-11 1.23237846e-11 3.29775821e-13 7.86458298e-29 2.12433544e-29 1.23237846e-11
2.18776162e-01 1.18241168e-11 1.15012250e-11 3.22891803e-13 1.72247553e-26 4.78736422e-27 1.15012250e-11
2.51188643e-01 1.11097608e-11 1.07335677e-11 3.76193051e-13 3.34384001e-24 1.08779931e-24 1.07335677e-11
2.88403150e-01 1.03653240e-11 1.00171482e-11 3.48175809e-13 3.13234639e-22 1.01958532e-22 1.00171482e-11
3.31131121e-01 9.66668575e-12 9.34854667e-12 3.18139060e-13 1.51152698e-20 4.85908958e-21 9.34854667e-12
3.80189396e-01 9.01436753e-12 8.72457139e-12 2.89795727e-13 4.11984001e-19 1.30645878e-19 8.72457139e-12
4.36515832e-01 8.41364910e-12 8.14224377e-12 2.71398421e-13 6.90831956e-18 2.14501371e-18 8.14224377e-12
5.01187234e-01 7.84861422e-12 7.59878402e-12 2.49755870e-13 7.43378070e-17 2.26832935e-17 7.59878402e-12
5.75439937e-01 7.33204135e-12 7.09159786e-12 2.39887114e-13 5.56366567e-16 1.66017560e-16 7.09159786e-12
6.60693448e-01 6.84371392e-12 6.61826421e-12 2.22452531e-13 2.99718644e-15 8.77896412e-16 6.61826421e-12
7.58577575e-01 6.39110676e-12 6.17652353e-12 2.02087670e-13 1.24955566e-14 3.52677334e-15 6.17652353e-12
8.70963590e-01 5.99264776e-12 5.76426715e-12 1.86938115e-13 4.14424954e-14 1.10846310e-14 5.76426715e-12
1.00000000e+00 5.65545788e-12 5.37952711e-12 1.63101774e-13 1.12828991e-13 2.83653010e-14 5.37952711e-12
1.14815362e+00 5.42629420e-12 5.02046681e-12 1.37928066e-13 2.67899324e-13 6.13905615e-14 5.02046681e-12
1.31825674e+00 5.35994456e-12 4.68537225e-12 1.13423024e-13 5.61149287e-13 1.14271729e-13 4.68537225e-12
1.51356125e+00 5.50411842e-12 4.37264380e-12 9.07697940e-14 1.04070482e-12 1.84477640e-13 4.37264380e-12
1.73780083e+00 5.86678512e-12 4.08078863e-12 7.23131416e-14 1.71368335e-12 2.55885955e-13 4.08078863e-12
1.99526231e+00 6.39779547e-12 3.80841354e-12 5.45972593e-14 2.53478467e-12 3.06644876e-13 3.80841354e-12
2.29086765e+00 6.96352011e-12 3.55421832e-12 4.01509022e-14 3.36915089e-12 3.15242203e-13 3.55421832e-12
2.63026799e+00 7.46912494e-12 3.31698953e-12 2.75652170e-14 4.12457019e-12 2.85161723e-13 3.31698953e-12
3.01995172e+00 7.81888213e-12 3.09559474e-12 1.82041971e-14 4.70508319e-12 2.30681416e-13 3.09559474e-12
3.46736850e+00 7.94390030e-12 2.88897711e-12 1.16677629e-14 5.04325543e-12 1.69197308e-13 2.88897711e-12
3.98107171e+00 7.84020000e-12 2.69615031e-12 7.24970160e-15 5.13679999e-12 1.13629214e-13 2.69615031e-12
4.57088190e+00 7.52042721e-12 2.51619387e-12 4.38770106e-15 4.99984564e-12 7.06600029e-14 2.51619387e-12
5.24807460e+00 6.81815893e-12 2.08050667e-12 2.26735247e-15 4.73538491e-12 4.17699326e-14 2.08050667e-12
6.02559586e+00 5.78645944e-12 1.37457712e-12 9.14450076e-16 4.41096787e-12 2.34747106e-14 1.37457712e-12
6.70000000e+00 5.12742935e-12 9.99872685e-13 4.37716484e-16 4.12711895e-12 1.44037656e-14 9.99872685e-13
6.92422916e+00 4.94020681e-12 9.05846924e-13 3.46320403e-16 4.03401357e-12 1.23111166e-14 9.05846924e-13
7.15596261e+00 4.79985142e-12 8.20663132e-13 2.77059441e-16 3.97891123e-12 1.04697170e-14 8.20663132e-13
7.39545150e+00 4.75972324e-12 7.43489831e-13 2.09619480e-16 4.01602379e-12 8.90192936e-15 7.43489831e-13
7.64295536e+00 4.96991808e-12 6.73573732e-13 1.54203657e-16 4.29619014e-12 7.80398115e-15 6.73573732e-13
7.89874245e+00 5.57778711e-12 6.10232385e-13 1.03393002e-16 4.96745134e-12 6.89409474e-15 6.10232385e-13
8.16308998e+00 6.47099192e-12 5.52847515e-13 6.71713697e-17 5.91807724e-12 6.08186248e-15 5.52847515e-13
8.43628443e+00 7.66193155e-12 5.00858987e-13 3.96373734e-17 7.16103293e-12 5.06313077e-15 5.00858987e-13
8.71862190e+00 8.47612174e-12 4.53759343e-13 2.33863091e-17 8.02233901e-12 3.91314280e-15 4.53759343e-13
9.01040836e+00 9.27481356e-12 4.11088843e-13 1.08989058e-17 8.86371382e-12 2.47275046e-15 4.11088843e-13
9.31196005e+00 9.92661485e-12 3.72430980e-13 0.00000000e+00 9.55418387e-12 0.00000000e+00 3.72430980e-13
9.62360379e+00 9.84361709e-12 3.37408415e-13 0.00000000e+00 9.50620867e-12 0.00000000e+00 3.37408415e-13
9.94567731e+00 9.32112648e-12 3.05679292e-13 0.00000000e+00 9.01544719e-12 0.00000000e+00 3.05679292e-13
1.02785297e+01 8.63860286e-12 2.76933904e-13 0.00000000e+00 8.36166896e-12 0.00000000e+00 2.76933904e-13
1.06225216e+01 7.97881070e-12 2.50891667e-13 0.00000000e+00 7.72791903e-12 0.00000000e+00 2.50891667e-13
1.09780260e+01 7.20291162e-12 2.27298384e-13 0.00000000e+00 6.97561323e-12 0.00000000e+00 2.27298384e-13
1.13454280e+01 6.54620526e-12 2.05923759e-13 0.00000000e+00 6.34028151e-12 0.00000000e+00 2.05923759e-13
1.17251259e+01 5.95782980e-12 1.86559155e-13 0.00000000e+00 5.77127065e-12 0.00000000e+00 1.86559155e-13
1.21175312e+01 5.39638309e-12 1.69015555e-13 0.00000000e+00 5.22736754e-12 0.00000000e+00 1.69015555e-13
1.25230691e+01 4.91566318e-12 1.53121715e-13 0.00000000e+00 4.76254147e-12 0.00000000e+00 1.53121715e-13
1.29421791e+01 4.47747755e-12 1.38722496e-13 0.00000000e+00 4.33875506e-12 0.00000000e+00 1.38722496e-13
1.33753155e+01 4.10626052e-12 1.25677347e-13 0.00000000e+00 3.98058318e-12 0.00000000e+00 1.25677347e-13
1.38229477e+01 3.87268083e-12 1.13858934e-13 0.00000000e+00 3.75882189e-12 0.00000000e+00 1.13858934e-13
1.42855609e+01 3.74434189e-12 1.03151898e-13 0.00000000e+00 3.64119000e-12 0.00000000e+00 1.03151898e-13
1.47636563e+01 3.81787829e-12 9.34517274e-14 0.00000000e+00 3.72442656e-12 0.00000000e+00 9.34517274e-14
1.52577522e+01 3.94154538e-12 8.46637387e-14 0.00000000e+00 3.85688165e-12 0.00000000e+00 8.46637387e-14
1.57683840e+01 4.09281429e-12 7.67021526e-14 0.00000000e+00 4.01611214e-12 0.00000000e+00 7.67021526e-14
1.62961051e+01 4.26191884e-12 6.94892560e-14 0.00000000e+00 4.19242958e-12 0.00000000e+00 6.94892560e-14
1.68414875e+01 4.42887545e-12 6.29546439e-14 0.00000000e+00 4.36592081e-12 0.00000000e+00 6.29546439e-14
1.74051222e+01 4.52859461e-12 5.70345319e-14 0.00000000e+00 4.47156008e-12 0.00000000e+00 5.70345319e-14
1.79876201e+01 4.57770966e-12 5.16711337e-14 0.00000000e+00 4.52603853e-12 0.00000000e+00 5.16711337e-14
1.85896125e+01 4.56156423e-12 4.68120974e-14 0.00000000e+00 4.51475213e-12 0.00000000e+00 4.68120974e-14
1.92117518e+01 4.44625881e-12 4.24099939e-14 0.00000000e+00 4.40384881e-12 0.00000000e+00 4.24099939e-14
1.98547123e+01 4.29483913e-12 3.84218542e-14 0.00000000e+00 4.25641727e-12 0.00000000e+00 3.84218542e-14
2.05191907e+01 4.10749430e-12 3.48087501e-14 0.00000000e+00 4.07268555e-12 0.00000000e+00 3.48087501e-14
2.12059073e+01 3.93906992e-12 3.15354141e-14 0.00000000e+00 3.90753451e-12 0.00000000e+00 3.15354141e-14
2.19156062e+01 3.77562322e-12 2.85698952e-14 0.00000000e+00 3.74705332e-12 0.00000000e+00 2.85698952e-14
2.26490567e+01 3.61584149e-12 2.58832470e-14 0.00000000e+00 3.58995824e-12 0.00000000e+00 2.58832470e-14
2.34070535e+01 3.46502586e-12 2.34492452e-14 0.00000000e+00 3.44157661e-12 0.00000000e+00 2.34492452e-14
2.41904183e+01 3.31670713e-12 2.12441313e-14 0.00000000e+00 3.29546300e-12 0.00000000e+00 2.12441313e-14
2.50000000e+01 3.17517541e-12 1.92463813e-14 0.00000000e+00 3.15592903e-12 0.00000000e+00 1.92463813e-14
2.75422870e+01 2.75700534e-12 1.43935895e-14 0.00000000e+00 2.74261175e-12 0.00000000e+00 1.43935895e-14
3.16227766e+01 2.17773853e-12 9.50975027e-15 0.00000000e+00 2.16822878e-12 0.00000000e+00 9.50975027e-15
3.63078055e+01 1.62090250e-12 6.28302969e-15 0.00000000e+00 1.61461947e-12 0.00000000e+00 6.28302969e-15
4.16869383e+01 1.12234188e-12 4.15115655e-15 0.00000000e+00 1.11819072e-12 0.00000000e+00 4.15115655e-15
4.78630092e+01 7.26150833e-13 2.74264194e-15 0.00000000e+00 7.23408191e-13 0.00000000e+00 2.74264194e-15
5.49540874e+01 4.44281099e-13 1.81204556e-15 0.00000000e+00 4.42469054e-13 0.00000000e+00 1.81204556e-15
6.30957344e+01 2.60747716e-13 1.19720663e-15 0.00000000e+00 2.59550509e-13 0.00000000e+00 1.19720663e-15
7.24435960e+01 1.48302353e-13 7.90986575e-16 0.00000000e+00 1.47511367e-13 0.00000000e+00 7.90986575e-16
8.31763771e+01 8.24683004e-14 5.22599647e-16 0.00000000e+00 8.19457008e-14 0.00000000e+00 5.22599647e-16
9.54992586e+01 4.51863674e-14 3.45278163e-16 0.00000000e+00 4.48410892e-14 0.00000000e+00 3.45278163e-16
1.09647820e+02 2.44909130e-14 2.28123020e-16 0.00000000e+00 2.42627900e-14 0.00000000e+00 2.28123020e-16
1.25892541e+02 1.33286922e-14 1.50719385e-16 0.00000000e+00 1.31779728e-14 0.00000000e+00 1.50719385e-16
1.44543977e+02 7.23646736e-15 9.95793099e-17 0.00000000e+00 7.13688805e-15 0.00000000e+00 9.95793099e-17
1.65958691e+02 3.75106313e-15 6.57913976e-17 0.00000000e+00 3.68527173e-15 0.00000000e+00 6.57913976e-17
1.90546072e+02 1.95225766e-15 4.34679453e-17 0.00000000e+00 1.90878972e-15 0.00000000e+00 4.34679453e-17
2.18776162e+02 1.01753749e-15 2.87189867e-17 0.00000000e+00 9.88818498e-16 0.00000000e+00 2.87189867e-17
2.51188643e+02 5.30170206e-16 1.89744463e-17 0.00000000e+00 5.11195759e-16 0.00000000e+00 1.89744463e-17
2.88403150e+02 2.75853150e-16 1.25362924e-17 0.00000000e+00 2.63316858e-16 0.00000000e+00 1.25362924e-17
3.31131121e+02 1.43661675e-16 8.28264623e-18 0.00000000e+00 1.35379028e-16 0.00000000e+00 8.28264623e-18
3.80189396e+02 7.48560277e-17 5.47229010e-18 0.00000000e+00 6.93837376e-17 0.00000000e+00 5.47229010e-18
4.36515832e+02 3.91079045e-17 3.61550621e-18 0.00000000e+00 3.54923983e-17 0.00000000e+00 3.61550621e-18
5.01187234e+02 2.05029250e-17 2.38874127e-18 0.00000000e+00 1.81141838e-17 0.00000000e+00 2.38874127e-18
5.75439937e+02 1.08060966e-17 1.57822570e-18 0.00000000e+00 9.22787091e-18 0.00000000e+00 1.57822570e-18
6.60693448e+02 5.73600844e-18 1.04272338e-18 0.00000000e+00 4.69328506e-18 0.00000000e+00 1.04272338e-18
7.58577575e+02 3.07250636e-18 6.88920507e-19 0.00000000e+00 2.38358585e-18 0.00000000e+00 6.88920507e-19
8.70963590e+02 1.66390215e-18 4.55165265e-19 0.00000000e+00 1.20873689e-18 0.00000000e+00 4.55165265e-19
1.00000000e+03 6.12079642e-19 0.00000000e+00 0.00000000e+00 6.12079642e-19 0.00000000e+00 0.00000000e+00
