# column 1: lambda (micron)
# column 2: total flux; lambda*F_lambda (W/m2)
# column 3: direct stellar flux; lambda*F_lambda (W/m2)
# column 4: scattered stellar flux; lambda*F_lambda (W/m2)
# column 5: total dust emission flux; lambda*F_lambda (W/m2)
# column 6: dust emission scattered flux; lambda*F_lambda (W/m2)
# column 7: transparent flux; lambda*F_lambda (W/m2)
1.00000000e-03 1.07337175e-12 1.07335627e-12 1.54831790e-17 0.00000000e+00 0.00000000e+00 1.07335627e-12
1.14815362e-03 1.26692728e-12 1.26690456e-12 2.27212067e-17 0.00000000e+00 0.00000000e+00 1.26690456e-12
1.31825674e-03 1.49538480e-12 1.49535359e-12 3.12124189e-17 0.00000000e+00 0.00000000e+00 1.49535359e-12
1.51356125e-03 1.76504293e-12 1.76499670e-12 4.62263922e-17 0.00000000e+00 0.00000000e+00 1.76499670e-12
1.73780083e-03 2.08334469e-12 2.08326203e-12 8.26635368e-17 0.00000000e+00 0.00000000e+00 2.08326203e-12
1.99526231e-03 2.45904733e-12 2.45891716e-12 1.30173237e-16 0.00000000e+00 0.00000000e+00 2.45891716e-12
2.29086765e-03 2.90250933e-12 2.90231066e-12 1.98667985e-16 0.00000000e+00 0.00000000e+00 2.90231066e-12
2.63026799e-03 3.42602788e-12 3.42565717e-12 3.70715087e-16 0.00000000e+00 0.00000000e+00 3.42565717e-12
3.01995172e-03 4.04396537e-12 4.04337385e-12 5.91526971e-16 0.00000000e+00 0.00000000e+00 4.04337385e-12
3.46736850e-03 4.77336826e-12 4.77247759e-12 8.90673510e-16 0.00000000e+00 0.00000000e+00 4.77247759e-12
3.98107171e-03 5.63440994e-12 5.63305378e-12 1.35615373e-15 0.00000000e+00 0.00000000e+00 5.63305378e-12
4.57088190e-03 6.65335695e-12 6.64880962e-12 4.54732700e-15 0.00000000e+00 0.00000000e+00 6.64880962e-12
5.24807460e-03 7.85381126e-12 7.84772720e-12 6.08406550e-15 0.00000000e+00 0.00000000e+00 7.84772720e-12
6.02559586e-03 9.27347825e-12 9.26283435e-12 1.06438962e-14 0.00000000e+00 0.00000000e+00 9.26283435e-12
6.91830971e-03 1.09479889e-11 1.09331145e-11 1.48743951e-14 0.00000000e+00 0.00000000e+00 1.09331145e-11
7.94328235e-03 1.29588728e-11 1.29045807e-11 5.42921450e-14 0.00000000e+00 0.00000000e+00 1.29045807e-11
9.12010839e-03 1.52811067e-11 1.52315429e-11 4.95637833e-14 0.00000000e+00 0.00000000e+00 1.52315429e-11
1.04712855e-02 1.70711965e-11 1.70115517e-11 5.96448124e-14 0.00000000e+00 0.00000000e+00 1.70115517e-11
1.20226443e-02 1.70899333e-11 1.70115517e-11 7.83815696e-14 3.94382245e-311 1.21556904e-311 1.70115517e-11
1.38038426e-02 1.71758608e-11 1.70115517e-11 1.64309103e-13 9.35377170e-272 3.81244591e-272 1.70115517e-11
1.58489319e-02 1.71753645e-11 1.70115517e-11 1.63812824e-13 1.56831038e-237 6.80194834e-238 1.70115517e-11
1.81970086e-02 1.72295156e-11 1.70115517e-11 2.17963916e-13 8.37471219e-208 3.19971340e-208 1.70115517e-11
2.08929613e-02 1.72911327e-11 1.70115517e-11 2.79580965e-13 6.46270188e-182 2.57111132e-182 1.70115517e-11
2.39883292e-02 1.73534208e-11 1.70115517e-11 3.41869034e-13 2.07950858e-159 8.15129047e-160 1.70115517e-11
2.75422870e-02 1.74304364e-11 1.70115517e-11 4.18884674e-13 8.04772704e-140 3.23323575e-140 1.70115517e-11
3.16227766e-02 1.74669050e-11 1.70115517e-11 4.55353286e-13 8.30023975e-123 3.25116842e-123 1.70115517e-11
3.63078055e-02 1.74600080e-11 1.70115517e-11 4.48456313e-13 5.03621793e-108 1.87742610e-108 1.70115517e-11
4.16869383e-02 1.75541048e-11 1.70115517e-11 5.42553075e-13 3.62850824e-95 1.36107609e-95 1.70115517e-11
4.78630092e-02 1.75347793e-11 1.70115517e-11 5.23227584e-13 4.85239380e-84 1.84854475e-84 1.70115517e-11
5.49540874e-02 1.74796693e-11 1.70115517e-11 4.68117557e-13 2.06912578e-74 8.04894659e-75 1.70115517e-11
6.30957344e-02 1.73715463e-11 1.70115517e-11 3.59994592e-13 4.76113388e-66 1.98964064e-66 1.70115517e-11
7.24435960e-02 1.72561524e-11 1.70115517e-11 2.44600725e-13 8.02484313e-59 3.40020021e-59 1.70115517e-11
8.31763771e-02 1.72466813e-11 1.70115517e-11 2.35129586e-13 2.08291232e-52 7.27857039e-53 1.70115517e-11
9.54992586e-02 1.72555710e-11 1.70115517e-11 2.44019295e-13 9.50659981e-47 2.61240639e-47 1.70115517e-11
1.09647820e-01 1.65384368e-11 1.62459122e-11 2.92524655e-13 9.24032711e-42 2.22115192e-42 1.62459122e-11
1.25892541e-01 1.55007921e-11 1.51615674e-11 3.39224691e-13 1.98976283e-37 4.43388780e-38 1.51615674e-11
1.44543977e-01 1.45150916e-11 1.41495980e-11 3.65493607e-13 1.09908331e-33 2.22710707e-34 1.41495980e-11
1.65958691e-01 1.35760145e-11 1.32051732e-11 3.70841292e-13 1.47250068e-30 3.14304915e-31 1.32051732e-11
1.90546072e-01 1.26738113e-11 1.23237846e-11 3.50026664e-13 5.15729089e-28 1.20121167e-28 1.23237846e-11
2.18776162e-01 1.17517263e-11 1.15012250e-11 2.50501230e-13 6.70897158e-26 1.51299472e-26 1.15012250e-11
2.51188643e-01 1.10373060e-11 1.07335677e-11 3.03738307e-13 8.36256989e-24 2.37778378e-24 1.07335677e-11
2.88403150e-01 1.03321107e-11 1.00171482e-11 3.14962456e-13 5.37713868e-22 1.66182390e-22 1.00171482e-11
3.31131121e-01 9.67276691e-12 9.34854667e-12 3.24220218e-13 1.88140522e-20 6.23783285e-21 9.34854667e-12
3.80189396e-01 9.03957547e-12 8.72457139e-12 3.15003668e-13 4.10280520e-19 1.48355422e-19 8.72457139e-12
4.36515832e-01 8.44435231e-12 8.14224377e-12 3.02102703e-13 5.83704769e-18 2.27227905e-18 8.14224377e-12
5.01187234e-01 7.88607639e-12 7.59878402e-12 2.87232808e-13 5.95695679e-17 2.39430638e-17 7.59878402e-12
5.75439937e-01 7.36474256e-12 7.09159786e-12 2.72715431e-13 4.29266031e-16 1.76486826e-16 7.09159786e-12
6.60693448e-01 6.86767863e-12 6.61826421e-12 2.46949545e-13 2.46487615e-15 1.02188216e-15 6.61826421e-12
7.58577575e-01 6.41533088e-12 6.17652353e-12 2.27741446e-13 1.10658974e-14 4.50872955e-15 6.17652353e-12
8.70963590e-01 6.00847811e-12 5.76426715e-12 2.03034624e-13 4.11763357e-14 1.55478292e-14 5.76426715e-12
1.00000000e+00 5.68666653e-12 5.37952711e-12 1.77626432e-13 1.29512992e-13 4.48831143e-14 5.37952711e-12
1.14815362e+00 5.53220291e-12 5.02046681e-12 1.55774521e-13 3.55961577e-13 1.07695117e-13 5.02046681e-12
1.31825674e+00 5.67495396e-12 4.68537225e-12 1.31070103e-13 8.58511610e-13 2.19824555e-13 4.68537225e-12
1.51356125e+00 6.31667749e-12 4.37264380e-12 1.10728392e-13 1.83330530e-12 3.96785875e-13 4.37264380e-12
1.73780083e+00 7.66780047e-12 4.08078863e-12 9.53645063e-14 3.49164734e-12 6.28862067e-13 4.08078863e-12
1.99526231e+00 9.72130950e-12 3.80841354e-12 8.11709187e-14 5.83172504e-12 8.60904073e-13 3.80841354e-12
2.29086765e+00 1.22858149e-11 3.55421832e-12 6.65186523e-14 8.66507796e-12 1.03386836e-12 3.55421832e-12
2.63026799e+00 1.48813673e-11 3.31698953e-12 5.19602607e-14 1.15124175e-11 1.08900890e-12 3.31698953e-12
3.01995172e+00 1.71331065e-11 3.09559474e-12 3.88052990e-14 1.39987064e-11 1.00836098e-12 3.09559474e-12
3.46736850e+00 1.88076850e-11 2.88897711e-12 2.77557394e-14 1.58909522e-11 8.36908910e-13 2.88897711e-12
3.98107171e+00 1.97915162e-11 2.69615031e-12 1.84551158e-14 1.70769108e-11 6.22803507e-13 2.69615031e-12
4.57088190e+00 1.99654316e-11 2.51619387e-12 1.17526779e-14 1.74374850e-11 4.14326701e-13 2.51619387e-12
5.24807460e+00 1.92535981e-11 2.08050667e-12 6.50717240e-15 1.71665842e-11 2.57839319e-13 2.08050667e-12
6.02559586e+00 1.77687188e-11 1.37457712e-12 2.71600718e-15 1.63914256e-11 1.48476110e-13 1.37457712e-12
6.70000000e+00 1.65631761e-11 9.99872685e-13 1.34624456e-15 1.55619572e-11 9.23550146e-14 9.99872685e-13
6.92422916e+00 1.62021852e-11 9.05846924e-13 1.07524683e-15 1.52952630e-11 7.90132226e-14 9.05846924e-13
7.15596261e+00 1.58734360e-11 8.20663132e-13 8.50415039e-16 1.50519224e-11 6.73156699e-14 8.20663132e-13
7.39545150e+00 1.57682994e-11 7.43489831e-13 6.54529880e-16 1.50241551e-11 5.70343499e-14 7.43489831e-13
7.64295536e+00 1.63336868e-11 6.73573732e-13 4.71656638e-16 1.56596414e-11 4.89574127e-14 6.73573732e-13
7.89874245e+00 1.76129517e-11 6.10232385e-13 3.10942892e-16 1.70024084e-11 4.14899030e-14 6.10232385e-13
8.16308998e+00 1.91951101e-11 5.52847515e-13 1.92205801e-16 1.86420704e-11 3.43524100e-14 5.52847515e-13
8.43628443e+00 2.07867438e-11 5.00858987e-13 1.07496310e-16 2.02857773e-11 2.65316346e-14 5.00858987e-13
8.71862190e+00 2.14488464e-11 4.53759343e-13 6.35391679e-17 2.09950235e-11 1.99328789e-14 4.53759343e-13
9.01040836e+00 2.19527901e-11 4.11088843e-13 2.87203505e-17 2.15416726e-11 1.23950946e-14 4.11088843e-13
9.31196005e+00 2.21708974e-11 3.72430980e-13 0.00000000e+00 2.17984664e-11 0.00000000e+00 3.72430980e-13
9.62360379e+00 2.19298823e-11 3.37408415e-13 0.00000000e+00 2.15924739e-11 0.00000000e+00 3.37408415e-13
9.94567731e+00 2.15194625e-11 3.05679292e-13 0.00000000e+00 2.12137832e-11 0.00000000e+00 3.05679292e-13
1.02785297e+01 2.09599480e-11 2.76933904e-13 0.00000000e+00 2.06830141e-11 0.00000000e+00 2.76933904e-13
1.06225216e+01 2.03157622e-11 2.50891667e-13 0.00000000e+00 2.00648706e-11 0.00000000e+00 2.50891667e-13
1.09780260e+01 1.95390589e-11 2.27298384e-13 0.00000000e+00 1.93117605e-11 0.00000000e+00 2.27298384e-13
1.13454280e+01 1.86121158e-11 2.05923759e-13 0.00000000e+00 1.84061921e-11 0.00000000e+00 2.05923759e-13
1.17251259e+01 1.77287445e-11 1.86559155e-13 0.00000000e+00 1.75421854e-11 0.00000000e+00 1.86559155e-13
1.21175312e+01 1.67699128e-11 1.69015555e-13 0.00000000e+00 1.66008972e-11 0.00000000e+00 1.69015555e-13
1.25230691e+01 1.56921478e-11 1.53121715e-13 0.00000000e+00 1.55390261e-11 0.00000000e+00 1.53121715e-13
1.29421791e+01 1.46988166e-11 1.38722496e-13 0.00000000e+00 1.45600941e-11 0.00000000e+00 1.38722496e-13
1.33753155e+01 1.37133397e-11 1.25677347e-13 0.00000000e+00 1.35876624e-11 0.00000000e+00 1.25677347e-13
1.38229477e+01 1.30490232e-11 1.13858934e-13 0.00000000e+00 1.29351643e-11 0.00000000e+00 1.13858934e-13
1.42855609e+01 1.26411553e-11 1.03151898e-13 0.00000000e+00 1.25380034e-11 0.00000000e+00 1.03151898e-13
1.47636563e+01 1.27755456e-11 9.34517274e-14 0.00000000e+00 1.26820939e-11 0.00000000e+00 9.34517274e-14
1.52577522e+01 1.30148377e-11 8.46637387e-14 0.00000000e+00 1.29301740e-11 0.00000000e+00 8.46637387e-14
1.57683840e+01 1.33686364e-11 7.67021526e-14 0.00000000e+00 1.32919343e-11 0.00000000e+00 7.67021526e-14
1.62961051e+01 1.37348071e-11 6.94892560e-14 0.00000000e+00 1.36653178e-11 0.00000000e+00 6.94892560e-14
1.68414875e+01 1.40548909e-11 6.29546439e-14 0.00000000e+00 1.39919362e-11 0.00000000e+00 6.29546439e-14
1.74051222e+01 1.42282538e-11 5.70345319e-14 0.00000000e+00 1.41712193e-11 0.00000000e+00 5.70345319e-14
1.79876201e+01 1.43077216e-11 5.16711337e-14 0.00000000e+00 1.42560504e-11 0.00000000e+00 5.16711337e-14
1.85896125e+01 1.41400829e-11 4.68120974e-14 0.00000000e+00 1.40932708e-11 0.00000000e+00 4.68120974e-14
1.92117518e+01 1.37544846e-11 4.24099939e-14 0.00000000e+00 1.37120746e-11 0.00000000e+00 4.24099939e-14
1.98547123e+01 1.32391042e-11 3.84218542e-14 0.00000000e+00 1.32006823e-11 0.00000000e+00 3.84218542e-14
2.05191907e+01 1.26474829e-11 3.48087501e-14 0.00000000e+00 1.26126741e-11 0.00000000e+00 3.48087501e-14
2.12059073e+01 1.21054540e-11 3.15354141e-14 0.00000000e+00 1.20739186e-11 0.00000000e+00 3.15354141e-14
2.19156062e+01 1.15105862e-11 2.85698952e-14 0.00000000e+00 1.14820163e-11 0.00000000e+00 2.85698952e-14
2.26490567e+01 1.09763322e-11 2.58832470e-14 0.00000000e+00 1.09504489e-11 0.00000000e+00 2.58832470e-14
2.34070535e+01 1.04326498e-11 2.34492452e-14 0.00000000e+00 1.04092005e-11 0.00000000e+00 2.34492452e-14
2.41904183e+01 9.93037326e-12 2.12441313e-14 0.00000000e+00 9.90912913e-12 0.00000000e+00 2.12441313e-14
2.50000000e+01 9.41819894e-12 1.92463813e-14 0.00000000e+00 9.39895256e-12 0.00000000e+00 1.92463813e-14
2.75422870e+01 7.97282875e-12 1.43935895e-14 0.00000000e+00 7.95843516e-12 0.00000000e+00 1.43935895e-14
3.16227766e+01 6.07277333e-12 9.50975027e-15 0.00000000e+00 6.06326358e-12 0.00000000e+00 9.50975027e-15
3.63078055e+01 4.36711553e-12 6.28302969e-15 0.00000000e+00 4.36083250e-12 0.00000000e+00 6.28302969e-15
4.16869383e+01 2.93312498e-12 4.15115655e-15 0.00000000e+00 2.92897383e-12 0.00000000e+00 4.15115655e-15
4.78630092e+01 1.84321293e-12 2.74264194e-15 0.00000000e+00 1.84047029e-12 0.00000000e+00 2.74264194e-15
5.49540874e+01 1.10030826e-12 1.81204556e-15 0.00000000e+00 1.09849622e-12 0.00000000e+00 1.81204556e-15
6.30957344e+01 6.31758662e-13 1.19720663e-15 0.00000000e+00 6.30561456e-13 0.00000000e+00 1.19720663e-15
7.24435960e+01 3.52417959e-13 7.90986575e-16 0.00000000e+00 3.51626972e-13 0.00000000e+00 7.90986575e-16
8.31763771e+01 1.92688027e-13 5.22599647e-16 0.00000000e+00 1.92165427e-13 0.00000000e+00 5.22599647e-16
9.54992586e+01 1.04008631e-13 3.45278163e-16 0.00000000e+00 1.03663353e-13 0.00000000e+00 3.45278163e-16
1.09647820e+02 5.56623979e-14 2.28123020e-16 0.00000000e+00 5.54342749e-14 0.00000000e+00 2.28123020e-16
1.25892541e+02 2.99475655e-14 1.50719385e-16 0.00000000e+00 2.97968462e-14 0.00000000e+00 1.50719385e-16
1.44543977e+02 1.60971287e-14 9.95793099e-17 0.00000000e+00 1.59975494e-14 0.00000000e+00 9.95793099e-17
1.65958691e+02 8.26547455e-15 6.57913976e-17 0.00000000e+00 8.19968315e-15 0.00000000e+00 6.57913976e-17
1.90546072e+02 4.26381360e-15 4.34679453e-17 0.00000000e+00 4.22034566e-15 0.00000000e+00 4.34679453e-17
2.18776162e+02 2.20336351e-15 2.87189867e-17 0.00000000e+00 2.17464453e-15 0.00000000e+00 2.87189867e-17
2.51188643e+02 1.13798871e-15 1.89744463e-17 0.00000000e+00 1.11901427e-15 0.00000000e+00 1.89744463e-17
2.88403150e+02 5.86683854e-16 1.25362924e-17 0.00000000e+00 5.74147562e-16 0.00000000e+00 1.25362924e-17
3.31131121e+02 3.02473499e-16 8.28264623e-18 0.00000000e+00 2.94190852e-16 0.00000000e+00 8.28264623e-18
3.80189396e+02 1.55814104e-16 5.47229010e-18 0.00000000e+00 1.50341814e-16 0.00000000e+00 5.47229010e-18
4.36515832e+02 8.03287781e-17 3.61550621e-18 0.00000000e+00 7.67132718e-17 0.00000000e+00 3.61550621e-18
5.01187234e+02 4.14575165e-17 2.38874127e-18 0.00000000e+00 3.90687752e-17 0.00000000e+00 2.38874127e-18
5.75439937e+02 2.14440860e-17 1.57822570e-18 0.00000000e+00 1.98658603e-17 0.00000000e+00 1.57822570e-18
6.60693448e+02 1.11303565e-17 1.04272338e-18 0.00000000e+00 1.00876331e-17 0.00000000e+00 1.04272338e-18
7.58577575e+02 5.80510261e-18 6.88920507e-19 0.00000000e+00 5.11618211e-18 0.00000000e+00 6.88920507e-19
8.70963590e+02 3.04654731e-18 4.55165265e-19 0.00000000e+00 2.59138205e-18 0.00000000e+00 4.55165265e-19
1.00000000e+03 1.31087642e-18 0.00000000e+00 0.00000000e+00 1.31087642e-18 0.00000000e+00 0.00000000e+00
