# column 1: lambda (micron)
# column 2: total flux; lambda*F_lambda (W/m2)
# column 3: direct stellar flux; lambda*F_lambda (W/m2)
# column 4: scattered stellar flux; lambda*F_lambda (W/m2)
# column 5: total dust emission flux; lambda*F_lambda (W/m2)
# column 6: dust emission scattered flux; lambda*F_lambda (W/m2)
# column 7: transparent flux; lambda*F_lambda (W/m2)
1.00000000e-03 1.04635858e-12 1.04634360e-12 1.49759550e-17 0.00000000e+00 0.00000000e+00 1.04634360e-12
1.14815362e-03 1.23504603e-12 1.23502095e-12 2.50827163e-17 0.00000000e+00 0.00000000e+00 1.23502095e-12
1.31825674e-03 1.45775976e-12 1.45772071e-12 3.90534198e-17 0.00000000e+00 0.00000000e+00 1.45772071e-12
1.51356125e-03 1.72063787e-12 1.72057784e-12 6.00315373e-17 0.00000000e+00 0.00000000e+00 1.72057784e-12
1.73780083e-03 2.03093906e-12 2.03083353e-12 1.05537542e-16 0.00000000e+00 0.00000000e+00 2.03083353e-12
1.99526231e-03 2.39721485e-12 2.39703472e-12 1.80133134e-16 0.00000000e+00 0.00000000e+00 2.39703472e-12
2.29086765e-03 2.82955081e-12 2.82926954e-12 2.81268213e-16 0.00000000e+00 0.00000000e+00 2.82926954e-12
2.63026799e-03 3.33998508e-12 3.33944522e-12 5.39854936e-16 0.00000000e+00 0.00000000e+00 3.33944522e-12
3.01995172e-03 3.94244316e-12 3.94161611e-12 8.27054976e-16 0.00000000e+00 0.00000000e+00 3.94161611e-12
3.46736850e-03 4.65367589e-12 4.65237083e-12 1.30506120e-15 0.00000000e+00 0.00000000e+00 4.65237083e-12
3.98107171e-03 5.49327760e-12 5.49128930e-12 1.98830571e-15 0.00000000e+00 0.00000000e+00 5.49128930e-12
4.57088190e-03 6.48902252e-12 6.48148207e-12 7.54044332e-15 0.00000000e+00 0.00000000e+00 6.48148207e-12
5.24807460e-03 7.65940846e-12 7.65022704e-12 9.18142071e-15 0.00000000e+00 0.00000000e+00 7.65022704e-12
6.02559586e-03 9.07676089e-12 9.02972084e-12 4.70400478e-14 0.00000000e+00 0.00000000e+00 9.02972084e-12
6.91830971e-03 1.06815244e-11 1.06579658e-11 2.35585239e-14 0.00000000e+00 0.00000000e+00 1.06579658e-11
7.94328235e-03 1.26185838e-11 1.25798170e-11 3.87667469e-14 2.45571296e-303 2.50165814e-305 1.25798170e-11
9.12010839e-03 1.49050486e-11 1.48482176e-11 5.68309835e-14 1.17878349e-264 9.04364255e-267 1.48482176e-11
1.04712855e-02 1.67049354e-11 1.65834298e-11 1.21505593e-13 5.40667149e-231 4.46101266e-233 1.65834298e-11
1.20226443e-02 1.67573797e-11 1.65834298e-11 1.73949904e-13 9.11793233e-202 1.07767375e-203 1.65834298e-11
1.38038426e-02 1.67949414e-11 1.65834298e-11 2.11511634e-13 2.66435780e-176 5.52128976e-178 1.65834298e-11
1.58489319e-02 1.68564573e-11 1.65834298e-11 2.73027544e-13 3.80100888e-154 8.01828326e-156 1.65834298e-11
1.81970086e-02 1.68979252e-11 1.65834298e-11 3.14495438e-13 7.16342872e-135 2.15618988e-136 1.65834298e-11
2.08929613e-02 1.70333829e-11 1.65834298e-11 4.49953088e-13 3.91718013e-118 1.42394923e-119 1.65834298e-11
2.39883292e-02 1.71252590e-11 1.65834298e-11 5.41829225e-13 1.42966487e-103 6.00364793e-105 1.65834298e-11
2.75422870e-02 1.71905867e-11 1.65834298e-11 6.07156956e-13 6.63883050e-91 3.30447640e-92 1.65834298e-11
3.16227766e-02 1.72451544e-11 1.65834298e-11 6.61724569e-13 6.66537226e-80 3.62735447e-81 1.65834298e-11
3.63078055e-02 1.72738497e-11 1.65834298e-11 6.90419891e-13 2.37254279e-70 1.39810711e-71 1.65834298e-11
4.16869383e-02 1.73530081e-11 1.65834298e-11 7.69578322e-13 4.63736954e-62 3.25552168e-63 1.65834298e-11
4.78630092e-02 1.73790706e-11 1.65834298e-11 7.95640834e-13 7.14208627e-55 5.52787789e-56 1.65834298e-11
5.49540874e-02 1.73246461e-11 1.65834298e-11 7.41216304e-13 1.20365473e-48 9.82141557e-50 1.65834298e-11
6.30957344e-02 1.72176305e-11 1.65834298e-11 6.34200674e-13 3.90810303e-43 3.14192371e-44 1.65834298e-11
7.24435960e-02 1.70709382e-11 1.65834298e-11 4.87508393e-13 2.26665335e-38 1.60646891e-39 1.65834298e-11
8.31763771e-02 1.70515625e-11 1.65834298e-11 4.68132686e-13 2.34116386e-34 1.61634696e-35 1.65834298e-11
9.54992586e-02 1.70602296e-11 1.65834298e-11 4.76799833e-13 6.66767067e-31 4.80628576e-32 1.65834298e-11
1.09647820e-01 1.63684726e-11 1.58370587e-11 5.31413850e-13 5.72987890e-28 4.55167083e-29 1.58370587e-11
1.25892541e-01 1.53607231e-11 1.47800032e-11 5.80719942e-13 1.87853146e-25 1.55351580e-26 1.47800032e-11
1.44543977e-01 1.43613806e-11 1.37935015e-11 5.67879107e-13 2.58255003e-23 2.18400962e-24 1.37935015e-11
1.65958691e-01 1.34511361e-11 1.28728446e-11 5.78291456e-13 1.31707636e-21 1.20017101e-22 1.28728446e-11
1.90546072e-01 1.25662461e-11 1.20136376e-11 5.52608465e-13 2.78995987e-20 2.85835620e-21 1.20136376e-11
2.18776162e-01 1.16437597e-11 1.12117790e-11 4.31980362e-13 3.29582731e-19 3.30940527e-20 1.12117790e-11
2.51188643e-01 1.09642085e-11 1.04634409e-11 5.00763483e-13 4.04803706e-18 4.98199995e-19 1.04634409e-11
2.88403150e-01 1.02745736e-11 9.76505125e-12 5.09488449e-13 3.38812537e-17 4.20680957e-18 9.76505125e-12
3.31131121e-01 9.60445124e-12 9.11327608e-12 4.90980308e-13 1.94853599e-16 2.39547367e-17 9.11327608e-12
3.80189396e-01 8.97910573e-12 8.50500410e-12 4.73283102e-13 8.18535933e-16 1.03174480e-16 8.50500410e-12
4.36515832e-01 8.39455080e-12 7.93733165e-12 4.54619299e-13 2.59985136e-15 3.27686430e-16 7.93733165e-12
5.01187234e-01 7.84948569e-12 7.40754890e-12 4.35355588e-13 6.58120057e-15 8.59252621e-16 7.40754890e-12
5.75439937e-01 7.33396395e-12 6.91312687e-12 4.06804814e-13 1.40322620e-14 1.97594294e-15 6.91312687e-12
6.60693448e-01 6.86493232e-12 6.45170538e-12 3.85768119e-13 2.74588232e-14 4.65552753e-15 6.45170538e-12
7.58577575e-01 6.43202076e-12 6.02108180e-12 3.55798304e-13 5.51406612e-14 1.22305996e-14 6.02108180e-12
8.70963590e-01 6.06810076e-12 5.61920048e-12 3.29364735e-13 1.19535543e-13 3.23826801e-14 5.61920048e-12
1.00000000e+00 5.80858362e-12 5.24414302e-12 2.93072040e-13 2.71368562e-13 7.97342679e-14 5.24414302e-12
1.14815362e+00 5.75544195e-12 4.89411902e-12 2.51072525e-13 6.10250406e-13 1.72410108e-13 4.89411902e-12
1.31825674e+00 6.06604181e-12 4.56745763e-12 2.08674707e-13 1.28990948e-12 3.33192041e-13 4.56745763e-12
1.51356125e+00 6.90577340e-12 4.26259947e-12 1.69589424e-13 2.47358450e-12 5.61224803e-13 4.26259947e-12
1.73780083e+00 8.36573899e-12 3.97808929e-12 1.35290375e-13 4.25235933e-12 8.30108675e-13 3.97808929e-12
1.99526231e+00 1.03822616e-11 3.71256894e-12 1.03572267e-13 6.56612040e-12 1.05051229e-12 3.71256894e-12
2.29086765e+00 1.26234450e-11 3.46477093e-12 7.41698777e-14 9.08450415e-12 1.13253846e-12 3.46477093e-12
2.63026799e+00 1.47259669e-11 3.23351237e-12 5.08552154e-14 1.14415994e-11 1.05425376e-12 3.23351237e-12
3.01995172e+00 1.64089803e-11 3.01768933e-12 3.31243134e-14 1.33581667e-11 8.54226555e-13 3.01768933e-12
3.46736850e+00 1.74983630e-11 2.81627154e-12 2.06547824e-14 1.46614366e-11 6.20314376e-13 2.81627154e-12
3.98107171e+00 1.77918347e-11 2.62829753e-12 1.24709098e-14 1.51510663e-11 4.02734334e-13 2.62829753e-12
4.57088190e+00 1.74187822e-11 2.45286997e-12 7.43309094e-15 1.49584791e-11 2.42548176e-13 2.45286997e-12
5.24807460e+00 1.62235203e-11 2.02814751e-12 3.77657038e-15 1.41915962e-11 1.36311348e-13 2.02814751e-12
6.02559586e+00 1.44376021e-11 1.33998377e-12 1.48146624e-15 1.30961369e-11 7.20140904e-14 1.33998377e-12
6.70000000e+00 1.30754026e-11 9.74709347e-13 6.97434727e-16 1.20999958e-11 4.19834653e-14 9.74709347e-13
6.92422916e+00 1.26632868e-11 8.83049889e-13 5.42657564e-16 1.17796943e-11 3.52980889e-14 8.83049889e-13
7.15596261e+00 1.23425189e-11 8.00009879e-13 4.16506782e-16 1.15420926e-11 2.93199068e-14 8.00009879e-13
7.39545150e+00 1.22804096e-11 7.24778763e-13 3.11651027e-16 1.15553192e-11 2.46758956e-14 7.24778763e-13
7.64295536e+00 1.28507452e-11 6.56622211e-13 2.20308648e-16 1.21939027e-11 2.15057258e-14 6.56622211e-13
7.89874245e+00 1.43761931e-11 5.94874946e-13 1.41578780e-16 1.37811766e-11 1.90960873e-14 5.94874946e-13
8.16308998e+00 1.64571720e-11 5.38934254e-13 8.36918879e-17 1.59181541e-11 1.67766385e-14 5.38934254e-13
8.43628443e+00 1.89286955e-11 4.88254098e-13 4.07349614e-17 1.84404006e-11 1.33893661e-14 4.88254098e-13
8.71862190e+00 2.03733443e-11 4.42339790e-13 1.83850003e-17 1.99309861e-11 9.15056532e-15 4.42339790e-13
9.01040836e+00 2.16590467e-11 4.00743158e-13 4.69592881e-18 2.12582989e-11 4.20142616e-15 4.00743158e-13
9.31196005e+00 2.25233018e-11 3.63058180e-13 0.00000000e+00 2.21602436e-11 0.00000000e+00 3.63058180e-13
9.62360379e+00 2.22577700e-11 3.28917012e-13 0.00000000e+00 2.19288530e-11 0.00000000e+00 3.28917012e-13
9.94567731e+00 2.13436298e-11 2.97986401e-13 0.00000000e+00 2.10456434e-11 0.00000000e+00 2.97986401e-13
1.02785297e+01 2.00974388e-11 2.69964435e-13 0.00000000e+00 1.98274743e-11 0.00000000e+00 2.69964435e-13
1.06225216e+01 1.87078352e-11 2.44577592e-13 0.00000000e+00 1.84632576e-11 0.00000000e+00 2.44577592e-13
1.09780260e+01 1.72024461e-11 2.21578069e-13 0.00000000e+00 1.69808681e-11 0.00000000e+00 2.21578069e-13
1.13454280e+01 1.56926881e-11 2.00741370e-13 0.00000000e+00 1.54919468e-11 0.00000000e+00 2.00741370e-13
1.17251259e+01 1.43112017e-11 1.81864106e-13 0.00000000e+00 1.41293376e-11 0.00000000e+00 1.81864106e-13
1.21175312e+01 1.29362607e-11 1.64762018e-13 0.00000000e+00 1.27714987e-11 0.00000000e+00 1.64762018e-13
1.25230691e+01 1.16519372e-11 1.49268171e-13 0.00000000e+00 1.15026690e-11 0.00000000e+00 1.49268171e-13
1.29421791e+01 1.05005104e-11 1.35231331e-13 0.00000000e+00 1.03652791e-11 0.00000000e+00 1.35231331e-13
1.33753155e+01 9.48265523e-12 1.22514483e-13 0.00000000e+00 9.36014075e-12 0.00000000e+00 1.22514483e-13
1.38229477e+01 8.78140125e-12 1.10993499e-13 0.00000000e+00 8.67040775e-12 0.00000000e+00 1.10993499e-13
1.42855609e+01 8.33776500e-12 1.00555922e-13 0.00000000e+00 8.23720908e-12 0.00000000e+00 1.00555922e-13
1.47636563e+01 8.36309563e-12 9.10998706e-14 0.00000000e+00 8.27199576e-12 0.00000000e+00 9.10998706e-14
1.52577522e+01 8.46938413e-12 8.25330452e-14 0.00000000e+00 8.38685108e-12 0.00000000e+00 8.25330452e-14
1.57683840e+01 8.67638776e-12 7.47718247e-14 0.00000000e+00 8.60161593e-12 0.00000000e+00 7.47718247e-14
1.62961051e+01 8.86474995e-12 6.77404517e-14 0.00000000e+00 8.79700949e-12 0.00000000e+00 6.77404517e-14
1.68414875e+01 9.04349552e-12 6.13702932e-14 0.00000000e+00 8.98212523e-12 0.00000000e+00 6.13702932e-14
1.74051222e+01 9.06918394e-12 5.55991699e-14 0.00000000e+00 9.01358477e-12 0.00000000e+00 5.55991699e-14
1.79876201e+01 8.99281411e-12 5.03707500e-14 0.00000000e+00 8.94244336e-12 0.00000000e+00 5.03707500e-14
1.85896125e+01 8.74280856e-12 4.56339988e-14 0.00000000e+00 8.69717456e-12 0.00000000e+00 4.56339988e-14
1.92117518e+01 8.34328311e-12 4.13426810e-14 0.00000000e+00 8.30194043e-12 0.00000000e+00 4.13426810e-14
1.98547123e+01 7.85002613e-12 3.74549090e-14 0.00000000e+00 7.81257122e-12 0.00000000e+00 3.74549090e-14
2.05191907e+01 7.32308886e-12 3.39327342e-14 0.00000000e+00 7.28915612e-12 0.00000000e+00 3.39327342e-14
2.12059073e+01 6.82870770e-12 3.07417768e-14 0.00000000e+00 6.79796592e-12 0.00000000e+00 3.07417768e-14
2.19156062e+01 6.36578792e-12 2.78508898e-14 0.00000000e+00 6.33793703e-12 0.00000000e+00 2.78508898e-14
2.26490567e+01 5.93212166e-12 2.52318552e-14 0.00000000e+00 5.90688980e-12 0.00000000e+00 2.52318552e-14
2.34070535e+01 5.53178963e-12 2.28591087e-14 0.00000000e+00 5.50893052e-12 0.00000000e+00 2.28591087e-14
2.41904183e+01 5.15546507e-12 2.07094900e-14 0.00000000e+00 5.13475558e-12 0.00000000e+00 2.07094900e-14
2.50000000e+01 4.80553682e-12 1.87620165e-14 0.00000000e+00 4.78677481e-12 0.00000000e+00 1.87620165e-14
2.75422870e+01 3.86740142e-12 1.40313526e-14 0.00000000e+00 3.85337006e-12 0.00000000e+00 1.40313526e-14
3.16227766e+01 2.76394508e-12 9.27042274e-15 0.00000000e+00 2.75467465e-12 0.00000000e+00 9.27042274e-15
3.63078055e+01 1.87596442e-12 6.12490756e-15 0.00000000e+00 1.86983951e-12 0.00000000e+00 6.12490756e-15
4.16869383e+01 1.19682568e-12 4.04668630e-15 0.00000000e+00 1.19277900e-12 0.00000000e+00 4.04668630e-15
4.78630092e+01 7.18255404e-13 2.67361912e-15 0.00000000e+00 7.15581785e-13 0.00000000e+00 2.67361912e-15
5.49540874e+01 4.11853381e-13 1.76644264e-15 0.00000000e+00 4.10086938e-13 0.00000000e+00 1.76644264e-15
6.30957344e+01 2.28504153e-13 1.16707708e-15 0.00000000e+00 2.27337075e-13 0.00000000e+00 1.16707708e-15
7.24435960e+01 1.23833536e-13 7.71080178e-16 0.00000000e+00 1.23062455e-13 0.00000000e+00 7.71080178e-16
8.31763771e+01 6.61268347e-14 5.09447621e-16 0.00000000e+00 6.56173871e-14 0.00000000e+00 5.09447621e-16
9.54992586e+01 3.50157548e-14 3.36588705e-16 0.00000000e+00 3.46791661e-14 0.00000000e+00 3.36588705e-16
1.09647820e+02 1.84464936e-14 2.22381952e-16 0.00000000e+00 1.82241117e-14 0.00000000e+00 2.22381952e-16
1.25892541e+02 9.80672882e-15 1.46926299e-16 0.00000000e+00 9.65980252e-15 0.00000000e+00 1.46926299e-16
1.44543977e+02 5.22369615e-15 9.70732430e-17 0.00000000e+00 5.12662291e-15 0.00000000e+00 9.70732430e-17
1.65958691e+02 2.66253671e-15 6.41356556e-17 0.00000000e+00 2.59840105e-15 0.00000000e+00 6.41356556e-17
1.90546072e+02 1.36750274e-15 4.23740075e-17 0.00000000e+00 1.32512873e-15 0.00000000e+00 4.23740075e-17
2.18776162e+02 7.05536487e-16 2.79962291e-17 0.00000000e+00 6.77540258e-16 0.00000000e+00 2.79962291e-17
2.51188643e+02 3.64892622e-16 1.84969251e-17 0.00000000e+00 3.46395697e-16 0.00000000e+00 1.84969251e-17
2.88403150e+02 1.88969793e-16 1.22207972e-17 0.00000000e+00 1.76748996e-16 0.00000000e+00 1.22207972e-17
3.31131121e+02 9.82149637e-17 8.07420067e-18 0.00000000e+00 9.01407630e-17 0.00000000e+00 8.07420067e-18
3.80189396e+02 5.12145364e-17 5.33457148e-18 0.00000000e+00 4.58799650e-17 0.00000000e+00 5.33457148e-18
4.36515832e+02 2.68552908e-17 3.52451642e-18 0.00000000e+00 2.33307744e-17 0.00000000e+00 3.52451642e-18
5.01187234e+02 1.41756817e-17 2.32862491e-18 0.00000000e+00 1.18470568e-17 0.00000000e+00 2.32862491e-18
5.75439937e+02 7.54744888e-18 1.53850722e-18 0.00000000e+00 6.00894166e-18 0.00000000e+00 1.53850722e-18
6.60693448e+02 4.06118018e-18 1.01648164e-18 0.00000000e+00 3.04469854e-18 0.00000000e+00 1.01648164e-18
7.58577575e+02 2.21291945e-18 6.71582760e-19 0.00000000e+00 1.54133669e-18 0.00000000e+00 6.71582760e-19
8.70963590e+02 1.22316718e-18 4.43710329e-19 0.00000000e+00 7.79456852e-19 0.00000000e+00 4.43710329e-19
1.00000000e+03 3.93756015e-19 0.00000000e+00 0.00000000e+00 3.93756015e-19 0.00000000e+00 0.00000000e+00
