# column 1: lambda (micron)
# column 2: total flux; lambda*F_lambda (W/m2)
# column 3: direct stellar flux; lambda*F_lambda (W/m2)
# column 4: scattered stellar flux; lambda*F_lambda (W/m2)
# column 5: total dust emission flux; lambda*F_lambda (W/m2)
# column 6: dust emission scattered flux; lambda*F_lambda (W/m2)
# column 7: transparent flux; lambda*F_lambda (W/m2)
1.00000000e-03 9.67753539e-13 9.67744249e-13 9.28911136e-18 0.00000000e+00 0.00000000e+00 9.68073281e-13
1.14815362e-03 1.14213842e-12 1.14212381e-12 1.46126511e-17 0.00000000e+00 0.00000000e+00 1.14263687e-12
1.31825674e-03 1.34792830e-12 1.34790798e-12 2.03198848e-17 0.00000000e+00 0.00000000e+00 1.34867788e-12
1.51356125e-03 1.59083359e-12 1.59080103e-12 3.25564839e-17 0.00000000e+00 0.00000000e+00 1.59187233e-12
1.73780083e-03 1.87769823e-12 1.87764222e-12 5.60104665e-17 0.00000000e+00 0.00000000e+00 1.87891976e-12
1.99526231e-03 2.21582106e-12 2.21572876e-12 9.22990032e-17 0.00000000e+00 0.00000000e+00 2.21772777e-12
2.29086765e-03 2.61527380e-12 2.61512788e-12 1.45923936e-16 0.00000000e+00 0.00000000e+00 2.61762985e-12
2.63026799e-03 3.08639173e-12 3.08610396e-12 2.87772346e-16 0.00000000e+00 0.00000000e+00 3.08964252e-12
3.01995172e-03 3.64208027e-12 3.64160393e-12 4.76340218e-16 0.00000000e+00 0.00000000e+00 3.64676883e-12
3.46736850e-03 4.29795516e-12 4.29717197e-12 7.83193166e-16 0.00000000e+00 0.00000000e+00 4.30435650e-12
3.98107171e-03 5.07205000e-12 5.07081518e-12 1.23482304e-15 0.00000000e+00 0.00000000e+00 5.08052080e-12
4.57088190e-03 5.99185853e-12 5.98899959e-12 2.85893844e-15 0.00000000e+00 0.00000000e+00 5.99664354e-12
5.24807460e-03 7.07169161e-12 7.06644052e-12 5.25109335e-15 0.00000000e+00 0.00000000e+00 7.07796211e-12
6.02559586e-03 8.36027940e-12 8.33787030e-12 2.24091020e-14 0.00000000e+00 0.00000000e+00 8.35426474e-12
6.91830971e-03 9.85617453e-12 9.83838117e-12 1.77933550e-14 0.00000000e+00 0.00000000e+00 9.86071107e-12
7.94328235e-03 1.17320526e-11 1.16093997e-11 1.22652813e-13 1.27896942e-303 2.18389699e-305 1.16388008e-11
9.12010839e-03 1.37528814e-11 1.36990126e-11 5.38687602e-14 5.30828654e-265 3.06227744e-267 1.37375167e-11
1.04712855e-02 1.53881964e-11 1.52971827e-11 9.10136503e-14 2.16365841e-231 1.58327793e-233 1.53429287e-11
1.20226443e-02 1.53906048e-11 1.52944871e-11 9.61176113e-14 3.29192382e-202 3.77847530e-204 1.53429287e-11
1.38038426e-02 1.54409329e-11 1.52912905e-11 1.49642354e-13 8.75701520e-177 1.46468676e-178 1.53429287e-11
1.58489319e-02 1.54727242e-11 1.52873630e-11 1.85361179e-13 1.15713785e-154 2.20127625e-156 1.53429287e-11
1.81970086e-02 1.55369571e-11 1.52837415e-11 2.53215567e-13 2.04210146e-135 6.24918123e-137 1.53429287e-11
2.08929613e-02 1.56412405e-11 1.52807319e-11 3.60508641e-13 1.04877583e-118 3.54414706e-120 1.53429287e-11
2.39883292e-02 1.57183302e-11 1.52768333e-11 4.41496889e-13 3.64916810e-104 1.58202563e-105 1.53429287e-11
2.75422870e-02 1.58024037e-11 1.52722999e-11 5.30103843e-13 1.61832291e-91 8.12057019e-93 1.53429287e-11
3.16227766e-02 1.58674842e-11 1.52678574e-11 5.99626714e-13 1.57108967e-80 9.44578825e-82 1.53429287e-11
3.63078055e-02 1.59014582e-11 1.52643739e-11 6.37084281e-13 5.38468370e-71 3.29994214e-72 1.53429287e-11
4.16869383e-02 1.60223859e-11 1.52613615e-11 7.61024378e-13 1.02163198e-62 7.41720596e-64 1.53429287e-11
4.78630092e-02 1.60525677e-11 1.52530611e-11 7.99506609e-13 1.53281407e-55 1.21694411e-56 1.53429287e-11
5.49540874e-02 1.60369544e-11 1.52415253e-11 7.95429088e-13 2.51934412e-49 2.04355873e-50 1.53429287e-11
6.30957344e-02 1.59393422e-11 1.52126377e-11 7.26704578e-13 8.03630379e-44 6.49972486e-45 1.53429287e-11
7.24435960e-02 1.57849669e-11 1.51784907e-11 6.06476212e-13 4.58779307e-39 3.29448538e-40 1.53429287e-11
8.31763771e-02 1.57637922e-11 1.51815262e-11 5.82266064e-13 4.66880553e-35 3.26432761e-36 1.53429287e-11
9.54992586e-02 1.57821076e-11 1.51904325e-11 5.91675053e-13 1.31024984e-31 9.40914168e-33 1.53429287e-11
1.09647820e-01 1.51894892e-11 1.45313024e-11 6.58186855e-13 1.11258942e-28 8.84013914e-30 1.46523889e-11
1.25892541e-01 1.42465773e-11 1.35813167e-11 6.65260636e-13 3.61393181e-26 3.03667050e-27 1.36744049e-11
1.44543977e-01 1.33229685e-11 1.26896486e-11 6.33319984e-13 4.90761113e-24 4.06543367e-25 1.27616972e-11
1.65958691e-01 1.24882854e-11 1.18510835e-11 6.37201926e-13 2.48261493e-22 2.21514405e-23 1.19099088e-11
1.90546072e-01 1.16886994e-11 1.10564143e-11 6.32285048e-13 5.22062654e-21 5.21121066e-22 1.11149736e-11
2.18776162e-01 1.08496011e-11 1.03090193e-11 5.40581773e-13 6.13459205e-20 5.98877047e-21 1.03730969e-11
2.51188643e-01 1.02300723e-11 9.63288264e-12 5.97188872e-13 7.46805029e-19 8.77501123e-20 9.68073733e-12
2.88403150e-01 9.56862726e-12 8.99749516e-12 5.71125871e-13 6.22141086e-18 7.37512042e-19 9.03458975e-12
3.31131121e-01 8.94348217e-12 8.40138392e-12 5.42062602e-13 3.56561944e-17 4.18449394e-18 8.43156974e-12
3.80189396e-01 8.34390494e-12 7.84405483e-12 4.99701069e-13 1.49039791e-16 1.75153466e-17 7.86879872e-12
4.36515832e-01 7.78266876e-12 7.32348854e-12 4.58700092e-13 4.80126948e-16 5.82597351e-17 7.34359025e-12
5.01187234e-01 7.26083492e-12 6.83732785e-12 4.22204601e-13 1.30246629e-15 1.83099019e-16 6.85343719e-12
5.75439937e-01 6.76978855e-12 6.38322315e-12 3.83166265e-13 3.39914192e-15 6.23230883e-16 6.39599973e-12
6.60693448e-01 6.31240041e-12 5.95904873e-12 3.43695814e-13 9.65586618e-15 2.30812454e-15 5.96909425e-12
7.58577575e-01 5.90260347e-12 5.56288072e-12 3.09977044e-13 2.97457079e-14 8.12524780e-15 5.57068288e-12
8.70963590e-01 5.55164509e-12 5.19293827e-12 2.71579597e-13 8.71272291e-14 2.43868465e-14 5.19886376e-12
1.00000000e+00 5.30607401e-12 4.84743449e-12 2.33277806e-13 2.25361715e-13 6.03594276e-14 4.85186196e-12
1.14815362e+00 5.24593574e-12 4.52477169e-12 1.96436527e-13 5.24727523e-13 1.30104362e-13 4.52802104e-12
1.31825674e+00 5.46803738e-12 4.22345185e-12 1.57262030e-13 1.08732350e-12 2.37654848e-13 4.22579511e-12
1.51356125e+00 6.07799041e-12 3.94206872e-12 1.28005959e-13 2.00791573e-12 3.83791737e-13 3.94374146e-12
1.73780083e+00 7.09648293e-12 3.67933902e-12 1.03677566e-13 3.31346635e-12 5.35355333e-13 3.68051368e-12
1.99526231e+00 8.41574576e-12 3.43404328e-12 8.02706386e-14 4.90143185e-12 6.54890695e-13 3.43485522e-12
2.29086765e+00 9.88225109e-12 3.20503393e-12 6.14715657e-14 6.61574560e-12 6.94445635e-13 3.20559341e-12
2.63026799e+00 1.12047090e-11 2.99124471e-12 4.46551083e-14 8.16880921e-12 6.56051837e-13 2.99163384e-12
3.01995172e+00 1.23052098e-11 2.79168102e-12 3.14119406e-14 9.48211688e-12 5.54480463e-13 2.79195514e-12
3.46736850e+00 1.29842470e-11 2.60540788e-12 2.11100267e-14 1.03577291e-11 4.25842679e-13 2.60560415e-12
3.98107171e+00 1.31480837e-11 2.43154897e-12 1.36723386e-14 1.07028624e-11 2.97333196e-13 2.43169128e-12
4.57088190e+00 1.29466427e-11 2.26928174e-12 8.53975645e-15 1.06688212e-11 1.92389216e-13 2.26938634e-12
5.24807460e+00 1.22317298e-11 1.87636519e-12 4.58315745e-15 1.03507814e-11 1.18722652e-13 1.87643467e-12
6.02559586e+00 1.11095721e-11 1.23970995e-12 1.88977820e-15 9.86797238e-12 6.87827785e-14 1.23974809e-12
6.70000000e+00 1.03270201e-11 9.01772968e-13 9.28649397e-16 9.42431851e-12 4.35073743e-14 9.01797527e-13
6.92422916e+00 1.00848842e-11 8.16973061e-13 7.34919846e-16 9.26717625e-12 3.73936796e-14 8.16994532e-13
7.15596261e+00 9.92273725e-12 7.40147106e-13 5.81798912e-16 9.18200835e-12 3.20652000e-14 7.40166218e-13
7.39545150e+00 9.93148568e-12 6.70544936e-13 4.44385047e-16 9.26049636e-12 2.75382724e-14 6.70562664e-13
7.64295536e+00 1.03937988e-11 6.07486172e-13 3.23475577e-16 9.78598920e-12 2.38484149e-14 6.07504471e-13
7.89874245e+00 1.14924727e-11 5.50354708e-13 2.08959922e-16 1.09419090e-11 2.04573676e-14 5.50376127e-13
8.16308998e+00 1.29614555e-11 4.98593801e-13 1.31995030e-16 1.24627297e-11 1.73798050e-14 4.98620004e-13
8.43628443e+00 1.47607667e-11 4.51697929e-13 7.37170589e-17 1.43089950e-11 1.37742976e-14 4.51730909e-13
8.71862190e+00 1.57846952e-11 4.09214445e-13 4.31129234e-17 1.53754376e-11 1.05693139e-14 4.09251158e-13
9.01040836e+00 1.67828871e-11 3.70725815e-13 2.04161321e-17 1.64121409e-11 6.74383965e-15 3.70766106e-13
9.31196005e+00 1.74085154e-11 3.35857766e-13 0.00000000e+00 1.70726576e-11 0.00000000e+00 3.35900102e-13
9.62360379e+00 1.73661687e-11 3.04273452e-13 0.00000000e+00 1.70618952e-11 0.00000000e+00 3.04312818e-13
9.94567731e+00 1.66769212e-11 2.75662467e-13 0.00000000e+00 1.64012587e-11 0.00000000e+00 2.75695930e-13
1.02785297e+01 1.59112818e-11 2.49742683e-13 0.00000000e+00 1.56615391e-11 0.00000000e+00 2.49770110e-13
1.06225216e+01 1.51465667e-11 2.26260057e-13 0.00000000e+00 1.49203067e-11 0.00000000e+00 2.26282295e-13
1.09780260e+01 1.41675547e-11 2.04985841e-13 0.00000000e+00 1.39625689e-11 0.00000000e+00 2.05003220e-13
1.13454280e+01 1.33453100e-11 1.85711544e-13 0.00000000e+00 1.31595985e-11 0.00000000e+00 1.85725182e-13
1.17251259e+01 1.25175390e-11 1.68249237e-13 0.00000000e+00 1.23492898e-11 0.00000000e+00 1.68260007e-13
1.21175312e+01 1.17862163e-11 1.52428755e-13 0.00000000e+00 1.16337876e-11 0.00000000e+00 1.52437217e-13
1.25230691e+01 1.10350642e-11 1.38095736e-13 0.00000000e+00 1.08969685e-11 0.00000000e+00 1.38102367e-13
1.29421791e+01 1.03792029e-11 1.25110302e-13 0.00000000e+00 1.02540926e-11 0.00000000e+00 1.25115533e-13
1.33753155e+01 9.76675882e-12 1.13345795e-13 0.00000000e+00 9.65341302e-12 0.00000000e+00 1.13349952e-13
1.38229477e+01 9.37772571e-12 1.02687323e-13 0.00000000e+00 9.27503838e-12 0.00000000e+00 1.02690779e-13
1.42855609e+01 9.19641205e-12 9.30309674e-14 0.00000000e+00 9.10338108e-12 0.00000000e+00 9.30339713e-14
1.47636563e+01 9.36672316e-12 8.42824165e-14 0.00000000e+00 9.28244074e-12 0.00000000e+00 8.42852675e-14
1.52577522e+01 9.63712700e-12 7.63565173e-14 0.00000000e+00 9.56077048e-12 0.00000000e+00 7.63592720e-14
1.57683840e+01 1.00075892e-11 6.91759233e-14 0.00000000e+00 9.93841327e-12 0.00000000e+00 6.91786191e-14
1.62961051e+01 1.03129743e-11 6.26705835e-14 0.00000000e+00 1.02503037e-11 0.00000000e+00 6.26732185e-14
1.68414875e+01 1.06549706e-11 5.67770013e-14 0.00000000e+00 1.05981936e-11 0.00000000e+00 5.67795711e-14
1.74051222e+01 1.08915357e-11 5.14377086e-14 0.00000000e+00 1.08400980e-11 0.00000000e+00 5.14401489e-14
1.79876201e+01 1.09698287e-11 4.66005554e-14 0.00000000e+00 1.09232282e-11 0.00000000e+00 4.66028339e-14
1.85896125e+01 1.09110131e-11 4.22183474e-14 0.00000000e+00 1.08687948e-11 0.00000000e+00 4.22204090e-14
1.92117518e+01 1.06959395e-11 3.82482866e-14 0.00000000e+00 1.06576912e-11 0.00000000e+00 3.82500974e-14
1.98547123e+01 1.04267854e-11 3.46515854e-14 0.00000000e+00 1.03921338e-11 0.00000000e+00 3.46531450e-14
2.05191907e+01 1.00490051e-11 3.13931122e-14 0.00000000e+00 1.00176119e-11 0.00000000e+00 3.13944418e-14
2.12059073e+01 9.67682555e-12 2.84410463e-14 0.00000000e+00 9.64838450e-12 0.00000000e+00 2.84421796e-14
2.19156062e+01 9.31425084e-12 2.57665707e-14 0.00000000e+00 9.28848427e-12 0.00000000e+00 2.57675415e-14
2.26490567e+01 8.95861067e-12 2.33435874e-14 0.00000000e+00 8.93526709e-12 0.00000000e+00 2.33444203e-14
2.34070535e+01 8.58170188e-12 2.11484481e-14 0.00000000e+00 8.56055343e-12 0.00000000e+00 2.11491639e-14
2.41904183e+01 8.21117328e-12 1.91597276e-14 0.00000000e+00 8.19201356e-12 0.00000000e+00 1.91603445e-14
2.50000000e+01 7.85534900e-12 1.73580164e-14 0.00000000e+00 7.83799099e-12 0.00000000e+00 1.73585491e-14
2.75422870e+01 6.79357754e-12 1.29814088e-14 0.00000000e+00 6.78059613e-12 0.00000000e+00 1.29817562e-14
3.16227766e+01 5.29782722e-12 8.57677040e-15 0.00000000e+00 5.28925045e-12 0.00000000e+00 8.57696126e-15
3.63078055e+01 3.88320159e-12 5.66663780e-15 0.00000000e+00 3.87753495e-12 0.00000000e+00 5.66674211e-15
4.16869383e+01 2.64581437e-12 3.74392388e-15 0.00000000e+00 2.64207045e-12 0.00000000e+00 3.74397938e-15
4.78630092e+01 1.68501914e-12 2.47359404e-15 0.00000000e+00 1.68254555e-12 0.00000000e+00 2.47362265e-15
5.49540874e+01 1.01669834e-12 1.63429184e-15 0.00000000e+00 1.01506405e-12 0.00000000e+00 1.63430628e-15
6.30957344e+01 5.88725330e-13 1.07976826e-15 0.00000000e+00 5.87645562e-13 0.00000000e+00 1.07977545e-15
7.24435960e+01 3.30207847e-13 7.13397007e-16 0.00000000e+00 3.29494450e-13 0.00000000e+00 7.13400564e-16
8.31763771e+01 1.81334067e-13 4.71337322e-16 0.00000000e+00 1.80862729e-13 0.00000000e+00 4.71339078e-16
9.54992586e+01 9.81803278e-14 3.11409772e-16 0.00000000e+00 9.78689181e-14 0.00000000e+00 3.11410641e-16
1.09647820e+02 5.26335725e-14 2.05746538e-16 0.00000000e+00 5.24278259e-14 0.00000000e+00 2.05746970e-16
1.25892541e+02 2.83545233e-14 1.35935457e-16 0.00000000e+00 2.82185878e-14 0.00000000e+00 1.35935675e-16
1.44543977e+02 1.52519315e-14 8.98116994e-17 0.00000000e+00 1.51621198e-14 0.00000000e+00 8.98118099e-17
1.65958691e+02 7.83424895e-15 5.93380201e-17 0.00000000e+00 7.77491093e-15 0.00000000e+00 5.93380743e-17
1.90546072e+02 4.04142789e-15 3.92042501e-17 0.00000000e+00 4.00222364e-15 0.00000000e+00 3.92042769e-17
2.18776162e+02 2.08816328e-15 2.59019955e-17 0.00000000e+00 2.06226128e-15 0.00000000e+00 2.59020089e-17
2.51188643e+02 1.07818971e-15 1.71132809e-17 0.00000000e+00 1.06107643e-15 0.00000000e+00 1.71132876e-17
2.88403150e+02 5.55620590e-16 1.13066336e-17 0.00000000e+00 5.44313957e-16 0.00000000e+00 1.13066370e-17
3.31131121e+02 2.86323783e-16 7.47021929e-18 0.00000000e+00 2.78853563e-16 0.00000000e+00 7.47022097e-18
3.80189396e+02 1.47406709e-16 4.93552521e-18 0.00000000e+00 1.42471183e-16 0.00000000e+00 4.93552605e-18
4.36515832e+02 7.59430396e-17 3.26086930e-18 0.00000000e+00 7.26821703e-17 0.00000000e+00 3.26086972e-18
5.01187234e+02 3.91622159e-17 2.15443505e-18 0.00000000e+00 3.70077809e-17 0.00000000e+00 2.15443526e-18
5.75439937e+02 2.02374798e-17 1.42342115e-18 0.00000000e+00 1.88140587e-17 0.00000000e+00 1.42342126e-18
6.60693448e+02 1.04922155e-17 9.40445047e-19 0.00000000e+00 9.55177049e-18 0.00000000e+00 9.40445101e-19
7.58577575e+02 5.46491773e-18 6.21345889e-19 0.00000000e+00 4.84357184e-18 0.00000000e+00 6.21345916e-19
8.70963590e+02 2.86343570e-18 4.10519162e-19 0.00000000e+00 2.45291654e-18 0.00000000e+00 4.10519176e-19
1.00000000e+03 1.24065915e-18 0.00000000e+00 0.00000000e+00 1.24065915e-18 0.00000000e+00 0.00000000e+00
