# column 1: lambda (micron)
# column 2: total flux; lambda*F_lambda (W/m2)
# column 3: direct stellar flux; lambda*F_lambda (W/m2)
# column 4: scattered stellar flux; lambda*F_lambda (W/m2)
# column 5: total dust emission flux; lambda*F_lambda (W/m2)
# column 6: dust emission scattered flux; lambda*F_lambda (W/m2)
# column 7: transparent flux; lambda*F_lambda (W/m2)
1.00000000e-03 1.07335812e-12 1.07335627e-12 1.84555553e-18 0.00000000e+00 0.00000000e+00 1.07335627e-12
1.14815362e-03 1.26690730e-12 1.26690456e-12 2.74111286e-18 0.00000000e+00 0.00000000e+00 1.26690456e-12
1.31825674e-03 1.49535766e-12 1.49535359e-12 4.07273934e-18 0.00000000e+00 0.00000000e+00 1.49535359e-12
1.51356125e-03 1.76500283e-12 1.76499670e-12 6.13311725e-18 0.00000000e+00 0.00000000e+00 1.76499670e-12
1.73780083e-03 2.08327316e-12 2.08326203e-12 1.11314901e-17 0.00000000e+00 0.00000000e+00 2.08326203e-12
1.99526231e-03 2.45893596e-12 2.45891716e-12 1.87987840e-17 0.00000000e+00 0.00000000e+00 2.45891716e-12
2.29086765e-03 2.90233952e-12 2.90231066e-12 2.88572188e-17 0.00000000e+00 0.00000000e+00 2.90231066e-12
2.63026799e-03 3.42571287e-12 3.42565717e-12 5.57013663e-17 0.00000000e+00 0.00000000e+00 3.42565717e-12
3.01995172e-03 4.04346762e-12 4.04337385e-12 9.37725293e-17 0.00000000e+00 0.00000000e+00 4.04337385e-12
3.46736850e-03 4.77262295e-12 4.77247759e-12 1.45358142e-16 0.00000000e+00 0.00000000e+00 4.77247759e-12
3.98107171e-03 5.63328127e-12 5.63305378e-12 2.27486041e-16 0.00000000e+00 0.00000000e+00 5.63305378e-12
4.57088190e-03 6.64936617e-12 6.64880962e-12 5.56549935e-16 0.00000000e+00 0.00000000e+00 6.64880962e-12
5.24807460e-03 7.84868754e-12 7.84772720e-12 9.60341178e-16 0.00000000e+00 0.00000000e+00 7.84772720e-12
6.02559586e-03 9.26455165e-12 9.26283435e-12 1.71730064e-15 0.00000000e+00 0.00000000e+00 9.26283435e-12
6.91830971e-03 1.09358386e-11 1.09331145e-11 2.72408645e-15 0.00000000e+00 0.00000000e+00 1.09331145e-11
7.94328235e-03 1.29097035e-11 1.29045807e-11 5.12282280e-15 0.00000000e+00 0.00000000e+00 1.29045807e-11
9.12010839e-03 1.52384084e-11 1.52315429e-11 6.86555191e-15 0.00000000e+00 0.00000000e+00 1.52315429e-11
1.04712855e-02 1.70205118e-11 1.70115517e-11 8.96006929e-15 0.00000000e+00 0.00000000e+00 1.70115517e-11
1.20226443e-02 1.70296964e-11 1.70115517e-11 1.81446344e-14 1.32859225e-311 3.32122484e-312 1.70115517e-11
1.38038426e-02 1.70319913e-11 1.70115517e-11 2.04396221e-14 2.87333244e-272 6.98774341e-273 1.70115517e-11
1.58489319e-02 1.70497043e-11 1.70115517e-11 3.81525451e-14 5.24815619e-238 1.51013143e-238 1.70115517e-11
1.81970086e-02 1.70607576e-11 1.70115517e-11 4.92058497e-14 3.12397970e-208 8.05757529e-209 1.70115517e-11
2.08929613e-02 1.70708822e-11 1.70115517e-11 5.93304817e-14 2.48644510e-182 6.47653361e-183 1.70115517e-11
2.39883292e-02 1.70941537e-11 1.70115517e-11 8.26019657e-14 8.67003197e-160 2.35883554e-160 1.70115517e-11
2.75422870e-02 1.71103760e-11 1.70115517e-11 9.88242801e-14 3.50633597e-140 9.66613581e-141 1.70115517e-11
3.16227766e-02 1.71352263e-11 1.70115517e-11 1.23674632e-13 3.85641323e-123 1.05249910e-123 1.70115517e-11
3.63078055e-02 1.71501628e-11 1.70115517e-11 1.38611054e-13 2.48633249e-108 6.56481052e-109 1.70115517e-11
4.16869383e-02 1.72013970e-11 1.70115517e-11 1.89845268e-13 1.89883002e-95 5.36440119e-96 1.70115517e-11
4.78630092e-02 1.72647728e-11 1.70115517e-11 2.53221065e-13 2.69336157e-84 7.59491274e-85 1.70115517e-11
5.49540874e-02 1.73142578e-11 1.70115517e-11 3.02706083e-13 1.23842579e-74 3.51663535e-75 1.70115517e-11
6.30957344e-02 1.73552826e-11 1.70115517e-11 3.43730891e-13 3.40550115e-66 1.05557703e-66 1.70115517e-11
7.24435960e-02 1.73268689e-11 1.70115517e-11 3.15317139e-13 6.70029782e-59 2.10510474e-59 1.70115517e-11
8.31763771e-02 1.73272232e-11 1.70115517e-11 3.15671448e-13 1.65967211e-52 4.54138869e-53 1.70115517e-11
9.54992586e-02 1.73425091e-11 1.70115517e-11 3.30957433e-13 7.11139222e-47 1.63899637e-47 1.70115517e-11
1.09647820e-01 1.65955755e-11 1.62459122e-11 3.49663353e-13 6.38324293e-42 1.28647705e-42 1.62459122e-11
1.25892541e-01 1.54883198e-11 1.51615674e-11 3.26752415e-13 1.35894688e-37 2.42723542e-38 1.51615674e-11
1.44543977e-01 1.44540865e-11 1.41495980e-11 3.04488486e-13 7.85632364e-34 1.28561971e-34 1.41495980e-11
1.65958691e-01 1.35310324e-11 1.32051732e-11 3.25859286e-13 1.15343755e-30 2.01532358e-31 1.32051732e-11
1.90546072e-01 1.26818843e-11 1.23237846e-11 3.58099628e-13 4.84112375e-28 9.90213994e-29 1.23237846e-11
2.18776162e-01 1.18404859e-11 1.15012250e-11 3.39260838e-13 8.13703939e-26 1.77666854e-26 1.15012250e-11
2.51188643e-01 1.11427982e-11 1.07335677e-11 4.09230477e-13 1.19339192e-23 3.18207301e-24 1.07335677e-11
2.88403150e-01 1.04005520e-11 1.00171482e-11 3.83403738e-13 8.96671549e-22 2.48914065e-22 1.00171482e-11
3.31131121e-01 9.70249106e-12 9.34854667e-12 3.53944348e-13 3.69442976e-20 1.03906577e-20 9.34854667e-12
3.80189396e-01 9.05283610e-12 8.72457139e-12 3.28263816e-13 8.99680843e-19 2.57537316e-19 8.72457139e-12
4.36515832e-01 8.44783457e-12 8.14224377e-12 3.05576976e-13 1.38224796e-17 4.03305305e-18 8.14224377e-12
5.01187234e-01 7.88986348e-12 7.59878402e-12 2.90936053e-13 1.43410148e-16 4.24152381e-17 7.59878402e-12
5.75439937e-01 7.36426134e-12 7.09159786e-12 2.71634328e-13 1.02914549e-15 3.03508368e-16 7.09159786e-12
6.60693448e-01 6.87400345e-12 6.61826421e-12 2.50298350e-13 5.44089365e-15 1.59700320e-15 6.61826421e-12
7.58577575e-01 6.43314659e-12 6.17652353e-12 2.34246186e-13 2.23768692e-14 6.47245767e-15 6.17652353e-12
8.70963590e-01 6.04983999e-12 5.76426715e-12 2.12032231e-13 7.35406108e-14 2.03941036e-14 5.76426715e-12
1.00000000e+00 5.76162424e-12 5.37952711e-12 1.82467703e-13 1.99629429e-13 5.25246468e-14 5.37952711e-12
1.14815362e+00 5.63682564e-12 5.02046681e-12 1.52590592e-13 4.63768231e-13 1.12408820e-13 5.02046681e-12
1.31825674e+00 5.75706561e-12 4.68537225e-12 1.23884279e-13 9.47809082e-13 2.03684996e-13 4.68537225e-12
1.51356125e+00 6.19620740e-12 4.37264380e-12 9.97648453e-14 1.72379875e-12 3.24546366e-13 4.37264380e-12
1.73780083e+00 6.91959440e-12 4.08078863e-12 7.99848910e-14 2.75882087e-12 4.41733356e-13 4.08078863e-12
1.99526231e+00 7.80695298e-12 3.80841354e-12 6.21686815e-14 3.93637076e-12 5.21868542e-13 3.80841354e-12
2.29086765e+00 8.65231358e-12 3.55421832e-12 4.62648806e-14 5.05183039e-12 5.30603521e-13 3.55421832e-12
2.63026799e+00 9.31015499e-12 3.31698953e-12 3.31514341e-14 5.96001402e-12 4.79041533e-13 3.31698953e-12
3.01995172e+00 9.67415394e-12 3.09559474e-12 2.29282109e-14 6.55563098e-12 3.86093186e-13 3.09559474e-12
3.46736850e+00 9.68235032e-12 2.88897711e-12 1.52712513e-14 6.77810196e-12 2.79964170e-13 2.88897711e-12
3.98107171e+00 9.36803793e-12 2.69615031e-12 9.74319003e-15 6.66214443e-12 1.86068834e-13 2.69615031e-12
4.57088190e+00 8.78858114e-12 2.51619387e-12 5.99822073e-15 6.26638904e-12 1.15077601e-13 2.51619387e-12
5.24807460e+00 7.84819760e-12 2.08050667e-12 3.19933352e-15 5.76449160e-12 6.64050177e-14 2.08050667e-12
6.02559586e+00 6.59977621e-12 1.37457712e-12 1.28707799e-15 5.22391201e-12 3.62644244e-14 1.37457712e-12
6.70000000e+00 5.81033829e-12 9.99872685e-13 6.35097147e-16 4.80983050e-12 2.21260199e-14 9.99872685e-13
6.92422916e+00 5.58264136e-12 9.05846924e-13 5.07647719e-16 4.67628679e-12 1.88252198e-14 9.05846924e-13
7.15596261e+00 5.41448322e-12 8.20663132e-13 4.01276598e-16 4.59341881e-12 1.60531484e-14 8.20663132e-13
7.39545150e+00 5.35366765e-12 7.43489831e-13 3.09335840e-16 4.60986848e-12 1.37243793e-14 7.43489831e-13
7.64295536e+00 5.60787607e-12 6.73573732e-13 2.27164291e-16 4.93407518e-12 1.20950672e-14 6.73573732e-13
7.89874245e+00 6.30198643e-12 6.10232385e-13 1.53616343e-16 5.69160043e-12 1.09973914e-14 6.10232385e-13
8.16308998e+00 7.29339313e-12 5.52847515e-13 1.02085053e-16 6.74044353e-12 9.96931505e-15 5.52847515e-13
8.43628443e+00 8.55471499e-12 5.00858987e-13 6.29029164e-17 8.05379310e-12 8.86362768e-15 5.00858987e-13
8.71862190e+00 9.34705443e-12 4.53759343e-13 4.30724328e-17 8.89325202e-12 7.81854990e-15 4.53759343e-13
9.01040836e+00 1.00987993e-11 4.11088843e-13 3.04113685e-17 9.68768005e-12 7.01003010e-15 4.11088843e-13
9.31196005e+00 1.06283484e-11 3.72430980e-13 2.28306555e-17 1.02558946e-11 6.46438917e-15 3.72430980e-13
9.62360379e+00 1.04959202e-11 3.37408415e-13 1.90397692e-17 1.01584927e-11 5.99402861e-15 3.37408415e-13
9.94567731e+00 9.94208298e-12 3.05679292e-13 1.69688326e-17 9.63638672e-12 5.51187325e-15 3.05679292e-13
1.02785297e+01 9.22141372e-12 2.76933904e-13 1.57069676e-17 8.94446411e-12 5.04843747e-15 2.76933904e-13
1.06225216e+01 8.52541954e-12 2.50891667e-13 1.41931009e-17 8.27451368e-12 4.54704167e-15 2.50891667e-13
1.09780260e+01 7.75764249e-12 2.27298384e-13 1.30710341e-17 7.53033103e-12 3.97356731e-15 2.27298384e-13
1.13454280e+01 7.03499544e-12 2.05923759e-13 1.17222328e-17 6.82905995e-12 3.42562221e-15 2.05923759e-13
1.17251259e+01 6.42759503e-12 1.86559155e-13 1.05001385e-17 6.24102538e-12 2.95354762e-15 1.86559155e-13
1.21175312e+01 5.84858084e-12 1.69015555e-13 9.11875150e-18 5.67955617e-12 2.49099729e-15 1.69015555e-13
1.25230691e+01 5.31464867e-12 1.53121715e-13 7.85418074e-18 5.16151910e-12 2.06506904e-15 1.53121715e-13
1.29421791e+01 4.85773969e-12 1.38722496e-13 6.68631264e-18 4.71901051e-12 1.69562214e-15 1.38722496e-13
1.33753155e+01 4.44694014e-12 1.25677347e-13 5.64131720e-18 4.32125715e-12 1.38197384e-15 1.25677347e-13
1.38229477e+01 4.19666370e-12 1.13858934e-13 4.51044767e-18 4.08280026e-12 1.11395257e-15 1.13858934e-13
1.42855609e+01 4.06023797e-12 1.03151898e-13 3.49336628e-18 3.95708258e-12 9.17092067e-16 1.03151898e-13
1.47636563e+01 4.14025307e-12 9.34517274e-14 2.64048435e-18 4.04679870e-12 7.70841127e-16 9.34517274e-14
1.52577522e+01 4.27182356e-12 8.46637387e-14 2.01744007e-18 4.18715780e-12 6.57585743e-16 8.46637387e-14
1.57683840e+01 4.44431815e-12 7.67021526e-14 1.50232161e-18 4.36761450e-12 5.64092965e-16 7.67021526e-14
1.62961051e+01 4.62582076e-12 6.94892560e-14 1.13177139e-18 4.55633037e-12 4.81061999e-16 6.94892560e-14
1.68414875e+01 4.81888417e-12 6.29546439e-14 8.57902417e-19 4.75592867e-12 4.08243775e-16 6.29546439e-14
1.74051222e+01 4.94958632e-12 5.70345319e-14 6.57725932e-19 4.89255113e-12 3.43372197e-16 5.70345319e-14
1.79876201e+01 5.04064740e-12 5.16711337e-14 5.06329693e-19 4.98897576e-12 2.80233454e-16 5.16711337e-14
1.85896125e+01 5.02107527e-12 4.68120974e-14 3.90837924e-19 4.97426278e-12 2.22735540e-16 4.68120974e-14
1.92117518e+01 4.94154063e-12 4.24099939e-14 2.98039806e-19 4.89913034e-12 1.68986004e-16 4.24099939e-14
1.98547123e+01 4.80103508e-12 3.84218542e-14 2.16687820e-19 4.76261301e-12 1.21529276e-16 3.84218542e-14
2.05191907e+01 4.62938339e-12 3.48087501e-14 1.39018830e-19 4.59457450e-12 7.68243254e-17 3.48087501e-14
2.12059073e+01 4.45792852e-12 3.15354141e-14 7.82652041e-20 4.42639303e-12 4.25683043e-17 3.15354141e-14
2.19156062e+01 4.30744125e-12 2.85698952e-14 3.11102848e-20 4.27887133e-12 1.91162269e-17 2.85698952e-14
2.26490567e+01 4.16440031e-12 2.58832470e-14 7.01364207e-21 4.13851706e-12 6.30892206e-18 2.58832470e-14
2.34070535e+01 4.01902255e-12 2.34492452e-14 3.37075692e-22 3.99557330e-12 1.17071350e-18 2.34492452e-14
2.41904183e+01 3.88091186e-12 2.12441313e-14 0.00000000e+00 3.85966773e-12 4.31162327e-20 2.12441313e-14
2.50000000e+01 3.74579272e-12 1.92463813e-14 0.00000000e+00 3.72654634e-12 0.00000000e+00 1.92463813e-14
2.75422870e+01 3.33907272e-12 1.43935895e-14 0.00000000e+00 3.32467913e-12 0.00000000e+00 1.43935895e-14
3.16227766e+01 2.73666079e-12 9.50975027e-15 0.00000000e+00 2.72715104e-12 0.00000000e+00 9.50975027e-15
3.63078055e+01 2.10973289e-12 6.28302969e-15 0.00000000e+00 2.10344986e-12 0.00000000e+00 6.28302969e-15
4.16869383e+01 1.51133984e-12 4.15115655e-15 0.00000000e+00 1.50718868e-12 0.00000000e+00 4.15115655e-15
4.78630092e+01 1.00707739e-12 2.74264194e-15 0.00000000e+00 1.00433475e-12 0.00000000e+00 2.74264194e-15
5.49540874e+01 6.33484272e-13 1.81204556e-15 0.00000000e+00 6.31672226e-13 0.00000000e+00 1.81204556e-15
6.30957344e+01 3.81221657e-13 1.19720663e-15 0.00000000e+00 3.80024450e-13 0.00000000e+00 1.19720663e-15
7.24435960e+01 2.21557903e-13 7.90986575e-16 0.00000000e+00 2.20766916e-13 0.00000000e+00 7.90986575e-16
8.31763771e+01 1.25598970e-13 5.22599647e-16 0.00000000e+00 1.25076370e-13 0.00000000e+00 5.22599647e-16
9.54992586e+01 6.99705819e-14 3.45278163e-16 0.00000000e+00 6.96253037e-14 0.00000000e+00 3.45278163e-16
1.09647820e+02 3.84773186e-14 2.28123020e-16 0.00000000e+00 3.82491956e-14 0.00000000e+00 2.28123020e-16
1.25892541e+02 2.11932960e-14 1.50719385e-16 0.00000000e+00 2.10425766e-14 0.00000000e+00 1.50719385e-16
1.44543977e+02 1.16242399e-14 9.95793099e-17 0.00000000e+00 1.15246606e-14 0.00000000e+00 9.95793099e-17
1.65958691e+02 6.07591646e-15 6.57913976e-17 0.00000000e+00 6.01012507e-15 0.00000000e+00 6.57913976e-17
1.90546072e+02 3.18320513e-15 4.34679453e-17 0.00000000e+00 3.13973719e-15 0.00000000e+00 4.34679453e-17
2.18776162e+02 1.66723686e-15 2.87189867e-17 0.00000000e+00 1.63851787e-15 0.00000000e+00 2.87189867e-17
2.51188643e+02 8.71401202e-16 1.89744463e-17 0.00000000e+00 8.52426756e-16 0.00000000e+00 1.89744463e-17
2.88403150e+02 4.54026496e-16 1.25362924e-17 0.00000000e+00 4.41490204e-16 0.00000000e+00 1.25362924e-17
3.31131121e+02 2.36339335e-16 8.28264623e-18 0.00000000e+00 2.28056689e-16 0.00000000e+00 8.28264623e-18
3.80189396e+02 1.22831529e-16 5.47229010e-18 0.00000000e+00 1.17359239e-16 0.00000000e+00 5.47229010e-18
4.36515832e+02 6.38603845e-17 3.61550621e-18 0.00000000e+00 6.02448783e-17 0.00000000e+00 3.61550621e-18
5.01187234e+02 3.32296686e-17 2.38874127e-18 0.00000000e+00 3.08409273e-17 0.00000000e+00 2.38874127e-18
5.75439937e+02 1.73306855e-17 1.57822570e-18 0.00000000e+00 1.57524598e-17 0.00000000e+00 1.57822570e-18
6.60693448e+02 9.07262783e-18 1.04272338e-18 0.00000000e+00 8.02990445e-18 0.00000000e+00 1.04272338e-18
7.58577575e+02 4.77510818e-18 6.88920507e-19 0.00000000e+00 4.08618768e-18 0.00000000e+00 6.88920507e-19
8.70963590e+02 2.53084159e-18 4.55165265e-19 0.00000000e+00 2.07567633e-18 0.00000000e+00 4.55165265e-19
1.00000000e+03 1.05263469e-18 0.00000000e+00 0.00000000e+00 1.05263469e-18 0.00000000e+00 0.00000000e+00
