# column 1: lambda (micron)
# column 2: total flux; lambda*F_lambda (W/m2)
# column 3: direct stellar flux; lambda*F_lambda (W/m2)
# column 4: scattered stellar flux; lambda*F_lambda (W/m2)
# column 5: total dust emission flux; lambda*F_lambda (W/m2)
# column 6: dust emission scattered flux; lambda*F_lambda (W/m2)
# column 7: transparent flux; lambda*F_lambda (W/m2)
1.00000000e-03 5.25608575e-13 5.25608067e-13 5.07269888e-19 0.00000000e+00 0.00000000e+00 5.25636674e-13
1.14815362e-03 6.20375981e-13 6.20375205e-13 7.76401719e-19 0.00000000e+00 0.00000000e+00 6.20419813e-13
1.31825674e-03 7.32228594e-13 7.32227366e-13 1.22844702e-18 0.00000000e+00 0.00000000e+00 7.32294308e-13
1.51356125e-03 8.64250735e-13 8.64248930e-13 1.80485336e-18 0.00000000e+00 0.00000000e+00 8.64342083e-13
1.73780083e-03 1.02009275e-12 1.02008971e-12 3.03595433e-18 0.00000000e+00 0.00000000e+00 1.02020080e-12
1.99526231e-03 1.20399584e-12 1.20399022e-12 5.62617540e-18 0.00000000e+00 0.00000000e+00 1.20416405e-12
2.29086765e-03 1.42109065e-12 1.42108210e-12 8.55015847e-18 0.00000000e+00 0.00000000e+00 1.42129968e-12
2.63026799e-03 1.67729899e-12 1.67728159e-12 1.74019625e-17 0.00000000e+00 0.00000000e+00 1.67758934e-12
3.01995172e-03 1.97967362e-12 1.97964407e-12 2.95440484e-17 0.00000000e+00 0.00000000e+00 1.98009332e-12
3.46736850e-03 2.33656779e-12 2.33652002e-12 4.77664820e-17 0.00000000e+00 0.00000000e+00 2.33714500e-12
3.98107171e-03 2.75781887e-12 2.75773610e-12 8.27654298e-17 0.00000000e+00 0.00000000e+00 2.75858048e-12
4.57088190e-03 3.25552515e-12 3.25534463e-12 1.80525207e-16 0.00000000e+00 0.00000000e+00 3.25600946e-12
5.24807460e-03 3.84241937e-12 3.84213291e-12 2.86454542e-16 0.00000000e+00 0.00000000e+00 3.84313516e-12
6.02559586e-03 4.53525390e-12 4.53470541e-12 5.48493950e-16 0.00000000e+00 0.00000000e+00 4.53613173e-12
6.91830971e-03 5.35309757e-12 5.35214693e-12 9.50638059e-16 0.00000000e+00 0.00000000e+00 5.35408989e-12
7.94328235e-03 6.31865334e-12 6.31698427e-12 1.66907357e-15 7.72794457e-304 4.15998612e-306 6.31954278e-12
9.12010839e-03 7.45823256e-12 7.45573569e-12 2.49686947e-15 3.35187520e-265 7.20043545e-267 7.45908676e-12
1.04712855e-02 8.33011075e-12 8.32679884e-12 3.31191163e-15 1.37041990e-231 1.62633209e-233 8.33078048e-12
1.20226443e-02 8.33176895e-12 8.32656391e-12 5.20503544e-15 2.10442183e-202 2.63163675e-204 8.33078048e-12
1.38038426e-02 8.33503710e-12 8.32628527e-12 8.75183014e-15 5.65620070e-177 9.76488640e-179 8.33078048e-12
1.58489319e-02 8.33691878e-12 8.32594285e-12 1.09759279e-14 7.59915250e-155 2.06725540e-156 8.33078048e-12
1.81970086e-02 8.34112148e-12 8.32562705e-12 1.54944291e-14 1.33419791e-135 3.54011267e-137 8.33078048e-12
2.08929613e-02 8.34719820e-12 8.32536455e-12 2.18336509e-14 6.90099395e-119 2.11590002e-120 8.33078048e-12
2.39883292e-02 8.35067470e-12 8.32502446e-12 2.56502362e-14 2.39536246e-104 7.83900158e-106 8.33078048e-12
2.75422870e-02 8.35953539e-12 8.32462889e-12 3.49064993e-14 1.06488639e-91 4.07374972e-93 8.33078048e-12
3.16227766e-02 8.36680755e-12 8.32424117e-12 4.25663790e-14 1.03002565e-80 4.32255456e-82 8.33078048e-12
3.63078055e-02 8.37156930e-12 8.32393707e-12 4.76322322e-14 3.54518649e-71 1.57705389e-72 8.33078048e-12
4.16869383e-02 8.38752532e-12 8.32367406e-12 6.38512615e-14 6.72062572e-63 3.51127948e-64 8.33078048e-12
4.78630092e-02 8.40589779e-12 8.32294911e-12 8.29486811e-14 1.00919352e-55 6.06726300e-57 8.33078048e-12
5.49540874e-02 8.41667989e-12 8.32194103e-12 9.47388591e-14 1.66160715e-49 1.08351208e-50 8.33078048e-12
6.30957344e-02 8.42192485e-12 8.31941382e-12 1.02511032e-13 5.27611429e-44 3.70264679e-45 8.33078048e-12
7.24435960e-02 8.40874526e-12 8.31642130e-12 9.23239517e-14 3.00009814e-39 2.02069100e-40 8.33078048e-12
8.31763771e-02 8.40757557e-12 8.31668755e-12 9.08880185e-14 3.06203793e-35 1.98945610e-36 8.33078048e-12
9.54992586e-02 8.41569405e-12 8.31746849e-12 9.82255660e-14 8.61340483e-32 5.56924942e-33 8.33078048e-12
1.09647820e-01 8.04368094e-12 7.94527409e-12 9.84068566e-14 7.38288764e-29 5.16715383e-30 7.95583672e-12
1.25892541e-01 7.50813461e-12 7.41670355e-12 9.14310612e-14 2.40954049e-26 1.66545713e-27 7.42481883e-12
1.44543977e-01 7.00365264e-12 6.92296610e-12 8.06865395e-14 3.29746983e-24 2.19281932e-25 6.92924411e-12
1.65958691e-01 6.54289637e-12 6.46162261e-12 8.12737675e-14 1.66973266e-22 1.14499811e-23 6.46674687e-12
1.90546072e-01 6.11788999e-12 6.03001753e-12 8.78724581e-14 3.50400702e-21 2.76831467e-22 6.03511933e-12
2.18776162e-01 5.70904841e-12 5.62671636e-12 8.23320118e-14 4.11813291e-20 3.37881840e-21 5.63230107e-12
2.51188643e-01 5.34230131e-12 5.25220058e-12 9.01002346e-14 5.01338445e-19 4.69869227e-20 5.25636919e-12
2.88403150e-01 4.98436211e-12 4.90229899e-12 8.20589424e-14 4.17833667e-18 3.71030450e-19 4.90552916e-12
3.31131121e-01 4.64996127e-12 4.57547821e-12 7.44590537e-14 2.40035791e-17 2.08249292e-18 4.57810618e-12
3.80189396e-01 4.33697516e-12 4.27038348e-12 6.64914983e-14 1.00178025e-16 8.40153718e-18 4.27253728e-12
4.36515832e-01 4.04747851e-12 3.98561437e-12 6.15470080e-14 3.17136351e-16 2.56949566e-17 3.98736380e-12
5.01187234e-01 3.77633062e-12 3.71982266e-12 5.57133627e-14 7.94593898e-16 6.30832211e-17 3.72122441e-12
5.75439937e-01 3.52343919e-12 3.47173710e-12 5.00499876e-14 1.65210710e-15 1.28256177e-16 3.47284869e-12
6.60693448e-01 3.28708484e-12 3.24017711e-12 4.39024334e-14 3.00529587e-15 2.34630563e-16 3.24105097e-12
7.58577575e-01 3.07155524e-12 3.02404613e-12 4.23362090e-14 5.17290895e-15 4.34490351e-16 3.02472476e-12
8.70963590e-01 2.86697970e-12 2.82232205e-12 3.56516944e-14 9.00595911e-15 8.48220845e-16 2.82283739e-12
1.00000000e+00 2.68240242e-12 2.63404011e-12 3.19145950e-14 1.64477125e-14 1.74135032e-15 2.63442513e-12
1.14815362e+00 2.51690745e-12 2.45830604e-12 2.67077716e-14 3.18936399e-14 3.51229132e-15 2.45858859e-12
1.31825674e+00 2.37898767e-12 2.29428463e-12 2.21267966e-14 6.25762419e-14 6.71398403e-15 2.29448837e-12
1.51356125e+00 2.27688128e-12 2.14119571e-12 1.77597324e-14 1.17925845e-13 1.15142386e-14 2.14134114e-12
1.73780083e+00 2.21703100e-12 1.99831370e-12 1.41028038e-14 2.04614494e-13 1.73721671e-14 1.99841583e-12
1.99526231e+00 2.19917274e-12 1.86495958e-12 1.07163657e-14 3.23496799e-13 2.27159723e-14 1.86503017e-12
2.29086765e+00 2.21369855e-12 1.74049879e-12 8.00536088e-15 4.65194402e-13 2.55399963e-14 1.74054743e-12
2.63026799e+00 2.24219187e-12 1.62433954e-12 5.66889530e-15 6.12183430e-13 2.56425557e-14 1.62437337e-12
3.01995172e+00 2.26823393e-12 1.51592960e-12 3.95356529e-15 7.48350759e-13 2.29051171e-14 1.51595343e-12
3.46736850e+00 2.27496494e-12 1.41475300e-12 2.65043791e-15 8.57561501e-13 1.88446207e-14 1.41477006e-12
3.98107171e+00 2.24536445e-12 1.32032787e-12 1.73387431e-15 9.23302696e-13 1.41884754e-14 1.32034025e-12
4.57088190e+00 2.18118782e-12 1.23220412e-12 1.09972137e-15 9.47883978e-13 9.83168621e-15 1.23221321e-12
5.24807460e+00 1.95728994e-12 1.01884542e-12 5.84652639e-16 9.37859866e-13 6.40014915e-15 1.01885146e-12
6.02559586e+00 1.57495924e-12 6.73145169e-13 2.45328718e-16 9.01568746e-13 3.88847698e-15 6.73148485e-13
6.70000000e+00 1.35017509e-12 4.89648661e-13 1.23542476e-16 8.60402886e-13 2.53379387e-15 4.89650796e-13
6.92422916e+00 1.28754085e-12 4.43603279e-13 9.80995924e-17 8.43839473e-13 2.16741142e-15 4.43605145e-13
7.15596261e+00 1.23812180e-12 4.01887861e-13 7.74614315e-17 8.36156478e-13 1.86524701e-15 4.01889522e-13
7.39545150e+00 1.20664472e-12 3.64095202e-13 5.78063261e-17 8.42491712e-13 1.59870574e-15 3.64096743e-13
7.64295536e+00 1.22689039e-12 3.29856319e-13 4.22984225e-17 8.96991767e-13 1.36002266e-15 3.29857910e-13
7.89874245e+00 1.32627274e-12 2.98836958e-13 2.75955137e-17 1.02740818e-12 1.14138374e-15 2.98838820e-13
8.16308998e+00 1.48328549e-12 2.70734417e-13 1.71320572e-17 1.21253394e-12 9.62740768e-16 2.70736695e-13
8.43628443e+00 1.71032628e-12 2.45274362e-13 9.78045108e-18 1.46504214e-12 7.55369712e-16 2.45277229e-13
8.71862190e+00 1.87661634e-12 2.22208723e-13 6.08117808e-18 1.65440154e-12 5.82993353e-16 2.22211915e-13
9.01040836e+00 2.04409767e-12 2.01312107e-13 3.48815283e-18 1.84278207e-12 3.97991310e-16 2.01315610e-13
9.31196005e+00 2.17265849e-12 1.82380666e-13 0.00000000e+00 1.99027782e-12 0.00000000e+00 1.82384346e-13
9.62360379e+00 2.15731790e-12 1.65229913e-13 0.00000000e+00 1.99208799e-12 0.00000000e+00 1.65233336e-13
9.94567731e+00 2.03332284e-12 1.49692258e-13 0.00000000e+00 1.88363058e-12 0.00000000e+00 1.49695167e-13
1.02785297e+01 1.87748678e-12 1.35615789e-13 0.00000000e+00 1.74187099e-12 0.00000000e+00 1.35618173e-13
1.06225216e+01 1.72809362e-12 1.22863014e-13 0.00000000e+00 1.60523061e-12 0.00000000e+00 1.22864947e-13
1.09780260e+01 1.56084334e-12 1.11309495e-13 0.00000000e+00 1.44953384e-12 0.00000000e+00 1.11311006e-13
1.13454280e+01 1.41378737e-12 1.00842386e-13 0.00000000e+00 1.31294499e-12 0.00000000e+00 1.00843571e-13
1.17251259e+01 1.28797981e-12 9.13595342e-14 0.00000000e+00 1.19662027e-12 0.00000000e+00 9.13604705e-14
1.21175312e+01 1.17257300e-12 8.27684032e-14 0.00000000e+00 1.08980459e-12 0.00000000e+00 8.27691389e-14
1.25230691e+01 1.06448718e-12 7.49851402e-14 0.00000000e+00 9.89502040e-13 0.00000000e+00 7.49857166e-14
1.29421791e+01 9.74665876e-13 6.79337750e-14 0.00000000e+00 9.06732101e-13 0.00000000e+00 6.79342298e-14
1.33753155e+01 8.94485233e-13 6.15454874e-14 0.00000000e+00 8.32939746e-13 0.00000000e+00 6.15458488e-14
1.38229477e+01 8.41948261e-13 5.57579162e-14 0.00000000e+00 7.86190345e-13 0.00000000e+00 5.57582167e-14
1.42855609e+01 8.10251765e-13 5.05145792e-14 0.00000000e+00 7.59737186e-13 0.00000000e+00 5.05148403e-14
1.47636563e+01 8.19970448e-13 4.57642914e-14 0.00000000e+00 7.74206156e-13 0.00000000e+00 4.57645392e-14
1.52577522e+01 8.39072030e-13 4.14607062e-14 0.00000000e+00 7.97611324e-13 0.00000000e+00 4.14609457e-14
1.57683840e+01 8.64944692e-13 3.75618180e-14 0.00000000e+00 8.27382874e-13 0.00000000e+00 3.75620523e-14
1.62961051e+01 8.91645442e-13 3.40295730e-14 0.00000000e+00 8.57615869e-13 0.00000000e+00 3.40298020e-14
1.68414875e+01 9.18073446e-13 3.08294932e-14 0.00000000e+00 8.87243952e-13 0.00000000e+00 3.08297166e-14
1.74051222e+01 9.34317309e-13 2.79303478e-14 0.00000000e+00 9.06386962e-13 0.00000000e+00 2.79305599e-14
1.79876201e+01 9.38789755e-13 2.53038353e-14 0.00000000e+00 9.13485920e-13 0.00000000e+00 2.53040334e-14
1.85896125e+01 9.28754907e-13 2.29243202e-14 0.00000000e+00 9.05830587e-13 0.00000000e+00 2.29244994e-14
1.92117518e+01 9.06524532e-13 2.07685740e-14 0.00000000e+00 8.85755958e-13 0.00000000e+00 2.07687314e-14
1.98547123e+01 8.72636461e-13 1.88155514e-14 0.00000000e+00 8.53820910e-13 0.00000000e+00 1.88156870e-14
2.05191907e+01 8.37253021e-13 1.70461869e-14 0.00000000e+00 8.20206835e-13 0.00000000e+00 1.70463024e-14
2.12059073e+01 8.01229559e-13 1.54432083e-14 0.00000000e+00 7.85786350e-13 0.00000000e+00 1.54433068e-14
2.19156062e+01 7.65704839e-13 1.39909688e-14 0.00000000e+00 7.51713870e-13 0.00000000e+00 1.39910532e-14
2.26490567e+01 7.36194629e-13 1.26752939e-14 0.00000000e+00 7.23519336e-13 0.00000000e+00 1.26753663e-14
2.34070535e+01 7.05212531e-13 1.14833413e-14 0.00000000e+00 6.93729189e-13 0.00000000e+00 1.14834036e-14
2.41904183e+01 6.75165173e-13 1.04034767e-14 0.00000000e+00 6.64761696e-13 0.00000000e+00 1.04035303e-14
2.50000000e+01 6.46104925e-13 9.42515961e-15 0.00000000e+00 6.36679765e-13 0.00000000e+00 9.42520591e-15
2.75422870e+01 5.62561859e-13 7.04869976e-15 0.00000000e+00 5.55513160e-13 0.00000000e+00 7.04872996e-15
3.16227766e+01 4.48097699e-13 4.65703311e-15 0.00000000e+00 4.43440666e-13 0.00000000e+00 4.65704970e-15
3.63078055e+01 3.37100111e-13 3.07687316e-15 0.00000000e+00 3.34023238e-13 0.00000000e+00 3.07688223e-15
4.16869383e+01 2.36774310e-13 2.03287110e-15 0.00000000e+00 2.34741439e-13 0.00000000e+00 2.03287593e-15
4.78630092e+01 1.55165746e-13 1.34310532e-15 0.00000000e+00 1.53822641e-13 0.00000000e+00 1.34310781e-15
5.49540874e+01 9.63626598e-14 8.87381272e-16 0.00000000e+00 9.54752785e-14 0.00000000e+00 8.87382527e-16
6.30957344e+01 5.72942941e-14 5.86287196e-16 0.00000000e+00 5.67080069e-14 0.00000000e+00 5.86287821e-16
7.24435960e+01 3.29539104e-14 3.87356213e-16 0.00000000e+00 3.25665542e-14 0.00000000e+00 3.87356522e-16
8.31763771e+01 1.85157910e-14 2.55923764e-16 0.00000000e+00 1.82598672e-14 0.00000000e+00 2.55923916e-16
9.54992586e+01 1.02333732e-14 1.69087179e-16 0.00000000e+00 1.00642860e-14 0.00000000e+00 1.69087255e-16
1.09647820e+02 5.59139589e-15 1.11714804e-16 0.00000000e+00 5.47968109e-15 0.00000000e+00 1.11714841e-16
1.25892541e+02 3.06373370e-15 7.38092448e-17 0.00000000e+00 2.98992445e-15 0.00000000e+00 7.38092637e-17
1.44543977e+02 1.67425233e-15 4.87652873e-17 0.00000000e+00 1.62548704e-15 0.00000000e+00 4.87652969e-17
1.65958691e+02 8.74639054e-16 3.22189075e-17 0.00000000e+00 8.42420147e-16 0.00000000e+00 3.22189122e-17
1.90546072e+02 4.58916058e-16 2.12868218e-17 0.00000000e+00 4.37629236e-16 0.00000000e+00 2.12868242e-17
2.18776162e+02 2.41316124e-16 1.40640641e-17 0.00000000e+00 2.27252060e-16 0.00000000e+00 1.40640653e-17
2.51188643e+02 1.27001321e-16 9.29203519e-18 0.00000000e+00 1.17709286e-16 0.00000000e+00 9.29203577e-18
2.88403150e+02 6.68694051e-17 6.13918686e-18 0.00000000e+00 6.07302183e-17 0.00000000e+00 6.13918715e-18
3.31131121e+02 3.53214744e-17 4.05612058e-18 0.00000000e+00 3.12653538e-17 0.00000000e+00 4.05612073e-18
3.80189396e+02 1.87218465e-17 2.67985232e-18 0.00000000e+00 1.60419942e-17 0.00000000e+00 2.67985239e-18
4.36515832e+02 9.98431977e-18 1.77056088e-18 0.00000000e+00 8.21375889e-18 0.00000000e+00 1.77056092e-18
5.01187234e+02 5.36520416e-18 1.16979798e-18 0.00000000e+00 4.19540619e-18 0.00000000e+00 1.16979800e-18
5.75439937e+02 2.91155586e-18 7.72877862e-19 0.00000000e+00 2.13867800e-18 0.00000000e+00 7.72877871e-19
6.60693448e+02 1.59897566e-18 5.10635341e-19 0.00000000e+00 1.08834032e-18 0.00000000e+00 5.10635346e-19
7.58577575e+02 8.90374614e-19 3.37373425e-19 0.00000000e+00 5.53001190e-19 0.00000000e+00 3.37373427e-19
8.70963590e+02 5.03445780e-19 2.22900412e-19 0.00000000e+00 2.80545368e-19 0.00000000e+00 2.22900413e-19
1.00000000e+03 1.42111917e-19 0.00000000e+00 0.00000000e+00 1.42111917e-19 0.00000000e+00 0.00000000e+00
