# column 1: lambda (micron)
# column 2: total flux; lambda*F_lambda (W/m2)
# column 3: direct stellar flux; lambda*F_lambda (W/m2)
# column 4: scattered stellar flux; lambda*F_lambda (W/m2)
# column 5: total dust emission flux; lambda*F_lambda (W/m2)
# column 6: dust emission scattered flux; lambda*F_lambda (W/m2)
# column 7: transparent flux; lambda*F_lambda (W/m2)
1.00000000e-03 1.04634986e-12 1.04634360e-12 6.25918038e-18 0.00000000e+00 0.00000000e+00 1.04634360e-12
1.14815362e-03 1.23503067e-12 1.23502095e-12 9.72038355e-18 0.00000000e+00 0.00000000e+00 1.23502095e-12
1.31825674e-03 1.45773518e-12 1.45772071e-12 1.44728637e-17 0.00000000e+00 0.00000000e+00 1.45772071e-12
1.51356125e-03 1.72059933e-12 1.72057784e-12 2.14910744e-17 0.00000000e+00 0.00000000e+00 1.72057784e-12
1.73780083e-03 2.03087167e-12 2.03083353e-12 3.81478818e-17 0.00000000e+00 0.00000000e+00 2.03083353e-12
1.99526231e-03 2.39710128e-12 2.39703472e-12 6.65578168e-17 0.00000000e+00 0.00000000e+00 2.39703472e-12
2.29086765e-03 2.82937310e-12 2.82926954e-12 1.03560814e-16 0.00000000e+00 0.00000000e+00 2.82926954e-12
2.63026799e-03 3.33964890e-12 3.33944522e-12 2.03679294e-16 0.00000000e+00 0.00000000e+00 3.33944522e-12
3.01995172e-03 3.94194193e-12 3.94161611e-12 3.25824510e-16 0.00000000e+00 0.00000000e+00 3.94161611e-12
3.46736850e-03 4.65291062e-12 4.65237083e-12 5.39790159e-16 0.00000000e+00 0.00000000e+00 4.65237083e-12
3.98107171e-03 5.49213992e-12 5.49128930e-12 8.50620461e-16 0.00000000e+00 0.00000000e+00 5.49128930e-12
4.57088190e-03 6.48348793e-12 6.48148207e-12 2.00585813e-15 0.00000000e+00 0.00000000e+00 6.48148207e-12
5.24807460e-03 7.65374011e-12 7.65022704e-12 3.51306585e-15 0.00000000e+00 0.00000000e+00 7.65022704e-12
6.02559586e-03 9.03600630e-12 9.02972084e-12 6.28545803e-15 0.00000000e+00 0.00000000e+00 9.02972084e-12
6.91830971e-03 1.06674147e-11 1.06579658e-11 9.44889370e-15 0.00000000e+00 0.00000000e+00 1.06579658e-11
7.94328235e-03 1.25955097e-11 1.25798170e-11 1.56926553e-14 0.00000000e+00 0.00000000e+00 1.25798170e-11
9.12010839e-03 1.48754026e-11 1.48482176e-11 2.71849558e-14 0.00000000e+00 0.00000000e+00 1.48482176e-11
1.04712855e-02 1.66523754e-11 1.65834298e-11 6.89456125e-14 0.00000000e+00 0.00000000e+00 1.65834298e-11
1.20226443e-02 1.66497145e-11 1.65834298e-11 6.62847486e-14 1.20774507e-311 2.25878634e-313 1.65834298e-11
1.38038426e-02 1.66731019e-11 1.65834298e-11 8.96720902e-14 2.40913440e-272 7.62746525e-274 1.65834298e-11
1.58489319e-02 1.67168408e-11 1.65834298e-11 1.33411021e-13 3.84167196e-238 1.32981301e-239 1.65834298e-11
1.81970086e-02 1.67507584e-11 1.65834298e-11 1.67328625e-13 2.24065930e-208 8.73392267e-210 1.65834298e-11
2.08929613e-02 1.68024649e-11 1.65834298e-11 2.19035091e-13 1.69251577e-182 8.25706370e-184 1.65834298e-11
2.39883292e-02 1.68703780e-11 1.65834298e-11 2.86948174e-13 5.65093413e-160 3.33152776e-161 1.65834298e-11
2.75422870e-02 1.69539549e-11 1.65834298e-11 3.70525161e-13 2.24611518e-140 1.51928220e-141 1.65834298e-11
3.16227766e-02 1.70379642e-11 1.65834298e-11 4.54534376e-13 2.46952860e-123 1.89312876e-124 1.65834298e-11
3.63078055e-02 1.70810770e-11 1.65834298e-11 4.97647215e-13 1.59971334e-108 1.35115890e-109 1.65834298e-11
4.16869383e-02 1.72403962e-11 1.65834298e-11 6.56966370e-13 1.19745652e-95 1.22493625e-96 1.65834298e-11
4.78630092e-02 1.73894713e-11 1.65834298e-11 8.06041547e-13 1.80542232e-84 2.07881655e-85 1.65834298e-11
5.49540874e-02 1.75044656e-11 1.65834298e-11 9.21035811e-13 9.09338670e-75 1.13854728e-75 1.65834298e-11
6.30957344e-02 1.75308518e-11 1.65834298e-11 9.47422027e-13 3.13628601e-66 4.13635717e-67 1.65834298e-11
7.24435960e-02 1.74194841e-11 1.65834298e-11 8.36054310e-13 7.86659372e-59 9.47984777e-60 1.65834298e-11
8.31763771e-02 1.73995647e-11 1.65834298e-11 8.16134929e-13 1.72160609e-52 2.08469879e-53 1.65834298e-11
9.54992586e-02 1.74115236e-11 1.65834298e-11 8.28093859e-13 5.95879510e-47 7.96466435e-48 1.65834298e-11
1.09647820e-01 1.67112851e-11 1.58370587e-11 8.74226421e-13 4.23645508e-42 6.68233767e-43 1.58370587e-11
1.25892541e-01 1.56403305e-11 1.47800032e-11 8.60327368e-13 8.25893531e-38 1.45450325e-38 1.47800032e-11
1.44543977e-01 1.45886916e-11 1.37935015e-11 7.95190079e-13 4.78884162e-34 8.86865864e-35 1.37935015e-11
1.65958691e-01 1.36757367e-11 1.28728446e-11 8.02892051e-13 7.33065426e-31 1.54816491e-31 1.28728446e-11
1.90546072e-01 1.28482122e-11 1.20136376e-11 8.34574647e-13 3.22425841e-28 8.02434407e-29 1.20136376e-11
2.18776162e-01 1.19555774e-11 1.12117790e-11 7.43798423e-13 5.59955378e-26 1.47969521e-26 1.12117790e-11
2.51188643e-01 1.12893458e-11 1.04634409e-11 8.25904908e-13 8.89574399e-24 2.88428441e-24 1.04634409e-11
2.88403150e-01 1.05530562e-11 9.76505125e-12 7.88004910e-13 7.24512013e-22 2.46275668e-22 9.76505125e-12
3.31131121e-01 9.83634821e-12 9.11327608e-12 7.23072097e-13 3.19085335e-20 1.10221333e-20 9.11327608e-12
3.80189396e-01 9.17812224e-12 8.50500410e-12 6.73117315e-13 8.26355447e-19 2.87762381e-19 8.50500410e-12
4.36515832e-01 8.55015885e-12 7.93733165e-12 6.12813895e-13 1.33018208e-17 4.64767711e-18 7.93733165e-12
5.01187234e-01 7.97535088e-12 7.40754890e-12 5.67659356e-13 1.42626567e-16 4.92829711e-17 7.40754890e-12
5.75439937e-01 7.42715439e-12 6.91312687e-12 5.12970721e-13 1.05680011e-15 3.59826801e-16 6.91312687e-12
6.60693448e-01 6.92016877e-12 6.45170538e-12 4.62725354e-13 5.73803325e-15 1.91552269e-15 6.45170538e-12
7.58577575e-01 6.45920461e-12 6.02108180e-12 4.14253754e-13 2.38690622e-14 7.67002026e-15 6.02108180e-12
8.70963590e-01 6.06316113e-12 5.61920048e-12 3.64018199e-13 7.99424498e-14 2.45446718e-14 5.61920048e-12
1.00000000e+00 5.77414328e-12 5.24414302e-12 3.09006321e-13 2.20993940e-13 6.30792757e-14 5.24414302e-12
1.14815362e+00 5.67317848e-12 4.89411902e-12 2.54348788e-13 5.24710668e-13 1.36114249e-13 4.89411902e-12
1.31825674e+00 5.88090367e-12 4.56745763e-12 2.05841602e-13 1.10760444e-12 2.52150238e-13 4.56745763e-12
1.51356125e+00 6.49786998e-12 4.26259947e-12 1.63256103e-13 2.07201440e-12 4.09897157e-13 4.26259947e-12
1.73780083e+00 7.52390443e-12 3.97808929e-12 1.29085909e-13 3.41672923e-12 5.71759896e-13 3.97808929e-12
1.99526231e+00 8.87785973e-12 3.71256894e-12 9.78568939e-14 5.06743390e-12 6.83550495e-13 3.71256894e-12
2.29086765e+00 1.02852091e-11 3.46477093e-12 7.10175312e-14 6.74942059e-12 7.04348153e-13 3.46477093e-12
2.63026799e+00 1.15376934e-11 3.23351237e-12 4.90381551e-14 8.25514290e-12 6.37907020e-13 3.23351237e-12
3.01995172e+00 1.24530318e-11 3.01768933e-12 3.24916946e-14 9.40285079e-12 5.16037474e-13 3.01768933e-12
3.46736850e+00 1.29412072e-11 2.81627154e-12 2.09499066e-14 1.01039857e-11 3.80543310e-13 2.81627154e-12
3.98107171e+00 1.29600845e-11 2.62829753e-12 1.29934260e-14 1.03187936e-11 2.56449287e-13 2.62829753e-12
4.57088190e+00 1.26391784e-11 2.45286997e-12 7.81733274e-15 1.01784911e-11 1.60053962e-13 2.45286997e-12
5.24807460e+00 1.17686202e-11 2.02814751e-12 4.07166105e-15 9.73640103e-12 9.57739049e-14 2.02814751e-12
6.02559586e+00 1.05454312e-11 1.33998377e-12 1.64199992e-15 9.20380545e-12 5.41211000e-14 1.33998377e-12
6.70000000e+00 9.69931689e-12 9.74709347e-13 7.83397288e-16 8.72382415e-12 3.35347082e-14 9.74709347e-13
6.92422916e+00 9.43528593e-12 8.83049889e-13 6.23901727e-16 8.55161214e-12 2.87791196e-14 8.83049889e-13
7.15596261e+00 9.27338919e-12 8.00009879e-13 4.87101732e-16 8.47289221e-12 2.46153753e-14 8.00009879e-13
7.39545150e+00 9.27896355e-12 7.24778763e-13 3.68498998e-16 8.55381629e-12 2.09599174e-14 7.24778763e-13
7.64295536e+00 9.77212404e-12 6.56622211e-13 2.70245333e-16 9.11523158e-12 1.83680262e-14 6.56622211e-13
7.89874245e+00 1.09868075e-11 5.94874946e-13 1.81726078e-16 1.03917509e-11 1.61653594e-14 5.94874946e-13
8.16308998e+00 1.26983338e-11 5.38934254e-13 1.14886823e-16 1.21592847e-11 1.40893676e-14 5.38934254e-13
8.43628443e+00 1.49144472e-11 4.88254098e-13 6.54230992e-17 1.44261276e-11 1.15676609e-14 4.88254098e-13
8.71862190e+00 1.64082980e-11 4.42339790e-13 3.58392107e-17 1.59659224e-11 8.79730760e-15 4.42339790e-13
9.01040836e+00 1.78635523e-11 4.00743158e-13 1.48931883e-17 1.74627943e-11 5.24336055e-15 4.00743158e-13
9.31196005e+00 1.89022189e-11 3.63058180e-13 0.00000000e+00 1.85391608e-11 0.00000000e+00 3.63058180e-13
9.62360379e+00 1.88685900e-11 3.28917012e-13 0.00000000e+00 1.85396730e-11 0.00000000e+00 3.28917012e-13
9.94567731e+00 1.80333372e-11 2.97986401e-13 0.00000000e+00 1.77353508e-11 0.00000000e+00 2.97986401e-13
1.02785297e+01 1.69730005e-11 2.69964435e-13 0.00000000e+00 1.67030360e-11 0.00000000e+00 2.69964435e-13
1.06225216e+01 1.58708988e-11 2.44577592e-13 0.00000000e+00 1.56263212e-11 0.00000000e+00 2.44577592e-13
1.09780260e+01 1.45658068e-11 2.21578069e-13 0.00000000e+00 1.43442288e-11 0.00000000e+00 2.21578069e-13
1.13454280e+01 1.34191875e-11 2.00741370e-13 0.00000000e+00 1.32184461e-11 0.00000000e+00 2.00741370e-13
1.17251259e+01 1.24191591e-11 1.81864106e-13 0.00000000e+00 1.22372950e-11 0.00000000e+00 1.81864106e-13
1.21175312e+01 1.14907321e-11 1.64762018e-13 0.00000000e+00 1.13259701e-11 0.00000000e+00 1.64762018e-13
1.25230691e+01 1.05869196e-11 1.49268171e-13 0.00000000e+00 1.04376514e-11 0.00000000e+00 1.49268171e-13
1.29421791e+01 9.80812994e-12 1.35231331e-13 0.00000000e+00 9.67289861e-12 0.00000000e+00 1.35231331e-13
1.33753155e+01 9.13034428e-12 1.22514483e-13 0.00000000e+00 9.00782980e-12 0.00000000e+00 1.22514483e-13
1.38229477e+01 8.71605745e-12 1.10993499e-13 0.00000000e+00 8.60506395e-12 0.00000000e+00 1.10993499e-13
1.42855609e+01 8.52107725e-12 1.00555922e-13 0.00000000e+00 8.42052133e-12 0.00000000e+00 1.00555922e-13
1.47636563e+01 8.73579002e-12 9.10998706e-14 0.00000000e+00 8.64469015e-12 0.00000000e+00 9.10998706e-14
1.52577522e+01 9.03956727e-12 8.25330452e-14 0.00000000e+00 8.95703423e-12 0.00000000e+00 8.25330452e-14
1.57683840e+01 9.43728411e-12 7.47718247e-14 0.00000000e+00 9.36251229e-12 0.00000000e+00 7.47718247e-14
1.62961051e+01 9.85836270e-12 6.77404517e-14 0.00000000e+00 9.79062225e-12 0.00000000e+00 6.77404517e-14
1.68414875e+01 1.02487104e-11 6.13702932e-14 0.00000000e+00 1.01873401e-11 0.00000000e+00 6.13702932e-14
1.74051222e+01 1.05588706e-11 5.55991699e-14 0.00000000e+00 1.05032715e-11 0.00000000e+00 5.55991699e-14
1.79876201e+01 1.07396232e-11 5.03707500e-14 0.00000000e+00 1.06892524e-11 0.00000000e+00 5.03707500e-14
1.85896125e+01 1.07529153e-11 4.56339988e-14 0.00000000e+00 1.07072813e-11 0.00000000e+00 4.56339988e-14
1.92117518e+01 1.05825690e-11 4.13426810e-14 0.00000000e+00 1.05412264e-11 0.00000000e+00 4.13426810e-14
1.98547123e+01 1.02956113e-11 3.74549090e-14 0.00000000e+00 1.02581563e-11 0.00000000e+00 3.74549090e-14
2.05191907e+01 9.95209738e-12 3.39327342e-14 0.00000000e+00 9.91816464e-12 0.00000000e+00 3.39327342e-14
2.12059073e+01 9.60501318e-12 3.07417768e-14 0.00000000e+00 9.57427141e-12 0.00000000e+00 3.07417768e-14
2.19156062e+01 9.29440304e-12 2.78508898e-14 0.00000000e+00 9.26655215e-12 0.00000000e+00 2.78508898e-14
2.26490567e+01 8.97276090e-12 2.52318552e-14 0.00000000e+00 8.94752905e-12 0.00000000e+00 2.52318552e-14
2.34070535e+01 8.65694293e-12 2.28591087e-14 0.00000000e+00 8.63408382e-12 0.00000000e+00 2.28591087e-14
2.41904183e+01 8.32990920e-12 2.07094900e-14 0.00000000e+00 8.30919971e-12 0.00000000e+00 2.07094900e-14
2.50000000e+01 8.01894026e-12 1.87620165e-14 0.00000000e+00 8.00017824e-12 0.00000000e+00 1.87620165e-14
2.75422870e+01 7.05398599e-12 1.40313526e-14 0.00000000e+00 7.03995463e-12 0.00000000e+00 1.40313526e-14
3.16227766e+01 5.66296671e-12 9.27042274e-15 0.00000000e+00 5.65369628e-12 0.00000000e+00 9.27042274e-15
3.63078055e+01 4.26108777e-12 6.12490756e-15 0.00000000e+00 4.25496286e-12 0.00000000e+00 6.12490756e-15
4.16869383e+01 2.97711858e-12 4.04668630e-15 0.00000000e+00 2.97307190e-12 0.00000000e+00 4.04668630e-15
4.78630092e+01 1.93795008e-12 2.67361912e-15 0.00000000e+00 1.93527646e-12 0.00000000e+00 2.67361912e-15
5.49540874e+01 1.19202546e-12 1.76644264e-15 0.00000000e+00 1.19025901e-12 0.00000000e+00 1.76644264e-15
6.30957344e+01 7.02613997e-13 1.16707708e-15 0.00000000e+00 7.01446920e-13 0.00000000e+00 1.16707708e-15
7.24435960e+01 4.00502475e-13 7.71080178e-16 0.00000000e+00 3.99731395e-13 0.00000000e+00 7.71080178e-16
8.31763771e+01 2.23082271e-13 5.09447621e-16 0.00000000e+00 2.22572823e-13 0.00000000e+00 5.09447621e-16
9.54992586e+01 1.22325993e-13 3.36588705e-16 0.00000000e+00 1.21989405e-13 0.00000000e+00 3.36588705e-16
1.09647820e+02 6.63146157e-14 2.22381952e-16 0.00000000e+00 6.60922338e-14 0.00000000e+00 2.22381952e-16
1.25892541e+02 3.60673319e-14 1.46926299e-16 0.00000000e+00 3.59204056e-14 0.00000000e+00 1.46926299e-16
1.44543977e+02 1.95621033e-14 9.70732430e-17 0.00000000e+00 1.94650300e-14 0.00000000e+00 9.70732430e-17
1.65958691e+02 1.01207034e-14 6.41356556e-17 0.00000000e+00 1.00565677e-14 0.00000000e+00 6.41356556e-17
1.90546072e+02 5.25334689e-15 4.23740075e-17 0.00000000e+00 5.21097288e-15 0.00000000e+00 4.23740075e-17
2.18776162e+02 2.72840153e-15 2.79962291e-17 0.00000000e+00 2.70040530e-15 0.00000000e+00 2.79962291e-17
2.51188643e+02 1.41476370e-15 1.84969251e-17 0.00000000e+00 1.39626678e-15 0.00000000e+00 1.84969251e-17
2.88403150e+02 7.31567633e-16 1.22207972e-17 0.00000000e+00 7.19346836e-16 0.00000000e+00 1.22207972e-17
3.31131121e+02 3.77959076e-16 8.07420067e-18 0.00000000e+00 3.69884876e-16 0.00000000e+00 8.07420067e-18
3.80189396e+02 1.94925817e-16 5.33457148e-18 0.00000000e+00 1.89591245e-16 0.00000000e+00 5.33457148e-18
4.36515832e+02 1.00514807e-16 3.52451642e-18 0.00000000e+00 9.69902904e-17 0.00000000e+00 3.52451642e-18
5.01187234e+02 5.18326605e-17 2.32862491e-18 0.00000000e+00 4.95040356e-17 0.00000000e+00 2.32862491e-18
5.75439937e+02 2.67582615e-17 1.53850722e-18 0.00000000e+00 2.52197543e-17 0.00000000e+00 1.53850722e-18
6.60693448e+02 1.38436961e-17 1.01648164e-18 0.00000000e+00 1.28272144e-17 0.00000000e+00 1.01648164e-18
7.58577575e+02 7.18632995e-18 6.71582760e-19 0.00000000e+00 6.51474719e-18 0.00000000e+00 6.71582760e-19
8.70963590e+02 3.74747598e-18 4.43710329e-19 0.00000000e+00 3.30376565e-18 0.00000000e+00 4.43710329e-19
1.00000000e+03 1.67298868e-18 0.00000000e+00 0.00000000e+00 1.67298868e-18 0.00000000e+00 0.00000000e+00
