# column 1: lambda (micron)
# column 2: total flux; lambda*F_lambda (W/m2)
# column 3: direct stellar flux; lambda*F_lambda (W/m2)
# column 4: scattered stellar flux; lambda*F_lambda (W/m2)
# column 5: total dust emission flux; lambda*F_lambda (W/m2)
# column 6: dust emission scattered flux; lambda*F_lambda (W/m2)
# column 7: transparent flux; lambda*F_lambda (W/m2)
1.00000000e-03 1.04635402e-12 1.04634360e-12 1.04107758e-17 0.00000000e+00 0.00000000e+00 1.04634360e-12
1.14815362e-03 1.23503763e-12 1.23502095e-12 1.66766493e-17 0.00000000e+00 0.00000000e+00 1.23502095e-12
1.31825674e-03 1.45774329e-12 1.45772071e-12 2.25799954e-17 0.00000000e+00 0.00000000e+00 1.45772071e-12
1.51356125e-03 1.72061152e-12 1.72057784e-12 3.36816663e-17 0.00000000e+00 0.00000000e+00 1.72057784e-12
1.73780083e-03 2.03089342e-12 2.03083353e-12 5.98993596e-17 0.00000000e+00 0.00000000e+00 2.03083353e-12
1.99526231e-03 2.39713531e-12 2.39703472e-12 1.00590310e-16 0.00000000e+00 0.00000000e+00 2.39703472e-12
2.29086765e-03 2.82942319e-12 2.82926954e-12 1.53651259e-16 0.00000000e+00 0.00000000e+00 2.82926954e-12
2.63026799e-03 3.33975390e-12 3.33944522e-12 3.08681626e-16 0.00000000e+00 0.00000000e+00 3.33944522e-12
3.01995172e-03 3.94209033e-12 3.94161611e-12 4.74224004e-16 0.00000000e+00 0.00000000e+00 3.94161611e-12
3.46736850e-03 4.65315925e-12 4.65237083e-12 7.88421889e-16 0.00000000e+00 0.00000000e+00 4.65237083e-12
3.98107171e-03 5.49257845e-12 5.49128930e-12 1.28914922e-15 0.00000000e+00 0.00000000e+00 5.49128930e-12
4.57088190e-03 6.48435207e-12 6.48148207e-12 2.86999974e-15 0.00000000e+00 0.00000000e+00 6.48148207e-12
5.24807460e-03 7.65534301e-12 7.65022704e-12 5.11596848e-15 0.00000000e+00 0.00000000e+00 7.65022704e-12
6.02559586e-03 9.03901581e-12 9.02972084e-12 9.29496547e-15 0.00000000e+00 0.00000000e+00 9.02972084e-12
6.91830971e-03 1.06725156e-11 1.06579658e-11 1.45497314e-14 0.00000000e+00 0.00000000e+00 1.06579658e-11
7.94328235e-03 1.26040453e-11 1.25798170e-11 2.42283011e-14 4.74273312e-304 1.43787774e-306 1.25798170e-11
9.12010839e-03 1.48857551e-11 1.48482176e-11 3.75375019e-14 2.00419922e-265 1.49857663e-267 1.48482176e-11
1.04712855e-02 1.66595274e-11 1.65834298e-11 7.60976411e-14 8.16696407e-232 5.63216883e-234 1.65834298e-11
1.20226443e-02 1.66801283e-11 1.65834298e-11 9.66984906e-14 1.24516940e-202 1.43845327e-204 1.65834298e-11
1.38038426e-02 1.67042136e-11 1.65834298e-11 1.20783858e-13 3.29516266e-177 3.38307144e-179 1.65834298e-11
1.58489319e-02 1.67612046e-11 1.65834298e-11 1.77774819e-13 4.37162698e-155 6.70754361e-157 1.65834298e-11
1.81970086e-02 1.68068774e-11 1.65834298e-11 2.23447611e-13 7.67428240e-136 1.59045093e-137 1.65834298e-11
2.08929613e-02 1.69022747e-11 1.65834298e-11 3.18844886e-13 3.95259370e-119 1.01974624e-120 1.65834298e-11
2.39883292e-02 1.69667660e-11 1.65834298e-11 3.83336203e-13 1.37717173e-104 4.93634197e-106 1.65834298e-11
2.75422870e-02 1.70807485e-11 1.65834298e-11 4.97318728e-13 6.10461641e-92 2.54862320e-93 1.65834298e-11
3.16227766e-02 1.71542357e-11 1.65834298e-11 5.70805869e-13 5.89773441e-81 2.74252674e-82 1.65834298e-11
3.63078055e-02 1.71910999e-11 1.65834298e-11 6.07670118e-13 2.02814873e-71 1.02172759e-72 1.65834298e-11
4.16869383e-02 1.73309004e-11 1.65834298e-11 7.47470607e-13 3.84065084e-63 2.28164180e-64 1.65834298e-11
4.78630092e-02 1.73802944e-11 1.65834298e-11 7.96864631e-13 5.76772689e-56 3.84534188e-57 1.65834298e-11
5.49540874e-02 1.74140654e-11 1.65834298e-11 8.30635637e-13 9.52374638e-50 6.86351074e-51 1.65834298e-11
6.30957344e-02 1.73437036e-11 1.65834298e-11 7.60273780e-13 3.04280264e-44 2.20268767e-45 1.65834298e-11
7.24435960e-02 1.72219680e-11 1.65834298e-11 6.38538203e-13 1.74263064e-39 1.13704383e-40 1.65834298e-11
8.31763771e-02 1.71886829e-11 1.65834298e-11 6.05253131e-13 1.77380316e-35 1.13011284e-36 1.65834298e-11
9.54992586e-02 1.71940523e-11 1.65834298e-11 6.10622522e-13 4.97377716e-32 3.21826374e-33 1.65834298e-11
1.09647820e-01 1.64979488e-11 1.58370587e-11 6.60890075e-13 4.21512886e-29 2.98226923e-30 1.58370587e-11
1.25892541e-01 1.54519899e-11 1.47800032e-11 6.71986756e-13 1.36428031e-26 9.88641351e-28 1.47800032e-11
1.44543977e-01 1.44144262e-11 1.37935015e-11 6.20924639e-13 1.85199774e-24 1.31965282e-25 1.37935015e-11
1.65958691e-01 1.34757474e-11 1.28728446e-11 6.02902799e-13 9.35877020e-23 7.19511635e-24 1.28728446e-11
1.90546072e-01 1.26150344e-11 1.20136376e-11 6.01396832e-13 1.96001207e-21 1.64003066e-22 1.20136376e-11
2.18776162e-01 1.17231270e-11 1.12117790e-11 5.11348037e-13 2.30643578e-20 1.90159887e-21 1.12117790e-11
2.51188643e-01 1.10154217e-11 1.04634409e-11 5.51980481e-13 2.77917694e-19 2.60314306e-20 1.04634409e-11
2.88403150e-01 1.02830588e-11 9.76505125e-12 5.18005251e-13 2.31663636e-18 2.21213161e-19 9.76505125e-12
3.31131121e-01 9.59324272e-12 9.11327608e-12 4.79953372e-13 1.32660899e-17 1.24622836e-18 9.11327608e-12
3.80189396e-01 8.95557678e-12 8.50500410e-12 4.50517232e-13 5.54550899e-17 5.21931032e-18 8.50500410e-12
4.36515832e-01 8.34260788e-12 7.93733165e-12 4.05098043e-13 1.78189980e-16 1.73776395e-17 7.93733165e-12
5.01187234e-01 7.78138735e-12 7.40754890e-12 3.73356099e-13 4.82347025e-16 5.60069402e-17 7.40754890e-12
5.75439937e-01 7.24785506e-12 6.91312687e-12 3.33455853e-13 1.27233606e-15 2.05096287e-16 6.91312687e-12
6.60693448e-01 6.75155796e-12 6.45170538e-12 2.96064433e-13 3.78814634e-15 8.41887131e-16 6.45170538e-12
7.58577575e-01 6.30112550e-12 6.02108180e-12 2.67602595e-13 1.24411112e-14 3.23770411e-15 6.02108180e-12
8.70963590e-01 5.89301164e-12 5.61920048e-12 2.34720524e-13 3.90906390e-14 1.03911516e-14 5.61920048e-12
1.00000000e+00 5.55471280e-12 5.24414302e-12 1.99788351e-13 1.10781437e-13 2.84591356e-14 5.24414302e-12
1.14815362e+00 5.34362092e-12 4.89411902e-12 1.71218430e-13 2.78283467e-13 6.54032411e-14 4.89411902e-12
1.31825674e+00 5.32616763e-12 4.56745763e-12 1.39567519e-13 6.19142483e-13 1.29749661e-13 4.56745763e-12
1.51356125e+00 5.63228416e-12 4.26259947e-12 1.15401708e-13 1.25428298e-12 2.27638575e-13 4.26259947e-12
1.73780083e+00 6.32066214e-12 3.97808929e-12 9.39990792e-14 2.24857377e-12 3.48026738e-13 3.97808929e-12
1.99526231e+00 7.41239245e-12 3.71256894e-12 7.42432672e-14 3.62558024e-12 4.53513179e-13 3.71256894e-12
2.29086765e+00 8.79892830e-12 3.46477093e-12 5.62282355e-14 5.27792913e-12 5.22990744e-13 3.46477093e-12
2.63026799e+00 1.03801964e-11 3.23351237e-12 4.05336471e-14 7.10615042e-12 5.30573695e-13 3.23351237e-12
3.01995172e+00 1.19138500e-11 3.01768933e-12 2.84452977e-14 8.86771535e-12 4.79252010e-13 3.01768933e-12
3.46736850e+00 1.32521929e-11 2.81627154e-12 1.89551197e-14 1.04169663e-11 3.93599449e-13 2.81627154e-12
3.98107171e+00 1.42170689e-11 2.62829753e-12 1.21855250e-14 1.15765859e-11 2.96030265e-13 2.62829753e-12
4.57088190e+00 1.47874545e-11 2.45286997e-12 7.57054404e-15 1.23270140e-11 2.04582825e-13 2.45286997e-12
5.24807460e+00 1.46997938e-11 2.02814751e-12 4.07413927e-15 1.26675722e-11 1.33169336e-13 2.02814751e-12
6.02559586e+00 1.39681836e-11 1.33998377e-12 1.65525104e-15 1.26265446e-11 8.11600276e-14 1.33998377e-12
6.70000000e+00 1.33506530e-11 9.74709347e-13 8.07205609e-16 1.23751365e-11 5.28015692e-14 9.74709347e-13
6.92422916e+00 1.31332237e-11 8.83049889e-13 6.36578280e-16 1.22495372e-11 4.55573097e-14 8.83049889e-13
7.15596261e+00 1.29919011e-11 8.00009879e-13 4.99809383e-16 1.21913914e-11 3.94062810e-14 8.00009879e-13
7.39545150e+00 1.29958043e-11 7.24778763e-13 3.80708508e-16 1.22706448e-11 3.34982288e-14 7.24778763e-13
7.64295536e+00 1.35164785e-11 6.56622211e-13 2.71725156e-16 1.28595846e-11 2.86630222e-14 6.56622211e-13
7.89874245e+00 1.47348838e-11 5.94874946e-13 1.74998322e-16 1.41398339e-11 2.39277033e-14 5.94874946e-13
8.16308998e+00 1.63076475e-11 5.38934254e-13 1.07156270e-16 1.57686061e-11 1.96849630e-14 5.38934254e-13
8.43628443e+00 1.82161736e-11 4.88254098e-13 5.79041902e-17 1.77278616e-11 1.52896405e-14 4.88254098e-13
8.71862190e+00 1.93150931e-11 4.42339790e-13 3.17789693e-17 1.88727215e-11 1.13463164e-14 4.42339790e-13
9.01040836e+00 2.04222181e-11 4.00743158e-13 1.29023638e-17 2.00214620e-11 7.07851033e-15 4.00743158e-13
9.31196005e+00 2.10817711e-11 3.63058180e-13 0.00000000e+00 2.07187129e-11 0.00000000e+00 3.63058180e-13
9.62360379e+00 2.09738532e-11 3.28917012e-13 0.00000000e+00 2.06449362e-11 0.00000000e+00 3.28917012e-13
9.94567731e+00 2.04247880e-11 2.97986401e-13 0.00000000e+00 2.01268016e-11 0.00000000e+00 2.97986401e-13
1.02785297e+01 1.95808058e-11 2.69964435e-13 0.00000000e+00 1.93108413e-11 0.00000000e+00 2.69964435e-13
1.06225216e+01 1.86819622e-11 2.44577592e-13 0.00000000e+00 1.84373846e-11 0.00000000e+00 2.44577592e-13
1.09780260e+01 1.77423560e-11 2.21578069e-13 0.00000000e+00 1.75207779e-11 0.00000000e+00 2.21578069e-13
1.13454280e+01 1.66916080e-11 2.00741370e-13 0.00000000e+00 1.64908666e-11 0.00000000e+00 2.00741370e-13
1.17251259e+01 1.56943364e-11 1.81864106e-13 0.00000000e+00 1.55124723e-11 0.00000000e+00 1.81864106e-13
1.21175312e+01 1.46898118e-11 1.64762018e-13 0.00000000e+00 1.45250498e-11 0.00000000e+00 1.64762018e-13
1.25230691e+01 1.36827626e-11 1.49268171e-13 0.00000000e+00 1.35334944e-11 0.00000000e+00 1.49268171e-13
1.29421791e+01 1.27294273e-11 1.35231331e-13 0.00000000e+00 1.25941960e-11 0.00000000e+00 1.35231331e-13
1.33753155e+01 1.18389769e-11 1.22514483e-13 0.00000000e+00 1.17164624e-11 0.00000000e+00 1.22514483e-13
1.38229477e+01 1.12081192e-11 1.10993499e-13 0.00000000e+00 1.10971257e-11 0.00000000e+00 1.10993499e-13
1.42855609e+01 1.07799042e-11 1.00555922e-13 0.00000000e+00 1.06793483e-11 0.00000000e+00 1.00555922e-13
1.47636563e+01 1.08131056e-11 9.10998706e-14 0.00000000e+00 1.07220058e-11 0.00000000e+00 9.10998706e-14
1.52577522e+01 1.09110247e-11 8.25330452e-14 0.00000000e+00 1.08284916e-11 0.00000000e+00 8.25330452e-14
1.57683840e+01 1.10768047e-11 7.47718247e-14 0.00000000e+00 1.10020329e-11 0.00000000e+00 7.47718247e-14
1.62961051e+01 1.12211714e-11 6.77404517e-14 0.00000000e+00 1.11534309e-11 0.00000000e+00 6.77404517e-14
1.68414875e+01 1.13032017e-11 6.13702932e-14 0.00000000e+00 1.12418314e-11 0.00000000e+00 6.13702932e-14
1.74051222e+01 1.12750815e-11 5.55991699e-14 0.00000000e+00 1.12194823e-11 0.00000000e+00 5.55991699e-14
1.79876201e+01 1.11512163e-11 5.03707500e-14 0.00000000e+00 1.11008456e-11 0.00000000e+00 5.03707500e-14
1.85896125e+01 1.08150333e-11 4.56339988e-14 0.00000000e+00 1.07693993e-11 0.00000000e+00 4.56339988e-14
1.92117518e+01 1.03692745e-11 4.13426810e-14 0.00000000e+00 1.03279318e-11 0.00000000e+00 4.13426810e-14
1.98547123e+01 9.82686274e-12 3.74549090e-14 0.00000000e+00 9.78940783e-12 0.00000000e+00 3.74549090e-14
2.05191907e+01 9.25962831e-12 3.39327342e-14 0.00000000e+00 9.22569558e-12 0.00000000e+00 3.39327342e-14
2.12059073e+01 8.68380953e-12 3.07417768e-14 0.00000000e+00 8.65306775e-12 0.00000000e+00 3.07417768e-14
2.19156062e+01 8.16669630e-12 2.78508898e-14 0.00000000e+00 8.13884541e-12 0.00000000e+00 2.78508898e-14
2.26490567e+01 7.66759226e-12 2.52318552e-14 0.00000000e+00 7.64236041e-12 0.00000000e+00 2.52318552e-14
2.34070535e+01 7.17132254e-12 2.28591087e-14 0.00000000e+00 7.14846344e-12 0.00000000e+00 2.28591087e-14
2.41904183e+01 6.72006461e-12 2.07094900e-14 0.00000000e+00 6.69935512e-12 0.00000000e+00 2.07094900e-14
2.50000000e+01 6.26727698e-12 1.87620165e-14 0.00000000e+00 6.24851497e-12 0.00000000e+00 1.87620165e-14
2.75422870e+01 5.08079173e-12 1.40313526e-14 0.00000000e+00 5.06676037e-12 0.00000000e+00 1.40313526e-14
3.16227766e+01 3.64067957e-12 9.27042274e-15 0.00000000e+00 3.63140914e-12 0.00000000e+00 9.27042274e-15
3.63078055e+01 2.48296565e-12 6.12490756e-15 0.00000000e+00 2.47684075e-12 0.00000000e+00 6.12490756e-15
4.16869383e+01 1.59387507e-12 4.04668630e-15 0.00000000e+00 1.58982838e-12 0.00000000e+00 4.04668630e-15
4.78630092e+01 9.63624293e-13 2.67361912e-15 0.00000000e+00 9.60950674e-13 0.00000000e+00 2.67361912e-15
5.49540874e+01 5.56362005e-13 1.76644264e-15 0.00000000e+00 5.54595562e-13 0.00000000e+00 1.76644264e-15
6.30957344e+01 3.10020467e-13 1.16707708e-15 0.00000000e+00 3.08853390e-13 0.00000000e+00 1.16707708e-15
7.24435960e+01 1.68452547e-13 7.71080178e-16 0.00000000e+00 1.67681467e-13 0.00000000e+00 7.71080178e-16
8.31763771e+01 8.99485941e-14 5.09447621e-16 0.00000000e+00 8.94391464e-14 0.00000000e+00 5.09447621e-16
9.54992586e+01 4.75552544e-14 3.36588705e-16 0.00000000e+00 4.72186657e-14 0.00000000e+00 3.36588705e-16
1.09647820e+02 2.49916484e-14 2.22381952e-16 0.00000000e+00 2.47692664e-14 0.00000000e+00 2.22381952e-16
1.25892541e+02 1.32363959e-14 1.46926299e-16 0.00000000e+00 1.30894696e-14 0.00000000e+00 1.46926299e-16
1.44543977e+02 7.02153072e-15 9.70732430e-17 0.00000000e+00 6.92445747e-15 0.00000000e+00 9.70732430e-17
1.65958691e+02 3.56558157e-15 6.41356556e-17 0.00000000e+00 3.50144591e-15 0.00000000e+00 6.41356556e-17
1.90546072e+02 1.82342181e-15 4.23740075e-17 0.00000000e+00 1.78104780e-15 0.00000000e+00 4.23740075e-17
2.18776162e+02 9.36282946e-16 2.79962291e-17 0.00000000e+00 9.08286717e-16 0.00000000e+00 2.79962291e-17
2.51188643e+02 4.81701755e-16 1.84969251e-17 0.00000000e+00 4.63204830e-16 0.00000000e+00 1.84969251e-17
2.88403150e+02 2.48023936e-16 1.22207972e-17 0.00000000e+00 2.35803138e-16 0.00000000e+00 1.22207972e-17
3.31131121e+02 1.28074673e-16 8.07420067e-18 0.00000000e+00 1.20000472e-16 0.00000000e+00 8.07420067e-18
3.80189396e+02 6.62939926e-17 5.33457148e-18 0.00000000e+00 6.09594211e-17 0.00000000e+00 5.33457148e-18
4.36515832e+02 3.44688976e-17 3.52451642e-18 0.00000000e+00 3.09443812e-17 0.00000000e+00 3.52451642e-18
5.01187234e+02 1.80169446e-17 2.32862491e-18 0.00000000e+00 1.56883196e-17 0.00000000e+00 2.32862491e-18
5.75439937e+02 9.48458987e-18 1.53850722e-18 0.00000000e+00 7.94608265e-18 0.00000000e+00 1.53850722e-18
6.60693448e+02 5.03765360e-18 1.01648164e-18 0.00000000e+00 4.02117196e-18 0.00000000e+00 1.01648164e-18
7.58577575e+02 2.70496335e-18 6.71582760e-19 0.00000000e+00 2.03338059e-18 0.00000000e+00 6.71582760e-19
8.70963590e+02 1.47098189e-18 4.43710329e-19 0.00000000e+00 1.02727156e-18 0.00000000e+00 4.43710329e-19
1.00000000e+03 5.18489645e-19 0.00000000e+00 0.00000000e+00 5.18489645e-19 0.00000000e+00 0.00000000e+00
