# column 1: lambda (micron)
# column 2: total flux; lambda*F_lambda (W/m2)
# column 3: direct stellar flux; lambda*F_lambda (W/m2)
# column 4: scattered stellar flux; lambda*F_lambda (W/m2)
# column 5: total dust emission flux; lambda*F_lambda (W/m2)
# column 6: dust emission scattered flux; lambda*F_lambda (W/m2)
# column 7: transparent flux; lambda*F_lambda (W/m2)
1.00000000e-03 3.57785589e-13 3.57785423e-13 1.65815069e-19 0.00000000e+00 0.00000000e+00 3.57785423e-13
1.14815362e-03 4.22301767e-13 4.22301518e-13 2.48135308e-19 0.00000000e+00 0.00000000e+00 4.22301518e-13
1.31825674e-03 4.98451598e-13 4.98451197e-13 4.01675151e-19 0.00000000e+00 0.00000000e+00 4.98451197e-13
1.51356125e-03 5.88332846e-13 5.88332233e-13 6.12485449e-19 0.00000000e+00 0.00000000e+00 5.88332233e-13
1.73780083e-03 6.94421841e-13 6.94420676e-13 1.16538965e-18 0.00000000e+00 0.00000000e+00 6.94420676e-13
1.99526231e-03 8.19640802e-13 8.19639053e-13 1.74844322e-18 0.00000000e+00 0.00000000e+00 8.19639053e-13
2.29086765e-03 9.67439917e-13 9.67436888e-13 3.02878101e-18 0.00000000e+00 0.00000000e+00 9.67436888e-13
2.63026799e-03 1.14189135e-12 1.14188572e-12 5.62866902e-18 0.00000000e+00 0.00000000e+00 1.14188572e-12
3.01995172e-03 1.34780086e-12 1.34779128e-12 9.57375100e-18 0.00000000e+00 0.00000000e+00 1.34779128e-12
3.46736850e-03 1.59084279e-12 1.59082586e-12 1.69269597e-17 0.00000000e+00 0.00000000e+00 1.59082586e-12
3.98107171e-03 1.87771202e-12 1.87768459e-12 2.74244007e-17 0.00000000e+00 0.00000000e+00 1.87768459e-12
4.57088190e-03 2.21632731e-12 2.21626987e-12 5.74391723e-17 0.00000000e+00 0.00000000e+00 2.21626987e-12
5.24807460e-03 2.61601301e-12 2.61590907e-12 1.03944467e-16 0.00000000e+00 0.00000000e+00 2.61590907e-12
6.02559586e-03 3.08782843e-12 3.08761145e-12 2.16979851e-16 0.00000000e+00 0.00000000e+00 3.08761145e-12
6.91830971e-03 3.64472062e-12 3.64437151e-12 3.49106538e-16 0.00000000e+00 0.00000000e+00 3.64437151e-12
7.94328235e-03 4.30203253e-12 4.30152690e-12 5.05634569e-16 3.75496953e-304 9.24514757e-306 4.30152690e-12
9.12010839e-03 5.07807253e-12 5.07718096e-12 8.91572076e-16 1.57780838e-265 7.56327599e-267 5.07718096e-12
1.04712855e-02 5.67208129e-12 5.67051724e-12 1.56405010e-15 6.49826731e-232 4.86462188e-233 5.67051724e-12
1.20226443e-02 5.67227646e-12 5.67051724e-12 1.75922014e-15 9.77715540e-203 8.14933782e-204 5.67051724e-12
1.38038426e-02 5.67322987e-12 5.67051724e-12 2.71262895e-15 2.52757256e-177 1.93257470e-178 5.67051724e-12
1.58489319e-02 5.67346663e-12 5.67051724e-12 2.94938716e-15 3.31441623e-155 2.92912228e-156 5.67051724e-12
1.81970086e-02 5.67538804e-12 5.67051724e-12 4.87080094e-15 5.77401089e-136 5.88203806e-137 5.67051724e-12
2.08929613e-02 5.67710363e-12 5.67051724e-12 6.58638920e-15 2.89325346e-119 2.74084056e-120 5.67051724e-12
2.39883292e-02 5.68214015e-12 5.67051724e-12 1.16229107e-14 9.87203997e-105 9.93124743e-106 5.67051724e-12
2.75422870e-02 5.68177580e-12 5.67051724e-12 1.12585589e-14 4.27721133e-92 4.34267142e-93 5.67051724e-12
3.16227766e-02 5.68553447e-12 5.67051724e-12 1.50172341e-14 4.03858409e-81 4.03056831e-82 5.67051724e-12
3.63078055e-02 5.68731807e-12 5.67051724e-12 1.68008347e-14 1.36111191e-71 1.34129499e-72 5.67051724e-12
4.16869383e-02 5.69031939e-12 5.67051724e-12 1.98021508e-14 2.53826461e-63 2.62258831e-64 5.67051724e-12
4.78630092e-02 5.69910725e-12 5.67051724e-12 2.85900088e-14 3.69591457e-56 3.90134638e-57 5.67051724e-12
5.49540874e-02 5.70019051e-12 5.67051724e-12 2.96732760e-14 5.83719325e-50 6.00696493e-51 5.67051724e-12
6.30957344e-02 5.70350345e-12 5.67051724e-12 3.29862139e-14 1.72197503e-44 1.81328532e-45 5.67051724e-12
7.24435960e-02 5.70142327e-12 5.67051724e-12 3.09060355e-14 8.98819592e-40 8.87038489e-41 5.67051724e-12
8.31763771e-02 5.70124149e-12 5.67051724e-12 3.07242481e-14 9.20401439e-36 8.81462260e-37 5.67051724e-12
9.54992586e-02 5.70061771e-12 5.67051724e-12 3.01004702e-14 2.63273172e-32 2.47873038e-33 5.67051724e-12
1.09647820e-01 5.44734193e-12 5.41530405e-12 3.20378811e-14 2.36727850e-29 2.25581786e-30 5.41530405e-12
1.25892541e-01 5.08410665e-12 5.05385580e-12 3.02508518e-14 8.14863179e-27 7.81240927e-28 5.05385580e-12
1.44543977e-01 4.74385362e-12 4.71653266e-12 2.73209619e-14 1.15556602e-24 1.00092931e-25 4.71653266e-12
1.65958691e-01 4.42833415e-12 4.40172439e-12 2.66097671e-14 5.98680543e-23 5.17932638e-24 4.40172439e-12
1.90546072e-01 4.13494376e-12 4.10792822e-12 2.70155473e-14 1.23696541e-21 1.17298515e-22 4.10792822e-12
2.18776162e-01 3.85938370e-12 3.83374167e-12 2.56420094e-14 1.39896927e-20 1.32954053e-21 3.83374167e-12
2.51188643e-01 3.60836364e-12 3.57785591e-12 3.05075563e-14 1.76751332e-19 1.76123701e-20 3.57785591e-12
2.88403150e-01 3.36464141e-12 3.33904941e-12 2.55904760e-14 1.51799190e-18 1.41143754e-19 3.33904941e-12
3.31131121e-01 3.13955508e-12 3.11618222e-12 2.33639723e-14 8.88133494e-18 7.87119823e-19 3.11618222e-12
3.80189396e-01 2.93058919e-12 2.90819046e-12 2.23610542e-14 3.76709046e-17 3.20672417e-18 2.90819046e-12
4.36515832e-01 2.73242590e-12 2.71408126e-12 1.82239901e-14 1.20650808e-16 9.43886446e-18 2.71408126e-12
5.01187234e-01 2.54921148e-12 2.53292801e-12 1.59781550e-14 3.05320911e-16 2.23558799e-17 2.53292801e-12
5.75439937e-01 2.38015047e-12 2.36386595e-12 1.56478372e-14 6.36673388e-16 4.28137040e-17 2.36386595e-12
6.60693448e-01 2.22022359e-12 2.20608807e-12 1.29953539e-14 1.14016428e-15 7.05975001e-17 2.20608807e-12
7.58577575e-01 2.07293461e-12 2.05884118e-12 1.22381885e-14 1.85524346e-15 1.08162226e-16 2.05884118e-12
8.70963590e-01 1.93476794e-12 1.92142238e-12 1.04761807e-14 2.86937243e-15 1.55555232e-16 1.92142238e-12
1.00000000e+00 1.80693067e-12 1.79317570e-12 9.34393254e-15 4.41103709e-15 2.25830761e-16 1.79317570e-12
1.14815362e+00 1.68829575e-12 1.67348894e-12 7.62026234e-15 7.18654823e-15 3.59767134e-16 1.67348894e-12
1.31825674e+00 1.58045296e-12 1.56179075e-12 6.14113508e-15 1.25210782e-14 6.08952342e-16 1.56179075e-12
1.51356125e+00 1.48495339e-12 1.45754793e-12 4.96957158e-15 2.24358898e-14 1.07771333e-15 1.45754793e-12
1.73780083e+00 1.40325763e-12 1.36026288e-12 3.93503358e-15 3.90597216e-14 1.77497904e-15 1.36026288e-12
1.99526231e+00 1.33593724e-12 1.26947118e-12 3.00611493e-15 6.34599492e-14 2.52893043e-15 1.26947118e-12
2.29086765e+00 1.28167380e-12 1.18473944e-12 2.21445557e-15 9.47199039e-14 3.17733834e-15 1.18473944e-12
2.63026799e+00 1.23724677e-12 1.10566318e-12 1.56103033e-15 1.30022564e-13 3.37044212e-15 1.10566318e-12
3.01995172e+00 1.19703263e-12 1.03186491e-12 9.47218172e-16 1.64220498e-13 3.19410573e-15 1.03186491e-12
3.46736850e+00 1.15626296e-12 9.62992369e-13 6.83452240e-16 1.92587139e-13 2.66785811e-15 9.62992369e-13
3.98107171e+00 1.10927810e-12 8.98716770e-13 4.24212851e-16 2.10137112e-13 1.98542035e-15 8.98716770e-13
4.57088190e+00 1.05482839e-12 8.38731291e-13 2.58574937e-16 2.15838525e-13 1.36091278e-15 8.38731291e-13
5.24807460e+00 9.04651635e-13 6.93502223e-13 1.36327329e-16 2.11013084e-13 8.55359871e-16 6.93502223e-13
6.02559586e+00 6.57619050e-13 4.58192375e-13 5.43001027e-17 1.99372375e-13 4.89792399e-16 4.58192375e-13
6.70000000e+00 5.20112390e-13 3.33290895e-13 2.67643850e-17 1.86794731e-13 3.04670057e-16 3.33290895e-13
6.92422916e+00 4.84313412e-13 3.01948975e-13 2.05603794e-17 1.82343877e-13 2.59527001e-16 3.01948975e-13
7.15596261e+00 4.53062239e-13 2.73554377e-13 1.56046357e-17 1.79492257e-13 2.19702121e-16 2.73554377e-13
7.39545150e+00 4.28545003e-13 2.47829944e-13 1.28739812e-17 1.80702185e-13 1.86241578e-16 2.47829944e-13
7.64295536e+00 4.18819689e-13 2.24524577e-13 9.57428738e-18 1.94285538e-13 1.59741577e-16 2.24524577e-13
7.89874245e+00 4.30392129e-13 2.03410795e-13 5.97341637e-18 2.26975361e-13 1.38658640e-16 2.03410795e-13
8.16308998e+00 4.59842582e-13 1.84282505e-13 4.01036876e-18 2.75556067e-13 1.19837260e-16 1.84282505e-13
8.43628443e+00 5.11576403e-13 1.66952996e-13 2.30121380e-18 3.44621106e-13 9.55315079e-17 1.66952996e-13
8.71862190e+00 5.46024103e-13 1.51253114e-13 1.45985024e-18 3.94769529e-13 7.31234197e-17 1.51253114e-13
9.01040836e+00 5.84797648e-13 1.37029614e-13 8.42365718e-19 4.47767192e-13 4.56939103e-17 1.37029614e-13
9.31196005e+00 6.15076112e-13 1.24143660e-13 0.00000000e+00 4.90932452e-13 0.00000000e+00 1.24143660e-13
9.62360379e+00 6.04059398e-13 1.12469472e-13 0.00000000e+00 4.91589926e-13 0.00000000e+00 1.12469472e-13
9.94567731e+00 5.63044853e-13 1.01893097e-13 0.00000000e+00 4.61151756e-13 0.00000000e+00 1.01893097e-13
1.02785297e+01 5.11990166e-13 9.23113014e-14 0.00000000e+00 4.19678865e-13 0.00000000e+00 9.23113014e-14
1.06225216e+01 4.64555449e-13 8.36305558e-14 0.00000000e+00 3.80924893e-13 0.00000000e+00 8.36305558e-14
1.09780260e+01 4.12136280e-13 7.57661279e-14 0.00000000e+00 3.36370152e-13 0.00000000e+00 7.57661279e-14
1.13454280e+01 3.65391456e-13 6.86412529e-14 0.00000000e+00 2.96750204e-13 0.00000000e+00 6.86412529e-14
1.17251259e+01 3.26020528e-13 6.21863851e-14 0.00000000e+00 2.63834143e-13 0.00000000e+00 6.21863851e-14
1.21175312e+01 2.89963205e-13 5.63385184e-14 0.00000000e+00 2.33624686e-13 0.00000000e+00 5.63385184e-14
1.25230691e+01 2.57366586e-13 5.10405718e-14 0.00000000e+00 2.06326015e-13 0.00000000e+00 5.10405718e-14
1.29421791e+01 2.29744451e-13 4.62408321e-14 0.00000000e+00 1.83503619e-13 0.00000000e+00 4.62408321e-14
1.33753155e+01 2.06039841e-13 4.18924490e-14 0.00000000e+00 1.64147392e-13 0.00000000e+00 4.18924490e-14
1.38229477e+01 1.89736461e-13 3.79529781e-14 0.00000000e+00 1.51783482e-13 0.00000000e+00 3.79529781e-14
1.42855609e+01 1.78950248e-13 3.43839660e-14 0.00000000e+00 1.44566282e-13 0.00000000e+00 3.43839660e-14
1.47636563e+01 1.77650148e-13 3.11505758e-14 0.00000000e+00 1.46499573e-13 0.00000000e+00 3.11505758e-14
1.52577522e+01 1.78460312e-13 2.82212462e-14 0.00000000e+00 1.50239066e-13 0.00000000e+00 2.82212462e-14
1.57683840e+01 1.81434407e-13 2.55673842e-14 0.00000000e+00 1.55867023e-13 0.00000000e+00 2.55673842e-14
1.62961051e+01 1.84400912e-13 2.31630853e-14 0.00000000e+00 1.61237827e-13 0.00000000e+00 2.31630853e-14
1.68414875e+01 1.87859969e-13 2.09848813e-14 0.00000000e+00 1.66875088e-13 0.00000000e+00 2.09848813e-14
1.74051222e+01 1.88432753e-13 1.90115106e-14 0.00000000e+00 1.69421243e-13 0.00000000e+00 1.90115106e-14
1.79876201e+01 1.87407538e-13 1.72237112e-14 0.00000000e+00 1.70183826e-13 0.00000000e+00 1.72237112e-14
1.85896125e+01 1.82683165e-13 1.56040325e-14 0.00000000e+00 1.67079132e-13 0.00000000e+00 1.56040325e-14
1.92117518e+01 1.75177815e-13 1.41366646e-14 0.00000000e+00 1.61041151e-13 0.00000000e+00 1.41366646e-14
1.98547123e+01 1.65726734e-13 1.28072847e-14 0.00000000e+00 1.52919450e-13 0.00000000e+00 1.28072847e-14
2.05191907e+01 1.56075642e-13 1.16029167e-14 0.00000000e+00 1.44472725e-13 0.00000000e+00 1.16029167e-14
2.12059073e+01 1.46690839e-13 1.05118047e-14 0.00000000e+00 1.36179034e-13 0.00000000e+00 1.05118047e-14
2.19156062e+01 1.38736484e-13 9.52329842e-15 0.00000000e+00 1.29213186e-13 0.00000000e+00 9.52329842e-15
2.26490567e+01 1.31142644e-13 8.62774902e-15 0.00000000e+00 1.22514895e-13 0.00000000e+00 8.62774902e-15
2.34070535e+01 1.24095505e-13 7.81641505e-15 0.00000000e+00 1.16279090e-13 0.00000000e+00 7.81641505e-15
2.41904183e+01 1.17658891e-13 7.08137710e-15 0.00000000e+00 1.10577514e-13 0.00000000e+00 7.08137710e-15
2.50000000e+01 1.11703889e-13 6.41546044e-15 0.00000000e+00 1.05288429e-13 0.00000000e+00 6.41546044e-15
2.75422870e+01 9.56088289e-14 4.79786316e-15 0.00000000e+00 9.08109658e-14 0.00000000e+00 4.79786316e-15
3.16227766e+01 7.55324913e-14 3.16991676e-15 0.00000000e+00 7.23625746e-14 0.00000000e+00 3.16991676e-15
3.63078055e+01 5.73102352e-14 2.09434323e-15 0.00000000e+00 5.52158920e-14 0.00000000e+00 2.09434323e-15
4.16869383e+01 4.10062012e-14 1.38371885e-15 0.00000000e+00 3.96224824e-14 0.00000000e+00 1.38371885e-15
4.78630092e+01 2.76205866e-14 9.14213979e-16 0.00000000e+00 2.67063726e-14 0.00000000e+00 9.14213979e-16
5.49540874e+01 1.76776399e-14 6.04015186e-16 0.00000000e+00 1.70736247e-14 0.00000000e+00 6.04015186e-16
6.30957344e+01 1.08618970e-14 3.99068876e-16 0.00000000e+00 1.04628281e-14 0.00000000e+00 3.99068876e-16
7.24435960e+01 6.46326691e-15 2.63662192e-16 0.00000000e+00 6.19960472e-15 0.00000000e+00 2.63662192e-16
8.31763771e+01 3.75547698e-15 1.74199882e-16 0.00000000e+00 3.58127710e-15 0.00000000e+00 1.74199882e-16
9.54992586e+01 2.14432423e-15 1.15092721e-16 0.00000000e+00 2.02923151e-15 0.00000000e+00 1.15092721e-16
1.09647820e+02 1.20887226e-15 7.60410067e-17 0.00000000e+00 1.13283126e-15 0.00000000e+00 7.60410067e-17
1.25892541e+02 6.82377525e-16 5.02397949e-17 0.00000000e+00 6.32137730e-16 0.00000000e+00 5.02397949e-17
1.44543977e+02 3.83653480e-16 3.31931033e-17 0.00000000e+00 3.50460376e-16 0.00000000e+00 3.31931033e-17
1.65958691e+02 2.06830992e-16 2.19304659e-17 0.00000000e+00 1.84900526e-16 0.00000000e+00 2.19304659e-17
1.90546072e+02 1.12050371e-16 1.44893151e-17 0.00000000e+00 9.75610560e-17 0.00000000e+00 1.44893151e-17
2.18776162e+02 6.09245632e-17 9.57299556e-18 0.00000000e+00 5.13515676e-17 0.00000000e+00 9.57299556e-18
2.51188643e+02 3.32376978e-17 6.32481544e-18 0.00000000e+00 2.69128824e-17 0.00000000e+00 6.32481544e-18
2.88403150e+02 1.82059740e-17 4.17876412e-18 0.00000000e+00 1.40272099e-17 0.00000000e+00 4.17876412e-18
3.31131121e+02 1.00465157e-17 2.76088208e-18 0.00000000e+00 7.28563366e-18 0.00000000e+00 2.76088208e-18
3.80189396e+02 5.59105422e-18 1.82409670e-18 0.00000000e+00 3.76695752e-18 0.00000000e+00 1.82409670e-18
4.36515832e+02 3.14676522e-18 1.20516874e-18 0.00000000e+00 1.94159648e-18 0.00000000e+00 1.20516874e-18
5.01187234e+02 1.79369289e-18 7.96247089e-19 0.00000000e+00 9.97445802e-19 0.00000000e+00 7.96247089e-19
5.75439937e+02 1.03707706e-18 5.26075235e-19 0.00000000e+00 5.11001828e-19 0.00000000e+00 5.26075235e-19
6.60693448e+02 6.08741614e-19 3.47574461e-19 0.00000000e+00 2.61167153e-19 0.00000000e+00 3.47574461e-19
7.58577575e+02 3.62840931e-19 2.29640169e-19 0.00000000e+00 1.33200762e-19 0.00000000e+00 2.29640169e-19
8.70963590e+02 2.19516285e-19 1.51721755e-19 0.00000000e+00 6.77945300e-20 0.00000000e+00 1.51721755e-19
1.00000000e+03 3.44385600e-20 0.00000000e+00 0.00000000e+00 3.44385600e-20 0.00000000e+00 0.00000000e+00
