# column 1: lambda (micron)
# column 2: total flux; lambda*F_lambda (W/m2)
# column 3: direct stellar flux; lambda*F_lambda (W/m2)
# column 4: scattered stellar flux; lambda*F_lambda (W/m2)
# column 5: total dust emission flux; lambda*F_lambda (W/m2)
# column 6: dust emission scattered flux; lambda*F_lambda (W/m2)
# column 7: transparent flux; lambda*F_lambda (W/m2)
1.00000000e-03 8.46529677e-13 8.46529401e-13 2.76343658e-19 0.00000000e+00 0.00000000e+00 8.46529401e-13
1.14815362e-03 9.99176554e-13 9.99176121e-13 4.33862243e-19 0.00000000e+00 0.00000000e+00 9.99176121e-13
1.31825674e-03 1.17934883e-12 1.17934819e-12 6.33941571e-19 0.00000000e+00 0.00000000e+00 1.17934819e-12
1.51356125e-03 1.39201003e-12 1.39200901e-12 1.02409160e-18 0.00000000e+00 0.00000000e+00 1.39200901e-12
1.73780083e-03 1.64301867e-12 1.64301696e-12 1.70992346e-18 0.00000000e+00 0.00000000e+00 1.64301696e-12
1.99526231e-03 1.93928993e-12 1.93928682e-12 3.11100560e-18 0.00000000e+00 0.00000000e+00 1.93928682e-12
2.29086765e-03 2.28898501e-12 2.28898025e-12 4.75814882e-18 0.00000000e+00 0.00000000e+00 2.28898025e-12
2.63026799e-03 2.70174040e-12 2.70173063e-12 9.77647330e-18 0.00000000e+00 0.00000000e+00 2.70173063e-12
3.01995172e-03 3.18892511e-12 3.18890841e-12 1.66982968e-17 0.00000000e+00 0.00000000e+00 3.18890841e-12
3.46736850e-03 3.76396127e-12 3.76393440e-12 2.68665108e-17 0.00000000e+00 0.00000000e+00 3.76393440e-12
3.98107171e-03 4.44269044e-12 4.44264945e-12 4.09863872e-17 0.00000000e+00 0.00000000e+00 4.44264945e-12
4.57088190e-03 5.24384431e-12 5.24375082e-12 9.34913721e-17 0.00000000e+00 0.00000000e+00 5.24375082e-12
5.24807460e-03 6.18949370e-12 6.18930730e-12 1.86400296e-16 0.00000000e+00 0.00000000e+00 6.18930730e-12
6.02559586e-03 7.30568689e-12 7.30536713e-12 3.19760911e-16 0.00000000e+00 0.00000000e+00 7.30536713e-12
6.91830971e-03 8.62315980e-12 8.62267558e-12 4.84223833e-16 0.00000000e+00 0.00000000e+00 8.62267558e-12
7.94328235e-03 1.01783355e-11 1.01775219e-11 8.13580213e-16 0.00000000e+00 0.00000000e+00 1.01775219e-11
9.12010839e-03 1.20140431e-11 1.20127391e-11 1.30398676e-15 0.00000000e+00 0.00000000e+00 1.20127391e-11
1.04712855e-02 1.34183937e-11 1.34165878e-11 1.80584656e-15 0.00000000e+00 0.00000000e+00 1.34165878e-11
1.20226443e-02 1.34192885e-11 1.34165878e-11 2.70066802e-15 1.88483982e-313 2.91402359e-316 1.34165878e-11
1.38038426e-02 1.34206013e-11 1.34165878e-11 4.01343580e-15 4.73817202e-274 1.06636523e-276 1.34165878e-11
1.58489319e-02 1.34214157e-11 1.34165878e-11 4.82786051e-15 9.33137185e-240 3.04947093e-242 1.34165878e-11
1.81970086e-02 1.34253108e-11 1.34165878e-11 8.72299745e-15 6.53276191e-210 3.08332399e-212 1.34165878e-11
2.08929613e-02 1.34275033e-11 1.34165878e-11 1.09154951e-14 5.75538604e-184 4.01099527e-186 1.34165878e-11
2.39883292e-02 1.34313330e-11 1.34165878e-11 1.47451748e-14 2.19533974e-161 2.01747718e-163 1.34165878e-11
2.75422870e-02 1.34365843e-11 1.34165878e-11 1.99964390e-14 9.81160349e-142 1.14971318e-143 1.34165878e-11
3.16227766e-02 1.34414483e-11 1.34165878e-11 2.48604406e-14 1.19414114e-124 1.74831446e-126 1.34165878e-11
3.63078055e-02 1.34444615e-11 1.34165878e-11 2.78737054e-14 8.44477060e-110 1.41450959e-111 1.34165878e-11
4.16869383e-02 1.34579183e-11 1.34165878e-11 4.13304485e-14 6.77407172e-97 1.56832696e-98 1.34165878e-11
4.78630092e-02 1.34722378e-11 1.34165878e-11 5.56499348e-14 1.09644650e-85 3.53002219e-87 1.34165878e-11
5.49540874e-02 1.34861271e-11 1.34165878e-11 6.95392599e-14 5.94491834e-76 2.42035615e-77 1.34165878e-11
6.30957344e-02 1.35033376e-11 1.34165878e-11 8.67497403e-14 2.29166537e-67 1.24020760e-68 1.34165878e-11
7.24435960e-02 1.35098310e-11 1.34165878e-11 9.32431196e-14 7.01658558e-60 4.26203326e-61 1.34165878e-11
8.31763771e-02 1.35071815e-11 1.34165878e-11 9.05936209e-14 2.10893464e-53 1.51835332e-54 1.34165878e-11
9.54992586e-02 1.35097226e-11 1.34165878e-11 9.31347895e-14 1.12500612e-47 9.87709841e-49 1.34165878e-11
1.09647820e-01 1.29045691e-11 1.28127470e-11 9.18221632e-14 1.16115308e-42 1.16635845e-43 1.28127470e-11
1.25892541e-01 1.20387539e-11 1.19575512e-11 8.12027458e-14 2.80141079e-38 2.82281074e-39 1.19575512e-11
1.44543977e-01 1.12311321e-11 1.11594361e-11 7.16959784e-14 1.76145338e-34 1.74222673e-35 1.11594361e-11
1.65958691e-01 1.04895850e-11 1.04145917e-11 7.49932859e-14 2.67357932e-31 3.00197205e-32 1.04145917e-11
1.90546072e-01 9.80591781e-12 9.71946251e-12 8.64552984e-14 1.13938763e-28 1.60268212e-29 9.71946251e-12
2.18776162e-01 9.16020486e-12 9.07073019e-12 8.94746625e-14 1.90821665e-26 3.05837462e-27 9.07073019e-12
2.51188643e-01 8.56486742e-12 8.46529796e-12 9.95694527e-14 2.52339346e-24 4.87389367e-25 8.46529796e-12
2.88403150e-01 7.98916636e-12 7.90027573e-12 8.88906293e-14 1.70742281e-22 3.27804013e-23 7.90027573e-12
3.31131121e-01 7.45720548e-12 7.37296631e-12 8.42391671e-14 6.29136050e-21 1.19300815e-21 7.37296631e-12
3.80189396e-01 6.95384458e-12 6.88085251e-12 7.29919236e-14 1.37651685e-19 2.59374583e-20 6.88085251e-12
4.36515832e-01 6.49067545e-12 6.42158520e-12 6.90883456e-14 1.90552855e-18 3.59086693e-19 6.42158520e-12
5.01187234e-01 6.05767985e-12 5.99297201e-12 6.46900751e-14 1.77675938e-17 3.39163623e-18 5.99297201e-12
5.75439937e-01 5.65139803e-12 5.59296690e-12 5.83134918e-14 1.17639555e-16 2.26111603e-17 5.59296690e-12
6.60693448e-01 5.27623141e-12 5.21966041e-12 5.59906334e-14 5.80366824e-16 1.12248197e-16 5.21966041e-12
7.58577575e-01 4.92424682e-12 4.87127053e-12 5.07393144e-14 2.23697246e-15 4.23685973e-16 4.87127053e-12
8.70963590e-01 4.59927438e-12 4.54613417e-12 4.60973124e-14 7.04289112e-15 1.29372964e-15 4.54613417e-12
1.00000000e+00 4.30099205e-12 4.24269927e-12 3.98523706e-14 1.84404093e-14 3.20596652e-15 4.24269927e-12
1.14815362e+00 4.03696247e-12 3.95951734e-12 3.53168125e-14 4.21283174e-14 6.69782012e-15 3.95951734e-12
1.31825674e+00 3.80988192e-12 3.69523659e-12 2.87660614e-14 8.58792764e-14 1.20842482e-14 3.69523659e-12
1.51356125e+00 3.62800588e-12 3.44859544e-12 2.34315048e-14 1.55978938e-13 1.87692388e-14 3.44859544e-12
1.73780083e+00 3.48915165e-12 3.21841652e-12 1.81551032e-14 2.52580025e-13 2.52367735e-14 3.21841652e-12
1.99526231e+00 3.38253305e-12 3.00360106e-12 1.34832375e-14 3.65448750e-13 2.84664955e-14 3.00360106e-12
2.29086765e+00 3.29472943e-12 2.80312361e-12 9.80481434e-15 4.81801004e-13 2.82732803e-14 2.80312361e-12
2.63026799e+00 3.21075694e-12 2.61602716e-12 6.74974736e-15 5.87980031e-13 2.48420421e-14 2.61602716e-12
3.01995172e+00 3.11946983e-12 2.44141860e-12 4.32622452e-15 6.73725005e-13 2.01142326e-14 2.44141860e-12
3.46736850e+00 3.01747600e-12 2.27846441e-12 2.81305245e-15 7.36198534e-13 1.49209174e-14 2.27846441e-12
3.98107171e+00 2.89907673e-12 2.12638671e-12 1.74794781e-15 7.70942071e-13 1.02869787e-14 2.12638671e-12
4.57088190e+00 2.76923968e-12 1.98445954e-12 1.04918237e-15 7.83730958e-13 6.78233711e-15 1.98445954e-12
5.24807460e+00 2.42129609e-12 1.64084388e-12 5.68972733e-16 7.79883245e-13 4.25076905e-15 1.64084388e-12
6.02559586e+00 1.84883473e-12 1.08409480e-12 2.26514622e-16 7.64513413e-13 2.54142191e-15 1.08409480e-12
6.70000000e+00 1.53365824e-12 7.88574724e-13 1.11148391e-16 7.44972365e-13 1.64537060e-15 7.88574724e-13
6.92422916e+00 1.45167774e-12 7.14418944e-13 8.79579929e-17 7.37170835e-13 1.41128644e-15 7.14418944e-13
7.15596261e+00 1.38184674e-12 6.47236606e-13 6.75958581e-17 7.34542538e-13 1.21746716e-15 6.47236606e-13
7.39545150e+00 1.33232429e-12 5.86371942e-13 5.15535143e-17 7.45900791e-13 1.03597218e-15 5.86371942e-13
7.64295536e+00 1.32934476e-12 5.31230854e-13 3.75906543e-17 7.98076317e-13 9.00557726e-16 5.31230854e-13
7.89874245e+00 1.39860903e-12 4.81275108e-13 2.50365558e-17 9.17308885e-13 7.71156162e-16 4.81275108e-13
8.16308998e+00 1.53222243e-12 4.36017088e-13 1.63718935e-17 1.09618897e-12 6.66324607e-16 4.36017088e-13
8.43628443e+00 1.74519649e-12 3.95015029e-13 9.49317991e-18 1.35017197e-12 5.37022339e-16 3.95015029e-13
8.71862190e+00 1.90251514e-12 3.57868711e-13 5.94329243e-18 1.54464049e-12 4.20867444e-16 3.57868711e-13
9.01040836e+00 2.07897953e-12 3.24215549e-13 3.22005817e-18 1.75476076e-12 2.74682653e-16 3.24215549e-13
9.31196005e+00 2.23424928e-12 2.93727053e-13 0.00000000e+00 1.94052223e-12 0.00000000e+00 2.93727053e-13
9.62360379e+00 2.23695498e-12 2.66105627e-13 0.00000000e+00 1.97084935e-12 0.00000000e+00 2.66105627e-13
9.94567731e+00 2.12751537e-12 2.41081657e-13 0.00000000e+00 1.88643371e-12 0.00000000e+00 2.41081657e-13
1.02785297e+01 1.97589736e-12 2.18410884e-13 0.00000000e+00 1.75748648e-12 0.00000000e+00 2.18410884e-13
1.06225216e+01 1.82833240e-12 1.97872020e-13 0.00000000e+00 1.63046038e-12 0.00000000e+00 1.97872020e-13
1.09780260e+01 1.65714370e-12 1.79264583e-13 0.00000000e+00 1.47787911e-12 0.00000000e+00 1.79264583e-13
1.13454280e+01 1.50747609e-12 1.62406948e-13 0.00000000e+00 1.34506914e-12 0.00000000e+00 1.62406948e-13
1.17251259e+01 1.37629612e-12 1.47134567e-13 0.00000000e+00 1.22916155e-12 0.00000000e+00 1.47134567e-13
1.21175312e+01 1.25589800e-12 1.33298366e-13 0.00000000e+00 1.12259964e-12 0.00000000e+00 1.33298366e-13
1.25230691e+01 1.14367954e-12 1.20763289e-13 0.00000000e+00 1.02291625e-12 0.00000000e+00 1.20763289e-13
1.29421791e+01 1.05069232e-12 1.09406983e-13 0.00000000e+00 9.41285340e-13 0.00000000e+00 1.09406983e-13
1.33753155e+01 9.66624992e-13 9.91185987e-14 0.00000000e+00 8.67506394e-13 0.00000000e+00 9.91185987e-14
1.38229477e+01 9.14878143e-13 8.97977103e-14 0.00000000e+00 8.25080432e-13 0.00000000e+00 8.97977103e-14
1.42855609e+01 8.88493527e-13 8.13533371e-14 0.00000000e+00 8.07140190e-13 0.00000000e+00 8.13533371e-14
1.47636563e+01 9.07430392e-13 7.37030537e-14 0.00000000e+00 8.33727339e-13 0.00000000e+00 7.37030537e-14
1.52577522e+01 9.37871665e-13 6.67721855e-14 0.00000000e+00 8.71099480e-13 0.00000000e+00 6.67721855e-14
1.57683840e+01 9.79093521e-13 6.04930805e-14 0.00000000e+00 9.18600441e-13 0.00000000e+00 6.04930805e-14
1.62961051e+01 1.02523256e-12 5.48044484e-14 0.00000000e+00 9.70428109e-13 0.00000000e+00 5.48044484e-14
1.68414875e+01 1.07263498e-12 4.96507622e-14 0.00000000e+00 1.02298422e-12 0.00000000e+00 4.96507622e-14
1.74051222e+01 1.10769640e-12 4.49817171e-14 0.00000000e+00 1.06271469e-12 0.00000000e+00 4.49817171e-14
1.79876201e+01 1.13110008e-12 4.07517384e-14 0.00000000e+00 1.09034834e-12 0.00000000e+00 4.07517384e-14
1.85896125e+01 1.13405081e-12 3.69195372e-14 0.00000000e+00 1.09713127e-12 0.00000000e+00 3.69195372e-14
1.92117518e+01 1.11849202e-12 3.34477076e-14 0.00000000e+00 1.08504431e-12 0.00000000e+00 3.34477076e-14
1.98547123e+01 1.08753063e-12 3.03023610e-14 0.00000000e+00 1.05722827e-12 0.00000000e+00 3.03023610e-14
2.05191907e+01 1.05218750e-12 2.74527957e-14 0.00000000e+00 1.02473470e-12 0.00000000e+00 2.74527957e-14
2.12059073e+01 1.01688042e-12 2.48711970e-14 0.00000000e+00 9.92009221e-13 0.00000000e+00 2.48711970e-14
2.19156062e+01 9.85943024e-13 2.25323660e-14 0.00000000e+00 9.63410658e-13 0.00000000e+00 2.25323660e-14
2.26490567e+01 9.56219948e-13 2.04134733e-14 0.00000000e+00 9.35806475e-13 0.00000000e+00 2.04134733e-14
2.34070535e+01 9.29043918e-13 1.84938366e-14 0.00000000e+00 9.10550082e-13 0.00000000e+00 1.84938366e-14
2.41904183e+01 9.04027556e-13 1.67547181e-14 0.00000000e+00 8.87272838e-13 0.00000000e+00 1.67547181e-14
2.50000000e+01 8.76414274e-13 1.51791424e-14 0.00000000e+00 8.61235132e-13 0.00000000e+00 1.51791424e-14
2.75422870e+01 8.03499648e-13 1.13518661e-14 0.00000000e+00 7.92147782e-13 0.00000000e+00 1.13518661e-14
3.16227766e+01 6.90826990e-13 7.50010357e-15 0.00000000e+00 6.83326887e-13 0.00000000e+00 7.50010357e-15
3.63078055e+01 5.64475125e-13 4.95526929e-15 0.00000000e+00 5.59519856e-13 0.00000000e+00 4.95526929e-15
4.16869383e+01 4.31578326e-13 3.27391395e-15 0.00000000e+00 4.28304412e-13 0.00000000e+00 3.27391395e-15
4.78630092e+01 3.07902646e-13 2.16305350e-15 0.00000000e+00 3.05739592e-13 0.00000000e+00 2.16305350e-15
5.49540874e+01 2.07123878e-13 1.42911527e-15 0.00000000e+00 2.05694763e-13 0.00000000e+00 1.42911527e-15
6.30957344e+01 1.32885153e-13 9.44207098e-16 0.00000000e+00 1.31940946e-13 0.00000000e+00 9.44207098e-16
7.24435960e+01 8.18913749e-14 6.23831443e-16 0.00000000e+00 8.12675434e-14 0.00000000e+00 6.23831443e-16
8.31763771e+01 4.89272040e-14 4.12161347e-16 0.00000000e+00 4.85150426e-14 0.00000000e+00 4.12161347e-16
9.54992586e+01 2.85460629e-14 2.72312302e-16 0.00000000e+00 2.82737506e-14 0.00000000e+00 2.72312302e-16
1.09647820e+02 1.63406118e-14 1.79914953e-16 0.00000000e+00 1.61606969e-14 0.00000000e+00 1.79914953e-16
1.25892541e+02 9.31654831e-15 1.18868631e-16 0.00000000e+00 9.19767968e-15 0.00000000e+00 1.18868631e-16
1.44543977e+02 5.26226322e-15 7.85357256e-17 0.00000000e+00 5.18372749e-15 0.00000000e+00 7.85357256e-17
1.65958691e+02 2.82719653e-15 5.18880394e-17 0.00000000e+00 2.77530849e-15 0.00000000e+00 5.18880394e-17
1.90546072e+02 1.51666478e-15 3.42820876e-17 0.00000000e+00 1.48238269e-15 0.00000000e+00 3.42820876e-17
2.18776162e+02 8.10913221e-16 2.26499507e-17 0.00000000e+00 7.88263270e-16 0.00000000e+00 2.26499507e-17
2.51188643e+02 4.31689036e-16 1.49646740e-17 0.00000000e+00 4.16724362e-16 0.00000000e+00 1.49646740e-17
2.88403150e+02 2.28690538e-16 9.88706207e-18 0.00000000e+00 2.18803476e-16 0.00000000e+00 9.88706207e-18
3.31131121e+02 1.20891351e-16 6.53231713e-18 0.00000000e+00 1.14359034e-16 0.00000000e+00 6.53231713e-18
3.80189396e+02 6.37599834e-17 4.31585913e-18 0.00000000e+00 5.94441243e-17 0.00000000e+00 4.31585913e-18
4.36515832e+02 3.36302807e-17 2.85145985e-18 0.00000000e+00 3.07788208e-17 0.00000000e+00 2.85145985e-18
5.01187234e+02 1.77572877e-17 1.88394084e-18 0.00000000e+00 1.58733469e-17 0.00000000e+00 1.88394084e-18
5.75439937e+02 9.40396816e-18 1.24470737e-18 0.00000000e+00 8.15926080e-18 0.00000000e+00 1.24470737e-18
6.60693448e+02 5.00441961e-18 8.22370004e-19 0.00000000e+00 4.18204960e-18 0.00000000e+00 8.22370004e-19
7.58577575e+02 2.68151226e-18 5.43334473e-19 0.00000000e+00 2.13817779e-18 0.00000000e+00 5.43334473e-19
8.70963590e+02 1.44953798e-18 3.58977527e-19 0.00000000e+00 1.09056046e-18 0.00000000e+00 3.58977527e-19
1.00000000e+03 5.54997750e-19 0.00000000e+00 0.00000000e+00 5.54997750e-19 0.00000000e+00 0.00000000e+00
