# column 1: lambda (micron)
# column 2: total flux; lambda*F_lambda (W/m2)
# column 3: direct stellar flux; lambda*F_lambda (W/m2)
# column 4: scattered stellar flux; lambda*F_lambda (W/m2)
# column 5: total dust emission flux; lambda*F_lambda (W/m2)
# column 6: dust emission scattered flux; lambda*F_lambda (W/m2)
# column 7: transparent flux; lambda*F_lambda (W/m2)
1.00000000e-03 8.46531672e-13 8.46529401e-13 2.27108820e-18 0.00000000e+00 0.00000000e+00 8.46529401e-13
1.14815362e-03 9.99179519e-13 9.99176121e-13 3.39799921e-18 0.00000000e+00 0.00000000e+00 9.99176121e-13
1.31825674e-03 1.17935320e-12 1.17934819e-12 5.00993879e-18 0.00000000e+00 0.00000000e+00 1.17934819e-12
1.51356125e-03 1.39201626e-12 1.39200901e-12 7.24803115e-18 0.00000000e+00 0.00000000e+00 1.39200901e-12
1.73780083e-03 1.64303041e-12 1.64301696e-12 1.34557783e-17 0.00000000e+00 0.00000000e+00 1.64301696e-12
1.99526231e-03 1.93930874e-12 1.93928682e-12 2.19176404e-17 0.00000000e+00 0.00000000e+00 1.93928682e-12
2.29086765e-03 2.28901423e-12 2.28898025e-12 3.39757991e-17 0.00000000e+00 0.00000000e+00 2.28898025e-12
2.63026799e-03 2.70179875e-12 2.70173063e-12 6.81225744e-17 0.00000000e+00 0.00000000e+00 2.70173063e-12
3.01995172e-03 3.18901725e-12 3.18890841e-12 1.08840173e-16 0.00000000e+00 0.00000000e+00 3.18890841e-12
3.46736850e-03 3.76411622e-12 3.76393440e-12 1.81813602e-16 0.00000000e+00 0.00000000e+00 3.76393440e-12
3.98107171e-03 4.44293986e-12 4.44264945e-12 2.90407339e-16 0.00000000e+00 0.00000000e+00 4.44264945e-12
4.57088190e-03 5.24444641e-12 5.24375082e-12 6.95587110e-16 0.00000000e+00 0.00000000e+00 5.24375082e-12
5.24807460e-03 6.19050641e-12 6.18930730e-12 1.19910265e-15 0.00000000e+00 0.00000000e+00 6.18930730e-12
6.02559586e-03 7.30752681e-12 7.30536713e-12 2.15967459e-15 0.00000000e+00 0.00000000e+00 7.30536713e-12
6.91830971e-03 8.62647804e-12 8.62267558e-12 3.80246325e-15 0.00000000e+00 0.00000000e+00 8.62267558e-12
7.94328235e-03 1.01837376e-11 1.01775219e-11 6.21563488e-15 2.07268931e-303 1.52970053e-305 1.01775219e-11
9.12010839e-03 1.20211783e-11 1.20127391e-11 8.43914001e-15 1.00627605e-264 8.52792382e-266 1.20127391e-11
1.04712855e-02 1.34288253e-11 1.34165878e-11 1.22374556e-14 3.99861081e-231 3.73479514e-233 1.34165878e-11
1.20226443e-02 1.34371957e-11 1.34165878e-11 2.06078595e-14 6.42874169e-202 1.26874537e-203 1.34165878e-11
1.38038426e-02 1.34421877e-11 1.34165878e-11 2.55998670e-14 1.77163441e-176 3.30549672e-178 1.34165878e-11
1.58489319e-02 1.34537050e-11 1.34165878e-11 3.71172076e-14 2.42964506e-154 5.25728112e-156 1.34165878e-11
1.81970086e-02 1.34726972e-11 1.34165878e-11 5.61093936e-14 4.40558229e-135 1.30483097e-136 1.34165878e-11
2.08929613e-02 1.34931546e-11 1.34165878e-11 7.65668036e-14 2.32170065e-118 7.14587013e-120 1.34165878e-11
2.39883292e-02 1.35127219e-11 1.34165878e-11 9.61340955e-14 8.23618279e-104 2.96000288e-105 1.34165878e-11
2.75422870e-02 1.35400112e-11 1.34165878e-11 1.23423363e-13 3.72795361e-91 1.60657123e-92 1.34165878e-11
3.16227766e-02 1.35693109e-11 1.34165878e-11 1.52723020e-13 3.66223619e-80 1.75665369e-81 1.34165878e-11
3.63078055e-02 1.35841248e-11 1.34165878e-11 1.67537005e-13 1.27850000e-70 6.67915207e-72 1.34165878e-11
4.16869383e-02 1.36417926e-11 1.34165878e-11 2.25204721e-13 2.45538199e-62 1.52827600e-63 1.34165878e-11
4.78630092e-02 1.36862947e-11 1.34165878e-11 2.69706885e-13 3.73735502e-55 2.75014942e-56 1.34165878e-11
5.49540874e-02 1.37128634e-11 1.34165878e-11 2.96275526e-13 6.23633069e-49 5.08733785e-50 1.34165878e-11
6.30957344e-02 1.37362455e-11 1.34165878e-11 3.19657623e-13 2.00388543e-43 1.71900878e-44 1.34165878e-11
7.24435960e-02 1.36995846e-11 1.34165878e-11 2.82996741e-13 1.14607091e-38 8.74503079e-40 1.34165878e-11
8.31763771e-02 1.37007506e-11 1.34165878e-11 2.84162780e-13 1.17600576e-34 8.77138123e-36 1.34165878e-11
9.54992586e-02 1.37032944e-11 1.34165878e-11 2.86706545e-13 3.32777258e-31 2.59553745e-32 1.34165878e-11
1.09647820e-01 1.31163896e-11 1.28127470e-11 3.03642635e-13 2.86084258e-28 2.47387899e-29 1.28127470e-11
1.25892541e-01 1.22555234e-11 1.19575512e-11 2.97972214e-13 9.34178182e-26 8.17832699e-27 1.19575512e-11
1.44543977e-01 1.14323639e-11 1.11594361e-11 2.72927809e-13 1.27875093e-23 1.08766491e-24 1.11594361e-11
1.65958691e-01 1.06940020e-11 1.04145917e-11 2.79410266e-13 6.52240122e-22 6.02988285e-23 1.04145917e-11
1.90546072e-01 1.00142763e-11 9.71946251e-12 2.94813732e-13 1.37737763e-20 1.44483252e-21 9.71946251e-12
2.18776162e-01 9.34274572e-12 9.07073019e-12 2.72015368e-13 1.62289625e-19 1.72992675e-20 9.07073019e-12
2.51188643e-01 8.77897789e-12 8.46529796e-12 3.13677940e-13 1.99032593e-18 2.50522707e-19 8.46529796e-12
2.88403150e-01 8.20028117e-12 7.90027573e-12 2.99988825e-13 1.66116765e-17 2.05856775e-18 7.90027573e-12
3.31131121e-01 7.64401951e-12 7.37296631e-12 2.70957818e-13 9.53897315e-17 1.15191815e-17 7.37296631e-12
3.80189396e-01 7.12768786e-12 6.88085251e-12 2.46436889e-13 3.98453678e-16 4.69563889e-17 6.88085251e-12
4.36515832e-01 6.65127234e-12 6.42158520e-12 2.28419519e-13 1.26761912e-15 1.48222682e-16 6.42158520e-12
5.01187234e-01 6.20833449e-12 5.99297201e-12 2.12146882e-13 3.21560238e-15 3.80054763e-16 5.99297201e-12
5.75439937e-01 5.79196791e-12 5.59296690e-12 1.91990970e-13 7.01003927e-15 8.84997009e-16 5.59296690e-12
6.60693448e-01 5.41226065e-12 5.21966041e-12 1.78141287e-13 1.44589528e-14 2.19479686e-15 5.21966041e-12
7.58577575e-01 5.06601515e-12 4.87127053e-12 1.63508423e-13 3.12361977e-14 5.88334927e-15 4.87127053e-12
8.70963590e-01 4.76534027e-12 4.54613417e-12 1.47389195e-13 7.18169029e-14 1.54453469e-14 4.54613417e-12
1.00000000e+00 4.53019077e-12 4.24269927e-12 1.24981387e-13 1.62510115e-13 3.59767377e-14 4.24269927e-12
1.14815362e+00 4.41946907e-12 3.95951734e-12 1.06804687e-13 3.53147048e-13 7.45817953e-14 3.95951734e-12
1.31825674e+00 4.49333665e-12 3.69523659e-12 8.97670072e-14 7.08333060e-13 1.35498020e-13 3.69523659e-12
1.51356125e+00 4.80126394e-12 3.44859544e-12 7.22429461e-14 1.28042556e-12 2.16517530e-13 3.44859544e-12
1.73780083e+00 5.34756304e-12 3.21841652e-12 5.88722939e-14 2.07027423e-12 2.99220962e-13 3.21841652e-12
1.99526231e+00 6.07280589e-12 3.00360106e-12 4.59803183e-14 3.02322451e-12 3.63890357e-13 3.00360106e-12
2.29086765e+00 6.83184688e-12 2.80312361e-12 3.42986849e-14 3.99442459e-12 3.81785964e-13 2.80312361e-12
2.63026799e+00 7.51924385e-12 2.61602716e-12 2.47843495e-14 4.87843234e-12 3.56388768e-13 2.61602716e-12
3.01995172e+00 8.00322521e-12 2.44141860e-12 1.70831152e-14 5.54472349e-12 2.97949292e-13 2.44141860e-12
3.46736850e+00 8.25018320e-12 2.27846441e-12 1.16318733e-14 5.96008692e-12 2.27058895e-13 2.27846441e-12
3.98107171e+00 8.20426839e-12 2.12638671e-12 7.45268171e-15 6.07042900e-12 1.57336218e-13 2.12638671e-12
4.57088190e+00 7.91398906e-12 1.98445954e-12 4.60982868e-15 5.92491969e-12 9.96339764e-14 1.98445954e-12
5.24807460e+00 7.25203518e-12 1.64084388e-12 2.50964435e-15 5.60868166e-12 5.99161455e-14 1.64084388e-12
6.02559586e+00 6.28895393e-12 1.08409480e-12 1.02231163e-15 5.20383682e-12 3.35746209e-14 1.08409480e-12
6.70000000e+00 5.62931195e-12 7.88574724e-13 5.00067847e-16 4.84023716e-12 2.06318627e-14 7.88574724e-13
6.92422916e+00 5.43141129e-12 7.14418944e-13 3.94110197e-16 4.71659824e-12 1.75201288e-14 7.14418944e-13
7.15596261e+00 5.28947503e-12 6.47236606e-13 3.14186325e-16 4.64192424e-12 1.48558714e-14 6.47236606e-13
7.39545150e+00 5.24616046e-12 5.86371942e-13 2.39844892e-16 4.65954868e-12 1.26166668e-14 5.86371942e-13
7.64295536e+00 5.47799660e-12 5.31230854e-13 1.74190298e-16 4.94659155e-12 1.09737505e-14 5.31230854e-13
7.89874245e+00 6.09301378e-12 4.81275108e-13 1.16507397e-16 5.61162216e-12 9.52970854e-15 4.81275108e-13
8.16308998e+00 6.94292481e-12 4.36017088e-13 7.29929341e-17 6.50683473e-12 8.23581246e-15 4.36017088e-13
8.43628443e+00 8.00479970e-12 3.95015029e-13 4.20697932e-17 7.60974260e-12 6.62364246e-15 3.95015029e-13
8.71862190e+00 8.60481404e-12 3.57868711e-13 2.49927894e-17 8.24692033e-12 5.08846928e-15 3.57868711e-13
9.01040836e+00 9.19958481e-12 3.24215549e-13 1.23826495e-17 8.87535687e-12 3.29842453e-15 3.24215549e-13
9.31196005e+00 9.60012143e-12 2.93727053e-13 0.00000000e+00 9.30639438e-12 0.00000000e+00 2.93727053e-13
9.62360379e+00 9.46613658e-12 2.66105627e-13 0.00000000e+00 9.20003095e-12 0.00000000e+00 2.66105627e-13
9.94567731e+00 8.97842291e-12 2.41081657e-13 0.00000000e+00 8.73734125e-12 0.00000000e+00 2.41081657e-13
1.02785297e+01 8.39311435e-12 2.18410884e-13 0.00000000e+00 8.17470346e-12 0.00000000e+00 2.18410884e-13
1.06225216e+01 7.81519858e-12 1.97872020e-13 0.00000000e+00 7.61732656e-12 0.00000000e+00 1.97872020e-13
1.09780260e+01 7.15493238e-12 1.79264583e-13 0.00000000e+00 6.97566780e-12 0.00000000e+00 1.79264583e-13
1.13454280e+01 6.52961728e-12 1.62406948e-13 0.00000000e+00 6.36721033e-12 0.00000000e+00 1.62406948e-13
1.17251259e+01 5.97893902e-12 1.47134567e-13 0.00000000e+00 5.83180445e-12 0.00000000e+00 1.47134567e-13
1.21175312e+01 5.45783689e-12 1.33298366e-13 0.00000000e+00 5.32453853e-12 0.00000000e+00 1.33298366e-13
1.25230691e+01 4.96780064e-12 1.20763289e-13 0.00000000e+00 4.84703735e-12 0.00000000e+00 1.20763289e-13
1.29421791e+01 4.51768070e-12 1.09406983e-13 0.00000000e+00 4.40827372e-12 0.00000000e+00 1.09406983e-13
1.33753155e+01 4.12973071e-12 9.91185987e-14 0.00000000e+00 4.03061212e-12 0.00000000e+00 9.91185987e-14
1.38229477e+01 3.85255028e-12 8.97977103e-14 0.00000000e+00 3.76275257e-12 0.00000000e+00 8.97977103e-14
1.42855609e+01 3.68851386e-12 8.13533371e-14 0.00000000e+00 3.60716052e-12 0.00000000e+00 8.13533371e-14
1.47636563e+01 3.70012814e-12 7.37030537e-14 0.00000000e+00 3.62642508e-12 0.00000000e+00 7.37030537e-14
1.52577522e+01 3.75689925e-12 6.67721855e-14 0.00000000e+00 3.69012707e-12 0.00000000e+00 6.67721855e-14
1.57683840e+01 3.83881569e-12 6.04930805e-14 0.00000000e+00 3.77832261e-12 0.00000000e+00 6.04930805e-14
1.62961051e+01 3.91036377e-12 5.48044484e-14 0.00000000e+00 3.85555932e-12 0.00000000e+00 5.48044484e-14
1.68414875e+01 3.99104330e-12 4.96507622e-14 0.00000000e+00 3.94139253e-12 0.00000000e+00 4.96507622e-14
1.74051222e+01 4.00316326e-12 4.49817171e-14 0.00000000e+00 3.95818154e-12 0.00000000e+00 4.49817171e-14
1.79876201e+01 3.97532541e-12 4.07517384e-14 0.00000000e+00 3.93457367e-12 0.00000000e+00 4.07517384e-14
1.85896125e+01 3.88736950e-12 3.69195372e-14 0.00000000e+00 3.85044996e-12 0.00000000e+00 3.69195372e-14
1.92117518e+01 3.72487994e-12 3.34477076e-14 0.00000000e+00 3.69143223e-12 0.00000000e+00 3.34477076e-14
1.98547123e+01 3.53384122e-12 3.03023610e-14 0.00000000e+00 3.50353886e-12 0.00000000e+00 3.03023610e-14
2.05191907e+01 3.32354053e-12 2.74527957e-14 0.00000000e+00 3.29608774e-12 0.00000000e+00 2.74527957e-14
2.12059073e+01 3.12334210e-12 2.48711970e-14 0.00000000e+00 3.09847091e-12 0.00000000e+00 2.48711970e-14
2.19156062e+01 2.94560222e-12 2.25323660e-14 0.00000000e+00 2.92306986e-12 0.00000000e+00 2.25323660e-14
2.26490567e+01 2.76816635e-12 2.04134733e-14 0.00000000e+00 2.74775288e-12 0.00000000e+00 2.04134733e-14
2.34070535e+01 2.59756830e-12 1.84938366e-14 0.00000000e+00 2.57907446e-12 0.00000000e+00 1.84938366e-14
2.41904183e+01 2.44249324e-12 1.67547181e-14 0.00000000e+00 2.42573853e-12 0.00000000e+00 1.67547181e-14
2.50000000e+01 2.29213765e-12 1.51791424e-14 0.00000000e+00 2.27695851e-12 0.00000000e+00 1.51791424e-14
2.75422870e+01 1.87935775e-12 1.13518661e-14 0.00000000e+00 1.86800588e-12 0.00000000e+00 1.13518661e-14
3.16227766e+01 1.37561465e-12 7.50010357e-15 0.00000000e+00 1.36811454e-12 0.00000000e+00 7.50010357e-15
3.63078055e+01 9.54680478e-13 4.95526929e-15 0.00000000e+00 9.49725209e-13 0.00000000e+00 4.95526929e-15
4.16869383e+01 6.21149989e-13 3.27391395e-15 0.00000000e+00 6.17876075e-13 0.00000000e+00 3.27391395e-15
4.78630092e+01 3.79903743e-13 2.16305350e-15 0.00000000e+00 3.77740690e-13 0.00000000e+00 2.16305350e-15
5.49540874e+01 2.21468726e-13 1.42911527e-15 0.00000000e+00 2.20039611e-13 0.00000000e+00 1.42911527e-15
6.30957344e+01 1.24514493e-13 9.44207098e-16 0.00000000e+00 1.23570286e-13 0.00000000e+00 9.44207098e-16
7.24435960e+01 6.82757219e-14 6.23831443e-16 0.00000000e+00 6.76518905e-14 0.00000000e+00 6.23831443e-16
8.31763771e+01 3.67867641e-14 4.12161347e-16 0.00000000e+00 3.63746028e-14 0.00000000e+00 4.12161347e-16
9.54992586e+01 1.96235642e-14 2.72312302e-16 0.00000000e+00 1.93512519e-14 0.00000000e+00 2.72312302e-16
1.09647820e+02 1.03995971e-14 1.79914953e-16 0.00000000e+00 1.02196822e-14 0.00000000e+00 1.79914953e-16
1.25892541e+02 5.55642623e-15 1.18868631e-16 0.00000000e+00 5.43755760e-15 0.00000000e+00 1.18868631e-16
1.44543977e+02 2.97235020e-15 7.85357256e-17 0.00000000e+00 2.89381447e-15 0.00000000e+00 7.85357256e-17
1.65958691e+02 1.52275324e-15 5.18880394e-17 0.00000000e+00 1.47086520e-15 0.00000000e+00 5.18880394e-17
1.90546072e+02 7.85935763e-16 3.42820876e-17 0.00000000e+00 7.51653675e-16 0.00000000e+00 3.42820876e-17
2.18776162e+02 4.07619118e-16 2.26499507e-17 0.00000000e+00 3.84969167e-16 0.00000000e+00 2.26499507e-17
2.51188643e+02 2.12030210e-16 1.49646740e-17 0.00000000e+00 1.97065536e-16 0.00000000e+00 1.49646740e-17
2.88403150e+02 1.10541974e-16 9.88706207e-18 0.00000000e+00 1.00654911e-16 0.00000000e+00 9.88706207e-18
3.31131121e+02 5.79074649e-17 6.53231713e-18 0.00000000e+00 5.13751477e-17 0.00000000e+00 6.53231713e-18
3.80189396e+02 3.04822768e-17 4.31585913e-18 0.00000000e+00 2.61664177e-17 0.00000000e+00 4.31585913e-18
4.36515832e+02 1.61645715e-17 2.85145985e-18 0.00000000e+00 1.33131116e-17 0.00000000e+00 2.85145985e-18
5.01187234e+02 8.64708880e-18 1.88394084e-18 0.00000000e+00 6.76314796e-18 0.00000000e+00 1.88394084e-18
5.75439937e+02 4.67623910e-18 1.24470737e-18 0.00000000e+00 3.43153173e-18 0.00000000e+00 1.24470737e-18
6.60693448e+02 2.56159947e-18 8.22370004e-19 0.00000000e+00 1.73922946e-18 0.00000000e+00 8.22370004e-19
7.58577575e+02 1.42399851e-18 5.43334473e-19 0.00000000e+00 8.80664033e-19 0.00000000e+00 5.43334473e-19
8.70963590e+02 8.04418174e-19 3.58977527e-19 0.00000000e+00 4.45440647e-19 0.00000000e+00 3.58977527e-19
1.00000000e+03 2.25057581e-19 0.00000000e+00 0.00000000e+00 2.25057581e-19 0.00000000e+00 0.00000000e+00
