# column 1: lambda (micron)
# column 2: total flux; lambda*F_lambda (W/m2)
# column 3: direct stellar flux; lambda*F_lambda (W/m2)
# column 4: scattered stellar flux; lambda*F_lambda (W/m2)
# column 5: total dust emission flux; lambda*F_lambda (W/m2)
# column 6: dust emission scattered flux; lambda*F_lambda (W/m2)
# column 7: transparent flux; lambda*F_lambda (W/m2)
1.00000000e-03 1.04632911e-12 1.04631737e-12 1.17334126e-17 0.00000000e+00 0.00000000e+00 1.04634360e-12
1.14815362e-03 1.23499797e-12 1.23498004e-12 1.79266296e-17 0.00000000e+00 0.00000000e+00 1.23502095e-12
1.31825674e-03 1.45768455e-12 1.45765932e-12 2.52230836e-17 0.00000000e+00 0.00000000e+00 1.45772071e-12
1.51356125e-03 1.72053208e-12 1.72049241e-12 3.96706829e-17 0.00000000e+00 0.00000000e+00 1.72057784e-12
1.73780083e-03 2.03079976e-12 2.03073165e-12 6.81012947e-17 0.00000000e+00 0.00000000e+00 2.03083353e-12
1.99526231e-03 2.39699185e-12 2.39687530e-12 1.16546936e-16 0.00000000e+00 0.00000000e+00 2.39703472e-12
2.29086765e-03 2.82924604e-12 2.82907001e-12 1.76033270e-16 0.00000000e+00 0.00000000e+00 2.82926954e-12
2.63026799e-03 3.33950707e-12 3.33916300e-12 3.44073341e-16 0.00000000e+00 0.00000000e+00 3.33944522e-12
3.01995172e-03 3.94180091e-12 3.94120412e-12 5.96787251e-16 0.00000000e+00 0.00000000e+00 3.94161611e-12
3.46736850e-03 4.65275400e-12 4.65179767e-12 9.56327790e-16 0.00000000e+00 0.00000000e+00 4.65237083e-12
3.98107171e-03 5.49203744e-12 5.49051493e-12 1.52250975e-15 0.00000000e+00 0.00000000e+00 5.49128930e-12
4.57088190e-03 6.48435816e-12 6.48087238e-12 3.48578389e-15 0.00000000e+00 0.00000000e+00 6.48148207e-12
5.24807460e-03 7.65549310e-12 7.64930791e-12 6.18519351e-15 0.00000000e+00 0.00000000e+00 7.65022704e-12
6.02559586e-03 9.14365359e-12 9.02841277e-12 1.15240819e-13 0.00000000e+00 0.00000000e+00 9.02972084e-12
6.91830971e-03 1.06969719e-11 1.06561840e-11 4.07879142e-14 0.00000000e+00 0.00000000e+00 1.06579658e-11
7.94328235e-03 1.26067451e-11 1.25774706e-11 2.92745114e-14 2.91523983e-304 8.91706964e-307 1.25798170e-11
9.12010839e-03 1.49054896e-11 1.48451443e-11 6.03453443e-14 1.25906653e-265 5.28737659e-268 1.48482176e-11
1.04712855e-02 1.66467521e-11 1.65797781e-11 6.69740068e-14 5.25559566e-232 3.08806735e-234 1.65834298e-11
1.20226443e-02 1.67239010e-11 1.65795626e-11 1.44338331e-13 8.15034466e-203 7.00237339e-205 1.65834298e-11
1.38038426e-02 1.67255845e-11 1.65793070e-11 1.46277504e-13 2.20039667e-177 2.34168457e-179 1.65834298e-11
1.58489319e-02 1.68128374e-11 1.65789929e-11 2.33844500e-13 2.96401464e-155 4.84099787e-157 1.65834298e-11
1.81970086e-02 1.68924845e-11 1.65787032e-11 3.13781229e-13 5.27520656e-136 1.20334373e-137 1.65834298e-11
2.08929613e-02 1.69669957e-11 1.65784624e-11 3.88533215e-13 2.75345263e-119 8.29869408e-121 1.65834298e-11
2.39883292e-02 1.70872454e-11 1.65781505e-11 5.09094904e-13 9.66684564e-105 3.69176965e-106 1.65834298e-11
2.75422870e-02 1.72005580e-11 1.65777876e-11 6.22770379e-13 4.33730521e-92 2.05755408e-93 1.65834298e-11
3.16227766e-02 1.72954984e-11 1.65774319e-11 7.18066482e-13 4.22924473e-81 2.28084014e-82 1.65834298e-11
3.63078055e-02 1.73391342e-11 1.65771529e-11 7.61981311e-13 1.46537301e-71 8.60049783e-73 1.65834298e-11
4.16869383e-02 1.75211877e-11 1.65769116e-11 9.44276103e-13 2.80423795e-63 2.02685251e-64 1.65834298e-11
4.78630092e-02 1.76194702e-11 1.65762465e-11 1.04322374e-12 4.24470296e-56 3.47705323e-57 1.65834298e-11
5.49540874e-02 1.76167469e-11 1.65753216e-11 1.04142535e-12 7.05775240e-50 6.29620881e-51 1.65834298e-11
6.30957344e-02 1.75683823e-11 1.65730026e-11 9.95379690e-13 2.26835180e-44 2.04697450e-45 1.65834298e-11
7.24435960e-02 1.74153789e-11 1.65702561e-11 8.45122752e-13 1.30108943e-39 1.03943524e-40 1.65834298e-11
8.31763771e-02 1.73746571e-11 1.65705005e-11 8.04156611e-13 1.32713465e-35 1.03398289e-36 1.65834298e-11
9.54992586e-02 1.73894634e-11 1.65712173e-11 8.18246132e-13 3.72221888e-32 2.88200111e-33 1.65834298e-11
1.09647820e-01 1.66896913e-11 1.58273692e-11 8.62322096e-13 3.15803594e-29 2.65387735e-30 1.58370587e-11
1.25892541e-01 1.56465838e-11 1.47725592e-11 8.74024646e-13 1.02705190e-26 9.18871195e-28 1.47800032e-11
1.44543977e-01 1.45927029e-11 1.37877431e-11 8.04959828e-13 1.39595656e-24 1.24170554e-25 1.37935015e-11
1.65958691e-01 1.36498706e-11 1.28681446e-11 7.81725962e-13 7.04088808e-23 6.48136432e-24 1.28728446e-11
1.90546072e-01 1.27789703e-11 1.20089581e-11 7.70012212e-13 1.47946306e-21 1.48473619e-22 1.20136376e-11
2.18776162e-01 1.18569791e-11 1.12066563e-11 6.50322781e-13 1.74224133e-20 1.71077349e-21 1.12117790e-11
2.51188643e-01 1.11429776e-11 1.04596174e-11 6.83359906e-13 2.10774106e-19 2.38026625e-20 1.04634409e-11
2.88403150e-01 1.04189084e-11 9.76208863e-12 6.56817986e-13 1.75387542e-18 1.98152618e-19 9.76505125e-12
3.31131121e-01 9.72285080e-12 9.11086582e-12 6.11974924e-13 1.00574710e-17 1.12058339e-18 9.11327608e-12
3.80189396e-01 9.04747872e-12 8.50302876e-12 5.44407510e-13 4.24501517e-17 4.83054865e-18 8.50500410e-12
4.36515832e-01 8.43503054e-12 7.93572721e-12 4.99161132e-13 1.42200677e-16 1.73730372e-17 7.93733165e-12
5.01187234e-01 7.85197987e-12 7.40626335e-12 4.45279040e-13 4.37485927e-16 6.85070141e-17 7.40754890e-12
5.75439937e-01 7.31389039e-12 6.91210744e-12 4.00327518e-13 1.45543034e-15 3.02536793e-16 6.91312687e-12
6.60693448e-01 6.80248693e-12 6.45090398e-12 3.46284656e-13 5.29829002e-15 1.29173249e-15 6.45170538e-12
7.58577575e-01 6.34286951e-12 6.02045944e-12 3.03790348e-13 1.86197181e-14 4.74446170e-15 6.02108180e-12
8.70963590e-01 5.94100572e-12 5.61872788e-12 2.64126739e-13 5.81511021e-14 1.43721021e-14 5.61920048e-12
1.00000000e+00 5.62001843e-12 5.24378993e-12 2.22015425e-13 1.54213070e-13 3.58582497e-14 5.24414302e-12
1.14815362e+00 5.43878249e-12 4.89385992e-12 1.85533250e-13 3.59389326e-13 7.52860985e-14 4.89411902e-12
1.31825674e+00 5.47308131e-12 4.56727079e-12 1.52001118e-13 7.53809400e-13 1.39775531e-13 4.56745763e-12
1.51356125e+00 5.79947473e-12 4.26246611e-12 1.21847453e-13 1.41516117e-12 2.30103511e-13 4.26259947e-12
1.73780083e+00 6.47727137e-12 3.97799564e-12 9.87009520e-14 2.40057478e-12 3.32997099e-13 3.97808929e-12
1.99526231e+00 7.46326392e-12 3.71250421e-12 7.86887573e-14 3.67207095e-12 4.15349006e-13 3.71256894e-12
2.29086765e+00 8.65753669e-12 3.46472633e-12 5.98867331e-14 5.13292363e-12 4.62729898e-13 3.46477093e-12
2.63026799e+00 9.94204693e-12 3.23348135e-12 4.43952189e-14 6.66417036e-12 4.61880330e-13 3.23351237e-12
3.01995172e+00 1.11645654e-11 3.01766748e-12 3.16774712e-14 8.11522050e-12 4.18817593e-13 3.01768933e-12
3.46736850e+00 1.21960257e-11 2.81625590e-12 2.17064512e-14 9.35806337e-12 3.50461823e-13 2.81627154e-12
3.98107171e+00 1.29410078e-11 2.62828619e-12 1.43594201e-14 1.02983622e-11 2.66226904e-13 2.62829753e-12
4.57088190e+00 1.33198074e-11 2.45286164e-12 9.09160193e-15 1.08578542e-11 1.87959823e-13 2.45286997e-12
5.24807460e+00 1.31657946e-11 2.02814197e-12 4.99507729e-15 1.11326576e-11 1.25397813e-13 2.02814751e-12
6.02559586e+00 1.25374322e-11 1.33998073e-12 2.08063543e-15 1.11953708e-11 7.89376660e-14 1.33998377e-12
6.70000000e+00 1.20546435e-11 9.74707389e-13 1.02305294e-15 1.10789131e-11 5.25392332e-14 9.74709347e-13
6.92422916e+00 1.18942396e-11 8.83048177e-13 8.15632154e-16 1.10103758e-11 4.60324956e-14 8.83049889e-13
7.15596261e+00 1.18087896e-11 8.00008355e-13 6.43779804e-16 1.10081375e-11 4.01213407e-14 8.00009879e-13
7.39545150e+00 1.18697340e-11 7.24777350e-13 4.89645019e-16 1.11444670e-11 3.45342940e-14 7.24778763e-13
7.64295536e+00 1.23390733e-11 6.56620752e-13 3.49337238e-16 1.16821032e-11 2.93953883e-14 6.56622211e-13
7.89874245e+00 1.34356148e-11 5.94873239e-13 2.25594887e-16 1.28405160e-11 2.43637281e-14 5.94874946e-13
8.16308998e+00 1.48256058e-11 5.38932166e-13 1.37295866e-16 1.42865364e-11 1.97212397e-14 5.38934254e-13
8.43628443e+00 1.66301509e-11 4.88251469e-13 7.52921680e-17 1.61418242e-11 1.51749494e-14 4.88254098e-13
8.71862190e+00 1.77370589e-11 4.42336863e-13 4.38092031e-17 1.72946782e-11 1.14921713e-14 4.42339790e-13
9.01040836e+00 1.88618792e-11 4.00739946e-13 2.08740602e-17 1.84611184e-11 7.64171455e-15 4.00743158e-13
9.31196005e+00 1.96267553e-11 3.63054805e-13 0.00000000e+00 1.92637005e-11 0.00000000e+00 3.63058180e-13
9.62360379e+00 1.96124398e-11 3.28913873e-13 0.00000000e+00 1.92835260e-11 0.00000000e+00 3.28917012e-13
9.94567731e+00 1.91254376e-11 2.97983734e-13 0.00000000e+00 1.88274539e-11 0.00000000e+00 2.97986401e-13
1.02785297e+01 1.85694682e-11 2.69962249e-13 0.00000000e+00 1.82995060e-11 0.00000000e+00 2.69964435e-13
1.06225216e+01 1.78417393e-11 2.44575819e-13 0.00000000e+00 1.75971635e-11 0.00000000e+00 2.44577592e-13
1.09780260e+01 1.71583765e-11 2.21576684e-13 0.00000000e+00 1.69367999e-11 0.00000000e+00 2.21578069e-13
1.13454280e+01 1.63977205e-11 2.00740283e-13 0.00000000e+00 1.61969802e-11 0.00000000e+00 2.00741370e-13
1.17251259e+01 1.57924220e-11 1.81863248e-13 0.00000000e+00 1.56105588e-11 0.00000000e+00 1.81864106e-13
1.21175312e+01 1.50919726e-11 1.64761343e-13 0.00000000e+00 1.49272112e-11 0.00000000e+00 1.64762018e-13
1.25230691e+01 1.44371125e-11 1.49267643e-13 0.00000000e+00 1.42878449e-11 0.00000000e+00 1.49268171e-13
1.29421791e+01 1.38414689e-11 1.35230914e-13 0.00000000e+00 1.37062380e-11 0.00000000e+00 1.35231331e-13
1.33753155e+01 1.32834635e-11 1.22514151e-13 0.00000000e+00 1.31609493e-11 0.00000000e+00 1.22514483e-13
1.38229477e+01 1.29240323e-11 1.10993223e-13 0.00000000e+00 1.28130391e-11 0.00000000e+00 1.10993499e-13
1.42855609e+01 1.27298275e-11 1.00555682e-13 0.00000000e+00 1.26292718e-11 0.00000000e+00 1.00555922e-13
1.47636563e+01 1.30283201e-11 9.10996433e-14 0.00000000e+00 1.29372204e-11 0.00000000e+00 9.10998706e-14
1.52577522e+01 1.34502962e-11 8.25328256e-14 0.00000000e+00 1.33677633e-11 0.00000000e+00 8.25330452e-14
1.57683840e+01 1.39138683e-11 7.47716098e-14 0.00000000e+00 1.38390967e-11 0.00000000e+00 7.47718247e-14
1.62961051e+01 1.43782441e-11 6.77402417e-14 0.00000000e+00 1.43105038e-11 0.00000000e+00 6.77404517e-14
1.68414875e+01 1.47873240e-11 6.13700883e-14 0.00000000e+00 1.47259539e-11 0.00000000e+00 6.13702932e-14
1.74051222e+01 1.50704570e-11 5.55989754e-14 0.00000000e+00 1.50148580e-11 0.00000000e+00 5.55991699e-14
1.79876201e+01 1.52570299e-11 5.03705683e-14 0.00000000e+00 1.52066593e-11 0.00000000e+00 5.03707500e-14
1.85896125e+01 1.52174280e-11 4.56338345e-14 0.00000000e+00 1.51717942e-11 0.00000000e+00 4.56339988e-14
1.92117518e+01 1.49763561e-11 4.13425366e-14 0.00000000e+00 1.49350136e-11 0.00000000e+00 4.13426810e-14
1.98547123e+01 1.46050990e-11 3.74547846e-14 0.00000000e+00 1.45676442e-11 0.00000000e+00 3.74549090e-14
2.05191907e+01 1.41945294e-11 3.39326282e-14 0.00000000e+00 1.41605968e-11 0.00000000e+00 3.39327342e-14
2.12059073e+01 1.37705694e-11 3.07416864e-14 0.00000000e+00 1.37398277e-11 0.00000000e+00 3.07417768e-14
2.19156062e+01 1.32758063e-11 2.78508124e-14 0.00000000e+00 1.32479555e-11 0.00000000e+00 2.78508898e-14
2.26490567e+01 1.28058891e-11 2.52317888e-14 0.00000000e+00 1.27806574e-11 0.00000000e+00 2.52318552e-14
2.34070535e+01 1.23445751e-11 2.28590517e-14 0.00000000e+00 1.23217160e-11 0.00000000e+00 2.28591087e-14
2.41904183e+01 1.18305825e-11 2.07094408e-14 0.00000000e+00 1.18098730e-11 0.00000000e+00 2.07094900e-14
2.50000000e+01 1.13373346e-11 1.87619740e-14 0.00000000e+00 1.13185726e-11 0.00000000e+00 1.87620165e-14
2.75422870e+01 9.86252151e-12 1.40313249e-14 0.00000000e+00 9.84849018e-12 0.00000000e+00 1.40313526e-14
3.16227766e+01 7.73358126e-12 9.27040752e-15 0.00000000e+00 7.72431086e-12 0.00000000e+00 9.27042274e-15
3.63078055e+01 5.68951529e-12 6.12489925e-15 0.00000000e+00 5.68339040e-12 0.00000000e+00 6.12490756e-15
4.16869383e+01 3.90645652e-12 4.04668187e-15 0.00000000e+00 3.90240984e-12 0.00000000e+00 4.04668630e-15
4.78630092e+01 2.50528094e-12 2.67361684e-15 0.00000000e+00 2.50260733e-12 0.00000000e+00 2.67361912e-15
5.49540874e+01 1.51959822e-12 1.76644149e-15 0.00000000e+00 1.51783178e-12 0.00000000e+00 1.76644264e-15
6.30957344e+01 8.84774156e-13 1.16707650e-15 0.00000000e+00 8.83607079e-13 0.00000000e+00 1.16707708e-15
7.24435960e+01 4.98108683e-13 7.71079894e-16 0.00000000e+00 4.97337603e-13 0.00000000e+00 7.71080178e-16
8.31763771e+01 2.74281152e-13 5.09447481e-16 0.00000000e+00 2.73771705e-13 0.00000000e+00 5.09447621e-16
9.54992586e+01 1.48704833e-13 3.36588636e-16 0.00000000e+00 1.48368245e-13 0.00000000e+00 3.36588705e-16
1.09647820e+02 7.97819961e-14 2.22381918e-16 0.00000000e+00 7.95596141e-14 0.00000000e+00 2.22381952e-16
1.25892541e+02 4.29818082e-14 1.46926282e-16 0.00000000e+00 4.28348819e-14 0.00000000e+00 1.46926299e-16
1.44543977e+02 2.31065461e-14 9.70732342e-17 0.00000000e+00 2.30094729e-14 0.00000000e+00 9.70732430e-17
1.65958691e+02 1.18654268e-14 6.41356513e-17 0.00000000e+00 1.18012911e-14 0.00000000e+00 6.41356556e-17
1.90546072e+02 6.11728092e-15 4.23740053e-17 0.00000000e+00 6.07490691e-15 0.00000000e+00 4.23740075e-17
2.18776162e+02 3.15725652e-15 2.79962280e-17 0.00000000e+00 3.12926029e-15 0.00000000e+00 2.79962291e-17
2.51188643e+02 1.62799420e-15 1.84969246e-17 0.00000000e+00 1.60949728e-15 0.00000000e+00 1.84969251e-17
2.88403150e+02 8.37576678e-16 1.22207970e-17 0.00000000e+00 8.25355881e-16 0.00000000e+00 1.22207972e-17
3.31131121e+02 4.30734893e-16 8.07420053e-18 0.00000000e+00 4.22660693e-16 0.00000000e+00 8.07420067e-18
3.80189396e+02 2.21197267e-16 5.33457141e-18 0.00000000e+00 2.15862695e-16 0.00000000e+00 5.33457148e-18
4.36515832e+02 1.13608210e-16 3.52451639e-18 0.00000000e+00 1.10083694e-16 0.00000000e+00 3.52451642e-18
5.01187234e+02 5.83615255e-17 2.32862489e-18 0.00000000e+00 5.60329006e-17 0.00000000e+00 2.32862491e-18
5.75439937e+02 3.00159330e-17 1.53850721e-18 0.00000000e+00 2.84774258e-17 0.00000000e+00 1.53850722e-18
6.60693448e+02 1.54700013e-17 1.01648164e-18 0.00000000e+00 1.44535196e-17 0.00000000e+00 1.01648164e-18
7.58577575e+02 7.99885849e-18 6.71582758e-19 0.00000000e+00 7.32727573e-18 0.00000000e+00 6.71582760e-19
8.70963590e+02 4.15357691e-18 4.43710328e-19 0.00000000e+00 3.70986659e-18 0.00000000e+00 4.43710329e-19
1.00000000e+03 1.87600137e-18 0.00000000e+00 0.00000000e+00 1.87600137e-18 0.00000000e+00 0.00000000e+00
