# column 1: lambda (micron)
# column 2: total flux; lambda*F_lambda (W/m2)
# column 3: direct stellar flux; lambda*F_lambda (W/m2)
# column 4: scattered stellar flux; lambda*F_lambda (W/m2)
# column 5: total dust emission flux; lambda*F_lambda (W/m2)
# column 6: dust emission scattered flux; lambda*F_lambda (W/m2)
# column 7: transparent flux; lambda*F_lambda (W/m2)
1.00000000e-03 1.04634447e-12 1.04634360e-12 8.69407340e-19 0.00000000e+00 0.00000000e+00 1.04634360e-12
1.14815362e-03 1.23502228e-12 1.23502095e-12 1.33569586e-18 0.00000000e+00 0.00000000e+00 1.23502095e-12
1.31825674e-03 1.45772271e-12 1.45772071e-12 1.99905340e-18 0.00000000e+00 0.00000000e+00 1.45772071e-12
1.51356125e-03 1.72058088e-12 1.72057784e-12 3.04774162e-18 0.00000000e+00 0.00000000e+00 1.72057784e-12
1.73780083e-03 2.03083912e-12 2.03083353e-12 5.59656542e-18 0.00000000e+00 0.00000000e+00 2.03083353e-12
1.99526231e-03 2.39704437e-12 2.39703472e-12 9.65443946e-18 0.00000000e+00 0.00000000e+00 2.39703472e-12
2.29086765e-03 2.82928416e-12 2.82926954e-12 1.46216269e-17 0.00000000e+00 0.00000000e+00 2.82926954e-12
2.63026799e-03 3.33947477e-12 3.33944522e-12 2.95429341e-17 0.00000000e+00 0.00000000e+00 3.33944522e-12
3.01995172e-03 3.94166394e-12 3.94161611e-12 4.78312896e-17 0.00000000e+00 0.00000000e+00 3.94161611e-12
3.46736850e-03 4.65244898e-12 4.65237083e-12 7.81453679e-17 0.00000000e+00 0.00000000e+00 4.65237083e-12
3.98107171e-03 5.49141137e-12 5.49128930e-12 1.22069131e-16 0.00000000e+00 0.00000000e+00 5.49128930e-12
4.57088190e-03 6.48176887e-12 6.48148207e-12 2.86798130e-16 0.00000000e+00 0.00000000e+00 6.48148207e-12
5.24807460e-03 7.65072371e-12 7.65022704e-12 4.96673736e-16 0.00000000e+00 0.00000000e+00 7.65022704e-12
6.02559586e-03 9.03063556e-12 9.02972084e-12 9.14717342e-16 0.00000000e+00 0.00000000e+00 9.02972084e-12
6.91830971e-03 1.06593224e-11 1.06579658e-11 1.35654152e-15 0.00000000e+00 0.00000000e+00 1.06579658e-11
7.94328235e-03 1.25821367e-11 1.25798170e-11 2.31964648e-15 0.00000000e+00 0.00000000e+00 1.25798170e-11
9.12010839e-03 1.48521818e-11 1.48482176e-11 3.96414452e-15 0.00000000e+00 0.00000000e+00 1.48482176e-11
1.04712855e-02 1.65883529e-11 1.65834298e-11 4.92314683e-15 0.00000000e+00 0.00000000e+00 1.65834298e-11
1.20226443e-02 1.65923719e-11 1.65834298e-11 8.94210028e-15 5.09768944e-312 1.28940418e-314 1.65834298e-11
1.38038426e-02 1.66025247e-11 1.65834298e-11 1.90949424e-14 1.21650279e-272 4.52074524e-275 1.65834298e-11
1.58489319e-02 1.65985242e-11 1.65834298e-11 1.50944280e-14 2.28987030e-238 1.20497245e-240 1.65834298e-11
1.81970086e-02 1.66080437e-11 1.65834298e-11 2.46138872e-14 1.54145635e-208 1.13002770e-210 1.65834298e-11
2.08929613e-02 1.66130893e-11 1.65834298e-11 2.96595528e-14 1.31300446e-182 1.38690553e-184 1.65834298e-11
2.39883292e-02 1.66235838e-11 1.65834298e-11 4.01540286e-14 4.87083569e-160 7.36515405e-162 1.65834298e-11
2.75422870e-02 1.66348655e-11 1.65834298e-11 5.14357272e-14 2.12183063e-140 3.89028523e-142 1.65834298e-11
3.16227766e-02 1.66484459e-11 1.65834298e-11 6.50161642e-14 2.52870473e-123 5.84505597e-125 1.65834298e-11
3.63078055e-02 1.66608155e-11 1.65834298e-11 7.73857281e-14 1.75572229e-108 4.70536347e-110 1.65834298e-11
4.16869383e-02 1.66930944e-11 1.65834298e-11 1.09664615e-13 1.39088491e-95 5.29240184e-97 1.65834298e-11
4.78630092e-02 1.67267252e-11 1.65834298e-11 1.43295454e-13 2.22635450e-84 1.15939794e-85 1.65834298e-11
5.49540874e-02 1.67673127e-11 1.65834298e-11 1.83882921e-13 1.19011862e-74 7.91345372e-76 1.65834298e-11
6.30957344e-02 1.68011546e-11 1.65834298e-11 2.17724856e-13 4.41179073e-66 3.69671542e-67 1.65834298e-11
7.24435960e-02 1.67902583e-11 1.65834298e-11 2.06828480e-13 1.19600042e-58 1.02990540e-59 1.65834298e-11
8.31763771e-02 1.67875107e-11 1.65834298e-11 2.04080889e-13 2.73343269e-52 2.41786145e-53 1.65834298e-11
9.54992586e-02 1.68044583e-11 1.65834298e-11 2.21028475e-13 9.69077464e-47 9.48759878e-48 1.65834298e-11
1.09647820e-01 1.60668102e-11 1.58370587e-11 2.29751450e-13 6.79128672e-42 7.85329485e-43 1.58370587e-11
1.25892541e-01 1.49835645e-11 1.47800032e-11 2.03561315e-13 1.26099428e-37 1.57300855e-38 1.47800032e-11
1.44543977e-01 1.39783991e-11 1.37935015e-11 1.84897566e-13 6.86480330e-34 9.09353169e-35 1.37935015e-11
1.65958691e-01 1.30670089e-11 1.28728446e-11 1.94164327e-13 9.78050210e-31 1.49209742e-31 1.28728446e-11
1.90546072e-01 1.22403496e-11 1.20136376e-11 2.26712015e-13 4.01221288e-28 7.45100893e-29 1.20136376e-11
2.18776162e-01 1.14348167e-11 1.12117790e-11 2.23037788e-13 6.57607373e-26 1.34906641e-26 1.12117790e-11
2.51188643e-01 1.07211742e-11 1.04634409e-11 2.57733226e-13 9.08699548e-24 2.29041247e-24 1.04634409e-11
2.88403150e-01 1.00100957e-11 9.76505125e-12 2.45044483e-13 6.46603219e-22 1.65113788e-22 9.76505125e-12
3.31131121e-01 9.33497511e-12 9.11327608e-12 2.21699004e-13 2.53342980e-20 6.53138703e-21 9.11327608e-12
3.80189396e-01 8.70579357e-12 8.50500410e-12 2.00788890e-13 5.87339488e-19 1.51959200e-19 8.50500410e-12
4.36515832e-01 8.12520193e-12 7.93733165e-12 1.87861637e-13 8.64009286e-18 2.25625378e-18 7.93733165e-12
5.01187234e-01 7.58661678e-12 7.40754890e-12 1.78982384e-13 8.55007023e-17 2.24386660e-17 7.40754890e-12
5.75439937e-01 7.07942033e-12 6.91312687e-12 1.65699826e-13 5.93632884e-16 1.57175654e-16 6.91312687e-12
6.60693448e-01 6.61079262e-12 6.45170538e-12 1.56035864e-13 3.05137003e-15 8.00646253e-16 6.45170538e-12
7.58577575e-01 6.17934153e-12 6.02108180e-12 1.46117191e-13 1.21425417e-14 3.14825584e-15 6.02108180e-12
8.70963590e-01 5.79068700e-12 5.61920048e-12 1.32271737e-13 3.92147812e-14 9.78864980e-15 5.61920048e-12
1.00000000e+00 5.46774918e-12 5.24414302e-12 1.18422423e-13 1.05183742e-13 2.48125473e-14 5.24414302e-12
1.14815362e+00 5.23861611e-12 4.89411902e-12 1.01370475e-13 2.43126610e-13 5.28769910e-14 4.89411902e-12
1.31825674e+00 5.14754957e-12 4.56745763e-12 8.27237299e-14 4.97368214e-13 9.65994477e-14 4.56745763e-12
1.51356125e+00 5.23104730e-12 4.26259947e-12 6.67328208e-14 9.01715004e-13 1.52859938e-13 4.26259947e-12
1.73780083e+00 5.48001151e-12 3.97808929e-12 5.34067903e-14 1.44851543e-12 2.06517545e-13 3.97808929e-12
1.99526231e+00 5.82403778e-12 3.71256894e-12 3.94430463e-14 2.07202579e-12 2.40631076e-13 3.71256894e-12
2.29086765e+00 6.16112833e-12 3.46477093e-12 2.85396688e-14 2.66781773e-12 2.36471207e-13 3.46477093e-12
2.63026799e+00 6.38571407e-12 3.23351237e-12 1.95824617e-14 3.13261924e-12 2.01916640e-13 3.23351237e-12
3.01995172e+00 6.44460825e-12 3.01768933e-12 1.27167261e-14 3.41420220e-12 1.55143818e-13 3.01768933e-12
3.46736850e+00 6.32877560e-12 2.81627154e-12 8.01163730e-15 3.50449242e-12 1.07838087e-13 2.81627154e-12
3.98107171e+00 6.02935248e-12 2.62829753e-12 4.87015122e-15 3.39618480e-12 6.80505096e-14 2.62829753e-12
4.57088190e+00 5.60171138e-12 2.45286997e-12 2.95498507e-15 3.14588642e-12 3.97991919e-14 2.45286997e-12
5.24807460e+00 4.86457300e-12 2.02814751e-12 1.49948632e-15 2.83492601e-12 2.21765040e-14 2.02814751e-12
6.02559586e+00 3.86215818e-12 1.33998377e-12 5.92306749e-16 2.52158210e-12 1.16614059e-14 1.33998377e-12
6.70000000e+00 3.25863341e-12 9.74709347e-13 2.84336837e-16 2.28363973e-12 6.90963830e-15 9.74709347e-13
6.92422916e+00 3.09456113e-12 8.83049889e-13 2.23564449e-16 2.21128768e-12 5.82774522e-15 8.83049889e-13
7.15596261e+00 2.96295472e-12 8.00009879e-13 1.76515380e-16 2.16276833e-12 4.87678959e-15 8.00009879e-13
7.39545150e+00 2.89931045e-12 7.24778763e-13 1.35147282e-16 2.17439654e-12 4.16840180e-15 7.24778763e-13
7.64295536e+00 3.00881780e-12 6.56622211e-13 9.97091266e-17 2.35209588e-12 3.66513505e-15 6.56622211e-13
7.89874245e+00 3.37442917e-12 5.94874946e-13 6.94119267e-17 2.77948481e-12 3.34667154e-15 5.94874946e-13
8.16308998e+00 3.93190777e-12 5.38934254e-13 4.65634559e-17 3.39292696e-12 3.05634520e-15 5.38934254e-13
8.43628443e+00 4.70189640e-12 4.88254098e-13 2.86296391e-17 4.21361367e-12 2.66390828e-15 4.88254098e-13
8.71862190e+00 5.21843978e-12 4.42339790e-13 1.75804297e-17 4.77608241e-12 2.08594250e-15 4.42339790e-13
9.01040836e+00 5.73975877e-12 4.00743158e-13 8.02442748e-18 5.33900758e-12 1.28647328e-15 4.00743158e-13
9.31196005e+00 6.11114999e-12 3.63058180e-13 0.00000000e+00 5.74809181e-12 0.00000000e+00 3.63058180e-13
9.62360379e+00 6.02691136e-12 3.28917012e-13 0.00000000e+00 5.69799435e-12 0.00000000e+00 3.28917012e-13
9.94567731e+00 5.62450979e-12 2.97986401e-13 0.00000000e+00 5.32652339e-12 0.00000000e+00 2.97986401e-13
1.02785297e+01 5.12840077e-12 2.69964435e-13 0.00000000e+00 4.85843634e-12 0.00000000e+00 2.69964435e-13
1.06225216e+01 4.64320265e-12 2.44577592e-13 0.00000000e+00 4.39862506e-12 0.00000000e+00 2.44577592e-13
1.09780260e+01 4.11256636e-12 2.21578069e-13 0.00000000e+00 3.89098829e-12 0.00000000e+00 2.21578069e-13
1.13454280e+01 3.64586549e-12 2.00741370e-13 0.00000000e+00 3.44512412e-12 0.00000000e+00 2.00741370e-13
1.17251259e+01 3.25143500e-12 1.81864106e-13 0.00000000e+00 3.06957089e-12 0.00000000e+00 1.81864106e-13
1.21175312e+01 2.89361921e-12 1.64762018e-13 0.00000000e+00 2.72885719e-12 0.00000000e+00 1.64762018e-13
1.25230691e+01 2.57052722e-12 1.49268171e-13 0.00000000e+00 2.42125905e-12 0.00000000e+00 1.49268171e-13
1.29421791e+01 2.30125556e-12 1.35231331e-13 0.00000000e+00 2.16602423e-12 0.00000000e+00 1.35231331e-13
1.33753155e+01 2.07213435e-12 1.22514483e-13 0.00000000e+00 1.94961986e-12 0.00000000e+00 1.22514483e-13
1.38229477e+01 1.92264814e-12 1.10993499e-13 0.00000000e+00 1.81165464e-12 0.00000000e+00 1.10993499e-13
1.42855609e+01 1.84220515e-12 1.00555922e-13 0.00000000e+00 1.74164923e-12 0.00000000e+00 1.00555922e-13
1.47636563e+01 1.86728101e-12 9.10998706e-14 0.00000000e+00 1.77618114e-12 0.00000000e+00 9.10998706e-14
1.52577522e+01 1.92030728e-12 8.25330452e-14 0.00000000e+00 1.83777424e-12 0.00000000e+00 8.25330452e-14
1.57683840e+01 1.99512000e-12 7.47718247e-14 0.00000000e+00 1.92034817e-12 0.00000000e+00 7.47718247e-14
1.62961051e+01 2.07402518e-12 6.77404517e-14 0.00000000e+00 2.00628472e-12 0.00000000e+00 6.77404517e-14
1.68414875e+01 2.15516644e-12 6.13702932e-14 0.00000000e+00 2.09379615e-12 0.00000000e+00 6.13702932e-14
1.74051222e+01 2.20720002e-12 5.55991699e-14 0.00000000e+00 2.15160085e-12 0.00000000e+00 5.55991699e-14
1.79876201e+01 2.23604200e-12 5.03707500e-14 0.00000000e+00 2.18567125e-12 0.00000000e+00 5.03707500e-14
1.85896125e+01 2.21984654e-12 4.56339988e-14 0.00000000e+00 2.17421254e-12 0.00000000e+00 4.56339988e-14
1.92117518e+01 2.16288822e-12 4.13426810e-14 0.00000000e+00 2.12154554e-12 0.00000000e+00 4.13426810e-14
1.98547123e+01 2.08113401e-12 3.74549090e-14 0.00000000e+00 2.04367910e-12 0.00000000e+00 3.74549090e-14
2.05191907e+01 1.99132936e-12 3.39327342e-14 0.00000000e+00 1.95739662e-12 0.00000000e+00 3.39327342e-14
2.12059073e+01 1.90354173e-12 3.07417768e-14 0.00000000e+00 1.87279995e-12 0.00000000e+00 3.07417768e-14
2.19156062e+01 1.82751941e-12 2.78508898e-14 0.00000000e+00 1.79966852e-12 0.00000000e+00 2.78508898e-14
2.26490567e+01 1.75212683e-12 2.52318552e-14 0.00000000e+00 1.72689498e-12 0.00000000e+00 2.52318552e-14
2.34070535e+01 1.68573347e-12 2.28591087e-14 0.00000000e+00 1.66287436e-12 0.00000000e+00 2.28591087e-14
2.41904183e+01 1.62189301e-12 2.07094900e-14 0.00000000e+00 1.60118352e-12 0.00000000e+00 2.07094900e-14
2.50000000e+01 1.56017784e-12 1.87620165e-14 0.00000000e+00 1.54141582e-12 0.00000000e+00 1.87620165e-14
2.75422870e+01 1.38472955e-12 1.40313526e-14 0.00000000e+00 1.37069820e-12 0.00000000e+00 1.40313526e-14
3.16227766e+01 1.13797512e-12 9.27042274e-15 0.00000000e+00 1.12870470e-12 0.00000000e+00 9.27042274e-15
3.63078055e+01 8.84553656e-13 6.12490756e-15 0.00000000e+00 8.78428748e-13 0.00000000e+00 6.12490756e-15
4.16869383e+01 6.40626848e-13 4.04668630e-15 0.00000000e+00 6.36580162e-13 0.00000000e+00 4.04668630e-15
4.78630092e+01 4.32607030e-13 2.67361912e-15 0.00000000e+00 4.29933411e-13 0.00000000e+00 2.67361912e-15
5.49540874e+01 2.75828501e-13 1.76644264e-15 0.00000000e+00 2.74062059e-13 0.00000000e+00 1.76644264e-15
6.30957344e+01 1.68279954e-13 1.16707708e-15 0.00000000e+00 1.67112877e-13 0.00000000e+00 1.16707708e-15
7.24435960e+01 9.91777701e-14 7.71080178e-16 0.00000000e+00 9.84066900e-14 0.00000000e+00 7.71080178e-16
8.31763771e+01 5.69692024e-14 5.09447621e-16 0.00000000e+00 5.64597548e-14 0.00000000e+00 5.09447621e-16
9.54992586e+01 3.21300994e-14 3.36588705e-16 0.00000000e+00 3.17935107e-14 0.00000000e+00 3.36588705e-16
1.09647820e+02 1.78721451e-14 2.22381952e-16 0.00000000e+00 1.76497632e-14 0.00000000e+00 2.22381952e-16
1.25892541e+02 9.94785765e-15 1.46926299e-16 0.00000000e+00 9.80093135e-15 0.00000000e+00 1.46926299e-16
1.44543977e+02 5.50906515e-15 9.70732430e-17 0.00000000e+00 5.41199191e-15 0.00000000e+00 9.70732430e-17
1.65958691e+02 2.90671804e-15 6.41356556e-17 0.00000000e+00 2.84258238e-15 0.00000000e+00 6.41356556e-17
1.90546072e+02 1.53673073e-15 4.23740075e-17 0.00000000e+00 1.49435672e-15 0.00000000e+00 4.23740075e-17
2.18776162e+02 8.12128453e-16 2.79962291e-17 0.00000000e+00 7.84132224e-16 0.00000000e+00 2.79962291e-17
2.51188643e+02 4.28382479e-16 1.84969251e-17 0.00000000e+00 4.09885554e-16 0.00000000e+00 1.84969251e-17
2.88403150e+02 2.25387358e-16 1.22207972e-17 0.00000000e+00 2.13166560e-16 0.00000000e+00 1.22207972e-17
3.31131121e+02 1.18582643e-16 8.07420067e-18 0.00000000e+00 1.10508443e-16 0.00000000e+00 8.07420067e-18
3.80189396e+02 6.23795282e-17 5.33457148e-18 0.00000000e+00 5.70449567e-17 0.00000000e+00 5.33457148e-18
4.36515832e+02 3.28866045e-17 3.52451642e-18 0.00000000e+00 2.93620881e-17 0.00000000e+00 3.52451642e-18
5.01187234e+02 1.73948403e-17 2.32862491e-18 0.00000000e+00 1.50662154e-17 0.00000000e+00 2.32862491e-18
5.75439937e+02 9.24936309e-18 1.53850722e-18 0.00000000e+00 7.71085587e-18 0.00000000e+00 1.53850722e-18
6.60693448e+02 4.95401527e-18 1.01648164e-18 0.00000000e+00 3.93753363e-18 0.00000000e+00 1.01648164e-18
7.58577575e+02 2.67832278e-18 6.71582760e-19 0.00000000e+00 2.00674002e-18 0.00000000e+00 6.71582760e-19
8.70963590e+02 1.46442408e-18 4.43710329e-19 0.00000000e+00 1.02071375e-18 0.00000000e+00 4.43710329e-19
1.00000000e+03 5.18224394e-19 0.00000000e+00 0.00000000e+00 5.18224394e-19 0.00000000e+00 0.00000000e+00
