# column 1: lambda (micron)
# column 2: total flux; lambda*F_lambda (W/m2)
# column 3: direct stellar flux; lambda*F_lambda (W/m2)
# column 4: scattered stellar flux; lambda*F_lambda (W/m2)
# column 5: total dust emission flux; lambda*F_lambda (W/m2)
# column 6: dust emission scattered flux; lambda*F_lambda (W/m2)
# column 7: transparent flux; lambda*F_lambda (W/m2)
1.00000000e-03 9.68073658e-13 9.68073281e-13 3.76745024e-19 0.00000000e+00 0.00000000e+00 9.68073281e-13
1.14815362e-03 1.14263746e-12 1.14263687e-12 5.91115676e-19 0.00000000e+00 0.00000000e+00 1.14263687e-12
1.31825674e-03 1.34867881e-12 1.34867788e-12 9.31495877e-19 0.00000000e+00 0.00000000e+00 1.34867788e-12
1.51356125e-03 1.59187372e-12 1.59187233e-12 1.39179100e-18 0.00000000e+00 0.00000000e+00 1.59187233e-12
1.73780083e-03 1.87892227e-12 1.87891976e-12 2.51375803e-18 0.00000000e+00 0.00000000e+00 1.87891976e-12
1.99526231e-03 2.21773205e-12 2.21772777e-12 4.28641598e-18 0.00000000e+00 0.00000000e+00 2.21772777e-12
2.29086765e-03 2.61763670e-12 2.61762985e-12 6.85914097e-18 0.00000000e+00 0.00000000e+00 2.61762985e-12
2.63026799e-03 3.08965583e-12 3.08964252e-12 1.33057430e-17 0.00000000e+00 0.00000000e+00 3.08964252e-12
3.01995172e-03 3.64679163e-12 3.64676883e-12 2.28060028e-17 0.00000000e+00 0.00000000e+00 3.64676883e-12
3.46736850e-03 4.30439349e-12 4.30435650e-12 3.69925475e-17 0.00000000e+00 0.00000000e+00 4.30435650e-12
3.98107171e-03 5.08061546e-12 5.08052080e-12 9.46603822e-17 0.00000000e+00 0.00000000e+00 5.08052080e-12
4.57088190e-03 5.99678121e-12 5.99664354e-12 1.37673236e-16 0.00000000e+00 0.00000000e+00 5.99664354e-12
5.24807460e-03 7.07819608e-12 7.07796211e-12 2.33964854e-16 0.00000000e+00 0.00000000e+00 7.07796211e-12
6.02559586e-03 8.35470515e-12 8.35426474e-12 4.40406726e-16 0.00000000e+00 0.00000000e+00 8.35426474e-12
6.91830971e-03 9.86137015e-12 9.86071107e-12 6.59078016e-16 0.00000000e+00 0.00000000e+00 9.86071107e-12
7.94328235e-03 1.16399096e-11 1.16388008e-11 1.10882449e-15 0.00000000e+00 0.00000000e+00 1.16388008e-11
9.12010839e-03 1.37393895e-11 1.37375167e-11 1.87278657e-15 0.00000000e+00 0.00000000e+00 1.37375167e-11
1.04712855e-02 1.53455862e-11 1.53429287e-11 2.65749127e-15 0.00000000e+00 0.00000000e+00 1.53429287e-11
1.20226443e-02 1.53465079e-11 1.53429287e-11 3.57922087e-15 2.45453144e-311 7.24791115e-314 1.53429287e-11
1.38038426e-02 1.53479311e-11 1.53429287e-11 5.00238596e-15 5.46151809e-272 2.47215075e-274 1.53429287e-11
1.58489319e-02 1.53499315e-11 1.53429287e-11 7.00288011e-15 9.65158115e-238 4.10075058e-240 1.53429287e-11
1.81970086e-02 1.53542801e-11 1.53429287e-11 1.13514169e-14 6.15744772e-208 3.70594175e-210 1.53429287e-11
2.08929613e-02 1.53579006e-11 1.53429287e-11 1.49719181e-14 5.00636987e-182 4.60133964e-184 1.53429287e-11
2.39883292e-02 1.53635844e-11 1.53429287e-11 2.06557032e-14 1.77826169e-159 1.93145632e-161 1.53429287e-11
2.75422870e-02 1.53707198e-11 1.53429287e-11 2.77911757e-14 7.48734619e-140 1.14671677e-141 1.53429287e-11
3.16227766e-02 1.53751177e-11 1.53429287e-11 3.21890601e-14 8.64626695e-123 1.67136392e-124 1.53429287e-11
3.63078055e-02 1.53831314e-11 1.53429287e-11 4.02027369e-14 5.84169307e-108 1.31541423e-109 1.53429287e-11
4.16869383e-02 1.53951758e-11 1.53429287e-11 5.22470860e-14 4.51152450e-95 1.43264998e-96 1.53429287e-11
4.78630092e-02 1.54182694e-11 1.53429287e-11 7.53407541e-14 7.06392540e-84 3.13104989e-85 1.53429287e-11
5.49540874e-02 1.54382080e-11 1.53429287e-11 9.52793333e-14 3.69955495e-74 2.10321786e-75 1.53429287e-11
6.30957344e-02 1.54616983e-11 1.53429287e-11 1.18769652e-13 1.34449450e-65 9.85171561e-67 1.53429287e-11
7.24435960e-02 1.54557672e-11 1.53429287e-11 1.12838520e-13 3.55421485e-58 2.67032979e-59 1.53429287e-11
8.31763771e-02 1.54560096e-11 1.53429287e-11 1.13080965e-13 7.73645257e-52 5.94049393e-53 1.53429287e-11
9.54992586e-02 1.54649528e-11 1.53429287e-11 1.22024133e-13 2.48899967e-46 2.09607169e-47 1.53429287e-11
1.09647820e-01 1.47745659e-11 1.46523889e-11 1.22177047e-13 1.47212474e-41 1.40325549e-42 1.46523889e-11
1.25892541e-01 1.37846571e-11 1.36744049e-11 1.10252162e-13 2.23133231e-37 2.20253309e-38 1.36744049e-11
1.44543977e-01 1.28571887e-11 1.27616972e-11 9.54915100e-14 1.00387427e-33 1.01673575e-34 1.27616972e-11
1.65958691e-01 1.20094292e-11 1.19099088e-11 9.95204024e-14 1.21027898e-30 1.43591992e-31 1.19099088e-11
1.90546072e-01 1.12346493e-11 1.11149736e-11 1.19675664e-13 4.35922483e-28 6.50729817e-29 1.11149736e-11
2.18776162e-01 1.04922728e-11 1.03730969e-11 1.19175860e-13 6.40835214e-26 1.08042944e-26 1.03730969e-11
2.51188643e-01 9.82234854e-12 9.68073733e-12 1.41611209e-13 7.72431551e-24 1.57779046e-24 9.68073733e-12
2.88403150e-01 9.16174242e-12 9.03458975e-12 1.27152665e-13 4.87196834e-22 9.93253354e-23 9.03458975e-12
3.31131121e-01 8.54393885e-12 8.43156974e-12 1.12369093e-13 1.69564968e-20 3.41487151e-21 8.43156974e-12
3.80189396e-01 7.97084059e-12 7.86879872e-12 1.02041507e-13 3.56235577e-19 7.13888872e-20 7.86879872e-12
4.36515832e-01 7.43754641e-12 7.34359025e-12 9.39513632e-14 4.79297167e-18 9.59688819e-19 7.34359025e-12
5.01187234e-01 6.94239882e-12 6.85343719e-12 8.89178019e-14 4.38314470e-17 8.86586301e-18 6.85343719e-12
5.75439937e-01 6.47964244e-12 6.39599973e-12 8.33559823e-14 2.86730611e-16 5.82150727e-17 6.39599973e-12
6.60693448e-01 6.04729705e-12 5.96909425e-12 7.68043008e-14 1.39849259e-15 2.82129251e-16 5.96909425e-12
7.58577575e-01 5.64778882e-12 5.57068288e-12 7.17004857e-14 5.40545320e-15 1.07623232e-15 5.57068288e-12
8.70963590e-01 5.28283643e-12 5.19886376e-12 6.69461289e-14 1.70265407e-14 3.26694826e-15 5.19886376e-12
1.00000000e+00 4.95448879e-12 4.85186196e-12 5.77815235e-14 4.48453029e-14 8.22474032e-15 4.85186196e-12
1.14815362e+00 4.68144311e-12 4.52802104e-12 5.01889246e-14 1.03233140e-13 1.74483356e-14 4.52802104e-12
1.31825674e+00 4.47917004e-12 4.22579511e-12 4.16741781e-14 2.11700745e-13 3.20872994e-14 4.22579511e-12
1.51356125e+00 4.36291522e-12 3.94374146e-12 3.34235392e-14 3.85750214e-13 5.06043569e-14 3.94374146e-12
1.73780083e+00 4.32962219e-12 3.68051368e-12 2.65253740e-14 6.22583135e-13 6.88858949e-14 3.68051368e-12
1.99526231e+00 4.35019084e-12 3.43485522e-12 1.88189427e-14 8.96516678e-13 7.89577665e-14 3.43485522e-12
2.29086765e+00 4.37689905e-12 3.20559341e-12 1.36730903e-14 1.15763255e-12 7.73668413e-14 3.20559341e-12
2.63026799e+00 4.36739920e-12 2.99163384e-12 8.96652092e-15 1.36679885e-12 6.61995894e-14 2.99163384e-12
3.01995172e+00 4.28931856e-12 2.79195514e-12 5.89593280e-15 1.49146748e-12 5.02585104e-14 2.79195514e-12
3.46736850e+00 4.13405310e-12 2.60560415e-12 3.70148258e-15 1.52474747e-12 3.42324920e-14 2.60560415e-12
3.98107171e+00 3.90424117e-12 2.43169128e-12 2.26337844e-15 1.47028651e-12 2.16093405e-14 2.43169128e-12
4.57088190e+00 3.62354935e-12 2.26938634e-12 1.30089948e-15 1.35286211e-12 1.26869781e-14 2.26938634e-12
5.24807460e+00 3.08367429e-12 1.87643467e-12 6.85612409e-16 1.20655401e-12 6.97676892e-15 1.87643467e-12
6.02559586e+00 2.30143015e-12 1.23974809e-12 2.66781314e-16 1.06141528e-12 3.65446125e-15 1.23974809e-12
6.70000000e+00 1.85463268e-12 9.01797527e-13 1.28872638e-16 9.52706284e-13 2.14228273e-15 9.01797527e-13
6.92422916e+00 1.73668204e-12 8.16994532e-13 1.01726537e-16 9.19585778e-13 1.78858411e-15 8.16994532e-13
7.15596261e+00 1.63843121e-12 7.40166218e-13 7.77244652e-17 8.98187268e-13 1.49722973e-15 7.40166218e-13
7.39545150e+00 1.57413998e-12 6.70562664e-13 6.11684838e-17 9.03516151e-13 1.27518434e-15 6.70562664e-13
7.64295536e+00 1.59087157e-12 6.07504471e-13 4.58051527e-17 9.83321291e-13 1.12027583e-15 6.07504471e-13
7.89874245e+00 1.72779332e-12 5.50376127e-13 3.11494026e-17 1.17738605e-12 1.02310825e-15 5.50376127e-13
8.16308998e+00 1.96092239e-12 4.98620004e-13 2.05687050e-17 1.46228182e-12 9.35021036e-16 4.98620004e-13
8.43628443e+00 2.30830692e-12 4.51730909e-13 1.29351270e-17 1.85656307e-12 8.26480592e-16 4.51730909e-13
8.71862190e+00 2.54345483e-12 4.09251158e-13 8.20451095e-18 2.13419547e-12 6.55019648e-16 4.09251158e-13
9.01040836e+00 2.78599145e-12 3.70766106e-13 3.99239484e-18 2.41522135e-12 4.16797957e-16 3.70766106e-13
9.31196005e+00 2.97383788e-12 3.35900102e-13 0.00000000e+00 2.63793778e-12 0.00000000e+00 3.35900102e-13
9.62360379e+00 2.91866380e-12 3.04312818e-13 0.00000000e+00 2.61435098e-12 0.00000000e+00 3.04312818e-13
9.94567731e+00 2.70118762e-12 2.75695930e-13 0.00000000e+00 2.42549169e-12 0.00000000e+00 2.75695930e-13
1.02785297e+01 2.43106522e-12 2.49770110e-13 0.00000000e+00 2.18129511e-12 0.00000000e+00 2.49770110e-13
1.06225216e+01 2.17871967e-12 2.26282295e-13 0.00000000e+00 1.95243738e-12 0.00000000e+00 2.26282295e-13
1.09780260e+01 1.90536169e-12 2.05003220e-13 0.00000000e+00 1.70035846e-12 0.00000000e+00 2.05003220e-13
1.13454280e+01 1.67284346e-12 1.85725182e-13 0.00000000e+00 1.48711827e-12 0.00000000e+00 1.85725182e-13
1.17251259e+01 1.47598581e-12 1.68260007e-13 0.00000000e+00 1.30772580e-12 0.00000000e+00 1.68260007e-13
1.21175312e+01 1.29872697e-12 1.52437217e-13 0.00000000e+00 1.14628975e-12 0.00000000e+00 1.52437217e-13
1.25230691e+01 1.14409039e-12 1.38102367e-13 0.00000000e+00 1.00598803e-12 0.00000000e+00 1.38102367e-13
1.29421791e+01 1.01518437e-12 1.25115533e-13 0.00000000e+00 8.90068839e-13 0.00000000e+00 1.25115533e-13
1.33753155e+01 9.06742714e-13 1.13349952e-13 0.00000000e+00 7.93392762e-13 0.00000000e+00 1.13349952e-13
1.38229477e+01 8.35338288e-13 1.02690779e-13 0.00000000e+00 7.32647508e-13 0.00000000e+00 1.02690779e-13
1.42855609e+01 7.93095580e-13 9.30339713e-14 0.00000000e+00 7.00061609e-13 0.00000000e+00 9.30339713e-14
1.47636563e+01 7.98010518e-13 8.42852675e-14 0.00000000e+00 7.13725250e-13 0.00000000e+00 8.42852675e-14
1.52577522e+01 8.13615402e-13 7.63592720e-14 0.00000000e+00 7.37256130e-13 0.00000000e+00 7.63592720e-14
1.57683840e+01 8.40393448e-13 6.91786191e-14 0.00000000e+00 7.71214829e-13 0.00000000e+00 6.91786191e-14
1.62961051e+01 8.68760681e-13 6.26732185e-14 0.00000000e+00 8.06087463e-13 0.00000000e+00 6.26732185e-14
1.68414875e+01 8.98083423e-13 5.67795711e-14 0.00000000e+00 8.41303851e-13 0.00000000e+00 5.67795711e-14
1.74051222e+01 9.15452015e-13 5.14401489e-14 0.00000000e+00 8.64011866e-13 0.00000000e+00 5.14401489e-14
1.79876201e+01 9.23075094e-13 4.66028339e-14 0.00000000e+00 8.76472261e-13 0.00000000e+00 4.66028339e-14
1.85896125e+01 9.11505909e-13 4.22204090e-14 0.00000000e+00 8.69285500e-13 0.00000000e+00 4.22204090e-14
1.92117518e+01 8.84385490e-13 3.82500974e-14 0.00000000e+00 8.46135393e-13 0.00000000e+00 3.82500974e-14
1.98547123e+01 8.46415600e-13 3.46531450e-14 0.00000000e+00 8.11762455e-13 0.00000000e+00 3.46531450e-14
2.05191907e+01 8.05300341e-13 3.13944418e-14 0.00000000e+00 7.73905899e-13 0.00000000e+00 3.13944418e-14
2.12059073e+01 7.67012334e-13 2.84421796e-14 0.00000000e+00 7.38570155e-13 0.00000000e+00 2.84421796e-14
2.19156062e+01 7.33693959e-13 2.57675415e-14 0.00000000e+00 7.07926417e-13 0.00000000e+00 2.57675415e-14
2.26490567e+01 7.03036268e-13 2.33444203e-14 0.00000000e+00 6.79691848e-13 0.00000000e+00 2.33444203e-14
2.34070535e+01 6.74941485e-13 2.11491639e-14 0.00000000e+00 6.53792321e-13 0.00000000e+00 2.11491639e-14
2.41904183e+01 6.48507820e-13 1.91603445e-14 0.00000000e+00 6.29347476e-13 0.00000000e+00 1.91603445e-14
2.50000000e+01 6.24073536e-13 1.73585491e-14 0.00000000e+00 6.06714987e-13 0.00000000e+00 1.73585491e-14
2.75422870e+01 5.56182516e-13 1.29817562e-14 0.00000000e+00 5.43200760e-13 0.00000000e+00 1.29817562e-14
3.16227766e+01 4.64605892e-13 8.57696126e-15 0.00000000e+00 4.56028931e-13 0.00000000e+00 8.57696126e-15
3.63078055e+01 3.69995509e-13 5.66674211e-15 0.00000000e+00 3.64328767e-13 0.00000000e+00 5.66674211e-15
4.16869383e+01 2.76178207e-13 3.74397938e-15 0.00000000e+00 2.72434228e-13 0.00000000e+00 3.74397938e-15
4.78630092e+01 1.92610780e-13 2.47362265e-15 0.00000000e+00 1.90137158e-13 0.00000000e+00 2.47362265e-15
5.49540874e+01 1.27009813e-13 1.63430628e-15 0.00000000e+00 1.25375507e-13 0.00000000e+00 1.63430628e-15
6.30957344e+01 8.00579725e-14 1.07977545e-15 0.00000000e+00 7.89781970e-14 0.00000000e+00 1.07977545e-15
7.24435960e+01 4.86472482e-14 7.13400564e-16 0.00000000e+00 4.79338477e-14 0.00000000e+00 7.13400564e-16
8.31763771e+01 2.87455858e-14 4.71339078e-16 0.00000000e+00 2.82742468e-14 0.00000000e+00 4.71339078e-16
9.54992586e+01 1.66334126e-14 3.11410641e-16 0.00000000e+00 1.63220019e-14 0.00000000e+00 3.11410641e-16
1.09647820e+02 9.46698473e-15 2.05746970e-16 0.00000000e+00 9.26123776e-15 0.00000000e+00 2.05746970e-16
1.25892541e+02 5.37728265e-15 1.35935675e-16 0.00000000e+00 5.24134697e-15 0.00000000e+00 1.35935675e-16
1.44543977e+02 3.03166642e-15 8.98118099e-17 0.00000000e+00 2.94185461e-15 0.00000000e+00 8.98118099e-17
1.65958691e+02 1.62733621e-15 5.93380743e-17 0.00000000e+00 1.56799814e-15 0.00000000e+00 5.93380743e-17
1.90546072e+02 8.73906735e-16 3.92042769e-17 0.00000000e+00 8.34702458e-16 0.00000000e+00 3.92042769e-17
2.18776162e+02 4.68626472e-16 2.59020089e-17 0.00000000e+00 4.42724463e-16 0.00000000e+00 2.59020089e-17
2.51188643e+02 2.50679844e-16 1.71132876e-17 0.00000000e+00 2.33566556e-16 0.00000000e+00 1.71132876e-17
2.88403150e+02 1.33741099e-16 1.13066370e-17 0.00000000e+00 1.22434462e-16 0.00000000e+00 1.13066370e-17
3.31131121e+02 7.13754525e-17 7.47022097e-18 0.00000000e+00 6.39052315e-17 0.00000000e+00 7.47022097e-18
3.80189396e+02 3.81177916e-17 4.93552605e-18 0.00000000e+00 3.31822656e-17 0.00000000e+00 4.93552605e-18
4.36515832e+02 2.04266774e-17 3.26086972e-18 0.00000000e+00 1.71658076e-17 0.00000000e+00 3.26086972e-18
5.01187234e+02 1.10008358e-17 2.15443526e-18 0.00000000e+00 8.84640053e-18 0.00000000e+00 2.15443526e-18
5.75439937e+02 5.96794959e-18 1.42342126e-18 0.00000000e+00 4.54452833e-18 0.00000000e+00 1.42342126e-18
6.60693448e+02 3.26860375e-18 9.40445101e-19 0.00000000e+00 2.32815865e-18 0.00000000e+00 9.40445101e-19
7.58577575e+02 1.81118922e-18 6.21345916e-19 0.00000000e+00 1.18984330e-18 0.00000000e+00 6.21345916e-19
8.70963590e+02 1.01718330e-18 4.10519176e-19 0.00000000e+00 6.06664125e-19 0.00000000e+00 4.10519176e-19
1.00000000e+03 3.08650110e-19 0.00000000e+00 0.00000000e+00 3.08650110e-19 0.00000000e+00 0.00000000e+00
