# column 1: lambda (micron)
# column 2: total flux; lambda*F_lambda (W/m2)
# column 3: direct stellar flux; lambda*F_lambda (W/m2)
# column 4: scattered stellar flux; lambda*F_lambda (W/m2)
# column 5: total dust emission flux; lambda*F_lambda (W/m2)
# column 6: dust emission scattered flux; lambda*F_lambda (W/m2)
# column 7: transparent flux; lambda*F_lambda (W/m2)
1.00000000e-03 3.57769342e-13 3.57768200e-13 1.14197609e-18 0.00000000e+00 0.00000000e+00 3.57785423e-13
1.14815362e-03 4.22276459e-13 4.22274660e-13 1.79891285e-18 0.00000000e+00 0.00000000e+00 4.22301518e-13
1.31825674e-03 4.98413819e-13 4.98410891e-13 2.92775771e-18 0.00000000e+00 0.00000000e+00 4.98451197e-13
1.51356125e-03 5.88280253e-13 5.88276146e-13 4.10649596e-18 0.00000000e+00 0.00000000e+00 5.88332233e-13
1.73780083e-03 6.94360445e-13 6.94353791e-13 6.65398250e-18 0.00000000e+00 0.00000000e+00 6.94420676e-13
1.99526231e-03 8.19547225e-13 8.19534387e-13 1.28379986e-17 0.00000000e+00 0.00000000e+00 8.19639053e-13
2.29086765e-03 9.67325479e-13 9.67305884e-13 1.95946429e-17 0.00000000e+00 0.00000000e+00 9.67436888e-13
2.63026799e-03 1.14174061e-12 1.14170043e-12 4.01802131e-17 0.00000000e+00 0.00000000e+00 1.14188572e-12
3.01995172e-03 1.34758451e-12 1.34752079e-12 6.37162248e-17 0.00000000e+00 0.00000000e+00 1.34779128e-12
3.46736850e-03 1.59055660e-12 1.59044956e-12 1.07032916e-16 0.00000000e+00 0.00000000e+00 1.59082586e-12
3.98107171e-03 1.87736378e-12 1.87717620e-12 1.87584175e-16 0.00000000e+00 0.00000000e+00 1.87768459e-12
4.57088190e-03 2.21629110e-12 2.21586958e-12 4.21521588e-16 0.00000000e+00 0.00000000e+00 2.21626987e-12
5.24807460e-03 2.61592708e-12 2.61530562e-12 6.21463410e-16 0.00000000e+00 0.00000000e+00 2.61590907e-12
6.02559586e-03 3.08794715e-12 3.08675266e-12 1.19449109e-15 0.00000000e+00 0.00000000e+00 3.08761145e-12
6.91830971e-03 3.64564106e-12 3.64320165e-12 2.43940545e-15 0.00000000e+00 0.00000000e+00 3.64437151e-12
7.94328235e-03 4.30400720e-12 4.29998641e-12 4.02079369e-15 7.37741225e-304 1.63511836e-305 4.30152690e-12
9.12010839e-03 5.08078036e-12 5.07516327e-12 5.61708531e-15 3.14036724e-265 7.73395140e-267 5.07718096e-12
1.04712855e-02 5.67662674e-12 5.66811988e-12 8.50686502e-15 1.33841885e-231 7.89259418e-233 5.67051724e-12
1.20226443e-02 5.68053108e-12 5.66797842e-12 1.25526575e-14 2.02915491e-202 1.00831209e-203 5.67051724e-12
1.38038426e-02 5.68269452e-12 5.66781064e-12 1.48838744e-14 5.37937773e-177 2.42038486e-178 5.67051724e-12
1.58489319e-02 5.69445008e-12 5.66760447e-12 2.68456168e-14 7.27716702e-155 4.73080227e-156 5.67051724e-12
1.81970086e-02 5.70546746e-12 5.66741431e-12 3.80531565e-14 1.26919508e-135 7.79593981e-137 5.67051724e-12
2.08929613e-02 5.72518882e-12 5.66725625e-12 5.79325635e-14 6.53613287e-119 4.24480050e-120 5.67051724e-12
2.39883292e-02 5.72196578e-12 5.66705147e-12 5.49143099e-14 2.24866175e-104 1.38563238e-105 5.67051724e-12
2.75422870e-02 5.73965675e-12 5.66681328e-12 7.28434705e-14 9.94246304e-92 6.61195467e-93 5.67051724e-12
3.16227766e-02 5.74496844e-12 5.66657982e-12 7.83886254e-14 9.52245236e-81 6.22922834e-82 5.67051724e-12
3.63078055e-02 5.74392553e-12 5.66639671e-12 7.75288272e-14 3.25538695e-71 2.10583902e-72 5.67051724e-12
4.16869383e-02 5.76658358e-12 5.66623833e-12 1.00345247e-13 6.11992992e-63 4.12061186e-64 5.67051724e-12
4.78630092e-02 5.77706039e-12 5.66580181e-12 1.11258585e-13 9.08161193e-56 6.34851623e-57 5.67051724e-12
5.49540874e-02 5.77647555e-12 5.66519479e-12 1.11280761e-13 1.46885095e-49 9.98618284e-51 5.67051724e-12
6.30957344e-02 5.76613235e-12 5.66367297e-12 1.02459382e-13 4.53952892e-44 3.08931705e-45 5.67051724e-12
7.24435960e-02 5.74743689e-12 5.66187089e-12 8.55660002e-14 2.52307125e-39 1.61327837e-40 5.67051724e-12
8.31763771e-02 5.74555182e-12 5.66203122e-12 8.35205939e-14 2.57921066e-35 1.57854594e-36 5.67051724e-12
9.54992586e-02 5.75226199e-12 5.66250150e-12 8.97604897e-14 7.28638344e-32 4.40226780e-33 5.67051724e-12
1.09647820e-01 5.50125603e-12 5.40894393e-12 9.23121053e-14 6.35387668e-29 4.16088184e-30 5.41530405e-12
1.25892541e-01 5.13965962e-12 5.04896937e-12 9.06902503e-14 2.11178113e-26 1.40467135e-27 5.05385580e-12
1.44543977e-01 4.79480817e-12 4.71275254e-12 8.20556297e-14 2.93671552e-24 1.88379964e-25 4.71653266e-12
1.65958691e-01 4.47904030e-12 4.39863899e-12 8.04013150e-14 1.50003674e-22 9.91936481e-24 4.40172439e-12
1.90546072e-01 4.18617899e-12 4.10485633e-12 8.13226484e-14 3.12194824e-21 2.28783772e-22 4.10792822e-12
2.18776162e-01 3.90390758e-12 3.83037900e-12 7.35285476e-14 3.61999973e-20 2.70797112e-21 3.83374167e-12
2.51188643e-01 3.65340364e-12 3.57534591e-12 7.80572799e-14 4.46870126e-19 3.76256182e-20 3.57785591e-12
2.88403150e-01 3.40949286e-12 3.33710449e-12 7.23845935e-14 3.77738478e-18 3.00257081e-19 3.33904941e-12
3.31131121e-01 3.18098277e-12 3.11459990e-12 6.63609757e-14 2.18910961e-17 1.71008320e-18 3.11618222e-12
3.80189396e-01 2.96567068e-12 2.90689364e-12 5.86849524e-14 9.20846253e-17 6.93892088e-18 2.90819046e-12
4.36515832e-01 2.76760888e-12 2.71302792e-12 5.42872217e-14 2.93738194e-16 2.12714030e-17 2.71408126e-12
5.01187234e-01 2.58239828e-12 2.53208401e-12 4.95728327e-14 7.41440377e-16 5.25667937e-17 2.53292801e-12
5.75439937e-01 2.40860678e-12 2.36319667e-12 4.38578404e-14 1.55226987e-15 1.06918825e-16 2.36386595e-12
6.60693448e-01 2.24672353e-12 2.20556192e-12 3.83189859e-14 2.84262339e-15 1.96758063e-16 2.20608807e-12
7.58577575e-01 2.09991856e-12 2.05843258e-12 3.65708404e-14 4.91513935e-15 3.70734365e-16 2.05884118e-12
8.70963590e-01 1.96035273e-12 1.92111210e-12 3.06582819e-14 8.58234870e-15 7.48278356e-16 1.92142238e-12
1.00000000e+00 1.83603565e-12 1.79294388e-12 2.74260045e-14 1.56657607e-14 1.56138347e-15 1.79317570e-12
1.14815362e+00 1.72682518e-12 1.67331882e-12 2.31949336e-14 3.03114295e-14 3.20496721e-15 1.67348894e-12
1.31825674e+00 1.64017728e-12 1.56166808e-12 1.91166363e-14 5.93925710e-14 6.20531304e-15 1.56179075e-12
1.51356125e+00 1.58473469e-12 1.45746037e-12 1.55571396e-14 1.11717185e-13 1.07087414e-14 1.45754793e-12
1.73780083e+00 1.56673695e-12 1.36020139e-12 1.24901491e-14 1.94045408e-13 1.62070231e-14 1.36026288e-12
1.99526231e+00 1.58590370e-12 1.26942868e-12 9.67625366e-15 3.06798765e-13 2.12135695e-14 1.26947118e-12
2.29086765e+00 1.63327812e-12 1.18471015e-12 7.28949900e-15 4.41278465e-13 2.39009163e-14 1.18473944e-12
2.63026799e+00 1.69262177e-12 1.10564281e-12 5.20108449e-15 5.81777878e-13 2.39784703e-14 1.10566318e-12
3.01995172e+00 1.74816489e-12 1.03185057e-12 3.61420329e-15 7.12700117e-13 2.14735648e-14 1.03186491e-12
3.46736850e+00 1.78251524e-12 9.62982097e-13 2.46773899e-15 8.17065408e-13 1.76882878e-14 9.62992369e-13
3.98107171e+00 1.78138482e-12 8.98709322e-13 1.61954848e-15 8.81055948e-13 1.33889183e-14 8.98716770e-13
4.57088190e+00 1.74518494e-12 8.38725817e-13 1.03541487e-15 9.05423712e-13 9.30598828e-15 8.38731291e-13
5.24807460e+00 1.59237341e-12 6.93498587e-13 5.56720580e-16 8.98318103e-13 6.07992088e-15 6.93502223e-13
6.02559586e+00 1.32373895e-12 4.58190378e-13 2.34177554e-16 8.65314393e-13 3.71201224e-15 4.58192375e-13
6.70000000e+00 1.15995954e-12 3.33289609e-13 1.19378765e-16 8.26550551e-13 2.42778184e-15 3.33290895e-13
6.92422916e+00 1.11344024e-12 3.01947851e-13 9.48935913e-17 8.11397491e-13 2.08091684e-15 3.01948975e-13
7.15596261e+00 1.07794651e-12 2.73553377e-13 7.52208728e-17 8.04317915e-13 1.79030755e-15 2.73554377e-13
7.39545150e+00 1.05751262e-12 2.47829016e-13 5.58994524e-17 8.09627700e-13 1.53247946e-15 2.47829944e-13
7.64295536e+00 1.08418894e-12 2.24523620e-13 4.05855308e-17 8.59624732e-13 1.29807290e-15 2.24524577e-13
7.89874245e+00 1.17868958e-12 2.03409674e-13 2.62366350e-17 9.75253669e-13 1.07745265e-15 2.03410795e-13
8.16308998e+00 1.32494805e-12 1.84281133e-13 1.60887747e-17 1.14065082e-12 8.96064107e-16 1.84282505e-13
8.43628443e+00 1.53195010e-12 1.66951270e-13 9.10912460e-18 1.36498972e-12 6.96364532e-16 1.66952996e-13
8.71862190e+00 1.67872156e-12 1.51251193e-13 5.63261437e-18 1.52746474e-12 5.31359928e-16 1.51253114e-13
9.01040836e+00 1.82970159e-12 1.37027505e-13 3.19825233e-18 1.69267089e-12 3.58189988e-16 1.37029614e-13
9.31196005e+00 1.93785465e-12 1.24141444e-13 0.00000000e+00 1.81371321e-12 0.00000000e+00 1.24143660e-13
9.62360379e+00 1.92536164e-12 1.12467411e-13 0.00000000e+00 1.81289423e-12 0.00000000e+00 1.12469472e-13
9.94567731e+00 1.81969187e-12 1.01891346e-13 0.00000000e+00 1.71780052e-12 0.00000000e+00 1.01893097e-13
1.02785297e+01 1.67915974e-12 9.23098659e-14 0.00000000e+00 1.58684987e-12 0.00000000e+00 9.23113014e-14
1.06225216e+01 1.54712629e-12 8.36293919e-14 0.00000000e+00 1.46349689e-12 0.00000000e+00 8.36305558e-14
1.09780260e+01 1.40690680e-12 7.57652182e-14 0.00000000e+00 1.33114158e-12 0.00000000e+00 7.57661279e-14
1.13454280e+01 1.27930134e-12 6.86405391e-14 0.00000000e+00 1.21066080e-12 0.00000000e+00 6.86412529e-14
1.17251259e+01 1.17099733e-12 6.21858214e-14 0.00000000e+00 1.10881151e-12 0.00000000e+00 6.21863851e-14
1.21175312e+01 1.06901572e-12 5.63380755e-14 0.00000000e+00 1.01267764e-12 0.00000000e+00 5.63385184e-14
1.25230691e+01 9.76975986e-13 5.10402247e-14 0.00000000e+00 9.25935761e-13 0.00000000e+00 5.10405718e-14
1.29421791e+01 8.99323112e-13 4.62405583e-14 0.00000000e+00 8.53082554e-13 0.00000000e+00 4.62408321e-14
1.33753155e+01 8.29477014e-13 4.18922314e-14 0.00000000e+00 7.87584782e-13 0.00000000e+00 4.18924490e-14
1.38229477e+01 7.83178650e-13 3.79527972e-14 0.00000000e+00 7.45225853e-13 0.00000000e+00 3.79529781e-14
1.42855609e+01 7.55375132e-13 3.43838088e-14 0.00000000e+00 7.20991324e-13 0.00000000e+00 3.43839660e-14
1.47636563e+01 7.64555230e-13 3.11504266e-14 0.00000000e+00 7.33404803e-13 0.00000000e+00 3.11505758e-14
1.52577522e+01 7.82256011e-13 2.82211021e-14 0.00000000e+00 7.54034909e-13 0.00000000e+00 2.82212462e-14
1.57683840e+01 8.04561646e-13 2.55672431e-14 0.00000000e+00 7.78994403e-13 0.00000000e+00 2.55673842e-14
1.62961051e+01 8.29598164e-13 2.31629474e-14 0.00000000e+00 8.06435216e-13 0.00000000e+00 2.31630853e-14
1.68414875e+01 8.53817143e-13 2.09847468e-14 0.00000000e+00 8.32832396e-13 0.00000000e+00 2.09848813e-14
1.74051222e+01 8.69084546e-13 1.90113829e-14 0.00000000e+00 8.50073163e-13 0.00000000e+00 1.90115106e-14
1.79876201e+01 8.73387313e-13 1.72235920e-14 0.00000000e+00 8.56163721e-13 0.00000000e+00 1.72237112e-14
1.85896125e+01 8.64072253e-13 1.56039246e-14 0.00000000e+00 8.48468328e-13 0.00000000e+00 1.56040325e-14
1.92117518e+01 8.43706009e-13 1.41365698e-14 0.00000000e+00 8.29569439e-13 0.00000000e+00 1.41366646e-14
1.98547123e+01 8.15895401e-13 1.28072031e-14 0.00000000e+00 8.03088198e-13 0.00000000e+00 1.28072847e-14
2.05191907e+01 7.83920137e-13 1.16028471e-14 0.00000000e+00 7.72317290e-13 0.00000000e+00 1.16029167e-14
2.12059073e+01 7.52886593e-13 1.05117454e-14 0.00000000e+00 7.42374847e-13 0.00000000e+00 1.05118047e-14
2.19156062e+01 7.24055777e-13 9.52324761e-15 0.00000000e+00 7.14532530e-13 0.00000000e+00 9.52329842e-15
2.26490567e+01 6.97415048e-13 8.62770542e-15 0.00000000e+00 6.88787343e-13 0.00000000e+00 8.62774902e-15
2.34070535e+01 6.68790306e-13 7.81637758e-15 0.00000000e+00 6.60973928e-13 0.00000000e+00 7.81641505e-15
2.41904183e+01 6.42305766e-13 7.08134481e-15 0.00000000e+00 6.35224421e-13 0.00000000e+00 7.08137710e-15
2.50000000e+01 6.16058851e-13 6.41543256e-15 0.00000000e+00 6.09643418e-13 0.00000000e+00 6.41546044e-15
2.75422870e+01 5.39870970e-13 4.79784498e-15 0.00000000e+00 5.35073125e-13 0.00000000e+00 4.79786316e-15
3.16227766e+01 4.33316227e-13 3.16990677e-15 0.00000000e+00 4.30146320e-13 0.00000000e+00 3.16991676e-15
3.63078055e+01 3.27522014e-13 2.09433777e-15 0.00000000e+00 3.25427676e-13 0.00000000e+00 2.09434323e-15
4.16869383e+01 2.31189287e-13 1.38371595e-15 0.00000000e+00 2.29805571e-13 0.00000000e+00 1.38371885e-15
4.78630092e+01 1.52336033e-13 9.14212481e-16 0.00000000e+00 1.51421821e-13 0.00000000e+00 9.14213979e-16
5.49540874e+01 9.49062034e-14 6.04014430e-16 0.00000000e+00 9.43021890e-14 0.00000000e+00 6.04015186e-16
6.30957344e+01 5.65980367e-14 3.99068499e-16 0.00000000e+00 5.61989682e-14 0.00000000e+00 3.99068876e-16
7.24435960e+01 3.26089134e-14 2.63662005e-16 0.00000000e+00 3.23452514e-14 0.00000000e+00 2.63662192e-16
8.31763771e+01 1.83410096e-14 1.74199791e-16 0.00000000e+00 1.81668098e-14 0.00000000e+00 1.74199882e-16
9.54992586e+01 1.01411296e-14 1.15092675e-16 0.00000000e+00 1.00260369e-14 0.00000000e+00 1.15092721e-16
1.09647820e+02 5.54036420e-15 7.60409841e-17 0.00000000e+00 5.46432321e-15 0.00000000e+00 7.60410067e-17
1.25892541e+02 3.03402483e-15 5.02397835e-17 0.00000000e+00 2.98378505e-15 0.00000000e+00 5.02397949e-17
1.44543977e+02 1.65602350e-15 3.31930975e-17 0.00000000e+00 1.62283040e-15 0.00000000e+00 3.31931033e-17
1.65958691e+02 8.63343290e-16 2.19304630e-17 0.00000000e+00 8.41412827e-16 0.00000000e+00 2.19304659e-17
1.90546072e+02 4.51724501e-16 1.44893137e-17 0.00000000e+00 4.37235187e-16 0.00000000e+00 1.44893151e-17
2.18776162e+02 2.36665875e-16 9.57299486e-18 0.00000000e+00 2.27092880e-16 0.00000000e+00 9.57299556e-18
2.51188643e+02 1.23973899e-16 6.32481510e-18 0.00000000e+00 1.17649084e-16 0.00000000e+00 6.32481544e-18
2.88403150e+02 6.48855564e-17 4.17876395e-18 0.00000000e+00 6.07067925e-17 0.00000000e+00 4.17876412e-18
3.31131121e+02 3.40170228e-17 2.76088199e-18 0.00000000e+00 3.12561408e-17 0.00000000e+00 2.76088208e-18
3.80189396e+02 1.78625653e-17 1.82409666e-18 0.00000000e+00 1.60384687e-17 0.00000000e+00 1.82409670e-18
4.36515832e+02 9.41755677e-18 1.20516872e-18 0.00000000e+00 8.21238805e-18 0.00000000e+00 1.20516874e-18
5.01187234e+02 4.99111311e-18 7.96247078e-19 0.00000000e+00 4.19486603e-18 0.00000000e+00 7.96247089e-19
5.75439937e+02 2.66454546e-18 5.26075229e-19 0.00000000e+00 2.13847023e-18 0.00000000e+00 5.26075235e-19
6.60693448e+02 1.43583187e-18 3.47574458e-19 0.00000000e+00 1.08825741e-18 0.00000000e+00 3.47574461e-19
7.58577575e+02 7.82610302e-19 2.29640167e-19 0.00000000e+00 5.52970135e-19 0.00000000e+00 2.29640169e-19
8.70963590e+02 4.32255521e-19 1.51721754e-19 0.00000000e+00 2.80533766e-19 0.00000000e+00 1.51721755e-19
1.00000000e+03 1.42107353e-19 0.00000000e+00 0.00000000e+00 1.42107353e-19 0.00000000e+00 0.00000000e+00
