# column 1: lambda (micron)
# column 2: total flux; lambda*F_lambda (W/m2)
# column 3: direct stellar flux; lambda*F_lambda (W/m2)
# column 4: scattered stellar flux; lambda*F_lambda (W/m2)
# column 5: total dust emission flux; lambda*F_lambda (W/m2)
# column 6: dust emission scattered flux; lambda*F_lambda (W/m2)
# column 7: transparent flux; lambda*F_lambda (W/m2)
1.00000000e-03 1.07333388e-12 1.07331277e-12 2.11100863e-17 0.00000000e+00 0.00000000e+00 1.07335627e-12
1.14815362e-03 1.26686793e-12 1.26683672e-12 3.12156313e-17 0.00000000e+00 0.00000000e+00 1.26690456e-12
1.31825674e-03 1.49529625e-12 1.49525179e-12 4.44643061e-17 0.00000000e+00 0.00000000e+00 1.49535359e-12
1.51356125e-03 1.76492068e-12 1.76485504e-12 6.56394433e-17 0.00000000e+00 0.00000000e+00 1.76499670e-12
1.73780083e-03 2.08320806e-12 2.08309309e-12 1.14969227e-16 0.00000000e+00 0.00000000e+00 2.08326203e-12
1.99526231e-03 2.45883515e-12 2.45865280e-12 1.82352575e-16 0.00000000e+00 0.00000000e+00 2.45891716e-12
2.29086765e-03 2.90226586e-12 2.90197978e-12 2.86083618e-16 0.00000000e+00 0.00000000e+00 2.90231066e-12
2.63026799e-03 3.42576610e-12 3.42518916e-12 5.76943455e-16 0.00000000e+00 0.00000000e+00 3.42565717e-12
3.01995172e-03 4.04360413e-12 4.04269065e-12 9.13479862e-16 0.00000000e+00 0.00000000e+00 4.04337385e-12
3.46736850e-03 4.77318743e-12 4.77152714e-12 1.66029251e-15 0.00000000e+00 0.00000000e+00 4.77247759e-12
3.98107171e-03 5.63409702e-12 5.63176967e-12 2.32734932e-15 0.00000000e+00 0.00000000e+00 5.63305378e-12
4.57088190e-03 6.65378360e-12 6.64779857e-12 5.98503001e-15 0.00000000e+00 0.00000000e+00 6.64880962e-12
5.24807460e-03 7.85627358e-12 7.84620302e-12 1.00705614e-14 0.00000000e+00 0.00000000e+00 7.84772720e-12
6.02559586e-03 9.27808286e-12 9.26066523e-12 1.74176318e-14 0.00000000e+00 0.00000000e+00 9.26283435e-12
6.91830971e-03 1.09616670e-11 1.09301597e-11 3.15072722e-14 0.00000000e+00 0.00000000e+00 1.09331145e-11
7.94328235e-03 1.29440078e-11 1.29006897e-11 4.33180660e-14 4.65663186e-304 7.93324446e-306 1.29045807e-11
9.12010839e-03 1.53158909e-11 1.52264466e-11 8.94443443e-14 1.89301816e-265 2.48987621e-267 1.52315429e-11
1.04712855e-02 1.71145147e-11 1.70054964e-11 1.09018324e-13 7.61280589e-232 1.93742214e-233 1.70115517e-11
1.20226443e-02 1.71886056e-11 1.70051391e-11 1.83466458e-13 1.12465129e-202 2.43869893e-204 1.70115517e-11
1.38038426e-02 1.72372652e-11 1.70047153e-11 2.32549891e-13 2.94382457e-177 8.61993827e-179 1.70115517e-11
1.58489319e-02 1.73112695e-11 1.70041945e-11 3.07075013e-13 3.84205975e-155 1.37580019e-156 1.70115517e-11
1.81970086e-02 1.74160427e-11 1.70037142e-11 4.12328454e-13 6.66612052e-136 2.98324757e-137 1.70115517e-11
2.08929613e-02 1.75400218e-11 1.70033150e-11 5.36706813e-13 3.38303997e-119 1.64145742e-120 1.70115517e-11
2.39883292e-02 1.76739503e-11 1.70027977e-11 6.71152590e-13 1.16025284e-104 6.40815453e-106 1.70115517e-11
2.75422870e-02 1.77506540e-11 1.70021960e-11 7.48457926e-13 5.10270139e-92 3.24626151e-93 1.70115517e-11
3.16227766e-02 1.78272220e-11 1.70016063e-11 8.25615723e-13 4.83880717e-81 2.90520383e-82 1.70115517e-11
3.63078055e-02 1.77761335e-11 1.70011438e-11 7.74989773e-13 1.63876550e-71 9.34334347e-73 1.70115517e-11
4.16869383e-02 1.78340861e-11 1.70007437e-11 8.33342427e-13 3.05745915e-63 1.79791878e-64 1.70115517e-11
4.78630092e-02 1.77363495e-11 1.69996410e-11 7.36708544e-13 4.49833469e-56 2.44723477e-57 1.70115517e-11
5.49540874e-02 1.76253106e-11 1.69981076e-11 6.27202972e-13 7.26435537e-50 3.38884917e-51 1.70115517e-11
6.30957344e-02 1.74392075e-11 1.69942633e-11 4.44944225e-13 2.26518961e-44 8.09910311e-46 1.70115517e-11
7.24435960e-02 1.73098110e-11 1.69897107e-11 3.20100278e-13 1.28317935e-39 3.76410779e-41 1.70115517e-11
8.31763771e-02 1.72868635e-11 1.69901158e-11 2.96747792e-13 1.29928902e-35 3.33215282e-37 1.70115517e-11
9.54992586e-02 1.72817158e-11 1.69913038e-11 2.90411947e-13 3.63938981e-32 9.31223745e-34 1.70115517e-11
1.09647820e-01 1.65656258e-11 1.62298467e-11 3.35779104e-13 3.09502936e-29 9.66439105e-31 1.62459122e-11
1.25892541e-01 1.55440079e-11 1.51492246e-11 3.94783309e-13 1.00726070e-26 3.44602797e-28 1.51615674e-11
1.44543977e-01 1.45303637e-11 1.41400498e-11 3.90313889e-13 1.37788152e-24 5.10275299e-26 1.41495980e-11
1.65958691e-01 1.35816918e-11 1.31973798e-11 3.84311981e-13 6.94491780e-23 2.70366078e-24 1.32051732e-11
1.90546072e-01 1.26540683e-11 1.23160254e-11 3.38042820e-13 1.43694985e-21 5.36230088e-23 1.23237846e-11
2.18776162e-01 1.17372557e-11 1.14927312e-11 2.44524492e-13 1.67678841e-20 5.50993452e-22 1.15012250e-11
2.51188643e-01 1.09836506e-11 1.07272278e-11 2.56422566e-13 2.01551804e-19 7.69412134e-21 1.07335677e-11
2.88403150e-01 1.02822802e-11 1.00122357e-11 2.70042867e-13 1.68765938e-18 7.02786366e-20 1.00171482e-11
3.31131121e-01 9.61122156e-12 9.34454998e-12 2.66661866e-13 9.71862438e-18 4.27289408e-19 9.34854667e-12
3.80189396e-01 8.97202132e-12 8.72129585e-12 2.50684794e-13 4.06754600e-17 1.80483760e-18 8.72457139e-12
4.36515832e-01 8.37924027e-12 8.13958323e-12 2.39526660e-13 1.30375652e-16 6.40735009e-18 8.14224377e-12
5.01187234e-01 7.81604974e-12 7.59665225e-12 2.19051622e-13 3.45866079e-16 2.28812773e-17 7.59878402e-12
5.75439937e-01 7.28023913e-12 7.08990739e-12 1.89465338e-13 8.66398693e-16 9.57288108e-17 7.09159786e-12
6.60693448e-01 6.79517901e-12 6.61693526e-12 1.75795814e-13 2.44792927e-15 4.56325949e-16 6.61826421e-12
7.58577575e-01 6.34214141e-12 6.17549150e-12 1.58785530e-13 7.86438252e-15 1.89825794e-15 6.17652353e-12
8.70963590e-01 5.92986377e-12 5.76348344e-12 1.41215448e-13 2.51648780e-14 6.49359070e-15 5.76426715e-12
1.00000000e+00 5.57509847e-12 5.37894159e-12 1.23129811e-13 7.30270731e-14 1.82628192e-14 5.37952711e-12
1.14815362e+00 5.31573974e-12 5.02003713e-12 1.07371059e-13 1.88331549e-13 4.36033618e-14 5.02046681e-12
1.31825674e+00 5.21919384e-12 4.68506240e-12 9.25611187e-14 4.41570315e-13 9.21450892e-14 4.68537225e-12
1.51356125e+00 5.36727160e-12 4.37242263e-12 7.86876085e-14 9.16161365e-13 1.69274153e-13 4.37264380e-12
1.73780083e+00 5.85333638e-12 4.08063333e-12 6.77539047e-14 1.70494915e-12 2.72076380e-13 4.08078863e-12
1.99526231e+00 6.72146700e-12 3.80830619e-12 5.75819466e-14 2.85557886e-12 3.82014679e-13 3.80841354e-12
2.29086765e+00 7.97255396e-12 3.55414435e-12 4.71917691e-14 4.37121784e-12 4.70562484e-13 3.55421832e-12
2.63026799e+00 9.50174378e-12 3.31693809e-12 3.66801842e-14 6.14812551e-12 5.10775706e-13 3.31698953e-12
3.01995172e+00 1.11260753e-11 3.09555850e-12 2.76097873e-14 8.00290703e-12 4.92252124e-13 3.09559474e-12
3.46736850e+00 1.26545436e-11 2.88895116e-12 1.97830238e-14 9.74580942e-12 4.32883946e-13 2.88897711e-12
3.98107171e+00 1.40539791e-11 2.69613150e-12 1.35111640e-14 1.13443364e-11 3.45826835e-13 2.69615031e-12
4.57088190e+00 1.51141317e-11 2.51618005e-12 8.78216006e-15 1.25891695e-11 2.53283380e-13 2.51619387e-12
5.24807460e+00 1.55413353e-11 2.08049748e-12 4.91570769e-15 1.34559221e-11 1.73838246e-13 2.08050667e-12
6.02559586e+00 1.53811056e-11 1.37457208e-12 2.08470032e-15 1.40044488e-11 1.11056004e-13 1.37457712e-12
6.70000000e+00 1.51074304e-11 9.99869438e-13 1.03808010e-15 1.41065229e-11 7.45144495e-14 9.99872685e-13
6.92422916e+00 1.49991985e-11 9.05844085e-13 8.31294194e-16 1.40925232e-11 6.52512238e-14 9.05846924e-13
7.15596261e+00 1.49700421e-11 8.20660605e-13 6.51949976e-16 1.41487296e-11 5.66233014e-14 8.20663132e-13
7.39545150e+00 1.50033587e-11 7.43487487e-13 4.94399300e-16 1.42593768e-11 4.84403452e-14 7.43489831e-13
7.64295536e+00 1.54120104e-11 6.73571313e-13 3.51419413e-16 1.47380877e-11 4.10915236e-14 6.73573732e-13
7.89874245e+00 1.62422950e-11 6.10229553e-13 2.18729056e-16 1.56318467e-11 3.31824054e-14 6.10232385e-13
8.16308998e+00 1.72794787e-11 5.52844051e-13 1.27583400e-16 1.67265071e-11 2.62447558e-14 5.52847515e-13
8.43628443e+00 1.82590912e-11 5.00854627e-13 6.64637210e-17 1.77581701e-11 1.92168606e-14 5.00858987e-13
8.71862190e+00 1.87126160e-11 4.53754490e-13 3.70417506e-17 1.82588245e-11 1.41479826e-14 4.53759343e-13
9.01040836e+00 1.90378358e-11 4.11083516e-13 1.68337515e-17 1.86267354e-11 9.06064525e-15 4.11088843e-13
9.31196005e+00 1.92609398e-11 3.72425383e-13 0.00000000e+00 1.88885144e-11 0.00000000e+00 3.72430980e-13
9.62360379e+00 1.92842296e-11 3.37403210e-13 0.00000000e+00 1.89468264e-11 0.00000000e+00 3.37408415e-13
9.94567731e+00 1.91421513e-11 3.05674868e-13 0.00000000e+00 1.88364764e-11 0.00000000e+00 3.05679292e-13
1.02785297e+01 1.90434542e-11 2.76930278e-13 0.00000000e+00 1.87665240e-11 0.00000000e+00 2.76933904e-13
1.06225216e+01 1.89163591e-11 2.50888728e-13 0.00000000e+00 1.86654704e-11 0.00000000e+00 2.50891667e-13
1.09780260e+01 1.84846371e-11 2.27296086e-13 0.00000000e+00 1.82573410e-11 0.00000000e+00 2.27298384e-13
1.13454280e+01 1.79850046e-11 2.05921956e-13 0.00000000e+00 1.77790826e-11 0.00000000e+00 2.05923759e-13
1.17251259e+01 1.75590242e-11 1.86557731e-13 0.00000000e+00 1.73724664e-11 0.00000000e+00 1.86559155e-13
1.21175312e+01 1.69875069e-11 1.69014436e-13 0.00000000e+00 1.68184925e-11 0.00000000e+00 1.69015555e-13
1.25230691e+01 1.62169349e-11 1.53120839e-13 0.00000000e+00 1.60638141e-11 0.00000000e+00 1.53121715e-13
1.29421791e+01 1.54373765e-11 1.38721805e-13 0.00000000e+00 1.52986547e-11 0.00000000e+00 1.38722496e-13
1.33753155e+01 1.47015166e-11 1.25676798e-13 0.00000000e+00 1.45758398e-11 0.00000000e+00 1.25677347e-13
1.38229477e+01 1.40850369e-11 1.13858477e-13 0.00000000e+00 1.39711784e-11 0.00000000e+00 1.13858934e-13
1.42855609e+01 1.37175061e-11 1.03151501e-13 0.00000000e+00 1.36143546e-11 0.00000000e+00 1.03151898e-13
1.47636563e+01 1.37224551e-11 9.34513505e-14 0.00000000e+00 1.36290037e-11 0.00000000e+00 9.34517274e-14
1.52577522e+01 1.38314288e-11 8.46633746e-14 0.00000000e+00 1.37467654e-11 0.00000000e+00 8.46637387e-14
1.57683840e+01 1.39829942e-11 7.67017963e-14 0.00000000e+00 1.39062924e-11 0.00000000e+00 7.67021526e-14
1.62961051e+01 1.41241186e-11 6.94889077e-14 0.00000000e+00 1.40546297e-11 0.00000000e+00 6.94892560e-14
1.68414875e+01 1.42180594e-11 6.29543042e-14 0.00000000e+00 1.41551051e-11 0.00000000e+00 6.29546439e-14
1.74051222e+01 1.40990046e-11 5.70342092e-14 0.00000000e+00 1.40419704e-11 0.00000000e+00 5.70345319e-14
1.79876201e+01 1.38974451e-11 5.16708325e-14 0.00000000e+00 1.38457743e-11 0.00000000e+00 5.16711337e-14
1.85896125e+01 1.35572151e-11 4.68118249e-14 0.00000000e+00 1.35104033e-11 0.00000000e+00 4.68120974e-14
1.92117518e+01 1.31241544e-11 4.24097545e-14 0.00000000e+00 1.30817447e-11 0.00000000e+00 4.24099939e-14
1.98547123e+01 1.25075730e-11 3.84216480e-14 0.00000000e+00 1.24691513e-11 0.00000000e+00 3.84218542e-14
2.05191907e+01 1.19155858e-11 3.48085743e-14 0.00000000e+00 1.18807772e-11 0.00000000e+00 3.48087501e-14
2.12059073e+01 1.12734742e-11 3.15352643e-14 0.00000000e+00 1.12419390e-11 0.00000000e+00 3.15354141e-14
2.19156062e+01 1.06426614e-11 2.85697669e-14 0.00000000e+00 1.06140916e-11 0.00000000e+00 2.85698952e-14
2.26490567e+01 1.01022084e-11 2.58831369e-14 0.00000000e+00 1.00763252e-11 0.00000000e+00 2.58832470e-14
2.34070535e+01 9.48558498e-12 2.34491505e-14 0.00000000e+00 9.46213583e-12 0.00000000e+00 2.34492452e-14
2.41904183e+01 8.93082388e-12 2.12440497e-14 0.00000000e+00 8.90957983e-12 0.00000000e+00 2.12441313e-14
2.50000000e+01 8.39363971e-12 1.92463109e-14 0.00000000e+00 8.37439340e-12 0.00000000e+00 1.92463813e-14
2.75422870e+01 6.88432334e-12 1.43935436e-14 0.00000000e+00 6.86992980e-12 0.00000000e+00 1.43935895e-14
3.16227766e+01 5.00822340e-12 9.50972504e-15 0.00000000e+00 4.99871367e-12 0.00000000e+00 9.50975027e-15
3.63078055e+01 3.45898335e-12 6.28301591e-15 0.00000000e+00 3.45270034e-12 0.00000000e+00 6.28302969e-15
4.16869383e+01 2.24519139e-12 4.15114922e-15 0.00000000e+00 2.24104024e-12 0.00000000e+00 4.15115655e-15
4.78630092e+01 1.37474632e-12 2.74263815e-15 0.00000000e+00 1.37200368e-12 0.00000000e+00 2.74264194e-15
5.49540874e+01 8.02419915e-13 1.81204365e-15 0.00000000e+00 8.00607872e-13 0.00000000e+00 1.81204556e-15
6.30957344e+01 4.51130800e-13 1.19720568e-15 0.00000000e+00 4.49933594e-13 0.00000000e+00 1.19720663e-15
7.24435960e+01 2.46808348e-13 7.90986104e-16 0.00000000e+00 2.46017362e-13 0.00000000e+00 7.90986575e-16
8.31763771e+01 1.32459306e-13 5.22599415e-16 0.00000000e+00 1.31936706e-13 0.00000000e+00 5.22599647e-16
9.54992586e+01 7.02880887e-14 3.45278048e-16 0.00000000e+00 6.99428106e-14 0.00000000e+00 3.45278163e-16
1.09647820e+02 3.70229211e-14 2.28122963e-16 0.00000000e+00 3.67947982e-14 0.00000000e+00 2.28123020e-16
1.25892541e+02 1.96386934e-14 1.50719356e-16 0.00000000e+00 1.94879740e-14 0.00000000e+00 1.50719385e-16
1.44543977e+02 1.04237498e-14 9.95792953e-17 0.00000000e+00 1.03241705e-14 0.00000000e+00 9.95793099e-17
1.65958691e+02 5.29446663e-15 6.57913904e-17 0.00000000e+00 5.22867524e-15 0.00000000e+00 6.57913976e-17
1.90546072e+02 2.70633943e-15 4.34679418e-17 0.00000000e+00 2.66287149e-15 0.00000000e+00 4.34679453e-17
2.18776162e+02 1.38781753e-15 2.87189849e-17 0.00000000e+00 1.35909855e-15 0.00000000e+00 2.87189867e-17
2.51188643e+02 7.12502133e-16 1.89744455e-17 0.00000000e+00 6.93527688e-16 0.00000000e+00 1.89744463e-17
2.88403150e+02 3.65738048e-16 1.25362919e-17 0.00000000e+00 3.53201756e-16 0.00000000e+00 1.25362924e-17
3.31131121e+02 1.88086167e-16 8.28264601e-18 0.00000000e+00 1.79803521e-16 0.00000000e+00 8.28264623e-18
3.80189396e+02 9.68332779e-17 5.47228999e-18 0.00000000e+00 9.13609879e-17 0.00000000e+00 5.47229010e-18
4.36515832e+02 5.00007964e-17 3.61550616e-18 0.00000000e+00 4.63852903e-17 0.00000000e+00 3.61550621e-18
5.01187234e+02 2.59082030e-17 2.38874124e-18 0.00000000e+00 2.35194618e-17 0.00000000e+00 2.38874127e-18
5.75439937e+02 1.34917209e-17 1.57822569e-18 0.00000000e+00 1.19134952e-17 0.00000000e+00 1.57822570e-18
6.60693448e+02 7.07197851e-18 1.04272337e-18 0.00000000e+00 6.02925514e-18 0.00000000e+00 1.04272338e-18
7.58577575e+02 3.73787974e-18 6.88920503e-19 0.00000000e+00 3.04895924e-18 0.00000000e+00 6.88920507e-19
8.70963590e+02 1.99555158e-18 4.55165263e-19 0.00000000e+00 1.54038632e-18 0.00000000e+00 4.55165265e-19
1.00000000e+03 7.77485005e-19 0.00000000e+00 0.00000000e+00 7.77485005e-19 0.00000000e+00 0.00000000e+00
