# column 1: lambda (micron)
# column 2: total flux; lambda*F_lambda (W/m2)
# column 3: direct stellar flux; lambda*F_lambda (W/m2)
# column 4: scattered stellar flux; lambda*F_lambda (W/m2)
# column 5: total dust emission flux; lambda*F_lambda (W/m2)
# column 6: dust emission scattered flux; lambda*F_lambda (W/m2)
# column 7: transparent flux; lambda*F_lambda (W/m2)
1.00000000e-03 6.93997501e-13 6.93993746e-13 3.75560898e-18 0.00000000e+00 0.00000000e+00 6.93993746e-13
1.14815362e-03 8.19140760e-13 8.19135139e-13 5.62070905e-18 0.00000000e+00 0.00000000e+00 8.19135139e-13
1.31825674e-03 9.66850807e-13 9.66842108e-13 8.69946117e-18 0.00000000e+00 0.00000000e+00 9.66842108e-13
1.51356125e-03 1.14119647e-12 1.14118369e-12 1.27751385e-17 0.00000000e+00 0.00000000e+00 1.14118369e-12
1.73780083e-03 1.34698462e-12 1.34696266e-12 2.19566779e-17 0.00000000e+00 0.00000000e+00 1.34696266e-12
1.99526231e-03 1.58988703e-12 1.58984782e-12 3.92072680e-17 0.00000000e+00 0.00000000e+00 1.58984782e-12
2.29086765e-03 1.87659008e-12 1.87653019e-12 5.98870107e-17 0.00000000e+00 0.00000000e+00 1.87653019e-12
2.63026799e-03 2.21503774e-12 2.21490731e-12 1.30432448e-16 0.00000000e+00 0.00000000e+00 2.21490731e-12
3.01995172e-03 2.61449745e-12 2.61430080e-12 1.96645002e-16 0.00000000e+00 0.00000000e+00 2.61430080e-12
3.46736850e-03 3.08603667e-12 3.08571319e-12 3.23485913e-16 0.00000000e+00 0.00000000e+00 3.08571319e-12
3.98107171e-03 3.64267171e-12 3.64213095e-12 5.40755552e-16 0.00000000e+00 0.00000000e+00 3.64213095e-12
4.57088190e-03 4.30012391e-12 4.29888232e-12 1.24158956e-15 0.00000000e+00 0.00000000e+00 4.29888232e-12
5.24807460e-03 5.07599551e-12 5.07405951e-12 1.93600033e-15 0.00000000e+00 0.00000000e+00 5.07405951e-12
6.02559586e-03 5.99279278e-12 5.98901715e-12 3.77563455e-15 0.00000000e+00 0.00000000e+00 5.98901715e-12
6.91830971e-03 7.07441368e-12 7.06896053e-12 5.45315640e-15 0.00000000e+00 0.00000000e+00 7.06896053e-12
7.94328235e-03 8.35363471e-12 8.34363998e-12 9.99472411e-15 0.00000000e+00 0.00000000e+00 8.34363998e-12
9.12010839e-03 9.86735648e-12 9.84817045e-12 1.91860358e-14 0.00000000e+00 0.00000000e+00 9.84817045e-12
1.04712855e-02 1.10208960e-11 1.09990604e-11 2.18355683e-14 0.00000000e+00 0.00000000e+00 1.09990604e-11
1.20226443e-02 1.10319494e-11 1.09990604e-11 3.28889799e-14 0.00000000e+00 0.00000000e+00 1.09990604e-11
1.38038426e-02 1.10508700e-11 1.09990604e-11 5.18095637e-14 8.96688052e-279 2.25174476e-280 1.09990604e-11
1.58489319e-02 1.10615579e-11 1.09990604e-11 6.24974923e-14 9.57158105e-244 2.10607728e-245 1.09990604e-11
1.81970086e-02 1.10927281e-11 1.09990604e-11 9.36676598e-14 2.94203226e-213 8.05547764e-215 1.09990604e-11
2.08929613e-02 1.11211614e-11 1.09990604e-11 1.22100924e-13 9.43915928e-187 3.45424392e-188 1.09990604e-11
2.39883292e-02 1.11683710e-11 1.09990604e-11 1.69310589e-13 1.10609079e-163 4.64973900e-165 1.09990604e-11
2.75422870e-02 1.11972017e-11 1.09990604e-11 1.98141279e-13 1.31521729e-143 6.33742544e-145 1.09990604e-11
3.16227766e-02 1.12279662e-11 1.09990604e-11 2.28905711e-13 3.75475469e-126 2.05909514e-127 1.09990604e-11
3.63078055e-02 1.12498234e-11 1.09990604e-11 2.50762958e-13 5.57224765e-111 3.26667434e-112 1.09990604e-11
4.16869383e-02 1.12923230e-11 1.09990604e-11 2.93262602e-13 8.53968811e-98 5.84105594e-99 1.09990604e-11
4.78630092e-02 1.13261378e-11 1.09990604e-11 3.27077355e-13 2.40575709e-86 1.76729906e-87 1.09990604e-11
5.49540874e-02 1.13401026e-11 1.09990604e-11 3.41042172e-13 2.09162749e-76 1.60674286e-77 1.09990604e-11
6.30957344e-02 1.13334529e-11 1.09990604e-11 3.34392410e-13 1.16885798e-67 9.41084508e-69 1.09990604e-11
7.24435960e-02 1.12988586e-11 1.09990604e-11 2.99798123e-13 4.44997192e-60 3.28457717e-61 1.09990604e-11
8.31763771e-02 1.12869692e-11 1.09990604e-11 2.87908724e-13 1.30487028e-53 9.28840995e-55 1.09990604e-11
9.54992586e-02 1.12969591e-11 1.09990604e-11 2.97898691e-13 5.10058555e-48 3.78722192e-49 1.09990604e-11
1.09647820e-01 1.08141073e-11 1.05040253e-11 3.10082010e-13 3.21416575e-43 2.61837193e-44 1.05040253e-11
1.25892541e-01 1.01103072e-11 9.80292679e-12 3.07380368e-13 4.67725307e-39 4.38047897e-40 9.80292679e-12
1.44543977e-01 9.42681937e-12 9.14862359e-12 2.78195779e-13 2.13152827e-35 2.75899792e-36 9.14862359e-12
1.65958691e-01 8.80616785e-12 8.53799231e-12 2.68175539e-13 3.55261606e-32 7.10878738e-33 8.53799231e-12
1.90546072e-01 8.25461931e-12 7.96811805e-12 2.86501264e-13 2.22162606e-29 5.92033877e-30 7.96811805e-12
2.18776162e-01 7.69545162e-12 7.43628044e-12 2.59171189e-13 5.60262597e-27 1.58848497e-27 7.43628044e-12
2.51188643e-01 7.22632363e-12 6.93994070e-12 2.86382935e-13 1.27255516e-24 4.16742175e-25 6.93994070e-12
2.88403150e-01 6.73489496e-12 6.47672950e-12 2.58165456e-13 1.34592581e-22 4.32177141e-23 6.47672950e-12
3.31131121e-01 6.28436819e-12 6.04443567e-12 2.39932519e-13 7.08403358e-21 2.21067898e-21 6.04443567e-12
3.80189396e-01 5.86515690e-12 5.64099558e-12 2.24161110e-13 2.06600653e-19 6.22542635e-20 5.64099558e-12
4.36515832e-01 5.46613034e-12 5.26448339e-12 2.01643284e-13 3.67042966e-18 1.07087682e-18 5.26448339e-12
5.01187234e-01 5.09878263e-12 4.91310176e-12 1.85639172e-13 4.16954690e-17 1.18840656e-17 4.91310176e-12
5.75439937e-01 4.75956195e-12 4.58517335e-12 1.74063391e-13 3.25214540e-16 8.97815015e-17 4.58517335e-12
6.60693448e-01 4.43928285e-12 4.27913275e-12 1.58310778e-13 1.83932673e-15 4.93161930e-16 4.27913275e-12
7.58577575e-01 4.14203539e-12 3.99351904e-12 1.40601199e-13 7.91514779e-15 2.01988202e-15 3.99351904e-12
8.70963590e-01 3.88321657e-12 3.72696882e-12 1.28803701e-13 2.74440532e-14 6.66686763e-15 3.72696882e-12
1.00000000e+00 3.66958022e-12 3.47820968e-12 1.13567418e-13 7.78031240e-14 1.76949151e-14 3.47820968e-12
1.14815362e+00 3.53315962e-12 3.24605414e-12 9.61687204e-14 1.90936751e-13 3.95266637e-14 3.24605414e-12
1.31825674e+00 3.52467358e-12 3.02939399e-12 8.09120335e-14 4.14367560e-13 7.65017628e-14 3.02939399e-12
1.51356125e+00 3.69047231e-12 2.82719497e-12 6.55120736e-14 7.97765268e-13 1.29766996e-13 2.82719497e-12
1.73780083e+00 4.04780073e-12 2.63849186e-12 5.29283429e-14 1.35638052e-12 1.89147852e-13 2.63849186e-12
1.99526231e+00 4.57434064e-12 2.46238388e-12 4.06324659e-14 2.07132429e-12 2.35165330e-13 2.46238388e-12
2.29086765e+00 5.19243186e-12 2.29803035e-12 2.99600442e-14 2.86444147e-12 2.53821277e-13 2.29803035e-12
2.63026799e+00 5.78417571e-12 2.14464670e-12 2.08366187e-14 3.61869238e-12 2.38661180e-13 2.14464670e-12
3.01995172e+00 6.27200953e-12 2.00150076e-12 1.39386957e-14 4.25657007e-12 1.99429206e-13 2.00150076e-12
3.46736850e+00 6.58058426e-12 1.86790919e-12 9.12174826e-15 4.70355332e-12 1.51764797e-13 1.86790919e-12
3.98107171e+00 6.65843044e-12 1.74323429e-12 5.67759918e-15 4.90951856e-12 1.04215228e-13 1.74323429e-12
4.57088190e+00 6.52480113e-12 1.62688090e-12 3.47211828e-15 4.89444811e-12 6.64849530e-14 1.62688090e-12
5.24807460e+00 6.04944398e-12 1.34518114e-12 1.79188411e-15 4.70247095e-12 3.96948996e-14 1.34518114e-12
6.02559586e+00 5.30073922e-12 8.88752369e-13 7.25804179e-16 4.41126105e-12 2.24032249e-14 8.88752369e-13
6.70000000e+00 4.78017565e-12 6.46481889e-13 3.47544987e-16 4.13334622e-12 1.38250843e-14 6.46481889e-13
6.92422916e+00 4.62808362e-12 5.85688198e-13 2.74319483e-16 4.04212110e-12 1.17288080e-14 5.85688198e-13
7.15596261e+00 4.51101167e-12 5.30611407e-13 2.16164817e-16 3.98018409e-12 9.98772372e-15 5.30611407e-13
7.39545150e+00 4.48525707e-12 4.80713913e-13 1.64574960e-16 4.00437858e-12 8.44505003e-15 4.80713913e-13
7.64295536e+00 4.69125647e-12 4.35508666e-13 1.18805662e-16 4.25562900e-12 7.29497771e-15 4.35508666e-13
7.89874245e+00 5.23500878e-12 3.94554418e-13 7.90926102e-17 4.84037527e-12 6.39205237e-15 3.94554418e-13
8.16308998e+00 6.01470570e-12 3.57451415e-13 4.95108321e-17 5.65720477e-12 5.48942320e-15 3.57451415e-13
8.43628443e+00 7.00745467e-12 3.23837494e-13 2.79830055e-17 6.68358919e-12 4.42028070e-15 3.23837494e-13
8.71862190e+00 7.63928273e-12 2.93384550e-13 1.54846724e-17 7.34588269e-12 3.28091422e-15 2.93384550e-13
9.01040836e+00 8.21234091e-12 2.65795332e-13 6.35693459e-18 7.94653922e-12 1.93416902e-15 2.65795332e-13
9.31196005e+00 8.65462547e-12 2.40800541e-13 0.00000000e+00 8.41382493e-12 0.00000000e+00 2.40800541e-13
9.62360379e+00 8.56911021e-12 2.18156204e-13 0.00000000e+00 8.35095400e-12 0.00000000e+00 2.18156204e-13
9.94567731e+00 8.14956295e-12 1.97641289e-13 0.00000000e+00 7.95192166e-12 0.00000000e+00 1.97641289e-13
1.02785297e+01 7.58033468e-12 1.79055550e-13 0.00000000e+00 7.40127913e-12 0.00000000e+00 1.79055550e-13
1.06225216e+01 7.04025487e-12 1.62217572e-13 0.00000000e+00 6.87803730e-12 0.00000000e+00 1.62217572e-13
1.09780260e+01 6.42719845e-12 1.46962999e-13 0.00000000e+00 6.28023545e-12 0.00000000e+00 1.46962999e-13
1.13454280e+01 5.84894951e-12 1.33142932e-13 0.00000000e+00 5.71580658e-12 0.00000000e+00 1.33142932e-13
1.17251259e+01 5.33458118e-12 1.20622472e-13 0.00000000e+00 5.21395871e-12 0.00000000e+00 1.20622472e-13
1.21175312e+01 4.86588944e-12 1.09279408e-13 0.00000000e+00 4.75661004e-12 0.00000000e+00 1.09279408e-13
1.25230691e+01 4.40992188e-12 9.90030204e-14 0.00000000e+00 4.31091886e-12 0.00000000e+00 9.90030204e-14
1.29421791e+01 4.00627662e-12 8.96930008e-14 0.00000000e+00 3.91658362e-12 0.00000000e+00 8.96930008e-14
1.33753155e+01 3.65941308e-12 8.12584743e-14 0.00000000e+00 3.57815460e-12 0.00000000e+00 8.12584743e-14
1.38229477e+01 3.42235128e-12 7.36171115e-14 0.00000000e+00 3.34873417e-12 0.00000000e+00 7.36171115e-14
1.42855609e+01 3.27888786e-12 6.66943252e-14 0.00000000e+00 3.21219353e-12 0.00000000e+00 6.66943252e-14
1.47636563e+01 3.29688612e-12 6.04225420e-14 0.00000000e+00 3.23646358e-12 0.00000000e+00 6.04225420e-14
1.52577522e+01 3.35881868e-12 5.47405431e-14 0.00000000e+00 3.30407814e-12 0.00000000e+00 5.47405431e-14
1.57683840e+01 3.43512718e-12 4.95928665e-14 0.00000000e+00 3.38553431e-12 0.00000000e+00 4.95928665e-14
1.62961051e+01 3.51063777e-12 4.49292657e-14 0.00000000e+00 3.46570850e-12 0.00000000e+00 4.49292657e-14
1.68414875e+01 3.58892821e-12 4.07042194e-14 0.00000000e+00 3.54822399e-12 0.00000000e+00 4.07042194e-14
1.74051222e+01 3.61177084e-12 3.68764869e-14 0.00000000e+00 3.57489436e-12 0.00000000e+00 3.68764869e-14
1.79876201e+01 3.59150397e-12 3.34087056e-14 0.00000000e+00 3.55809527e-12 0.00000000e+00 3.34087056e-14
1.85896125e+01 3.51109805e-12 3.02670267e-14 0.00000000e+00 3.48083102e-12 0.00000000e+00 3.02670267e-14
1.92117518e+01 3.36011994e-12 2.74207841e-14 0.00000000e+00 3.33269916e-12 0.00000000e+00 2.74207841e-14
1.98547123e+01 3.18682721e-12 2.48421957e-14 0.00000000e+00 3.16198502e-12 0.00000000e+00 2.48421957e-14
2.05191907e+01 2.99652164e-12 2.25060919e-14 0.00000000e+00 2.97401555e-12 0.00000000e+00 2.25060919e-14
2.12059073e+01 2.81369349e-12 2.03896700e-14 0.00000000e+00 2.79330382e-12 0.00000000e+00 2.03896700e-14
2.19156062e+01 2.65256237e-12 1.84722717e-14 0.00000000e+00 2.63409010e-12 0.00000000e+00 1.84722717e-14
2.26490567e+01 2.49118450e-12 1.67351811e-14 0.00000000e+00 2.47444932e-12 0.00000000e+00 1.67351811e-14
2.34070535e+01 2.33953252e-12 1.51614426e-14 0.00000000e+00 2.32437108e-12 0.00000000e+00 1.51614426e-14
2.41904183e+01 2.19590328e-12 1.37356949e-14 0.00000000e+00 2.18216759e-12 0.00000000e+00 1.37356949e-14
2.50000000e+01 2.05870190e-12 1.24440213e-14 0.00000000e+00 2.04625788e-12 0.00000000e+00 1.24440213e-14
2.75422870e+01 1.68964424e-12 9.30637977e-15 0.00000000e+00 1.68033786e-12 0.00000000e+00 9.30637977e-15
3.16227766e+01 1.23359417e-12 6.14866414e-15 0.00000000e+00 1.22744550e-12 0.00000000e+00 6.14866414e-15
3.63078055e+01 8.54266692e-13 4.06238211e-15 0.00000000e+00 8.50204310e-13 0.00000000e+00 4.06238211e-15
4.16869383e+01 5.54750137e-13 2.68398924e-15 0.00000000e+00 5.52066148e-13 0.00000000e+00 2.68398924e-15
4.78630092e+01 3.38935884e-13 1.77329411e-15 0.00000000e+00 3.37162590e-13 0.00000000e+00 1.77329411e-15
5.49540874e+01 1.97326107e-13 1.17160380e-15 0.00000000e+00 1.96154503e-13 0.00000000e+00 1.17160380e-15
6.30957344e+01 1.10812223e-13 7.74070953e-16 0.00000000e+00 1.10038152e-13 0.00000000e+00 7.74070953e-16
7.24435960e+01 6.06984771e-14 5.11423607e-16 0.00000000e+00 6.01870535e-14 0.00000000e+00 5.11423607e-16
8.31763771e+01 3.26712604e-14 3.37894226e-16 0.00000000e+00 3.23333662e-14 0.00000000e+00 3.37894226e-16
9.54992586e+01 1.74116788e-14 2.23244502e-16 0.00000000e+00 1.71884343e-14 0.00000000e+00 2.23244502e-16
1.09647820e+02 9.22103171e-15 1.47496179e-16 0.00000000e+00 9.07353553e-15 0.00000000e+00 1.47496179e-16
1.25892541e+02 4.92248720e-15 9.74497594e-17 0.00000000e+00 4.82503745e-15 0.00000000e+00 9.74497594e-17
1.44543977e+02 2.63151094e-15 6.43844175e-17 0.00000000e+00 2.56712652e-15 0.00000000e+00 6.43844175e-17
1.65958691e+02 1.34675510e-15 4.25383628e-17 0.00000000e+00 1.30421673e-15 0.00000000e+00 4.25383628e-17
1.90546072e+02 6.94422451e-16 2.81048176e-17 0.00000000e+00 6.66317633e-16 0.00000000e+00 2.81048176e-17
2.18776162e+02 3.59722806e-16 1.85686688e-17 0.00000000e+00 3.41154138e-16 0.00000000e+00 1.85686688e-17
2.51188643e+02 1.86863546e-16 1.22681978e-17 0.00000000e+00 1.74595349e-16 0.00000000e+00 1.22681978e-17
2.88403150e+02 9.72633386e-17 8.10551794e-18 0.00000000e+00 8.91578207e-17 0.00000000e+00 8.10551794e-18
3.31131121e+02 5.08543367e-17 5.35526259e-18 0.00000000e+00 4.54990741e-17 0.00000000e+00 5.35526259e-18
3.80189396e+02 2.67079606e-17 3.53818691e-18 0.00000000e+00 2.31697737e-17 0.00000000e+00 3.53818691e-18
4.36515832e+02 1.41244456e-17 2.33765691e-18 0.00000000e+00 1.17867887e-17 0.00000000e+00 2.33765691e-18
5.01187234e+02 7.53148261e-18 1.54447460e-18 0.00000000e+00 5.98700801e-18 0.00000000e+00 1.54447460e-18
5.75439937e+02 4.05783059e-18 1.02042425e-18 0.00000000e+00 3.03740634e-18 0.00000000e+00 1.02042425e-18
6.60693448e+02 2.21352369e-18 6.74187617e-19 0.00000000e+00 1.53933608e-18 0.00000000e+00 6.74187617e-19
7.58577575e+02 1.22481810e-18 4.45431341e-19 0.00000000e+00 7.79386756e-19 0.00000000e+00 4.45431341e-19
8.70963590e+02 6.88478683e-19 2.94293569e-19 0.00000000e+00 3.94185114e-19 0.00000000e+00 2.94293569e-19
1.00000000e+03 1.99148924e-19 0.00000000e+00 0.00000000e+00 1.99148924e-19 0.00000000e+00 0.00000000e+00
