# column 1: lambda (micron)
# column 2: total flux; lambda*F_lambda (W/m2)
# column 3: direct stellar flux; lambda*F_lambda (W/m2)
# column 4: scattered stellar flux; lambda*F_lambda (W/m2)
# column 5: total dust emission flux; lambda*F_lambda (W/m2)
# column 6: dust emission scattered flux; lambda*F_lambda (W/m2)
# column 7: transparent flux; lambda*F_lambda (W/m2)
1.00000000e-03 1.04634367e-12 1.04634360e-12 6.55343895e-20 0.00000000e+00 0.00000000e+00 1.04634360e-12
1.14815362e-03 1.23502105e-12 1.23502095e-12 1.02009302e-19 0.00000000e+00 0.00000000e+00 1.23502095e-12
1.31825674e-03 1.45772087e-12 1.45772071e-12 1.55374785e-19 0.00000000e+00 0.00000000e+00 1.45772071e-12
1.51356125e-03 1.72057809e-12 1.72057784e-12 2.51018733e-19 0.00000000e+00 0.00000000e+00 1.72057784e-12
1.73780083e-03 2.03083396e-12 2.03083353e-12 4.34945113e-19 0.00000000e+00 0.00000000e+00 2.03083353e-12
1.99526231e-03 2.39703550e-12 2.39703472e-12 7.78905607e-19 0.00000000e+00 0.00000000e+00 2.39703472e-12
2.29086765e-03 2.82927075e-12 2.82926954e-12 1.20963429e-18 0.00000000e+00 0.00000000e+00 2.82926954e-12
2.63026799e-03 3.33944778e-12 3.33944522e-12 2.56060218e-18 0.00000000e+00 0.00000000e+00 3.33944522e-12
3.01995172e-03 3.94162031e-12 3.94161611e-12 4.20474088e-18 0.00000000e+00 0.00000000e+00 3.94161611e-12
3.46736850e-03 4.65237807e-12 4.65237083e-12 7.24076965e-18 0.00000000e+00 0.00000000e+00 4.65237083e-12
3.98107171e-03 5.49130102e-12 5.49128930e-12 1.17249705e-17 0.00000000e+00 0.00000000e+00 5.49128930e-12
4.57088190e-03 6.48151071e-12 6.48148207e-12 2.86414965e-17 0.00000000e+00 0.00000000e+00 6.48148207e-12
5.24807460e-03 7.65027245e-12 7.65022704e-12 4.54082087e-17 0.00000000e+00 0.00000000e+00 7.65022704e-12
6.02559586e-03 9.02980163e-12 9.02972084e-12 8.07898760e-17 0.00000000e+00 0.00000000e+00 9.02972084e-12
6.91830971e-03 1.06580954e-11 1.06579658e-11 1.29505021e-16 0.00000000e+00 0.00000000e+00 1.06579658e-11
7.94328235e-03 1.25800284e-11 1.25798170e-11 2.11398738e-16 0.00000000e+00 0.00000000e+00 1.25798170e-11
9.12010839e-03 1.48485681e-11 1.48482176e-11 3.50434699e-16 0.00000000e+00 0.00000000e+00 1.48482176e-11
1.04712855e-02 1.65838927e-11 1.65834298e-11 4.62910299e-16 0.00000000e+00 0.00000000e+00 1.65834298e-11
1.20226443e-02 1.65841266e-11 1.65834298e-11 6.96822150e-16 0.00000000e+00 0.00000000e+00 1.65834298e-11
1.38038426e-02 1.65844651e-11 1.65834298e-11 1.03532392e-15 2.15187640e-290 5.72650177e-293 1.65834298e-11
1.58489319e-02 1.65851131e-11 1.65834298e-11 1.68334153e-15 1.21820050e-253 4.44158602e-256 1.65834298e-11
1.81970086e-02 1.65856402e-11 1.65834298e-11 2.21040628e-15 1.18006964e-221 5.10454858e-224 1.65834298e-11
2.08929613e-02 1.65860461e-11 1.65834298e-11 2.61629085e-15 7.60957036e-194 4.04505146e-196 1.65834298e-11
2.39883292e-02 1.65872803e-11 1.65834298e-11 3.85054145e-15 1.22226133e-169 9.28019617e-172 1.65834298e-11
2.75422870e-02 1.65883515e-11 1.65834298e-11 4.92171458e-15 1.41863876e-148 1.35137600e-150 1.65834298e-11
3.16227766e-02 1.65899059e-11 1.65834298e-11 6.47612153e-15 2.94392972e-130 3.36396559e-132 1.65834298e-11
3.63078055e-02 1.65910070e-11 1.65834298e-11 7.57717536e-15 2.46411263e-114 3.35043677e-116 1.65834298e-11
4.16869383e-02 1.65944982e-11 1.65834298e-11 1.10684593e-14 1.69805211e-100 3.17792994e-102 1.65834298e-11
4.78630092e-02 1.66000625e-11 1.65834298e-11 1.66327248e-14 1.78463239e-88 4.62817541e-90 1.65834298e-11
5.49540874e-02 1.66045555e-11 1.65834298e-11 2.11257521e-14 4.89875430e-78 1.62882469e-79 1.65834298e-11
6.30957344e-02 1.66108576e-11 1.65834298e-11 2.74278260e-14 7.49456607e-69 3.28046848e-70 1.65834298e-11
7.24435960e-02 1.66131685e-11 1.65834298e-11 2.97386803e-14 6.89653999e-61 3.19680995e-62 1.65834298e-11
8.31763771e-02 1.66132108e-11 1.65834298e-11 2.97809900e-14 4.31467356e-54 1.98507531e-55 1.65834298e-11
9.54992586e-02 1.66154824e-11 1.65834298e-11 3.20525944e-14 3.24343979e-48 1.53287712e-49 1.65834298e-11
1.09647820e-01 1.58682371e-11 1.58370587e-11 3.11783690e-14 3.56071123e-43 1.72733858e-44 1.58370587e-11
1.25892541e-01 1.48060345e-11 1.47800032e-11 2.60313418e-14 7.95834521e-39 3.49951973e-40 1.47800032e-11
1.44543977e-01 1.38159203e-11 1.37935015e-11 2.24188157e-14 4.33541602e-35 1.73814570e-36 1.37935015e-11
1.65958691e-01 1.28958679e-11 1.28728446e-11 2.30232684e-14 5.48230462e-32 2.44703691e-33 1.28728446e-11
1.90546072e-01 1.20408340e-11 1.20136376e-11 2.71964145e-14 1.92321114e-29 1.08303075e-30 1.20136376e-11
2.18776162e-01 1.12420701e-11 1.12117790e-11 3.02911338e-14 2.69863363e-27 1.75952306e-28 1.12117790e-11
2.51188643e-01 1.04981245e-11 1.04634409e-11 3.46835969e-14 2.89554273e-25 2.29258750e-26 1.04634409e-11
2.88403150e-01 9.79509112e-12 9.76505125e-12 3.00398629e-14 1.70442521e-23 1.31314103e-24 9.76505125e-12
3.31131121e-01 9.14062115e-12 9.11327608e-12 2.73450668e-14 5.81574318e-22 4.44492917e-23 9.11327608e-12
3.80189396e-01 8.53001673e-12 8.50500410e-12 2.50126195e-14 1.25690279e-20 9.85403832e-22 8.50500410e-12
4.36515832e-01 7.95946812e-12 7.93733165e-12 2.21362912e-14 1.81221177e-19 1.47068353e-20 7.93733165e-12
5.01187234e-01 7.42768605e-12 7.40754890e-12 2.01353304e-14 1.81763817e-18 1.53299030e-19 7.40754890e-12
5.75439937e-01 6.93281117e-12 6.91312687e-12 1.96710726e-14 1.32312960e-17 1.18777332e-18 6.91312687e-12
6.60693448e-01 6.47025525e-12 6.45170538e-12 1.84775141e-14 7.23546409e-17 6.83489703e-18 6.45170538e-12
7.58577575e-01 6.03819056e-12 6.02108180e-12 1.67968769e-14 3.11891520e-16 3.09917610e-17 6.02108180e-12
8.70963590e-01 5.63615246e-12 5.61920048e-12 1.58522713e-14 1.09970401e-15 1.10933814e-16 5.61920048e-12
1.00000000e+00 5.26166683e-12 5.24414302e-12 1.42804053e-14 3.24341283e-15 3.27609663e-16 5.24414302e-12
1.14815362e+00 4.91447633e-12 4.89411902e-12 1.19840294e-14 8.37327246e-15 8.10752636e-16 4.89411902e-12
1.31825674e+00 4.59645353e-12 4.56745763e-12 9.71620242e-15 1.92797004e-14 1.72846073e-15 4.56745763e-12
1.51356125e+00 4.30971524e-12 4.26259947e-12 7.73456670e-15 3.93811980e-14 3.11298831e-15 4.26259947e-12
1.73780083e+00 4.05506845e-12 3.97808929e-12 5.84724206e-15 7.11319197e-14 4.72366737e-15 3.97808929e-12
1.99526231e+00 3.83127630e-12 3.71256894e-12 4.58574703e-15 1.14121610e-13 6.13155899e-15 3.71256894e-12
2.29086765e+00 3.63142430e-12 3.46477093e-12 2.88534766e-15 1.63768022e-13 6.52011488e-15 3.46477093e-12
2.63026799e+00 3.44974255e-12 3.23351237e-12 2.07577315e-15 2.14154400e-13 6.23522274e-15 3.23351237e-12
3.01995172e+00 3.27595521e-12 3.01768933e-12 1.39937002e-15 2.56866510e-13 5.16309610e-15 3.01768933e-12
3.46736850e+00 3.10365808e-12 2.81627154e-12 8.62036914e-16 2.86524499e-13 3.94489158e-15 2.81627154e-12
3.98107171e+00 2.92793977e-12 2.62829753e-12 5.23296601e-16 2.99118944e-13 2.69825700e-15 2.62829753e-12
4.57088190e+00 2.74818129e-12 2.45286997e-12 3.23580851e-16 2.94987732e-13 1.71952320e-15 2.45286997e-12
5.24807460e+00 2.30692183e-12 2.02814751e-12 1.65723502e-16 2.78608592e-13 1.01280777e-15 2.02814751e-12
6.02559586e+00 1.59594472e-12 1.33998377e-12 6.43799234e-17 2.55896566e-13 5.50249810e-16 1.33998377e-12
6.70000000e+00 1.21039763e-12 9.74709347e-13 3.20493446e-17 2.35656231e-13 3.29898256e-16 9.74709347e-13
6.92422916e+00 1.11201380e-12 8.83049889e-13 2.38422854e-17 2.28940068e-13 2.81770357e-16 8.83049889e-13
7.15596261e+00 1.02468651e-12 8.00009879e-13 1.87746523e-17 2.24657856e-13 2.35305845e-16 8.00009879e-13
7.39545150e+00 9.50865236e-13 7.24778763e-13 1.51785844e-17 2.26071295e-13 1.98848113e-16 7.24778763e-13
7.64295536e+00 9.01249010e-13 6.56622211e-13 1.09146988e-17 2.44615885e-13 1.70208584e-16 6.56622211e-13
7.89874245e+00 8.85309509e-13 5.94874946e-13 7.41295918e-18 2.90427150e-13 1.51657371e-16 5.94874946e-13
8.16308998e+00 8.98044932e-13 5.38934254e-13 4.68462110e-18 3.59105993e-13 1.33643451e-16 5.38934254e-13
8.43628443e+00 9.46493024e-13 4.88254098e-13 2.99643739e-18 4.58235929e-13 1.12561105e-16 4.88254098e-13
8.71862190e+00 9.73309897e-13 4.42339790e-13 1.88179584e-18 5.30968226e-13 8.73856746e-17 4.42339790e-13
9.01040836e+00 1.00987272e-12 4.00743158e-13 1.08047184e-18 6.09128484e-13 6.05077452e-17 4.00743158e-13
9.31196005e+00 1.03803300e-12 3.63058180e-13 0.00000000e+00 6.74974816e-13 0.00000000e+00 3.63058180e-13
9.62360379e+00 1.00587143e-12 3.28917012e-13 0.00000000e+00 6.76954417e-13 0.00000000e+00 3.28917012e-13
9.94567731e+00 9.27814892e-13 2.97986401e-13 0.00000000e+00 6.29828491e-13 0.00000000e+00 2.97986401e-13
1.02785297e+01 8.39467175e-13 2.69964435e-13 0.00000000e+00 5.69502739e-13 0.00000000e+00 2.69964435e-13
1.06225216e+01 7.55152907e-13 2.44577592e-13 0.00000000e+00 5.10575316e-13 0.00000000e+00 2.44577592e-13
1.09780260e+01 6.66750921e-13 2.21578069e-13 0.00000000e+00 4.45172851e-13 0.00000000e+00 2.21578069e-13
1.13454280e+01 5.90244247e-13 2.00741370e-13 0.00000000e+00 3.89502877e-13 0.00000000e+00 2.00741370e-13
1.17251259e+01 5.24099009e-13 1.81864106e-13 0.00000000e+00 3.42234903e-13 0.00000000e+00 1.81864106e-13
1.21175312e+01 4.64554023e-13 1.64762018e-13 0.00000000e+00 2.99792005e-13 0.00000000e+00 1.64762018e-13
1.25230691e+01 4.12387366e-13 1.49268171e-13 0.00000000e+00 2.63119195e-13 0.00000000e+00 1.49268171e-13
1.29421791e+01 3.67693472e-13 1.35231331e-13 0.00000000e+00 2.32462141e-13 0.00000000e+00 1.35231331e-13
1.33753155e+01 3.29165243e-13 1.22514483e-13 0.00000000e+00 2.06650760e-13 0.00000000e+00 1.22514483e-13
1.38229477e+01 3.01643740e-13 1.10993499e-13 0.00000000e+00 1.90650241e-13 0.00000000e+00 1.10993499e-13
1.42855609e+01 2.82432709e-13 1.00555922e-13 0.00000000e+00 1.81876788e-13 0.00000000e+00 1.00555922e-13
1.47636563e+01 2.76341398e-13 9.10998706e-14 0.00000000e+00 1.85241527e-13 0.00000000e+00 9.10998706e-14
1.52577522e+01 2.74271213e-13 8.25330452e-14 0.00000000e+00 1.91738168e-13 0.00000000e+00 8.25330452e-14
1.57683840e+01 2.75437594e-13 7.47718247e-14 0.00000000e+00 2.00665770e-13 0.00000000e+00 7.47718247e-14
1.62961051e+01 2.77863781e-13 6.77404517e-14 0.00000000e+00 2.10123330e-13 0.00000000e+00 6.77404517e-14
1.68414875e+01 2.80827244e-13 6.13702932e-14 0.00000000e+00 2.19456951e-13 0.00000000e+00 6.13702932e-14
1.74051222e+01 2.80923524e-13 5.55991699e-14 0.00000000e+00 2.25324354e-13 0.00000000e+00 5.55991699e-14
1.79876201e+01 2.78670732e-13 5.03707500e-14 0.00000000e+00 2.28299982e-13 0.00000000e+00 5.03707500e-14
1.85896125e+01 2.71791035e-13 4.56339988e-14 0.00000000e+00 2.26157036e-13 0.00000000e+00 4.56339988e-14
1.92117518e+01 2.60575009e-13 4.13426810e-14 0.00000000e+00 2.19232328e-13 0.00000000e+00 4.13426810e-14
1.98547123e+01 2.46888559e-13 3.74549090e-14 0.00000000e+00 2.09433651e-13 0.00000000e+00 3.74549090e-14
2.05191907e+01 2.33173690e-13 3.39327342e-14 0.00000000e+00 1.99240956e-13 0.00000000e+00 3.39327342e-14
2.12059073e+01 2.20126031e-13 3.07417768e-14 0.00000000e+00 1.89384254e-13 0.00000000e+00 3.07417768e-14
2.19156062e+01 2.08950020e-13 2.78508898e-14 0.00000000e+00 1.81099131e-13 0.00000000e+00 2.78508898e-14
2.26490567e+01 1.98745272e-13 2.52318552e-14 0.00000000e+00 1.73513416e-13 0.00000000e+00 2.52318552e-14
2.34070535e+01 1.89511970e-13 2.28591087e-14 0.00000000e+00 1.66652861e-13 0.00000000e+00 2.28591087e-14
2.41904183e+01 1.80916434e-13 2.07094900e-14 0.00000000e+00 1.60206944e-13 0.00000000e+00 2.07094900e-14
2.50000000e+01 1.73292075e-13 1.87620165e-14 0.00000000e+00 1.54530058e-13 0.00000000e+00 1.87620165e-14
2.75422870e+01 1.53214616e-13 1.40313526e-14 0.00000000e+00 1.39183263e-13 0.00000000e+00 1.40313526e-14
3.16227766e+01 1.28786306e-13 9.27042274e-15 0.00000000e+00 1.19515883e-13 0.00000000e+00 9.27042274e-15
3.63078055e+01 1.05715026e-13 6.12490756e-15 0.00000000e+00 9.95901183e-14 0.00000000e+00 6.12490756e-15
4.16869383e+01 8.28153643e-14 4.04668630e-15 0.00000000e+00 7.87686780e-14 0.00000000e+00 4.04668630e-15
4.78630092e+01 6.14803367e-14 2.67361912e-15 0.00000000e+00 5.88067176e-14 0.00000000e+00 2.67361912e-15
5.49540874e+01 4.34740010e-14 1.76644264e-15 0.00000000e+00 4.17075584e-14 0.00000000e+00 1.76644264e-15
6.30957344e+01 2.94593301e-14 1.16707708e-15 0.00000000e+00 2.82922530e-14 0.00000000e+00 1.16707708e-15
7.24435960e+01 1.92089752e-14 7.71080178e-16 0.00000000e+00 1.84378951e-14 0.00000000e+00 7.71080178e-16
8.31763771e+01 1.21272422e-14 5.09447621e-16 0.00000000e+00 1.16177945e-14 0.00000000e+00 5.09447621e-16
9.54992586e+01 7.45575842e-15 3.36588705e-16 0.00000000e+00 7.11916972e-15 0.00000000e+00 3.36588705e-16
1.09647820e+02 4.48043823e-15 2.22381952e-16 0.00000000e+00 4.25805628e-15 0.00000000e+00 2.22381952e-16
1.25892541e+02 2.66903768e-15 1.46926299e-16 0.00000000e+00 2.52211138e-15 0.00000000e+00 1.46926299e-16
1.44543977e+02 1.56927534e-15 9.70732430e-17 0.00000000e+00 1.47220210e-15 0.00000000e+00 9.70732430e-17
1.65958691e+02 8.77298070e-16 6.41356556e-17 0.00000000e+00 8.13162414e-16 0.00000000e+00 6.41356556e-17
1.90546072e+02 4.88545330e-16 4.23740075e-17 0.00000000e+00 4.46171323e-16 0.00000000e+00 4.23740075e-17
2.18776162e+02 2.70819663e-16 2.79962291e-17 0.00000000e+00 2.42823434e-16 0.00000000e+00 2.79962291e-17
2.51188643e+02 1.49447854e-16 1.84969251e-17 0.00000000e+00 1.30950929e-16 0.00000000e+00 1.84969251e-17
2.88403150e+02 8.21642862e-17 1.22207972e-17 0.00000000e+00 6.99434890e-17 0.00000000e+00 1.22207972e-17
3.31131121e+02 4.51719655e-17 8.07420067e-18 0.00000000e+00 3.70977649e-17 0.00000000e+00 8.07420067e-18
3.80189396e+02 2.48636728e-17 5.33457148e-18 0.00000000e+00 1.95291013e-17 0.00000000e+00 5.33457148e-18
4.36515832e+02 1.37467969e-17 3.52451642e-18 0.00000000e+00 1.02222805e-17 0.00000000e+00 3.52451642e-18
5.01187234e+02 7.65012192e-18 2.32862491e-18 0.00000000e+00 5.32149701e-18 0.00000000e+00 2.32862491e-18
5.75439937e+02 4.29600951e-18 1.53850722e-18 0.00000000e+00 2.75750229e-18 0.00000000e+00 1.53850722e-18
6.60693448e+02 2.43971111e-18 1.01648164e-18 0.00000000e+00 1.42322947e-18 0.00000000e+00 1.01648164e-18
7.58577575e+02 1.40362128e-18 6.71582760e-19 0.00000000e+00 7.32038522e-19 0.00000000e+00 6.71582760e-19
8.70963590e+02 8.19018600e-19 4.43710329e-19 0.00000000e+00 3.75308271e-19 0.00000000e+00 4.43710329e-19
1.00000000e+03 1.91855963e-19 0.00000000e+00 0.00000000e+00 1.91855963e-19 0.00000000e+00 0.00000000e+00
