# column 1: lambda (micron)
# column 2: total flux; lambda*F_lambda (W/m2)
# column 3: direct stellar flux; lambda*F_lambda (W/m2)
# column 4: scattered stellar flux; lambda*F_lambda (W/m2)
# column 5: total dust emission flux; lambda*F_lambda (W/m2)
# column 6: dust emission scattered flux; lambda*F_lambda (W/m2)
# column 7: transparent flux; lambda*F_lambda (W/m2)
1.00000000e-03 9.68075405e-13 9.68073281e-13 2.12351105e-18 0.00000000e+00 0.00000000e+00 9.68073281e-13
1.14815362e-03 1.14264001e-12 1.14263687e-12 3.14444412e-18 0.00000000e+00 0.00000000e+00 1.14263687e-12
1.31825674e-03 1.34868247e-12 1.34867788e-12 4.59296431e-18 0.00000000e+00 0.00000000e+00 1.34867788e-12
1.51356125e-03 1.59187909e-12 1.59187233e-12 6.76508118e-18 0.00000000e+00 0.00000000e+00 1.59187233e-12
1.73780083e-03 1.87893219e-12 1.87891976e-12 1.24310440e-17 0.00000000e+00 0.00000000e+00 1.87891976e-12
1.99526231e-03 2.21774920e-12 2.21772777e-12 2.14352158e-17 0.00000000e+00 0.00000000e+00 2.21772777e-12
2.29086765e-03 2.61766236e-12 2.61762985e-12 3.25159296e-17 0.00000000e+00 0.00000000e+00 2.61762985e-12
2.63026799e-03 3.08970752e-12 3.08964252e-12 6.49949076e-17 0.00000000e+00 0.00000000e+00 3.08964252e-12
3.01995172e-03 3.64687178e-12 3.64676883e-12 1.02954234e-16 0.00000000e+00 0.00000000e+00 3.64676883e-12
3.46736850e-03 4.30452382e-12 4.30435650e-12 1.67324093e-16 0.00000000e+00 0.00000000e+00 4.30435650e-12
3.98107171e-03 5.08078097e-12 5.08052080e-12 2.60168770e-16 0.00000000e+00 0.00000000e+00 5.08052080e-12
4.57088190e-03 5.99728493e-12 5.99664354e-12 6.41391222e-16 0.00000000e+00 0.00000000e+00 5.99664354e-12
5.24807460e-03 7.07907346e-12 7.07796211e-12 1.11134446e-15 0.00000000e+00 0.00000000e+00 7.07796211e-12
6.02559586e-03 8.35629273e-12 8.35426474e-12 2.02798695e-15 0.00000000e+00 0.00000000e+00 8.35426474e-12
6.91830971e-03 9.86378344e-12 9.86071107e-12 3.07236959e-15 0.00000000e+00 0.00000000e+00 9.86071107e-12
7.94328235e-03 1.16437149e-11 1.16388008e-11 4.91417946e-15 2.52290773e-303 3.08257719e-305 1.16388008e-11
9.12010839e-03 1.37455594e-11 1.37375167e-11 8.04265000e-15 1.11252833e-264 1.38817408e-266 1.37375167e-11
1.04712855e-02 1.53536324e-11 1.53429287e-11 1.07037623e-14 4.73585636e-231 6.54395881e-233 1.53429287e-11
1.20226443e-02 1.53609708e-11 1.53429287e-11 1.80421598e-14 7.50614438e-202 1.61072640e-203 1.53429287e-11
1.38038426e-02 1.53720469e-11 1.53429287e-11 2.91181916e-14 2.04887834e-176 4.10275449e-178 1.53429287e-11
1.58489319e-02 1.53776174e-11 1.53429287e-11 3.46887583e-14 2.78065146e-154 5.92601628e-156 1.53429287e-11
1.81970086e-02 1.53934077e-11 1.53429287e-11 5.04790170e-14 5.00664277e-135 1.42682892e-136 1.53429287e-11
2.08929613e-02 1.54076282e-11 1.53429287e-11 6.46995179e-14 2.63308293e-118 9.04530626e-120 1.53429287e-11
2.39883292e-02 1.54303021e-11 1.53429287e-11 8.73734521e-14 9.27392307e-104 3.57598789e-105 1.53429287e-11
2.75422870e-02 1.54535926e-11 1.53429287e-11 1.10663910e-13 4.16807600e-91 1.80012959e-92 1.53429287e-11
3.16227766e-02 1.54803886e-11 1.53429287e-11 1.37459913e-13 4.07805164e-80 1.97578663e-81 1.53429287e-11
3.63078055e-02 1.54992832e-11 1.53429287e-11 1.56354516e-13 1.41979743e-70 7.59577631e-72 1.53429287e-11
4.16869383e-02 1.55534575e-11 1.53429287e-11 2.10528795e-13 2.72171181e-62 1.78238015e-63 1.53429287e-11
4.78630092e-02 1.56173240e-11 1.53429287e-11 2.74395347e-13 4.13656747e-55 3.21575740e-56 1.53429287e-11
5.49540874e-02 1.56540614e-11 1.53429287e-11 3.11132696e-13 6.90087822e-49 6.11011935e-50 1.53429287e-11
6.30957344e-02 1.56878173e-11 1.53429287e-11 3.44888622e-13 2.21505806e-43 2.10312669e-44 1.53429287e-11
7.24435960e-02 1.56577474e-11 1.53429287e-11 3.14818756e-13 1.26202816e-38 1.10804543e-39 1.53429287e-11
8.31763771e-02 1.56584859e-11 1.53429287e-11 3.15557211e-13 1.29281126e-34 1.09836354e-35 1.53429287e-11
9.54992586e-02 1.56702539e-11 1.53429287e-11 3.27325215e-13 3.65191752e-31 3.16304210e-32 1.53429287e-11
1.09647820e-01 1.49962410e-11 1.46523889e-11 3.43852122e-13 3.14100732e-28 3.00387879e-29 1.46523889e-11
1.25892541e-01 1.40041988e-11 1.36744049e-11 3.29793848e-13 1.02607836e-25 9.83614412e-27 1.36744049e-11
1.44543977e-01 1.30644281e-11 1.27616972e-11 3.02730845e-13 1.40160111e-23 1.28506481e-24 1.27616972e-11
1.65958691e-01 1.22296889e-11 1.19099088e-11 3.19780055e-13 7.15100491e-22 7.17779099e-23 1.19099088e-11
1.90546072e-01 1.14700462e-11 1.11149736e-11 3.55072576e-13 1.50963379e-20 1.71681487e-21 1.11149736e-11
2.18776162e-01 1.07007712e-11 1.03730969e-11 3.27674058e-13 1.77945965e-19 2.07113747e-20 1.03730969e-11
2.51188643e-01 1.00644324e-11 9.68073733e-12 3.83692831e-13 2.18704298e-18 3.00568888e-19 9.68073733e-12
2.88403150e-01 9.39618267e-12 9.03458975e-12 3.61574666e-13 1.82535364e-17 2.46081145e-18 9.03458975e-12
3.31131121e-01 8.76927973e-12 8.43156974e-12 3.37604995e-13 1.04989729e-16 1.39271642e-17 8.43156974e-12
3.80189396e-01 8.17743105e-12 7.86879872e-12 3.08193847e-13 4.38482909e-16 5.70616460e-17 7.86879872e-12
4.36515832e-01 7.63330496e-12 7.34359025e-12 2.88316992e-13 1.39771873e-15 1.80132955e-16 7.34359025e-12
5.01187234e-01 7.12366191e-12 6.85343719e-12 2.66620424e-13 3.60430033e-15 4.79192811e-16 6.85343719e-12
5.75439937e-01 6.65835245e-12 6.39599973e-12 2.54222028e-13 8.13068880e-15 1.18858513e-15 6.39599973e-12
6.60693448e-01 6.21742758e-12 5.96909425e-12 2.30559390e-13 1.77739328e-14 3.10475018e-15 5.96909425e-12
7.58577575e-01 5.81870143e-12 5.57068288e-12 2.07272905e-13 4.07456384e-14 8.50329443e-15 5.57068288e-12
8.70963590e-01 5.48466445e-12 5.19886376e-12 1.89043773e-13 9.67569187e-14 2.24026812e-14 5.19886376e-12
1.00000000e+00 5.23579147e-12 4.85186196e-12 1.61470849e-13 2.22458659e-13 5.24683072e-14 4.85186196e-12
1.14815362e+00 5.14464535e-12 4.52802104e-12 1.39129976e-13 4.77494335e-13 1.06786421e-13 4.52802104e-12
1.31825674e+00 5.27583215e-12 4.22579511e-12 1.12327977e-13 9.37709056e-13 1.88631267e-13 4.22579511e-12
1.51356125e+00 5.70002450e-12 3.94374146e-12 9.18912711e-14 1.66439176e-12 2.94814902e-13 3.94374146e-12
1.73780083e+00 6.39835703e-12 3.68051368e-12 7.24528784e-14 2.64539047e-12 4.02995843e-13 3.68051368e-12
1.99526231e+00 7.23799788e-12 3.43485522e-12 5.74820620e-14 3.74566060e-12 4.70233920e-13 3.43485522e-12
2.29086765e+00 8.08488786e-12 3.20559341e-12 4.24751025e-14 4.83681934e-12 4.79295345e-13 3.20559341e-12
2.63026799e+00 8.73033775e-12 2.99163384e-12 3.06304152e-14 5.70807350e-12 4.36864969e-13 2.99163384e-12
3.01995172e+00 9.13868638e-12 2.79195514e-12 2.14511825e-14 6.32528005e-12 3.54141530e-13 2.79195514e-12
3.46736850e+00 9.21929270e-12 2.60560415e-12 1.41766153e-14 6.59951194e-12 2.62734386e-13 2.60560415e-12
3.98107171e+00 8.98478990e-12 2.43169128e-12 9.20895534e-15 6.54388967e-12 1.77766083e-13 2.43169128e-12
4.57088190e+00 8.52483233e-12 2.26938634e-12 5.69291235e-15 6.24975307e-12 1.11011348e-13 2.26938634e-12
5.24807460e+00 7.67961197e-12 1.87643467e-12 3.04386321e-15 5.80013343e-12 6.55648786e-14 1.87643467e-12
6.02559586e+00 6.56366298e-12 1.23974809e-12 1.25329476e-15 5.32266160e-12 3.66933422e-14 1.23974809e-12
6.70000000e+00 5.84461668e-12 9.01797527e-13 6.10080007e-16 4.94220907e-12 2.24773306e-14 9.01797527e-13
6.92422916e+00 5.62400930e-12 8.16994532e-13 4.85416119e-16 4.80652935e-12 1.91355728e-14 8.16994532e-13
7.15596261e+00 5.47626453e-12 7.40166218e-13 3.83039650e-16 4.73571527e-12 1.62255980e-14 7.40166218e-13
7.39545150e+00 5.42716435e-12 6.70562664e-13 2.96855608e-16 4.75630483e-12 1.38862520e-14 6.70562664e-13
7.64295536e+00 5.68450790e-12 6.07504471e-13 2.15998609e-16 5.07678743e-12 1.21201768e-14 6.07504471e-13
7.89874245e+00 6.36399409e-12 5.50376127e-13 1.45860111e-16 5.81347210e-12 1.06670757e-14 5.50376127e-13
8.16308998e+00 7.32612293e-12 4.98620004e-13 9.18378434e-17 6.82741109e-12 9.29145315e-15 4.98620004e-13
8.43628443e+00 8.52376338e-12 4.51730909e-13 5.49217043e-17 8.07197755e-12 7.65706020e-15 4.51730909e-13
8.71862190e+00 9.26344778e-12 4.09251158e-13 3.46593359e-17 8.85416196e-12 6.06530643e-15 4.09251158e-13
9.01040836e+00 9.98233014e-12 3.70766106e-13 1.88643770e-17 9.61154517e-12 4.13730155e-15 3.70766106e-13
9.31196005e+00 1.04627066e-11 3.35900102e-13 0.00000000e+00 1.01268065e-11 0.00000000e+00 3.35900102e-13
9.62360379e+00 1.03356337e-11 3.04312818e-13 0.00000000e+00 1.00313209e-11 0.00000000e+00 3.04312818e-13
9.94567731e+00 9.82816587e-12 2.75695930e-13 0.00000000e+00 9.55246994e-12 0.00000000e+00 2.75695930e-13
1.02785297e+01 9.13914357e-12 2.49770110e-13 0.00000000e+00 8.88937347e-12 0.00000000e+00 2.49770110e-13
1.06225216e+01 8.50606096e-12 2.26282295e-13 0.00000000e+00 8.27977867e-12 0.00000000e+00 2.26282295e-13
1.09780260e+01 7.76807843e-12 2.05003220e-13 0.00000000e+00 7.56307521e-12 0.00000000e+00 2.05003220e-13
1.13454280e+01 7.09686438e-12 1.85725182e-13 0.00000000e+00 6.91113920e-12 0.00000000e+00 1.85725182e-13
1.17251259e+01 6.49308474e-12 1.68260007e-13 0.00000000e+00 6.32482473e-12 0.00000000e+00 1.68260007e-13
1.21175312e+01 5.92810977e-12 1.52437217e-13 0.00000000e+00 5.77567256e-12 0.00000000e+00 1.52437217e-13
1.25230691e+01 5.41939131e-12 1.38102367e-13 0.00000000e+00 5.28128895e-12 0.00000000e+00 1.38102367e-13
1.29421791e+01 4.96013229e-12 1.25115533e-13 0.00000000e+00 4.83501675e-12 0.00000000e+00 1.25115533e-13
1.33753155e+01 4.56727052e-12 1.13349952e-13 0.00000000e+00 4.45392056e-12 0.00000000e+00 1.13349952e-13
1.38229477e+01 4.29794009e-12 1.02690779e-13 0.00000000e+00 4.19524931e-12 0.00000000e+00 1.02690779e-13
1.42855609e+01 4.15165116e-12 9.30339713e-14 0.00000000e+00 4.05861719e-12 0.00000000e+00 9.30339713e-14
1.47636563e+01 4.22055511e-12 8.42852675e-14 0.00000000e+00 4.13626985e-12 0.00000000e+00 8.42852675e-14
1.52577522e+01 4.33604823e-12 7.63592720e-14 0.00000000e+00 4.25968896e-12 0.00000000e+00 7.63592720e-14
1.57683840e+01 4.48751630e-12 6.91786191e-14 0.00000000e+00 4.41833768e-12 0.00000000e+00 6.91786191e-14
1.62961051e+01 4.65020974e-12 6.26732185e-14 0.00000000e+00 4.58753652e-12 0.00000000e+00 6.26732185e-14
1.68414875e+01 4.81038498e-12 5.67795711e-14 0.00000000e+00 4.75360541e-12 0.00000000e+00 5.67795711e-14
1.74051222e+01 4.89495451e-12 5.14401489e-14 0.00000000e+00 4.84351436e-12 0.00000000e+00 5.14401489e-14
1.79876201e+01 4.94204394e-12 4.66028339e-14 0.00000000e+00 4.89544110e-12 0.00000000e+00 4.66028339e-14
1.85896125e+01 4.91223100e-12 4.22204090e-14 0.00000000e+00 4.87001059e-12 0.00000000e+00 4.22204090e-14
1.92117518e+01 4.79258329e-12 3.82500974e-14 0.00000000e+00 4.75433320e-12 0.00000000e+00 3.82500974e-14
1.98547123e+01 4.62264287e-12 3.46531450e-14 0.00000000e+00 4.58798973e-12 0.00000000e+00 3.46531450e-14
2.05191907e+01 4.43062444e-12 3.13944418e-14 0.00000000e+00 4.39923000e-12 0.00000000e+00 3.13944418e-14
2.12059073e+01 4.24720611e-12 2.84421796e-14 0.00000000e+00 4.21876393e-12 0.00000000e+00 2.84421796e-14
2.19156062e+01 4.06961413e-12 2.57675415e-14 0.00000000e+00 4.04384659e-12 0.00000000e+00 2.57675415e-14
2.26490567e+01 3.89692327e-12 2.33444203e-14 0.00000000e+00 3.87357885e-12 0.00000000e+00 2.33444203e-14
2.34070535e+01 3.72676540e-12 2.11491639e-14 0.00000000e+00 3.70561623e-12 0.00000000e+00 2.11491639e-14
2.41904183e+01 3.56949456e-12 1.91603445e-14 0.00000000e+00 3.55033422e-12 0.00000000e+00 1.91603445e-14
2.50000000e+01 3.40975149e-12 1.73585491e-14 0.00000000e+00 3.39239294e-12 0.00000000e+00 1.73585491e-14
2.75422870e+01 2.95360597e-12 1.29817562e-14 0.00000000e+00 2.94062421e-12 0.00000000e+00 1.29817562e-14
3.16227766e+01 2.32391954e-12 8.57696126e-15 0.00000000e+00 2.31534258e-12 0.00000000e+00 8.57696126e-15
3.63078055e+01 1.72152619e-12 5.66674211e-15 0.00000000e+00 1.71585945e-12 0.00000000e+00 5.66674211e-15
4.16869383e+01 1.18783772e-12 3.74397938e-15 0.00000000e+00 1.18409374e-12 0.00000000e+00 3.74397938e-15
4.78630092e+01 7.64002828e-13 2.47362265e-15 0.00000000e+00 7.61529206e-13 0.00000000e+00 2.47362265e-15
5.49540874e+01 4.65728883e-13 1.63430628e-15 0.00000000e+00 4.64094576e-13 0.00000000e+00 1.63430628e-15
6.30957344e+01 2.72411299e-13 1.07977545e-15 0.00000000e+00 2.71331523e-13 0.00000000e+00 1.07977545e-15
7.24435960e+01 1.54393663e-13 7.13400564e-16 0.00000000e+00 1.53680263e-13 0.00000000e+00 7.13400564e-16
8.31763771e+01 8.56373264e-14 4.71339078e-16 0.00000000e+00 8.51659873e-14 0.00000000e+00 4.71339078e-16
9.54992586e+01 4.68091372e-14 3.11410641e-16 0.00000000e+00 4.64977266e-14 0.00000000e+00 3.11410641e-16
1.09647820e+02 2.53226314e-14 2.05746970e-16 0.00000000e+00 2.51168844e-14 0.00000000e+00 2.05746970e-16
1.25892541e+02 1.37587406e-14 1.35935675e-16 0.00000000e+00 1.36228049e-14 0.00000000e+00 1.35935675e-16
1.44543977e+02 7.45995981e-15 8.98118099e-17 0.00000000e+00 7.37014800e-15 0.00000000e+00 8.98118099e-17
1.65958691e+02 3.86072993e-15 5.93380743e-17 0.00000000e+00 3.80139186e-15 0.00000000e+00 5.93380743e-17
1.90546072e+02 2.00654714e-15 3.92042769e-17 0.00000000e+00 1.96734286e-15 0.00000000e+00 3.92042769e-17
2.18776162e+02 1.04438305e-15 2.59020089e-17 0.00000000e+00 1.01848105e-15 0.00000000e+00 2.59020089e-17
2.51188643e+02 5.43325801e-16 1.71132876e-17 0.00000000e+00 5.26212513e-16 0.00000000e+00 1.71132876e-17
2.88403150e+02 2.82233282e-16 1.13066370e-17 0.00000000e+00 2.70926645e-16 0.00000000e+00 1.13066370e-17
3.31131121e+02 1.46708931e-16 7.47022097e-18 0.00000000e+00 1.39238710e-16 0.00000000e+00 7.47022097e-18
3.80189396e+02 7.62753947e-17 4.93552605e-18 0.00000000e+00 7.13398686e-17 0.00000000e+00 4.93552605e-18
4.36515832e+02 3.97443243e-17 3.26086972e-18 0.00000000e+00 3.64834546e-17 0.00000000e+00 3.26086972e-18
5.01187234e+02 2.07704813e-17 2.15443526e-18 0.00000000e+00 1.86160460e-17 0.00000000e+00 2.15443526e-18
5.75439937e+02 1.09051873e-17 1.42342126e-18 0.00000000e+00 9.48176608e-18 0.00000000e+00 1.42342126e-18
6.60693448e+02 5.76209735e-18 9.40445101e-19 0.00000000e+00 4.82165225e-18 0.00000000e+00 9.40445101e-19
7.58577575e+02 3.06981006e-18 6.21345916e-19 0.00000000e+00 2.44846414e-18 0.00000000e+00 6.21345916e-19
8.70963590e+02 1.65202034e-18 4.10519176e-19 0.00000000e+00 1.24150116e-18 0.00000000e+00 4.10519176e-19
1.00000000e+03 6.28612849e-19 0.00000000e+00 0.00000000e+00 6.28612849e-19 0.00000000e+00 0.00000000e+00
