# column 1: lambda (micron)
# column 2: total flux; lambda*F_lambda (W/m2)
# column 3: direct stellar flux; lambda*F_lambda (W/m2)
# column 4: scattered stellar flux; lambda*F_lambda (W/m2)
# column 5: total dust emission flux; lambda*F_lambda (W/m2)
# column 6: dust emission scattered flux; lambda*F_lambda (W/m2)
# column 7: transparent flux; lambda*F_lambda (W/m2)
1.00000000e-03 1.04634368e-12 1.04634360e-12 7.11305497e-20 0.00000000e+00 0.00000000e+00 1.04634360e-12
1.14815362e-03 1.23502106e-12 1.23502095e-12 1.11815176e-19 0.00000000e+00 0.00000000e+00 1.23502095e-12
1.31825674e-03 1.45772088e-12 1.45772071e-12 1.66586131e-19 0.00000000e+00 0.00000000e+00 1.45772071e-12
1.51356125e-03 1.72057810e-12 1.72057784e-12 2.59513803e-19 0.00000000e+00 0.00000000e+00 1.72057784e-12
1.73780083e-03 2.03083399e-12 2.03083353e-12 4.60115110e-19 0.00000000e+00 0.00000000e+00 2.03083353e-12
1.99526231e-03 2.39703555e-12 2.39703472e-12 8.36844187e-19 0.00000000e+00 0.00000000e+00 2.39703472e-12
2.29086765e-03 2.82927088e-12 2.82926954e-12 1.34132866e-18 0.00000000e+00 0.00000000e+00 2.82926954e-12
2.63026799e-03 3.33944787e-12 3.33944522e-12 2.64581803e-18 0.00000000e+00 0.00000000e+00 3.33944522e-12
3.01995172e-03 3.94162052e-12 3.94161611e-12 4.41290027e-18 0.00000000e+00 0.00000000e+00 3.94161611e-12
3.46736850e-03 4.65237803e-12 4.65237083e-12 7.20266193e-18 0.00000000e+00 0.00000000e+00 4.65237083e-12
3.98107171e-03 5.49130102e-12 5.49128930e-12 1.17276971e-17 0.00000000e+00 0.00000000e+00 5.49128930e-12
4.57088190e-03 6.48150775e-12 6.48148207e-12 2.56819310e-17 0.00000000e+00 0.00000000e+00 6.48148207e-12
5.24807460e-03 7.65027247e-12 7.65022704e-12 4.54270610e-17 0.00000000e+00 0.00000000e+00 7.65022704e-12
6.02559586e-03 9.02980838e-12 9.02972084e-12 8.75418573e-17 0.00000000e+00 0.00000000e+00 9.02972084e-12
6.91830971e-03 1.06581040e-11 1.06579658e-11 1.38132473e-16 0.00000000e+00 0.00000000e+00 1.06579658e-11
7.94328235e-03 1.25800873e-11 1.25798170e-11 2.70243799e-16 5.98086976e-304 4.24444997e-307 1.25798170e-11
9.12010839e-03 1.48486388e-11 1.48482176e-11 4.21146726e-16 2.59536921e-265 1.87976183e-268 1.48482176e-11
1.04712855e-02 1.65840617e-11 1.65834298e-11 6.31905893e-16 1.08731795e-231 9.99806062e-235 1.65834298e-11
1.20226443e-02 1.65843151e-11 1.65834298e-11 8.85340800e-16 1.68955678e-202 1.98533762e-205 1.65834298e-11
1.38038426e-02 1.65846657e-11 1.65834298e-11 1.23589586e-15 4.57253829e-177 8.24515562e-180 1.65834298e-11
1.58489319e-02 1.65854412e-11 1.65834298e-11 2.01145593e-15 6.14905524e-155 1.56118903e-157 1.65834298e-11
1.81970086e-02 1.65858611e-11 1.65834298e-11 2.43127352e-15 1.09178971e-135 4.20903754e-138 1.65834298e-11
2.08929613e-02 1.65870056e-11 1.65834298e-11 3.57580677e-15 5.67329337e-119 2.47387128e-121 1.65834298e-11
2.39883292e-02 1.65885928e-11 1.65834298e-11 5.16299536e-15 1.98310494e-104 1.21552353e-106 1.65834298e-11
2.75422870e-02 1.65902990e-11 1.65834298e-11 6.86920300e-15 8.84503658e-92 7.01915367e-94 1.65834298e-11
3.16227766e-02 1.65920618e-11 1.65834298e-11 8.63199072e-15 8.59718172e-81 8.53439701e-83 1.65834298e-11
3.63078055e-02 1.65933761e-11 1.65834298e-11 9.94636350e-15 2.97385697e-71 3.52545996e-73 1.65834298e-11
4.16869383e-02 1.65975272e-11 1.65834298e-11 1.40973742e-14 5.64611876e-63 9.68712547e-65 1.65834298e-11
4.78630092e-02 1.66037013e-11 1.65834298e-11 2.02714930e-14 8.52454764e-56 2.03787508e-57 1.65834298e-11
5.49540874e-02 1.66094064e-11 1.65834298e-11 2.59765866e-14 1.41797549e-49 4.43602500e-51 1.65834298e-11
6.30957344e-02 1.66163745e-11 1.65834298e-11 3.29447521e-14 4.60362623e-44 1.92332187e-45 1.65834298e-11
7.24435960e-02 1.66192326e-11 1.65834298e-11 3.58027695e-14 2.67477356e-39 1.15362930e-40 1.65834298e-11
8.31763771e-02 1.66190577e-11 1.65834298e-11 3.56278861e-14 2.73676087e-35 1.18602637e-36 1.65834298e-11
9.54992586e-02 1.66193911e-11 1.65834298e-11 3.59613454e-14 7.70277944e-32 3.50422491e-33 1.65834298e-11
1.09647820e-01 1.58728551e-11 1.58370587e-11 3.57963268e-14 6.50846784e-29 3.09412930e-30 1.58370587e-11
1.25892541e-01 1.48103182e-11 1.47800032e-11 3.03150673e-14 2.09457241e-26 8.88618011e-28 1.47800032e-11
1.44543977e-01 1.38191156e-11 1.37935015e-11 2.56140846e-14 2.84241816e-24 1.12856744e-25 1.37935015e-11
1.65958691e-01 1.28997132e-11 1.28728446e-11 2.68685724e-14 1.43763992e-22 6.48951335e-24 1.28728446e-11
1.90546072e-01 1.20447802e-11 1.20136376e-11 3.11425613e-14 3.03280133e-21 1.74156228e-22 1.20136376e-11
2.18776162e-01 1.12460496e-11 1.12117790e-11 3.42706200e-14 3.61567816e-20 2.41139747e-21 1.12117790e-11
2.51188643e-01 1.05015031e-11 1.04634409e-11 3.80617681e-14 4.37739208e-19 3.59531073e-20 1.04634409e-11
2.88403150e-01 9.79909113e-12 9.76505125e-12 3.40362531e-14 3.62619973e-18 2.82574123e-19 9.76505125e-12
3.31131121e-01 9.14188912e-12 9.11327608e-12 2.85923545e-14 2.06898193e-17 1.50348574e-18 9.11327608e-12
3.80189396e-01 8.53176177e-12 8.50500410e-12 2.66714856e-14 8.61896613e-17 6.14763477e-18 8.50500410e-12
4.36515832e-01 7.96096005e-12 7.93733165e-12 2.33556267e-14 2.72768145e-16 1.94399456e-17 7.93733165e-12
5.01187234e-01 7.43009603e-12 7.40754890e-12 2.18649363e-14 6.82190563e-16 4.91064043e-17 7.40754890e-12
5.75439937e-01 6.93396816e-12 6.91312687e-12 1.94295436e-14 1.41174907e-15 1.03370279e-16 6.91312687e-12
6.60693448e-01 6.47293434e-12 6.45170538e-12 1.87079711e-14 2.52098656e-15 1.89146241e-16 6.45170538e-12
7.58577575e-01 6.04318355e-12 6.02108180e-12 1.79911928e-14 4.11056031e-15 3.14630110e-16 6.02108180e-12
8.70963590e-01 5.64168743e-12 5.61920048e-12 1.60459258e-14 6.44102615e-15 5.03066129e-16 5.61920048e-12
1.00000000e+00 5.26869318e-12 5.24414302e-12 1.43893975e-14 1.01607671e-14 8.13679049e-16 5.24414302e-12
1.14815362e+00 4.92334200e-12 4.89411902e-12 1.22414542e-14 1.69815185e-14 1.35185609e-15 4.89411902e-12
1.31825674e+00 4.60742763e-12 4.56745763e-12 1.01287698e-14 2.98412368e-14 2.25214876e-15 4.56745763e-12
1.51356125e+00 4.32378010e-12 4.26259947e-12 8.64417135e-15 5.25364569e-14 3.64214298e-15 4.26259947e-12
1.73780083e+00 4.07220437e-12 3.97808929e-12 6.49817658e-15 8.76169029e-14 5.33941797e-15 3.97808929e-12
1.99526231e+00 3.85176137e-12 3.71256894e-12 4.58555143e-15 1.34606875e-13 6.70748353e-15 3.71256894e-12
2.29086765e+00 3.65674714e-12 3.46477093e-12 3.20218925e-15 1.88774024e-13 7.30553784e-15 3.46477093e-12
2.63026799e+00 3.47774386e-12 3.23351237e-12 2.15060967e-15 2.42080875e-13 6.88787279e-15 3.23351237e-12
3.01995172e+00 3.30527986e-12 3.01768933e-12 1.39626792e-15 2.86194268e-13 5.72201764e-15 3.01768933e-12
3.46736850e+00 3.13157553e-12 2.81627154e-12 8.49031649e-16 3.14454953e-13 4.28682771e-15 2.81627154e-12
3.98107171e+00 2.95156464e-12 2.62829753e-12 5.13116242e-16 3.22753994e-13 2.88656128e-15 2.62829753e-12
4.57088190e+00 2.76569353e-12 2.45286997e-12 3.05120702e-16 3.12518437e-13 1.78195980e-15 2.45286997e-12
5.24807460e+00 2.31758207e-12 2.02814751e-12 1.59287698e-16 2.89275271e-13 1.02697408e-15 2.02814751e-12
6.02559586e+00 1.60044114e-12 1.33998377e-12 5.88529970e-17 2.60398517e-13 5.49406904e-16 1.33998377e-12
6.70000000e+00 1.21085511e-12 9.74709347e-13 2.98875106e-17 2.36115872e-13 3.20300892e-16 9.74709347e-13
6.92422916e+00 1.11124728e-12 8.83049889e-13 2.25540758e-17 2.28174836e-13 2.67283372e-16 8.83049889e-13
7.15596261e+00 1.02303648e-12 8.00009879e-13 1.78091761e-17 2.23008797e-13 2.21763882e-16 8.00009879e-13
7.39545150e+00 9.49026140e-13 7.24778763e-13 1.38283942e-17 2.24233549e-13 1.86520839e-16 7.24778763e-13
7.64295536e+00 9.00310816e-13 6.56622211e-13 9.72068877e-18 2.43678885e-13 1.64060061e-16 6.56622211e-13
7.89874245e+00 8.87165395e-13 5.94874946e-13 7.05532742e-18 2.92283394e-13 1.45325325e-16 5.94874946e-13
8.16308998e+00 9.04148879e-13 5.38934254e-13 4.87190226e-18 3.65209753e-13 1.34090991e-16 5.38934254e-13
8.43628443e+00 9.57468410e-13 4.88254098e-13 3.09950188e-18 4.69211212e-13 1.14326171e-16 4.88254098e-13
8.71862190e+00 9.87993846e-13 4.42339790e-13 1.87246043e-18 5.45652184e-13 9.10700978e-17 4.42339790e-13
9.01040836e+00 1.02664492e-12 4.00743158e-13 8.43733773e-19 6.25900921e-13 5.94356799e-17 4.00743158e-13
9.31196005e+00 1.05455791e-12 3.63058180e-13 0.00000000e+00 6.91499728e-13 0.00000000e+00 3.63058180e-13
9.62360379e+00 1.01860410e-12 3.28917012e-13 0.00000000e+00 6.89687087e-13 0.00000000e+00 3.28917012e-13
9.94567731e+00 9.35447174e-13 2.97986401e-13 0.00000000e+00 6.37460773e-13 0.00000000e+00 2.97986401e-13
1.02785297e+01 8.41979437e-13 2.69964435e-13 0.00000000e+00 5.72015002e-13 0.00000000e+00 2.69964435e-13
1.06225216e+01 7.52704280e-13 2.44577592e-13 0.00000000e+00 5.08126689e-13 0.00000000e+00 2.44577592e-13
1.09780260e+01 6.60194538e-13 2.21578069e-13 0.00000000e+00 4.38616468e-13 0.00000000e+00 2.21578069e-13
1.13454280e+01 5.80352912e-13 2.00741370e-13 0.00000000e+00 3.79611542e-13 0.00000000e+00 2.00741370e-13
1.17251259e+01 5.12074101e-13 1.81864106e-13 0.00000000e+00 3.30209994e-13 0.00000000e+00 1.81864106e-13
1.21175312e+01 4.51081627e-13 1.64762018e-13 0.00000000e+00 2.86319609e-13 0.00000000e+00 1.64762018e-13
1.25230691e+01 3.97461568e-13 1.49268171e-13 0.00000000e+00 2.48193397e-13 0.00000000e+00 1.49268171e-13
1.29421791e+01 3.51957022e-13 1.35231331e-13 0.00000000e+00 2.16725691e-13 0.00000000e+00 1.35231331e-13
1.33753155e+01 3.13006847e-13 1.22514483e-13 0.00000000e+00 1.90492364e-13 0.00000000e+00 1.22514483e-13
1.38229477e+01 2.84746617e-13 1.10993499e-13 0.00000000e+00 1.73753119e-13 0.00000000e+00 1.10993499e-13
1.42855609e+01 2.64798623e-13 1.00555922e-13 0.00000000e+00 1.64242702e-13 0.00000000e+00 1.00555922e-13
1.47636563e+01 2.57536758e-13 9.10998706e-14 0.00000000e+00 1.66436887e-13 0.00000000e+00 9.10998706e-14
1.52577522e+01 2.53516774e-13 8.25330452e-14 0.00000000e+00 1.70983729e-13 0.00000000e+00 8.25330452e-14
1.57683840e+01 2.52466872e-13 7.47718247e-14 0.00000000e+00 1.77695047e-13 0.00000000e+00 7.47718247e-14
1.62961051e+01 2.52543109e-13 6.77404517e-14 0.00000000e+00 1.84802657e-13 0.00000000e+00 6.77404517e-14
1.68414875e+01 2.53155989e-13 6.13702932e-14 0.00000000e+00 1.91785696e-13 0.00000000e+00 6.13702932e-14
1.74051222e+01 2.50946515e-13 5.55991699e-14 0.00000000e+00 1.95347345e-13 0.00000000e+00 5.55991699e-14
1.79876201e+01 2.46499400e-13 5.03707500e-14 0.00000000e+00 1.96128650e-13 0.00000000e+00 5.03707500e-14
1.85896125e+01 2.37828857e-13 4.56339988e-14 0.00000000e+00 1.92194859e-13 0.00000000e+00 4.56339988e-14
1.92117518e+01 2.25793619e-13 4.13426810e-14 0.00000000e+00 1.84450938e-13 0.00000000e+00 4.13426810e-14
1.98547123e+01 2.11868846e-13 3.74549090e-14 0.00000000e+00 1.74413937e-13 0.00000000e+00 3.74549090e-14
2.05191907e+01 1.97678174e-13 3.39327342e-14 0.00000000e+00 1.63745440e-13 0.00000000e+00 3.39327342e-14
2.12059073e+01 1.84732384e-13 3.07417768e-14 0.00000000e+00 1.53990607e-13 0.00000000e+00 3.07417768e-14
2.19156062e+01 1.73283640e-13 2.78508898e-14 0.00000000e+00 1.45432750e-13 0.00000000e+00 2.78508898e-14
2.26490567e+01 1.62795894e-13 2.52318552e-14 0.00000000e+00 1.37564038e-13 0.00000000e+00 2.52318552e-14
2.34070535e+01 1.53255065e-13 2.28591087e-14 0.00000000e+00 1.30395956e-13 0.00000000e+00 2.28591087e-14
2.41904183e+01 1.44684660e-13 2.07094900e-14 0.00000000e+00 1.23975170e-13 0.00000000e+00 2.07094900e-14
2.50000000e+01 1.36934455e-13 1.87620165e-14 0.00000000e+00 1.18172439e-13 0.00000000e+00 1.87620165e-14
2.75422870e+01 1.16510351e-13 1.40313526e-14 0.00000000e+00 1.02478998e-13 0.00000000e+00 1.40313526e-14
3.16227766e+01 9.25830470e-14 9.27042274e-15 0.00000000e+00 8.33126243e-14 0.00000000e+00 9.27042274e-15
3.63078055e+01 7.15983983e-14 6.12490756e-15 0.00000000e+00 6.54734908e-14 0.00000000e+00 6.12490756e-15
4.16869383e+01 5.27662468e-14 4.04668630e-15 0.00000000e+00 4.87195606e-14 0.00000000e+00 4.04668630e-15
4.78630092e+01 3.68172144e-14 2.67361912e-15 0.00000000e+00 3.41435953e-14 0.00000000e+00 2.67361912e-15
5.49540874e+01 2.45114099e-14 1.76644264e-15 0.00000000e+00 2.27449673e-14 0.00000000e+00 1.76644264e-15
6.30957344e+01 1.56995477e-14 1.16707708e-15 0.00000000e+00 1.45324706e-14 0.00000000e+00 1.16707708e-15
7.24435960e+01 9.73609696e-15 7.71080178e-16 0.00000000e+00 8.96501678e-15 0.00000000e+00 7.71080178e-16
8.31763771e+01 5.88548651e-15 5.09447621e-16 0.00000000e+00 5.37603889e-15 0.00000000e+00 5.09447621e-16
9.54992586e+01 3.49059746e-15 3.36588705e-16 0.00000000e+00 3.15400875e-15 0.00000000e+00 3.36588705e-16
1.09647820e+02 2.03877223e-15 2.22381952e-16 0.00000000e+00 1.81639027e-15 0.00000000e+00 2.22381952e-16
1.25892541e+02 1.18864360e-15 1.46926299e-16 0.00000000e+00 1.04171730e-15 0.00000000e+00 1.46926299e-16
1.44543977e+02 6.88653677e-16 9.70732430e-17 0.00000000e+00 5.91580434e-16 0.00000000e+00 9.70732430e-17
1.65958691e+02 3.82939277e-16 6.41356556e-17 0.00000000e+00 3.18803622e-16 0.00000000e+00 6.41356556e-17
1.90546072e+02 2.13703637e-16 4.23740075e-17 0.00000000e+00 1.71329629e-16 0.00000000e+00 4.23740075e-17
2.18776162e+02 1.19617079e-16 2.79962291e-17 0.00000000e+00 9.16208500e-17 0.00000000e+00 2.79962291e-17
2.51188643e+02 6.71764558e-17 1.84969251e-17 0.00000000e+00 4.86795307e-17 0.00000000e+00 1.84969251e-17
2.88403150e+02 3.78945990e-17 1.22207972e-17 0.00000000e+00 2.56738017e-17 0.00000000e+00 1.22207972e-17
3.31131121e+02 2.15455651e-17 8.07420067e-18 0.00000000e+00 1.34713645e-17 0.00000000e+00 8.07420067e-18
3.80189396e+02 1.23612852e-17 5.33457148e-18 0.00000000e+00 7.02671373e-18 0.00000000e+00 5.33457148e-18
4.36515832e+02 7.17383778e-18 3.52451642e-18 0.00000000e+00 3.64932136e-18 0.00000000e+00 3.52451642e-18
5.01187234e+02 4.21567131e-18 2.32862491e-18 0.00000000e+00 1.88704640e-18 0.00000000e+00 2.32862491e-18
5.75439937e+02 2.51073657e-18 1.53850722e-18 0.00000000e+00 9.72229346e-19 0.00000000e+00 1.53850722e-18
6.60693448e+02 1.51580923e-18 1.01648164e-18 0.00000000e+00 4.99327591e-19 0.00000000e+00 1.01648164e-18
7.58577575e+02 9.27326783e-19 6.71582760e-19 0.00000000e+00 2.55744024e-19 0.00000000e+00 6.71582760e-19
8.70963590e+02 5.74350940e-19 4.43710329e-19 0.00000000e+00 1.30640611e-19 0.00000000e+00 4.43710329e-19
1.00000000e+03 6.65735041e-20 0.00000000e+00 0.00000000e+00 6.65735041e-20 0.00000000e+00 0.00000000e+00
