# column 1: lambda (micron)
# column 2: total flux; lambda*F_lambda (W/m2)
# column 3: direct stellar flux; lambda*F_lambda (W/m2)
# column 4: scattered stellar flux; lambda*F_lambda (W/m2)
# column 5: total dust emission flux; lambda*F_lambda (W/m2)
# column 6: dust emission scattered flux; lambda*F_lambda (W/m2)
# column 7: transparent flux; lambda*F_lambda (W/m2)
1.00000000e-03 1.51966226e-12 9.41214526e-13 5.78447734e-13 0.00000000e+00 0.00000000e+00 9.68073281e-13
1.14815362e-03 1.10125942e-12 1.10094134e-12 3.18076838e-16 0.00000000e+00 0.00000000e+00 1.14263687e-12
1.31825674e-03 1.29704320e-12 1.28641893e-12 1.06242722e-14 0.00000000e+00 0.00000000e+00 1.34867788e-12
1.51356125e-03 1.50672033e-12 1.50559766e-12 1.12266410e-15 0.00000000e+00 0.00000000e+00 1.59187233e-12
1.73780083e-03 1.77841113e-12 1.77606490e-12 2.34623149e-15 0.00000000e+00 0.00000000e+00 1.87891976e-12
1.99526231e-03 2.09704915e-12 2.05822332e-12 3.88258305e-14 0.00000000e+00 0.00000000e+00 2.21772777e-12
2.29086765e-03 2.43060896e-12 2.41843150e-12 1.21774590e-14 0.00000000e+00 0.00000000e+00 2.61762985e-12
2.63026799e-03 2.82775677e-12 2.81005887e-12 1.76979000e-14 0.00000000e+00 0.00000000e+00 3.08964252e-12
3.01995172e-03 3.26506641e-12 3.24310981e-12 2.19565991e-14 0.00000000e+00 0.00000000e+00 3.64676883e-12
3.46736850e-03 3.82695522e-12 3.74851300e-12 7.84422224e-14 0.00000000e+00 0.00000000e+00 4.30435650e-12
3.98107171e-03 4.40030577e-12 4.33682791e-12 6.34778629e-14 0.00000000e+00 0.00000000e+00 5.08052080e-12
4.57088190e-03 5.65901186e-12 5.39582799e-12 2.63183874e-13 0.00000000e+00 0.00000000e+00 5.99664354e-12
5.24807460e-03 6.78343020e-12 6.18509982e-12 5.98330389e-13 0.00000000e+00 0.00000000e+00 7.07796211e-12
6.02559586e-03 8.19413086e-12 7.10064450e-12 1.09348637e-12 0.00000000e+00 0.00000000e+00 8.35426474e-12
6.91830971e-03 9.17022420e-12 8.17361853e-12 9.96605668e-13 0.00000000e+00 0.00000000e+00 9.86071107e-12
7.94328235e-03 1.06072895e-11 9.44036225e-12 1.16692725e-12 0.00000000e+00 0.00000000e+00 1.16388008e-11
9.12010839e-03 1.28696227e-11 1.08896770e-11 1.97994565e-12 0.00000000e+00 0.00000000e+00 1.37375167e-11
1.04712855e-02 1.37236583e-11 1.19831752e-11 1.74048304e-12 0.00000000e+00 0.00000000e+00 1.53429287e-11
1.20226443e-02 1.35828328e-11 1.18096527e-11 1.77318005e-12 0.00000000e+00 0.00000000e+00 1.53429287e-11
1.38038426e-02 1.33522913e-11 1.16070907e-11 1.74520067e-12 5.57993256e-291 7.33351653e-292 1.53429287e-11
1.58489319e-02 1.27562103e-11 1.13629096e-11 1.39330065e-12 5.15291722e-254 6.78994851e-255 1.53429287e-11
1.81970086e-02 1.26277728e-11 1.11422527e-11 1.48552010e-12 7.47280038e-222 8.75247347e-223 1.53429287e-11
2.08929613e-02 1.21763877e-11 1.09621041e-11 1.21428357e-12 7.14501082e-194 1.00303954e-194 1.53429287e-11
2.39883292e-02 1.17243228e-11 1.07330169e-11 9.91305955e-13 1.56883919e-169 2.08119500e-170 1.53429287e-11
2.75422870e-02 1.13414823e-11 1.04725646e-11 8.68917763e-13 2.40458443e-148 3.15364710e-149 1.53429287e-11
3.16227766e-02 1.09604818e-11 1.02233999e-11 7.37081926e-13 6.38874340e-130 8.42400394e-131 1.53429287e-11
3.63078055e-02 1.06609140e-11 1.00321229e-11 6.28791051e-13 6.54194299e-114 7.99220056e-115 1.53429287e-11
4.16869383e-02 1.05066412e-11 9.86957152e-12 6.37069659e-13 5.46552201e-100 7.46488469e-101 1.53429287e-11
4.78630092e-02 1.00013022e-11 9.43500962e-12 5.66292601e-13 6.68628868e-88 9.32267314e-89 1.53429287e-11
5.49540874e-02 9.41623541e-12 8.86229260e-12 5.53942806e-13 2.10263491e-77 3.10264181e-78 1.53429287e-11
6.30957344e-02 8.04950456e-12 7.57445635e-12 4.75048216e-13 3.50778628e-68 5.13730988e-69 1.53429287e-11
7.24435960e-02 6.68487556e-12 6.28889126e-12 3.95984299e-13 3.45274046e-60 4.68794675e-61 1.53429287e-11
8.31763771e-02 6.78599848e-12 6.39384476e-12 3.92153721e-13 2.39738570e-53 3.23836134e-54 1.53429287e-11
9.54992586e-02 7.11236433e-12 6.71187886e-12 4.00485470e-13 2.03883877e-47 2.85433850e-48 1.53429287e-11
1.09647820e-01 7.80562989e-12 7.37251991e-12 4.33109976e-13 2.58374707e-42 3.95436652e-43 1.46523889e-11
1.25892541e-01 8.22709300e-12 7.76905096e-12 4.58042045e-13 6.76674160e-38 1.08225874e-38 1.36744049e-11
1.44543977e-01 8.42613654e-12 7.98714363e-12 4.38992911e-13 4.31831523e-34 7.04398895e-35 1.27616972e-11
1.65958691e-01 8.36473375e-12 7.90537955e-12 4.59354195e-13 6.59628418e-31 1.22157644e-31 1.19099088e-11
1.90546072e-01 7.64164357e-12 7.17834704e-12 4.63296530e-13 2.79206643e-28 6.18830554e-29 1.11149736e-11
2.18776162e-01 6.60222903e-12 6.21110511e-12 3.91123920e-13 4.66627077e-26 1.09964765e-26 1.03730969e-11
2.51188643e-01 6.88360766e-12 6.42354492e-12 4.60062737e-13 6.93899388e-24 2.06842165e-24 9.68073733e-12
2.88403150e-01 6.88570899e-12 6.42709632e-12 4.58612668e-13 5.56231556e-22 1.80725514e-22 9.03458975e-12
3.31131121e-01 6.70495925e-12 6.26594119e-12 4.39018039e-13 2.44871983e-20 8.34483957e-21 8.43156974e-12
3.80189396e-01 6.48767326e-12 6.06310522e-12 4.24567389e-13 6.46656274e-19 2.29622037e-19 7.86879872e-12
4.36515832e-01 6.26156107e-12 5.85298245e-12 4.08567816e-13 1.07993294e-17 3.93011644e-18 7.34359025e-12
5.01187234e-01 6.02133488e-12 5.64047238e-12 3.80743931e-13 1.18566868e-16 4.38984315e-17 6.85343719e-12
5.75439937e-01 5.77952273e-12 5.42039163e-12 3.58208824e-13 9.22278363e-16 3.41556098e-16 6.39599973e-12
6.60693448e-01 5.53585829e-12 5.19233390e-12 3.38353494e-13 5.17090081e-15 1.89322842e-15 5.96909425e-12
7.58577575e-01 5.29637958e-12 4.96052492e-12 3.13531234e-13 2.23234220e-14 7.97548917e-15 5.57068288e-12
8.70963590e-01 5.09624088e-12 4.73058299e-12 2.88195474e-13 7.74624138e-14 2.64447499e-14 5.19886376e-12
1.00000000e+00 4.97593075e-12 4.49874444e-12 2.58612729e-13 2.18573579e-13 7.01611827e-14 4.85186196e-12
1.14815362e+00 5.03073350e-12 4.26681416e-12 2.28159318e-13 5.35760018e-13 1.56629816e-13 4.52802104e-12
1.31825674e+00 5.38567539e-12 4.03617699e-12 1.92582122e-13 1.15691627e-12 3.02328263e-13 4.22579511e-12
1.51356125e+00 6.18092972e-12 3.80766324e-12 1.58848608e-13 2.21441787e-12 5.06950312e-13 3.94374146e-12
1.73780083e+00 7.45839472e-12 3.58454525e-12 1.30831827e-13 3.74301764e-12 7.39092596e-13 3.68051368e-12
1.99526231e+00 9.15051624e-12 3.36829630e-12 1.01103338e-13 5.68111660e-12 9.16541130e-13 3.43485522e-12
2.29086765e+00 1.09897515e-11 3.15961428e-12 7.41598300e-14 7.75597736e-12 9.70976057e-13 3.20559341e-12
2.63026799e+00 1.27162862e-11 2.95959650e-12 5.12474678e-14 9.70544226e-12 8.91203140e-13 2.99163384e-12
3.01995172e+00 1.40677744e-11 2.76935670e-12 3.36603171e-14 1.12647574e-11 7.15941256e-13 2.79195514e-12
3.46736850e+00 1.49363446e-11 2.58940957e-12 2.11097660e-14 1.23258252e-11 5.18165806e-13 2.60560415e-12
3.98107171e+00 1.52128260e-11 2.41994051e-12 1.27429430e-14 1.27801425e-11 3.36981862e-13 2.43169128e-12
4.57088190e+00 1.49328772e-11 2.26074517e-12 7.56881610e-15 1.26645632e-11 2.03955765e-13 2.26938634e-12
5.24807460e+00 1.40261532e-11 1.87069280e-12 3.89689398e-15 1.21515635e-11 1.16453936e-13 1.87643467e-12
6.02559586e+00 1.26430572e-11 1.23659480e-12 1.52722556e-15 1.14049352e-11 6.28275364e-14 1.23974809e-12
6.70000000e+00 1.16244916e-11 8.99766995e-13 7.19970782e-16 1.07240047e-11 3.75659231e-14 9.01797527e-13
6.92422916e+00 1.13010588e-11 8.15219356e-13 5.64845384e-16 1.04852746e-11 3.16737493e-14 8.16994532e-13
7.15596261e+00 1.10754136e-11 7.38586038e-13 4.32227673e-16 1.03363954e-11 2.66219230e-14 7.40166218e-13
7.39545150e+00 1.10646440e-11 6.69096937e-13 3.27408387e-16 1.03952196e-11 2.25620577e-14 6.70562664e-13
7.64295536e+00 1.16286937e-11 6.05991733e-13 2.30776845e-16 1.10224712e-11 1.96060533e-14 6.07504471e-13
7.89874245e+00 1.29967855e-11 5.48606075e-13 1.52069111e-16 1.24480273e-11 1.74896508e-14 5.50376127e-13
8.16308998e+00 1.48630904e-11 4.96455916e-13 9.29481457e-17 1.43665416e-11 1.54001936e-14 4.98620004e-13
8.43628443e+00 1.70261108e-11 4.49009339e-13 4.85583994e-17 1.65770529e-11 1.23179638e-14 4.51730909e-13
8.71862190e+00 1.84389218e-11 4.06223627e-13 2.20922641e-17 1.80326761e-11 8.46365233e-15 4.09251158e-13
9.01040836e+00 1.96455325e-11 3.67446011e-13 6.35890826e-18 1.92780801e-11 3.91034306e-15 3.70766106e-13
9.31196005e+00 2.04567209e-11 3.32413953e-13 0.00000000e+00 2.01243070e-11 0.00000000e+00 3.35900102e-13
9.62360379e+00 2.03725568e-11 3.01071738e-13 0.00000000e+00 2.00714850e-11 0.00000000e+00 3.04312818e-13
9.94567731e+00 1.96194381e-11 2.72939889e-13 0.00000000e+00 1.93464982e-11 0.00000000e+00 2.75695930e-13
1.02785297e+01 1.86240044e-11 2.47510229e-13 0.00000000e+00 1.83764941e-11 0.00000000e+00 2.49770110e-13
1.06225216e+01 1.75897935e-11 2.24449119e-13 0.00000000e+00 1.73653443e-11 0.00000000e+00 2.26282295e-13
1.09780260e+01 1.63034853e-11 2.03569683e-13 0.00000000e+00 1.60999157e-11 0.00000000e+00 2.05003220e-13
1.13454280e+01 1.50659484e-11 1.84599776e-13 0.00000000e+00 1.48813486e-11 0.00000000e+00 1.85725182e-13
1.17251259e+01 1.39770140e-11 1.67370882e-13 0.00000000e+00 1.38096432e-11 0.00000000e+00 1.68260007e-13
1.21175312e+01 1.28583480e-11 1.51738396e-13 0.00000000e+00 1.27066096e-11 0.00000000e+00 1.52437217e-13
1.25230691e+01 1.17942090e-11 1.37554640e-13 0.00000000e+00 1.16566543e-11 0.00000000e+00 1.38102367e-13
1.29421791e+01 1.08245719e-11 1.24683251e-13 0.00000000e+00 1.06998886e-11 0.00000000e+00 1.25115533e-13
1.33753155e+01 9.95915980e-12 1.13006358e-13 0.00000000e+00 9.84615344e-12 0.00000000e+00 1.13349952e-13
1.38229477e+01 9.38831290e-12 1.02405101e-13 0.00000000e+00 9.28590780e-12 0.00000000e+00 1.02690779e-13
1.42855609e+01 9.08294297e-12 9.27856666e-14 0.00000000e+00 8.99015730e-12 0.00000000e+00 9.30339713e-14
1.47636563e+01 9.23416024e-12 8.40496215e-14 0.00000000e+00 9.15011062e-12 0.00000000e+00 8.42852675e-14
1.52577522e+01 9.49577927e-12 7.61316046e-14 0.00000000e+00 9.41964767e-12 0.00000000e+00 7.63592720e-14
1.57683840e+01 9.85420243e-12 6.89558438e-14 0.00000000e+00 9.78524659e-12 0.00000000e+00 6.91786191e-14
1.62961051e+01 1.02134447e-11 6.24554949e-14 0.00000000e+00 1.01509892e-11 0.00000000e+00 6.26732185e-14
1.68414875e+01 1.05644338e-11 5.65672623e-14 0.00000000e+00 1.05078665e-11 0.00000000e+00 5.67795711e-14
1.74051222e+01 1.07654481e-11 5.12385530e-14 0.00000000e+00 1.07142095e-11 0.00000000e+00 5.14401489e-14
1.79876201e+01 1.08666654e-11 4.64146172e-14 0.00000000e+00 1.08202508e-11 0.00000000e+00 4.66028339e-14
1.85896125e+01 1.07859739e-11 4.20501103e-14 0.00000000e+00 1.07439238e-11 0.00000000e+00 4.22204090e-14
1.92117518e+01 1.04828149e-11 3.81005034e-14 0.00000000e+00 1.04447144e-11 0.00000000e+00 3.82500974e-14
1.98547123e+01 1.00721442e-11 3.45242987e-14 0.00000000e+00 1.00376199e-11 0.00000000e+00 3.46531450e-14
2.05191907e+01 9.59760283e-12 3.12845836e-14 0.00000000e+00 9.56631824e-12 0.00000000e+00 3.13944418e-14
2.12059073e+01 9.14760053e-12 2.83485261e-14 0.00000000e+00 9.11925200e-12 0.00000000e+00 2.84421796e-14
2.19156062e+01 8.70851554e-12 2.56873142e-14 0.00000000e+00 8.68282822e-12 0.00000000e+00 2.57675415e-14
2.26490567e+01 8.28380970e-12 2.32755853e-14 0.00000000e+00 8.26053411e-12 0.00000000e+00 2.33444203e-14
2.34070535e+01 7.88040739e-12 2.10899947e-14 0.00000000e+00 7.85931740e-12 0.00000000e+00 2.11491639e-14
2.41904183e+01 7.49643737e-12 1.91093553e-14 0.00000000e+00 7.47732802e-12 0.00000000e+00 1.91603445e-14
2.50000000e+01 7.12882363e-12 1.73145148e-14 0.00000000e+00 7.11150912e-12 0.00000000e+00 1.73585491e-14
2.75422870e+01 6.05582782e-12 1.29530347e-14 0.00000000e+00 6.04287478e-12 0.00000000e+00 1.29817562e-14
3.16227766e+01 4.62916564e-12 8.56117837e-15 0.00000000e+00 4.62060446e-12 0.00000000e+00 8.57696126e-15
3.63078055e+01 3.33787588e-12 5.65811506e-15 0.00000000e+00 3.33221776e-12 0.00000000e+00 5.66674211e-15
4.16869383e+01 2.24291158e-12 3.73938869e-15 0.00000000e+00 2.23917219e-12 0.00000000e+00 3.74397938e-15
4.78630092e+01 1.40918466e-12 2.47125569e-15 0.00000000e+00 1.40671341e-12 0.00000000e+00 2.47362265e-15
5.49540874e+01 8.40194209e-13 1.63311186e-15 0.00000000e+00 8.38561097e-13 0.00000000e+00 1.63430628e-15
6.30957344e+01 4.82111026e-13 1.07918041e-15 0.00000000e+00 4.81031846e-13 0.00000000e+00 1.07977545e-15
7.24435960e+01 2.68802141e-13 7.13106253e-16 0.00000000e+00 2.68089035e-13 0.00000000e+00 7.13400564e-16
8.31763771e+01 1.46991635e-13 4.71193745e-16 0.00000000e+00 1.46520441e-13 0.00000000e+00 4.71339078e-16
9.54992586e+01 7.93907935e-14 3.11338704e-16 0.00000000e+00 7.90794548e-14 0.00000000e+00 3.11410641e-16
1.09647820e+02 4.25147976e-14 2.05711239e-16 0.00000000e+00 4.23090863e-14 0.00000000e+00 2.05746970e-16
1.25892541e+02 2.29032323e-14 1.35917663e-16 0.00000000e+00 2.27673146e-14 0.00000000e+00 1.35935675e-16
1.44543977e+02 1.23263884e-14 8.98026631e-17 0.00000000e+00 1.22365858e-14 0.00000000e+00 8.98118099e-17
1.65958691e+02 6.33283438e-15 5.93335893e-17 0.00000000e+00 6.27350079e-15 0.00000000e+00 5.93380743e-17
1.90546072e+02 3.26964606e-15 3.92020561e-17 0.00000000e+00 3.23044401e-15 0.00000000e+00 3.92042769e-17
2.18776162e+02 1.69127688e-15 2.59009025e-17 0.00000000e+00 1.66537597e-15 0.00000000e+00 2.59020089e-17
2.51188643e+02 8.74516925e-16 1.71127346e-17 0.00000000e+00 8.57404190e-16 0.00000000e+00 1.71132876e-17
2.88403150e+02 4.51435513e-16 1.13063604e-17 0.00000000e+00 4.40129153e-16 0.00000000e+00 1.13066370e-17
3.31131121e+02 2.33092132e-16 7.47008231e-18 0.00000000e+00 2.25622050e-16 0.00000000e+00 7.47022097e-18
3.80189396e+02 1.20283048e-16 4.93545652e-18 0.00000000e+00 1.15347591e-16 0.00000000e+00 4.93552605e-18
4.36515832e+02 6.21405467e-17 3.26083483e-18 0.00000000e+00 5.88797118e-17 0.00000000e+00 3.26086972e-18
5.01187234e+02 3.21507588e-17 2.15441774e-18 0.00000000e+00 2.99963411e-17 0.00000000e+00 2.15443526e-18
5.75439937e+02 1.66808553e-17 1.42341246e-18 0.00000000e+00 1.52574428e-17 0.00000000e+00 1.42342126e-18
6.60693448e+02 8.69011332e-18 9.40440681e-19 0.00000000e+00 7.74967264e-18 0.00000000e+00 9.40445101e-19
7.58577575e+02 4.55274726e-18 6.21343696e-19 0.00000000e+00 3.93140357e-18 0.00000000e+00 6.21345916e-19
8.70963590e+02 2.40224146e-18 4.10518060e-19 0.00000000e+00 1.99172340e-18 0.00000000e+00 4.10519176e-19
1.00000000e+03 1.00773065e-18 0.00000000e+00 0.00000000e+00 1.00773065e-18 0.00000000e+00 0.00000000e+00
