# column 1: lambda (micron)
# column 2: total flux; lambda*F_lambda (W/m2)
# column 3: direct stellar flux; lambda*F_lambda (W/m2)
# column 4: scattered stellar flux; lambda*F_lambda (W/m2)
# column 5: total dust emission flux; lambda*F_lambda (W/m2)
# column 6: dust emission scattered flux; lambda*F_lambda (W/m2)
# column 7: transparent flux; lambda*F_lambda (W/m2)
1.00000000e-03 9.68073528e-13 9.68073281e-13 2.46900473e-19 0.00000000e+00 0.00000000e+00 9.68073281e-13
1.14815362e-03 1.14263725e-12 1.14263687e-12 3.74788667e-19 0.00000000e+00 0.00000000e+00 1.14263687e-12
1.31825674e-03 1.34867847e-12 1.34867788e-12 5.95116771e-19 0.00000000e+00 0.00000000e+00 1.34867788e-12
1.51356125e-03 1.59187324e-12 1.59187233e-12 9.13787471e-19 0.00000000e+00 0.00000000e+00 1.59187233e-12
1.73780083e-03 1.87892140e-12 1.87891976e-12 1.63687806e-18 0.00000000e+00 0.00000000e+00 1.87891976e-12
1.99526231e-03 2.21773062e-12 2.21772777e-12 2.85367804e-18 0.00000000e+00 0.00000000e+00 2.21772777e-12
2.29086765e-03 2.61763431e-12 2.61762985e-12 4.46090625e-18 0.00000000e+00 0.00000000e+00 2.61762985e-12
2.63026799e-03 3.08965128e-12 3.08964252e-12 8.75542099e-18 0.00000000e+00 0.00000000e+00 3.08964252e-12
3.01995172e-03 3.64678361e-12 3.64676883e-12 1.47815829e-17 0.00000000e+00 0.00000000e+00 3.64676883e-12
3.46736850e-03 4.30438114e-12 4.30435650e-12 2.46372584e-17 0.00000000e+00 0.00000000e+00 4.30435650e-12
3.98107171e-03 5.08055986e-12 5.08052080e-12 3.90643489e-17 0.00000000e+00 0.00000000e+00 5.08052080e-12
4.57088190e-03 5.99673229e-12 5.99664354e-12 8.87459334e-17 0.00000000e+00 0.00000000e+00 5.99664354e-12
5.24807460e-03 7.07812285e-12 7.07796211e-12 1.60732508e-16 0.00000000e+00 0.00000000e+00 7.07796211e-12
6.02559586e-03 8.35455482e-12 8.35426474e-12 2.90077412e-16 0.00000000e+00 0.00000000e+00 8.35426474e-12
6.91830971e-03 9.86114704e-12 9.86071107e-12 4.35970454e-16 0.00000000e+00 0.00000000e+00 9.86071107e-12
7.94328235e-03 1.16395496e-11 1.16388008e-11 7.48808348e-16 0.00000000e+00 0.00000000e+00 1.16388008e-11
9.12010839e-03 1.37387204e-11 1.37375167e-11 1.20366557e-15 0.00000000e+00 0.00000000e+00 1.37375167e-11
1.04712855e-02 1.53445457e-11 1.53429287e-11 1.61706246e-15 0.00000000e+00 0.00000000e+00 1.53429287e-11
1.20226443e-02 1.53456094e-11 1.53429287e-11 2.68078290e-15 0.00000000e+00 0.00000000e+00 1.53429287e-11
1.38038426e-02 1.53467965e-11 1.53429287e-11 3.86781148e-15 7.59528232e-291 2.09425828e-292 1.53429287e-11
1.58489319e-02 1.53478785e-11 1.53429287e-11 4.94982496e-15 4.87903313e-254 1.65969394e-255 1.53429287e-11
1.81970086e-02 1.53517010e-11 1.53429287e-11 8.77236942e-15 5.32353516e-222 1.56040100e-223 1.53429287e-11
2.08929613e-02 1.53527808e-11 1.53429287e-11 9.85216342e-15 3.91133368e-194 1.30174663e-195 1.53429287e-11
2.39883292e-02 1.53579229e-11 1.53429287e-11 1.49942193e-14 7.11242684e-170 2.47027910e-171 1.53429287e-11
2.75422870e-02 1.53603284e-11 1.53429287e-11 1.73997055e-14 9.33953987e-149 3.56997186e-150 1.53429287e-11
3.16227766e-02 1.53657611e-11 1.53429287e-11 2.28323981e-14 2.17954765e-130 8.72140733e-132 1.53429287e-11
3.63078055e-02 1.53689224e-11 1.53429287e-11 2.59937062e-14 2.04217792e-114 8.58669685e-116 1.53429287e-11
4.16869383e-02 1.53833644e-11 1.53429287e-11 4.04357156e-14 1.57612141e-100 8.06026101e-102 1.53429287e-11
4.78630092e-02 1.53974824e-11 1.53429287e-11 5.45537108e-14 1.84855895e-88 1.15319514e-89 1.53429287e-11
5.49540874e-02 1.54106268e-11 1.53429287e-11 6.76981584e-14 5.66702208e-78 4.24103310e-79 1.53429287e-11
6.30957344e-02 1.54303373e-11 1.53429287e-11 8.74086172e-14 9.65530071e-69 8.85854772e-70 1.53429287e-11
7.24435960e-02 1.54348561e-11 1.53429287e-11 9.19274103e-14 9.86769468e-61 9.26424467e-62 1.53429287e-11
8.31763771e-02 1.54345094e-11 1.53429287e-11 9.15807365e-14 7.06644665e-54 6.64728664e-55 1.53429287e-11
9.54992586e-02 1.54364529e-11 1.53429287e-11 9.35242631e-14 6.18887108e-48 6.15375318e-49 1.53429287e-11
1.09647820e-01 1.47468081e-11 1.46523889e-11 9.44191721e-14 8.11988477e-43 8.64208208e-44 1.46523889e-11
1.25892541e-01 1.37573710e-11 1.36744049e-11 8.29660457e-14 2.18656708e-38 2.26667819e-39 1.36744049e-11
1.44543977e-01 1.28335064e-11 1.27616972e-11 7.18091976e-14 1.45816092e-34 1.47223342e-35 1.27616972e-11
1.65958691e-01 1.19837798e-11 1.19099088e-11 7.38709383e-14 2.28950457e-31 2.60173033e-32 1.19099088e-11
1.90546072e-01 1.12003266e-11 1.11149736e-11 8.53529447e-14 9.95520382e-29 1.41642210e-29 1.11149736e-11
2.18776162e-01 1.04639682e-11 1.03730969e-11 9.08712677e-14 1.68245480e-26 2.70261147e-27 1.03730969e-11
2.51188643e-01 9.78530560e-12 9.68073733e-12 1.04568266e-13 2.26986481e-24 4.44580602e-25 9.68073733e-12
2.88403150e-01 9.13184369e-12 9.03458975e-12 9.72539381e-14 1.56738955e-22 3.05279424e-23 9.03458975e-12
3.31131121e-01 8.51641247e-12 8.43156974e-12 8.48427187e-14 5.87693353e-21 1.13456730e-21 8.43156974e-12
3.80189396e-01 7.94616774e-12 7.86879872e-12 7.73688858e-14 1.30577123e-19 2.51963095e-20 7.86879872e-12
4.36515832e-01 7.41331365e-12 7.34359025e-12 6.97215544e-14 1.84546338e-18 3.62146292e-19 7.34359025e-12
5.01187234e-01 6.92063694e-12 6.85343719e-12 6.71822649e-14 1.74916738e-17 3.49424352e-18 6.85343719e-12
5.75439937e-01 6.45786493e-12 6.39599973e-12 6.17477988e-14 1.17406443e-16 2.34941422e-17 6.39599973e-12
6.60693448e-01 6.02864931e-12 5.96909425e-12 5.89685162e-14 5.86538843e-16 1.18397921e-16 5.96909425e-12
7.58577575e-01 5.62677376e-12 5.57068288e-12 5.38013395e-14 2.28953567e-15 4.54743048e-16 5.57068288e-12
8.70963590e-01 5.25519795e-12 5.19886376e-12 4.90299422e-14 7.30424595e-15 1.40873119e-15 5.19886376e-12
1.00000000e+00 4.91431763e-12 4.85186196e-12 4.31411233e-14 1.93145434e-14 3.50990191e-15 4.85186196e-12
1.14815362e+00 4.60937598e-12 4.52802104e-12 3.69536437e-14 4.44012927e-14 7.36887315e-15 4.52802104e-12
1.31825674e+00 4.34760235e-12 4.22579511e-12 3.07433847e-14 9.10638497e-14 1.32604752e-14 4.22579511e-12
1.51356125e+00 4.13443224e-12 3.94374146e-12 2.39338047e-14 1.66756974e-13 2.07820710e-14 3.94374146e-12
1.73780083e+00 3.97019942e-12 3.68051368e-12 1.87806119e-14 2.70905128e-13 2.76466155e-14 3.68051368e-12
1.99526231e+00 3.84416786e-12 3.43485522e-12 1.40840159e-14 3.95228622e-13 3.14945765e-14 3.43485522e-12
2.29086765e+00 3.73928585e-12 3.20559341e-12 1.00528159e-14 5.23639624e-13 3.14640613e-14 3.20559341e-12
2.63026799e+00 3.64017561e-12 2.99163384e-12 6.96741729e-15 6.41574355e-13 2.81777083e-14 2.99163384e-12
3.01995172e+00 3.53223247e-12 2.79195514e-12 4.70896132e-15 7.35568359e-13 2.28565487e-14 2.79195514e-12
3.46736850e+00 3.41193259e-12 2.60560415e-12 3.14183712e-15 8.03186609e-13 1.73251212e-14 2.60560415e-12
3.98107171e+00 3.27262882e-12 2.43169128e-12 1.99467684e-15 8.38942866e-13 1.21328490e-14 2.43169128e-12
4.57088190e+00 3.11824266e-12 2.26938634e-12 1.26663227e-15 8.47589685e-13 8.12577797e-15 2.26938634e-12
5.24807460e+00 2.71323865e-12 1.87643467e-12 6.64030398e-16 8.36139951e-13 5.19029585e-15 1.87643467e-12
6.02559586e+00 2.05069441e-12 1.23974809e-12 2.73742908e-16 8.10672579e-13 3.07524440e-15 1.23974809e-12
6.70000000e+00 1.68622075e-12 9.01797527e-13 1.37320441e-16 7.84285901e-13 1.99292598e-15 9.01797527e-13
6.92422916e+00 1.59111399e-12 8.16994532e-13 1.07429755e-16 7.74012027e-13 1.72993678e-15 8.16994532e-13
7.15596261e+00 1.51002895e-12 7.40166218e-13 8.42956706e-17 7.69778436e-13 1.49320238e-15 7.40166218e-13
7.39545150e+00 1.45136540e-12 6.70562664e-13 6.44011157e-17 7.80738331e-13 1.27908548e-15 6.70562664e-13
7.64295536e+00 1.44309235e-12 6.07504471e-13 4.69090334e-17 8.35540968e-13 1.09441147e-15 6.07504471e-13
7.89874245e+00 1.51469000e-12 5.50376127e-13 3.12467252e-17 9.64282631e-13 9.43123954e-16 5.50376127e-13
8.16308998e+00 1.65351539e-12 4.98620004e-13 1.98396812e-17 1.15487555e-12 8.04970344e-16 4.98620004e-13
8.43628443e+00 1.87458947e-12 4.51730909e-13 1.18492261e-17 1.42284671e-12 6.47272146e-16 4.51730909e-13
8.71862190e+00 2.03812619e-12 4.09251158e-13 7.23263854e-18 1.62886780e-12 5.11591137e-16 4.09251158e-13
9.01040836e+00 2.21647872e-12 3.70766106e-13 4.23778316e-18 1.84570837e-12 3.57180878e-16 3.70766106e-13
9.31196005e+00 2.38159041e-12 3.35900102e-13 0.00000000e+00 2.04569031e-12 0.00000000e+00 3.35900102e-13
9.62360379e+00 2.38037837e-12 3.04312818e-13 0.00000000e+00 2.07606555e-12 0.00000000e+00 3.04312818e-13
9.94567731e+00 2.25205779e-12 2.75695930e-13 0.00000000e+00 1.97636186e-12 0.00000000e+00 2.75695930e-13
1.02785297e+01 2.09132663e-12 2.49770110e-13 0.00000000e+00 1.84155652e-12 0.00000000e+00 2.49770110e-13
1.06225216e+01 1.92714466e-12 2.26282295e-13 0.00000000e+00 1.70086237e-12 0.00000000e+00 2.26282295e-13
1.09780260e+01 1.74587499e-12 2.05003220e-13 0.00000000e+00 1.54087177e-12 0.00000000e+00 2.05003220e-13
1.13454280e+01 1.58432223e-12 1.85725182e-13 0.00000000e+00 1.39859705e-12 0.00000000e+00 1.85725182e-13
1.17251259e+01 1.44532545e-12 1.68260007e-13 0.00000000e+00 1.27706544e-12 0.00000000e+00 1.68260007e-13
1.21175312e+01 1.31504852e-12 1.52437217e-13 0.00000000e+00 1.16261130e-12 0.00000000e+00 1.52437217e-13
1.25230691e+01 1.19891965e-12 1.38102367e-13 0.00000000e+00 1.06081728e-12 0.00000000e+00 1.38102367e-13
1.29421791e+01 1.09893844e-12 1.25115533e-13 0.00000000e+00 9.73822906e-13 0.00000000e+00 1.25115533e-13
1.33753155e+01 1.01196652e-12 1.13349952e-13 0.00000000e+00 8.98616565e-13 0.00000000e+00 1.13349952e-13
1.38229477e+01 9.57001916e-13 1.02690779e-13 0.00000000e+00 8.54311137e-13 0.00000000e+00 1.02690779e-13
1.42855609e+01 9.28501681e-13 9.30339713e-14 0.00000000e+00 8.35467709e-13 0.00000000e+00 9.30339713e-14
1.47636563e+01 9.48107502e-13 8.42852675e-14 0.00000000e+00 8.63822234e-13 0.00000000e+00 8.42852675e-14
1.52577522e+01 9.80242185e-13 7.63592720e-14 0.00000000e+00 9.03882913e-13 0.00000000e+00 7.63592720e-14
1.57683840e+01 1.02315854e-12 6.91786191e-14 0.00000000e+00 9.53979925e-13 0.00000000e+00 6.91786191e-14
1.62961051e+01 1.07171308e-12 6.26732185e-14 0.00000000e+00 1.00903986e-12 0.00000000e+00 6.26732185e-14
1.68414875e+01 1.12265909e-12 5.67795711e-14 0.00000000e+00 1.06587952e-12 0.00000000e+00 5.67795711e-14
1.74051222e+01 1.15645939e-12 5.14401489e-14 0.00000000e+00 1.10501924e-12 0.00000000e+00 5.14401489e-14
1.79876201e+01 1.18526542e-12 4.66028339e-14 0.00000000e+00 1.13866259e-12 0.00000000e+00 4.66028339e-14
1.85896125e+01 1.18917846e-12 4.22204090e-14 0.00000000e+00 1.14695806e-12 0.00000000e+00 4.22204090e-14
1.92117518e+01 1.17397531e-12 3.82500974e-14 0.00000000e+00 1.13572521e-12 0.00000000e+00 3.82500974e-14
1.98547123e+01 1.14404686e-12 3.46531450e-14 0.00000000e+00 1.10939372e-12 0.00000000e+00 3.46531450e-14
2.05191907e+01 1.11271525e-12 3.13944418e-14 0.00000000e+00 1.08132081e-12 0.00000000e+00 3.13944418e-14
2.12059073e+01 1.07639504e-12 2.84421796e-14 0.00000000e+00 1.04795286e-12 0.00000000e+00 2.84421796e-14
2.19156062e+01 1.04748887e-12 2.57675415e-14 0.00000000e+00 1.02172133e-12 0.00000000e+00 2.57675415e-14
2.26490567e+01 1.02063143e-12 2.33444203e-14 0.00000000e+00 9.97287007e-13 0.00000000e+00 2.33444203e-14
2.34070535e+01 9.94378401e-13 2.11491639e-14 0.00000000e+00 9.73229237e-13 0.00000000e+00 2.11491639e-14
2.41904183e+01 9.70360606e-13 1.91603445e-14 0.00000000e+00 9.51200262e-13 0.00000000e+00 1.91603445e-14
2.50000000e+01 9.45925235e-13 1.73585491e-14 0.00000000e+00 9.28566686e-13 0.00000000e+00 1.73585491e-14
2.75422870e+01 8.74783855e-13 1.29817562e-14 0.00000000e+00 8.61802099e-13 0.00000000e+00 1.29817562e-14
3.16227766e+01 7.63917098e-13 8.57696126e-15 0.00000000e+00 7.55340137e-13 0.00000000e+00 8.57696126e-15
3.63078055e+01 6.36631044e-13 5.66674211e-15 0.00000000e+00 6.30964302e-13 0.00000000e+00 5.66674211e-15
4.16869383e+01 4.95553367e-13 3.74397938e-15 0.00000000e+00 4.91809387e-13 0.00000000e+00 3.74397938e-15
4.78630092e+01 3.59613895e-13 2.47362265e-15 0.00000000e+00 3.57140272e-13 0.00000000e+00 2.47362265e-15
5.49540874e+01 2.45705133e-13 1.63430628e-15 0.00000000e+00 2.44070826e-13 0.00000000e+00 1.63430628e-15
6.30957344e+01 1.59889558e-13 1.07977545e-15 0.00000000e+00 1.58809782e-13 0.00000000e+00 1.07977545e-15
7.24435960e+01 9.97045905e-14 7.13400564e-16 0.00000000e+00 9.89911900e-14 0.00000000e+00 7.13400564e-16
8.31763771e+01 6.01680966e-14 4.71339078e-16 0.00000000e+00 5.96967575e-14 0.00000000e+00 4.71339078e-16
9.54992586e+01 3.53994677e-14 3.11410641e-16 0.00000000e+00 3.50880571e-14 0.00000000e+00 3.11410641e-16
1.09647820e+02 2.04057773e-14 2.05746970e-16 0.00000000e+00 2.02000304e-14 0.00000000e+00 2.05746970e-16
1.25892541e+02 1.16961366e-14 1.35935675e-16 0.00000000e+00 1.15602010e-14 0.00000000e+00 1.35935675e-16
1.44543977e+02 6.63651245e-15 8.98118099e-17 0.00000000e+00 6.54670064e-15 0.00000000e+00 8.98118099e-17
1.65958691e+02 3.57907429e-15 5.93380743e-17 0.00000000e+00 3.51973622e-15 0.00000000e+00 5.93380743e-17
1.90546072e+02 1.92575681e-15 3.92042769e-17 0.00000000e+00 1.88655254e-15 0.00000000e+00 3.92042769e-17
2.18776162e+02 1.03200625e-15 2.59020089e-17 0.00000000e+00 1.00610424e-15 0.00000000e+00 2.59020089e-17
2.51188643e+02 5.50268645e-16 1.71132876e-17 0.00000000e+00 5.33155358e-16 0.00000000e+00 1.71132876e-17
2.88403150e+02 2.91805578e-16 1.13066370e-17 0.00000000e+00 2.80498941e-16 0.00000000e+00 1.13066370e-17
3.31131121e+02 1.54316501e-16 7.47022097e-18 0.00000000e+00 1.46846280e-16 0.00000000e+00 7.47022097e-18
3.80189396e+02 8.13757609e-17 4.93552605e-18 0.00000000e+00 7.64402348e-17 0.00000000e+00 4.93552605e-18
4.36515832e+02 4.28867971e-17 3.26086972e-18 0.00000000e+00 3.96259273e-17 0.00000000e+00 3.26086972e-18
5.01187234e+02 2.26113528e-17 2.15443526e-18 0.00000000e+00 2.04569175e-17 0.00000000e+00 2.15443526e-18
5.75439937e+02 1.19478328e-17 1.42342126e-18 0.00000000e+00 1.05244115e-17 0.00000000e+00 1.42342126e-18
6.60693448e+02 6.33871112e-18 9.40445101e-19 0.00000000e+00 5.39826602e-18 0.00000000e+00 9.40445101e-19
7.58577575e+02 3.38307531e-18 6.21345916e-19 0.00000000e+00 2.76172939e-18 0.00000000e+00 6.21345916e-19
8.70963590e+02 1.81987356e-18 4.10519176e-19 0.00000000e+00 1.40935439e-18 0.00000000e+00 4.10519176e-19
1.00000000e+03 7.17566680e-19 0.00000000e+00 0.00000000e+00 7.17566680e-19 0.00000000e+00 0.00000000e+00
