# column 1: lambda (micron)
# column 2: total flux; lambda*F_lambda (W/m2)
# column 3: direct stellar flux; lambda*F_lambda (W/m2)
# column 4: scattered stellar flux; lambda*F_lambda (W/m2)
# column 5: total dust emission flux; lambda*F_lambda (W/m2)
# column 6: dust emission scattered flux; lambda*F_lambda (W/m2)
# column 7: transparent flux; lambda*F_lambda (W/m2)
1.00000000e-03 2.05930923e-13 2.05930314e-13 6.09487447e-19 0.00000000e+00 0.00000000e+00 2.06075710e-13
1.14815362e-03 2.43009745e-13 2.43008709e-13 1.03649717e-18 0.00000000e+00 0.00000000e+00 2.43235413e-13
1.31825674e-03 2.86757323e-13 2.86755610e-13 1.71280949e-18 0.00000000e+00 0.00000000e+00 2.87095777e-13
1.51356125e-03 3.38394477e-13 3.38391757e-13 2.71958257e-18 0.00000000e+00 0.00000000e+00 3.38865070e-13
1.73780083e-03 3.99409460e-13 3.99405004e-13 4.45534310e-18 0.00000000e+00 0.00000000e+00 3.99969435e-13
1.99526231e-03 4.71218598e-13 4.71209101e-13 9.49698946e-18 0.00000000e+00 0.00000000e+00 4.72092178e-13
2.29086765e-03 5.56129992e-13 5.56114907e-13 1.50851571e-17 0.00000000e+00 0.00000000e+00 5.57220139e-13
2.63026799e-03 6.56158770e-13 6.56135447e-13 2.33231363e-17 0.00000000e+00 0.00000000e+00 6.57698429e-13
3.01995172e-03 7.74128252e-13 7.74014028e-13 1.14224242e-16 0.00000000e+00 0.00000000e+00 7.76295028e-13
3.46736850e-03 9.13208676e-13 9.13104528e-13 1.04147992e-16 0.00000000e+00 0.00000000e+00 9.16277040e-13
3.98107171e-03 1.07742137e-12 1.07721549e-12 2.05879302e-16 0.00000000e+00 0.00000000e+00 1.08150070e-12
4.57088190e-03 1.27345666e-12 1.27314150e-12 3.15166740e-16 0.00000000e+00 0.00000000e+00 1.27651759e-12
5.24807460e-03 1.50243908e-12 1.50161229e-12 8.26787553e-16 0.00000000e+00 0.00000000e+00 1.50670006e-12
6.02559586e-03 1.79874931e-12 1.77115093e-12 2.75983832e-14 0.00000000e+00 0.00000000e+00 1.77838917e-12
6.91830971e-03 2.10568268e-12 2.08921226e-12 1.64704154e-14 0.00000000e+00 0.00000000e+00 2.09906943e-12
7.94328235e-03 2.46694349e-12 2.46459820e-12 2.34529510e-15 1.40287730e-303 5.76422924e-306 2.47757497e-12
9.12010839e-03 2.91909528e-12 2.90734079e-12 1.17544904e-14 6.55776893e-265 3.31653061e-267 2.92433286e-12
1.04712855e-02 3.25134910e-12 3.24589414e-12 5.45496460e-15 2.92708200e-231 1.34996101e-233 3.26608014e-12
1.20226443e-02 3.25272931e-12 3.24470670e-12 8.02260692e-15 4.82503709e-202 3.92820508e-204 3.26608014e-12
1.38038426e-02 3.26232997e-12 3.24329884e-12 1.90311247e-14 1.37056975e-176 1.18948052e-178 3.26608014e-12
1.58489319e-02 3.26128690e-12 3.24156952e-12 1.97173817e-14 1.93057132e-154 2.62231727e-156 3.26608014e-12
1.81970086e-02 3.26560651e-12 3.23997535e-12 2.56311593e-14 3.56605519e-135 6.30095222e-137 3.26608014e-12
2.08929613e-02 3.27203983e-12 3.23865085e-12 3.33889770e-14 1.91408576e-118 3.55896236e-120 3.26608014e-12
2.39883292e-02 3.27349918e-12 3.23693555e-12 3.65636301e-14 6.92501219e-104 1.85825219e-105 3.26608014e-12
2.75422870e-02 3.28728817e-12 3.23494150e-12 5.23466708e-14 3.17092626e-91 9.75107756e-93 3.26608014e-12
3.16227766e-02 3.27664906e-12 3.23298809e-12 4.36609709e-14 3.15972988e-80 1.15250623e-81 3.26608014e-12
3.63078055e-02 3.27756811e-12 3.23145675e-12 4.61113502e-14 1.11353956e-70 4.30786540e-72 3.26608014e-12
4.16869383e-02 3.27975989e-12 3.23013285e-12 4.96270426e-14 2.15498373e-62 1.01162676e-63 3.26608014e-12
4.78630092e-02 3.27155706e-12 3.22648635e-12 4.50707053e-14 3.30167774e-55 1.80355142e-56 3.26608014e-12
5.49540874e-02 3.26447866e-12 3.22142204e-12 4.30566221e-14 5.51849353e-49 3.06538027e-50 3.26608014e-12
6.30957344e-02 3.24389639e-12 3.20875822e-12 3.51381697e-14 1.79399175e-43 1.05819744e-44 3.26608014e-12
7.24435960e-02 3.22370749e-12 3.19382215e-12 2.98853354e-14 1.04282469e-38 5.65675123e-40 3.26608014e-12
8.31763771e-02 3.22620430e-12 3.19514842e-12 3.10558775e-14 1.07324315e-34 5.59932268e-36 3.26608014e-12
9.54992586e-02 3.23056999e-12 3.19904147e-12 3.15285233e-14 3.04401876e-31 1.65309704e-32 3.26608014e-12
1.09647820e-01 3.10086532e-12 3.06580460e-12 3.50607198e-14 2.60284303e-28 1.56206314e-29 3.11908354e-12
1.25892541e-01 2.90269502e-12 2.86990640e-12 3.27886209e-14 8.47855056e-26 5.07493315e-27 2.91089813e-12
1.44543977e-01 2.71569727e-12 2.68486142e-12 3.08358463e-14 1.15834458e-23 6.70923701e-25 2.71660820e-12
1.65958691e-01 2.53823458e-12 2.50935620e-12 2.88783732e-14 5.89241455e-22 3.77666261e-23 2.53528629e-12
1.90546072e-01 2.37275990e-12 2.34025861e-12 3.25012778e-14 1.24085195e-20 8.88255744e-22 2.36606683e-12
2.18776162e-01 2.20848693e-12 2.17991562e-12 2.85711584e-14 1.47031684e-19 1.07591408e-20 2.20814205e-12
2.51188643e-01 2.07201314e-12 2.03966387e-12 3.23474905e-14 1.78331944e-18 1.54207718e-19 2.06075806e-12
2.88403150e-01 1.93508580e-12 1.90685276e-12 2.82181354e-14 1.48958461e-17 1.29439705e-18 1.92321132e-12
3.31131121e-01 1.80874712e-12 1.78152964e-12 2.71319570e-14 8.55238198e-17 7.27575310e-18 1.79484524e-12
3.80189396e-01 1.68792567e-12 1.66412943e-12 2.34396097e-14 3.56633549e-16 2.95246718e-17 1.67504704e-12
4.36515832e-01 1.57847867e-12 1.55437354e-12 2.29779918e-14 1.12714059e-15 9.04713165e-17 1.56324485e-12
5.01187234e-01 1.47528295e-12 1.45179411e-12 2.06791831e-14 2.80965338e-15 2.19357806e-16 1.45890498e-12
5.75439937e-01 1.37999333e-12 1.35588852e-12 1.83406892e-14 5.76411349e-15 4.34913516e-16 1.36152935e-12
6.60693448e-01 1.29269286e-12 1.26621730e-12 1.63683562e-14 1.01072073e-14 7.51622450e-16 1.27065312e-12
7.58577575e-01 1.21211816e-12 1.18239675e-12 1.39312498e-14 1.57901589e-14 1.12668143e-15 1.18584249e-12
8.70963590e-01 1.13873347e-12 1.10407531e-12 1.18820345e-14 2.27761259e-14 1.59260344e-15 1.10669260e-12
1.00000000e+00 1.07184768e-12 1.03086977e-12 9.87301565e-15 3.11048942e-14 2.12687523e-15 1.03282563e-12
1.14815362e+00 1.01365295e-12 9.62453392e-13 8.76023236e-15 4.24393237e-14 2.74239583e-15 9.63888963e-13
1.31825674e+00 9.64766301e-13 8.98518173e-13 6.85617141e-15 5.93919564e-14 3.51335628e-15 8.99553520e-13
1.51356125e+00 9.29231104e-13 8.38773054e-13 5.68228879e-15 8.47757614e-14 4.48274744e-15 8.39512191e-13
1.73780083e+00 9.06604358e-13 7.82959283e-13 4.37549982e-15 1.19269575e-13 5.26557503e-15 7.83478363e-13
1.99526231e+00 8.94324506e-13 7.30825740e-13 3.26638734e-15 1.60232378e-13 5.71968277e-15 7.31184552e-13
2.29086765e+00 8.86434219e-13 6.82133875e-13 2.39101941e-15 2.01909324e-13 5.67829647e-15 6.82381128e-13
2.63026799e+00 8.75209860e-13 6.36663150e-13 1.64501341e-15 2.36901697e-13 5.07101180e-15 6.36835122e-13
3.01995172e+00 8.56049720e-13 5.94207967e-13 1.13047374e-15 2.60711279e-13 4.15422255e-15 5.94329117e-13
3.46736850e+00 8.26649594e-13 5.54573465e-13 7.23063804e-16 2.71353065e-13 3.17440548e-15 5.54660204e-13
3.98107171e+00 7.86326576e-13 5.17576126e-13 4.60459077e-16 2.68289991e-13 2.18144564e-15 5.17639021e-13
4.57088190e+00 7.37951251e-13 4.83042615e-13 2.67512584e-16 2.54641123e-13 1.42541763e-15 4.83088843e-13
5.24807460e+00 6.34280222e-13 3.99409722e-13 1.46764840e-16 2.34723735e-13 8.70792168e-16 3.99440428e-13
6.02559586e+00 4.76742393e-13 2.63890815e-13 5.96942487e-17 2.12791883e-13 5.01773590e-16 2.63907674e-13
6.70000000e+00 3.86459414e-13 1.91956602e-13 2.84875852e-17 1.94474325e-13 3.09253894e-16 1.91967457e-13
6.92422916e+00 3.62632661e-13 1.73905783e-13 2.22234145e-17 1.88704655e-13 2.60890058e-16 1.73915272e-13
7.15596261e+00 3.42544005e-13 1.57552227e-13 1.82274841e-17 1.84973550e-13 2.21447548e-16 1.57560674e-13
7.39545150e+00 3.28951853e-13 1.42736190e-13 1.34781124e-17 1.86202185e-13 1.87943484e-16 1.42744025e-13
7.64295536e+00 3.30411772e-13 1.29312613e-13 1.01023897e-17 2.01089056e-13 1.62551269e-16 1.29320701e-13
7.89874245e+00 3.54894962e-13 1.17150209e-13 7.00812057e-18 2.37737745e-13 1.41428976e-16 1.17159675e-13
8.16308998e+00 3.97910587e-13 1.06130664e-13 4.47402891e-18 2.91775449e-13 1.23261508e-16 1.06142245e-13
8.43628443e+00 4.62137743e-13 9.61462931e-14 2.69476292e-18 3.65988755e-13 1.00573644e-16 9.61608686e-14
8.71862190e+00 5.06536996e-13 8.71018935e-14 1.67941566e-18 4.19433423e-13 7.79249688e-17 8.71181185e-14
9.01040836e+00 5.53139841e-13 7.89079216e-14 8.24159287e-19 4.74231095e-13 4.98673375e-17 7.89257281e-14
9.31196005e+00 5.86078916e-13 7.14850213e-14 0.00000000e+00 5.14593895e-13 0.00000000e+00 7.15037315e-14
9.62360379e+00 5.74950369e-13 6.47622854e-14 0.00000000e+00 5.10188083e-13 0.00000000e+00 6.47796826e-14
9.94567731e+00 5.32598685e-13 5.86731592e-14 0.00000000e+00 4.73925526e-13 0.00000000e+00 5.86879481e-14
1.02785297e+01 4.80863302e-13 5.31569456e-14 0.00000000e+00 4.27706356e-13 0.00000000e+00 5.31690665e-14
1.06225216e+01 4.31318929e-13 4.81593403e-14 0.00000000e+00 3.83159589e-13 0.00000000e+00 4.81691679e-14
1.09780260e+01 3.78671915e-13 4.36317675e-14 0.00000000e+00 3.35040148e-13 0.00000000e+00 4.36394486e-14
1.13454280e+01 3.32899859e-13 3.95296665e-14 0.00000000e+00 2.93370193e-13 0.00000000e+00 3.95356937e-14
1.17251259e+01 2.94495673e-13 3.58130867e-14 0.00000000e+00 2.58682586e-13 0.00000000e+00 3.58178467e-14
1.21175312e+01 2.60514303e-13 3.24458776e-14 0.00000000e+00 2.28068425e-13 0.00000000e+00 3.24496176e-14
1.25230691e+01 2.29320617e-13 2.93951986e-14 0.00000000e+00 1.99925418e-13 0.00000000e+00 2.93981291e-14
1.29421791e+01 2.03499972e-13 2.66312834e-14 0.00000000e+00 1.76868688e-13 0.00000000e+00 2.66335956e-14
1.33753155e+01 1.81035774e-13 2.41271952e-14 0.00000000e+00 1.56908579e-13 0.00000000e+00 2.41290327e-14
1.38229477e+01 1.66104736e-13 2.18584656e-14 0.00000000e+00 1.44246270e-13 0.00000000e+00 2.18599931e-14
1.42855609e+01 1.56263456e-13 1.98030013e-14 0.00000000e+00 1.36460455e-13 0.00000000e+00 1.98043289e-14
1.47636563e+01 1.55556064e-13 1.79407147e-14 0.00000000e+00 1.37615349e-13 0.00000000e+00 1.79419747e-14
1.52577522e+01 1.56651462e-13 1.62535346e-14 0.00000000e+00 1.40397928e-13 0.00000000e+00 1.62547521e-14
1.57683840e+01 1.59006883e-13 1.47250006e-14 0.00000000e+00 1.44281882e-13 0.00000000e+00 1.47261920e-14
1.62961051e+01 1.61796196e-13 1.33402097e-14 0.00000000e+00 1.48455987e-13 0.00000000e+00 1.33413743e-14
1.68414875e+01 1.64512783e-13 1.20856459e-14 0.00000000e+00 1.52427137e-13 0.00000000e+00 1.20867817e-14
1.74051222e+01 1.64560144e-13 1.09490896e-14 0.00000000e+00 1.53611055e-13 0.00000000e+00 1.09501681e-14
1.79876201e+01 1.62730135e-13 9.91943212e-15 0.00000000e+00 1.52810703e-13 0.00000000e+00 9.92043915e-15
1.85896125e+01 1.57839666e-13 8.98663238e-15 0.00000000e+00 1.48853034e-13 0.00000000e+00 8.98754353e-15
1.92117518e+01 1.50669475e-13 8.14157498e-15 0.00000000e+00 1.42527900e-13 0.00000000e+00 8.14237531e-15
1.98547123e+01 1.41564484e-13 7.37599552e-15 0.00000000e+00 1.34188488e-13 0.00000000e+00 7.37668479e-15
2.05191907e+01 1.32566555e-13 6.68241044e-15 0.00000000e+00 1.25884144e-13 0.00000000e+00 6.68299807e-15
2.12059073e+01 1.23806417e-13 6.05404318e-15 0.00000000e+00 1.17752374e-13 0.00000000e+00 6.05454408e-15
2.19156062e+01 1.16175943e-13 5.48475942e-15 0.00000000e+00 1.10691184e-13 0.00000000e+00 5.48518847e-15
2.26490567e+01 1.09178284e-13 4.96900569e-15 0.00000000e+00 1.04209278e-13 0.00000000e+00 4.96937378e-15
2.34070535e+01 1.02643652e-13 4.50174875e-15 0.00000000e+00 9.81419030e-14 0.00000000e+00 4.50206513e-15
2.41904183e+01 9.66859592e-14 4.07842851e-15 0.00000000e+00 9.26075307e-14 0.00000000e+00 4.07870113e-15
2.50000000e+01 9.10175113e-14 3.69491390e-15 0.00000000e+00 8.73225974e-14 0.00000000e+00 3.69514932e-15
2.75422870e+01 7.62903725e-14 2.76329906e-15 0.00000000e+00 7.35270734e-14 0.00000000e+00 2.76345259e-15
3.16227766e+01 5.83633167e-14 1.82571067e-15 0.00000000e+00 5.65376060e-14 0.00000000e+00 1.82579502e-15
3.63078055e+01 4.28618199e-14 1.20624471e-15 0.00000000e+00 4.16555752e-14 0.00000000e+00 1.20629081e-15
4.16869383e+01 2.97271651e-14 7.96963906e-16 0.00000000e+00 2.89302012e-14 0.00000000e+00 7.96988434e-16
4.78630092e+01 1.94176605e-14 5.26552392e-16 0.00000000e+00 1.88911081e-14 0.00000000e+00 5.26565037e-16
5.49540874e+01 1.20846433e-14 3.47891689e-16 0.00000000e+00 1.17367516e-14 0.00000000e+00 3.47898070e-16
6.30957344e+01 7.24265710e-15 2.29850797e-16 0.00000000e+00 7.01280630e-15 0.00000000e+00 2.29853975e-16
7.24435960e+01 4.21886408e-15 1.51861443e-16 0.00000000e+00 4.06700263e-15 0.00000000e+00 1.51863015e-16
8.31763771e+01 2.40636803e-15 1.00334123e-16 0.00000000e+00 2.30603390e-15 0.00000000e+00 1.00334899e-16
9.54992586e+01 1.35333544e-15 6.62902264e-17 0.00000000e+00 1.28704521e-15 0.00000000e+00 6.62906105e-17
1.09647820e+02 7.53321795e-16 4.37975812e-17 0.00000000e+00 7.09524213e-16 0.00000000e+00 4.37977720e-17
1.25892541e+02 4.20915554e-16 2.89368048e-17 0.00000000e+00 3.91978749e-16 0.00000000e+00 2.89369010e-17
1.44543977e+02 2.34703070e-16 1.91183721e-17 0.00000000e+00 2.15584698e-16 0.00000000e+00 1.91184209e-17
1.65958691e+02 1.25484480e-16 1.26313915e-17 0.00000000e+00 1.12853089e-16 0.00000000e+00 1.26314154e-17
1.90546072e+02 6.75154477e-17 8.34548156e-18 0.00000000e+00 5.91699662e-17 0.00000000e+00 8.34549342e-18
2.18776162e+02 3.64980475e-17 5.51380691e-18 0.00000000e+00 3.09842405e-17 0.00000000e+00 5.51381282e-18
2.51188643e+02 1.98123875e-17 3.64293705e-18 0.00000000e+00 1.61694505e-17 0.00000000e+00 3.64294000e-18
2.88403150e+02 1.08047484e-17 2.40686512e-18 0.00000000e+00 8.39788328e-18 0.00000000e+00 2.40686659e-18
3.31131121e+02 5.93902181e-18 1.59020025e-18 0.00000000e+00 4.34882156e-18 0.00000000e+00 1.59020099e-18
3.80189396e+02 3.29351524e-18 1.05063500e-18 0.00000000e+00 2.24288024e-18 0.00000000e+00 1.05063537e-18
4.36515832e+02 1.84774703e-18 6.94147721e-19 0.00000000e+00 1.15359931e-18 0.00000000e+00 6.94147908e-19
5.01187234e+02 1.05019261e-18 4.58618881e-19 0.00000000e+00 5.91573733e-19 0.00000000e+00 4.58618975e-19
5.75439937e+02 6.05617884e-19 3.03006505e-19 0.00000000e+00 3.02611379e-19 0.00000000e+00 3.03006552e-19
6.60693448e+02 3.54656816e-19 2.00194420e-19 0.00000000e+00 1.54462396e-19 0.00000000e+00 2.00194443e-19
7.58577575e+02 2.10959842e-19 1.32267145e-19 0.00000000e+00 7.86926972e-20 0.00000000e+00 1.32267157e-19
8.70963590e+02 1.27402502e-19 8.73880381e-20 0.00000000e+00 4.00144643e-20 0.00000000e+00 8.73880441e-20
1.00000000e+03 2.03104580e-20 0.00000000e+00 0.00000000e+00 2.03104580e-20 0.00000000e+00 0.00000000e+00
