# column 1: lambda (micron)
# column 2: total flux; lambda*F_lambda (W/m2)
# column 3: direct stellar flux; lambda*F_lambda (W/m2)
# column 4: scattered stellar flux; lambda*F_lambda (W/m2)
# column 5: total dust emission flux; lambda*F_lambda (W/m2)
# column 6: dust emission scattered flux; lambda*F_lambda (W/m2)
# column 7: transparent flux; lambda*F_lambda (W/m2)
1.00000000e-03 8.46531377e-13 8.46529401e-13 1.97594454e-18 0.00000000e+00 0.00000000e+00 8.46529401e-13
1.14815362e-03 9.99179165e-13 9.99176121e-13 3.04459458e-18 0.00000000e+00 0.00000000e+00 9.99176121e-13
1.31825674e-03 1.17935279e-12 1.17934819e-12 4.59632710e-18 0.00000000e+00 0.00000000e+00 1.17934819e-12
1.51356125e-03 1.39201579e-12 1.39200901e-12 6.78172877e-18 0.00000000e+00 0.00000000e+00 1.39200901e-12
1.73780083e-03 1.64302900e-12 1.64301696e-12 1.20419097e-17 0.00000000e+00 0.00000000e+00 1.64301696e-12
1.99526231e-03 1.93930823e-12 1.93928682e-12 2.14061973e-17 0.00000000e+00 0.00000000e+00 1.93928682e-12
2.29086765e-03 2.28901157e-12 2.28898025e-12 3.13186079e-17 0.00000000e+00 0.00000000e+00 2.28898025e-12
2.63026799e-03 2.70179209e-12 2.70173063e-12 6.14581820e-17 0.00000000e+00 0.00000000e+00 2.70173063e-12
3.01995172e-03 3.18901484e-12 3.18890841e-12 1.06430834e-16 0.00000000e+00 0.00000000e+00 3.18890841e-12
3.46736850e-03 3.76410993e-12 3.76393440e-12 1.75525864e-16 0.00000000e+00 0.00000000e+00 3.76393440e-12
3.98107171e-03 4.44292663e-12 4.44264945e-12 2.77185644e-16 0.00000000e+00 0.00000000e+00 4.44264945e-12
4.57088190e-03 5.24435455e-12 5.24375082e-12 6.03724688e-16 0.00000000e+00 0.00000000e+00 5.24375082e-12
5.24807460e-03 6.19051436e-12 6.18930730e-12 1.20705822e-15 0.00000000e+00 0.00000000e+00 6.18930730e-12
6.02559586e-03 7.30761582e-12 7.30536713e-12 2.24869318e-15 0.00000000e+00 0.00000000e+00 7.30536713e-12
6.91830971e-03 8.62571976e-12 8.62267558e-12 3.04418328e-15 0.00000000e+00 0.00000000e+00 8.62267558e-12
7.94328235e-03 1.01829037e-11 1.01775219e-11 5.38182244e-15 4.99031604e-304 7.24701430e-307 1.01775219e-11
9.12010839e-03 1.20227646e-11 1.20127391e-11 1.00254461e-14 2.21875094e-265 5.28382622e-268 1.20127391e-11
1.04712855e-02 1.34281784e-11 1.34165878e-11 1.15905528e-14 9.48738631e-232 2.54931710e-234 1.34165878e-11
1.20226443e-02 1.34397603e-11 1.34165878e-11 2.31724823e-14 1.50245572e-202 6.29347000e-205 1.34165878e-11
1.38038426e-02 1.34426285e-11 1.34165878e-11 2.60406774e-14 4.15253035e-177 4.30025345e-179 1.34165878e-11
1.58489319e-02 1.34659392e-11 1.34165878e-11 4.93513918e-14 5.64083415e-155 4.37842656e-157 1.34165878e-11
1.81970086e-02 1.34690300e-11 1.34165878e-11 5.24421280e-14 1.01554789e-135 1.13979636e-137 1.34165878e-11
2.08929613e-02 1.34863888e-11 1.34165878e-11 6.98009638e-14 5.34861206e-119 7.99365472e-121 1.34165878e-11
2.39883292e-02 1.35112943e-11 1.34165878e-11 9.47064113e-14 1.89325429e-104 3.84514769e-106 1.34165878e-11
2.75422870e-02 1.35387389e-11 1.34165878e-11 1.22151033e-13 8.55693542e-92 2.35214997e-93 1.34165878e-11
3.16227766e-02 1.35697505e-11 1.34165878e-11 1.53162624e-13 8.40175842e-81 2.74778581e-82 1.34165878e-11
3.63078055e-02 1.35885397e-11 1.34165878e-11 1.71951860e-13 2.93244105e-71 1.10217636e-72 1.34165878e-11
4.16869383e-02 1.36440614e-11 1.34165878e-11 2.27473569e-13 5.63807155e-63 2.81283924e-64 1.34165878e-11
4.78630092e-02 1.37073906e-11 1.34165878e-11 2.90802724e-13 8.59427595e-56 5.26330253e-57 1.34165878e-11
5.49540874e-02 1.37486025e-11 1.34165878e-11 3.32014613e-13 1.44118732e-49 1.04168756e-50 1.34165878e-11
6.30957344e-02 1.37815294e-11 1.34165878e-11 3.64941606e-13 4.68670623e-44 3.78405015e-45 1.34165878e-11
7.24435960e-02 1.37425934e-11 1.34165878e-11 3.26005592e-13 2.71311076e-39 2.06097466e-40 1.34165878e-11
8.31763771e-02 1.37367960e-11 1.34165878e-11 3.20208128e-13 2.78063696e-35 2.09522185e-36 1.34165878e-11
9.54992586e-02 1.37402440e-11 1.34165878e-11 3.23656116e-13 7.83881527e-32 6.02548678e-33 1.34165878e-11
1.09647820e-01 1.31620062e-11 1.28127470e-11 3.49259267e-13 6.67103907e-29 5.57798900e-30 1.28127470e-11
1.25892541e-01 1.22836612e-11 1.19575512e-11 3.26110019e-13 2.15593415e-26 1.74605642e-27 1.19575512e-11
1.44543977e-01 1.14571298e-11 1.11594361e-11 2.97693743e-13 2.92969690e-24 2.29361087e-25 1.11594361e-11
1.65958691e-01 1.07089257e-11 1.04145917e-11 2.94333997e-13 1.48571677e-22 1.25918950e-23 1.04145917e-11
1.90546072e-01 1.00375772e-11 9.71946251e-12 3.18114660e-13 3.14138364e-21 3.06473198e-22 9.71946251e-12
2.18776162e-01 9.37502934e-12 9.07073019e-12 3.04299110e-13 3.72304577e-20 3.73351387e-21 9.07073019e-12
2.51188643e-01 8.79814047e-12 8.46529796e-12 3.32842049e-13 4.53194528e-19 5.40194907e-20 8.46529796e-12
2.88403150e-01 8.20576205e-12 7.90027573e-12 3.05482548e-13 3.76570566e-18 4.41276620e-19 7.90027573e-12
3.31131121e-01 7.65071952e-12 7.37296631e-12 2.77731669e-13 2.15480094e-17 2.45379207e-18 7.37296631e-12
3.80189396e-01 7.13215337e-12 6.88085251e-12 2.51211000e-13 8.98598002e-17 1.00163224e-17 6.88085251e-12
4.36515832e-01 6.65318847e-12 6.42158520e-12 2.31315807e-13 2.87460355e-16 3.23801533e-17 6.42158520e-12
5.01187234e-01 6.21007562e-12 5.99297201e-12 2.16346960e-13 7.56651791e-16 9.15998517e-17 5.99297201e-12
5.75439937e-01 5.79244049e-12 5.59296690e-12 1.97628458e-13 1.84513553e-15 2.69078894e-16 5.59296690e-12
6.60693448e-01 5.40711248e-12 5.21966041e-12 1.82649969e-13 4.80209703e-15 9.11699397e-16 5.21966041e-12
7.58577575e-01 5.05107139e-12 4.87127053e-12 1.65927785e-13 1.38730791e-14 3.09415169e-15 4.87127053e-12
8.70963590e-01 4.73162973e-12 4.54613417e-12 1.45905200e-13 3.95903556e-14 9.19924134e-15 4.54613417e-12
1.00000000e+00 4.47465571e-12 4.24269927e-12 1.27784700e-13 1.04171744e-13 2.35904833e-14 4.24269927e-12
1.14815362e+00 4.31286820e-12 3.95951734e-12 1.09478852e-13 2.43872010e-13 5.11353332e-14 3.95951734e-12
1.31825674e+00 4.29861485e-12 3.69523659e-12 8.92175585e-14 5.14160701e-13 9.58311533e-14 3.69523659e-12
1.51356125e+00 4.49600927e-12 3.44859544e-12 7.21125204e-14 9.75301315e-13 1.59112437e-13 3.44859544e-12
1.73780083e+00 4.90868378e-12 3.21841652e-12 5.75554552e-14 1.63271180e-12 2.26058065e-13 3.21841652e-12
1.99526231e+00 5.49556278e-12 3.00360106e-12 4.42314895e-14 2.44773023e-12 2.77541479e-13 3.00360106e-12
2.29086765e+00 6.14561720e-12 2.80312361e-12 3.23036792e-14 3.31018991e-12 2.93906789e-13 2.80312361e-12
2.63026799e+00 6.76276715e-12 2.61602716e-12 2.29097826e-14 4.12383020e-12 2.74948825e-13 2.61602716e-12
3.01995172e+00 7.21688470e-12 2.44141860e-12 1.57749251e-14 4.75969118e-12 2.28270735e-13 2.44141860e-12
3.46736850e+00 7.46430301e-12 2.27846441e-12 1.02047816e-14 5.17563382e-12 1.73673961e-13 2.27846441e-12
3.98107171e+00 7.46174254e-12 2.12638671e-12 6.47200670e-15 5.32888382e-12 1.20213310e-13 2.12638671e-12
4.57088190e+00 7.25073089e-12 1.98445954e-12 3.95355321e-15 5.26231780e-12 7.69524606e-14 1.98445954e-12
5.24807460e+00 6.66714046e-12 1.64084388e-12 2.07815941e-15 5.02421843e-12 4.64551975e-14 1.64084388e-12
6.02559586e+00 5.79154566e-12 1.08409480e-12 8.40847101e-16 4.70661002e-12 2.63974176e-14 1.08409480e-12
6.70000000e+00 5.20382646e-12 7.88574724e-13 4.11870170e-16 4.41483986e-12 1.63671989e-14 7.88574724e-13
6.92422916e+00 5.02959923e-12 7.14418944e-13 3.29584902e-16 4.31485070e-12 1.39703432e-14 7.14418944e-13
7.15596261e+00 4.90234608e-12 6.47236606e-13 2.55776376e-16 4.25485370e-12 1.18377298e-14 6.47236606e-13
7.39545150e+00 4.86371895e-12 5.86371942e-13 1.98711104e-16 4.27714829e-12 1.01324980e-14 5.86371942e-13
7.64295536e+00 5.08574990e-12 5.31230854e-13 1.41773234e-16 4.55437728e-12 8.74260410e-15 5.31230854e-13
7.89874245e+00 5.67895339e-12 4.81275108e-13 9.54271582e-17 5.19758286e-12 7.62099450e-15 4.81275108e-13
8.16308998e+00 6.49886249e-12 4.36017088e-13 5.95941989e-17 6.06278581e-12 6.56556604e-15 4.36017088e-13
8.43628443e+00 7.55405077e-12 3.95015029e-13 3.38073918e-17 7.15900193e-12 5.31457135e-15 3.95015029e-13
8.71862190e+00 8.24274193e-12 3.57868711e-13 2.00703887e-17 7.88485315e-12 4.03311564e-15 3.57868711e-13
9.01040836e+00 8.92569995e-12 3.24215549e-13 9.25076579e-18 8.60147515e-12 2.52244701e-15 3.24215549e-13
9.31196005e+00 9.37639208e-12 2.93727053e-13 0.00000000e+00 9.08266503e-12 0.00000000e+00 2.93727053e-13
9.62360379e+00 9.24971785e-12 2.66105627e-13 0.00000000e+00 8.98361223e-12 0.00000000e+00 2.66105627e-13
9.94567731e+00 8.76808875e-12 2.41081657e-13 0.00000000e+00 8.52700710e-12 0.00000000e+00 2.41081657e-13
1.02785297e+01 8.17293678e-12 2.18410884e-13 0.00000000e+00 7.95452590e-12 0.00000000e+00 2.18410884e-13
1.06225216e+01 7.58291819e-12 1.97872020e-13 0.00000000e+00 7.38504617e-12 0.00000000e+00 1.97872020e-13
1.09780260e+01 6.93500254e-12 1.79264583e-13 0.00000000e+00 6.75573795e-12 0.00000000e+00 1.79264583e-13
1.13454280e+01 6.32858222e-12 1.62406948e-13 0.00000000e+00 6.16617527e-12 0.00000000e+00 1.62406948e-13
1.17251259e+01 5.78345751e-12 1.47134567e-13 0.00000000e+00 5.63632294e-12 0.00000000e+00 1.47134567e-13
1.21175312e+01 5.27891498e-12 1.33298366e-13 0.00000000e+00 5.14561662e-12 0.00000000e+00 1.33298366e-13
1.25230691e+01 4.80012633e-12 1.20763289e-13 0.00000000e+00 4.67936304e-12 0.00000000e+00 1.20763289e-13
1.29421791e+01 4.38148756e-12 1.09406983e-13 0.00000000e+00 4.27208058e-12 0.00000000e+00 1.09406983e-13
1.33753155e+01 4.00130670e-12 9.91185987e-14 0.00000000e+00 3.90218810e-12 0.00000000e+00 9.91185987e-14
1.38229477e+01 3.74585873e-12 8.97977103e-14 0.00000000e+00 3.65606102e-12 0.00000000e+00 8.97977103e-14
1.42855609e+01 3.59342144e-12 8.13533371e-14 0.00000000e+00 3.51206811e-12 0.00000000e+00 8.13533371e-14
1.47636563e+01 3.62507507e-12 7.37030537e-14 0.00000000e+00 3.55137202e-12 0.00000000e+00 7.37030537e-14
1.52577522e+01 3.68328616e-12 6.67721855e-14 0.00000000e+00 3.61651397e-12 0.00000000e+00 6.67721855e-14
1.57683840e+01 3.77905733e-12 6.04930805e-14 0.00000000e+00 3.71856425e-12 0.00000000e+00 6.04930805e-14
1.62961051e+01 3.86361651e-12 5.48044484e-14 0.00000000e+00 3.80881206e-12 0.00000000e+00 5.48044484e-14
1.68414875e+01 3.95005446e-12 4.96507622e-14 0.00000000e+00 3.90040369e-12 0.00000000e+00 4.96507622e-14
1.74051222e+01 3.97497563e-12 4.49817171e-14 0.00000000e+00 3.92999391e-12 0.00000000e+00 4.49817171e-14
1.79876201e+01 3.96217876e-12 4.07517384e-14 0.00000000e+00 3.92142702e-12 0.00000000e+00 4.07517384e-14
1.85896125e+01 3.87202755e-12 3.69195372e-14 0.00000000e+00 3.83510801e-12 0.00000000e+00 3.69195372e-14
1.92117518e+01 3.71529994e-12 3.34477076e-14 0.00000000e+00 3.68185223e-12 0.00000000e+00 3.34477076e-14
1.98547123e+01 3.53148911e-12 3.03023610e-14 0.00000000e+00 3.50118675e-12 0.00000000e+00 3.03023610e-14
2.05191907e+01 3.33028726e-12 2.74527957e-14 0.00000000e+00 3.30283447e-12 0.00000000e+00 2.74527957e-14
2.12059073e+01 3.14184945e-12 2.48711970e-14 0.00000000e+00 3.11697825e-12 0.00000000e+00 2.48711970e-14
2.19156062e+01 2.96106194e-12 2.25323660e-14 0.00000000e+00 2.93852957e-12 0.00000000e+00 2.25323660e-14
2.26490567e+01 2.79123208e-12 2.04134733e-14 0.00000000e+00 2.77081861e-12 0.00000000e+00 2.04134733e-14
2.34070535e+01 2.62324543e-12 1.84938366e-14 0.00000000e+00 2.60475160e-12 0.00000000e+00 1.84938366e-14
2.41904183e+01 2.47077017e-12 1.67547181e-14 0.00000000e+00 2.45401545e-12 0.00000000e+00 1.67547181e-14
2.50000000e+01 2.32141148e-12 1.51791424e-14 0.00000000e+00 2.30623234e-12 0.00000000e+00 1.51791424e-14
2.75422870e+01 1.91683539e-12 1.13518661e-14 0.00000000e+00 1.90548353e-12 0.00000000e+00 1.13518661e-14
3.16227766e+01 1.40824560e-12 7.50010357e-15 0.00000000e+00 1.40074550e-12 0.00000000e+00 7.50010357e-15
3.63078055e+01 9.82271111e-13 4.95526929e-15 0.00000000e+00 9.77315842e-13 0.00000000e+00 4.95526929e-15
4.16869383e+01 6.41807006e-13 3.27391395e-15 0.00000000e+00 6.38533092e-13 0.00000000e+00 3.27391395e-15
4.78630092e+01 3.94145483e-13 2.16305350e-15 0.00000000e+00 3.91982429e-13 0.00000000e+00 2.16305350e-15
5.49540874e+01 2.30448754e-13 1.42911527e-15 0.00000000e+00 2.29019639e-13 0.00000000e+00 1.42911527e-15
6.30957344e+01 1.29981173e-13 9.44207098e-16 0.00000000e+00 1.29036966e-13 0.00000000e+00 9.44207098e-16
7.24435960e+01 7.14231837e-14 6.23831443e-16 0.00000000e+00 7.07993523e-14 0.00000000e+00 6.23831443e-16
8.31763771e+01 3.85626933e-14 4.12161347e-16 0.00000000e+00 3.81505319e-14 0.00000000e+00 4.12161347e-16
9.54992586e+01 2.05970893e-14 2.72312302e-16 0.00000000e+00 2.03247770e-14 0.00000000e+00 2.72312302e-16
1.09647820e+02 1.09282065e-14 1.79914953e-16 0.00000000e+00 1.07482915e-14 0.00000000e+00 1.79914953e-16
1.25892541e+02 5.84260994e-15 1.18868631e-16 0.00000000e+00 5.72374131e-15 0.00000000e+00 1.18868631e-16
1.44543977e+02 3.12699438e-15 7.85357256e-17 0.00000000e+00 3.04845865e-15 0.00000000e+00 7.85357256e-17
1.65958691e+02 1.60246717e-15 5.18880394e-17 0.00000000e+00 1.55057913e-15 0.00000000e+00 5.18880394e-17
1.90546072e+02 8.27092801e-16 3.42820876e-17 0.00000000e+00 7.92810713e-16 0.00000000e+00 3.42820876e-17
2.18776162e+02 4.28851786e-16 2.26499507e-17 0.00000000e+00 4.06201835e-16 0.00000000e+00 2.26499507e-17
2.51188643e+02 2.22965908e-16 1.49646740e-17 0.00000000e+00 2.08001234e-16 0.00000000e+00 1.49646740e-17
2.88403150e+02 1.16155165e-16 9.88706207e-18 0.00000000e+00 1.06268103e-16 0.00000000e+00 9.88706207e-18
3.31131121e+02 6.07835877e-17 6.53231713e-18 0.00000000e+00 5.42512706e-17 0.00000000e+00 6.53231713e-18
3.80189396e+02 3.19514714e-17 4.31585913e-18 0.00000000e+00 2.76356123e-17 0.00000000e+00 4.31585913e-18
4.36515832e+02 1.69139934e-17 2.85145985e-18 0.00000000e+00 1.40625336e-17 0.00000000e+00 2.85145985e-18
5.01187234e+02 9.02858348e-18 1.88394084e-18 0.00000000e+00 7.14464264e-18 0.00000000e+00 1.88394084e-18
5.75439937e+02 4.87012292e-18 1.24470737e-18 0.00000000e+00 3.62541555e-18 0.00000000e+00 1.24470737e-18
6.60693448e+02 2.66000746e-18 8.22370004e-19 0.00000000e+00 1.83763746e-18 0.00000000e+00 8.22370004e-19
7.58577575e+02 1.47388680e-18 5.43334473e-19 0.00000000e+00 9.30552322e-19 0.00000000e+00 5.43334473e-19
8.70963590e+02 8.29673722e-19 3.58977527e-19 0.00000000e+00 4.70696196e-19 0.00000000e+00 3.58977527e-19
1.00000000e+03 2.37828269e-19 0.00000000e+00 0.00000000e+00 2.37828269e-19 0.00000000e+00 0.00000000e+00
