# column 1: lambda (micron)
# column 2: total flux; lambda*F_lambda (W/m2)
# column 3: direct stellar flux; lambda*F_lambda (W/m2)
# column 4: scattered stellar flux; lambda*F_lambda (W/m2)
# column 5: total dust emission flux; lambda*F_lambda (W/m2)
# column 6: dust emission scattered flux; lambda*F_lambda (W/m2)
# column 7: transparent flux; lambda*F_lambda (W/m2)
1.00000000e-03 8.46259081e-13 8.46258685e-13 3.96471369e-19 0.00000000e+00 0.00000000e+00 8.46529401e-13
1.14815362e-03 9.98754582e-13 9.98753990e-13 5.92335499e-19 0.00000000e+00 0.00000000e+00 9.99176121e-13
1.31825674e-03 1.17871565e-12 1.17871475e-12 9.04687724e-19 0.00000000e+00 0.00000000e+00 1.17934819e-12
1.51356125e-03 1.39112894e-12 1.39112757e-12 1.36723216e-18 0.00000000e+00 0.00000000e+00 1.39200901e-12
1.73780083e-03 1.64196837e-12 1.64196583e-12 2.53284026e-18 0.00000000e+00 0.00000000e+00 1.64301696e-12
1.99526231e-03 1.93764655e-12 1.93764208e-12 4.46963543e-18 0.00000000e+00 0.00000000e+00 1.93928682e-12
2.29086765e-03 2.28692843e-12 2.28692168e-12 6.75367975e-18 0.00000000e+00 0.00000000e+00 2.28898025e-12
2.63026799e-03 2.69883224e-12 2.69881915e-12 1.30870045e-17 0.00000000e+00 0.00000000e+00 2.70173063e-12
3.01995172e-03 3.18468758e-12 3.18465878e-12 2.88050698e-17 0.00000000e+00 0.00000000e+00 3.18890841e-12
3.46736850e-03 3.75805856e-12 3.75802298e-12 3.55735036e-17 0.00000000e+00 0.00000000e+00 3.76393440e-12
3.98107171e-03 4.43471954e-12 4.43466362e-12 5.59202507e-17 0.00000000e+00 0.00000000e+00 4.44264945e-12
4.57088190e-03 5.23759879e-12 5.23746147e-12 1.37321733e-16 0.00000000e+00 0.00000000e+00 5.24375082e-12
5.24807460e-03 6.18010889e-12 6.17982737e-12 2.81520962e-16 0.00000000e+00 0.00000000e+00 6.18930730e-12
6.02559586e-03 7.29641532e-12 7.29187770e-12 4.53761906e-15 0.00000000e+00 0.00000000e+00 7.30536713e-12
6.91830971e-03 8.60832488e-12 8.60430225e-12 4.02262621e-15 0.00000000e+00 0.00000000e+00 8.62267558e-12
7.94328235e-03 1.01630167e-11 1.01533302e-11 9.68653313e-15 2.69688096e-303 1.06723161e-305 1.01775219e-11
9.12010839e-03 1.19895593e-11 1.19810570e-11 8.50234522e-15 1.23572472e-264 1.61457965e-266 1.20127391e-11
1.04712855e-02 1.33910575e-11 1.33789467e-11 1.21107653e-14 5.34518121e-231 2.62464787e-233 1.34165878e-11
1.20226443e-02 1.33894156e-11 1.33767285e-11 1.26871475e-14 8.64051519e-202 8.59598661e-204 1.34165878e-11
1.38038426e-02 1.33909038e-11 1.33740979e-11 1.68058707e-14 2.42123433e-176 3.68640350e-178 1.34165878e-11
1.58489319e-02 1.33885092e-11 1.33708659e-11 1.76432720e-14 3.32700817e-154 3.84573384e-156 1.34165878e-11
1.81970086e-02 1.33872672e-11 1.33678856e-11 1.93815939e-14 6.05392478e-135 9.08625616e-137 1.34165878e-11
2.08929613e-02 1.33897430e-11 1.33654088e-11 2.43341592e-14 3.21597235e-118 5.72810236e-120 1.34165878e-11
2.39883292e-02 1.33934085e-11 1.33622005e-11 3.12080125e-14 1.14615325e-103 2.51651427e-105 1.34165878e-11
2.75422870e-02 1.33941097e-11 1.33584696e-11 3.56401286e-14 5.19389936e-91 1.30436266e-92 1.34165878e-11
3.16227766e-02 1.33966281e-11 1.33548135e-11 4.18146542e-14 5.12110197e-80 1.45500925e-81 1.34165878e-11
3.63078055e-02 1.34001772e-11 1.33519465e-11 4.82306637e-14 1.79518592e-70 5.83618807e-72 1.34165878e-11
4.16869383e-02 1.34127322e-11 1.33494673e-11 6.32649175e-14 3.45144326e-62 1.41058208e-63 1.34165878e-11
4.78630092e-02 1.34227121e-11 1.33426358e-11 8.00762532e-14 5.27310523e-55 2.73999046e-56 1.34165878e-11
5.49540874e-02 1.34271240e-11 1.33331411e-11 9.39828343e-14 8.83850762e-49 5.38478050e-50 1.34165878e-11
6.30957344e-02 1.34224317e-11 1.33093629e-11 1.13068722e-13 2.87150121e-43 2.01452982e-44 1.34165878e-11
7.24435960e-02 1.33917350e-11 1.32812522e-11 1.10482797e-13 1.66059308e-38 1.10911140e-39 1.34165878e-11
8.31763771e-02 1.33938317e-11 1.32837513e-11 1.10080434e-13 1.70702321e-34 1.13280261e-35 1.34165878e-11
9.54992586e-02 1.34021963e-11 1.32910835e-11 1.11112803e-13 4.82329385e-31 3.23231377e-32 1.34165878e-11
1.09647820e-01 1.28280242e-11 1.27130977e-11 1.14926515e-13 4.13106257e-28 3.05069099e-29 1.28127470e-11
1.25892541e-01 1.19868278e-11 1.18809467e-11 1.05881106e-13 1.34345693e-25 9.61699088e-27 1.19575512e-11
1.44543977e-01 1.11920573e-11 1.11001476e-11 9.19097107e-14 1.83437761e-23 1.25981667e-24 1.11594361e-11
1.65958691e-01 1.04610139e-11 1.03661856e-11 9.48283072e-14 9.32884078e-22 6.99274872e-23 1.04145917e-11
1.90546072e-01 9.77840790e-12 9.67127487e-12 1.07133003e-13 1.97091471e-20 1.71829367e-21 9.71946251e-12
2.18776162e-01 9.12329677e-12 9.01800015e-12 1.05296379e-13 2.33694688e-19 2.14327069e-20 9.07073019e-12
2.51188643e-01 8.54490792e-12 8.42591938e-12 1.18985676e-13 2.85849802e-18 3.16145173e-19 8.46529796e-12
2.88403150e-01 7.97873572e-12 7.86975217e-12 1.08959724e-13 2.38280714e-17 2.59394280e-18 7.90027573e-12
3.31131121e-01 7.44635528e-12 7.34812805e-12 9.80905922e-14 1.36638131e-16 1.43912877e-17 7.37296631e-12
3.80189396e-01 6.95176361e-12 6.86049239e-12 9.07016507e-14 5.69569937e-16 5.83285916e-17 6.88085251e-12
4.36515832e-01 6.49058014e-12 6.40504503e-12 8.37300241e-14 1.80508563e-15 1.82895903e-16 6.42158520e-12
5.01187234e-01 6.06081043e-12 5.97971701e-12 7.65680141e-14 4.52540503e-15 4.62397658e-16 5.99297201e-12
5.75439937e-01 5.66530422e-12 5.58245425e-12 7.34843209e-14 9.36564748e-15 9.49330331e-16 5.59296690e-12
6.60693448e-01 5.29405057e-12 5.21139497e-12 6.58744227e-14 1.67811767e-14 1.73015787e-15 5.21966041e-12
7.58577575e-01 4.95322077e-12 4.86485098e-12 6.08584740e-14 2.75113180e-14 2.90305060e-15 4.87127053e-12
8.70963590e-01 4.64055338e-12 4.54125876e-12 5.59095536e-14 4.33850671e-14 4.88383232e-15 4.54613417e-12
1.00000000e+00 4.35770985e-12 4.23905643e-12 5.04914883e-14 6.81619371e-14 8.17743413e-15 4.24269927e-12
1.14815362e+00 4.11013963e-12 3.95684385e-12 4.23098216e-14 1.10985960e-13 1.37298505e-14 3.95951734e-12
1.31825674e+00 3.91398355e-12 3.69330862e-12 3.51233422e-14 1.85551586e-13 2.24313971e-14 3.69523659e-12
1.51356125e+00 3.78278025e-12 3.44721916e-12 2.91110112e-14 3.06450077e-13 3.46309986e-14 3.44859544e-12
1.73780083e+00 3.71750550e-12 3.21745005e-12 2.28287459e-14 4.77226704e-13 4.71740705e-14 3.21841652e-12
1.99526231e+00 3.70706216e-12 3.00293302e-12 1.70590578e-14 6.87070076e-13 5.64119786e-14 3.00360106e-12
2.29086765e+00 3.71876376e-12 2.80266329e-12 1.20813698e-14 9.04019098e-13 5.73110105e-14 2.80312361e-12
2.63026799e+00 3.71960816e-12 2.61570700e-12 8.19733246e-15 1.09570383e-12 5.18128945e-14 2.61602716e-12
3.01995172e+00 3.67741541e-12 2.44119306e-12 5.28953560e-15 1.23093281e-12 4.05177404e-14 2.44141860e-12
3.46736850e+00 3.57766000e-12 2.27830293e-12 3.33059331e-15 1.29602648e-12 2.88007128e-14 2.27846441e-12
3.98107171e+00 3.41186229e-12 2.12626962e-12 2.08096505e-15 1.28351170e-12 1.86478563e-14 2.12638671e-12
4.57088190e+00 3.19649649e-12 1.98437348e-12 1.19919991e-15 1.21092381e-12 1.12471810e-14 1.98445954e-12
5.24807460e+00 2.74548523e-12 1.64078671e-12 6.19171044e-16 1.10407934e-12 6.38871868e-15 1.64084388e-12
6.02559586e+00 2.07461159e-12 1.08406341e-12 2.45561895e-16 9.90302618e-13 3.41315449e-15 1.08409480e-12
6.70000000e+00 1.68830648e-12 7.88554517e-13 1.16392078e-16 8.99635571e-13 2.02172460e-15 7.88574724e-13
6.92422916e+00 1.58564310e-12 7.14401279e-13 9.27938964e-17 8.71149025e-13 1.71078414e-15 7.14418944e-13
7.15596261e+00 1.50015457e-12 6.47220882e-13 7.08948232e-17 8.52862796e-13 1.42486396e-15 6.47236606e-13
7.39545150e+00 1.44450085e-12 5.86357357e-13 5.63234050e-17 8.58087166e-13 1.21184189e-15 5.86371942e-13
7.64295536e+00 1.46237919e-12 5.31215798e-13 4.02951849e-17 9.31123097e-13 1.06415256e-15 5.31230854e-13
7.89874245e+00 1.58868282e-12 4.81257485e-13 2.81241305e-17 1.10739721e-12 9.58033529e-16 4.81275108e-13
8.16308998e+00 1.79984599e-12 4.35995530e-13 1.92750642e-17 1.36383119e-12 8.73889697e-16 4.36017088e-13
8.43628443e+00 2.11470686e-12 3.94987895e-13 1.17046420e-17 1.71970726e-12 7.49529693e-16 3.95015029e-13
8.71862190e+00 2.32515894e-12 3.57838506e-13 6.99910402e-18 1.96731343e-12 5.82980719e-16 3.57868711e-13
9.01040836e+00 2.54505614e-12 3.24182399e-13 3.25484342e-18 2.22087049e-12 3.56954432e-16 3.24215549e-13
9.31196005e+00 2.71087270e-12 2.93692221e-13 0.00000000e+00 2.41718048e-12 0.00000000e+00 2.93727053e-13
9.62360379e+00 2.66780753e-12 2.66073238e-13 0.00000000e+00 2.40173429e-12 0.00000000e+00 2.66105627e-13
9.94567731e+00 2.47683829e-12 2.41054124e-13 0.00000000e+00 2.23578417e-12 0.00000000e+00 2.41081657e-13
1.02785297e+01 2.24228574e-12 2.18388319e-13 0.00000000e+00 2.02389742e-12 0.00000000e+00 2.18410884e-13
1.06225216e+01 2.02054605e-12 1.97853724e-13 0.00000000e+00 1.82269233e-12 0.00000000e+00 1.97872020e-13
1.09780260e+01 1.77573233e-12 1.79250284e-13 0.00000000e+00 1.59648204e-12 0.00000000e+00 1.79264583e-13
1.13454280e+01 1.56352947e-12 1.62395728e-13 0.00000000e+00 1.40113374e-12 0.00000000e+00 1.62406948e-13
1.17251259e+01 1.38336312e-12 1.47125705e-13 0.00000000e+00 1.23623741e-12 0.00000000e+00 1.47134567e-13
1.21175312e+01 1.22200104e-12 1.33291403e-13 0.00000000e+00 1.08870964e-12 0.00000000e+00 1.33298366e-13
1.25230691e+01 1.07946689e-12 1.20757834e-13 0.00000000e+00 9.58709060e-13 0.00000000e+00 1.20763289e-13
1.29421791e+01 9.57082757e-13 1.09402679e-13 0.00000000e+00 8.47680078e-13 0.00000000e+00 1.09406983e-13
1.33753155e+01 8.56051866e-13 9.91151781e-14 0.00000000e+00 7.56936688e-13 0.00000000e+00 9.91185987e-14
1.38229477e+01 7.88563250e-13 8.97948666e-14 0.00000000e+00 6.98768384e-13 0.00000000e+00 8.97977103e-14
1.42855609e+01 7.47759964e-13 8.13508656e-14 0.00000000e+00 6.66409098e-13 0.00000000e+00 8.13533371e-14
1.47636563e+01 7.50790644e-13 7.37007080e-14 0.00000000e+00 6.77089936e-13 0.00000000e+00 7.37030537e-14
1.52577522e+01 7.64312835e-13 6.67699191e-14 0.00000000e+00 6.97542916e-13 0.00000000e+00 6.67721855e-14
1.57683840e+01 7.85973537e-13 6.04908626e-14 0.00000000e+00 7.25482674e-13 0.00000000e+00 6.04930805e-14
1.62961051e+01 8.10680365e-13 5.48022804e-14 0.00000000e+00 7.55878085e-13 0.00000000e+00 5.48044484e-14
1.68414875e+01 8.34537018e-13 4.96486479e-14 0.00000000e+00 7.84888370e-13 0.00000000e+00 4.96507622e-14
1.74051222e+01 8.47993614e-13 4.49797093e-14 0.00000000e+00 8.03013905e-13 0.00000000e+00 4.49817171e-14
1.79876201e+01 8.50218844e-13 4.07498637e-14 0.00000000e+00 8.09468981e-13 0.00000000e+00 4.07517384e-14
1.85896125e+01 8.35929012e-13 3.69178410e-14 0.00000000e+00 7.99011171e-13 0.00000000e+00 3.69195372e-14
1.92117518e+01 8.05612622e-13 3.34462177e-14 0.00000000e+00 7.72166404e-13 0.00000000e+00 3.34477076e-14
1.98547123e+01 7.66770721e-13 3.03010779e-14 0.00000000e+00 7.36469643e-13 0.00000000e+00 3.03023610e-14
2.05191907e+01 7.25599020e-13 2.74517017e-14 0.00000000e+00 6.98147318e-13 0.00000000e+00 2.74527957e-14
2.12059073e+01 6.86662190e-13 2.48702645e-14 0.00000000e+00 6.61791925e-13 0.00000000e+00 2.48711970e-14
2.19156062e+01 6.52017154e-13 2.25315673e-14 0.00000000e+00 6.29485586e-13 0.00000000e+00 2.25323660e-14
2.26490567e+01 6.19598744e-13 2.04127881e-14 0.00000000e+00 5.99185956e-13 0.00000000e+00 2.04134733e-14
2.34070535e+01 5.89890492e-13 1.84932476e-14 0.00000000e+00 5.71397244e-13 0.00000000e+00 1.84938366e-14
2.41904183e+01 5.62604002e-13 1.67542106e-14 0.00000000e+00 5.45849791e-13 0.00000000e+00 1.67547181e-14
2.50000000e+01 5.36863566e-13 1.51787041e-14 0.00000000e+00 5.21684862e-13 0.00000000e+00 1.51791424e-14
2.75422870e+01 4.65992543e-13 1.13515803e-14 0.00000000e+00 4.54640962e-13 0.00000000e+00 1.13518661e-14
3.16227766e+01 3.73594064e-13 7.49994654e-15 0.00000000e+00 3.66094117e-13 0.00000000e+00 7.50010357e-15
3.63078055e+01 2.85896553e-13 4.95518347e-15 0.00000000e+00 2.80941370e-13 0.00000000e+00 4.95526929e-15
4.16869383e+01 2.04866657e-13 3.27386829e-15 0.00000000e+00 2.01592789e-13 0.00000000e+00 3.27391395e-15
4.78630092e+01 1.37405786e-13 2.16302996e-15 0.00000000e+00 1.35242756e-13 0.00000000e+00 2.16305350e-15
5.49540874e+01 8.73429158e-14 1.42910340e-15 0.00000000e+00 8.59138124e-14 0.00000000e+00 1.42911527e-15
6.30957344e+01 5.32509907e-14 9.44201181e-16 0.00000000e+00 5.23067895e-14 0.00000000e+00 9.44207098e-16
7.24435960e+01 3.14064512e-14 6.23828517e-16 0.00000000e+00 3.07826226e-14 0.00000000e+00 6.23831443e-16
8.31763771e+01 1.80781322e-14 4.12159902e-16 0.00000000e+00 1.76659723e-14 0.00000000e+00 4.12161347e-16
9.54992586e+01 1.02286955e-14 2.72311586e-16 0.00000000e+00 9.95638389e-15 0.00000000e+00 2.72312302e-16
1.09647820e+02 5.71133998e-15 1.79914598e-16 0.00000000e+00 5.53142538e-15 0.00000000e+00 1.79914953e-16
1.25892541e+02 3.19363925e-15 1.18868452e-16 0.00000000e+00 3.07477079e-15 0.00000000e+00 1.18868631e-16
1.44543977e+02 1.77792561e-15 7.85356347e-17 0.00000000e+00 1.69938998e-15 0.00000000e+00 7.85357256e-17
1.65958691e+02 9.45380958e-16 5.18879948e-17 0.00000000e+00 8.93492964e-16 0.00000000e+00 5.18880394e-17
1.90546072e+02 5.04424216e-16 3.42820656e-17 0.00000000e+00 4.70142150e-16 0.00000000e+00 3.42820876e-17
2.18776162e+02 2.69552385e-16 2.26499397e-17 0.00000000e+00 2.46902446e-16 0.00000000e+00 2.26499507e-17
2.51188643e+02 1.44119747e-16 1.49646685e-17 0.00000000e+00 1.29155079e-16 0.00000000e+00 1.49646740e-17
2.88403150e+02 7.70996712e-17 9.88705933e-18 0.00000000e+00 6.72126119e-17 0.00000000e+00 9.88706207e-18
3.31131121e+02 4.13959511e-17 6.53231575e-18 0.00000000e+00 3.48636353e-17 0.00000000e+00 6.53231713e-18
3.80189396e+02 2.23216305e-17 4.31585844e-18 0.00000000e+00 1.80057720e-17 0.00000000e+00 4.31585913e-18
4.36515832e+02 1.21234429e-17 2.85145950e-18 0.00000000e+00 9.27198341e-18 0.00000000e+00 2.85145985e-18
5.01187234e+02 6.64338774e-18 1.88394067e-18 0.00000000e+00 4.75944707e-18 0.00000000e+00 1.88394084e-18
5.75439937e+02 3.68139246e-18 1.24470728e-18 0.00000000e+00 2.43668518e-18 0.00000000e+00 1.24470737e-18
6.60693448e+02 2.06702013e-18 8.22369960e-19 0.00000000e+00 1.24465017e-18 0.00000000e+00 8.22370004e-19
7.58577575e+02 1.17782286e-18 5.43334451e-19 0.00000000e+00 6.34488407e-19 0.00000000e+00 5.43334473e-19
8.70963590e+02 6.81776513e-19 3.58977515e-19 0.00000000e+00 3.22798997e-19 0.00000000e+00 3.58977527e-19
1.00000000e+03 1.63919024e-19 0.00000000e+00 0.00000000e+00 1.63919024e-19 0.00000000e+00 0.00000000e+00
