# column 1: lambda (micron)
# column 2: total flux; lambda*F_lambda (W/m2)
# column 3: direct stellar flux; lambda*F_lambda (W/m2)
# column 4: scattered stellar flux; lambda*F_lambda (W/m2)
# column 5: total dust emission flux; lambda*F_lambda (W/m2)
# column 6: dust emission scattered flux; lambda*F_lambda (W/m2)
# column 7: transparent flux; lambda*F_lambda (W/m2)
1.00000000e-03 6.93927024e-13 6.93926597e-13 4.27337430e-19 0.00000000e+00 0.00000000e+00 6.93993746e-13
1.14815362e-03 8.19031103e-13 8.19030429e-13 6.74179785e-19 0.00000000e+00 0.00000000e+00 8.19135139e-13
1.31825674e-03 9.66686009e-13 9.66684975e-13 1.03385655e-18 0.00000000e+00 0.00000000e+00 9.66842108e-13
1.51356125e-03 1.14096657e-12 1.14096503e-12 1.53386711e-18 0.00000000e+00 0.00000000e+00 1.14118369e-12
1.73780083e-03 1.34670470e-12 1.34670191e-12 2.79508986e-18 0.00000000e+00 0.00000000e+00 1.34696266e-12
1.99526231e-03 1.58944451e-12 1.58943978e-12 4.73176721e-18 0.00000000e+00 0.00000000e+00 1.58984782e-12
2.29086765e-03 1.87602701e-12 1.87601948e-12 7.53765521e-18 0.00000000e+00 0.00000000e+00 1.87653019e-12
2.63026799e-03 2.21419986e-12 2.21418495e-12 1.49078616e-17 0.00000000e+00 0.00000000e+00 2.21490731e-12
3.01995172e-03 2.61327125e-12 2.61324634e-12 2.49090386e-17 0.00000000e+00 0.00000000e+00 2.61430080e-12
3.46736850e-03 3.08428708e-12 3.08424626e-12 4.08149400e-17 0.00000000e+00 0.00000000e+00 3.08571319e-12
3.98107171e-03 3.64021260e-12 3.64014911e-12 6.34953568e-17 0.00000000e+00 0.00000000e+00 3.64213095e-12
4.57088190e-03 4.29747340e-12 4.29732181e-12 1.51588168e-16 0.00000000e+00 0.00000000e+00 4.29888232e-12
5.24807460e-03 5.07197510e-12 5.07170709e-12 2.68009780e-16 0.00000000e+00 0.00000000e+00 5.07405951e-12
6.02559586e-03 5.98615185e-12 5.98566942e-12 4.82433194e-16 0.00000000e+00 0.00000000e+00 5.98901715e-12
6.91830971e-03 7.06514511e-12 7.06440028e-12 7.44822965e-16 0.00000000e+00 0.00000000e+00 7.06896053e-12
7.94328235e-03 8.33888368e-12 8.33763510e-12 1.24857763e-15 1.19890249e-303 1.15406162e-306 8.34363998e-12
9.12010839e-03 9.84226708e-12 9.84030558e-12 1.96149952e-15 5.24965955e-265 9.13776147e-268 9.84817045e-12
1.04712855e-02 1.09924764e-11 1.09897157e-11 2.76061495e-15 2.21424383e-231 3.37606540e-234 1.09990604e-11
1.20226443e-02 1.09940327e-11 1.09891645e-11 4.86822018e-15 3.46593461e-202 9.87409852e-205 1.09990604e-11
1.38038426e-02 1.09940634e-11 1.09885107e-11 5.55277761e-15 9.42913416e-177 3.06194674e-179 1.09990604e-11
1.58489319e-02 1.09973316e-11 1.09877072e-11 9.62438994e-15 1.27517417e-154 6.22184509e-157 1.09990604e-11
1.81970086e-02 1.09974589e-11 1.09869663e-11 1.04926895e-14 2.27374268e-135 1.43500204e-137 1.09990604e-11
2.08929613e-02 1.10044845e-11 1.09863504e-11 1.81341249e-14 1.18841141e-118 1.07223897e-120 1.09990604e-11
2.39883292e-02 1.10080237e-11 1.09855525e-11 2.24712202e-14 4.17536817e-104 5.32129473e-106 1.09990604e-11
2.75422870e-02 1.10125234e-11 1.09846244e-11 2.78989552e-14 1.87098341e-91 3.07729485e-93 1.09990604e-11
3.16227766e-02 1.10182724e-11 1.09837148e-11 3.45575406e-14 1.82420964e-80 3.48915550e-82 1.09990604e-11
3.63078055e-02 1.10216875e-11 1.09830014e-11 3.86860989e-14 6.33361528e-71 1.43536963e-72 1.09990604e-11
4.16869383e-02 1.10391859e-11 1.09823844e-11 5.68014255e-14 1.20854598e-62 3.74767923e-64 1.09990604e-11
4.78630092e-02 1.10541439e-11 1.09806839e-11 7.34599627e-14 1.83399742e-55 7.53112571e-57 1.09990604e-11
5.49540874e-02 1.10658187e-11 1.09783194e-11 8.74992753e-14 3.05994456e-49 1.52755121e-50 1.09990604e-11
6.30957344e-02 1.10769749e-11 1.09723927e-11 1.04582280e-13 9.93779695e-44 5.90563402e-45 1.09990604e-11
7.24435960e-02 1.10653161e-11 1.09653765e-11 9.99396576e-14 5.76948964e-39 3.40853434e-40 1.09990604e-11
8.31763771e-02 1.10701291e-11 1.09660006e-11 1.04128414e-13 5.90590235e-35 3.47529661e-36 1.09990604e-11
9.54992586e-02 1.10701976e-11 1.09678315e-11 1.02366174e-13 1.66323359e-31 1.01108224e-32 1.09990604e-11
1.09647820e-01 1.05817911e-11 1.04792435e-11 1.02547599e-13 1.40839221e-28 9.03665351e-30 1.05040253e-11
1.25892541e-01 9.87787773e-12 9.78388516e-12 9.39925694e-14 4.54140420e-26 2.74203427e-27 9.80292679e-12
1.44543977e-01 9.21721504e-12 9.13389185e-12 8.33231842e-14 6.17036508e-24 3.60132815e-25 9.14862359e-12
1.65958691e-01 8.61184145e-12 8.52596739e-12 8.58740627e-14 3.12539781e-22 2.01955157e-23 8.53799231e-12
1.90546072e-01 8.05190307e-12 7.95614609e-12 9.57569751e-14 6.60193416e-21 5.11672040e-22 7.96811805e-12
2.18776162e-01 7.51410975e-12 7.42317602e-12 9.09336480e-14 7.83844338e-20 6.46824315e-21 7.43628044e-12
2.51188643e-01 7.03604000e-12 6.93015835e-12 1.05880692e-13 9.51494543e-19 9.49594302e-20 6.93994070e-12
2.88403150e-01 6.56881954e-12 6.46914899e-12 9.96626413e-14 7.90140441e-18 7.71420273e-19 6.47672950e-12
3.31131121e-01 6.12703109e-12 6.03826817e-12 8.87177604e-14 4.51644721e-17 4.24079665e-18 6.04443567e-12
3.80189396e-01 5.71752306e-12 5.63594075e-12 8.13939555e-14 1.88350177e-16 1.75718118e-17 5.64099558e-12
4.36515832e-01 5.33498793e-12 5.26037749e-12 7.40152793e-14 5.95154760e-16 5.41823138e-17 5.26448339e-12
5.01187234e-01 4.97838013e-12 4.90981179e-12 6.70747798e-14 1.49355527e-15 1.37680776e-16 4.91310176e-12
5.75439937e-01 4.64968708e-12 4.58256435e-12 6.39996607e-14 3.12307536e-15 2.94446230e-16 4.58517335e-12
6.60693448e-01 4.34102988e-12 4.27708166e-12 5.82118759e-14 5.73634084e-15 5.70325927e-16 4.27913275e-12
7.58577575e-01 4.05492456e-12 3.99192617e-12 5.30589153e-14 9.93948025e-15 1.05855424e-15 3.99351904e-12
8.70963590e-01 3.79132096e-12 3.72575920e-12 4.82833424e-14 1.72784227e-14 2.06036208e-15 3.72696882e-12
1.00000000e+00 3.55001320e-12 3.47730593e-12 4.19496951e-14 3.07575726e-14 3.96558850e-15 3.47820968e-12
1.14815362e+00 3.33857705e-12 3.24539092e-12 3.63184341e-14 5.68676941e-14 7.44481366e-15 3.24605414e-12
1.31825674e+00 3.16415144e-12 3.02891574e-12 2.98288883e-14 1.05406812e-13 1.30875546e-14 3.02939399e-12
1.51356125e+00 3.03900447e-12 2.82685359e-12 2.45237091e-14 1.87627174e-13 2.10834665e-14 2.82719497e-12
1.73780083e+00 2.96695996e-12 2.63825214e-12 1.97118240e-14 3.08995997e-13 2.97846748e-14 2.63849186e-12
1.99526231e+00 2.94117669e-12 2.46221818e-12 1.45750069e-14 4.64383497e-13 3.64201934e-14 2.46238388e-12
2.29086765e+00 2.94317258e-12 2.29791617e-12 1.02855803e-14 6.34970822e-13 3.82047290e-14 2.29803035e-12
2.63026799e+00 2.95170565e-12 2.14456730e-12 7.07345507e-15 8.00064894e-13 3.49687158e-14 2.14464670e-12
3.01995172e+00 2.93829905e-12 2.00144482e-12 4.75355621e-15 9.32100675e-13 2.87151476e-14 2.00150076e-12
3.46736850e+00 2.88946701e-12 1.86786914e-12 2.91194864e-15 1.01868592e-12 2.15263745e-14 1.86790919e-12
3.98107171e+00 2.79246044e-12 1.74320525e-12 1.83369839e-15 1.04742149e-12 1.45822394e-14 1.74323429e-12
4.57088190e+00 2.65349186e-12 1.62685955e-12 1.11764880e-15 1.02551465e-12 9.17498725e-15 1.62688090e-12
5.24807460e+00 2.31504274e-12 1.34516697e-12 5.61061007e-16 9.69314717e-13 5.41674524e-15 1.34518114e-12
6.02559586e+00 1.78738623e-12 8.88744585e-13 2.34782642e-16 8.98406862e-13 3.04057212e-15 8.88752369e-13
6.70000000e+00 1.48274845e-12 6.46476878e-13 1.10962535e-16 8.36160612e-13 1.85434533e-15 6.46481889e-13
6.92422916e+00 1.40144683e-12 5.85683817e-13 8.96797668e-17 8.15673336e-13 1.56700483e-15 5.85688198e-13
7.15596261e+00 1.33341144e-12 5.30607507e-13 7.00579362e-17 8.02733872e-13 1.33660914e-15 5.30611407e-13
7.39545150e+00 1.28996900e-12 4.80710295e-13 5.26526326e-17 8.09206048e-13 1.14001558e-15 4.80713913e-13
7.64295536e+00 1.30789492e-12 4.35504932e-13 3.85335351e-17 8.72351450e-13 9.87285371e-16 4.35508666e-13
7.89874245e+00 1.41675242e-12 3.94550047e-13 2.66827990e-17 1.02217569e-12 8.74567264e-16 3.94554418e-13
8.16308998e+00 1.60129297e-12 3.57446068e-13 1.72893071e-17 1.24382961e-12 7.70191721e-16 3.57451415e-13
8.43628443e+00 1.87547417e-12 3.23830764e-13 1.03637219e-17 1.55163304e-12 6.46655362e-16 3.23837494e-13
8.71862190e+00 2.06263185e-12 2.93377058e-13 6.50345007e-18 1.76924829e-12 4.98469462e-16 2.93384550e-13
9.01040836e+00 2.26162052e-12 2.65787110e-13 3.10694389e-18 1.99583030e-12 3.09630432e-16 2.65795332e-13
9.31196005e+00 2.42363541e-12 2.40791902e-13 0.00000000e+00 2.18284350e-12 0.00000000e+00 2.40800541e-13
9.62360379e+00 2.39475432e-12 2.18148171e-13 0.00000000e+00 2.17660615e-12 0.00000000e+00 2.18156204e-13
9.94567731e+00 2.24337448e-12 1.97634460e-13 0.00000000e+00 2.04574002e-12 0.00000000e+00 1.97641289e-13
1.02785297e+01 2.05156387e-12 1.79049953e-13 0.00000000e+00 1.87251392e-12 0.00000000e+00 1.79055550e-13
1.06225216e+01 1.85970956e-12 1.62213034e-13 0.00000000e+00 1.69749652e-12 0.00000000e+00 1.62217572e-13
1.09780260e+01 1.65325916e-12 1.46959453e-13 0.00000000e+00 1.50629971e-12 0.00000000e+00 1.46962999e-13
1.13454280e+01 1.47415189e-12 1.33140149e-13 0.00000000e+00 1.34101174e-12 0.00000000e+00 1.33142932e-13
1.17251259e+01 1.31902682e-12 1.20620274e-13 0.00000000e+00 1.19840655e-12 0.00000000e+00 1.20622472e-13
1.21175312e+01 1.17776925e-12 1.09277682e-13 0.00000000e+00 1.06849156e-12 0.00000000e+00 1.09279408e-13
1.25230691e+01 1.05120893e-12 9.90016674e-14 0.00000000e+00 9.52207265e-13 0.00000000e+00 9.90030204e-14
1.29421791e+01 9.44107995e-13 8.96919332e-14 0.00000000e+00 8.54416062e-13 0.00000000e+00 8.96930008e-14
1.33753155e+01 8.53631299e-13 8.12576259e-14 0.00000000e+00 7.72373673e-13 0.00000000e+00 8.12584743e-14
1.38229477e+01 7.93608394e-13 7.36164062e-14 0.00000000e+00 7.19991988e-13 0.00000000e+00 7.36171115e-14
1.42855609e+01 7.59726512e-13 6.66937122e-14 0.00000000e+00 6.93032799e-13 0.00000000e+00 6.66943252e-14
1.47636563e+01 7.66704299e-13 6.04219602e-14 0.00000000e+00 7.06282339e-13 0.00000000e+00 6.04225420e-14
1.52577522e+01 7.85896124e-13 5.47399810e-14 0.00000000e+00 7.31156143e-13 0.00000000e+00 5.47405431e-14
1.57683840e+01 8.12611251e-13 4.95923164e-14 0.00000000e+00 7.63018935e-13 0.00000000e+00 4.95928665e-14
1.62961051e+01 8.42445473e-13 4.49287280e-14 0.00000000e+00 7.97516745e-13 0.00000000e+00 4.49292657e-14
1.68414875e+01 8.73026300e-13 4.07036950e-14 0.00000000e+00 8.32322605e-13 0.00000000e+00 4.07042194e-14
1.74051222e+01 8.89684810e-13 3.68759889e-14 0.00000000e+00 8.52808822e-13 0.00000000e+00 3.68764869e-14
1.79876201e+01 8.98698800e-13 3.34082407e-14 0.00000000e+00 8.65290560e-13 0.00000000e+00 3.34087056e-14
1.85896125e+01 8.89039500e-13 3.02666060e-14 0.00000000e+00 8.58772894e-13 0.00000000e+00 3.02670267e-14
1.92117518e+01 8.65672138e-13 2.74204145e-14 0.00000000e+00 8.38251723e-13 0.00000000e+00 2.74207841e-14
1.98547123e+01 8.31493804e-13 2.48418774e-14 0.00000000e+00 8.06651927e-13 0.00000000e+00 2.48421957e-14
2.05191907e+01 7.94232406e-13 2.25058206e-14 0.00000000e+00 7.71726585e-13 0.00000000e+00 2.25060919e-14
2.12059073e+01 7.57758335e-13 2.03894388e-14 0.00000000e+00 7.37368896e-13 0.00000000e+00 2.03896700e-14
2.19156062e+01 7.26665138e-13 1.84720736e-14 0.00000000e+00 7.08193064e-13 0.00000000e+00 1.84722717e-14
2.26490567e+01 6.96880557e-13 1.67350111e-14 0.00000000e+00 6.80145546e-13 0.00000000e+00 1.67351811e-14
2.34070535e+01 6.69239200e-13 1.51612965e-14 0.00000000e+00 6.54077904e-13 0.00000000e+00 1.51614426e-14
2.41904183e+01 6.43390603e-13 1.37355690e-14 0.00000000e+00 6.29655034e-13 0.00000000e+00 1.37356949e-14
2.50000000e+01 6.18730489e-13 1.24439126e-14 0.00000000e+00 6.06286577e-13 0.00000000e+00 1.24440213e-14
2.75422870e+01 5.48600122e-13 9.30630889e-15 0.00000000e+00 5.39293813e-13 0.00000000e+00 9.30637977e-15
3.16227766e+01 4.52332646e-13 6.14862519e-15 0.00000000e+00 4.46184021e-13 0.00000000e+00 6.14866414e-15
3.63078055e+01 3.54514611e-13 4.06236083e-15 0.00000000e+00 3.50452250e-13 0.00000000e+00 4.06238211e-15
4.16869383e+01 2.59628895e-13 2.68397792e-15 0.00000000e+00 2.56944917e-13 0.00000000e+00 2.68398924e-15
4.78630092e+01 1.77525752e-13 1.77328827e-15 0.00000000e+00 1.75752463e-13 0.00000000e+00 1.77329411e-15
5.49540874e+01 1.14679677e-13 1.17160085e-15 0.00000000e+00 1.13508076e-13 0.00000000e+00 1.17160380e-15
6.30957344e+01 7.08586546e-14 7.74069486e-16 0.00000000e+00 7.00845851e-14 0.00000000e+00 7.74070953e-16
7.24435960e+01 4.22256009e-14 5.11422882e-16 0.00000000e+00 4.17141780e-14 0.00000000e+00 5.11423607e-16
8.31763771e+01 2.44930137e-14 3.37893868e-16 0.00000000e+00 2.41551198e-14 0.00000000e+00 3.37894226e-16
9.54992586e+01 1.39365072e-14 2.23244324e-16 0.00000000e+00 1.37132628e-14 0.00000000e+00 2.23244502e-16
1.09647820e+02 7.81081879e-15 1.47496091e-16 0.00000000e+00 7.66332269e-15 0.00000000e+00 1.47496179e-16
1.25892541e+02 4.37586125e-15 9.74497150e-17 0.00000000e+00 4.27841153e-15 0.00000000e+00 9.74497594e-17
1.44543977e+02 2.43703385e-15 6.43843950e-17 0.00000000e+00 2.37264945e-15 0.00000000e+00 6.43844175e-17
1.65958691e+02 1.29425421e-15 4.25383518e-17 0.00000000e+00 1.25171586e-15 0.00000000e+00 4.25383628e-17
1.90546072e+02 6.88441362e-16 2.81048121e-17 0.00000000e+00 6.60336549e-16 0.00000000e+00 2.81048176e-17
2.18776162e+02 3.66070850e-16 1.85686661e-17 0.00000000e+00 3.47502184e-16 0.00000000e+00 1.85686688e-17
2.51188643e+02 1.94357601e-16 1.22681965e-17 0.00000000e+00 1.82089405e-16 0.00000000e+00 1.22681978e-17
2.88403150e+02 1.02994369e-16 8.10551725e-18 0.00000000e+00 9.48888522e-17 0.00000000e+00 8.10551794e-18
3.31131121e+02 5.46307144e-17 5.35526225e-18 0.00000000e+00 4.92754522e-17 0.00000000e+00 5.35526259e-18
3.80189396e+02 2.90109171e-17 3.53818674e-18 0.00000000e+00 2.54727303e-17 0.00000000e+00 3.53818691e-18
4.36515832e+02 1.54649110e-17 2.33765682e-18 0.00000000e+00 1.31272542e-17 0.00000000e+00 2.33765691e-18
5.01187234e+02 8.28728924e-18 1.54447456e-18 0.00000000e+00 6.74281468e-18 0.00000000e+00 1.54447460e-18
5.75439937e+02 4.47440929e-18 1.02042423e-18 0.00000000e+00 3.45398506e-18 0.00000000e+00 1.02042425e-18
6.60693448e+02 2.43928092e-18 6.74187606e-19 0.00000000e+00 1.76509332e-18 0.00000000e+00 6.74187617e-19
7.58577575e+02 1.34557403e-18 4.45431335e-19 0.00000000e+00 9.00142693e-19 0.00000000e+00 4.45431341e-19
8.70963590e+02 7.52394396e-19 2.94293566e-19 0.00000000e+00 4.58100831e-19 0.00000000e+00 2.94293569e-19
1.00000000e+03 2.32690123e-19 0.00000000e+00 0.00000000e+00 2.32690123e-19 0.00000000e+00 0.00000000e+00
