# column 1: lambda (micron)
# column 2: total flux; lambda*F_lambda (W/m2)
# column 3: direct stellar flux; lambda*F_lambda (W/m2)
# column 4: scattered stellar flux; lambda*F_lambda (W/m2)
# column 5: total dust emission flux; lambda*F_lambda (W/m2)
# column 6: dust emission scattered flux; lambda*F_lambda (W/m2)
# column 7: transparent flux; lambda*F_lambda (W/m2)
1.00000000e-03 9.67755923e-13 9.67755842e-13 8.14776214e-20 0.00000000e+00 0.00000000e+00 9.68073281e-13
1.14815362e-03 1.14214201e-12 1.14214188e-12 1.22979675e-19 0.00000000e+00 0.00000000e+00 1.14263687e-12
1.31825674e-03 1.34793529e-12 1.34793511e-12 1.88395630e-19 0.00000000e+00 0.00000000e+00 1.34867788e-12
1.51356125e-03 1.59083907e-12 1.59083877e-12 3.02905738e-19 0.00000000e+00 0.00000000e+00 1.59187233e-12
1.73780083e-03 1.87768772e-12 1.87768722e-12 4.99337974e-19 0.00000000e+00 0.00000000e+00 1.87891976e-12
1.99526231e-03 2.21580009e-12 2.21579917e-12 9.23243390e-19 0.00000000e+00 0.00000000e+00 2.21772777e-12
2.29086765e-03 2.61521750e-12 2.61521600e-12 1.50215049e-18 0.00000000e+00 0.00000000e+00 2.61762985e-12
2.63026799e-03 3.08627798e-12 3.08622858e-12 4.93986657e-17 0.00000000e+00 0.00000000e+00 3.08964252e-12
3.01995172e-03 3.64196669e-12 3.64178581e-12 1.80885115e-16 0.00000000e+00 0.00000000e+00 3.64676883e-12
3.46736850e-03 4.29760441e-12 4.29742493e-12 1.79477734e-16 0.00000000e+00 0.00000000e+00 4.30435650e-12
3.98107171e-03 5.07215899e-12 5.07115687e-12 1.00211955e-15 0.00000000e+00 0.00000000e+00 5.08052080e-12
4.57088190e-03 6.03536000e-12 5.98926878e-12 4.60912194e-14 0.00000000e+00 0.00000000e+00 5.99664354e-12
5.24807460e-03 7.08052402e-12 7.06684620e-12 1.36778277e-14 0.00000000e+00 0.00000000e+00 7.07796211e-12
6.02559586e-03 8.34473312e-12 8.33844746e-12 6.28566418e-15 0.00000000e+00 0.00000000e+00 8.35426474e-12
6.91830971e-03 9.87644586e-12 9.83916717e-12 3.72786883e-14 0.00000000e+00 0.00000000e+00 9.86071107e-12
7.94328235e-03 1.16377344e-11 1.16104345e-11 2.72998448e-14 1.19429685e-303 7.68323952e-307 1.16388008e-11
9.12010839e-03 1.37288048e-11 1.37003676e-11 2.84371738e-14 5.59651595e-265 8.74735339e-268 1.37375167e-11
1.04712855e-02 1.53347562e-11 1.52987924e-11 3.59638674e-14 2.50469134e-231 4.10890248e-234 1.53429287e-11
1.20226443e-02 1.53288316e-11 1.52961915e-11 3.26401013e-14 4.12479351e-202 9.76496279e-205 1.53429287e-11
1.38038426e-02 1.53291040e-11 1.52931072e-11 3.59968225e-14 1.17336657e-176 3.13388387e-179 1.53429287e-11
1.58489319e-02 1.53273473e-11 1.52893176e-11 3.80296462e-14 1.64975154e-154 7.01089860e-157 1.53429287e-11
1.81970086e-02 1.53254947e-11 1.52858232e-11 3.96714090e-14 3.04016540e-135 1.44464352e-137 1.53429287e-11
2.08929613e-02 1.53252770e-11 1.52829193e-11 4.23577643e-14 1.63383133e-118 9.43566137e-121 1.53429287e-11
2.39883292e-02 1.53230437e-11 1.52791575e-11 4.38861725e-14 5.88301701e-104 4.94078882e-106 1.53429287e-11
2.75422870e-02 1.53193931e-11 1.52747832e-11 4.46098931e-14 2.69032698e-91 2.72512247e-93 1.53429287e-11
3.16227766e-02 1.53162696e-11 1.52704965e-11 4.57730899e-14 2.67351923e-80 3.32371828e-82 1.53429287e-11
3.63078055e-02 1.53131758e-11 1.52671351e-11 4.60406918e-14 9.42696138e-71 1.36759283e-72 1.53429287e-11
4.16869383e-02 1.53143937e-11 1.52642284e-11 5.01653480e-14 1.82049184e-62 3.68242924e-64 1.53429287e-11
4.78630092e-02 1.53107225e-11 1.52562189e-11 5.45036091e-14 2.79186142e-55 7.88366778e-57 1.53429287e-11
5.49540874e-02 1.53047372e-11 1.52450871e-11 5.96500592e-14 4.70506952e-49 1.71049445e-50 1.53429287e-11
6.30957344e-02 1.52849697e-11 1.52172100e-11 6.77597505e-14 1.54378376e-43 7.26174701e-45 1.53429287e-11
7.24435960e-02 1.52541133e-11 1.51842550e-11 6.98582770e-14 9.04836073e-39 4.38515625e-40 1.53429287e-11
8.31763771e-02 1.52524294e-11 1.51871847e-11 6.52447010e-14 9.33247161e-35 4.50137934e-36 1.53429287e-11
9.54992586e-02 1.52623204e-11 1.51957803e-11 6.65401071e-14 2.64716306e-31 1.34028518e-32 1.53429287e-11
1.09647820e-01 1.45971055e-11 1.45355521e-11 6.15534079e-14 2.25215682e-28 1.18421790e-29 1.46523889e-11
1.25892541e-01 1.36390390e-11 1.35845861e-11 5.44528608e-14 7.29673990e-26 3.51208622e-27 1.36744049e-11
1.44543977e-01 1.27372115e-11 1.26921805e-11 4.50310629e-14 9.95016234e-24 4.47940892e-25 1.27616972e-11
1.65958691e-01 1.18951288e-11 1.18531514e-11 4.19773801e-14 5.05510424e-22 2.54916842e-23 1.19099088e-11
1.90546072e-01 1.11061703e-11 1.10584726e-11 4.76977476e-14 1.07137858e-20 6.82849412e-22 1.11149736e-11
2.18776162e-01 1.03587046e-11 1.03112705e-11 4.74340262e-14 1.27915133e-19 9.16735260e-21 1.03730969e-11
2.51188643e-01 9.68466740e-12 9.63456490e-12 5.01009471e-14 1.55769093e-18 1.39289274e-19 9.68073733e-12
2.88403150e-01 9.04318495e-12 8.99879970e-12 4.43723206e-14 1.29306153e-17 1.09416837e-18 9.03458975e-12
3.31131121e-01 8.44034353e-12 8.40244576e-12 3.78238434e-14 7.39311936e-17 5.85797798e-18 8.43156974e-12
3.80189396e-01 7.87836501e-12 7.84492543e-12 3.31312949e-14 3.08294332e-16 2.37770064e-17 7.86879872e-12
4.36515832e-01 7.35627572e-12 7.32419595e-12 3.11037108e-14 9.76067555e-16 7.44947003e-17 7.34359025e-12
5.01187234e-01 6.86678036e-12 6.83789487e-12 2.64454362e-14 2.44005302e-15 1.87634737e-16 6.85343719e-12
5.75439937e-01 6.41228843e-12 6.38367293e-12 2.35901607e-14 5.02533692e-15 3.91408520e-16 6.39599973e-12
6.60693448e-01 5.98939973e-12 5.95940242e-12 2.11645088e-14 8.83279945e-15 6.98040781e-16 5.96909425e-12
7.58577575e-01 5.59634249e-12 5.56315547e-12 1.93503517e-14 1.38366681e-14 1.09553339e-15 5.57068288e-12
8.70963590e-01 5.23004192e-12 5.19314695e-12 1.69734482e-14 1.99215199e-14 1.56951685e-15 5.19886376e-12
1.00000000e+00 4.88993723e-12 4.84759043e-12 1.52343053e-14 2.71124896e-14 2.11784712e-15 4.85186196e-12
1.14815362e+00 4.57417618e-12 4.52488615e-12 1.24516721e-14 3.68383631e-14 2.70853623e-15 4.52802104e-12
1.31825674e+00 4.28567425e-12 4.22353440e-12 1.01666230e-14 5.19732244e-14 3.64291153e-15 4.22579511e-12
1.51356125e+00 4.02648262e-12 3.94212765e-12 8.40795628e-15 7.59470114e-14 4.93295343e-15 3.94374146e-12
1.73780083e+00 3.79734238e-12 3.67938040e-12 6.62402761e-15 1.11337945e-13 6.36663489e-15 3.68051368e-12
1.99526231e+00 3.59634192e-12 3.43407189e-12 4.82545302e-15 1.57444581e-13 7.59689721e-15 3.43485522e-12
2.29086765e+00 3.41847965e-12 3.20505364e-12 3.24951491e-15 2.10176490e-13 7.95389088e-15 3.20559341e-12
2.63026799e+00 3.25489462e-12 2.99125842e-12 2.25743312e-15 2.61378765e-13 7.44833765e-15 2.99163384e-12
3.01995172e+00 3.09570716e-12 2.79169068e-12 1.43771933e-15 3.02578759e-13 6.14636845e-15 2.79195514e-12
3.46736850e+00 2.93440168e-12 2.60541480e-12 9.18094508e-16 3.28068782e-13 4.59160152e-15 2.60560415e-12
3.98107171e+00 2.76568327e-12 2.43155398e-12 5.44572926e-16 3.33584716e-13 3.11134892e-15 2.43169128e-12
4.57088190e+00 2.59017906e-12 2.26928543e-12 3.29118210e-16 3.20564508e-13 1.93228753e-15 2.26938634e-12
5.24807460e+00 2.17192460e-12 1.87636764e-12 1.66756170e-16 2.95390201e-13 1.10831642e-15 1.87643467e-12
6.02559586e+00 1.50466135e-12 1.23971129e-12 6.64651879e-17 2.64883599e-13 5.93286783e-16 1.23974809e-12
6.70000000e+00 1.14147520e-12 9.01773833e-13 3.34031457e-17 2.39667965e-13 3.55272627e-16 9.01797527e-13
6.92422916e+00 1.04865420e-12 8.16973818e-13 2.57221902e-17 2.31654660e-13 2.96055873e-16 8.16994532e-13
7.15596261e+00 9.66444327e-13 7.40147780e-13 1.96724746e-17 2.26276875e-13 2.48388913e-16 7.40166218e-13
7.39545150e+00 8.98051298e-13 6.70545561e-13 1.61907260e-17 2.27489546e-13 2.09342485e-16 6.70562664e-13
7.64295536e+00 8.54827154e-13 6.07486817e-13 1.08418030e-17 2.47329496e-13 1.82538909e-16 6.07504471e-13
7.89874245e+00 8.47036961e-13 5.50355463e-13 7.81133098e-18 2.96673687e-13 1.63972366e-16 5.50376127e-13
8.16308998e+00 8.69457853e-13 4.98594725e-13 5.27544003e-18 3.70857853e-13 1.48577902e-16 4.98620004e-13
8.43628443e+00 9.28262845e-13 4.51699091e-13 3.32446620e-18 4.76560429e-13 1.26139871e-16 4.51730909e-13
8.71862190e+00 9.62207624e-13 4.09215739e-13 2.05108501e-18 5.52989834e-13 1.01923421e-16 4.09251158e-13
9.01040836e+00 1.00607062e-12 3.70727235e-13 1.13799948e-18 6.35342244e-13 7.00964829e-17 3.70766106e-13
9.31196005e+00 1.03579614e-12 3.35859258e-13 0.00000000e+00 6.99936882e-13 0.00000000e+00 3.35900102e-13
9.62360379e+00 1.00161651e-12 3.04274839e-13 0.00000000e+00 6.97341667e-13 0.00000000e+00 3.04312818e-13
9.94567731e+00 9.20351037e-13 2.75663646e-13 0.00000000e+00 6.44687391e-13 0.00000000e+00 2.75695930e-13
1.02785297e+01 8.27508552e-13 2.49743650e-13 0.00000000e+00 5.77764902e-13 0.00000000e+00 2.49770110e-13
1.06225216e+01 7.39816470e-13 2.26260841e-13 0.00000000e+00 5.13555629e-13 0.00000000e+00 2.26282295e-13
1.09780260e+01 6.47822518e-13 2.04986453e-13 0.00000000e+00 4.42836065e-13 0.00000000e+00 2.05003220e-13
1.13454280e+01 5.68955771e-13 1.85712025e-13 0.00000000e+00 3.83243746e-13 0.00000000e+00 1.85725182e-13
1.17251259e+01 5.01659243e-13 1.68249616e-13 0.00000000e+00 3.33409627e-13 0.00000000e+00 1.68260007e-13
1.21175312e+01 4.41761983e-13 1.52429053e-13 0.00000000e+00 2.89332930e-13 0.00000000e+00 1.52437217e-13
1.25230691e+01 3.89076707e-13 1.38095970e-13 0.00000000e+00 2.50980737e-13 0.00000000e+00 1.38102367e-13
1.29421791e+01 3.44005179e-13 1.25110486e-13 0.00000000e+00 2.18894693e-13 0.00000000e+00 1.25115533e-13
1.33753155e+01 3.06076430e-13 1.13345941e-13 0.00000000e+00 1.92730489e-13 0.00000000e+00 1.13349952e-13
1.38229477e+01 2.78670565e-13 1.02687445e-13 0.00000000e+00 1.75983120e-13 0.00000000e+00 1.02690779e-13
1.42855609e+01 2.59457499e-13 9.30310732e-14 0.00000000e+00 1.66426426e-13 0.00000000e+00 9.30339713e-14
1.47636563e+01 2.52866354e-13 8.42825170e-14 0.00000000e+00 1.68583837e-13 0.00000000e+00 8.42852675e-14
1.52577522e+01 2.49694866e-13 7.63566143e-14 0.00000000e+00 1.73338252e-13 0.00000000e+00 7.63592720e-14
1.57683840e+01 2.49352294e-13 6.91760183e-14 0.00000000e+00 1.80176276e-13 0.00000000e+00 6.91786191e-14
1.62961051e+01 2.49899159e-13 6.26706764e-14 0.00000000e+00 1.87228482e-13 0.00000000e+00 6.26732185e-14
1.68414875e+01 2.51071607e-13 5.67770918e-14 0.00000000e+00 1.94294515e-13 0.00000000e+00 5.67795711e-14
1.74051222e+01 2.49327857e-13 5.14377946e-14 0.00000000e+00 1.97890062e-13 0.00000000e+00 5.14401489e-14
1.79876201e+01 2.45469940e-13 4.66006357e-14 0.00000000e+00 1.98869305e-13 0.00000000e+00 4.66028339e-14
1.85896125e+01 2.37252992e-13 4.22184200e-14 0.00000000e+00 1.95034571e-13 0.00000000e+00 4.22204090e-14
1.92117518e+01 2.25623120e-13 3.82483504e-14 0.00000000e+00 1.87374769e-13 0.00000000e+00 3.82500974e-14
1.98547123e+01 2.12093223e-13 3.46516404e-14 0.00000000e+00 1.77441582e-13 0.00000000e+00 3.46531450e-14
2.05191907e+01 1.98317804e-13 3.13931590e-14 0.00000000e+00 1.66924645e-13 0.00000000e+00 3.13944418e-14
2.12059073e+01 1.85497324e-13 2.84410862e-14 0.00000000e+00 1.57056237e-13 0.00000000e+00 2.84421796e-14
2.19156062e+01 1.74341812e-13 2.57666049e-14 0.00000000e+00 1.48575207e-13 0.00000000e+00 2.57675415e-14
2.26490567e+01 1.64267988e-13 2.33436168e-14 0.00000000e+00 1.40924371e-13 0.00000000e+00 2.33444203e-14
2.34070535e+01 1.55093114e-13 2.11484733e-14 0.00000000e+00 1.33944640e-13 0.00000000e+00 2.11491639e-14
2.41904183e+01 1.46756419e-13 1.91597494e-14 0.00000000e+00 1.27596670e-13 0.00000000e+00 1.91603445e-14
2.50000000e+01 1.39258432e-13 1.73580352e-14 0.00000000e+00 1.21900397e-13 0.00000000e+00 1.73585491e-14
2.75422870e+01 1.19506720e-13 1.29814210e-14 0.00000000e+00 1.06525299e-13 0.00000000e+00 1.29817562e-14
3.16227766e+01 9.60950647e-14 8.57677712e-15 0.00000000e+00 8.75182876e-14 0.00000000e+00 8.57696126e-15
3.63078055e+01 7.51569797e-14 5.66664147e-15 0.00000000e+00 6.94903382e-14 0.00000000e+00 5.66674211e-15
4.16869383e+01 5.59552860e-14 3.74392584e-15 0.00000000e+00 5.22113601e-14 0.00000000e+00 3.74397938e-15
4.78630092e+01 3.93890200e-14 2.47359504e-15 0.00000000e+00 3.69154250e-14 0.00000000e+00 2.47362265e-15
5.49540874e+01 2.64229983e-14 1.63429235e-15 0.00000000e+00 2.47887060e-14 0.00000000e+00 1.63430628e-15
6.30957344e+01 1.70296787e-14 1.07976851e-15 0.00000000e+00 1.59499102e-14 0.00000000e+00 1.07977545e-15
7.24435960e+01 1.06096380e-14 7.13397133e-16 0.00000000e+00 9.89624085e-15 0.00000000e+00 7.13400564e-16
8.31763771e+01 6.43628616e-15 4.71337384e-16 0.00000000e+00 5.96494877e-15 0.00000000e+00 4.71339078e-16
9.54992586e+01 3.82525852e-15 3.11409802e-16 0.00000000e+00 3.51384872e-15 0.00000000e+00 3.11410641e-16
1.09647820e+02 2.23670010e-15 2.05746554e-16 0.00000000e+00 2.03095354e-15 0.00000000e+00 2.05746970e-16
1.25892541e+02 1.30423742e-15 1.35935465e-16 0.00000000e+00 1.16830196e-15 0.00000000e+00 1.35935675e-16
1.44543977e+02 7.54992261e-16 8.98117033e-17 0.00000000e+00 6.65180558e-16 0.00000000e+00 8.98118099e-17
1.65958691e+02 4.18554695e-16 5.93380221e-17 0.00000000e+00 3.59216673e-16 0.00000000e+00 5.93380743e-17
1.90546072e+02 2.32598335e-16 3.92042510e-17 0.00000000e+00 1.93394084e-16 0.00000000e+00 3.92042769e-17
2.18776162e+02 1.29479162e-16 2.59019960e-17 0.00000000e+00 1.03577166e-16 0.00000000e+00 2.59020089e-17
2.51188643e+02 7.22155674e-17 1.71132811e-17 0.00000000e+00 5.51022863e-17 0.00000000e+00 1.71132876e-17
2.88403150e+02 4.03996651e-17 1.13066337e-17 0.00000000e+00 2.90930314e-17 0.00000000e+00 1.13066370e-17
3.31131121e+02 2.27496850e-17 7.47021935e-18 0.00000000e+00 1.52794657e-17 0.00000000e+00 7.47022097e-18
3.80189396e+02 1.29116976e-17 4.93552524e-18 0.00000000e+00 7.97617239e-18 0.00000000e+00 4.93552605e-18
4.36515832e+02 7.40608335e-18 3.26086932e-18 0.00000000e+00 4.14521403e-18 0.00000000e+00 3.26086972e-18
5.01187234e+02 4.29914042e-18 2.15443506e-18 0.00000000e+00 2.14470537e-18 0.00000000e+00 2.15443526e-18
5.75439937e+02 2.52895090e-18 1.42342116e-18 0.00000000e+00 1.10552974e-18 0.00000000e+00 1.42342126e-18
6.60693448e+02 1.50847482e-18 9.40445049e-19 0.00000000e+00 5.68029770e-19 0.00000000e+00 9.40445101e-19
7.58577575e+02 9.12384254e-19 6.21345890e-19 0.00000000e+00 2.91038363e-19 0.00000000e+00 6.21345916e-19
8.70963590e+02 5.59236001e-19 4.10519163e-19 0.00000000e+00 1.48716838e-19 0.00000000e+00 4.10519176e-19
1.00000000e+03 7.58056473e-20 0.00000000e+00 0.00000000e+00 7.58056473e-20 0.00000000e+00 0.00000000e+00
