# column 1: lambda (micron)
# column 2: total flux; lambda*F_lambda (W/m2)
# column 3: direct stellar flux; lambda*F_lambda (W/m2)
# column 4: scattered stellar flux; lambda*F_lambda (W/m2)
# column 5: total dust emission flux; lambda*F_lambda (W/m2)
# column 6: dust emission scattered flux; lambda*F_lambda (W/m2)
# column 7: transparent flux; lambda*F_lambda (W/m2)
1.00000000e-03 1.07336052e-12 1.07335627e-12 4.24682430e-18 0.00000000e+00 0.00000000e+00 1.07335627e-12
1.14815362e-03 1.26691116e-12 1.26690456e-12 6.60181725e-18 0.00000000e+00 0.00000000e+00 1.26690456e-12
1.31825674e-03 1.49536354e-12 1.49535359e-12 9.94720023e-18 0.00000000e+00 0.00000000e+00 1.49535359e-12
1.51356125e-03 1.76501180e-12 1.76499670e-12 1.51037445e-17 0.00000000e+00 0.00000000e+00 1.76499670e-12
1.73780083e-03 2.08328858e-12 2.08326203e-12 2.65522257e-17 0.00000000e+00 0.00000000e+00 2.08326203e-12
1.99526231e-03 2.45896246e-12 2.45891716e-12 4.52986521e-17 0.00000000e+00 0.00000000e+00 2.45891716e-12
2.29086765e-03 2.90238140e-12 2.90231066e-12 7.07309559e-17 0.00000000e+00 0.00000000e+00 2.90231066e-12
2.63026799e-03 3.42579596e-12 3.42565717e-12 1.38793157e-16 0.00000000e+00 0.00000000e+00 3.42565717e-12
3.01995172e-03 4.04359724e-12 4.04337385e-12 2.23392685e-16 0.00000000e+00 0.00000000e+00 4.04337385e-12
3.46736850e-03 4.77283839e-12 4.77247759e-12 3.60800600e-16 0.00000000e+00 0.00000000e+00 4.77247759e-12
3.98107171e-03 5.63362451e-12 5.63305378e-12 5.70728054e-16 0.00000000e+00 0.00000000e+00 5.63305378e-12
4.57088190e-03 6.65046613e-12 6.64880962e-12 1.65650664e-15 0.00000000e+00 0.00000000e+00 6.64880962e-12
5.24807460e-03 7.85012825e-12 7.84772720e-12 2.40105269e-15 0.00000000e+00 0.00000000e+00 7.84772720e-12
6.02559586e-03 9.26753133e-12 9.26283435e-12 4.69697285e-15 0.00000000e+00 0.00000000e+00 9.26283435e-12
6.91830971e-03 1.09395413e-11 1.09331145e-11 6.42672315e-15 0.00000000e+00 0.00000000e+00 1.09331145e-11
7.94328235e-03 1.29183262e-11 1.29045807e-11 1.37454658e-14 0.00000000e+00 0.00000000e+00 1.29045807e-11
9.12010839e-03 1.52525570e-11 1.52315429e-11 2.10141054e-14 0.00000000e+00 0.00000000e+00 1.52315429e-11
1.04712855e-02 1.70349246e-11 1.70115517e-11 2.33728563e-14 0.00000000e+00 0.00000000e+00 1.70115517e-11
1.20226443e-02 1.70560313e-11 1.70115517e-11 4.44795870e-14 0.00000000e+00 0.00000000e+00 1.70115517e-11
1.38038426e-02 1.70652710e-11 1.70115517e-11 5.37192681e-14 3.22856297e-295 2.01737938e-295 1.70115517e-11
1.58489319e-02 1.70955681e-11 1.70115517e-11 8.40164271e-14 6.54228350e-258 3.29182442e-258 1.70115517e-11
1.81970086e-02 1.71245561e-11 1.70115517e-11 1.13004406e-13 2.57479131e-225 1.35012477e-225 1.70115517e-11
2.08929613e-02 1.71595431e-11 1.70115517e-11 1.47991418e-13 5.60750828e-197 2.96971454e-197 1.70115517e-11
2.39883292e-02 1.72015669e-11 1.70115517e-11 1.90015225e-13 2.24996574e-172 1.08733574e-172 1.70115517e-11
2.75422870e-02 1.72594047e-11 1.70115517e-11 2.47853021e-13 6.39436276e-151 3.20339196e-151 1.70115517e-11
3.16227766e-02 1.73178197e-11 1.70115517e-11 3.06267972e-13 2.86469223e-132 1.43893337e-132 1.70115517e-11
3.63078055e-02 1.73584648e-11 1.70115517e-11 3.46913115e-13 4.66353399e-116 2.27423518e-116 1.70115517e-11
4.16869383e-02 1.74719263e-11 1.70115517e-11 4.60374612e-13 6.24790112e-102 3.16824735e-102 1.70115517e-11
4.78630092e-02 1.76098600e-11 1.70115517e-11 5.98308246e-13 1.11941125e-89 5.97620786e-90 1.70115517e-11
5.49540874e-02 1.77130688e-11 1.70115517e-11 7.01517115e-13 4.82846488e-79 2.58986394e-79 1.70115517e-11
6.30957344e-02 1.78074587e-11 1.70115517e-11 7.95906957e-13 1.05089445e-69 5.77218250e-70 1.70115517e-11
7.24435960e-02 1.77642724e-11 1.70115517e-11 7.52720658e-13 1.29363874e-61 6.54519085e-62 1.70115517e-11
8.31763771e-02 1.77308068e-11 1.70115517e-11 7.19255042e-13 1.34002164e-54 6.25654112e-55 1.70115517e-11
9.54992586e-02 1.77487678e-11 1.70115517e-11 7.37216103e-13 1.68285692e-48 7.35769226e-49 1.70115517e-11
1.09647820e-01 1.69982760e-11 1.62459122e-11 7.52363887e-13 3.34563949e-43 1.40057651e-43 1.62459122e-11
1.25892541e-01 1.58424893e-11 1.51615674e-11 6.80921929e-13 1.27801511e-38 4.99187594e-39 1.51615674e-11
1.44543977e-01 1.47700234e-11 1.41495980e-11 6.20425380e-13 1.13484370e-34 4.01963112e-35 1.41495980e-11
1.65958691e-01 1.38278137e-11 1.32051732e-11 6.22640545e-13 2.36880725e-31 8.71703865e-32 1.32051732e-11
1.90546072e-01 1.29871097e-11 1.23237846e-11 6.63325009e-13 1.26079493e-28 5.06900417e-29 1.23237846e-11
2.18776162e-01 1.21205845e-11 1.15012250e-11 6.19359511e-13 2.41107074e-26 9.49113786e-27 1.15012250e-11
2.51188643e-01 1.14163480e-11 1.07335677e-11 6.82780308e-13 4.55998738e-24 2.01503891e-24 1.07335677e-11
2.88403150e-01 1.06435492e-11 1.00171482e-11 6.26400979e-13 4.00635485e-22 1.74119995e-22 1.00171482e-11
3.31131121e-01 9.92346511e-12 9.34854667e-12 5.74918416e-13 1.88085265e-20 8.06261548e-21 9.34854667e-12
3.80189396e-01 9.25370217e-12 8.72457139e-12 5.29130284e-13 4.95317890e-19 2.06882547e-19 8.72457139e-12
4.36515832e-01 8.63139556e-12 8.14224377e-12 4.89143546e-13 8.24654344e-18 3.36895827e-18 8.14224377e-12
5.01187234e-01 8.04907834e-12 7.59878402e-12 4.50205157e-13 8.91632349e-17 3.56224834e-17 7.59878402e-12
5.75439937e-01 7.50563793e-12 7.09159786e-12 4.13373717e-13 6.66344594e-16 2.58911128e-16 7.09159786e-12
6.60693448e-01 6.99889078e-12 6.61826421e-12 3.77026193e-13 3.60037618e-15 1.35570906e-15 6.61826421e-12
7.58577575e-01 6.53356719e-12 6.17652353e-12 3.42155713e-13 1.48879390e-14 5.37029447e-15 6.17652353e-12
8.70963590e-01 6.11468087e-12 5.76426715e-12 3.00986980e-13 4.94267416e-14 1.67774795e-14 5.76426715e-12
1.00000000e+00 5.77880627e-12 5.37952711e-12 2.63738012e-13 1.35541151e-13 4.21401282e-14 5.37952711e-12
1.14815362e+00 5.56118493e-12 5.02046681e-12 2.21027081e-13 3.19691033e-13 8.90404372e-14 5.02046681e-12
1.31825674e+00 5.53024155e-12 4.68537225e-12 1.79675845e-13 6.65193454e-13 1.60568465e-13 4.68537225e-12
1.51356125e+00 5.74946631e-12 4.37264380e-12 1.43619383e-13 1.23320313e-12 2.49248388e-13 4.37264380e-12
1.73780083e+00 6.23386303e-12 4.08078863e-12 1.12490553e-13 2.04058384e-12 3.36686360e-13 4.08078863e-12
1.99526231e+00 6.91520456e-12 3.80841354e-12 8.46556538e-14 3.02213536e-12 3.87724147e-13 3.80841354e-12
2.29086765e+00 7.70531612e-12 3.55421832e-12 6.03826057e-14 4.09071520e-12 3.89785048e-13 3.55421832e-12
2.63026799e+00 8.48611288e-12 3.31698953e-12 4.10940109e-14 5.12802934e-12 3.50003096e-13 3.31698953e-12
3.01995172e+00 9.17007630e-12 3.09559474e-12 2.68860918e-14 6.04759546e-12 2.86009424e-13 3.09559474e-12
3.46736850e+00 9.72246639e-12 2.88897711e-12 1.70873341e-14 6.81640195e-12 2.17308093e-13 2.88897711e-12
3.98107171e+00 1.00771940e-11 2.69615031e-12 1.04996455e-14 7.37054408e-12 1.53736871e-13 2.69615031e-12
4.57088190e+00 1.02369910e-11 2.51619387e-12 6.26401953e-15 7.71453312e-12 1.02711950e-13 2.51619387e-12
5.24807460e+00 9.95214712e-12 2.08050667e-12 3.23865105e-15 7.86840180e-12 6.52723791e-14 2.08050667e-12
6.02559586e+00 9.23924650e-12 1.37457712e-12 1.28841135e-15 7.86338096e-12 3.93809173e-14 1.37457712e-12
6.70000000e+00 8.75274190e-12 9.99872685e-13 6.10831271e-16 7.75225839e-12 2.56328428e-14 9.99872685e-13
6.92422916e+00 8.60114883e-12 9.05846924e-13 4.78706731e-16 7.69482320e-12 2.22335585e-14 9.05846924e-13
7.15596261e+00 8.50621378e-12 8.20663132e-13 3.74784123e-16 7.68517586e-12 1.90576174e-14 8.20663132e-13
7.39545150e+00 8.53962234e-12 7.43489831e-13 2.83287165e-16 7.79584922e-12 1.64090995e-14 7.43489831e-13
7.64295536e+00 8.94679456e-12 6.73573732e-13 2.03729158e-16 8.27301710e-12 1.41366883e-14 6.73573732e-13
7.89874245e+00 9.92461646e-12 6.10232385e-13 1.36005069e-16 9.31424807e-12 1.21194888e-14 6.10232385e-13
8.16308998e+00 1.13852904e-11 5.52847515e-13 8.48213489e-17 1.08323580e-11 1.03611715e-14 5.52847515e-13
8.43628443e+00 1.34113718e-11 5.00858987e-13 4.69242874e-17 1.29104659e-11 8.22444785e-15 5.00858987e-13
8.71862190e+00 1.48855728e-11 4.53759343e-13 2.47932936e-17 1.44317887e-11 6.14605833e-15 4.53759343e-13
9.01040836e+00 1.64791811e-11 4.11088843e-13 9.55880115e-18 1.60680827e-11 3.58589773e-15 4.11088843e-13
9.31196005e+00 1.76995337e-11 3.72430980e-13 0.00000000e+00 1.73271027e-11 0.00000000e+00 3.72430980e-13
9.62360379e+00 1.79106994e-11 3.37408415e-13 0.00000000e+00 1.75732910e-11 0.00000000e+00 3.37408415e-13
9.94567731e+00 1.72631283e-11 3.05679292e-13 0.00000000e+00 1.69574490e-11 0.00000000e+00 3.05679292e-13
1.02785297e+01 1.63688070e-11 2.76933904e-13 0.00000000e+00 1.60918731e-11 0.00000000e+00 2.76933904e-13
1.06225216e+01 1.54068168e-11 2.50891667e-13 0.00000000e+00 1.51559251e-11 0.00000000e+00 2.50891667e-13
1.09780260e+01 1.42996513e-11 2.27298384e-13 0.00000000e+00 1.40723529e-11 0.00000000e+00 2.27298384e-13
1.13454280e+01 1.32587689e-11 2.05923759e-13 0.00000000e+00 1.30528452e-11 0.00000000e+00 2.05923759e-13
1.17251259e+01 1.23537042e-11 1.86559155e-13 0.00000000e+00 1.21671451e-11 0.00000000e+00 1.86559155e-13
1.21175312e+01 1.14690638e-11 1.69015555e-13 0.00000000e+00 1.13000482e-11 0.00000000e+00 1.69015555e-13
1.25230691e+01 1.06837138e-11 1.53121715e-13 0.00000000e+00 1.05305920e-11 0.00000000e+00 1.53121715e-13
1.29421791e+01 9.95357534e-12 1.38722496e-13 0.00000000e+00 9.81485285e-12 0.00000000e+00 1.38722496e-13
1.33753155e+01 9.32568040e-12 1.25677347e-13 0.00000000e+00 9.20000306e-12 0.00000000e+00 1.25677347e-13
1.38229477e+01 8.94932959e-12 1.13858934e-13 0.00000000e+00 8.83547066e-12 0.00000000e+00 1.13858934e-13
1.42855609e+01 8.79802735e-12 1.03151898e-13 0.00000000e+00 8.69487545e-12 0.00000000e+00 1.03151898e-13
1.47636563e+01 9.03145031e-12 9.34517274e-14 0.00000000e+00 8.93799858e-12 0.00000000e+00 9.34517274e-14
1.52577522e+01 9.39540445e-12 8.46637387e-14 0.00000000e+00 9.31074071e-12 0.00000000e+00 8.46637387e-14
1.57683840e+01 9.83928353e-12 7.67021526e-14 0.00000000e+00 9.76258138e-12 0.00000000e+00 7.67021526e-14
1.62961051e+01 1.03028932e-11 6.94892560e-14 0.00000000e+00 1.02334040e-11 0.00000000e+00 6.94892560e-14
1.68414875e+01 1.07280421e-11 6.29546439e-14 0.00000000e+00 1.06650875e-11 0.00000000e+00 6.29546439e-14
1.74051222e+01 1.10724775e-11 5.70345319e-14 0.00000000e+00 1.10154430e-11 0.00000000e+00 5.70345319e-14
1.79876201e+01 1.12542176e-11 5.16711337e-14 0.00000000e+00 1.12025465e-11 0.00000000e+00 5.16711337e-14
1.85896125e+01 1.13003136e-11 4.68120974e-14 0.00000000e+00 1.12535015e-11 0.00000000e+00 4.68120974e-14
1.92117518e+01 1.11210129e-11 4.24099939e-14 0.00000000e+00 1.10786029e-11 0.00000000e+00 4.24099939e-14
1.98547123e+01 1.08287234e-11 3.84218542e-14 0.00000000e+00 1.07903016e-11 0.00000000e+00 3.84218542e-14
2.05191907e+01 1.04798465e-11 3.48087501e-14 0.00000000e+00 1.04450378e-11 0.00000000e+00 3.48087501e-14
2.12059073e+01 1.01201516e-11 3.15354141e-14 0.00000000e+00 1.00886162e-11 0.00000000e+00 3.15354141e-14
2.19156062e+01 9.78192482e-12 2.85698952e-14 0.00000000e+00 9.75335492e-12 0.00000000e+00 2.85698952e-14
2.26490567e+01 9.43198127e-12 2.58832470e-14 0.00000000e+00 9.40609803e-12 0.00000000e+00 2.58832470e-14
2.34070535e+01 9.11768283e-12 2.34492452e-14 0.00000000e+00 9.09423359e-12 0.00000000e+00 2.34492452e-14
2.41904183e+01 8.78410558e-12 2.12441313e-14 0.00000000e+00 8.76286145e-12 0.00000000e+00 2.12441313e-14
2.50000000e+01 8.43153796e-12 1.92463813e-14 0.00000000e+00 8.41229158e-12 0.00000000e+00 1.92463813e-14
2.75422870e+01 7.42059598e-12 1.43935895e-14 0.00000000e+00 7.40620239e-12 0.00000000e+00 1.43935895e-14
3.16227766e+01 5.94486597e-12 9.50975027e-15 0.00000000e+00 5.93535622e-12 0.00000000e+00 9.50975027e-15
3.63078055e+01 4.46751032e-12 6.28302969e-15 0.00000000e+00 4.46122729e-12 0.00000000e+00 6.28302969e-15
4.16869383e+01 3.11890818e-12 4.15115655e-15 0.00000000e+00 3.11475702e-12 0.00000000e+00 4.15115655e-15
4.78630092e+01 2.02934718e-12 2.74264194e-15 0.00000000e+00 2.02660454e-12 0.00000000e+00 2.74264194e-15
5.49540874e+01 1.24857049e-12 1.81204556e-15 0.00000000e+00 1.24675845e-12 0.00000000e+00 1.81204556e-15
6.30957344e+01 7.35838657e-13 1.19720663e-15 0.00000000e+00 7.34641450e-13 0.00000000e+00 1.19720663e-15
7.24435960e+01 4.19473328e-13 7.90986575e-16 0.00000000e+00 4.18682342e-13 0.00000000e+00 7.90986575e-16
8.31763771e+01 2.33617887e-13 5.22599647e-16 0.00000000e+00 2.33095287e-13 0.00000000e+00 5.22599647e-16
9.54992586e+01 1.28040969e-13 3.45278163e-16 0.00000000e+00 1.27695690e-13 0.00000000e+00 3.45278163e-16
1.09647820e+02 6.93964557e-14 2.28123020e-16 0.00000000e+00 6.91683327e-14 0.00000000e+00 2.28123020e-16
1.25892541e+02 3.77311689e-14 1.50719385e-16 0.00000000e+00 3.75804495e-14 0.00000000e+00 1.50719385e-16
1.44543977e+02 2.04565276e-14 9.95793099e-17 0.00000000e+00 2.03569483e-14 0.00000000e+00 9.95793099e-17
1.65958691e+02 1.05795763e-14 6.57913976e-17 0.00000000e+00 1.05137849e-14 0.00000000e+00 6.57913976e-17
1.90546072e+02 5.48990990e-15 4.34679453e-17 0.00000000e+00 5.44644195e-15 0.00000000e+00 4.34679453e-17
2.18776162e+02 2.85021082e-15 2.87189867e-17 0.00000000e+00 2.82149183e-15 0.00000000e+00 2.87189867e-17
2.51188643e+02 1.47744656e-15 1.89744463e-17 0.00000000e+00 1.45847212e-15 0.00000000e+00 1.89744463e-17
2.88403150e+02 7.63722329e-16 1.25362924e-17 0.00000000e+00 7.51186037e-16 0.00000000e+00 1.25362924e-17
3.31131121e+02 3.94447067e-16 8.28264623e-18 0.00000000e+00 3.86164421e-16 0.00000000e+00 8.28264623e-18
3.80189396e+02 2.03360907e-16 5.47229010e-18 0.00000000e+00 1.97888617e-16 0.00000000e+00 5.47229010e-18
4.36515832e+02 1.04830210e-16 3.61550621e-18 0.00000000e+00 1.01214703e-16 0.00000000e+00 3.61550621e-18
5.01187234e+02 5.40390767e-17 2.38874127e-18 0.00000000e+00 5.16503354e-17 0.00000000e+00 2.38874127e-18
5.75439937e+02 2.78872526e-17 1.57822570e-18 0.00000000e+00 2.63090269e-17 0.00000000e+00 1.57822570e-18
6.60693448e+02 1.44220036e-17 1.04272338e-18 0.00000000e+00 1.33792802e-17 0.00000000e+00 1.04272338e-18
7.58577575e+02 7.48317941e-18 6.88920507e-19 0.00000000e+00 6.79425890e-18 0.00000000e+00 6.88920507e-19
8.70963590e+02 3.90027931e-18 4.55165265e-19 0.00000000e+00 3.44511405e-18 0.00000000e+00 4.55165265e-19
1.00000000e+03 1.74438956e-18 0.00000000e+00 0.00000000e+00 1.74438956e-18 0.00000000e+00 0.00000000e+00
