# column 1: lambda (micron)
# column 2: total flux; lambda*F_lambda (W/m2)
# column 3: direct stellar flux; lambda*F_lambda (W/m2)
# column 4: scattered stellar flux; lambda*F_lambda (W/m2)
# column 5: total dust emission flux; lambda*F_lambda (W/m2)
# column 6: dust emission scattered flux; lambda*F_lambda (W/m2)
# column 7: transparent flux; lambda*F_lambda (W/m2)
1.00000000e-03 1.04606830e-12 1.04606808e-12 2.21316220e-19 0.00000000e+00 0.00000000e+00 1.04634360e-12
1.14815362e-03 1.23459164e-12 1.23459132e-12 3.29445501e-19 0.00000000e+00 0.00000000e+00 1.23502095e-12
1.31825674e-03 1.45707650e-12 1.45707600e-12 5.02222125e-19 0.00000000e+00 0.00000000e+00 1.45772071e-12
1.51356125e-03 1.71968149e-12 1.71968072e-12 7.77319781e-19 0.00000000e+00 0.00000000e+00 1.72057784e-12
1.73780083e-03 2.02976513e-12 2.02976370e-12 1.43821523e-18 0.00000000e+00 0.00000000e+00 2.03083353e-12
1.99526231e-03 2.39536314e-12 2.39536068e-12 2.45879224e-18 0.00000000e+00 0.00000000e+00 2.39703472e-12
2.29086765e-03 2.82717804e-12 2.82717429e-12 3.74600548e-18 0.00000000e+00 0.00000000e+00 2.82926954e-12
2.63026799e-03 3.33648929e-12 3.33648183e-12 7.46460455e-18 0.00000000e+00 0.00000000e+00 3.33944522e-12
3.01995172e-03 3.93730362e-12 3.93729060e-12 1.30287640e-17 0.00000000e+00 0.00000000e+00 3.94161611e-12
3.46736850e-03 4.64637345e-12 4.64635373e-12 1.97248466e-17 0.00000000e+00 0.00000000e+00 4.65237083e-12
3.98107171e-03 5.48319248e-12 5.48316054e-12 3.19395726e-17 0.00000000e+00 0.00000000e+00 5.49128930e-12
4.57088190e-03 6.47515228e-12 6.47508049e-12 7.17861239e-17 0.00000000e+00 0.00000000e+00 6.48148207e-12
5.24807460e-03 7.64070972e-12 7.64057766e-12 1.32056649e-16 0.00000000e+00 0.00000000e+00 7.65022704e-12
6.02559586e-03 9.01623038e-12 9.01598992e-12 2.40460321e-16 0.00000000e+00 0.00000000e+00 9.02972084e-12
6.91830971e-03 1.06396993e-11 1.06392631e-11 4.36118120e-16 0.00000000e+00 0.00000000e+00 1.06579658e-11
7.94328235e-03 1.25618513e-11 1.25551911e-11 6.66018407e-15 9.81149326e-304 6.66750277e-307 1.25798170e-11
9.12010839e-03 1.48224482e-11 1.48159660e-11 6.48220110e-15 4.23447997e-265 3.45771458e-268 1.48482176e-11
1.04712855e-02 1.65529447e-11 1.65451115e-11 7.83317626e-15 1.76572850e-231 2.08641075e-234 1.65834298e-11
1.20226443e-02 1.65543398e-11 1.65428528e-11 1.14869533e-14 2.73209617e-202 3.88771240e-205 1.65834298e-11
1.38038426e-02 1.65545878e-11 1.65401742e-11 1.44136286e-14 7.36732408e-177 1.56154824e-179 1.65834298e-11
1.58489319e-02 1.65518918e-11 1.65368829e-11 1.50089585e-14 9.87715136e-155 2.96647910e-157 1.65834298e-11
1.81970086e-02 1.65507665e-11 1.65338479e-11 1.69186111e-14 1.74983812e-135 8.54462310e-138 1.65834298e-11
2.08929613e-02 1.65503299e-11 1.65313255e-11 1.90044181e-14 9.07632962e-119 5.46001987e-121 1.65834298e-11
2.39883292e-02 1.65524316e-11 1.65280580e-11 2.43736667e-14 3.16578465e-104 2.44673224e-106 1.65834298e-11
2.75422870e-02 1.65497145e-11 1.65242581e-11 2.54564840e-14 1.41013241e-91 1.41664879e-93 1.65834298e-11
3.16227766e-02 1.65499732e-11 1.65205342e-11 2.94390167e-14 1.36984460e-80 1.78842925e-82 1.65834298e-11
3.63078055e-02 1.65499268e-11 1.65176139e-11 3.23128789e-14 4.73279146e-71 7.18578512e-73 1.65834298e-11
4.16869383e-02 1.65558953e-11 1.65150886e-11 4.08066901e-14 8.98555161e-63 1.94497915e-64 1.65834298e-11
4.78630092e-02 1.65637840e-11 1.65081294e-11 5.56545795e-14 1.35828758e-55 4.15100765e-57 1.65834298e-11
5.49540874e-02 1.65679377e-11 1.64984563e-11 6.94814062e-14 2.26243333e-49 9.06271108e-51 1.65834298e-11
6.30957344e-02 1.65640367e-11 1.64742259e-11 8.98108223e-14 7.35522563e-44 3.85693991e-45 1.65834298e-11
7.24435960e-02 1.65342702e-11 1.64455707e-11 8.86994744e-14 4.27652061e-39 2.35381561e-40 1.65834298e-11
8.31763771e-02 1.65350310e-11 1.64481186e-11 8.69124782e-14 4.37144477e-35 2.40077558e-36 1.65834298e-11
9.54992586e-02 1.65476901e-11 1.64555936e-11 9.20965057e-14 1.23033710e-31 7.08346128e-33 1.65834298e-11
1.09647820e-01 1.58267270e-11 1.57355722e-11 9.11547486e-14 1.03906417e-28 6.19482205e-30 1.58370587e-11
1.25892541e-01 1.47805222e-11 1.47019958e-11 7.85264467e-14 3.33911656e-26 1.79024370e-27 1.47800032e-11
1.44543977e-01 1.38000726e-11 1.37331331e-11 6.69394446e-14 4.52467496e-24 2.25777168e-25 1.37935015e-11
1.65958691e-01 1.28933804e-11 1.28235597e-11 6.98206144e-14 2.28889620e-22 1.27612916e-23 1.28728446e-11
1.90546072e-01 1.20451752e-11 1.19645738e-11 8.06014295e-14 4.83821593e-21 3.38653088e-22 1.20136376e-11
2.18776162e-01 1.12434272e-11 1.11580861e-11 8.53410873e-14 5.78017300e-20 4.69671611e-21 1.12117790e-11
2.51188643e-01 1.05204167e-11 1.04233474e-11 9.70685620e-14 7.01404174e-19 6.92682906e-20 1.04634409e-11
2.88403150e-01 9.81891052e-12 9.73397571e-12 8.49290072e-14 5.80164528e-18 5.42199283e-19 9.76505125e-12
3.31131121e-01 9.16309281e-12 9.08798977e-12 7.50699476e-14 3.30941862e-17 2.91960993e-18 9.11327608e-12
3.80189396e-01 8.55345008e-12 8.48427745e-12 6.90350463e-14 1.37587432e-16 1.17253668e-17 8.50500410e-12
4.36515832e-01 7.98266116e-12 7.92049429e-12 6.17317622e-14 4.35108088e-16 3.67220974e-17 7.93733165e-12
5.01187234e-01 7.45403483e-12 7.39405618e-12 5.88882304e-14 1.09042383e-15 9.32088654e-17 7.40754890e-12
5.75439937e-01 6.95853490e-12 6.90242599e-12 5.38358170e-14 2.27309176e-15 1.97228490e-16 6.91312687e-12
6.60693448e-01 6.50024343e-12 6.44329217e-12 5.27887574e-14 4.16250585e-15 3.73235037e-16 6.45170538e-12
7.58577575e-01 6.06944580e-12 6.01454762e-12 4.76396408e-14 7.25853754e-15 6.98244546e-16 6.02108180e-12
8.70963590e-01 5.67089692e-12 5.61423813e-12 4.37825858e-14 1.28761975e-14 1.34778756e-15 5.61920048e-12
1.00000000e+00 5.30397771e-12 5.24043529e-12 3.96031318e-14 2.39392913e-14 2.66380606e-15 5.24414302e-12
1.14815362e+00 4.97205534e-12 4.89139796e-12 3.37076952e-14 4.69496854e-14 5.32024124e-15 4.89411902e-12
1.31825674e+00 4.68605417e-12 4.56549538e-12 2.81570160e-14 9.24017803e-14 1.01681752e-14 4.56745763e-12
1.51356125e+00 4.45652750e-12 4.26119874e-12 2.28027523e-14 1.72526014e-13 1.74883353e-14 4.26259947e-12
1.73780083e+00 4.29005169e-12 3.97710565e-12 1.82084420e-14 2.94737599e-13 2.61209778e-14 3.97808929e-12
1.99526231e+00 4.18004259e-12 3.71188904e-12 1.34796163e-14 4.54673934e-13 3.38763382e-14 3.71256894e-12
2.29086765e+00 4.11005191e-12 3.46430244e-12 1.01937530e-14 6.35555718e-13 3.75250445e-14 3.46477093e-12
2.63026799e+00 4.05268204e-12 3.23318653e-12 6.94108774e-15 8.12554425e-13 3.67241815e-14 3.23351237e-12
3.01995172e+00 3.98375987e-12 3.01745979e-12 4.76733906e-15 9.61532742e-13 3.16498485e-14 3.01768933e-12
3.46736850e+00 3.88270762e-12 2.81610720e-12 3.03418325e-15 1.06356623e-12 2.46958462e-14 2.81627154e-12
3.98107171e+00 3.73665147e-12 2.62817837e-12 1.97981169e-15 1.10649329e-12 1.76970131e-14 2.62829753e-12
4.57088190e+00 3.54920515e-12 2.45278239e-12 1.19029829e-15 1.09523246e-12 1.16069690e-14 2.45286997e-12
5.24807460e+00 3.07249227e-12 2.02808933e-12 6.33917764e-16 1.04376902e-12 7.09703436e-15 2.02814751e-12
6.02559586e+00 2.31140690e-12 1.33995183e-12 2.63515422e-16 9.71191555e-13 4.06591525e-15 1.33998377e-12
6.70000000e+00 1.87930020e-12 9.74688782e-13 1.29767227e-16 9.04481652e-13 2.54247163e-15 9.74709347e-13
6.92422916e+00 1.76477684e-12 8.83031911e-13 1.01476457e-16 8.81643449e-13 2.17913365e-15 8.83049889e-13
7.15596261e+00 1.66873894e-12 7.99993876e-13 7.88952321e-17 8.68666166e-13 1.84150497e-15 8.00009879e-13
7.39545150e+00 1.59883435e-12 7.24763918e-13 5.96371908e-17 8.74010795e-13 1.57567119e-15 7.24778763e-13
7.64295536e+00 1.59626355e-12 6.56606888e-13 4.52937952e-17 9.39611370e-13 1.36579814e-15 6.56622211e-13
7.89874245e+00 1.69271452e-12 5.94857010e-13 2.97756829e-17 1.09782773e-12 1.18671491e-15 5.94874946e-13
8.16308998e+00 1.86596400e-12 5.38912314e-13 1.92222680e-17 1.32703247e-12 1.03970262e-15 5.38934254e-13
8.43628443e+00 2.12656333e-12 4.88226483e-13 1.15598603e-17 1.63832529e-12 8.57685856e-16 4.88254098e-13
8.71862190e+00 2.30570722e-12 4.42309048e-13 7.00668321e-18 1.86339116e-12 6.64352934e-16 4.42339790e-13
9.01040836e+00 2.48255880e-12 4.00709420e-13 3.94499704e-18 2.08184543e-12 4.45547176e-16 4.00743158e-13
9.31196005e+00 2.62171241e-12 3.63022729e-13 0.00000000e+00 2.25868968e-12 0.00000000e+00 3.63058180e-13
9.62360379e+00 2.59113423e-12 3.28884048e-13 0.00000000e+00 2.26225019e-12 0.00000000e+00 3.28917012e-13
9.94567731e+00 2.42237918e-12 2.97958380e-13 0.00000000e+00 2.12442080e-12 0.00000000e+00 2.97986401e-13
1.02785297e+01 2.21422900e-12 2.69941470e-13 0.00000000e+00 1.94428753e-12 0.00000000e+00 2.69964435e-13
1.06225216e+01 2.01816252e-12 2.44558971e-13 0.00000000e+00 1.77360355e-12 0.00000000e+00 2.44577592e-13
1.09780260e+01 1.79418184e-12 2.21563516e-13 0.00000000e+00 1.57261832e-12 0.00000000e+00 2.21578069e-13
1.13454280e+01 1.60447074e-12 2.00729950e-13 0.00000000e+00 1.40374079e-12 0.00000000e+00 2.00741370e-13
1.17251259e+01 1.43717963e-12 1.81855088e-13 0.00000000e+00 1.25532454e-12 0.00000000e+00 1.81864106e-13
1.21175312e+01 1.28510380e-12 1.64754932e-13 0.00000000e+00 1.12034887e-12 0.00000000e+00 1.64762018e-13
1.25230691e+01 1.15124505e-12 1.49262619e-13 0.00000000e+00 1.00198243e-12 0.00000000e+00 1.49268171e-13
1.29421791e+01 1.03305425e-12 1.35226950e-13 0.00000000e+00 8.97827297e-13 0.00000000e+00 1.35231331e-13
1.33753155e+01 9.32612684e-13 1.22511002e-13 0.00000000e+00 8.10101682e-13 0.00000000e+00 1.22514483e-13
1.38229477e+01 8.65631639e-13 1.10990604e-13 0.00000000e+00 7.54641034e-13 0.00000000e+00 1.10993499e-13
1.42855609e+01 8.23747883e-13 1.00553406e-13 0.00000000e+00 7.23194476e-13 0.00000000e+00 1.00555922e-13
1.47636563e+01 8.26109343e-13 9.10974833e-14 0.00000000e+00 7.35011860e-13 0.00000000e+00 9.10998706e-14
1.52577522e+01 8.38816080e-13 8.25307386e-14 0.00000000e+00 7.56285342e-13 0.00000000e+00 8.25330452e-14
1.57683840e+01 8.60397828e-13 7.47695673e-14 0.00000000e+00 7.85628260e-13 0.00000000e+00 7.47718247e-14
1.62961051e+01 8.83148690e-13 6.77382453e-14 0.00000000e+00 8.15410445e-13 0.00000000e+00 6.77404517e-14
1.68414875e+01 9.05077082e-13 6.13681413e-14 0.00000000e+00 8.43708941e-13 0.00000000e+00 6.13702932e-14
1.74051222e+01 9.15308364e-13 5.55971265e-14 0.00000000e+00 8.59711238e-13 0.00000000e+00 5.55991699e-14
1.79876201e+01 9.17108517e-13 5.03688420e-14 0.00000000e+00 8.66739675e-13 0.00000000e+00 5.03707500e-14
1.85896125e+01 8.99977646e-13 4.56322725e-14 0.00000000e+00 8.54345374e-13 0.00000000e+00 4.56339988e-14
1.92117518e+01 8.67301552e-13 4.13411647e-14 0.00000000e+00 8.25960387e-13 0.00000000e+00 4.13426810e-14
1.98547123e+01 8.25530499e-13 3.74536031e-14 0.00000000e+00 7.88076896e-13 0.00000000e+00 3.74549090e-14
2.05191907e+01 7.84374081e-13 3.39316209e-14 0.00000000e+00 7.50442460e-13 0.00000000e+00 3.39327342e-14
2.12059073e+01 7.39901997e-13 3.07408278e-14 0.00000000e+00 7.09161169e-13 0.00000000e+00 3.07417768e-14
2.19156062e+01 7.03023256e-13 2.78500769e-14 0.00000000e+00 6.75173179e-13 0.00000000e+00 2.78508898e-14
2.26490567e+01 6.67044621e-13 2.52311578e-14 0.00000000e+00 6.41813463e-13 0.00000000e+00 2.52318552e-14
2.34070535e+01 6.32697302e-13 2.28585093e-14 0.00000000e+00 6.09838792e-13 0.00000000e+00 2.28591087e-14
2.41904183e+01 6.00872420e-13 2.07089734e-14 0.00000000e+00 5.80163446e-13 0.00000000e+00 2.07094900e-14
2.50000000e+01 5.70526503e-13 1.87615704e-14 0.00000000e+00 5.51764932e-13 0.00000000e+00 1.87620165e-14
2.75422870e+01 4.87294197e-13 1.40310617e-14 0.00000000e+00 4.73263136e-13 0.00000000e+00 1.40313526e-14
3.16227766e+01 3.78517215e-13 9.27026292e-15 0.00000000e+00 3.69246952e-13 0.00000000e+00 9.27042274e-15
3.63078055e+01 2.78672252e-13 6.12482022e-15 0.00000000e+00 2.72547432e-13 0.00000000e+00 6.12490756e-15
4.16869383e+01 1.92114128e-13 4.04663983e-15 0.00000000e+00 1.88067488e-13 0.00000000e+00 4.04668630e-15
4.78630092e+01 1.24222439e-13 2.67359517e-15 0.00000000e+00 1.21548844e-13 0.00000000e+00 2.67361912e-15
5.49540874e+01 7.61820800e-14 1.76643055e-15 0.00000000e+00 7.44156494e-14 0.00000000e+00 1.76644264e-15
6.30957344e+01 4.49004809e-14 1.16707105e-15 0.00000000e+00 4.37334098e-14 0.00000000e+00 1.16707708e-15
7.24435960e+01 2.56836328e-14 7.71077200e-16 0.00000000e+00 2.49125556e-14 0.00000000e+00 7.71080178e-16
8.31763771e+01 1.43832250e-14 5.09446151e-16 0.00000000e+00 1.38737788e-14 0.00000000e+00 5.09447621e-16
9.54992586e+01 7.94831345e-15 3.36587978e-16 0.00000000e+00 7.61172547e-15 0.00000000e+00 3.36588705e-16
1.09647820e+02 4.35213178e-15 2.22381591e-16 0.00000000e+00 4.12975019e-15 0.00000000e+00 2.22381952e-16
1.25892541e+02 2.39445186e-15 1.46926117e-16 0.00000000e+00 2.24752574e-15 0.00000000e+00 1.46926299e-16
1.44543977e+02 1.31671458e-15 9.70731505e-17 0.00000000e+00 1.21964143e-15 0.00000000e+00 9.70732430e-17
1.65958691e+02 6.95140478e-16 6.41356103e-17 0.00000000e+00 6.31004868e-16 0.00000000e+00 6.41356556e-17
1.90546072e+02 3.69751358e-16 4.23739850e-17 0.00000000e+00 3.27377373e-16 0.00000000e+00 4.23740075e-17
2.18776162e+02 1.97845110e-16 2.79962179e-17 0.00000000e+00 1.69848892e-16 0.00000000e+00 2.79962291e-17
2.51188643e+02 1.06414215e-16 1.84969195e-17 0.00000000e+00 8.79172956e-17 0.00000000e+00 1.84969251e-17
2.88403150e+02 5.75581423e-17 1.22207944e-17 0.00000000e+00 4.53373478e-17 0.00000000e+00 1.22207972e-17
3.31131121e+02 3.14057759e-17 8.07419927e-18 0.00000000e+00 2.33315767e-17 0.00000000e+00 8.07420067e-18
3.80189396e+02 1.73026258e-17 5.33457078e-18 0.00000000e+00 1.19680551e-17 0.00000000e+00 5.33457148e-18
4.36515832e+02 9.65106370e-18 3.52451607e-18 0.00000000e+00 6.12654763e-18 0.00000000e+00 3.52451642e-18
5.01187234e+02 5.45745379e-18 2.32862473e-18 0.00000000e+00 3.12882905e-18 0.00000000e+00 2.32862491e-18
5.75439937e+02 3.13328497e-18 1.53850713e-18 0.00000000e+00 1.59477784e-18 0.00000000e+00 1.53850722e-18
6.60693448e+02 1.82797201e-18 1.01648160e-18 0.00000000e+00 8.11490417e-19 0.00000000e+00 1.01648164e-18
7.58577575e+02 1.08388590e-18 6.71582737e-19 0.00000000e+00 4.12303163e-19 0.00000000e+00 6.71582760e-19
8.70963590e+02 6.52868434e-19 4.43710318e-19 0.00000000e+00 2.09158116e-19 0.00000000e+00 4.43710329e-19
1.00000000e+03 1.05946588e-19 0.00000000e+00 0.00000000e+00 1.05946588e-19 0.00000000e+00 0.00000000e+00
