# column 1: lambda (micron)
# column 2: total flux; lambda*F_lambda (W/m2)
# column 3: direct stellar flux; lambda*F_lambda (W/m2)
# column 4: scattered stellar flux; lambda*F_lambda (W/m2)
# column 5: total dust emission flux; lambda*F_lambda (W/m2)
# column 6: dust emission scattered flux; lambda*F_lambda (W/m2)
# column 7: transparent flux; lambda*F_lambda (W/m2)
1.00000000e-03 5.25059859e-13 5.25059681e-13 1.77519010e-19 0.00000000e+00 0.00000000e+00 5.25636674e-13
1.14815362e-03 6.19520512e-13 6.19520214e-13 2.98055947e-19 0.00000000e+00 0.00000000e+00 6.20419813e-13
1.31825674e-03 7.30945013e-13 7.30944565e-13 4.48277007e-19 0.00000000e+00 0.00000000e+00 7.32294308e-13
1.51356125e-03 8.62464977e-13 8.62464142e-13 8.34432112e-19 0.00000000e+00 0.00000000e+00 8.64342083e-13
1.73780083e-03 1.01796589e-12 1.01796134e-12 4.55155468e-18 0.00000000e+00 0.00000000e+00 1.02020080e-12
1.99526231e-03 1.20069516e-12 1.20066077e-12 3.43883809e-17 0.00000000e+00 0.00000000e+00 1.20416405e-12
2.29086765e-03 1.41694890e-12 1.41691522e-12 3.36843392e-17 0.00000000e+00 0.00000000e+00 1.42129968e-12
2.63026799e-03 1.67146550e-12 1.67138967e-12 7.58316338e-17 0.00000000e+00 0.00000000e+00 1.67758934e-12
3.01995172e-03 1.97114373e-12 1.97104699e-12 9.67418715e-17 0.00000000e+00 0.00000000e+00 1.98009332e-12
3.46736850e-03 2.32499287e-12 2.32456482e-12 4.28047921e-16 0.00000000e+00 0.00000000e+00 2.33714500e-12
3.98107171e-03 2.74196352e-12 2.74159042e-12 3.73107920e-16 0.00000000e+00 0.00000000e+00 2.75858048e-12
4.57088190e-03 3.24363016e-12 3.24261895e-12 1.01121318e-15 0.00000000e+00 0.00000000e+00 3.25600946e-12
5.24807460e-03 3.82646788e-12 3.82295981e-12 3.50807251e-15 0.00000000e+00 0.00000000e+00 3.84313516e-12
6.02559586e-03 4.51511937e-12 4.50743431e-12 7.68506153e-15 0.00000000e+00 0.00000000e+00 4.53613173e-12
6.91830971e-03 5.33490816e-12 5.31501600e-12 1.98921564e-14 0.00000000e+00 0.00000000e+00 5.35408989e-12
7.94328235e-03 6.28469668e-12 6.26811055e-12 1.65861277e-14 1.80965772e-303 1.54145490e-305 6.31954278e-12
9.12010839e-03 7.41169660e-12 7.39175102e-12 1.99455842e-14 9.11970642e-265 3.54012831e-267 7.45908676e-12
1.04712855e-02 8.27974345e-12 8.25079615e-12 2.89473068e-14 4.37474609e-231 2.25278581e-233 8.33078048e-12
1.20226443e-02 8.26102557e-12 8.24609970e-12 1.49258652e-14 7.65417844e-202 5.32708034e-204 8.33078048e-12
1.38038426e-02 8.26927291e-12 8.24053266e-12 2.87402485e-14 2.29640964e-176 2.00118786e-178 8.33078048e-12
1.58489319e-02 8.26007864e-12 8.23369634e-12 2.63822938e-14 3.37266824e-154 3.04259901e-156 8.33078048e-12
1.81970086e-02 8.25465316e-12 8.22739609e-12 2.72570703e-14 6.47527327e-135 7.42102660e-137 8.33078048e-12
2.08929613e-02 8.25473701e-12 8.22216290e-12 3.25741128e-14 3.60764913e-118 5.23525611e-120 8.33078048e-12
2.39883292e-02 8.25237168e-12 8.21538739e-12 3.69842890e-14 1.33884455e-103 2.36901736e-105 8.33078048e-12
2.75422870e-02 8.24720244e-12 8.20751331e-12 3.96891276e-14 6.29511663e-91 1.36474580e-92 8.33078048e-12
3.16227766e-02 8.24309540e-12 8.19980234e-12 4.32930592e-14 6.39899611e-80 1.56494272e-81 8.33078048e-12
3.63078055e-02 8.24026232e-12 8.19375930e-12 4.65030156e-14 2.30598530e-70 6.61766357e-72 8.33078048e-12
4.16869383e-02 8.24461043e-12 8.18853612e-12 5.60743120e-14 4.53995900e-62 1.67042623e-63 8.33078048e-12
4.78630092e-02 8.24020220e-12 8.17415578e-12 6.60464164e-14 7.08397708e-55 3.38811574e-56 8.33078048e-12
5.49540874e-02 8.22531396e-12 8.15419916e-12 7.11148059e-14 1.20845705e-48 6.80550968e-50 8.33078048e-12
6.30957344e-02 8.19144326e-12 8.10437193e-12 8.70713295e-14 3.98967635e-43 2.60641182e-44 8.33078048e-12
7.24435960e-02 8.12805846e-12 8.04574474e-12 8.23137269e-14 2.34318516e-38 1.47514787e-39 8.33078048e-12
8.31763771e-02 8.13283371e-12 8.05094446e-12 8.18892457e-14 2.43500538e-34 1.50364909e-35 8.33078048e-12
9.54992586e-02 8.14487605e-12 8.06621436e-12 7.86616890e-14 6.97043507e-31 4.50158934e-32 8.33078048e-12
1.09647820e-01 7.82208220e-12 7.74536929e-12 7.67129095e-14 6.00646212e-28 4.15577124e-29 7.95583672e-12
1.25892541e-01 7.33243504e-12 7.26275315e-12 6.96818895e-14 1.96823004e-25 1.32761038e-26 7.42481883e-12
1.44543977e-01 6.86299130e-12 6.80364517e-12 5.93461325e-14 2.70555546e-23 1.76271443e-24 6.92924411e-12
1.65958691e-01 6.42068115e-12 6.36411850e-12 5.65626473e-14 1.38469709e-21 9.98030778e-23 6.46674687e-12
1.90546072e-01 5.99428941e-12 5.93299269e-12 6.12966916e-14 2.94403316e-20 2.50498295e-21 6.03511933e-12
2.18776162e-01 5.58232850e-12 5.52066391e-12 6.16642462e-14 3.51593972e-19 3.21993270e-20 5.63230107e-12
2.51188643e-01 5.23542306e-12 5.17288093e-12 6.25378231e-14 4.30963705e-18 4.74531741e-19 5.25636919e-12
2.88403150e-01 4.89820068e-12 4.84075263e-12 5.74120257e-14 3.60220946e-17 3.88851157e-18 4.90552916e-12
3.31131121e-01 4.57769540e-12 4.52536315e-12 5.21257057e-14 2.06543427e-16 2.11685246e-17 4.57810618e-12
3.80189396e-01 4.27488845e-12 4.22928179e-12 4.47412229e-14 8.65437416e-16 8.85197297e-17 4.27253728e-12
4.36515832e-01 3.99302489e-12 3.95220746e-12 3.80756252e-14 2.74180422e-15 2.74017967e-16 3.98736380e-12
5.01187234e-01 3.73466029e-12 3.69303827e-12 3.47708900e-14 6.85113878e-15 6.74208233e-16 3.72122441e-12
5.75439937e-01 3.49582265e-12 3.45048497e-12 3.12647185e-14 1.40729613e-14 1.35895979e-15 3.47284869e-12
6.60693448e-01 3.27663750e-12 3.22346143e-12 2.85178781e-14 2.46581905e-14 2.37902103e-15 3.24105097e-12
7.58577575e-01 3.07263895e-12 3.01105901e-12 2.32890426e-14 3.82908973e-14 3.62606948e-15 3.02472476e-12
8.70963590e-01 2.88704654e-12 2.81245567e-12 2.06316110e-14 5.39592646e-14 4.91963149e-15 2.82283739e-12
1.00000000e+00 2.71525623e-12 2.62666603e-12 1.80234103e-14 7.05667920e-14 6.14703683e-15 2.63442513e-12
1.14815362e+00 2.55741254e-12 2.45289289e-12 1.47560026e-14 8.97636509e-14 7.35436148e-15 2.45858859e-12
1.31825674e+00 2.41604735e-12 2.29038020e-12 1.13160336e-14 1.14351120e-13 8.45064012e-15 2.29448837e-12
1.51356125e+00 2.29518884e-12 2.13840808e-12 8.69170825e-15 1.48089051e-13 9.75399186e-15 2.14134114e-12
1.73780083e+00 2.19507555e-12 1.99635588e-12 6.53206720e-15 1.92187596e-13 1.08682909e-14 1.99841583e-12
1.99526231e+00 2.11255612e-12 1.86360617e-12 4.80866404e-15 2.44141283e-13 1.11360154e-14 1.86503017e-12
2.29086765e+00 2.04085650e-12 1.73956613e-12 3.34707903e-15 2.97943288e-13 1.07006989e-14 1.74054743e-12
2.63026799e+00 1.97002064e-12 1.62369083e-12 2.28514888e-15 3.44044658e-13 9.07509676e-15 1.62437337e-12
3.01995172e+00 1.89296526e-12 1.51547259e-12 1.36220937e-15 3.76130459e-13 7.00128529e-15 1.51595343e-12
3.46736850e+00 1.80452458e-12 1.41442579e-12 8.55745306e-16 3.89243043e-13 4.94728045e-15 1.41477006e-12
3.98107171e+00 1.70244401e-12 1.32009061e-12 5.17265669e-16 3.81836129e-13 3.20296076e-15 1.32034025e-12
4.57088190e+00 1.59015042e-12 1.23202973e-12 2.90056722e-16 3.57830629e-13 1.94987898e-15 1.23221321e-12
5.24807460e+00 1.34248811e-12 1.01872959e-12 1.51323485e-16 3.23607199e-13 1.10522671e-15 1.01885146e-12
6.02559586e+00 9.60083140e-13 6.73081571e-13 6.02623019e-17 2.86941307e-13 5.86724948e-16 6.73148485e-13
6.70000000e+00 7.47568714e-13 4.89607713e-13 2.93492589e-17 2.57931652e-13 3.43090014e-16 4.89650796e-13
6.92422916e+00 6.92243930e-13 4.43567481e-13 2.26235328e-17 2.48653825e-13 2.84976561e-16 4.43605145e-13
7.15596261e+00 6.44518187e-13 4.01855997e-13 1.77195821e-17 2.42644471e-13 2.35525872e-16 4.01889522e-13
7.39545150e+00 6.07718058e-13 3.64065644e-13 1.39468770e-17 2.43638466e-13 1.96858710e-16 3.64096743e-13
7.64295536e+00 5.94806276e-13 3.29825810e-13 1.04417610e-17 2.64970025e-13 1.73100037e-16 3.29857910e-13
7.89874245e+00 6.16796071e-13 2.98801246e-13 6.96283120e-18 3.17987863e-13 1.57399379e-16 2.98838820e-13
8.16308998e+00 6.67657267e-13 2.70690731e-13 4.87216580e-18 3.96961664e-13 1.42746327e-16 2.70736695e-13
8.43628443e+00 7.54520847e-13 2.45219379e-13 3.01883095e-18 5.09298449e-13 1.23659428e-16 2.45277229e-13
8.71862190e+00 8.12159835e-13 2.22147518e-13 1.75419355e-18 5.90010563e-13 9.78698013e-17 2.22211915e-13
9.01040836e+00 8.75479271e-13 2.01244937e-13 8.18907274e-19 6.74233515e-13 6.23838204e-17 2.01315610e-13
9.31196005e+00 9.23800809e-13 1.82310087e-13 0.00000000e+00 7.41490722e-13 0.00000000e+00 1.82384346e-13
9.62360379e+00 9.02799005e-13 1.65164288e-13 0.00000000e+00 7.37634717e-13 0.00000000e+00 1.65233336e-13
9.94567731e+00 8.28778120e-13 1.49636471e-13 0.00000000e+00 6.79141649e-13 0.00000000e+00 1.49695167e-13
1.02785297e+01 7.43186596e-13 1.35570066e-13 0.00000000e+00 6.07616530e-13 0.00000000e+00 1.35618173e-13
1.06225216e+01 6.61431272e-13 1.22825942e-13 0.00000000e+00 5.38605330e-13 0.00000000e+00 1.22864947e-13
1.09780260e+01 5.75571154e-13 1.11280520e-13 0.00000000e+00 4.64290634e-13 0.00000000e+00 1.11311006e-13
1.13454280e+01 5.01738236e-13 1.00819649e-13 0.00000000e+00 4.00918587e-13 0.00000000e+00 1.00843571e-13
1.17251259e+01 4.39616486e-13 9.13415777e-14 0.00000000e+00 3.48274908e-13 0.00000000e+00 9.13604705e-14
1.21175312e+01 3.84646756e-13 8.27542948e-14 0.00000000e+00 3.01892462e-13 0.00000000e+00 8.27691389e-14
1.25230691e+01 3.36056678e-13 7.49740855e-14 0.00000000e+00 2.61082592e-13 0.00000000e+00 7.49857166e-14
1.29421791e+01 2.95387447e-13 6.79250524e-14 0.00000000e+00 2.27462395e-13 0.00000000e+00 6.79342298e-14
1.33753155e+01 2.61200172e-13 6.15385558e-14 0.00000000e+00 1.99661616e-13 0.00000000e+00 6.15458488e-14
1.38229477e+01 2.37444439e-13 5.57521537e-14 0.00000000e+00 1.81692285e-13 0.00000000e+00 5.57582167e-14
1.42855609e+01 2.21779396e-13 5.05095708e-14 0.00000000e+00 1.71269826e-13 0.00000000e+00 5.05148403e-14
1.47636563e+01 2.18650055e-13 4.57595381e-14 0.00000000e+00 1.72890517e-13 0.00000000e+00 4.57645392e-14
1.52577522e+01 2.18561239e-13 4.14561134e-14 0.00000000e+00 1.77105125e-13 0.00000000e+00 4.14609457e-14
1.57683840e+01 2.20807839e-13 3.75573233e-14 0.00000000e+00 1.83250516e-13 0.00000000e+00 3.75620523e-14
1.62961051e+01 2.23765501e-13 3.40251797e-14 0.00000000e+00 1.89740321e-13 0.00000000e+00 3.40298020e-14
1.68414875e+01 2.26970174e-13 3.08252087e-14 0.00000000e+00 1.96144966e-13 0.00000000e+00 3.08297166e-14
1.74051222e+01 2.26433279e-13 2.79262791e-14 0.00000000e+00 1.98507000e-13 0.00000000e+00 2.79305599e-14
1.79876201e+01 2.23802509e-13 2.53000364e-14 0.00000000e+00 1.98502473e-13 0.00000000e+00 2.53040334e-14
1.85896125e+01 2.16719082e-13 2.29208830e-14 0.00000000e+00 1.93798199e-13 0.00000000e+00 2.29244994e-14
1.92117518e+01 2.05936292e-13 2.07655549e-14 0.00000000e+00 1.85170737e-13 0.00000000e+00 2.07687314e-14
1.98547123e+01 1.93080117e-13 1.88129513e-14 0.00000000e+00 1.74267166e-13 0.00000000e+00 1.88156870e-14
2.05191907e+01 1.80008147e-13 1.70439701e-14 0.00000000e+00 1.62964177e-13 0.00000000e+00 1.70463024e-14
2.12059073e+01 1.67887991e-13 1.54413187e-14 0.00000000e+00 1.52446673e-13 0.00000000e+00 1.54433068e-14
2.19156062e+01 1.57279118e-13 1.39893503e-14 0.00000000e+00 1.43289767e-13 0.00000000e+00 1.39910532e-14
2.26490567e+01 1.47627692e-13 1.26739053e-14 0.00000000e+00 1.34953787e-13 0.00000000e+00 1.26753663e-14
2.34070535e+01 1.38812978e-13 1.14821478e-14 0.00000000e+00 1.27330830e-13 0.00000000e+00 1.14834036e-14
2.41904183e+01 1.30728446e-13 1.04024482e-14 0.00000000e+00 1.20325998e-13 0.00000000e+00 1.04035303e-14
2.50000000e+01 1.23395222e-13 9.42427148e-15 0.00000000e+00 1.13970950e-13 0.00000000e+00 9.42520591e-15
2.75422870e+01 1.04214108e-13 7.04812057e-15 0.00000000e+00 9.71659877e-14 0.00000000e+00 7.04872996e-15
3.16227766e+01 8.13734458e-14 4.65671489e-15 0.00000000e+00 7.67167309e-14 0.00000000e+00 4.65704970e-15
3.63078055e+01 6.13642576e-14 3.07669924e-15 0.00000000e+00 5.82875583e-14 0.00000000e+00 3.07688223e-15
4.16869383e+01 4.38403776e-14 2.03277857e-15 0.00000000e+00 4.18075990e-14 0.00000000e+00 2.03287593e-15
4.78630092e+01 2.95687582e-14 1.34305762e-15 0.00000000e+00 2.82257006e-14 0.00000000e+00 1.34310781e-15
5.49540874e+01 1.90245200e-14 8.87357203e-16 0.00000000e+00 1.81371628e-14 0.00000000e+00 8.87382527e-16
6.30957344e+01 1.17952977e-14 5.86275207e-16 0.00000000e+00 1.12090225e-14 0.00000000e+00 5.86287821e-16
7.24435960e+01 7.09861568e-15 3.87350283e-16 0.00000000e+00 6.71126540e-15 0.00000000e+00 3.87356522e-16
8.31763771e+01 4.17773648e-15 2.55920836e-16 0.00000000e+00 3.92181564e-15 0.00000000e+00 2.55923916e-16
9.54992586e+01 2.41874576e-15 1.69085730e-16 0.00000000e+00 2.24966003e-15 0.00000000e+00 1.69087255e-16
1.09647820e+02 1.38299231e-15 1.11714084e-16 0.00000000e+00 1.27127822e-15 0.00000000e+00 1.11714841e-16
1.25892541e+02 7.91671518e-16 7.38088819e-17 0.00000000e+00 7.17862636e-16 0.00000000e+00 7.38092637e-17
1.44543977e+02 4.51232938e-16 4.87651031e-17 0.00000000e+00 4.02467835e-16 0.00000000e+00 4.87652969e-17
1.65958691e+02 2.46496396e-16 3.22188171e-17 0.00000000e+00 2.14277579e-16 0.00000000e+00 3.22189122e-17
1.90546072e+02 1.35301964e-16 2.12867771e-17 0.00000000e+00 1.14015187e-16 0.00000000e+00 2.12868242e-17
2.18776162e+02 7.45336366e-17 1.40640418e-17 0.00000000e+00 6.04695947e-17 0.00000000e+00 1.40640653e-17
2.51188643e+02 4.11987730e-17 9.29202405e-18 0.00000000e+00 3.19067490e-17 0.00000000e+00 9.29203577e-18
2.88403150e+02 2.28692574e-17 6.13918129e-18 0.00000000e+00 1.67300761e-17 0.00000000e+00 6.13918715e-18
3.31131121e+02 1.27913539e-17 4.05611779e-18 0.00000000e+00 8.73523607e-18 0.00000000e+00 4.05612073e-18
3.80189396e+02 7.21714893e-18 2.67985092e-18 0.00000000e+00 4.53729802e-18 0.00000000e+00 2.67985239e-18
4.36515832e+02 4.11864724e-18 1.77056018e-18 0.00000000e+00 2.34808707e-18 0.00000000e+00 1.77056092e-18
5.01187234e+02 2.38031766e-18 1.16979762e-18 0.00000000e+00 1.21052004e-18 0.00000000e+00 1.16979800e-18
5.75439937e+02 1.39494861e-18 7.72877685e-19 0.00000000e+00 6.22070924e-19 0.00000000e+00 7.72877871e-19
6.60693448e+02 8.29420622e-19 5.10635252e-19 0.00000000e+00 3.18785370e-19 0.00000000e+00 5.10635346e-19
7.58577575e+02 5.00340375e-19 3.37373380e-19 0.00000000e+00 1.62966995e-19 0.00000000e+00 3.37373427e-19
8.70963590e+02 3.06013687e-19 2.22900389e-19 0.00000000e+00 8.31132979e-20 0.00000000e+00 2.22900413e-19
1.00000000e+03 4.22951072e-20 0.00000000e+00 0.00000000e+00 4.22951072e-20 0.00000000e+00 0.00000000e+00
