# column 1: lambda (micron)
# column 2: total flux; lambda*F_lambda (W/m2)
# column 3: direct stellar flux; lambda*F_lambda (W/m2)
# column 4: scattered stellar flux; lambda*F_lambda (W/m2)
# column 5: total dust emission flux; lambda*F_lambda (W/m2)
# column 6: dust emission scattered flux; lambda*F_lambda (W/m2)
# column 7: transparent flux; lambda*F_lambda (W/m2)
1.00000000e-03 5.25586484e-13 5.25585815e-13 6.69655176e-19 0.00000000e+00 0.00000000e+00 5.25636674e-13
1.14815362e-03 6.20341599e-13 6.20340505e-13 1.09425005e-18 0.00000000e+00 0.00000000e+00 6.20419813e-13
1.31825674e-03 7.32176934e-13 7.32175294e-13 1.64040191e-18 0.00000000e+00 0.00000000e+00 7.32294308e-13
1.51356125e-03 8.64178881e-13 8.64176470e-13 2.41116475e-18 0.00000000e+00 0.00000000e+00 8.64342083e-13
1.73780083e-03 1.02000779e-12 1.02000330e-12 4.48893213e-18 0.00000000e+00 0.00000000e+00 1.02020080e-12
1.99526231e-03 1.20386260e-12 1.20385500e-12 7.60066473e-18 0.00000000e+00 0.00000000e+00 1.20416405e-12
2.29086765e-03 1.42092484e-12 1.42091286e-12 1.19794726e-17 0.00000000e+00 0.00000000e+00 1.42129968e-12
2.63026799e-03 1.67706622e-12 1.67704222e-12 2.39990942e-17 0.00000000e+00 0.00000000e+00 1.67758934e-12
3.01995172e-03 1.97933440e-12 1.97929466e-12 3.97346630e-17 0.00000000e+00 0.00000000e+00 1.98009332e-12
3.46736850e-03 2.33609898e-12 2.33603395e-12 6.50322418e-17 0.00000000e+00 0.00000000e+00 2.33714500e-12
3.98107171e-03 2.75718169e-12 2.75707941e-12 1.02273157e-16 0.00000000e+00 0.00000000e+00 2.75858048e-12
4.57088190e-03 3.25507179e-12 3.25482752e-12 2.44263289e-16 0.00000000e+00 0.00000000e+00 3.25600946e-12
5.24807460e-03 3.84180814e-12 3.84135342e-12 4.54725059e-16 0.00000000e+00 0.00000000e+00 3.84313516e-12
6.02559586e-03 4.53437619e-12 4.53359613e-12 7.80060025e-16 0.00000000e+00 0.00000000e+00 4.53613173e-12
6.91830971e-03 5.35204282e-12 5.35063593e-12 1.40689038e-15 0.00000000e+00 0.00000000e+00 5.35408989e-12
7.94328235e-03 6.31778108e-12 6.31499464e-12 2.78644041e-15 1.19908255e-303 1.82045017e-306 6.31954278e-12
9.12010839e-03 7.48610787e-12 7.45312984e-12 3.29780376e-14 5.25600013e-265 1.78328763e-267 7.45908676e-12
1.04712855e-02 8.32855553e-12 8.32370272e-12 4.85280654e-15 2.21480148e-231 5.01910788e-234 8.33078048e-12
1.20226443e-02 8.33256492e-12 8.32328519e-12 9.27973152e-15 3.46594737e-202 1.16564882e-204 8.33078048e-12
1.38038426e-02 8.33196812e-12 8.32278999e-12 9.17813026e-15 9.44102929e-177 4.75573922e-179 8.33078048e-12
1.58489319e-02 8.33560067e-12 8.32218146e-12 1.34192173e-14 1.27754470e-154 9.32435669e-157 8.33078048e-12
1.81970086e-02 8.34120613e-12 8.32162024e-12 1.95858905e-14 2.27920860e-135 2.11970423e-137 8.33078048e-12
2.08929613e-02 8.34614926e-12 8.32115377e-12 2.49954952e-14 1.19289133e-118 1.59408642e-120 8.33078048e-12
2.39883292e-02 8.35798730e-12 8.32054943e-12 3.74378739e-14 4.19427798e-104 7.48948389e-106 8.33078048e-12
2.75422870e-02 8.36327744e-12 8.31984652e-12 4.34309148e-14 1.88026040e-91 4.14584674e-93 8.33078048e-12
3.16227766e-02 8.36786164e-12 8.31915758e-12 4.87040538e-14 1.83486956e-80 4.70215743e-82 8.33078048e-12
3.63078055e-02 8.37393926e-12 8.31861725e-12 5.53220097e-14 6.37795749e-71 1.92809652e-72 8.33078048e-12
4.16869383e-02 8.39647444e-12 8.31814994e-12 7.83245017e-14 1.21703104e-62 4.69309402e-64 8.33078048e-12
4.78630092e-02 8.41021483e-12 8.31686193e-12 9.33529046e-14 1.84705608e-55 8.99707676e-57 8.33078048e-12
5.49540874e-02 8.41775165e-12 8.31507103e-12 1.02680621e-13 3.07586234e-49 1.71732736e-50 8.33078048e-12
6.30957344e-02 8.42295958e-12 8.31058207e-12 1.12377515e-13 9.95640545e-44 6.21478576e-45 8.33078048e-12
7.24435960e-02 8.40795470e-12 8.30526797e-12 1.02686735e-13 5.76681553e-39 3.47263217e-40 8.33078048e-12
8.31763771e-02 8.41237772e-12 8.30574070e-12 1.06637012e-13 5.90143566e-35 3.52421290e-36 8.33078048e-12
9.54992586e-02 8.41048077e-12 8.30712738e-12 1.03353394e-13 1.66134391e-31 1.01595376e-32 8.33078048e-12
1.09647820e-01 8.04092874e-12 7.93706678e-12 1.03861964e-13 1.40816971e-28 9.18980397e-30 7.95583672e-12
1.25892541e-01 7.50996951e-12 7.41039654e-12 9.95729724e-14 4.55006806e-26 2.87454752e-27 7.42481883e-12
1.44543977e-01 7.00785511e-12 6.91808617e-12 8.97689455e-14 6.18376556e-24 3.79094394e-25 6.92924411e-12
1.65958691e-01 6.54942648e-12 6.45763909e-12 9.17873893e-14 3.13325586e-22 2.12044544e-23 6.46674687e-12
1.90546072e-01 6.12391543e-12 6.02605166e-12 9.78637583e-14 6.60396099e-21 5.18969698e-22 6.03511933e-12
2.18776162e-01 5.71107792e-12 5.62237567e-12 8.87021658e-14 7.81857685e-20 6.33582944e-21 5.63230107e-12
2.51188643e-01 5.35110358e-12 5.24895996e-12 1.02142674e-13 9.47542849e-19 9.17070237e-20 5.25636919e-12
2.88403150e-01 4.99748692e-12 4.89978761e-12 9.76914289e-14 7.87790580e-18 7.52724708e-19 4.90552916e-12
3.31131121e-01 4.66156896e-12 4.57343487e-12 8.80890335e-14 4.50583167e-17 4.15777807e-18 4.57810618e-12
3.80189396e-01 4.35008678e-12 4.26870872e-12 8.11900446e-14 1.88016549e-16 1.73283425e-17 4.27253728e-12
4.36515832e-01 4.05756608e-12 3.98425396e-12 7.27182291e-14 5.93889356e-16 5.31690503e-17 3.98736380e-12
5.01187234e-01 3.78505975e-12 3.71873256e-12 6.48374723e-14 1.48971351e-15 1.34500026e-16 3.72122441e-12
5.75439937e-01 3.53638794e-12 3.47087261e-12 6.24040760e-14 3.11126160e-15 2.84620805e-16 3.47284869e-12
6.60693448e-01 3.30104215e-12 3.23949746e-12 5.58384556e-14 5.70622819e-15 5.47565524e-16 3.24105097e-12
7.58577575e-01 3.08394810e-12 3.02351830e-12 5.05608940e-14 9.86889893e-15 1.01537424e-15 3.02472476e-12
8.70963590e-01 2.88441572e-12 2.82192121e-12 4.53934175e-14 1.71010890e-14 1.97175901e-15 2.82283739e-12
1.00000000e+00 2.70316782e-12 2.63374063e-12 3.90860756e-14 3.03411194e-14 3.79487166e-15 2.63442513e-12
1.14815362e+00 2.54793395e-12 2.45808626e-12 3.39035535e-14 5.59441418e-14 7.12231538e-15 2.45858859e-12
1.31825674e+00 2.42543456e-12 2.29412614e-12 2.77228377e-14 1.03585585e-13 1.25358877e-14 2.29448837e-12
1.51356125e+00 2.34858462e-12 2.14108257e-12 2.31492663e-14 1.84352777e-13 2.02140444e-14 2.14134114e-12
1.73780083e+00 2.32062615e-12 1.99823426e-12 1.85654321e-14 3.03826457e-13 2.86567526e-14 1.99841583e-12
1.99526231e+00 2.33639932e-12 1.86490467e-12 1.37907251e-14 4.57703925e-13 3.51433288e-14 1.86503017e-12
2.29086765e+00 2.37653989e-12 1.74046095e-12 9.84763166e-15 6.26231311e-13 3.69426619e-14 1.74054743e-12
2.63026799e+00 2.42145917e-12 1.62431323e-12 6.79251528e-15 7.90353432e-13 3.39540295e-14 1.62437337e-12
3.01995172e+00 2.44182462e-12 1.51591107e-12 4.59800667e-15 9.21315550e-13 2.79868628e-14 1.51595343e-12
3.46736850e+00 2.42566953e-12 1.41473973e-12 2.84032652e-15 1.00808947e-12 2.10377138e-14 1.41477006e-12
3.98107171e+00 2.35836764e-12 1.32031825e-12 1.79107266e-15 1.03625831e-12 1.42666901e-14 1.32034025e-12
4.57088190e+00 2.24729502e-12 1.23219705e-12 1.09968555e-15 1.01399829e-12 9.01005045e-15 1.23221321e-12
5.24807460e+00 1.97879923e-12 1.01884072e-12 5.52760232e-16 9.59405744e-13 5.33253545e-15 1.01885146e-12
6.02559586e+00 1.56233091e-12 6.73142590e-13 2.31177802e-16 8.88957143e-13 2.99983355e-15 6.73148485e-13
6.70000000e+00 1.31702971e-12 4.89647000e-13 1.09083916e-16 8.27273621e-13 1.83100457e-15 4.89650796e-13
6.92422916e+00 1.25076725e-12 4.43601827e-13 8.86573022e-17 8.07076770e-13 1.54651755e-15 4.43605145e-13
7.15596261e+00 1.19620715e-12 4.01886569e-13 6.91875732e-17 7.94251392e-13 1.31798428e-15 4.01889522e-13
7.39545150e+00 1.16486174e-12 3.64094003e-13 5.18737417e-17 8.00715859e-13 1.12579764e-15 3.64096743e-13
7.64295536e+00 1.19193514e-12 3.29855082e-13 3.80157998e-17 8.62042038e-13 9.73629493e-16 3.29857910e-13
7.89874245e+00 1.30650913e-12 2.98835509e-13 2.62270232e-17 1.00764739e-12 8.58931232e-16 2.98838820e-13
8.16308998e+00 1.49358732e-12 2.70732645e-13 1.69613161e-17 1.22283771e-12 7.51709417e-16 2.70736695e-13
8.43628443e+00 1.76498585e-12 2.45272132e-13 1.01311667e-17 1.51970359e-12 6.28891498e-16 2.45277229e-13
8.71862190e+00 1.94882664e-12 2.22206240e-13 6.32798283e-18 1.72661407e-12 4.81435956e-16 2.22211915e-13
9.01040836e+00 2.14353444e-12 2.01309382e-13 2.98999349e-18 1.94222207e-12 2.98650678e-16 2.01315610e-13
9.31196005e+00 2.30141689e-12 1.82377803e-13 0.00000000e+00 2.11903908e-12 0.00000000e+00 1.82384346e-13
9.62360379e+00 2.27464011e-12 1.65227251e-13 0.00000000e+00 2.10941285e-12 0.00000000e+00 1.65233336e-13
9.94567731e+00 2.12978095e-12 1.49689995e-13 0.00000000e+00 1.98009096e-12 0.00000000e+00 1.49695167e-13
1.02785297e+01 1.94982780e-12 1.35613934e-13 0.00000000e+00 1.81421387e-12 0.00000000e+00 1.35618173e-13
1.06225216e+01 1.77107764e-12 1.22861510e-13 0.00000000e+00 1.64821613e-12 0.00000000e+00 1.22864947e-13
1.09780260e+01 1.57583555e-12 1.11308320e-13 0.00000000e+00 1.46452723e-12 0.00000000e+00 1.11311006e-13
1.13454280e+01 1.40617530e-12 1.00841464e-13 0.00000000e+00 1.30533383e-12 0.00000000e+00 1.00843571e-13
1.17251259e+01 1.26043650e-12 9.13588058e-14 0.00000000e+00 1.16907770e-12 0.00000000e+00 9.13604705e-14
1.21175312e+01 1.12660635e-12 8.27678310e-14 0.00000000e+00 1.04383852e-12 0.00000000e+00 8.27691389e-14
1.25230691e+01 1.00670304e-12 7.49846919e-14 0.00000000e+00 9.31718346e-13 0.00000000e+00 7.49857166e-14
1.29421791e+01 9.05576247e-13 6.79334212e-14 0.00000000e+00 8.37642825e-13 0.00000000e+00 6.79342298e-14
1.33753155e+01 8.19664468e-13 6.15452062e-14 0.00000000e+00 7.58119262e-13 0.00000000e+00 6.15458488e-14
1.38229477e+01 7.63588434e-13 5.57576825e-14 0.00000000e+00 7.07830752e-13 0.00000000e+00 5.57582167e-14
1.42855609e+01 7.32303066e-13 5.05143761e-14 0.00000000e+00 6.81788690e-13 0.00000000e+00 5.05148403e-14
1.47636563e+01 7.39125161e-13 4.57640986e-14 0.00000000e+00 6.93361063e-13 0.00000000e+00 4.57645392e-14
1.52577522e+01 7.59188094e-13 4.14605199e-14 0.00000000e+00 7.17727574e-13 0.00000000e+00 4.14609457e-14
1.57683840e+01 7.85403193e-13 3.75616357e-14 0.00000000e+00 7.47841557e-13 0.00000000e+00 3.75620523e-14
1.62961051e+01 8.14264202e-13 3.40293948e-14 0.00000000e+00 7.80234807e-13 0.00000000e+00 3.40298020e-14
1.68414875e+01 8.44167393e-13 3.08293194e-14 0.00000000e+00 8.13338073e-13 0.00000000e+00 3.08297166e-14
1.74051222e+01 8.60204861e-13 2.79301827e-14 0.00000000e+00 8.32274678e-13 0.00000000e+00 2.79305599e-14
1.79876201e+01 8.69275025e-13 2.53036812e-14 0.00000000e+00 8.43971344e-13 0.00000000e+00 2.53040334e-14
1.85896125e+01 8.60638558e-13 2.29241808e-14 0.00000000e+00 8.37714377e-13 0.00000000e+00 2.29244994e-14
1.92117518e+01 8.38350658e-13 2.07684516e-14 0.00000000e+00 8.17582206e-13 0.00000000e+00 2.07687314e-14
1.98547123e+01 8.06645464e-13 1.88154460e-14 0.00000000e+00 7.87830018e-13 0.00000000e+00 1.88156870e-14
2.05191907e+01 7.71604497e-13 1.70460970e-14 0.00000000e+00 7.54558400e-13 0.00000000e+00 1.70463024e-14
2.12059073e+01 7.38348454e-13 1.54431316e-14 0.00000000e+00 7.22905323e-13 0.00000000e+00 1.54433068e-14
2.19156062e+01 7.07774115e-13 1.39909032e-14 0.00000000e+00 6.93783212e-13 0.00000000e+00 1.39910532e-14
2.26490567e+01 6.79820650e-13 1.26752376e-14 0.00000000e+00 6.67145413e-13 0.00000000e+00 1.26753663e-14
2.34070535e+01 6.53846380e-13 1.14832929e-14 0.00000000e+00 6.42363087e-13 0.00000000e+00 1.14834036e-14
2.41904183e+01 6.28880908e-13 1.04034350e-14 0.00000000e+00 6.18477473e-13 0.00000000e+00 1.04035303e-14
2.50000000e+01 6.05307228e-13 9.42512358e-15 0.00000000e+00 5.95882105e-13 0.00000000e+00 9.42520591e-15
2.75422870e+01 5.38689403e-13 7.04867627e-15 0.00000000e+00 5.31640727e-13 0.00000000e+00 7.04872996e-15
3.16227766e+01 4.45491629e-13 4.65702020e-15 0.00000000e+00 4.40834609e-13 0.00000000e+00 4.65704970e-15
3.63078055e+01 3.49915167e-13 3.07686610e-15 0.00000000e+00 3.46838301e-13 0.00000000e+00 3.07688223e-15
4.16869383e+01 2.57036619e-13 2.03286735e-15 0.00000000e+00 2.55003751e-13 0.00000000e+00 2.03287593e-15
4.78630092e+01 1.76081920e-13 1.34310338e-15 0.00000000e+00 1.74738817e-13 0.00000000e+00 1.34310781e-15
5.49540874e+01 1.13906957e-13 8.87380296e-16 0.00000000e+00 1.13019577e-13 0.00000000e+00 8.87382527e-16
6.30957344e+01 7.04291172e-14 5.86286710e-16 0.00000000e+00 6.98428305e-14 0.00000000e+00 5.86287821e-16
7.24435960e+01 4.20005596e-14 3.87355973e-16 0.00000000e+00 4.16132036e-14 0.00000000e+00 3.87356522e-16
8.31763771e+01 2.43690667e-14 2.55923645e-16 0.00000000e+00 2.41131431e-14 0.00000000e+00 2.55923916e-16
9.54992586e+01 1.38626213e-14 1.69087120e-16 0.00000000e+00 1.36935342e-14 0.00000000e+00 1.69087255e-16
1.09647820e+02 7.76751036e-15 1.11714775e-16 0.00000000e+00 7.65579558e-15 0.00000000e+00 1.11714841e-16
1.25892541e+02 4.34905074e-15 7.38092301e-17 0.00000000e+00 4.27524151e-15 0.00000000e+00 7.38092637e-17
1.44543977e+02 2.42005959e-15 4.87652799e-17 0.00000000e+00 2.37129431e-15 0.00000000e+00 4.87652969e-17
1.65958691e+02 1.28339611e-15 3.22189038e-17 0.00000000e+00 1.25117721e-15 0.00000000e+00 3.22189122e-17
1.90546072e+02 6.81425837e-16 2.12868200e-17 0.00000000e+00 6.60139017e-16 0.00000000e+00 2.12868242e-17
2.18776162e+02 3.61489867e-16 1.40640632e-17 0.00000000e+00 3.47425804e-16 0.00000000e+00 1.40640653e-17
2.51188643e+02 1.91347710e-16 9.29203474e-18 0.00000000e+00 1.82055675e-16 0.00000000e+00 9.29203577e-18
2.88403150e+02 1.01015702e-16 6.13918664e-18 0.00000000e+00 9.48765153e-17 0.00000000e+00 6.13918715e-18
3.31131121e+02 5.33265094e-17 4.05612047e-18 0.00000000e+00 4.92703889e-17 0.00000000e+00 4.05612073e-18
3.80189396e+02 2.81507184e-17 2.67985226e-18 0.00000000e+00 2.54708662e-17 0.00000000e+00 2.67985239e-18
4.36515832e+02 1.48970966e-17 1.77056085e-18 0.00000000e+00 1.31265358e-17 0.00000000e+00 1.77056092e-18
5.01187234e+02 7.91231727e-18 1.16979796e-18 0.00000000e+00 6.74251930e-18 0.00000000e+00 1.16979800e-18
5.75439937e+02 4.22675162e-18 7.72877855e-19 0.00000000e+00 3.45387376e-18 0.00000000e+00 7.72877871e-19
6.60693448e+02 2.27568337e-18 5.10635337e-19 0.00000000e+00 1.76504803e-18 0.00000000e+00 5.10635346e-19
7.58577575e+02 1.23749846e-18 3.37373423e-19 0.00000000e+00 9.00125032e-19 0.00000000e+00 3.37373427e-19
8.70963590e+02 6.80994524e-19 2.22900411e-19 0.00000000e+00 4.58094113e-19 0.00000000e+00 2.22900413e-19
1.00000000e+03 2.32687595e-19 0.00000000e+00 0.00000000e+00 2.32687595e-19 0.00000000e+00 0.00000000e+00
