# column 1: lambda (micron)
# column 2: total flux; lambda*F_lambda (W/m2)
# column 3: direct stellar flux; lambda*F_lambda (W/m2)
# column 4: scattered stellar flux; lambda*F_lambda (W/m2)
# column 5: total dust emission flux; lambda*F_lambda (W/m2)
# column 6: dust emission scattered flux; lambda*F_lambda (W/m2)
# column 7: transparent flux; lambda*F_lambda (W/m2)
1.00000000e-03 8.45220319e-13 8.45217160e-13 3.15890828e-18 0.00000000e+00 0.00000000e+00 8.46529401e-13
1.14815362e-03 9.97138394e-13 9.97130333e-13 8.06072034e-18 0.00000000e+00 0.00000000e+00 9.99176121e-13
1.31825674e-03 1.17629195e-12 1.17627898e-12 1.29726087e-17 0.00000000e+00 0.00000000e+00 1.17934819e-12
1.51356125e-03 1.38777815e-12 1.38773900e-12 3.91475294e-17 0.00000000e+00 0.00000000e+00 1.39200901e-12
1.73780083e-03 1.63797756e-12 1.63792497e-12 5.25857313e-17 0.00000000e+00 0.00000000e+00 1.64301696e-12
1.99526231e-03 1.93143327e-12 1.93132238e-12 1.10897148e-16 0.00000000e+00 0.00000000e+00 1.93928682e-12
2.29086765e-03 2.33123295e-12 2.27901287e-12 5.22200865e-14 0.00000000e+00 0.00000000e+00 2.28898025e-12
2.63026799e-03 2.68836796e-12 2.68763841e-12 7.29545758e-16 0.00000000e+00 0.00000000e+00 2.70173063e-12
3.01995172e-03 3.16888111e-12 3.16834930e-12 5.31810277e-16 0.00000000e+00 0.00000000e+00 3.18890841e-12
3.46736850e-03 3.73991337e-12 3.73534890e-12 4.56447854e-15 0.00000000e+00 0.00000000e+00 3.76393440e-12
3.98107171e-03 4.40778345e-12 4.40404974e-12 3.73370689e-15 0.00000000e+00 0.00000000e+00 4.44264945e-12
4.57088190e-03 5.21966338e-12 5.21331604e-12 6.34734113e-15 0.00000000e+00 0.00000000e+00 5.24375082e-12
5.24807460e-03 6.15194959e-12 6.14346231e-12 8.48728425e-15 0.00000000e+00 0.00000000e+00 6.18930730e-12
6.02559586e-03 7.25247777e-12 7.24017174e-12 1.23060322e-14 0.00000000e+00 0.00000000e+00 7.30536713e-12
6.91830971e-03 8.55032821e-12 8.53392458e-12 1.64036341e-14 0.00000000e+00 0.00000000e+00 8.62267558e-12
7.94328235e-03 1.01369626e-11 1.00607210e-11 7.62415926e-14 0.00000000e+00 0.00000000e+00 1.01775219e-11
9.12010839e-03 1.19102518e-11 1.18598500e-11 5.04018169e-14 0.00000000e+00 0.00000000e+00 1.20127391e-11
1.04712855e-02 1.33042943e-11 1.32350011e-11 6.92932425e-14 0.00000000e+00 0.00000000e+00 1.34165878e-11
1.20226443e-02 1.33178314e-11 1.32243613e-11 9.34700424e-14 8.76069283e-312 1.64772875e-312 1.34165878e-11
1.38038426e-02 1.32973935e-11 1.32117525e-11 8.56410097e-14 1.84879482e-272 3.35899533e-273 1.34165878e-11
1.58489319e-02 1.33184891e-11 1.31962736e-11 1.22215458e-13 3.20321265e-238 6.48423759e-239 1.34165878e-11
1.81970086e-02 1.33049834e-11 1.31820132e-11 1.22970177e-13 1.98184848e-208 4.20803997e-209 1.34165878e-11
2.08929613e-02 1.33236884e-11 1.31701715e-11 1.53516822e-13 1.56233835e-182 3.40870538e-183 1.34165878e-11
2.39883292e-02 1.33380313e-11 1.31548445e-11 1.83186809e-13 5.33104087e-160 1.17088484e-160 1.34165878e-11
2.75422870e-02 1.33565799e-11 1.31370389e-11 2.19541007e-13 2.14037570e-140 4.71446878e-141 1.34165878e-11
3.16227766e-02 1.33695093e-11 1.31196089e-11 2.49900432e-13 2.34494756e-123 5.03126998e-124 1.34165878e-11
3.63078055e-02 1.33769071e-11 1.31059539e-11 2.70953221e-13 1.51123699e-108 3.11352198e-109 1.34165878e-11
4.16869383e-02 1.34341994e-11 1.30941548e-11 3.40044616e-13 1.13466540e-95 2.42520868e-96 1.34165878e-11
4.78630092e-02 1.34574110e-11 1.30616858e-11 3.95725119e-13 1.64646119e-84 3.56322488e-85 1.34165878e-11
5.49540874e-02 1.34411356e-11 1.30166654e-11 4.24470183e-13 7.85314162e-75 1.73130484e-75 1.34165878e-11
6.30957344e-02 1.33436380e-11 1.29044578e-11 4.39180201e-13 2.33448540e-66 5.37271442e-67 1.34165878e-11
7.24435960e-02 1.31551818e-11 1.27727973e-11 3.82384477e-13 5.24321377e-59 1.18843012e-59 1.34165878e-11
8.31763771e-02 1.31637330e-11 1.27844585e-11 3.79274522e-13 1.36812540e-52 2.71880934e-53 1.34165878e-11
9.54992586e-02 1.32074836e-11 1.28187216e-11 3.88761978e-13 6.21446592e-47 1.10626209e-47 1.34165878e-11
1.09647820e-01 1.27476287e-11 1.23366032e-11 4.11025515e-13 5.71606815e-42 9.76867189e-43 1.28127470e-11
1.25892541e-01 1.19972316e-11 1.15905523e-11 4.06679332e-13 1.23162636e-37 2.03843671e-38 1.19575512e-11
1.44543977e-01 1.12521984e-11 1.08747965e-11 3.77401895e-13 7.07364111e-34 1.14134662e-34 1.11594361e-11
1.65958691e-01 1.05714489e-11 1.01819000e-11 3.89548872e-13 1.01356998e-30 1.79409011e-31 1.04145917e-11
1.90546072e-01 9.89614677e-12 9.48795914e-12 4.08187634e-13 4.16981238e-28 8.73322921e-29 9.71946251e-12
2.18776162e-01 9.17683656e-12 8.81782105e-12 3.59015513e-13 6.89176636e-26 1.55831071e-26 9.07073019e-12
2.51188643e-01 8.70139721e-12 8.27600360e-12 4.25393612e-13 1.00058049e-23 2.80732400e-24 8.46529796e-12
2.88403150e-01 8.15127833e-12 7.75332495e-12 3.97953375e-13 7.56882521e-22 2.20239668e-22 7.90027573e-12
3.31131121e-01 7.62251491e-12 7.25327259e-12 3.69242296e-13 3.14788748e-20 9.32733919e-21 7.37296631e-12
3.80189396e-01 7.12560961e-12 6.78266112e-12 3.42947712e-13 7.79037192e-19 2.31204927e-19 6.88085251e-12
4.36515832e-01 6.65151617e-12 6.34175751e-12 3.09746541e-13 1.21108783e-17 3.64326035e-18 6.42158520e-12
5.01187234e-01 6.22569503e-12 5.92895469e-12 2.96614315e-13 1.26023153e-16 3.80172242e-17 5.99297201e-12
5.75439937e-01 5.81367418e-12 5.54216175e-12 2.70602335e-13 9.10096725e-16 2.72576586e-16 5.59296690e-12
6.60693448e-01 5.43847649e-12 5.17969270e-12 2.53996216e-13 4.78757358e-15 1.41960751e-15 5.21966041e-12
7.58577575e-01 5.08691866e-12 4.84021277e-12 2.27014853e-13 1.96910369e-14 5.74140860e-15 4.87127053e-12
8.70963590e-01 4.78886563e-12 4.52253583e-12 2.01908060e-13 6.44217379e-14 1.79786396e-14 4.54613417e-12
1.00000000e+00 4.57823409e-12 4.22505965e-12 1.79009015e-13 1.74165426e-13 4.59259171e-14 4.24269927e-12
1.14815362e+00 4.50769041e-12 3.94656701e-12 1.52495465e-13 4.08627940e-13 9.93634085e-14 3.95951734e-12
1.31825674e+00 4.64852131e-12 3.68589479e-12 1.24083151e-13 8.38543363e-13 1.82736406e-13 3.69523659e-12
1.51356125e+00 5.06561190e-12 3.44192522e-12 1.01014593e-13 1.52267209e-12 2.89560440e-13 3.44859544e-12
1.73780083e+00 5.76799456e-12 3.21373156e-12 7.97548253e-14 2.47450817e-12 3.99275485e-13 3.21841652e-12
1.99526231e+00 6.62463046e-12 3.00036227e-12 6.09734482e-14 3.56329474e-12 4.66449624e-13 3.00360106e-12
2.29086765e+00 7.45893511e-12 2.80089163e-12 4.42552171e-14 4.61378827e-12 4.66957655e-13 2.80312361e-12
2.63026799e+00 8.12922280e-12 2.61447466e-12 3.01028748e-14 5.48464526e-12 4.09634417e-13 2.61602716e-12
3.01995172e+00 8.47368747e-12 2.44032486e-12 2.01914553e-14 6.01317115e-12 3.17171971e-13 2.44141860e-12
3.46736850e+00 8.49068941e-12 2.27768131e-12 1.27363852e-14 6.20027172e-12 2.21781550e-13 2.27846441e-12
3.98107171e+00 8.19728805e-12 2.12581887e-12 7.79920532e-15 6.06366998e-12 1.42254486e-13 2.12638671e-12
4.57088190e+00 7.66118046e-12 1.98404217e-12 4.66593476e-15 5.67247235e-12 8.41927944e-14 1.98445954e-12
5.24807460e+00 6.81543264e-12 1.64056664e-12 2.41626955e-15 5.17244973e-12 4.74778053e-14 1.64084388e-12
6.02559586e+00 5.74049577e-12 1.08394258e-12 9.56941821e-16 4.65559624e-12 2.53688758e-14 1.08409480e-12
6.70000000e+00 5.04765147e-12 7.88476721e-13 4.56134141e-16 4.25871862e-12 1.50462784e-14 7.88574724e-13
6.92422916e+00 4.85054133e-12 7.14333269e-13 3.63079784e-16 4.13584498e-12 1.26936846e-14 7.14418944e-13
7.15596261e+00 4.70143936e-12 6.47160343e-13 2.86581515e-16 4.05399243e-12 1.06944467e-14 6.47236606e-13
7.39545150e+00 4.66383435e-12 5.86301201e-13 2.19647481e-16 4.07731350e-12 9.10470527e-15 5.86371942e-13
7.64295536e+00 4.90933261e-12 5.31157834e-13 1.60585289e-16 4.37801419e-12 8.04620561e-15 5.31230854e-13
7.89874245e+00 5.57729951e-12 4.81189638e-13 1.10609078e-16 5.09599926e-12 7.27051775e-15 4.81275108e-13
8.16308998e+00 6.53598472e-12 4.35912535e-13 7.17417360e-17 6.10000045e-12 6.51353587e-15 4.36017088e-13
8.43628443e+00 7.79233947e-12 3.94883438e-13 4.28749416e-17 7.39741316e-12 5.53998056e-15 3.95015029e-13
8.71862190e+00 8.60518264e-12 3.57722230e-13 2.50804479e-17 8.24743533e-12 4.22640439e-15 3.57868711e-13
9.01040836e+00 9.36078720e-12 3.24054794e-13 1.06769730e-17 9.03672173e-12 2.53523554e-15 3.24215549e-13
9.31196005e+00 9.94674742e-12 2.93558144e-13 0.00000000e+00 9.65318928e-12 0.00000000e+00 2.93727053e-13
9.62360379e+00 9.82898146e-12 2.65948571e-13 0.00000000e+00 9.56303289e-12 0.00000000e+00 2.66105627e-13
9.94567731e+00 9.21444002e-12 2.40948147e-13 0.00000000e+00 8.97349188e-12 0.00000000e+00 2.41081657e-13
1.02785297e+01 8.51240864e-12 2.18301459e-13 0.00000000e+00 8.29410718e-12 0.00000000e+00 2.18410884e-13
1.06225216e+01 7.79995524e-12 1.97783296e-13 0.00000000e+00 7.60217194e-12 0.00000000e+00 1.97872020e-13
1.09780260e+01 7.01432672e-12 1.79195238e-13 0.00000000e+00 6.83513148e-12 0.00000000e+00 1.79264583e-13
1.13454280e+01 6.31355877e-12 1.62352532e-13 0.00000000e+00 6.15120623e-12 0.00000000e+00 1.62406948e-13
1.17251259e+01 5.70072744e-12 1.47091592e-13 0.00000000e+00 5.55363585e-12 0.00000000e+00 1.47134567e-13
1.21175312e+01 5.14260459e-12 1.33264600e-13 0.00000000e+00 5.00933999e-12 0.00000000e+00 1.33298366e-13
1.25230691e+01 4.63186063e-12 1.20736832e-13 0.00000000e+00 4.51112380e-12 0.00000000e+00 1.20763289e-13
1.29421791e+01 4.19033610e-12 1.09386107e-13 0.00000000e+00 4.08094999e-12 0.00000000e+00 1.09406983e-13
1.33753155e+01 3.80543438e-12 9.91020090e-14 0.00000000e+00 3.70633237e-12 0.00000000e+00 9.91185987e-14
1.38229477e+01 3.56815557e-12 8.97839186e-14 0.00000000e+00 3.47837166e-12 0.00000000e+00 8.97977103e-14
1.42855609e+01 3.43058202e-12 8.13413503e-14 0.00000000e+00 3.34924067e-12 0.00000000e+00 8.13533371e-14
1.47636563e+01 3.49452508e-12 7.36916773e-14 0.00000000e+00 3.42083340e-12 0.00000000e+00 7.37030537e-14
1.52577522e+01 3.59470530e-12 6.67611934e-14 0.00000000e+00 3.52794411e-12 0.00000000e+00 6.67721855e-14
1.57683840e+01 3.73518042e-12 6.04823234e-14 0.00000000e+00 3.67469810e-12 0.00000000e+00 6.04930805e-14
1.62961051e+01 3.88581584e-12 5.47939339e-14 0.00000000e+00 3.83102190e-12 0.00000000e+00 5.48044484e-14
1.68414875e+01 4.04066753e-12 4.96405080e-14 0.00000000e+00 3.99102702e-12 0.00000000e+00 4.96507622e-14
1.74051222e+01 4.14003760e-12 4.49719794e-14 0.00000000e+00 4.09506562e-12 0.00000000e+00 4.49817171e-14
1.79876201e+01 4.18785995e-12 4.07426464e-14 0.00000000e+00 4.14711731e-12 0.00000000e+00 4.07517384e-14
1.85896125e+01 4.17102301e-12 3.69113108e-14 0.00000000e+00 4.13411170e-12 0.00000000e+00 3.69195372e-14
1.92117518e+01 4.06746931e-12 3.34404818e-14 0.00000000e+00 4.03402883e-12 0.00000000e+00 3.34477076e-14
1.98547123e+01 3.92501113e-12 3.02961379e-14 0.00000000e+00 3.89471500e-12 0.00000000e+00 3.03023610e-14
2.05191907e+01 3.76196838e-12 2.74474902e-14 0.00000000e+00 3.73452089e-12 0.00000000e+00 2.74527957e-14
2.12059073e+01 3.60190913e-12 2.48666746e-14 0.00000000e+00 3.57704245e-12 0.00000000e+00 2.48711970e-14
2.19156062e+01 3.45738129e-12 2.25284922e-14 0.00000000e+00 3.43485280e-12 0.00000000e+00 2.25323660e-14
2.26490567e+01 3.31775861e-12 2.04101499e-14 0.00000000e+00 3.29734846e-12 0.00000000e+00 2.04134733e-14
2.34070535e+01 3.18512203e-12 1.84909800e-14 0.00000000e+00 3.16663105e-12 0.00000000e+00 1.84938366e-14
2.41904183e+01 3.06154724e-12 1.67522566e-14 0.00000000e+00 3.04479498e-12 0.00000000e+00 1.67547181e-14
2.50000000e+01 2.93891089e-12 1.51770168e-14 0.00000000e+00 2.92373387e-12 0.00000000e+00 1.51791424e-14
2.75422870e+01 2.58103521e-12 1.13504799e-14 0.00000000e+00 2.56968473e-12 0.00000000e+00 1.13518661e-14
3.16227766e+01 2.08132018e-12 7.49934196e-15 0.00000000e+00 2.07382084e-12 0.00000000e+00 7.50010357e-15
3.63078055e+01 1.58071298e-12 4.95485305e-15 0.00000000e+00 1.57575813e-12 0.00000000e+00 4.95526929e-15
4.16869383e+01 1.11686075e-12 3.27369249e-15 0.00000000e+00 1.11358706e-12 0.00000000e+00 3.27391395e-15
4.78630092e+01 7.35086642e-13 2.16293933e-15 0.00000000e+00 7.32923703e-13 0.00000000e+00 2.16305350e-15
5.49540874e+01 4.57298353e-13 1.42905767e-15 0.00000000e+00 4.55869295e-13 0.00000000e+00 1.42911527e-15
6.30957344e+01 2.72637337e-13 9.44178402e-16 0.00000000e+00 2.71693158e-13 0.00000000e+00 9.44207098e-16
7.24435960e+01 1.57272915e-13 6.23817251e-16 0.00000000e+00 1.56649098e-13 0.00000000e+00 6.23831443e-16
8.31763771e+01 8.86008204e-14 4.12154339e-16 0.00000000e+00 8.81886660e-14 0.00000000e+00 4.12161347e-16
9.54992586e+01 4.91117545e-14 2.72308833e-16 0.00000000e+00 4.88394457e-14 0.00000000e+00 2.72312302e-16
1.09647820e+02 2.68990054e-14 1.79913231e-16 0.00000000e+00 2.67190922e-14 0.00000000e+00 1.79914953e-16
1.25892541e+02 1.47709123e-14 1.18867762e-16 0.00000000e+00 1.46520446e-14 0.00000000e+00 1.18868631e-16
1.44543977e+02 8.08170096e-15 7.85352846e-17 0.00000000e+00 8.00316567e-15 0.00000000e+00 7.85357256e-17
1.65958691e+02 4.21480362e-15 5.18878231e-17 0.00000000e+00 4.16291580e-15 0.00000000e+00 5.18880394e-17
1.90546072e+02 2.20461860e-15 3.42819806e-17 0.00000000e+00 2.17033662e-15 0.00000000e+00 3.42820876e-17
2.18776162e+02 1.15340680e-15 2.26498973e-17 0.00000000e+00 1.13075690e-15 0.00000000e+00 2.26499507e-17
2.51188643e+02 6.02421008e-16 1.49646474e-17 0.00000000e+00 5.87456361e-16 0.00000000e+00 1.49646740e-17
2.88403150e+02 3.13794160e-16 9.88704874e-18 0.00000000e+00 3.03907111e-16 0.00000000e+00 9.88706207e-18
3.31131121e+02 1.63368524e-16 6.53231045e-18 0.00000000e+00 1.56836214e-16 0.00000000e+00 6.53231713e-18
3.80189396e+02 8.49600000e-17 4.31585578e-18 0.00000000e+00 8.06441442e-17 0.00000000e+00 4.31585913e-18
4.36515832e+02 4.42210074e-17 2.85145817e-18 0.00000000e+00 4.13695492e-17 0.00000000e+00 2.85145985e-18
5.01187234e+02 2.30499523e-17 1.88394000e-18 0.00000000e+00 2.11660123e-17 0.00000000e+00 1.88394084e-18
5.75439937e+02 1.20503077e-17 1.24470695e-18 0.00000000e+00 1.08056007e-17 0.00000000e+00 1.24470737e-18
6.60693448e+02 6.32831466e-18 8.22369791e-19 0.00000000e+00 5.50594487e-18 0.00000000e+00 8.22370004e-19
7.58577575e+02 3.34416849e-18 5.43334366e-19 0.00000000e+00 2.80083412e-18 0.00000000e+00 5.43334473e-19
8.70963590e+02 1.78130257e-18 3.58977473e-19 0.00000000e+00 1.42232510e-18 0.00000000e+00 3.58977527e-19
1.00000000e+03 7.21116212e-19 0.00000000e+00 0.00000000e+00 7.21116212e-19 0.00000000e+00 0.00000000e+00
