# column 1: lambda (micron)
# column 2: total flux; lambda*F_lambda (W/m2)
# column 3: direct stellar flux; lambda*F_lambda (W/m2)
# column 4: scattered stellar flux; lambda*F_lambda (W/m2)
# column 5: total dust emission flux; lambda*F_lambda (W/m2)
# column 6: dust emission scattered flux; lambda*F_lambda (W/m2)
# column 7: transparent flux; lambda*F_lambda (W/m2)
1.00000000e-03 1.07339263e-12 1.07335627e-12 3.63640917e-17 0.00000000e+00 0.00000000e+00 1.07335627e-12
1.14815362e-03 1.26695790e-12 1.26690456e-12 5.33423753e-17 0.00000000e+00 0.00000000e+00 1.26690456e-12
1.31825674e-03 1.49592376e-12 1.49535359e-12 5.70171707e-16 0.00000000e+00 0.00000000e+00 1.49535359e-12
1.51356125e-03 1.76575724e-12 1.76499670e-12 7.60540973e-16 0.00000000e+00 0.00000000e+00 1.76499670e-12
1.73780083e-03 2.08346305e-12 2.08326203e-12 2.01018798e-16 0.00000000e+00 0.00000000e+00 2.08326203e-12
1.99526231e-03 2.45927951e-12 2.45891716e-12 3.62351875e-16 0.00000000e+00 0.00000000e+00 2.45891716e-12
2.29086765e-03 2.90286457e-12 2.90231066e-12 5.53905750e-16 0.00000000e+00 0.00000000e+00 2.90231066e-12
2.63026799e-03 3.42912578e-12 3.42565717e-12 3.46861477e-15 0.00000000e+00 0.00000000e+00 3.42565717e-12
3.01995172e-03 4.04499457e-12 4.04337385e-12 1.62072746e-15 0.00000000e+00 0.00000000e+00 4.04337385e-12
3.46736850e-03 4.77516900e-12 4.77247759e-12 2.69141475e-15 0.00000000e+00 0.00000000e+00 4.77247759e-12
3.98107171e-03 5.69811064e-12 5.63305378e-12 6.50568581e-14 0.00000000e+00 0.00000000e+00 5.63305378e-12
4.57088190e-03 6.65946503e-12 6.64880962e-12 1.06554132e-14 0.00000000e+00 0.00000000e+00 6.64880962e-12
5.24807460e-03 7.86780644e-12 7.84772720e-12 2.00792409e-14 0.00000000e+00 0.00000000e+00 7.84772720e-12
6.02559586e-03 9.31981374e-12 9.26283435e-12 5.69793874e-14 0.00000000e+00 0.00000000e+00 9.26283435e-12
6.91830971e-03 1.09850965e-11 1.09331145e-11 5.19819397e-14 0.00000000e+00 0.00000000e+00 1.09331145e-11
7.94328235e-03 1.30261545e-11 1.29045807e-11 1.21573803e-13 0.00000000e+00 0.00000000e+00 1.29045807e-11
9.12010839e-03 1.54031412e-11 1.52315429e-11 1.71598325e-13 0.00000000e+00 0.00000000e+00 1.52315429e-11
1.04712855e-02 1.72312969e-11 1.70115517e-11 2.19745223e-13 0.00000000e+00 0.00000000e+00 1.70115517e-11
1.20226443e-02 1.73452169e-11 1.70115517e-11 3.33665182e-13 1.42440681e-310 4.73560635e-311 1.70115517e-11
1.38038426e-02 1.74066396e-11 1.70115517e-11 3.95087917e-13 1.95072766e-271 5.34055191e-272 1.70115517e-11
1.58489319e-02 1.75505086e-11 1.70115517e-11 5.38956885e-13 2.47368157e-237 7.31277345e-238 1.70115517e-11
1.81970086e-02 1.76695758e-11 1.70115517e-11 6.58024092e-13 1.16736637e-207 3.60414806e-208 1.70115517e-11
2.08929613e-02 1.78405358e-11 1.70115517e-11 8.28984104e-13 6.99414176e-182 2.02929024e-182 1.70115517e-11
2.39883292e-02 1.79717509e-11 1.70115517e-11 9.60199199e-13 1.92276537e-159 5.60551235e-160 1.70115517e-11
2.75422870e-02 1.80457808e-11 1.70115517e-11 1.03422904e-12 6.21924103e-140 1.71937057e-140 1.70115517e-11
3.16227766e-02 1.80655733e-11 1.70115517e-11 1.05402163e-12 5.63905681e-123 1.46006008e-123 1.70115517e-11
3.63078055e-02 1.79938213e-11 1.70115517e-11 9.82269595e-13 3.03353962e-108 6.85763555e-109 1.70115517e-11
4.16869383e-02 1.80078786e-11 1.70115517e-11 9.96326834e-13 1.96237195e-95 4.28220856e-96 1.70115517e-11
4.78630092e-02 1.78161986e-11 1.70115517e-11 8.04646846e-13 2.40140325e-84 4.81259411e-85 1.70115517e-11
5.49540874e-02 1.76200516e-11 1.70115517e-11 6.08499881e-13 9.61352549e-75 1.80923645e-75 1.70115517e-11
6.30957344e-02 1.74100062e-11 1.70115517e-11 3.98454492e-13 2.16199289e-66 3.96722960e-67 1.70115517e-11
7.24435960e-02 1.72576922e-11 1.70115517e-11 2.46140463e-13 3.36688488e-59 6.15490800e-60 1.70115517e-11
8.31763771e-02 1.72416255e-11 1.70115517e-11 2.30073734e-13 6.76747975e-53 1.14512946e-53 1.70115517e-11
9.54992586e-02 1.72404390e-11 1.70115517e-11 2.28887269e-13 2.06500474e-47 3.34956755e-48 1.70115517e-11
1.09647820e-01 1.65352971e-11 1.62459122e-11 2.89384915e-13 1.32111085e-42 2.16834931e-43 1.62459122e-11
1.25892541e-01 1.55262968e-11 1.51615674e-11 3.64729362e-13 1.93999305e-38 3.59715806e-39 1.51615674e-11
1.44543977e-01 1.45433339e-11 1.41495980e-11 3.93735960e-13 7.72555993e-35 1.63955122e-35 1.41495980e-11
1.65958691e-01 1.35869088e-11 1.32051732e-11 3.81735646e-13 8.06715969e-32 2.27211233e-32 1.32051732e-11
1.90546072e-01 1.26425834e-11 1.23237846e-11 3.18798736e-13 2.52503922e-29 9.93788177e-30 1.23237846e-11
2.18776162e-01 1.17199054e-11 1.15012250e-11 2.18680344e-13 3.48290944e-27 1.62799772e-27 1.15012250e-11
2.51188643e-01 1.09747201e-11 1.07335677e-11 2.41152356e-13 6.56734444e-25 3.63775843e-25 1.07335677e-11
2.88403150e-01 1.02787262e-11 1.00171482e-11 2.61577932e-13 6.58858084e-23 3.84391766e-23 1.00171482e-11
3.31131121e-01 9.61851922e-12 9.34854667e-12 2.69972547e-13 3.35437891e-21 1.98998289e-21 9.34854667e-12
3.80189396e-01 8.98725391e-12 8.72457139e-12 2.62682422e-13 1.02053139e-19 5.98219878e-20 8.72457139e-12
4.36515832e-01 8.39027103e-12 8.14224377e-12 2.48025311e-13 1.94351340e-18 1.10378758e-18 8.14224377e-12
5.01187234e-01 7.82930302e-12 7.59878402e-12 2.30493321e-13 2.56821998e-17 1.39067453e-17 7.59878402e-12
5.75439937e-01 7.30256832e-12 7.09159786e-12 2.10734859e-13 2.35596669e-16 1.22429485e-16 7.09159786e-12
6.60693448e-01 6.80135218e-12 6.61826421e-12 1.81597427e-13 1.49054217e-15 7.11448148e-16 6.61826421e-12
7.58577575e-01 6.34687680e-12 6.17652353e-12 1.63110876e-13 7.24239348e-15 3.11328015e-15 6.17652353e-12
8.70963590e-01 5.93602652e-12 5.76426715e-12 1.42350231e-13 2.94091322e-14 1.15910484e-14 5.76426715e-12
1.00000000e+00 5.59490142e-12 5.37952711e-12 1.20236370e-13 9.51379404e-14 3.26359240e-14 5.37952711e-12
1.14815362e+00 5.39077505e-12 5.02046681e-12 1.02922136e-13 2.67386102e-13 7.94208721e-14 5.02046681e-12
1.31825674e+00 5.42007629e-12 4.68537225e-12 8.63588096e-14 6.48345235e-13 1.62260410e-13 4.68537225e-12
1.51356125e+00 5.83697026e-12 4.37264380e-12 7.35949005e-14 1.39073156e-12 2.89365324e-13 4.37264380e-12
1.73780083e+00 6.80549165e-12 4.08078863e-12 6.54473265e-14 2.65925569e-12 4.69088988e-13 4.08078863e-12
1.99526231e+00 8.34624431e-12 3.80841354e-12 5.87622982e-14 4.47906847e-12 6.52168208e-13 3.80841354e-12
2.29086765e+00 1.03156245e-11 3.55421832e-12 5.22074062e-14 6.70919876e-12 8.07903210e-13 3.55421832e-12
2.63026799e+00 1.24963356e-11 3.31698953e-12 4.34390940e-14 9.13590698e-12 8.75470754e-13 3.31698953e-12
3.01995172e+00 1.45568390e-11 3.09559474e-12 3.45214663e-14 1.14267228e-11 8.39795694e-13 3.09559474e-12
3.46736850e+00 1.61262951e-11 2.88897711e-12 2.56623903e-14 1.32116556e-11 7.14174055e-13 2.88897711e-12
3.98107171e+00 1.72088914e-11 2.69615031e-12 1.80946643e-14 1.44946464e-11 5.46194422e-13 2.69615031e-12
4.57088190e+00 1.76123426e-11 2.51619387e-12 1.21372909e-14 1.50840115e-11 3.79975452e-13 2.51619387e-12
5.24807460e+00 1.73018023e-11 2.08050667e-12 6.84472165e-15 1.52144509e-11 2.41628931e-13 2.08050667e-12
6.02559586e+00 1.61860624e-11 1.37457712e-12 2.90389846e-15 1.48085814e-11 1.42091023e-13 1.37457712e-12
6.70000000e+00 1.53217222e-11 9.99872685e-13 1.45730001e-15 1.43203922e-11 9.08381713e-14 9.99872685e-13
6.92422916e+00 1.50608621e-11 9.05846924e-13 1.16828482e-15 1.41538469e-11 7.80910453e-14 9.05846924e-13
7.15596261e+00 1.48245653e-11 8.20663132e-13 9.24428132e-16 1.40029777e-11 6.71476147e-14 8.20663132e-13
7.39545150e+00 1.47676285e-11 7.43489831e-13 7.10047347e-16 1.40234286e-11 5.73719041e-14 7.43489831e-13
7.64295536e+00 1.51829275e-11 6.73573732e-13 5.08361154e-16 1.45088454e-11 4.88745878e-14 6.73573732e-13
7.89874245e+00 1.60363218e-11 6.10232385e-13 3.23761280e-16 1.54257656e-11 4.04737012e-14 6.10232385e-13
8.16308998e+00 1.69769786e-11 5.52847515e-13 1.93122527e-16 1.64239380e-11 3.27416918e-14 5.52847515e-13
8.43628443e+00 1.76374116e-11 5.00858987e-13 1.05901984e-16 1.71364467e-11 2.49078073e-14 5.00858987e-13
8.71862190e+00 1.78533427e-11 4.53759343e-13 6.63240605e-17 1.73995171e-11 1.99167942e-14 4.53759343e-13
9.01040836e+00 1.77450830e-11 4.11088843e-13 4.22819013e-17 1.73339519e-11 1.60050904e-14 4.11088843e-13
9.31196005e+00 1.77492728e-11 3.72430980e-13 2.94767347e-17 1.73768124e-11 1.36492567e-14 3.72430980e-13
9.62360379e+00 1.74491560e-11 3.37408415e-13 2.42799347e-17 1.71117233e-11 1.26579986e-14 3.37408415e-13
9.94567731e+00 1.74086577e-11 3.05679292e-13 2.25510501e-17 1.71029558e-11 1.22846363e-14 3.05679292e-13
1.02785297e+01 1.72920320e-11 2.76933904e-13 2.17532840e-17 1.70150763e-11 1.21929427e-14 2.76933904e-13
1.06225216e+01 1.71370405e-11 2.50891667e-13 2.09512268e-17 1.68861278e-11 1.20082350e-14 2.50891667e-13
1.09780260e+01 1.70518302e-11 2.27298384e-13 2.05666710e-17 1.68245112e-11 1.15546115e-14 2.27298384e-13
1.13454280e+01 1.68552485e-11 2.05923759e-13 1.97003833e-17 1.66493051e-11 1.08874035e-14 2.05923759e-13
1.17251259e+01 1.65453249e-11 1.86559155e-13 1.85665517e-17 1.63587472e-11 1.01080747e-14 1.86559155e-13
1.21175312e+01 1.61203818e-11 1.69015555e-13 1.71248877e-17 1.59513491e-11 9.13526032e-15 1.69015555e-13
1.25230691e+01 1.56083782e-11 1.53121715e-13 1.56679691e-17 1.54552408e-11 8.10301547e-15 1.53121715e-13
1.29421791e+01 1.51003685e-11 1.38722496e-13 1.38392484e-17 1.49616322e-11 7.03081568e-15 1.38722496e-13
1.33753155e+01 1.45508622e-11 1.25677347e-13 1.20228775e-17 1.44251728e-11 6.01277505e-15 1.25677347e-13
1.38229477e+01 1.41807979e-11 1.13858934e-13 9.87182613e-18 1.40669291e-11 5.00990320e-15 1.13858934e-13
1.42855609e+01 1.39939437e-11 1.03151898e-13 7.80961460e-18 1.38907840e-11 4.19304342e-15 1.03151898e-13
1.47636563e+01 1.43045980e-11 9.34517274e-14 5.83588385e-18 1.42111405e-11 3.52660051e-15 9.34517274e-14
1.52577522e+01 1.47417517e-11 8.46637387e-14 4.34465526e-18 1.46570836e-11 3.01382290e-15 8.46637387e-14
1.57683840e+01 1.52520435e-11 7.67021526e-14 3.18522155e-18 1.51753381e-11 2.55814834e-15 7.67021526e-14
1.62961051e+01 1.57378702e-11 6.94892560e-14 2.36472437e-18 1.56683786e-11 2.18668173e-15 6.94892560e-14
1.68414875e+01 1.62461112e-11 6.29546439e-14 1.73527851e-18 1.61831548e-11 1.83625495e-15 6.29546439e-14
1.74051222e+01 1.65692548e-11 5.70345319e-14 1.31216073e-18 1.65122189e-11 1.54480591e-15 5.70345319e-14
1.79876201e+01 1.68986819e-11 5.16711337e-14 9.85947537e-19 1.68470097e-11 1.26441240e-15 5.16711337e-14
1.85896125e+01 1.69103807e-11 4.68120974e-14 7.48363649e-19 1.68635679e-11 1.02232939e-15 4.68120974e-14
1.92117518e+01 1.67882170e-11 4.24099939e-14 5.63232466e-19 1.67458065e-11 7.87679182e-16 4.24099939e-14
1.98547123e+01 1.65234725e-11 3.84218542e-14 4.07010361e-19 1.64850502e-11 5.80945377e-16 3.84218542e-14
2.05191907e+01 1.61569530e-11 3.48087501e-14 2.63177522e-19 1.61221440e-11 3.80517452e-16 3.48087501e-14
2.12059073e+01 1.56871495e-11 3.15354141e-14 1.42535542e-19 1.56556139e-11 2.14903583e-16 3.15354141e-14
2.19156062e+01 1.52560553e-11 2.85698952e-14 5.74893225e-20 1.52274854e-11 1.01715439e-16 2.85698952e-14
2.26490567e+01 1.48079828e-11 2.58832470e-14 1.25949959e-20 1.47820995e-11 3.48722561e-17 2.58832470e-14
2.34070535e+01 1.43411839e-11 2.34492452e-14 9.16634640e-22 1.43177347e-11 6.41337170e-18 2.34492452e-14
2.41904183e+01 1.38440450e-11 2.12441313e-14 0.00000000e+00 1.38228009e-11 3.64790589e-19 2.12441313e-14
2.50000000e+01 1.33306355e-11 1.92463813e-14 0.00000000e+00 1.33113891e-11 0.00000000e+00 1.92463813e-14
2.75422870e+01 1.17375280e-11 1.43935895e-14 0.00000000e+00 1.17231344e-11 0.00000000e+00 1.43935895e-14
3.16227766e+01 9.38316809e-12 9.50975027e-15 0.00000000e+00 9.37365834e-12 0.00000000e+00 9.50975027e-15
3.63078055e+01 7.03679063e-12 6.28302969e-15 0.00000000e+00 7.03050760e-12 0.00000000e+00 6.28302969e-15
4.16869383e+01 4.89586438e-12 4.15115655e-15 0.00000000e+00 4.89171322e-12 0.00000000e+00 4.15115655e-15
4.78630092e+01 3.17359923e-12 2.74264194e-15 0.00000000e+00 3.17085658e-12 0.00000000e+00 2.74264194e-15
5.49540874e+01 1.94495115e-12 1.81204556e-15 0.00000000e+00 1.94313910e-12 0.00000000e+00 1.81204556e-15
6.30957344e+01 1.14139179e-12 1.19720663e-15 0.00000000e+00 1.14019459e-12 0.00000000e+00 1.19720663e-15
7.24435960e+01 6.47791280e-13 7.90986575e-16 0.00000000e+00 6.47000293e-13 0.00000000e+00 7.90986575e-16
8.31763771e+01 3.59089657e-13 5.22599647e-16 0.00000000e+00 3.58567057e-13 0.00000000e+00 5.22599647e-16
9.54992586e+01 1.95974288e-13 3.45278163e-16 0.00000000e+00 1.95629010e-13 0.00000000e+00 3.45278163e-16
1.09647820e+02 1.05769713e-13 2.28123020e-16 0.00000000e+00 1.05541590e-13 0.00000000e+00 2.28123020e-16
1.25892541e+02 5.72708564e-14 1.50719385e-16 0.00000000e+00 5.71201371e-14 0.00000000e+00 1.50719385e-16
1.44543977e+02 3.09351993e-14 9.95793099e-17 0.00000000e+00 3.08356200e-14 0.00000000e+00 9.95793099e-17
1.65958691e+02 1.59519324e-14 6.57913976e-17 0.00000000e+00 1.58861410e-14 0.00000000e+00 6.57913976e-17
1.90546072e+02 8.25341173e-15 4.34679453e-17 0.00000000e+00 8.20994379e-15 0.00000000e+00 4.34679453e-17
2.18776162e+02 4.27284873e-15 2.87189867e-17 0.00000000e+00 4.24412974e-15 0.00000000e+00 2.87189867e-17
2.51188643e+02 2.20871147e-15 1.89744463e-17 0.00000000e+00 2.18973702e-15 0.00000000e+00 1.89744463e-17
2.88403150e+02 1.13851739e-15 1.25362924e-17 0.00000000e+00 1.12598109e-15 0.00000000e+00 1.25362924e-17
3.31131121e+02 5.86268992e-16 8.28264623e-18 0.00000000e+00 5.77986346e-16 0.00000000e+00 8.28264623e-18
3.80189396e+02 3.01291443e-16 5.47229010e-18 0.00000000e+00 2.95819152e-16 0.00000000e+00 5.47229010e-18
4.36515832e+02 1.54750339e-16 3.61550621e-18 0.00000000e+00 1.51134833e-16 0.00000000e+00 3.61550621e-18
5.01187234e+02 7.94400590e-17 2.38874127e-18 0.00000000e+00 7.70513178e-17 0.00000000e+00 2.38874127e-18
5.75439937e+02 4.07925182e-17 1.57822570e-18 0.00000000e+00 3.92142925e-17 0.00000000e+00 1.57822570e-18
6.60693448e+02 2.09701697e-17 1.04272338e-18 0.00000000e+00 1.99274463e-17 0.00000000e+00 1.04272338e-18
7.58577575e+02 1.08019601e-17 6.88920507e-19 0.00000000e+00 1.01130396e-17 0.00000000e+00 6.88920507e-19
8.70963590e+02 5.58022414e-18 4.55165265e-19 0.00000000e+00 5.12505888e-18 0.00000000e+00 4.55165265e-19
1.00000000e+03 2.59373642e-18 0.00000000e+00 0.00000000e+00 2.59373642e-18 0.00000000e+00 0.00000000e+00
