# column 1: lambda (micron)
# column 2: total flux; lambda*F_lambda (W/m2)
# column 3: direct stellar flux; lambda*F_lambda (W/m2)
# column 4: scattered stellar flux; lambda*F_lambda (W/m2)
# column 5: total dust emission flux; lambda*F_lambda (W/m2)
# column 6: dust emission scattered flux; lambda*F_lambda (W/m2)
# column 7: transparent flux; lambda*F_lambda (W/m2)
1.00000000e-03 6.92137157e-13 6.92123914e-13 1.32422698e-17 0.00000000e+00 0.00000000e+00 6.93993746e-13
1.14815362e-03 8.16332697e-13 8.16220603e-13 1.12094021e-16 0.00000000e+00 0.00000000e+00 8.19135139e-13
1.31825674e-03 9.62488474e-13 9.62470438e-13 1.80354192e-17 0.00000000e+00 0.00000000e+00 9.66842108e-13
1.51356125e-03 1.13512993e-12 1.13510271e-12 2.72194671e-17 0.00000000e+00 0.00000000e+00 1.14118369e-12
1.73780083e-03 1.33982023e-12 1.33971117e-12 1.09063658e-16 0.00000000e+00 0.00000000e+00 1.34696266e-12
1.99526231e-03 1.62414276e-12 1.57850990e-12 4.56328553e-14 0.00000000e+00 0.00000000e+00 1.58984782e-12
2.29086765e-03 1.86352592e-12 1.86234225e-12 1.18366442e-15 0.00000000e+00 0.00000000e+00 1.87653019e-12
2.63026799e-03 2.20246622e-12 2.19485434e-12 7.61187930e-15 0.00000000e+00 0.00000000e+00 2.21490731e-12
3.01995172e-03 2.73968457e-12 2.58505891e-12 1.54625656e-13 0.00000000e+00 0.00000000e+00 2.61430080e-12
3.46736850e-03 3.04929488e-12 3.04507239e-12 4.22248599e-15 0.00000000e+00 0.00000000e+00 3.08571319e-12
3.98107171e-03 3.62296403e-12 3.58727498e-12 3.56890482e-14 0.00000000e+00 0.00000000e+00 3.64213095e-12
4.57088190e-03 4.38734449e-12 4.25558361e-12 1.31760882e-13 0.00000000e+00 0.00000000e+00 4.29888232e-12
5.24807460e-03 5.01967649e-12 5.00887590e-12 1.08005874e-14 0.00000000e+00 0.00000000e+00 5.07405951e-12
6.02559586e-03 5.91398230e-12 5.89637282e-12 1.76094733e-14 0.00000000e+00 0.00000000e+00 5.98901715e-12
6.91830971e-03 6.97130461e-12 6.94290719e-12 2.83974251e-14 0.00000000e+00 0.00000000e+00 7.06896053e-12
7.94328235e-03 8.27831364e-12 8.17782020e-12 1.00493445e-13 3.24533069e-303 4.89497977e-305 8.34363998e-12
9.12010839e-03 9.75171770e-12 9.63121802e-12 1.20499682e-13 1.69972623e-264 1.44044692e-266 9.84817045e-12
1.04712855e-02 1.08525150e-11 1.07414630e-11 1.11052010e-13 8.43259668e-231 6.58072196e-233 1.09990604e-11
1.20226443e-02 1.08492099e-11 1.07264500e-11 1.22759965e-13 1.52255645e-201 1.54593934e-203 1.09990604e-11
1.38038426e-02 1.08563420e-11 1.07086701e-11 1.47671888e-13 4.68753858e-176 5.19303656e-178 1.09990604e-11
1.58489319e-02 1.08432941e-11 1.06868605e-11 1.56433650e-13 7.07014662e-154 1.04522305e-155 1.09990604e-11
1.81970086e-02 1.08407104e-11 1.06667843e-11 1.73926085e-13 1.38270625e-134 2.12049472e-136 1.09990604e-11
2.08929613e-02 1.08485274e-11 1.06501254e-11 1.98402045e-13 7.86505001e-118 1.68265432e-119 1.09990604e-11
2.39883292e-02 1.08333846e-11 1.06285798e-11 2.04804820e-13 2.96573288e-103 7.51579142e-105 1.09990604e-11
2.75422870e-02 1.08278162e-11 1.06035732e-11 2.24242979e-13 1.41460931e-90 4.27160566e-92 1.09990604e-11
3.16227766e-02 1.08179232e-11 1.05791186e-11 2.38804617e-13 1.45855498e-79 5.16753785e-81 1.09990604e-11
3.63078055e-02 1.08096327e-11 1.05599770e-11 2.49655728e-13 5.30795583e-70 2.09742448e-71 1.09990604e-11
4.16869383e-02 1.08295605e-11 1.05434489e-11 2.86111602e-13 1.05758940e-61 5.33745723e-63 1.09990604e-11
4.78630092e-02 1.08061571e-11 1.04980234e-11 3.08133738e-13 1.66630170e-54 1.05889772e-55 1.09990604e-11
5.49540874e-02 1.07657092e-11 1.04351758e-11 3.30533362e-13 2.85926278e-48 2.04683901e-49 1.09990604e-11
6.30957344e-02 1.06225235e-11 1.02792351e-11 3.43288402e-13 9.49060954e-43 7.71853431e-44 1.09990604e-11
7.24435960e-02 1.04246080e-11 1.00975335e-11 3.27074477e-13 5.58528649e-38 4.34600403e-39 1.09990604e-11
8.31763771e-02 1.04307954e-11 1.01135712e-11 3.17224112e-13 5.83116188e-34 4.44438208e-35 1.09990604e-11
9.54992586e-02 1.04697000e-11 1.01607561e-11 3.08943854e-13 1.67693303e-30 1.32891571e-31 1.09990604e-11
1.09647820e-01 1.01519492e-11 9.83452545e-12 3.17423789e-13 1.45298158e-27 1.23392731e-28 1.05040253e-11
1.25892541e-01 9.57501476e-12 9.28563562e-12 2.89379133e-13 4.77826663e-25 3.94378285e-26 9.80292679e-12
1.44543977e-01 9.00068758e-12 8.74663783e-12 2.54049746e-13 6.59112058e-23 5.28966968e-24 9.14862359e-12
1.65958691e-01 8.46019733e-12 8.20898110e-12 2.51216226e-13 3.38334419e-21 2.95384937e-22 8.53799231e-12
1.90546072e-01 7.89722379e-12 7.64096775e-12 2.56255971e-13 7.23793643e-20 7.53670927e-21 7.96811805e-12
2.18776162e-01 7.31661610e-12 7.07942437e-12 2.37190861e-13 8.63364317e-19 9.38470559e-20 7.43628044e-12
2.51188643e-01 6.92124562e-12 6.67229237e-12 2.48942586e-13 1.06669612e-17 1.40198613e-18 6.93994070e-12
2.88403150e-01 6.49990900e-12 6.26865968e-12 2.31160108e-13 8.92078551e-17 1.14444238e-17 6.47672950e-12
3.31131121e-01 6.08218890e-12 5.87480983e-12 2.06866267e-13 5.12803781e-16 6.33855597e-17 6.04443567e-12
3.80189396e-01 5.68826138e-12 5.50174022e-12 1.84378392e-13 2.14276319e-15 2.56845024e-16 5.64099558e-12
4.36515832e-01 5.32765127e-12 5.15119397e-12 1.69650588e-13 6.80671575e-15 8.07179139e-16 5.26448339e-12
5.01187234e-01 4.98830058e-12 4.82219091e-12 1.49057682e-13 1.70519845e-14 2.00632467e-15 4.91310176e-12
5.75439937e-01 4.68639957e-12 4.51298220e-12 1.38109339e-13 3.53080301e-14 4.15789478e-15 4.58517335e-12
6.60693448e-01 4.40758955e-12 4.22231088e-12 1.22494536e-13 6.27841345e-14 7.41492540e-15 4.27913275e-12
7.58577575e-01 4.15905597e-12 3.94934341e-12 1.08002407e-13 1.01710156e-13 1.24654414e-14 3.99351904e-12
8.70963590e-01 3.94433300e-12 3.69338850e-12 9.46835766e-14 1.56260921e-13 2.01490646e-14 3.72696882e-12
1.00000000e+00 3.77047020e-12 3.45309898e-12 8.20571216e-14 2.35314103e-13 3.23157276e-14 3.47820968e-12
1.14815362e+00 3.65981426e-12 3.22761277e-12 6.82613480e-14 3.63940142e-13 5.14645286e-14 3.24605414e-12
1.31825674e+00 3.64774065e-12 3.01608755e-12 5.60728914e-14 5.75580208e-13 7.95349152e-14 3.02939399e-12
1.51356125e+00 3.76629889e-12 2.81769183e-12 4.63477601e-14 9.02259301e-13 1.17172506e-13 2.82719497e-12
1.73780083e+00 4.00819353e-12 2.63181597e-12 3.64941991e-14 1.33988336e-12 1.54765539e-13 2.63849186e-12
1.99526231e+00 4.33781228e-12 2.45776807e-12 2.81402122e-14 1.85190400e-12 1.80402398e-13 2.46238388e-12
2.29086765e+00 4.68492790e-12 2.29484908e-12 2.12563954e-14 2.36882243e-12 1.87492971e-13 2.29803035e-12
2.63026799e+00 4.98170558e-12 2.14243374e-12 1.55505081e-14 2.82372133e-12 1.74171756e-13 2.14464670e-12
3.01995172e+00 5.17003919e-12 1.99994164e-12 1.07547995e-14 3.15934275e-12 1.45279558e-13 2.00150076e-12
3.46736850e+00 5.21038413e-12 1.86679284e-12 7.14951721e-15 3.33644177e-12 1.10866652e-13 1.86790919e-12
3.98107171e+00 5.11992055e-12 1.74242478e-12 4.61884722e-15 3.37287693e-12 7.67774560e-14 1.74323429e-12
4.57088190e+00 4.89451736e-12 1.62628588e-12 2.80725051e-15 3.26542423e-12 4.90519557e-14 1.62688090e-12
5.24807460e+00 4.41755527e-12 1.34478590e-12 1.51904079e-15 3.07125033e-12 2.94973913e-14 1.34518114e-12
6.02559586e+00 3.71825762e-12 8.88535363e-13 6.18890739e-16 2.82910336e-12 1.65552436e-14 8.88752369e-13
6.70000000e+00 3.26286370e-12 6.46342169e-13 2.98874763e-16 2.61622265e-12 1.01339145e-14 6.46481889e-13
6.92422916e+00 3.13568847e-12 5.85566053e-13 2.38157568e-16 2.54988426e-12 8.59899740e-15 5.85688198e-13
7.15596261e+00 3.03367000e-12 5.30502681e-13 1.87936679e-16 2.50297939e-12 7.25928907e-15 5.30611407e-13
7.39545150e+00 2.98983895e-12 4.80613060e-13 1.45412033e-16 2.50908048e-12 6.19537714e-15 4.80713913e-13
7.64295536e+00 3.10031431e-12 4.35404564e-13 1.05257616e-16 2.66480449e-12 5.38367522e-15 4.35508666e-13
7.89874245e+00 3.43691370e-12 3.94432568e-13 7.07663862e-17 3.04241037e-12 4.68811234e-15 3.94554418e-13
8.16308998e+00 3.92121074e-12 3.57302364e-13 4.54427051e-17 3.56386293e-12 4.05717525e-15 3.57451415e-13
8.43628443e+00 4.54520037e-12 3.23649903e-13 2.68153492e-17 4.22152365e-12 3.32490082e-15 3.23837494e-13
8.71862190e+00 4.92833934e-12 2.93175739e-13 1.65153742e-17 4.63514708e-12 2.54260520e-15 2.93384550e-13
9.01040836e+00 5.29258986e-12 2.65566181e-13 7.98063095e-18 5.02701570e-12 1.65178456e-15 2.65795332e-13
9.31196005e+00 5.51477530e-12 2.40559773e-13 0.00000000e+00 5.27421553e-12 0.00000000e+00 2.40800541e-13
9.62360379e+00 5.44116326e-12 2.17932334e-13 0.00000000e+00 5.22323093e-12 0.00000000e+00 2.18156204e-13
9.94567731e+00 5.13955530e-12 1.97450978e-13 0.00000000e+00 4.94210432e-12 0.00000000e+00 1.97641289e-13
1.02785297e+01 4.77277577e-12 1.78899568e-13 0.00000000e+00 4.59387620e-12 0.00000000e+00 1.79055550e-13
1.06225216e+01 4.38029354e-12 1.62091096e-13 0.00000000e+00 4.21820244e-12 0.00000000e+00 1.62217572e-13
1.09780260e+01 3.97282879e-12 1.46864146e-13 0.00000000e+00 3.82596464e-12 0.00000000e+00 1.46962999e-13
1.13454280e+01 3.60449283e-12 1.33065359e-13 0.00000000e+00 3.47142747e-12 0.00000000e+00 1.33142932e-13
1.17251259e+01 3.26711532e-12 1.20561208e-13 0.00000000e+00 3.14655411e-12 0.00000000e+00 1.20622472e-13
1.21175312e+01 2.94945673e-12 1.09231272e-13 0.00000000e+00 2.84022546e-12 0.00000000e+00 1.09279408e-13
1.25230691e+01 2.65574929e-12 9.89653023e-14 0.00000000e+00 2.55678398e-12 0.00000000e+00 9.90030204e-14
1.29421791e+01 2.39488698e-12 8.96632394e-14 0.00000000e+00 2.30522374e-12 0.00000000e+00 8.96930008e-14
1.33753155e+01 2.17092103e-12 8.12348233e-14 0.00000000e+00 2.08968621e-12 0.00000000e+00 8.12584743e-14
1.38229477e+01 2.01463797e-12 7.35974494e-14 0.00000000e+00 1.94104052e-12 0.00000000e+00 7.36171115e-14
1.42855609e+01 1.91497972e-12 6.66772362e-14 0.00000000e+00 1.84830249e-12 0.00000000e+00 6.66943252e-14
1.47636563e+01 1.91899285e-12 6.04063233e-14 0.00000000e+00 1.85858653e-12 0.00000000e+00 6.04225420e-14
1.52577522e+01 1.94132710e-12 5.47248722e-14 0.00000000e+00 1.88660223e-12 0.00000000e+00 5.47405431e-14
1.57683840e+01 1.97341683e-12 4.95775307e-14 0.00000000e+00 1.92383930e-12 0.00000000e+00 4.95928665e-14
1.62961051e+01 2.01860496e-12 4.49142759e-14 0.00000000e+00 1.97369068e-12 0.00000000e+00 4.49292657e-14
1.68414875e+01 2.05251160e-12 4.06896007e-14 0.00000000e+00 2.01182200e-12 0.00000000e+00 4.07042194e-14
1.74051222e+01 2.05979226e-12 3.68626046e-14 0.00000000e+00 2.02292966e-12 0.00000000e+00 3.68764869e-14
1.79876201e+01 2.04001828e-12 3.33957440e-14 0.00000000e+00 2.00662253e-12 0.00000000e+00 3.34087056e-14
1.85896125e+01 1.98812719e-12 3.02552990e-14 0.00000000e+00 1.95787189e-12 0.00000000e+00 3.02670267e-14
1.92117518e+01 1.89975530e-12 2.74104828e-14 0.00000000e+00 1.87234481e-12 0.00000000e+00 2.74207841e-14
1.98547123e+01 1.79276691e-12 2.48333239e-14 0.00000000e+00 1.76793359e-12 0.00000000e+00 2.48421957e-14
2.05191907e+01 1.68637537e-12 2.24985283e-14 0.00000000e+00 1.66387684e-12 0.00000000e+00 2.25060919e-14
2.12059073e+01 1.57723830e-12 2.03832227e-14 0.00000000e+00 1.55685508e-12 0.00000000e+00 2.03896700e-14
2.19156062e+01 1.48113994e-12 1.84667491e-14 0.00000000e+00 1.46267319e-12 0.00000000e+00 1.84722717e-14
2.26490567e+01 1.38894476e-12 1.67304431e-14 0.00000000e+00 1.37221432e-12 0.00000000e+00 1.67351811e-14
2.34070535e+01 1.30176753e-12 1.51573702e-14 0.00000000e+00 1.28661016e-12 0.00000000e+00 1.51614426e-14
2.41904183e+01 1.22048941e-12 1.37321857e-14 0.00000000e+00 1.20675723e-12 0.00000000e+00 1.37356949e-14
2.50000000e+01 1.14354543e-12 1.24409909e-14 0.00000000e+00 1.13110444e-12 0.00000000e+00 1.24440213e-14
2.75422870e+01 9.35947258e-13 9.30440349e-15 0.00000000e+00 9.26642855e-13 0.00000000e+00 9.30637977e-15
3.16227766e+01 6.84144152e-13 6.14757833e-15 0.00000000e+00 6.77996574e-13 0.00000000e+00 6.14866414e-15
3.63078055e+01 4.75273140e-13 4.06178868e-15 0.00000000e+00 4.71211351e-13 0.00000000e+00 4.06238211e-15
4.16869383e+01 3.09719138e-13 2.68367351e-15 0.00000000e+00 3.07035465e-13 0.00000000e+00 2.68398924e-15
4.78630092e+01 1.89767648e-13 1.77313133e-15 0.00000000e+00 1.87994517e-13 0.00000000e+00 1.77329411e-15
5.49540874e+01 1.10830372e-13 1.17152167e-15 0.00000000e+00 1.09658851e-13 0.00000000e+00 1.17160380e-15
6.30957344e+01 6.25002506e-14 7.74030041e-16 0.00000000e+00 6.17262206e-14 0.00000000e+00 7.74070953e-16
7.24435960e+01 3.43766575e-14 5.11403373e-16 0.00000000e+00 3.38652542e-14 0.00000000e+00 5.11423607e-16
8.31763771e+01 1.85950843e-14 3.37884235e-16 0.00000000e+00 1.82572000e-14 0.00000000e+00 3.37894226e-16
9.54992586e+01 9.96071131e-15 2.23239556e-16 0.00000000e+00 9.73747175e-15 0.00000000e+00 2.23244502e-16
1.09647820e+02 5.30557695e-15 1.47493723e-16 0.00000000e+00 5.15808323e-15 0.00000000e+00 1.47496179e-16
1.25892541e+02 2.84891136e-15 9.74485212e-17 0.00000000e+00 2.75146284e-15 0.00000000e+00 9.74497594e-17
1.44543977e+02 1.53245428e-15 6.43837888e-17 0.00000000e+00 1.46807049e-15 0.00000000e+00 6.43844175e-17
1.65958691e+02 7.90295830e-16 4.25380545e-17 0.00000000e+00 7.47757776e-16 0.00000000e+00 4.25383628e-17
1.90546072e+02 4.10996083e-16 2.81046649e-17 0.00000000e+00 3.82891418e-16 0.00000000e+00 2.81048176e-17
2.18776162e+02 2.15020473e-16 1.85685928e-17 0.00000000e+00 1.96451880e-16 0.00000000e+00 1.85686688e-17
2.51188643e+02 1.12995290e-16 1.22681598e-17 0.00000000e+00 1.00727130e-16 0.00000000e+00 1.22681978e-17
2.88403150e+02 5.96288806e-17 8.10549892e-18 0.00000000e+00 5.15233817e-17 0.00000000e+00 8.10551794e-18
3.31131121e+02 3.16872578e-17 5.35525306e-18 0.00000000e+00 2.63320047e-17 0.00000000e+00 5.35526259e-18
3.80189396e+02 1.69648579e-17 3.53818213e-18 0.00000000e+00 1.34266758e-17 0.00000000e+00 3.53818691e-18
4.36515832e+02 9.17585503e-18 2.33765451e-18 0.00000000e+00 6.83820052e-18 0.00000000e+00 2.33765691e-18
5.01187234e+02 5.02139523e-18 1.54447340e-18 0.00000000e+00 3.47692183e-18 0.00000000e+00 1.54447460e-18
5.75439937e+02 2.78595037e-18 1.02042365e-18 0.00000000e+00 1.76552672e-18 0.00000000e+00 1.02042425e-18
6.60693448e+02 1.56963745e-18 6.74187313e-19 0.00000000e+00 8.95450140e-19 0.00000000e+00 6.74187617e-19
7.58577575e+02 8.99117990e-19 4.45431188e-19 0.00000000e+00 4.53686802e-19 0.00000000e+00 4.45431341e-19
8.70963590e+02 5.23888661e-19 2.94293492e-19 0.00000000e+00 2.29595170e-19 0.00000000e+00 2.94293569e-19
1.00000000e+03 1.16055682e-19 0.00000000e+00 0.00000000e+00 1.16055682e-19 0.00000000e+00 0.00000000e+00
