# column 1: lambda (micron)
# column 2: total flux; lambda*F_lambda (W/m2)
# column 3: direct stellar flux; lambda*F_lambda (W/m2)
# column 4: scattered stellar flux; lambda*F_lambda (W/m2)
# column 5: total dust emission flux; lambda*F_lambda (W/m2)
# column 6: dust emission scattered flux; lambda*F_lambda (W/m2)
# column 7: transparent flux; lambda*F_lambda (W/m2)
1.00000000e-03 1.07335636e-12 1.07335627e-12 9.43850303e-20 0.00000000e+00 0.00000000e+00 1.07335627e-12
1.14815362e-03 1.26690472e-12 1.26690456e-12 1.59975058e-19 0.00000000e+00 0.00000000e+00 1.26690456e-12
1.31825674e-03 1.49535383e-12 1.49535359e-12 2.41868297e-19 0.00000000e+00 0.00000000e+00 1.49535359e-12
1.51356125e-03 1.76499708e-12 1.76499670e-12 3.77137474e-19 0.00000000e+00 0.00000000e+00 1.76499670e-12
1.73780083e-03 2.08326273e-12 2.08326203e-12 6.98705956e-19 0.00000000e+00 0.00000000e+00 2.08326203e-12
1.99526231e-03 2.45891837e-12 2.45891716e-12 1.21223069e-18 0.00000000e+00 0.00000000e+00 2.45891716e-12
2.29086765e-03 2.90231266e-12 2.90231066e-12 1.99243722e-18 0.00000000e+00 0.00000000e+00 2.90231066e-12
2.63026799e-03 3.42566126e-12 3.42565717e-12 4.08692677e-18 0.00000000e+00 0.00000000e+00 3.42565717e-12
3.01995172e-03 4.04338056e-12 4.04337385e-12 6.71621202e-18 0.00000000e+00 0.00000000e+00 4.04337385e-12
3.46736850e-03 4.77248894e-12 4.77247759e-12 1.13502912e-17 0.00000000e+00 0.00000000e+00 4.77247759e-12
3.98107171e-03 5.63307260e-12 5.63305378e-12 1.88147785e-17 0.00000000e+00 0.00000000e+00 5.63305378e-12
4.57088190e-03 6.64884989e-12 6.64880962e-12 4.02740361e-17 0.00000000e+00 0.00000000e+00 6.64880962e-12
5.24807460e-03 7.84780163e-12 7.84772720e-12 7.44348285e-17 0.00000000e+00 0.00000000e+00 7.84772720e-12
6.02559586e-03 9.26297033e-12 9.26283435e-12 1.35975140e-16 0.00000000e+00 0.00000000e+00 9.26283435e-12
6.91830971e-03 1.09333270e-11 1.09331145e-11 2.12493539e-16 0.00000000e+00 0.00000000e+00 1.09331145e-11
7.94328235e-03 1.29049646e-11 1.29045807e-11 3.83875905e-16 0.00000000e+00 0.00000000e+00 1.29045807e-11
9.12010839e-03 1.52321042e-11 1.52315429e-11 5.61267481e-16 0.00000000e+00 0.00000000e+00 1.52315429e-11
1.04712855e-02 1.70123193e-11 1.70115517e-11 7.67600957e-16 0.00000000e+00 0.00000000e+00 1.70115517e-11
1.20226443e-02 1.70127098e-11 1.70115517e-11 1.15813080e-15 0.00000000e+00 0.00000000e+00 1.70115517e-11
1.38038426e-02 1.70138071e-11 1.70115517e-11 2.25533415e-15 5.05634152e-289 7.76286272e-291 1.70115517e-11
1.58489319e-02 1.70139018e-11 1.70115517e-11 2.35012044e-15 2.69288857e-252 4.69328119e-254 1.70115517e-11
1.81970086e-02 1.70151560e-11 1.70115517e-11 3.60423907e-15 2.47738663e-220 5.13951065e-222 1.70115517e-11
2.08929613e-02 1.70158651e-11 1.70115517e-11 4.31338273e-15 1.52509659e-192 3.42692779e-194 1.70115517e-11
2.39883292e-02 1.70198448e-11 1.70115517e-11 8.29313171e-15 2.35206230e-168 5.99185414e-170 1.70115517e-11
2.75422870e-02 1.70198464e-11 1.70115517e-11 8.29470935e-15 2.64734425e-147 8.73934720e-149 1.70115517e-11
3.16227766e-02 1.70218850e-11 1.70115517e-11 1.03332385e-14 5.33680134e-129 2.01105497e-130 1.70115517e-11
3.63078055e-02 1.70238833e-11 1.70115517e-11 1.23315657e-14 4.34752034e-113 1.75387187e-114 1.70115517e-11
4.16869383e-02 1.70291747e-11 1.70115517e-11 1.76229654e-14 2.94230923e-99 1.50483042e-100 1.70115517e-11
4.78630092e-02 1.70363246e-11 1.70115517e-11 2.47728767e-14 3.04205321e-87 1.95348213e-88 1.70115517e-11
5.49540874e-02 1.70453946e-11 1.70115517e-11 3.38429044e-14 8.21085120e-77 6.17544801e-78 1.70115517e-11
6.30957344e-02 1.70542552e-11 1.70115517e-11 4.27035317e-14 1.22883946e-67 1.07570729e-68 1.70115517e-11
7.24435960e-02 1.70536693e-11 1.70115517e-11 4.21175417e-14 1.09493583e-59 9.05919580e-61 1.70115517e-11
8.31763771e-02 1.70519753e-11 1.70115517e-11 4.04236324e-14 6.76596795e-53 5.45527743e-54 1.70115517e-11
9.54992586e-02 1.70560440e-11 1.70115517e-11 4.44922604e-14 5.06540635e-47 4.30702570e-48 1.70115517e-11
1.09647820e-01 1.62911766e-11 1.62459122e-11 4.52644295e-14 5.58437064e-42 5.04613946e-43 1.62459122e-11
1.25892541e-01 1.52003430e-11 1.51615674e-11 3.87756018e-14 1.24915871e-37 1.09710313e-38 1.51615674e-11
1.44543977e-01 1.41847531e-11 1.41495980e-11 3.51550866e-14 6.78637249e-34 5.66382293e-35 1.41495980e-11
1.65958691e-01 1.32419329e-11 1.32051732e-11 3.67596887e-14 8.56328134e-31 7.79184049e-32 1.32051732e-11
1.90546072e-01 1.23677337e-11 1.23237846e-11 4.39490484e-14 2.97789289e-28 3.22504165e-29 1.23237846e-11
2.18776162e-01 1.15479165e-11 1.15012250e-11 4.66914899e-14 4.05146491e-26 4.71786946e-27 1.15012250e-11
2.51188643e-01 1.07900096e-11 1.07335677e-11 5.64418357e-14 4.22835585e-24 5.97893733e-25 1.07335677e-11
2.88403150e-01 1.00680463e-11 1.00171482e-11 5.08980218e-14 2.31053444e-22 3.21383574e-23 1.00171482e-11
3.31131121e-01 9.39220994e-12 9.34854667e-12 4.36632592e-14 7.07472510e-21 9.82827287e-22 9.34854667e-12
3.80189396e-01 8.76456602e-12 8.72457139e-12 3.99944994e-14 1.33932885e-19 1.88763194e-20 8.72457139e-12
4.36515832e-01 8.17965650e-12 8.14224377e-12 3.74110414e-14 1.68652434e-18 2.43505688e-19 8.14224377e-12
5.01187234e-01 7.63266240e-12 7.59878402e-12 3.38634183e-14 1.49674524e-17 2.22725723e-18 7.59878402e-12
5.75439937e-01 7.12315727e-12 7.09159786e-12 3.14616634e-14 9.77412550e-17 1.46650289e-17 7.09159786e-12
6.60693448e-01 6.64803200e-12 6.61826421e-12 2.92831297e-14 4.84666704e-16 7.22847642e-17 6.61826421e-12
7.58577575e-01 6.20602805e-12 6.17652353e-12 2.75999147e-14 1.90460459e-15 2.78290436e-16 6.17652353e-12
8.70963590e-01 5.79491081e-12 5.76426715e-12 2.45529646e-14 6.09069714e-15 8.43643217e-16 5.76426715e-12
1.00000000e+00 5.41770607e-12 5.37952711e-12 2.19885550e-14 1.61904034e-14 2.09403238e-15 5.37952711e-12
1.14815362e+00 5.07660024e-12 5.02046681e-12 1.87059957e-14 3.74274322e-14 4.37324077e-15 5.02046681e-12
1.31825674e+00 4.77785030e-12 4.68537225e-12 1.58295386e-14 7.66485172e-14 7.89390866e-15 4.68537225e-12
1.51356125e+00 4.52378754e-12 4.37264380e-12 1.22728641e-14 1.38870877e-13 1.20940490e-14 4.37264380e-12
1.73780083e+00 4.31231364e-12 4.08078863e-12 8.98705257e-15 2.22537953e-13 1.58602579e-14 4.08078863e-12
1.99526231e+00 4.13195536e-12 3.80841354e-12 6.37847690e-15 3.17163346e-13 1.77051213e-14 3.80841354e-12
2.29086765e+00 3.96498617e-12 3.55421832e-12 4.32932162e-15 4.06438529e-13 1.67115384e-14 3.55421832e-12
2.63026799e+00 3.79552735e-12 3.31698953e-12 2.69642064e-15 4.75841396e-13 1.37451577e-14 3.31698953e-12
3.01995172e+00 3.61277094e-12 3.09559474e-12 1.59815010e-15 5.15578045e-13 1.01369599e-14 3.09559474e-12
3.46736850e+00 3.41330049e-12 2.88897711e-12 9.79792647e-16 5.23343587e-13 6.79643864e-15 2.88897711e-12
3.98107171e+00 3.19743656e-12 2.69615031e-12 5.92489614e-16 5.00693756e-13 4.17579585e-15 2.69615031e-12
4.57088190e+00 2.97281653e-12 2.51619387e-12 3.27725200e-16 4.56294927e-13 2.38196821e-15 2.51619387e-12
5.24807460e+00 2.48289264e-12 2.08050667e-12 1.65577211e-16 4.02220397e-13 1.29083556e-15 2.08050667e-12
6.02559586e+00 1.72340740e-12 1.37457712e-12 6.54695915e-17 3.48764808e-13 6.56175430e-16 1.37457712e-12
6.70000000e+00 1.30866283e-12 9.99872685e-13 3.14163198e-17 3.08758733e-13 3.70507201e-16 9.99872685e-13
6.92422916e+00 1.20233084e-12 9.05846924e-13 2.28793256e-17 2.96461042e-13 3.08268165e-16 9.05846924e-13
7.15596261e+00 1.10910184e-12 8.20663132e-13 1.83265486e-17 2.88420380e-13 2.54225284e-16 8.20663132e-13
7.39545150e+00 1.03315422e-12 7.43489831e-13 1.41268039e-17 2.89650260e-13 2.11106993e-16 7.43489831e-13
7.64295536e+00 9.90552383e-13 6.73573732e-13 9.95052182e-18 3.16968701e-13 1.85867059e-16 6.73573732e-13
7.89874245e+00 9.95597247e-13 6.10232385e-13 7.38495373e-18 3.85357477e-13 1.73121338e-16 6.10232385e-13
8.16308998e+00 1.04059608e-12 5.52847515e-13 5.07749511e-18 4.87743485e-13 1.61818214e-16 5.52847515e-13
8.43628443e+00 1.13564141e-12 5.00858987e-13 3.17284550e-18 6.34779247e-13 1.48931837e-16 5.00858987e-13
8.71862190e+00 1.19488418e-12 4.53759343e-13 1.99313325e-18 7.41122843e-13 1.17149564e-16 4.53759343e-13
9.01040836e+00 1.26363469e-12 4.11088843e-13 9.85497460e-19 8.52544861e-13 7.64372289e-17 4.11088843e-13
9.31196005e+00 1.31502472e-12 3.72430980e-13 0.00000000e+00 9.42593745e-13 0.00000000e+00 3.72430980e-13
9.62360379e+00 1.27149168e-12 3.37408415e-13 0.00000000e+00 9.34083264e-13 0.00000000e+00 3.37408415e-13
9.94567731e+00 1.16112216e-12 3.05679292e-13 0.00000000e+00 8.55442865e-13 0.00000000e+00 3.05679292e-13
1.02785297e+01 1.03627122e-12 2.76933904e-13 0.00000000e+00 7.59337316e-13 0.00000000e+00 2.76933904e-13
1.06225216e+01 9.18446870e-13 2.50891667e-13 0.00000000e+00 6.67555203e-13 0.00000000e+00 2.50891667e-13
1.09780260e+01 7.94921132e-13 2.27298384e-13 0.00000000e+00 5.67622748e-13 0.00000000e+00 2.27298384e-13
1.13454280e+01 6.91382484e-13 2.05923759e-13 0.00000000e+00 4.85458726e-13 0.00000000e+00 2.05923759e-13
1.17251259e+01 6.03803836e-13 1.86559155e-13 0.00000000e+00 4.17244680e-13 0.00000000e+00 1.86559155e-13
1.21175312e+01 5.26936057e-13 1.69015555e-13 0.00000000e+00 3.57920501e-13 0.00000000e+00 1.69015555e-13
1.25230691e+01 4.59587230e-13 1.53121715e-13 0.00000000e+00 3.06465515e-13 0.00000000e+00 1.53121715e-13
1.29421791e+01 4.03412588e-13 1.38722496e-13 0.00000000e+00 2.64690091e-13 0.00000000e+00 1.38722496e-13
1.33753155e+01 3.56177113e-13 1.25677347e-13 0.00000000e+00 2.30499766e-13 0.00000000e+00 1.25677347e-13
1.38229477e+01 3.22432638e-13 1.13858934e-13 0.00000000e+00 2.08573704e-13 0.00000000e+00 1.13858934e-13
1.42855609e+01 2.99091342e-13 1.03151898e-13 0.00000000e+00 1.95939444e-13 0.00000000e+00 1.03151898e-13
1.47636563e+01 2.91262333e-13 9.34517274e-14 0.00000000e+00 1.97810606e-13 0.00000000e+00 9.34517274e-14
1.52577522e+01 2.87550507e-13 8.46637387e-14 0.00000000e+00 2.02886768e-13 0.00000000e+00 8.46637387e-14
1.57683840e+01 2.87154634e-13 7.67021526e-14 0.00000000e+00 2.10452482e-13 0.00000000e+00 7.67021526e-14
1.62961051e+01 2.87792358e-13 6.94892560e-14 0.00000000e+00 2.18303102e-13 0.00000000e+00 6.94892560e-14
1.68414875e+01 2.89075197e-13 6.29546439e-14 0.00000000e+00 2.26120553e-13 0.00000000e+00 6.29546439e-14
1.74051222e+01 2.86473469e-13 5.70345319e-14 0.00000000e+00 2.29438938e-13 0.00000000e+00 5.70345319e-14
1.79876201e+01 2.81410103e-13 5.16711337e-14 0.00000000e+00 2.29738969e-13 0.00000000e+00 5.16711337e-14
1.85896125e+01 2.71193672e-13 4.68120974e-14 0.00000000e+00 2.24381574e-13 0.00000000e+00 4.68120974e-14
1.92117518e+01 2.56486117e-13 4.24099939e-14 0.00000000e+00 2.14076123e-13 0.00000000e+00 4.24099939e-14
1.98547123e+01 2.39569937e-13 3.84218542e-14 0.00000000e+00 2.01148083e-13 0.00000000e+00 3.84218542e-14
2.05191907e+01 2.22630605e-13 3.48087501e-14 0.00000000e+00 1.87821855e-13 0.00000000e+00 3.48087501e-14
2.12059073e+01 2.07154884e-13 3.15354141e-14 0.00000000e+00 1.75619469e-13 0.00000000e+00 3.15354141e-14
2.19156062e+01 1.93608782e-13 2.85698952e-14 0.00000000e+00 1.65038887e-13 0.00000000e+00 2.85698952e-14
2.26490567e+01 1.81338258e-13 2.58832470e-14 0.00000000e+00 1.55455011e-13 0.00000000e+00 2.58832470e-14
2.34070535e+01 1.70283729e-13 2.34492452e-14 0.00000000e+00 1.46834484e-13 0.00000000e+00 2.34492452e-14
2.41904183e+01 1.60283666e-13 2.12441313e-14 0.00000000e+00 1.39039535e-13 0.00000000e+00 2.12441313e-14
2.50000000e+01 1.51188823e-13 1.92463813e-14 0.00000000e+00 1.31942442e-13 0.00000000e+00 1.92463813e-14
2.75422870e+01 1.27857227e-13 1.43935895e-14 0.00000000e+00 1.13463637e-13 0.00000000e+00 1.43935895e-14
3.16227766e+01 1.00900819e-13 9.50975027e-15 0.00000000e+00 9.13910686e-14 0.00000000e+00 9.50975027e-15
3.63078055e+01 7.75666338e-14 6.28302969e-15 0.00000000e+00 7.12836041e-14 0.00000000e+00 6.28302969e-15
4.16869383e+01 5.68305830e-14 4.15115655e-15 0.00000000e+00 5.26794264e-14 0.00000000e+00 4.15115655e-15
4.78630092e+01 3.94768171e-14 2.74264194e-15 0.00000000e+00 3.67341751e-14 0.00000000e+00 2.74264194e-15
5.49540874e+01 2.62129218e-14 1.81204556e-15 0.00000000e+00 2.44008762e-14 0.00000000e+00 1.81204556e-15
6.30957344e+01 1.67719213e-14 1.19720663e-15 0.00000000e+00 1.55747147e-14 0.00000000e+00 1.19720663e-15
7.24435960e+01 1.04033749e-14 7.90986575e-16 0.00000000e+00 9.61238836e-15 0.00000000e+00 7.90986575e-16
8.31763771e+01 6.29846150e-15 5.22599647e-16 0.00000000e+00 5.77586185e-15 0.00000000e+00 5.22599647e-16
9.54992586e+01 3.74326270e-15 3.45278163e-16 0.00000000e+00 3.39798454e-15 0.00000000e+00 3.45278163e-16
1.09647820e+02 2.19164263e-15 2.28123020e-16 0.00000000e+00 1.96351961e-15 0.00000000e+00 2.28123020e-16
1.25892541e+02 1.28110002e-15 1.50719385e-16 0.00000000e+00 1.13038064e-15 0.00000000e+00 1.50719385e-16
1.44543977e+02 7.43974214e-16 9.95793099e-17 0.00000000e+00 6.44394904e-16 0.00000000e+00 9.95793099e-17
1.65958691e+02 4.14063485e-16 6.57913976e-17 0.00000000e+00 3.48272087e-16 0.00000000e+00 6.57913976e-17
1.90546072e+02 2.31173681e-16 4.34679453e-17 0.00000000e+00 1.87705735e-16 0.00000000e+00 4.34679453e-17
2.18776162e+02 1.29368826e-16 2.87189867e-17 0.00000000e+00 1.00649840e-16 0.00000000e+00 2.87189867e-17
2.51188643e+02 7.25827599e-17 1.89744463e-17 0.00000000e+00 5.36083136e-17 0.00000000e+00 1.89744463e-17
2.88403150e+02 4.08717902e-17 1.25362924e-17 0.00000000e+00 2.83354979e-17 0.00000000e+00 1.25362924e-17
3.31131121e+02 2.31796554e-17 8.28264623e-18 0.00000000e+00 1.48970092e-17 0.00000000e+00 8.28264623e-18
3.80189396e+02 1.32560374e-17 5.47229010e-18 0.00000000e+00 7.78374735e-18 0.00000000e+00 5.47229010e-18
4.36515832e+02 7.66412304e-18 3.61550621e-18 0.00000000e+00 4.04861683e-18 0.00000000e+00 3.61550621e-18
5.01187234e+02 4.48504691e-18 2.38874127e-18 0.00000000e+00 2.09630565e-18 0.00000000e+00 2.38874127e-18
5.75439937e+02 2.65953221e-18 1.57822570e-18 0.00000000e+00 1.08130650e-18 0.00000000e+00 1.57822570e-18
6.60693448e+02 1.59863734e-18 1.04272338e-18 0.00000000e+00 5.55913962e-19 0.00000000e+00 1.04272338e-18
7.58577575e+02 9.73900780e-19 6.88920507e-19 0.00000000e+00 2.84980273e-19 0.00000000e+00 6.88920507e-19
8.70963590e+02 6.00854003e-19 4.55165265e-19 0.00000000e+00 1.45688738e-19 0.00000000e+00 4.55165265e-19
1.00000000e+03 7.42923635e-20 0.00000000e+00 0.00000000e+00 7.42923635e-20 0.00000000e+00 0.00000000e+00
