# column 1: lambda (micron)
# column 2: total flux; lambda*F_lambda (W/m2)
# column 3: direct stellar flux; lambda*F_lambda (W/m2)
# column 4: scattered stellar flux; lambda*F_lambda (W/m2)
# column 5: total dust emission flux; lambda*F_lambda (W/m2)
# column 6: dust emission scattered flux; lambda*F_lambda (W/m2)
# column 7: transparent flux; lambda*F_lambda (W/m2)
1.00000000e-03 6.93977007e-13 6.93976646e-13 3.60792047e-19 0.00000000e+00 0.00000000e+00 6.93993746e-13
1.14815362e-03 8.19109006e-13 8.19108474e-13 5.32476077e-19 0.00000000e+00 0.00000000e+00 8.19135139e-13
1.31825674e-03 9.66802913e-13 9.66802092e-13 8.21016781e-19 0.00000000e+00 0.00000000e+00 9.66842108e-13
1.51356125e-03 1.14112925e-12 1.14112801e-12 1.24405769e-18 0.00000000e+00 0.00000000e+00 1.14118369e-12
1.73780083e-03 1.34689856e-12 1.34689626e-12 2.30419984e-18 0.00000000e+00 0.00000000e+00 1.34696266e-12
1.99526231e-03 1.58974799e-12 1.58974391e-12 4.08721925e-18 0.00000000e+00 0.00000000e+00 1.58984782e-12
2.29086765e-03 1.87640635e-12 1.87640013e-12 6.21764355e-18 0.00000000e+00 0.00000000e+00 1.87653019e-12
2.63026799e-03 2.21473630e-12 2.21472334e-12 1.29627920e-17 0.00000000e+00 0.00000000e+00 2.21490731e-12
3.01995172e-03 2.61405314e-12 2.61403225e-12 2.08952963e-17 0.00000000e+00 0.00000000e+00 2.61430080e-12
3.46736850e-03 3.08537361e-12 3.08533957e-12 3.40303016e-17 0.00000000e+00 0.00000000e+00 3.08571319e-12
3.98107171e-03 3.64168221e-12 3.64162618e-12 5.60342101e-17 0.00000000e+00 0.00000000e+00 3.64213095e-12
4.57088190e-03 4.29860143e-12 4.29848489e-12 1.16545205e-16 0.00000000e+00 0.00000000e+00 4.29888232e-12
5.24807460e-03 5.07367334e-12 5.07346037e-12 2.12967308e-16 0.00000000e+00 0.00000000e+00 5.07405951e-12
6.02559586e-03 5.98859656e-12 5.98816448e-12 4.32082559e-16 0.00000000e+00 0.00000000e+00 5.98901715e-12
6.91830971e-03 7.06842975e-12 7.06779900e-12 6.30749774e-16 0.00000000e+00 0.00000000e+00 7.06896053e-12
7.94328235e-03 8.34319312e-12 8.34211045e-12 1.08266859e-15 3.18506433e-304 7.14380563e-307 8.34363998e-12
9.12010839e-03 9.84772092e-12 9.84616709e-12 1.55382762e-15 1.36468965e-265 1.56319123e-267 9.84817045e-12
1.04712855e-02 1.09989570e-11 1.09966801e-11 2.27688798e-15 5.56374926e-232 1.97507327e-234 1.09990604e-11
1.20226443e-02 1.09999564e-11 1.09965396e-11 3.41679603e-15 8.54591616e-203 7.56173445e-205 1.09990604e-11
1.38038426e-02 1.10016589e-11 1.09963730e-11 5.28592025e-15 2.27353241e-177 1.57307447e-179 1.09990604e-11
1.58489319e-02 1.10032055e-11 1.09961683e-11 7.03723708e-15 3.02441044e-155 2.93801774e-157 1.09990604e-11
1.81970086e-02 1.10089193e-11 1.09959794e-11 1.29398179e-14 5.30843436e-136 5.72413494e-138 1.09990604e-11
2.08929613e-02 1.10102380e-11 1.09958225e-11 1.44155307e-14 2.73788296e-119 3.71327455e-121 1.09990604e-11
2.39883292e-02 1.10161243e-11 1.09956191e-11 2.05051660e-14 9.50419064e-105 1.62397280e-106 1.09990604e-11
2.75422870e-02 1.10190008e-11 1.09953826e-11 2.36181973e-14 4.21957983e-92 9.29067016e-94 1.09990604e-11
3.16227766e-02 1.10265511e-11 1.09951507e-11 3.14003860e-14 4.07848305e-81 1.01994764e-82 1.09990604e-11
3.63078055e-02 1.10293563e-11 1.09949689e-11 3.43874381e-14 1.40520846e-71 4.05011416e-73 1.09990604e-11
4.16869383e-02 1.10430242e-11 1.09948116e-11 4.82126576e-14 2.66455045e-63 1.00757496e-64 1.09990604e-11
4.78630092e-02 1.10603473e-11 1.09943780e-11 6.59692843e-14 4.01174089e-56 1.87522075e-57 1.09990604e-11
5.49540874e-02 1.10735644e-11 1.09937751e-11 7.97893527e-14 6.64222524e-50 3.62886174e-51 1.09990604e-11
6.30957344e-02 1.10853218e-11 1.09922634e-11 9.30583849e-14 2.13877520e-44 1.35478203e-45 1.09990604e-11
7.24435960e-02 1.10840348e-11 1.09904731e-11 9.35616799e-14 1.23038198e-39 7.66497518e-41 1.09990604e-11
8.31763771e-02 1.10840538e-11 1.09906324e-11 9.34214052e-14 1.25512291e-35 7.71430664e-37 1.09990604e-11
9.54992586e-02 1.10854259e-11 1.09910997e-11 9.43262518e-14 3.51955042e-32 2.15072482e-33 1.09990604e-11
1.09647820e-01 1.05953979e-11 1.04977092e-11 9.76887768e-14 2.98525123e-29 1.94386181e-30 1.05040253e-11
1.25892541e-01 9.88762961e-12 9.79807440e-12 8.95552098e-14 9.63451396e-27 5.90401697e-28 9.80292679e-12
1.44543977e-01 9.21971049e-12 9.14486996e-12 7.48405296e-14 1.30873870e-24 7.64553033e-26 9.14862359e-12
1.65958691e-01 8.61444759e-12 8.53492860e-12 7.95189903e-14 6.61806857e-23 4.18519874e-24 8.53799231e-12
1.90546072e-01 8.05280530e-12 7.96506772e-12 8.77375717e-14 1.39006695e-21 1.01407951e-22 7.96811805e-12
2.18776162e-01 7.52025521e-12 7.43294125e-12 8.73139387e-14 1.64427504e-20 1.27182136e-21 7.43628044e-12
2.51188643e-01 7.03669953e-12 6.93744835e-12 9.92509759e-14 1.98988330e-19 1.80515152e-20 6.93994070e-12
2.88403150e-01 6.56591960e-12 6.47479831e-12 9.11196372e-14 1.65397468e-18 1.46219432e-19 6.47672950e-12
3.31131121e-01 6.12260819e-12 6.04286454e-12 7.97341903e-14 9.45804180e-18 8.00707671e-19 6.04443567e-12
3.80189396e-01 5.71405434e-12 5.63970796e-12 7.43069837e-14 3.93974057e-17 3.23805322e-18 5.64099558e-12
4.36515832e-01 5.33140664e-12 5.26343753e-12 6.78439213e-14 1.25185787e-16 1.02641333e-17 5.26448339e-12
5.01187234e-01 4.97369961e-12 4.91226377e-12 6.11177147e-14 3.18117583e-16 2.64414874e-17 4.91310176e-12
5.75439937e-01 4.64305526e-12 4.58450884e-12 5.78519800e-14 6.94440324e-16 6.08531477e-17 4.58517335e-12
6.60693448e-01 4.33218787e-12 4.27861035e-12 5.21474945e-14 1.43001717e-15 1.50825418e-16 4.27913275e-12
7.58577575e-01 4.04440609e-12 3.99311336e-12 4.82599723e-14 3.03275540e-15 3.84616350e-16 3.99351904e-12
8.70963590e-01 3.77676843e-12 3.72666076e-12 4.33415985e-14 6.76607240e-15 9.80657314e-16 3.72696882e-12
1.00000000e+00 3.53154558e-12 3.47797952e-12 3.85240718e-14 1.50419839e-14 2.27167829e-15 3.47820968e-12
1.14815362e+00 3.30987269e-12 3.24588524e-12 3.16106577e-14 3.23767929e-14 4.72544869e-15 3.24605414e-12
1.31825674e+00 3.12063379e-12 3.02927220e-12 2.59083597e-14 6.54532349e-14 8.61490867e-15 3.02939399e-12
1.51356125e+00 2.97043677e-12 2.82710803e-12 2.15772666e-14 1.21751465e-13 1.39949623e-14 2.82719497e-12
1.73780083e+00 2.85917399e-12 2.63843082e-12 1.64137795e-14 2.04329393e-13 1.95350853e-14 2.63849186e-12
1.99526231e+00 2.78678082e-12 2.46234169e-12 1.26702338e-14 3.11768903e-13 2.34981399e-14 2.46238388e-12
2.29086765e+00 2.74010440e-12 2.29800127e-12 9.00106558e-15 4.33102059e-13 2.48211060e-14 2.29803035e-12
2.63026799e+00 2.70868143e-12 2.14462648e-12 6.37893830e-15 5.57676010e-13 2.35215529e-14 2.14464670e-12
3.01995172e+00 2.67747307e-12 2.00148652e-12 4.26951385e-15 6.71717038e-13 2.01784709e-14 2.00150076e-12
3.46736850e+00 2.63480582e-12 1.86789899e-12 2.87316968e-15 7.64033660e-13 1.59534882e-14 1.86790919e-12
3.98107171e+00 2.57113008e-12 1.74322689e-12 1.82185336e-15 8.26081338e-13 1.17956626e-14 1.74323429e-12
4.57088190e+00 2.48401850e-12 1.62687546e-12 1.15379332e-15 8.55989251e-13 8.03731897e-15 1.62688090e-12
5.24807460e+00 2.20256660e-12 1.34517753e-12 6.07785652e-16 8.56781281e-13 5.14920411e-15 1.34518114e-12
6.02559586e+00 1.72447369e-12 8.88750386e-13 2.47374039e-16 8.35475929e-13 3.12008735e-15 8.88752369e-13
6.70000000e+00 1.45390424e-12 6.46480613e-13 1.20625149e-16 8.07303002e-13 2.02659824e-15 6.46481889e-13
6.92422916e+00 1.38248502e-12 5.85687082e-13 9.64054924e-17 7.96701529e-13 1.75323682e-15 5.85688198e-13
7.15596261e+00 1.32115602e-12 5.30610414e-13 7.55763168e-17 7.90470030e-13 1.50001874e-15 5.30611407e-13
7.39545150e+00 1.28113038e-12 4.80712992e-13 6.01510792e-17 8.00357235e-13 1.29258933e-15 4.80713913e-13
7.64295536e+00 1.29000595e-12 4.35507715e-13 4.26060225e-17 8.54455629e-13 1.10216130e-15 4.35508666e-13
7.89874245e+00 1.37606328e-12 3.94553305e-13 2.78261268e-17 9.81482148e-13 9.39187391e-16 3.94554418e-13
8.16308998e+00 1.52632875e-12 3.57450053e-13 1.78009716e-17 1.16886089e-12 7.96364494e-16 3.57451415e-13
8.43628443e+00 1.75634972e-12 3.23835780e-13 1.06874605e-17 1.43250325e-12 6.46863481e-16 3.23837494e-13
8.71862190e+00 1.92620688e-12 2.93382642e-13 6.51502954e-18 1.63281772e-12 4.98563853e-16 2.93384550e-13
9.01040836e+00 2.11292098e-12 2.65793238e-13 3.67588800e-18 1.84712407e-12 3.41796433e-16 2.65795332e-13
9.31196005e+00 2.26877012e-12 2.40798341e-13 0.00000000e+00 2.02797178e-12 0.00000000e+00 2.40800541e-13
9.62360379e+00 2.26643997e-12 2.18154158e-13 0.00000000e+00 2.04828581e-12 0.00000000e+00 2.18156204e-13
9.94567731e+00 2.14693928e-12 1.97639550e-13 0.00000000e+00 1.94929973e-12 0.00000000e+00 1.97641289e-13
1.02785297e+01 1.99060311e-12 1.79054125e-13 0.00000000e+00 1.81154898e-12 0.00000000e+00 1.79055550e-13
1.06225216e+01 1.83394462e-12 1.62216416e-13 0.00000000e+00 1.67172820e-12 0.00000000e+00 1.62217572e-13
1.09780260e+01 1.65658747e-12 1.46962096e-13 0.00000000e+00 1.50962538e-12 0.00000000e+00 1.46962999e-13
1.13454280e+01 1.49957013e-12 1.33142223e-13 0.00000000e+00 1.36642791e-12 0.00000000e+00 1.33142932e-13
1.17251259e+01 1.36440743e-12 1.20621913e-13 0.00000000e+00 1.24378552e-12 0.00000000e+00 1.20622472e-13
1.21175312e+01 1.24049411e-12 1.09278969e-13 0.00000000e+00 1.13121514e-12 0.00000000e+00 1.09279408e-13
1.25230691e+01 1.12884593e-12 9.90026759e-14 0.00000000e+00 1.02984325e-12 0.00000000e+00 9.90030204e-14
1.29421791e+01 1.03093110e-12 8.96927289e-14 0.00000000e+00 9.41238373e-13 0.00000000e+00 8.96930008e-14
1.33753155e+01 9.47130819e-13 8.12582582e-14 0.00000000e+00 8.65872561e-13 0.00000000e+00 8.12584743e-14
1.38229477e+01 8.93185382e-13 7.36169319e-14 0.00000000e+00 8.19568450e-13 0.00000000e+00 7.36171115e-14
1.42855609e+01 8.62991133e-13 6.66941691e-14 0.00000000e+00 7.96296964e-13 0.00000000e+00 6.66943252e-14
1.47636563e+01 8.79889674e-13 6.04223939e-14 0.00000000e+00 8.19467280e-13 0.00000000e+00 6.04225420e-14
1.52577522e+01 9.05916879e-13 5.47404000e-14 0.00000000e+00 8.51176479e-13 0.00000000e+00 5.47405431e-14
1.57683840e+01 9.43427007e-13 4.95927264e-14 0.00000000e+00 8.93834281e-13 0.00000000e+00 4.95928665e-14
1.62961051e+01 9.82174761e-13 4.49291288e-14 0.00000000e+00 9.37245632e-13 0.00000000e+00 4.49292657e-14
1.68414875e+01 1.02214423e-12 4.07040859e-14 0.00000000e+00 9.81440149e-13 0.00000000e+00 4.07042194e-14
1.74051222e+01 1.05212161e-12 3.68763600e-14 0.00000000e+00 1.01524525e-12 0.00000000e+00 3.68764869e-14
1.79876201e+01 1.06857779e-12 3.34085872e-14 0.00000000e+00 1.03516921e-12 0.00000000e+00 3.34087056e-14
1.85896125e+01 1.06648670e-12 3.02669195e-14 0.00000000e+00 1.03621978e-12 0.00000000e+00 3.02670267e-14
1.92117518e+01 1.04655115e-12 2.74206900e-14 0.00000000e+00 1.01913046e-12 0.00000000e+00 2.74207841e-14
1.98547123e+01 1.01510363e-12 2.48421146e-14 0.00000000e+00 9.90261517e-13 0.00000000e+00 2.48421957e-14
2.05191907e+01 9.80284113e-13 2.25060228e-14 0.00000000e+00 9.57778091e-13 0.00000000e+00 2.25060919e-14
2.12059073e+01 9.44323653e-13 2.03896111e-14 0.00000000e+00 9.23934042e-13 0.00000000e+00 2.03896700e-14
2.19156062e+01 9.13242364e-13 1.84722212e-14 0.00000000e+00 8.94770143e-13 0.00000000e+00 1.84722717e-14
2.26490567e+01 8.84547350e-13 1.67351378e-14 0.00000000e+00 8.67812212e-13 0.00000000e+00 1.67351811e-14
2.34070535e+01 8.56741433e-13 1.51614054e-14 0.00000000e+00 8.41580028e-13 0.00000000e+00 1.51614426e-14
2.41904183e+01 8.29019839e-13 1.37356628e-14 0.00000000e+00 8.15284176e-13 0.00000000e+00 1.37356949e-14
2.50000000e+01 8.02783109e-13 1.24439936e-14 0.00000000e+00 7.90339116e-13 0.00000000e+00 1.24440213e-14
2.75422870e+01 7.26527349e-13 9.30636172e-15 0.00000000e+00 7.17220988e-13 0.00000000e+00 9.30637977e-15
3.16227766e+01 6.13007207e-13 6.14865422e-15 0.00000000e+00 6.06858553e-13 0.00000000e+00 6.14866414e-15
3.63078055e+01 4.89991979e-13 4.06237669e-15 0.00000000e+00 4.85929602e-13 0.00000000e+00 4.06238211e-15
4.16869383e+01 3.65682658e-13 2.68398636e-15 0.00000000e+00 3.62998671e-13 0.00000000e+00 2.68398924e-15
4.78630092e+01 2.54162138e-13 1.77329262e-15 0.00000000e+00 2.52388845e-13 0.00000000e+00 1.77329411e-15
5.49540874e+01 1.66638924e-13 1.17160305e-15 0.00000000e+00 1.65467321e-13 0.00000000e+00 1.17160380e-15
6.30957344e+01 1.04170470e-13 7.74070580e-16 0.00000000e+00 1.03396399e-13 0.00000000e+00 7.74070953e-16
7.24435960e+01 6.26777697e-14 5.11423422e-16 0.00000000e+00 6.21663463e-14 0.00000000e+00 5.11423607e-16
8.31763771e+01 3.66311894e-14 3.37894135e-16 0.00000000e+00 3.62932953e-14 0.00000000e+00 3.37894226e-16
9.54992586e+01 2.09575382e-14 2.23244456e-16 0.00000000e+00 2.07342937e-14 0.00000000e+00 2.23244502e-16
1.09647820e+02 1.17919170e-14 1.47496157e-16 0.00000000e+00 1.16444208e-14 0.00000000e+00 1.47496179e-16
1.25892541e+02 6.62178287e-15 9.74497481e-17 0.00000000e+00 6.52433312e-15 0.00000000e+00 9.74497594e-17
1.44543977e+02 3.69262178e-15 6.43844118e-17 0.00000000e+00 3.62823737e-15 0.00000000e+00 6.43844175e-17
1.65958691e+02 1.96211023e-15 4.25383600e-17 0.00000000e+00 1.91957187e-15 0.00000000e+00 4.25383628e-17
1.90546072e+02 1.04298085e-15 2.81048162e-17 0.00000000e+00 1.01487604e-15 0.00000000e+00 2.81048176e-17
2.18776162e+02 5.53521091e-16 1.85686682e-17 0.00000000e+00 5.34952423e-16 0.00000000e+00 1.85686688e-17
2.51188643e+02 2.92942179e-16 1.22681975e-17 0.00000000e+00 2.80673981e-16 0.00000000e+00 1.22681978e-17
2.88403150e+02 1.54519511e-16 8.10551776e-18 0.00000000e+00 1.46413994e-16 0.00000000e+00 8.10551794e-18
3.31131121e+02 8.14501120e-17 5.35526251e-18 0.00000000e+00 7.60948495e-17 0.00000000e+00 5.35526259e-18
3.80189396e+02 4.29026375e-17 3.53818686e-18 0.00000000e+00 3.93644506e-17 0.00000000e+00 3.53818691e-18
4.36515832e+02 2.26350523e-17 2.33765689e-18 0.00000000e+00 2.02973954e-17 0.00000000e+00 2.33765691e-18
5.01187234e+02 1.19750214e-17 1.54447459e-18 0.00000000e+00 1.04305468e-17 0.00000000e+00 1.54447460e-18
5.75439937e+02 6.36536073e-18 1.02042425e-18 0.00000000e+00 5.34493648e-18 0.00000000e+00 1.02042425e-18
6.60693448e+02 3.40645871e-18 6.74187614e-19 0.00000000e+00 2.73227109e-18 0.00000000e+00 6.74187617e-19
7.58577575e+02 1.83915744e-18 4.45431340e-19 0.00000000e+00 1.39372610e-18 0.00000000e+00 4.45431341e-19
8.70963590e+02 1.00373607e-18 2.94293568e-19 0.00000000e+00 7.09442501e-19 0.00000000e+00 2.94293569e-19
1.00000000e+03 3.60420937e-19 0.00000000e+00 0.00000000e+00 3.60420937e-19 0.00000000e+00 0.00000000e+00
