# column 1: lambda (micron)
# column 2: total flux; lambda*F_lambda (W/m2)
# column 3: direct stellar flux; lambda*F_lambda (W/m2)
# column 4: scattered stellar flux; lambda*F_lambda (W/m2)
# column 5: total dust emission flux; lambda*F_lambda (W/m2)
# column 6: dust emission scattered flux; lambda*F_lambda (W/m2)
# column 7: transparent flux; lambda*F_lambda (W/m2)
1.00000000e-03 1.07237192e-12 1.07236851e-12 3.40748421e-18 0.00000000e+00 0.00000000e+00 1.07335627e-12
1.14815362e-03 1.26536627e-12 1.26536448e-12 1.79005421e-18 0.00000000e+00 0.00000000e+00 1.26690456e-12
1.31825674e-03 1.49318618e-12 1.49304281e-12 1.43371840e-16 0.00000000e+00 0.00000000e+00 1.49535359e-12
1.51356125e-03 1.76181051e-12 1.76178155e-12 2.89579579e-17 0.00000000e+00 0.00000000e+00 1.76499670e-12
1.73780083e-03 2.07944651e-12 2.07942794e-12 1.85764348e-17 0.00000000e+00 0.00000000e+00 2.08326203e-12
1.99526231e-03 2.45344078e-12 2.45291898e-12 5.21807307e-16 0.00000000e+00 0.00000000e+00 2.45891716e-12
2.29086765e-03 2.89611706e-12 2.89480365e-12 1.31340819e-15 0.00000000e+00 0.00000000e+00 2.90231066e-12
2.63026799e-03 4.11507996e-12 3.41504164e-12 7.00038317e-13 0.00000000e+00 0.00000000e+00 3.42565717e-12
3.01995172e-03 4.55863236e-12 4.02788298e-12 5.30749387e-13 0.00000000e+00 0.00000000e+00 4.04337385e-12
3.46736850e-03 4.75291084e-12 4.75093394e-12 1.97689579e-15 0.00000000e+00 0.00000000e+00 4.77247759e-12
3.98107171e-03 5.60914560e-12 5.60395636e-12 5.18923745e-15 0.00000000e+00 0.00000000e+00 5.63305378e-12
4.57088190e-03 6.86925387e-12 6.62588064e-12 2.43373225e-13 0.00000000e+00 0.00000000e+00 6.64880962e-12
5.24807460e-03 7.86565071e-12 7.81317715e-12 5.24735603e-14 0.00000000e+00 0.00000000e+00 7.84772720e-12
6.02559586e-03 9.28712405e-12 9.21368607e-12 7.34379823e-14 0.00000000e+00 0.00000000e+00 9.26283435e-12
6.91830971e-03 1.09747387e-11 1.08661899e-11 1.08548852e-13 0.00000000e+00 0.00000000e+00 1.09331145e-11
7.94328235e-03 1.28964811e-11 1.28164830e-11 7.99980999e-14 5.17771798e-303 9.57646899e-305 1.29045807e-11
9.12010839e-03 1.53066887e-11 1.51161959e-11 1.90492839e-13 2.69983864e-264 2.72959955e-266 1.52315429e-11
1.04712855e-02 1.69633835e-11 1.68745311e-11 8.88523982e-14 1.34874543e-230 2.47806621e-232 1.70115517e-11
1.20226443e-02 1.70120205e-11 1.68664790e-11 1.45541499e-13 2.41383634e-201 3.36892066e-203 1.70115517e-11
1.38038426e-02 1.69740774e-11 1.68569333e-11 1.17144143e-13 7.42432825e-176 1.17540092e-177 1.70115517e-11
1.58489319e-02 1.69853914e-11 1.68452097e-11 1.40181677e-13 1.11574856e-153 1.99508848e-155 1.70115517e-11
1.81970086e-02 1.69855926e-11 1.68344041e-11 1.51188571e-13 2.18239749e-134 4.43966258e-136 1.70115517e-11
2.08929613e-02 1.69568883e-11 1.68254275e-11 1.31460767e-13 1.23413765e-117 2.71855216e-119 1.70115517e-11
2.39883292e-02 1.69636096e-11 1.68138041e-11 1.49805505e-13 4.64996930e-103 1.24583321e-104 1.70115517e-11
2.75422870e-02 1.69447137e-11 1.68002940e-11 1.44419628e-13 2.20228659e-90 5.82845278e-92 1.70115517e-11
3.16227766e-02 1.69361717e-11 1.67870619e-11 1.49109822e-13 2.26240396e-79 6.80104637e-81 1.70115517e-11
3.63078055e-02 1.69295867e-11 1.67766905e-11 1.52896289e-13 8.21142106e-70 2.70535605e-71 1.70115517e-11
4.16869383e-02 1.69298751e-11 1.67677252e-11 1.62149914e-13 1.62803778e-61 6.55381817e-63 1.70115517e-11
4.78630092e-02 1.69164913e-11 1.67430373e-11 1.73453982e-13 2.54771026e-54 1.26570446e-55 1.70115517e-11
5.49540874e-02 1.68955358e-11 1.67087646e-11 1.86771176e-13 4.36087362e-48 2.56675601e-49 1.70115517e-11
6.30957344e-02 1.68373636e-11 1.66231339e-11 2.14229710e-13 1.43571348e-42 9.94419641e-44 1.70115517e-11
7.24435960e-02 1.67410791e-11 1.65222709e-11 2.18808172e-13 8.39196068e-38 5.76074755e-39 1.70115517e-11
8.31763771e-02 1.67404713e-11 1.65312214e-11 2.09249900e-13 8.76378955e-34 5.84662708e-35 1.70115517e-11
9.54992586e-02 1.67610031e-11 1.65575006e-11 2.03502544e-13 2.52528361e-30 1.75483535e-31 1.70115517e-11
1.09647820e-01 1.60738943e-11 1.58848638e-11 1.89030532e-13 2.20090520e-27 1.61710600e-28 1.62459122e-11
1.25892541e-01 1.50488307e-11 1.48836561e-11 1.65174657e-13 7.27411353e-25 5.09346604e-26 1.51615674e-11
1.44543977e-01 1.40659663e-11 1.39342854e-11 1.31680838e-13 1.00677306e-22 6.65852925e-24 1.41495980e-11
1.65958691e-01 1.31487793e-11 1.30292712e-11 1.19508094e-13 5.17956855e-21 3.74272961e-22 1.32051732e-11
1.90546072e-01 1.22746317e-11 1.21487276e-11 1.25903986e-13 1.10292733e-19 9.55206116e-21 1.23237846e-11
2.18776162e-01 1.14373841e-11 1.13098204e-11 1.27562420e-13 1.31729585e-18 1.26600592e-19 1.15012250e-11
2.51188643e-01 1.07101587e-11 1.05904712e-11 1.19671262e-13 1.62755488e-17 1.86467529e-18 1.07335677e-11
2.88403150e-01 1.00075624e-11 9.90614740e-12 1.01278560e-13 1.36406386e-16 1.49639007e-17 1.00171482e-11
3.31131121e-01 9.34408203e-12 9.25817879e-12 8.51172382e-14 7.85997032e-16 8.25800317e-17 9.34854667e-12
3.80189396e-01 8.72541707e-12 8.65046753e-12 7.16612341e-14 3.28830497e-15 3.30763575e-16 8.72457139e-12
4.36515832e-01 8.15459956e-12 8.08202152e-12 6.21196885e-14 1.04583479e-14 1.03814849e-15 8.14224377e-12
5.01187234e-01 7.62987897e-12 7.55050647e-12 5.31561025e-14 2.62163943e-14 2.58253643e-15 7.59878402e-12
5.75439937e-01 7.15353726e-12 7.05329658e-12 4.62596671e-14 5.39810115e-14 5.26803827e-15 7.09159786e-12
6.60693448e-01 6.72108164e-12 6.58814190e-12 3.85040480e-14 9.44356891e-14 9.17046077e-15 6.61826421e-12
7.58577575e-01 6.33123604e-12 6.15312249e-12 3.23404847e-14 1.45773067e-13 1.40138834e-14 6.17652353e-12
8.70963590e-01 5.97561385e-12 5.74649085e-12 2.72887215e-14 2.01834283e-13 1.86500677e-14 5.76426715e-12
1.00000000e+00 5.64316712e-12 5.36624223e-12 2.26119942e-14 2.54312897e-13 2.28424896e-14 5.37952711e-12
1.14815362e+00 5.32902328e-12 5.01071532e-12 1.81126018e-14 3.00195360e-13 2.50252342e-14 5.02046681e-12
1.31825674e+00 5.03087132e-12 4.67833902e-12 1.34384602e-14 3.39093844e-13 2.57204441e-14 4.68537225e-12
1.51356125e+00 4.74936527e-12 4.36762255e-12 1.03485284e-14 3.71394193e-13 2.51080698e-14 4.37264380e-12
1.73780083e+00 4.48394599e-12 4.07726220e-12 7.73406009e-15 3.98949733e-13 2.29729695e-14 4.08078863e-12
1.99526231e+00 4.23652741e-12 3.80597584e-12 5.49175071e-15 4.25059811e-13 2.00720407e-14 3.80841354e-12
2.29086765e+00 4.00597381e-12 3.55253850e-12 3.84351597e-15 4.49591798e-13 1.64264019e-14 3.55421832e-12
2.63026799e+00 3.78795543e-12 3.31582114e-12 2.40902371e-15 4.69725263e-13 1.28122427e-14 3.31698953e-12
3.01995172e+00 3.57509950e-12 3.09477164e-12 1.54672357e-15 4.78781138e-13 9.31901896e-15 3.09559474e-12
3.46736850e+00 3.36386684e-12 2.88838779e-12 9.19854478e-16 4.74559194e-13 6.36998938e-15 2.88897711e-12
3.98107171e+00 3.14970474e-12 2.69572299e-12 5.66888109e-16 4.53414864e-13 3.98849079e-15 2.69615031e-12
4.57088190e+00 2.93447633e-12 2.51587979e-12 3.36053856e-16 4.18260483e-13 2.42472654e-15 2.51619387e-12
5.24807460e+00 2.45617507e-12 2.08029804e-12 1.63178059e-16 3.75713853e-13 1.36847949e-15 2.08050667e-12
6.02559586e+00 1.70691406e-12 1.37446258e-12 6.85410186e-17 3.32382939e-13 7.36667340e-16 1.37457712e-12
6.70000000e+00 1.29889992e-12 9.99798936e-13 3.13863803e-17 2.99069593e-13 4.25614213e-16 9.99872685e-13
6.92422916e+00 1.19442375e-12 9.05782452e-13 2.41441414e-17 2.88617149e-13 3.55035096e-16 9.05846924e-13
7.15596261e+00 1.10225275e-12 8.20605743e-13 2.00462744e-17 2.81626956e-13 2.96305911e-16 8.20663132e-13
7.39545150e+00 1.02606158e-12 7.43436598e-13 1.46756141e-17 2.82610307e-13 2.49353056e-16 7.43489831e-13
7.64295536e+00 9.79504300e-13 6.73518784e-13 1.14489336e-17 3.05974068e-13 2.18285388e-16 6.73573732e-13
7.89874245e+00 9.75134697e-13 6.10168067e-13 7.98477270e-18 3.64958645e-13 1.94329901e-16 6.10232385e-13
8.16308998e+00 1.00612022e-12 5.52768836e-13 5.03081013e-18 4.53346356e-13 1.77539303e-16 5.52847515e-13
8.43628443e+00 1.08144835e-12 5.00759959e-13 3.36422495e-18 5.80685023e-13 1.53500771e-16 5.00858987e-13
8.71862190e+00 1.12659746e-12 4.53649109e-13 2.11793466e-18 6.72946236e-13 1.25219935e-16 4.53759343e-13
9.01040836e+00 1.18157482e-12 4.10967864e-13 1.07632467e-18 7.70605879e-13 8.19414360e-17 4.11088843e-13
9.31196005e+00 1.22301638e-12 3.72303862e-13 0.00000000e+00 8.50712515e-13 0.00000000e+00 3.72430980e-13
9.62360379e+00 1.18215284e-12 3.37290218e-13 0.00000000e+00 8.44862619e-13 0.00000000e+00 3.37408415e-13
9.94567731e+00 1.08549814e-12 3.05578816e-13 0.00000000e+00 7.79919322e-13 0.00000000e+00 3.05679292e-13
1.02785297e+01 9.75308337e-13 2.76851554e-13 0.00000000e+00 6.98456783e-13 0.00000000e+00 2.76933904e-13
1.06225216e+01 8.69997986e-13 2.50824897e-13 0.00000000e+00 6.19173088e-13 0.00000000e+00 2.50891667e-13
1.09780260e+01 7.60936324e-13 2.27246198e-13 0.00000000e+00 5.33690126e-13 0.00000000e+00 2.27298384e-13
1.13454280e+01 6.67511247e-13 2.05882809e-13 0.00000000e+00 4.61628438e-13 0.00000000e+00 2.05923759e-13
1.17251259e+01 5.88203173e-13 1.86526815e-13 0.00000000e+00 4.01676358e-13 0.00000000e+00 1.86559155e-13
1.21175312e+01 5.17664013e-13 1.68990145e-13 0.00000000e+00 3.48673868e-13 0.00000000e+00 1.69015555e-13
1.25230691e+01 4.55817296e-13 1.53101805e-13 0.00000000e+00 3.02715491e-13 0.00000000e+00 1.53121715e-13
1.29421791e+01 4.03447291e-13 1.38706787e-13 0.00000000e+00 2.64740504e-13 0.00000000e+00 1.38722496e-13
1.33753155e+01 3.58906086e-13 1.25664863e-13 0.00000000e+00 2.33241223e-13 0.00000000e+00 1.25677347e-13
1.38229477e+01 3.26871951e-13 1.13848556e-13 0.00000000e+00 2.13023395e-13 0.00000000e+00 1.13858934e-13
1.42855609e+01 3.04711096e-13 1.03142878e-13 0.00000000e+00 2.01568218e-13 0.00000000e+00 1.03151898e-13
1.47636563e+01 2.97140349e-13 9.34431665e-14 0.00000000e+00 2.03697183e-13 0.00000000e+00 9.34517274e-14
1.52577522e+01 2.93364581e-13 8.46554670e-14 0.00000000e+00 2.08709114e-13 0.00000000e+00 8.46637387e-14
1.57683840e+01 2.92836630e-13 7.66940577e-14 0.00000000e+00 2.16142572e-13 0.00000000e+00 7.67021526e-14
1.62961051e+01 2.93528217e-13 6.94813437e-14 0.00000000e+00 2.24046874e-13 0.00000000e+00 6.94892560e-14
1.68414875e+01 2.94724151e-13 6.29469273e-14 0.00000000e+00 2.31777223e-13 0.00000000e+00 6.29546439e-14
1.74051222e+01 2.92050413e-13 5.70272040e-14 0.00000000e+00 2.35023209e-13 0.00000000e+00 5.70345319e-14
1.79876201e+01 2.87102080e-13 5.16642918e-14 0.00000000e+00 2.35437788e-13 0.00000000e+00 5.16711337e-14
1.85896125e+01 2.77286908e-13 4.68059069e-14 0.00000000e+00 2.30481001e-13 0.00000000e+00 4.68120974e-14
1.92117518e+01 2.62931072e-13 4.24045563e-14 0.00000000e+00 2.20526516e-13 0.00000000e+00 4.24099939e-14
1.98547123e+01 2.46584956e-13 3.84171712e-14 0.00000000e+00 2.08167785e-13 0.00000000e+00 3.84218542e-14
2.05191907e+01 2.29984046e-13 3.48047576e-14 0.00000000e+00 1.95179289e-13 0.00000000e+00 3.48087501e-14
2.12059073e+01 2.14451989e-13 3.15320109e-14 0.00000000e+00 1.82919978e-13 0.00000000e+00 3.15354141e-14
2.19156062e+01 2.00797523e-13 2.85669802e-14 0.00000000e+00 1.72230543e-13 0.00000000e+00 2.85698952e-14
2.26490567e+01 1.88540830e-13 2.58807461e-14 0.00000000e+00 1.62660084e-13 0.00000000e+00 2.58832470e-14
2.34070535e+01 1.77181094e-13 2.34470956e-14 0.00000000e+00 1.53733998e-13 0.00000000e+00 2.34492452e-14
2.41904183e+01 1.66754676e-13 2.12422790e-14 0.00000000e+00 1.45512397e-13 0.00000000e+00 2.12441313e-14
2.50000000e+01 1.57218277e-13 1.92447818e-14 0.00000000e+00 1.37973495e-13 0.00000000e+00 1.92463813e-14
2.75422870e+01 1.32214718e-13 1.43925463e-14 0.00000000e+00 1.17822172e-13 0.00000000e+00 1.43935895e-14
3.16227766e+01 1.02343130e-13 9.50917715e-15 0.00000000e+00 9.28339532e-14 0.00000000e+00 9.50975027e-15
3.63078055e+01 7.62423513e-14 6.28271647e-15 0.00000000e+00 6.99596349e-14 0.00000000e+00 6.28302969e-15
4.16869383e+01 5.36757256e-14 4.15098990e-15 0.00000000e+00 4.95247357e-14 0.00000000e+00 4.15115655e-15
4.78630092e+01 3.56958211e-14 2.74255602e-15 0.00000000e+00 3.29532651e-14 0.00000000e+00 2.74264194e-15
5.49540874e+01 2.26727753e-14 1.81200221e-15 0.00000000e+00 2.08607731e-14 0.00000000e+00 1.81204556e-15
6.30957344e+01 1.39064915e-14 1.19718503e-15 0.00000000e+00 1.27093064e-14 0.00000000e+00 1.19720663e-15
7.24435960e+01 8.30027311e-15 7.90975895e-16 0.00000000e+00 7.50929722e-15 0.00000000e+00 7.90986575e-16
8.31763771e+01 4.85939795e-15 5.22594374e-16 0.00000000e+00 4.33680357e-15 0.00000000e+00 5.22599647e-16
9.54992586e+01 2.80768504e-15 3.45275553e-16 0.00000000e+00 2.46240948e-15 0.00000000e+00 3.45278163e-16
1.09647820e+02 1.60758989e-15 2.28121724e-16 0.00000000e+00 1.37946817e-15 0.00000000e+00 2.28123020e-16
1.25892541e+02 9.24156588e-16 1.50718731e-16 0.00000000e+00 7.73437857e-16 0.00000000e+00 1.50719385e-16
1.44543977e+02 5.30658775e-16 9.95789780e-17 0.00000000e+00 4.31079797e-16 0.00000000e+00 9.95793099e-17
1.65958691e+02 2.93936355e-16 6.57912349e-17 0.00000000e+00 2.28145120e-16 0.00000000e+00 6.57913976e-17
1.90546072e+02 1.64270801e-16 4.34678648e-17 0.00000000e+00 1.20802936e-16 0.00000000e+00 4.34679453e-17
2.18776162e+02 9.25299077e-17 2.87189465e-17 0.00000000e+00 6.38109611e-17 0.00000000e+00 2.87189867e-17
2.51188643e+02 5.25296892e-17 1.89744263e-17 0.00000000e+00 3.35552630e-17 0.00000000e+00 1.89744463e-17
2.88403150e+02 3.00802225e-17 1.25362823e-17 0.00000000e+00 1.75439401e-17 0.00000000e+00 1.25362924e-17
3.31131121e+02 1.74205214e-17 8.28264120e-18 0.00000000e+00 9.13788017e-18 0.00000000e+00 8.28264623e-18
3.80189396e+02 1.02088911e-17 5.47228758e-18 0.00000000e+00 4.73660350e-18 0.00000000e+00 5.47229010e-18
4.36515832e+02 6.06241840e-18 3.61550495e-18 0.00000000e+00 2.44691345e-18 0.00000000e+00 3.61550621e-18
5.01187234e+02 3.64830991e-18 2.38874063e-18 0.00000000e+00 1.25956928e-18 0.00000000e+00 2.38874127e-18
5.75439937e+02 2.22467285e-18 1.57822538e-18 0.00000000e+00 6.46447466e-19 0.00000000e+00 1.57822570e-18
6.60693448e+02 1.37363672e-18 1.04272322e-18 0.00000000e+00 3.30913497e-19 0.00000000e+00 1.04272338e-18
7.58577575e+02 8.57928520e-19 6.88920426e-19 0.00000000e+00 1.69008094e-19 0.00000000e+00 6.88920507e-19
8.70963590e+02 5.41290110e-19 4.55165224e-19 0.00000000e+00 8.61248856e-20 0.00000000e+00 4.55165265e-19
1.00000000e+03 4.37973255e-20 0.00000000e+00 0.00000000e+00 4.37973255e-20 0.00000000e+00 0.00000000e+00
