# column 1: lambda (micron)
# column 2: total flux; lambda*F_lambda (W/m2)
# column 3: direct stellar flux; lambda*F_lambda (W/m2)
# column 4: scattered stellar flux; lambda*F_lambda (W/m2)
# column 5: total dust emission flux; lambda*F_lambda (W/m2)
# column 6: dust emission scattered flux; lambda*F_lambda (W/m2)
# column 7: transparent flux; lambda*F_lambda (W/m2)
1.00000000e-03 1.07068632e-12 1.07017987e-12 5.06454005e-16 0.00000000e+00 0.00000000e+00 1.07335627e-12
1.14815362e-03 1.26196200e-12 1.26195366e-12 8.34275131e-18 0.00000000e+00 0.00000000e+00 1.26690456e-12
1.31825674e-03 1.48794916e-12 1.48792783e-12 2.13281305e-17 0.00000000e+00 0.00000000e+00 1.49535359e-12
1.51356125e-03 1.75527861e-12 1.75466789e-12 6.10717659e-16 0.00000000e+00 0.00000000e+00 1.76499670e-12
1.73780083e-03 2.07098323e-12 2.07094510e-12 3.81331202e-17 0.00000000e+00 0.00000000e+00 2.08326203e-12
1.99526231e-03 2.60420758e-12 2.43966094e-12 1.64546636e-13 0.00000000e+00 0.00000000e+00 2.45891716e-12
2.29086765e-03 2.87835314e-12 2.87821451e-12 1.38622916e-16 0.00000000e+00 0.00000000e+00 2.90231066e-12
2.63026799e-03 3.39298742e-12 3.39160264e-12 1.38478482e-15 0.00000000e+00 0.00000000e+00 3.42565717e-12
3.01995172e-03 4.10896925e-12 3.99371967e-12 1.15249574e-13 0.00000000e+00 0.00000000e+00 4.04337385e-12
3.46736850e-03 4.70690609e-12 4.70347431e-12 3.43177747e-15 0.00000000e+00 0.00000000e+00 4.77247759e-12
3.98107171e-03 5.55329833e-12 5.53992357e-12 1.33747672e-14 0.00000000e+00 0.00000000e+00 5.63305378e-12
4.57088190e-03 6.58080301e-12 6.57528222e-12 5.52079791e-15 0.00000000e+00 0.00000000e+00 6.64880962e-12
5.24807460e-03 7.74363680e-12 7.73705134e-12 6.58546225e-15 0.00000000e+00 0.00000000e+00 7.84772720e-12
6.02559586e-03 9.12991849e-12 9.10555319e-12 2.43652968e-14 0.00000000e+00 0.00000000e+00 9.26283435e-12
6.91830971e-03 1.08529065e-11 1.07191405e-11 1.33766048e-13 0.00000000e+00 0.00000000e+00 1.09331145e-11
7.94328235e-03 1.27989024e-11 1.26231322e-11 1.75770236e-13 2.42725753e-303 7.04531407e-305 1.29045807e-11
9.12010839e-03 1.49595557e-11 1.48633458e-11 9.62098603e-14 1.31967803e-264 1.05854883e-266 1.52315429e-11
1.04712855e-02 1.66616902e-11 1.65744050e-11 8.72852489e-14 6.84150969e-231 4.03281669e-233 1.70115517e-11
1.20226443e-02 1.66589175e-11 1.65489593e-11 1.09958163e-13 1.29578643e-201 2.14676062e-203 1.70115517e-11
1.38038426e-02 1.66453457e-11 1.65188286e-11 1.26517084e-13 4.10730851e-176 5.06959128e-178 1.70115517e-11
1.58489319e-02 1.66038423e-11 1.64818755e-11 1.21966802e-13 6.39890947e-154 1.18869323e-155 1.70115517e-11
1.81970086e-02 1.65950568e-11 1.64478661e-11 1.47190728e-13 1.28521079e-134 2.54783267e-136 1.70115517e-11
2.08929613e-02 1.65629521e-11 1.64196503e-11 1.43301795e-13 7.45608334e-118 1.72887610e-119 1.70115517e-11
2.39883292e-02 1.65527880e-11 1.63831643e-11 1.69623734e-13 2.86803053e-103 7.88688959e-105 1.70115517e-11
2.75422870e-02 1.65213442e-11 1.63408265e-11 1.80517706e-13 1.39167484e-90 4.58201534e-92 1.70115517e-11
3.16227766e-02 1.65053970e-11 1.62994326e-11 2.05964410e-13 1.45493917e-79 5.48932218e-81 1.70115517e-11
3.63078055e-02 1.64835993e-11 1.62670386e-11 2.16560709e-13 5.35331758e-70 2.14206514e-71 1.70115517e-11
4.16869383e-02 1.65029645e-11 1.62390722e-11 2.63892229e-13 1.08128112e-61 5.77308943e-63 1.70115517e-11
4.78630092e-02 1.64790819e-11 1.61622321e-11 3.16849778e-13 1.72296580e-54 1.18737933e-55 1.70115517e-11
5.49540874e-02 1.64257306e-11 1.60559755e-11 3.69755116e-13 2.99381149e-48 2.45613220e-49 1.70115517e-11
6.30957344e-02 1.62187148e-11 1.57925987e-11 4.26116034e-13 1.00039708e-42 9.47837693e-44 1.70115517e-11
7.24435960e-02 1.58996567e-11 1.54862096e-11 4.13447021e-13 5.89302541e-38 5.40436418e-39 1.70115517e-11
8.31763771e-02 1.59156090e-11 1.55132311e-11 4.02377900e-13 6.19737082e-34 5.63867725e-35 1.70115517e-11
9.54992586e-02 1.60036237e-11 1.55927559e-11 4.10867796e-13 1.79250384e-30 1.67362617e-31 1.70115517e-11
1.09647820e-01 1.55259256e-11 1.51120809e-11 4.13844643e-13 1.57169903e-27 1.59725054e-28 1.62459122e-11
1.25892541e-01 1.46535299e-11 1.42850170e-11 3.68512891e-13 5.19507676e-25 5.06938487e-26 1.51615674e-11
1.44543977e-01 1.37936598e-11 1.34681268e-11 3.25533014e-13 7.19858322e-23 6.74954093e-24 1.41495980e-11
1.65958691e-01 1.29733143e-11 1.26472603e-11 3.26053942e-13 3.72406077e-21 3.84733385e-22 1.32051732e-11
1.90546072e-01 1.21306222e-11 1.17690982e-11 3.61523901e-13 8.01722342e-20 9.93115896e-21 1.23237846e-11
2.18776162e-01 1.12410716e-11 1.08963848e-11 3.44685785e-13 9.59400375e-19 1.25813666e-19 1.15012250e-11
2.51188643e-01 1.06672731e-11 1.02797102e-11 3.87550819e-13 1.19926544e-17 1.90925264e-18 1.07335677e-11
2.88403150e-01 1.00161310e-11 9.66420483e-12 3.51825526e-13 1.00672119e-16 1.56969190e-17 1.00171482e-11
3.31131121e-01 9.38058398e-12 9.06075606e-12 3.19249780e-13 5.78131793e-16 8.57328974e-17 9.34854667e-12
3.80189396e-01 8.77703472e-12 8.48826796e-12 2.86344885e-13 2.42187143e-15 3.50675387e-16 8.72457139e-12
4.36515832e-01 8.22349697e-12 7.94997169e-12 2.65829613e-13 7.69566471e-15 1.09232683e-15 8.14224377e-12
5.01187234e-01 7.70538332e-12 7.44446908e-12 2.41581574e-13 1.93326687e-14 2.71992053e-15 7.59878402e-12
5.75439937e-01 7.22946735e-12 6.96904150e-12 2.20218703e-13 4.02071504e-14 5.67707834e-15 7.09159786e-12
6.60693448e-01 6.79699963e-12 6.52178789e-12 2.02600942e-13 7.26107897e-14 1.05216639e-14 6.61826421e-12
7.58577575e-01 6.40586525e-12 6.10151068e-12 1.82877887e-13 1.21476685e-13 1.85466237e-14 6.17652353e-12
8.70963590e-01 6.07138564e-12 5.70723996e-12 1.65781943e-13 1.98363735e-13 3.34522564e-14 5.76426715e-12
1.00000000e+00 5.80669438e-12 5.33687952e-12 1.40934184e-13 3.28880678e-13 5.99946261e-14 5.37952711e-12
1.14815362e+00 5.67222435e-12 4.98914391e-12 1.19002764e-13 5.64077672e-13 1.04720422e-13 5.02046681e-12
1.31825674e+00 5.73133156e-12 4.66276965e-12 9.79498846e-14 9.70612029e-13 1.72587432e-13 4.68537225e-12
1.51356125e+00 6.04662436e-12 4.35650075e-12 7.74398067e-14 1.61268380e-12 2.60001091e-13 4.37264380e-12
1.73780083e+00 6.60933260e-12 4.06944777e-12 6.26431779e-14 2.47724165e-12 3.49955639e-13 4.08078863e-12
1.99526231e+00 7.37912225e-12 3.80057206e-12 4.88498746e-14 3.52970032e-12 4.15091060e-13 3.80841354e-12
2.29086765e+00 8.12672564e-12 3.54881375e-12 3.66846560e-14 4.54122723e-12 4.37875722e-13 3.55421832e-12
2.63026799e+00 8.80505767e-12 3.31322992e-12 2.68891220e-14 5.46493864e-12 4.10149933e-13 3.31698953e-12
3.01995172e+00 9.28811580e-12 3.09294592e-12 1.85534450e-14 6.17661644e-12 3.45129739e-13 3.09559474e-12
3.46736850e+00 9.47584619e-12 2.88708050e-12 1.23934209e-14 6.57637227e-12 2.65483973e-13 2.88897711e-12
3.98107171e+00 9.40059835e-12 2.69477499e-12 7.94254709e-15 6.69788081e-12 1.83193015e-13 2.69615031e-12
4.57088190e+00 9.09283057e-12 2.51518297e-12 4.89401766e-15 6.57275358e-12 1.16689420e-13 2.51619387e-12
5.24807460e+00 8.31252598e-12 2.07983517e-12 2.58296923e-15 6.23010784e-12 7.01249162e-14 2.08050667e-12
6.02559586e+00 7.13667170e-12 1.37420844e-12 1.06723366e-15 5.76139603e-12 3.90530974e-14 1.37457712e-12
6.70000000e+00 6.35076099e-12 9.99635304e-13 5.24774350e-16 5.35060091e-12 2.36369588e-14 9.99872685e-13
6.92422916e+00 6.11665384e-12 9.05639403e-13 4.17739882e-16 5.21059669e-12 2.00510068e-14 9.05846924e-13
7.15596261e+00 5.93010981e-12 8.20478410e-13 3.26244386e-16 5.10930516e-12 1.69670211e-14 8.20663132e-13
7.39545150e+00 5.85605236e-12 7.43318484e-13 2.51749164e-16 5.11248213e-12 1.44132316e-14 7.43489831e-13
7.64295536e+00 6.09570220e-12 6.73396866e-13 1.82608310e-16 5.42212273e-12 1.25271947e-14 6.73573732e-13
7.89874245e+00 6.74012939e-12 6.10025367e-13 1.23092549e-16 6.12998093e-12 1.09791865e-14 6.10232385e-13
8.16308998e+00 7.63753983e-12 5.52594284e-13 7.77479475e-17 7.08486779e-12 9.48103324e-15 5.52847515e-13
8.43628443e+00 8.78565141e-12 5.00540281e-13 4.61520969e-17 8.28506498e-12 7.68626823e-15 5.00858987e-13
8.71862190e+00 9.43946852e-12 4.53404589e-13 2.73403040e-17 8.98603659e-12 5.93214557e-15 4.53759343e-13
9.01040836e+00 1.00391586e-11 4.10699535e-13 1.31707293e-17 9.62844590e-12 3.75474141e-15 4.11088843e-13
9.31196005e+00 1.04794650e-11 3.72021938e-13 0.00000000e+00 1.01074431e-11 0.00000000e+00 3.72430980e-13
9.62360379e+00 1.02961512e-11 3.37028081e-13 0.00000000e+00 9.95912311e-12 0.00000000e+00 3.37408415e-13
9.94567731e+00 9.77020553e-12 3.05355972e-13 0.00000000e+00 9.46484956e-12 0.00000000e+00 3.05679292e-13
1.02785297e+01 9.15740447e-12 2.76668904e-13 0.00000000e+00 8.88073557e-12 0.00000000e+00 2.76933904e-13
1.06225216e+01 8.50180227e-12 2.50676795e-13 0.00000000e+00 8.25112547e-12 0.00000000e+00 2.50891667e-13
1.09780260e+01 7.76364937e-12 2.27130438e-13 0.00000000e+00 7.53651893e-12 0.00000000e+00 2.27298384e-13
1.13454280e+01 7.08024778e-12 2.05791968e-13 0.00000000e+00 6.87445581e-12 0.00000000e+00 2.05923759e-13
1.17251259e+01 6.44561607e-12 1.86455070e-13 0.00000000e+00 6.25916100e-12 0.00000000e+00 1.86559155e-13
1.21175312e+01 5.83506289e-12 1.68933773e-13 0.00000000e+00 5.66612911e-12 0.00000000e+00 1.69015555e-13
1.25230691e+01 5.27871624e-12 1.53057634e-13 0.00000000e+00 5.12565861e-12 0.00000000e+00 1.53121715e-13
1.29421791e+01 4.75641890e-12 1.38671933e-13 0.00000000e+00 4.61774696e-12 0.00000000e+00 1.38722496e-13
1.33753155e+01 4.31140379e-12 1.25637165e-13 0.00000000e+00 4.18576662e-12 0.00000000e+00 1.25677347e-13
1.38229477e+01 3.99792870e-12 1.13825529e-13 0.00000000e+00 3.88410317e-12 0.00000000e+00 1.13858934e-13
1.42855609e+01 3.79713969e-12 1.03122864e-13 0.00000000e+00 3.69401683e-12 0.00000000e+00 1.03151898e-13
1.47636563e+01 3.79581599e-12 9.34241723e-14 0.00000000e+00 3.70239182e-12 0.00000000e+00 9.34517274e-14
1.52577522e+01 3.83347588e-12 8.46371145e-14 0.00000000e+00 3.74883877e-12 0.00000000e+00 8.46637387e-14
1.57683840e+01 3.90225897e-12 7.66760977e-14 0.00000000e+00 3.82558287e-12 0.00000000e+00 7.67021526e-14
1.62961051e+01 3.97109414e-12 6.94637890e-14 0.00000000e+00 3.90163035e-12 0.00000000e+00 6.94892560e-14
1.68414875e+01 4.02740861e-12 6.29298073e-14 0.00000000e+00 3.96447880e-12 0.00000000e+00 6.29546439e-14
1.74051222e+01 4.02314017e-12 5.70109465e-14 0.00000000e+00 3.96612922e-12 0.00000000e+00 5.70345319e-14
1.79876201e+01 3.97950097e-12 5.16491125e-14 0.00000000e+00 3.92785185e-12 0.00000000e+00 5.16711337e-14
1.85896125e+01 3.86116782e-12 4.67921727e-14 0.00000000e+00 3.81437564e-12 0.00000000e+00 4.68120974e-14
1.92117518e+01 3.68475485e-12 4.23924925e-14 0.00000000e+00 3.64236236e-12 0.00000000e+00 4.24099939e-14
1.98547123e+01 3.46197145e-12 3.84067814e-14 0.00000000e+00 3.42356467e-12 0.00000000e+00 3.84218542e-14
2.05191907e+01 3.23375007e-12 3.47958999e-14 0.00000000e+00 3.19895417e-12 0.00000000e+00 3.48087501e-14
2.12059073e+01 3.01256061e-12 3.15244604e-14 0.00000000e+00 2.98103615e-12 0.00000000e+00 3.15354141e-14
2.19156062e+01 2.81115491e-12 2.85605126e-14 0.00000000e+00 2.78259440e-12 0.00000000e+00 2.85698952e-14
2.26490567e+01 2.62621730e-12 2.58751973e-14 0.00000000e+00 2.60034210e-12 0.00000000e+00 2.58832470e-14
2.34070535e+01 2.44394556e-12 2.34423263e-14 0.00000000e+00 2.42050324e-12 0.00000000e+00 2.34492452e-14
2.41904183e+01 2.28052541e-12 2.12381693e-14 0.00000000e+00 2.25928724e-12 0.00000000e+00 2.12441313e-14
2.50000000e+01 2.12470176e-12 1.92412328e-14 0.00000000e+00 2.10546053e-12 0.00000000e+00 1.92463813e-14
2.75422870e+01 1.71048726e-12 1.43902318e-14 0.00000000e+00 1.69609702e-12 0.00000000e+00 1.43935895e-14
3.16227766e+01 1.22008944e-12 9.50790550e-15 0.00000000e+00 1.21058153e-12 0.00000000e+00 9.50975027e-15
3.63078055e+01 8.28699981e-13 6.28202147e-15 0.00000000e+00 8.22417960e-13 0.00000000e+00 6.28302969e-15
4.16869383e+01 5.29505245e-13 4.15062012e-15 0.00000000e+00 5.25354625e-13 0.00000000e+00 4.15115655e-15
4.78630092e+01 3.18744198e-13 2.74236539e-15 0.00000000e+00 3.16001832e-13 0.00000000e+00 2.74264194e-15
5.49540874e+01 1.83212581e-13 1.81190602e-15 0.00000000e+00 1.81400675e-13 0.00000000e+00 1.81204556e-15
6.30957344e+01 1.01952339e-13 1.19713712e-15 0.00000000e+00 1.00755202e-13 0.00000000e+00 1.19720663e-15
7.24435960e+01 5.53909935e-14 7.90952196e-16 0.00000000e+00 5.46000413e-14 0.00000000e+00 7.90986575e-16
8.31763771e+01 2.96442976e-14 5.22582672e-16 0.00000000e+00 2.91217150e-14 0.00000000e+00 5.22599647e-16
9.54992586e+01 1.57365886e-14 3.45269761e-16 0.00000000e+00 1.53913188e-14 0.00000000e+00 3.45278163e-16
1.09647820e+02 8.31471206e-15 2.28118847e-16 0.00000000e+00 8.08659322e-15 0.00000000e+00 2.28123020e-16
1.25892541e+02 4.43470417e-15 1.50717281e-16 0.00000000e+00 4.28398689e-15 0.00000000e+00 1.50719385e-16
1.44543977e+02 2.37180247e-15 9.95782416e-17 0.00000000e+00 2.27222423e-15 0.00000000e+00 9.95793099e-17
1.65958691e+02 1.21703758e-15 6.57908738e-17 0.00000000e+00 1.15124671e-15 0.00000000e+00 6.57913976e-17
1.90546072e+02 6.30315020e-16 4.34676860e-17 0.00000000e+00 5.86847335e-16 0.00000000e+00 4.34679453e-17
2.18776162e+02 3.28631147e-16 2.87188575e-17 0.00000000e+00 2.99912289e-16 0.00000000e+00 2.87189867e-17
2.51188643e+02 1.72229491e-16 1.89743818e-17 0.00000000e+00 1.53255110e-16 0.00000000e+00 1.89744463e-17
2.88403150e+02 9.07003322e-17 1.25362601e-17 0.00000000e+00 7.81640722e-17 0.00000000e+00 1.25362924e-17
3.31131121e+02 4.81284417e-17 8.28263004e-18 0.00000000e+00 3.98458117e-17 0.00000000e+00 8.28264623e-18
3.80189396e+02 2.57453180e-17 5.47228198e-18 0.00000000e+00 2.02730360e-17 0.00000000e+00 5.47229010e-18
4.36515832e+02 1.39210431e-17 3.61550214e-18 0.00000000e+00 1.03055409e-17 0.00000000e+00 3.61550621e-18
5.01187234e+02 7.62006675e-18 2.38873922e-18 0.00000000e+00 5.23132753e-18 0.00000000e+00 2.38874127e-18
5.75439937e+02 4.23083316e-18 1.57822468e-18 0.00000000e+00 2.65260848e-18 0.00000000e+00 1.57822570e-18
6.60693448e+02 2.38643325e-18 1.04272287e-18 0.00000000e+00 1.34371038e-18 0.00000000e+00 1.04272338e-18
7.58577575e+02 1.36899911e-18 6.88920247e-19 0.00000000e+00 6.80078865e-19 0.00000000e+00 6.88920507e-19
8.70963590e+02 7.99011756e-19 4.55165135e-19 0.00000000e+00 3.43846621e-19 0.00000000e+00 4.55165265e-19
1.00000000e+03 1.73668033e-19 0.00000000e+00 0.00000000e+00 1.73668033e-19 0.00000000e+00 0.00000000e+00
