# column 1: lambda (micron)
# column 2: total flux; lambda*F_lambda (W/m2)
# column 3: direct stellar flux; lambda*F_lambda (W/m2)
# column 4: scattered stellar flux; lambda*F_lambda (W/m2)
# column 5: total dust emission flux; lambda*F_lambda (W/m2)
# column 6: dust emission scattered flux; lambda*F_lambda (W/m2)
# column 7: transparent flux; lambda*F_lambda (W/m2)
1.00000000e-03 1.07336237e-12 1.07335627e-12 6.10398956e-18 0.00000000e+00 0.00000000e+00 1.07335627e-12
1.14815362e-03 1.26691368e-12 1.26690456e-12 9.12870150e-18 0.00000000e+00 0.00000000e+00 1.26690456e-12
1.31825674e-03 1.49536698e-12 1.49535359e-12 1.33852150e-17 0.00000000e+00 0.00000000e+00 1.49535359e-12
1.51356125e-03 1.76501699e-12 1.76499670e-12 2.02916780e-17 0.00000000e+00 0.00000000e+00 1.76499670e-12
1.73780083e-03 2.08329823e-12 2.08326203e-12 3.62020250e-17 0.00000000e+00 0.00000000e+00 2.08326203e-12
1.99526231e-03 2.45897904e-12 2.45891716e-12 6.18756395e-17 0.00000000e+00 0.00000000e+00 2.45891716e-12
2.29086765e-03 2.90240632e-12 2.90231066e-12 9.56573741e-17 0.00000000e+00 0.00000000e+00 2.90231066e-12
2.63026799e-03 3.42584434e-12 3.42565717e-12 1.87172640e-16 0.00000000e+00 0.00000000e+00 3.42565717e-12
3.01995172e-03 4.04368144e-12 4.04337385e-12 3.07590845e-16 0.00000000e+00 0.00000000e+00 4.04337385e-12
3.46736850e-03 4.77296921e-12 4.77247759e-12 4.91616337e-16 0.00000000e+00 0.00000000e+00 4.77247759e-12
3.98107171e-03 5.63382656e-12 5.63305378e-12 7.72777376e-16 0.00000000e+00 0.00000000e+00 5.63305378e-12
4.57088190e-03 6.65064237e-12 6.64880962e-12 1.83275359e-15 0.00000000e+00 0.00000000e+00 6.64880962e-12
5.24807460e-03 7.85095623e-12 7.84772720e-12 3.22903178e-15 0.00000000e+00 0.00000000e+00 7.84772720e-12
6.02559586e-03 9.26859662e-12 9.26283435e-12 5.76227146e-15 0.00000000e+00 0.00000000e+00 9.26283435e-12
6.91830971e-03 1.09614737e-11 1.09331145e-11 2.83591543e-14 0.00000000e+00 0.00000000e+00 1.09331145e-11
7.94328235e-03 1.29190596e-11 1.29045807e-11 1.44788879e-14 0.00000000e+00 0.00000000e+00 1.29045807e-11
9.12010839e-03 1.52599655e-11 1.52315429e-11 2.84226026e-14 0.00000000e+00 0.00000000e+00 1.52315429e-11
1.04712855e-02 1.70434415e-11 1.70115517e-11 3.18898148e-14 0.00000000e+00 0.00000000e+00 1.70115517e-11
1.20226443e-02 1.70621543e-11 1.70115517e-11 5.06026103e-14 0.00000000e+00 0.00000000e+00 1.70115517e-11
1.38038426e-02 1.70872083e-11 1.70115517e-11 7.56566258e-14 7.05379171e-291 1.42579597e-292 1.70115517e-11
1.58489319e-02 1.71061339e-11 1.70115517e-11 9.45821629e-14 4.75765704e-254 1.28224032e-255 1.70115517e-11
1.81970086e-02 1.71548316e-11 1.70115517e-11 1.43279909e-13 5.37656294e-222 1.72728993e-223 1.70115517e-11
2.08929613e-02 1.71972770e-11 1.70115517e-11 1.85725248e-13 3.99894227e-194 1.61764232e-195 1.70115517e-11
2.39883292e-02 1.72601064e-11 1.70115517e-11 2.48554696e-13 7.36004332e-170 3.83589585e-171 1.70115517e-11
2.75422870e-02 1.73368188e-11 1.70115517e-11 3.25267050e-13 9.79055108e-149 6.29367672e-150 1.70115517e-11
3.16227766e-02 1.74047137e-11 1.70115517e-11 3.93162028e-13 2.34006395e-130 1.74694144e-131 1.70115517e-11
3.63078055e-02 1.74654896e-11 1.70115517e-11 4.53937868e-13 2.28893832e-114 1.93275982e-115 1.70115517e-11
4.16869383e-02 1.75991098e-11 1.70115517e-11 5.87558068e-13 1.90484448e-100 2.06625400e-101 1.70115517e-11
4.78630092e-02 1.77368154e-11 1.70115517e-11 7.25263650e-13 2.42407526e-88 3.08073182e-89 1.70115517e-11
5.49540874e-02 1.78359627e-11 1.70115517e-11 8.24410970e-13 8.15007870e-78 1.16457698e-78 1.70115517e-11
6.30957344e-02 1.78527525e-11 1.70115517e-11 8.41200783e-13 1.50494121e-68 2.29595130e-69 1.70115517e-11
7.24435960e-02 1.77577480e-11 1.70115517e-11 7.46196241e-13 1.66870369e-60 2.39808621e-61 1.70115517e-11
8.31763771e-02 1.77279741e-11 1.70115517e-11 7.16422346e-13 1.30431514e-53 1.85855335e-54 1.70115517e-11
9.54992586e-02 1.77514234e-11 1.70115517e-11 7.39871634e-13 1.24980430e-47 1.87482749e-48 1.70115517e-11
1.09647820e-01 1.70298857e-11 1.62459122e-11 7.83973511e-13 1.81746864e-42 3.01944500e-43 1.62459122e-11
1.25892541e-01 1.59462195e-11 1.51615674e-11 7.84652109e-13 5.45247623e-38 9.55767611e-39 1.51615674e-11
1.44543977e-01 1.48698339e-11 1.41495980e-11 7.20235899e-13 3.98225618e-34 7.05151577e-35 1.41495980e-11
1.65958691e-01 1.39464920e-11 1.32051732e-11 7.41318789e-13 6.90388311e-31 1.38029499e-31 1.32051732e-11
1.90546072e-01 1.30964186e-11 1.23237846e-11 7.72633999e-13 3.26128093e-28 7.65013442e-29 1.23237846e-11
2.18776162e-01 1.21800003e-11 1.15012250e-11 6.78775258e-13 5.79522907e-26 1.42619629e-26 1.15012250e-11
2.51188643e-01 1.14939021e-11 1.07335677e-11 7.60334368e-13 9.19497279e-24 2.78009109e-24 1.07335677e-11
2.88403150e-01 1.07503982e-11 1.00171482e-11 7.33249967e-13 7.53226274e-22 2.42732739e-22 1.00171482e-11
3.31131121e-01 1.00350208e-11 9.34854667e-12 6.86474144e-13 3.29928587e-20 1.09243703e-20 9.34854667e-12
3.80189396e-01 9.35759301e-12 8.72457139e-12 6.33020757e-13 8.59737949e-19 2.92299840e-19 8.72457139e-12
4.36515832e-01 8.74136315e-12 8.14224377e-12 5.99105499e-13 1.38827936e-17 4.76486086e-18 8.14224377e-12
5.01187234e-01 8.14670252e-12 7.59878402e-12 5.47769990e-13 1.48517672e-16 5.09825449e-17 7.59878402e-12
5.75439937e-01 7.59236724e-12 7.09159786e-12 4.99657834e-13 1.11154560e-15 3.77425117e-16 7.09159786e-12
6.60693448e-01 7.08149474e-12 6.61826421e-12 4.57167772e-13 6.06276445e-15 2.01342253e-15 6.61826421e-12
7.58577575e-01 6.60637879e-12 6.17652353e-12 4.04160776e-13 2.56944779e-14 8.30516186e-15 6.17652353e-12
8.70963590e-01 6.20669302e-12 5.76426715e-12 3.56128726e-13 8.62971393e-14 2.62743925e-14 5.76426715e-12
1.00000000e+00 5.92135719e-12 5.37952711e-12 3.04128452e-13 2.37701625e-13 6.65884971e-14 5.37952711e-12
1.14815362e+00 5.84340933e-12 5.02046681e-12 2.51946906e-13 5.70995615e-13 1.45242088e-13 5.02046681e-12
1.31825674e+00 6.09916214e-12 4.68537225e-12 2.03671673e-13 1.21011823e-12 2.72060070e-13 4.68537225e-12
1.51356125e+00 6.79771904e-12 4.37264380e-12 1.62067757e-13 2.26300749e-12 4.43747265e-13 4.37264380e-12
1.73780083e+00 7.96274413e-12 4.08078863e-12 1.29282985e-13 3.75267252e-12 6.21766233e-13 4.08078863e-12
1.99526231e+00 9.47067292e-12 3.80841354e-12 1.00092635e-13 5.56216674e-12 7.52231681e-13 3.80841354e-12
2.29086765e+00 1.10874030e-11 3.55421832e-12 7.38099223e-14 7.45937480e-12 7.83954597e-13 3.55421832e-12
2.63026799e+00 1.24816594e-11 3.31698953e-12 5.19380905e-14 9.11273174e-12 7.19010805e-13 3.31698953e-12
3.01995172e+00 1.35119207e-11 3.09559474e-12 3.53214185e-14 1.03810046e-11 5.92287335e-13 3.09559474e-12
3.46736850e+00 1.40776102e-11 2.88897711e-12 2.35364224e-14 1.11650967e-11 4.44730035e-13 2.88897711e-12
3.98107171e+00 1.40393844e-11 2.69615031e-12 1.49746301e-14 1.13282594e-11 3.03529623e-13 2.69615031e-12
4.57088190e+00 1.36117922e-11 2.51619387e-12 9.14052098e-15 1.10864578e-11 1.92232247e-13 2.51619387e-12
5.24807460e+00 1.26152375e-11 2.08050667e-12 4.89707117e-15 1.05298338e-11 1.15509248e-13 2.08050667e-12
6.02559586e+00 1.12502060e-11 1.37457712e-12 1.98943657e-15 9.87363941e-12 6.63408623e-14 1.37457712e-12
6.70000000e+00 1.03169589e-11 9.99872685e-13 9.71377417e-16 9.31611482e-12 4.13305613e-14 9.99872685e-13
6.92422916e+00 1.00416778e-11 9.05846924e-13 7.71578770e-16 9.13505926e-12 3.56845193e-14 9.05846924e-13
7.15596261e+00 9.86442032e-12 8.20663132e-13 6.08000820e-16 9.04314918e-12 3.04400966e-14 8.20663132e-13
7.39545150e+00 9.85681894e-12 7.43489831e-13 4.65328458e-16 9.11286378e-12 2.61196169e-14 7.43489831e-13
7.64295536e+00 1.03855584e-11 6.73573732e-13 3.41010493e-16 9.71164369e-12 2.27715175e-14 6.73573732e-13
7.89874245e+00 1.16749612e-11 6.10232385e-13 2.25497642e-16 1.10645033e-11 1.97988325e-14 6.10232385e-13
8.16308998e+00 1.34674856e-11 5.52847515e-13 1.43103053e-16 1.29144950e-11 1.71561268e-14 5.52847515e-13
8.43628443e+00 1.57747174e-11 5.00858987e-13 8.27437741e-17 1.52737757e-11 1.40576944e-14 5.00858987e-13
8.71862190e+00 1.72708042e-11 4.53759343e-13 4.93939554e-17 1.68169955e-11 1.09941462e-14 4.53759343e-13
9.01040836e+00 1.86970887e-11 4.11088843e-13 2.38990016e-17 1.82859760e-11 7.22308341e-15 4.11088843e-13
9.31196005e+00 1.97345530e-11 3.72430980e-13 0.00000000e+00 1.93621220e-11 0.00000000e+00 3.72430980e-13
9.62360379e+00 1.96484396e-11 3.37408415e-13 0.00000000e+00 1.93110312e-11 0.00000000e+00 3.37408415e-13
9.94567731e+00 1.86939396e-11 3.05679292e-13 0.00000000e+00 1.83882603e-11 0.00000000e+00 3.05679292e-13
1.02785297e+01 1.75702401e-11 2.76933904e-13 0.00000000e+00 1.72933062e-11 0.00000000e+00 2.76933904e-13
1.06225216e+01 1.65008429e-11 2.50891667e-13 0.00000000e+00 1.62499513e-11 0.00000000e+00 2.50891667e-13
1.09780260e+01 1.51813433e-11 2.27298384e-13 0.00000000e+00 1.49540449e-11 0.00000000e+00 2.27298384e-13
1.13454280e+01 1.40463850e-11 2.05923759e-13 0.00000000e+00 1.38404613e-11 0.00000000e+00 2.05923759e-13
1.17251259e+01 1.30514812e-11 1.86559155e-13 0.00000000e+00 1.28649220e-11 0.00000000e+00 1.86559155e-13
1.21175312e+01 1.21109248e-11 1.69015555e-13 0.00000000e+00 1.19419092e-11 0.00000000e+00 1.69015555e-13
1.25230691e+01 1.12183199e-11 1.53121715e-13 0.00000000e+00 1.10651982e-11 0.00000000e+00 1.53121715e-13
1.29421791e+01 1.04702864e-11 1.38722496e-13 0.00000000e+00 1.03315639e-11 0.00000000e+00 1.38722496e-13
1.33753155e+01 9.80391078e-12 1.25677347e-13 0.00000000e+00 9.67823343e-12 0.00000000e+00 1.25677347e-13
1.38229477e+01 9.39510750e-12 1.13858934e-13 0.00000000e+00 9.28124857e-12 0.00000000e+00 1.13858934e-13
1.42855609e+01 9.20436140e-12 1.03151898e-13 0.00000000e+00 9.10120950e-12 0.00000000e+00 1.03151898e-13
1.47636563e+01 9.45718922e-12 9.34517274e-14 0.00000000e+00 9.36373749e-12 0.00000000e+00 9.34517274e-14
1.52577522e+01 9.81196321e-12 8.46637387e-14 0.00000000e+00 9.72729947e-12 0.00000000e+00 8.46637387e-14
1.57683840e+01 1.02353426e-11 7.67021526e-14 0.00000000e+00 1.01586404e-11 0.00000000e+00 7.67021526e-14
1.62961051e+01 1.06844542e-11 6.94892560e-14 0.00000000e+00 1.06149650e-11 0.00000000e+00 6.94892560e-14
1.68414875e+01 1.11445811e-11 6.29546439e-14 0.00000000e+00 1.10816264e-11 0.00000000e+00 6.29546439e-14
1.74051222e+01 1.14799406e-11 5.70345319e-14 0.00000000e+00 1.14229061e-11 0.00000000e+00 5.70345319e-14
1.79876201e+01 1.16911823e-11 5.16711337e-14 0.00000000e+00 1.16395112e-11 0.00000000e+00 5.16711337e-14
1.85896125e+01 1.17228966e-11 4.68120974e-14 0.00000000e+00 1.16760845e-11 0.00000000e+00 4.68120974e-14
1.92117518e+01 1.15967674e-11 4.24099939e-14 0.00000000e+00 1.15543574e-11 0.00000000e+00 4.24099939e-14
1.98547123e+01 1.13602505e-11 3.84218542e-14 0.00000000e+00 1.13218286e-11 0.00000000e+00 3.84218542e-14
2.05191907e+01 1.10705635e-11 3.48087501e-14 0.00000000e+00 1.10357548e-11 0.00000000e+00 3.48087501e-14
2.12059073e+01 1.07453335e-11 3.15354141e-14 0.00000000e+00 1.07137981e-11 0.00000000e+00 3.15354141e-14
2.19156062e+01 1.04410943e-11 2.85698952e-14 0.00000000e+00 1.04125244e-11 0.00000000e+00 2.85698952e-14
2.26490567e+01 1.01230852e-11 2.58832470e-14 0.00000000e+00 1.00972020e-11 0.00000000e+00 2.58832470e-14
2.34070535e+01 9.81012580e-12 2.34492452e-14 0.00000000e+00 9.78667656e-12 0.00000000e+00 2.34492452e-14
2.41904183e+01 9.50249220e-12 2.12441313e-14 0.00000000e+00 9.48124807e-12 0.00000000e+00 2.12441313e-14
2.50000000e+01 9.18584906e-12 1.92463813e-14 0.00000000e+00 9.16660268e-12 0.00000000e+00 1.92463813e-14
2.75422870e+01 8.19989428e-12 1.43935895e-14 0.00000000e+00 8.18550069e-12 0.00000000e+00 1.43935895e-14
3.16227766e+01 6.67100868e-12 9.50975027e-15 0.00000000e+00 6.66149893e-12 0.00000000e+00 9.50975027e-15
3.63078055e+01 5.10075117e-12 6.28302969e-15 0.00000000e+00 5.09446814e-12 0.00000000e+00 6.28302969e-15
4.16869383e+01 3.61065314e-12 4.15115655e-15 0.00000000e+00 3.60650198e-12 0.00000000e+00 4.15115655e-15
4.78630092e+01 2.38102775e-12 2.74264194e-15 0.00000000e+00 2.37828511e-12 0.00000000e+00 2.74264194e-15
5.49540874e+01 1.47845831e-12 1.81204556e-15 0.00000000e+00 1.47664626e-12 0.00000000e+00 1.81204556e-15
6.30957344e+01 8.78547225e-13 1.19720663e-15 0.00000000e+00 8.77350018e-13 0.00000000e+00 1.19720663e-15
7.24435960e+01 5.04294771e-13 7.90986575e-16 0.00000000e+00 5.03503784e-13 0.00000000e+00 7.90986575e-16
8.31763771e+01 2.82489911e-13 5.22599647e-16 0.00000000e+00 2.81967311e-13 0.00000000e+00 5.22599647e-16
9.54992586e+01 1.55525562e-13 3.45278163e-16 0.00000000e+00 1.55180284e-13 0.00000000e+00 3.45278163e-16
1.09647820e+02 8.46138030e-14 2.28123020e-16 0.00000000e+00 8.43856799e-14 0.00000000e+00 2.28123020e-16
1.25892541e+02 4.61388569e-14 1.50719385e-16 0.00000000e+00 4.59881376e-14 0.00000000e+00 1.50719385e-16
1.44543977e+02 2.50716034e-14 9.95793099e-17 0.00000000e+00 2.49720241e-14 0.00000000e+00 9.95793099e-17
1.65958691e+02 1.29941038e-14 6.57913976e-17 0.00000000e+00 1.29283124e-14 0.00000000e+00 6.57913976e-17
1.90546072e+02 6.75329504e-15 4.34679453e-17 0.00000000e+00 6.70982710e-15 0.00000000e+00 4.34679453e-17
2.18776162e+02 3.51013590e-15 2.87189867e-17 0.00000000e+00 3.48141691e-15 0.00000000e+00 2.87189867e-17
2.51188643e+02 1.82094378e-15 1.89744463e-17 0.00000000e+00 1.80196933e-15 0.00000000e+00 1.89744463e-17
2.88403150e+02 9.41681222e-16 1.25362924e-17 0.00000000e+00 9.29144930e-16 0.00000000e+00 1.25362924e-17
3.31131121e+02 4.86374241e-16 8.28264623e-18 0.00000000e+00 4.78091595e-16 0.00000000e+00 8.28264623e-18
3.80189396e+02 2.50666625e-16 5.47229010e-18 0.00000000e+00 2.45194335e-16 0.00000000e+00 5.47229010e-18
4.36515832e+02 1.29110976e-16 3.61550621e-18 0.00000000e+00 1.25495470e-16 0.00000000e+00 3.61550621e-18
5.01187234e+02 6.64675874e-17 2.38874127e-18 0.00000000e+00 6.40788461e-17 0.00000000e+00 2.38874127e-18
5.75439937e+02 3.42339854e-17 1.57822570e-18 0.00000000e+00 3.26557597e-17 0.00000000e+00 1.57822570e-18
6.60693448e+02 1.76565554e-17 1.04272338e-18 0.00000000e+00 1.66138320e-17 0.00000000e+00 1.04272338e-18
7.58577575e+02 9.12884302e-18 6.88920507e-19 0.00000000e+00 8.43992251e-18 0.00000000e+00 6.88920507e-19
8.70963590e+02 4.73605996e-18 4.55165265e-19 0.00000000e+00 4.28089470e-18 0.00000000e+00 4.55165265e-19
1.00000000e+03 2.16816483e-18 0.00000000e+00 0.00000000e+00 2.16816483e-18 0.00000000e+00 0.00000000e+00
