# column 1: lambda (micron)
# column 2: total flux; lambda*F_lambda (W/m2)
# column 3: direct stellar flux; lambda*F_lambda (W/m2)
# column 4: scattered stellar flux; lambda*F_lambda (W/m2)
# column 5: total dust emission flux; lambda*F_lambda (W/m2)
# column 6: dust emission scattered flux; lambda*F_lambda (W/m2)
# column 7: transparent flux; lambda*F_lambda (W/m2)
1.00000000e-03 6.93232073e-13 6.93231947e-13 1.26295783e-19 0.00000000e+00 0.00000000e+00 6.93993746e-13
1.14815362e-03 8.17947617e-13 8.17947406e-13 2.11089946e-19 0.00000000e+00 0.00000000e+00 8.19135139e-13
1.31825674e-03 9.65060374e-13 9.65060053e-13 3.20903744e-19 0.00000000e+00 0.00000000e+00 9.66842108e-13
1.51356125e-03 1.13870485e-12 1.13870426e-12 5.92168005e-19 0.00000000e+00 0.00000000e+00 1.14118369e-12
1.73780083e-03 1.34406000e-12 1.34400593e-12 5.40721632e-17 0.00000000e+00 0.00000000e+00 1.34696266e-12
1.99526231e-03 1.58528849e-12 1.58522247e-12 6.60192624e-17 0.00000000e+00 0.00000000e+00 1.58984782e-12
2.29086765e-03 1.87086943e-12 1.87074143e-12 1.28003086e-16 0.00000000e+00 0.00000000e+00 1.87653019e-12
2.63026799e-03 2.20770408e-12 2.20672193e-12 9.82148432e-16 0.00000000e+00 0.00000000e+00 2.21490731e-12
3.01995172e-03 2.60359888e-12 2.60235701e-12 1.24187034e-15 0.00000000e+00 0.00000000e+00 2.61430080e-12
3.46736850e-03 3.06944698e-12 3.06910367e-12 3.43312377e-16 0.00000000e+00 0.00000000e+00 3.08571319e-12
3.98107171e-03 3.62025555e-12 3.61969911e-12 5.56437847e-16 0.00000000e+00 0.00000000e+00 3.64213095e-12
4.57088190e-03 4.28621954e-12 4.28120293e-12 5.01661348e-15 0.00000000e+00 0.00000000e+00 4.29888232e-12
5.24807460e-03 5.04939572e-12 5.04742216e-12 1.97355910e-15 0.00000000e+00 0.00000000e+00 5.07405951e-12
6.02559586e-03 5.95474628e-12 5.95112818e-12 3.61810869e-15 0.00000000e+00 0.00000000e+00 5.98901715e-12
6.91830971e-03 7.05806312e-12 7.01737160e-12 4.06915265e-14 0.00000000e+00 0.00000000e+00 7.06896053e-12
7.94328235e-03 8.29554579e-12 8.27573444e-12 1.98113557e-14 1.81207672e-303 1.62413149e-305 8.34363998e-12
9.12010839e-03 9.77916099e-12 9.75926763e-12 1.98933557e-14 9.12645729e-265 3.31119336e-267 9.84817045e-12
1.04712855e-02 1.09191063e-11 1.08934578e-11 2.56484882e-14 4.38480180e-231 2.77958481e-233 1.09990604e-11
1.20226443e-02 1.09133671e-11 1.08872571e-11 2.61100169e-14 7.64460438e-202 3.49121709e-204 1.09990604e-11
1.38038426e-02 1.09158437e-11 1.08799070e-11 3.59367448e-14 2.29508786e-176 1.59640363e-178 1.09990604e-11
1.58489319e-02 1.09025687e-11 1.08708811e-11 3.16876021e-14 3.37195536e-154 2.54762775e-156 1.09990604e-11
1.81970086e-02 1.09015070e-11 1.08625629e-11 3.89441469e-14 6.47188116e-135 6.22502096e-137 1.09990604e-11
2.08929613e-02 1.08932125e-11 1.08556536e-11 3.75589228e-14 3.60367661e-118 4.32792026e-120 1.09990604e-11
2.39883292e-02 1.08866017e-11 1.08467079e-11 3.98937959e-14 1.33656941e-103 1.94735500e-105 1.09990604e-11
2.75422870e-02 1.08801874e-11 1.08363118e-11 4.38755980e-14 6.28115187e-91 1.12770774e-92 1.09990604e-11
3.16227766e-02 1.08742960e-11 1.08261311e-11 4.81649181e-14 6.38329737e-80 1.30233966e-81 1.09990604e-11
3.63078055e-02 1.08648424e-11 1.08181525e-11 4.66898851e-14 2.29755066e-70 5.38529082e-72 1.09990604e-11
4.16869383e-02 1.08661030e-11 1.08112564e-11 5.48465684e-14 4.52042793e-62 1.39564779e-63 1.09990604e-11
4.78630092e-02 1.08563798e-11 1.07922702e-11 6.41096374e-14 7.05039535e-55 2.91550286e-56 1.09990604e-11
5.49540874e-02 1.08364715e-11 1.07659216e-11 7.05498958e-14 1.20356646e-48 6.05448344e-50 1.09990604e-11
6.30957344e-02 1.07880398e-11 1.07001351e-11 8.79046375e-14 3.98077311e-43 2.41251046e-44 1.09990604e-11
7.24435960e-02 1.07083630e-11 1.06227301e-11 8.56329111e-14 2.34293072e-38 1.39686807e-39 1.09990604e-11
8.31763771e-02 1.07147996e-11 1.06295953e-11 8.52043101e-14 2.43581625e-34 1.43284642e-35 1.09990604e-11
9.54992586e-02 1.07320129e-11 1.06497560e-11 8.22568858e-14 6.97345366e-31 4.31485265e-32 1.09990604e-11
1.09647820e-01 1.03050850e-11 1.02261469e-11 7.89381014e-14 6.00160301e-28 3.95501273e-29 1.05040253e-11
1.25892541e-01 9.65887035e-12 9.58895282e-12 6.99175341e-14 1.96298492e-25 1.23303890e-26 9.80292679e-12
1.44543977e-01 9.04149668e-12 8.98279635e-12 5.87003304e-14 2.69623473e-23 1.62091521e-24 9.14862359e-12
1.65958691e-01 8.45837446e-12 8.40249293e-12 5.58815325e-14 1.37971784e-21 9.26188044e-23 8.53799231e-12
1.90546072e-01 7.89491602e-12 7.83328109e-12 6.16349006e-14 2.93663329e-20 2.38205216e-21 7.96811805e-12
2.18776162e-01 7.35218671e-12 7.28888682e-12 6.32995396e-14 3.51535679e-19 3.14766247e-20 7.43628044e-12
2.51188643e-01 6.89403658e-12 6.82971184e-12 6.43204274e-14 4.31141343e-18 4.69814627e-19 6.93994070e-12
2.88403150e-01 6.44923160e-12 6.39120560e-12 5.79900175e-14 3.59881125e-17 3.80932896e-18 6.47672950e-12
3.31131121e-01 6.02703070e-12 5.97479947e-12 5.20250027e-14 2.06219717e-16 2.06084396e-17 6.04443567e-12
3.80189396e-01 5.62933905e-12 5.58388571e-12 4.45897614e-14 8.63578570e-16 8.57822701e-17 5.64099558e-12
4.36515832e-01 5.25883034e-12 5.21806676e-12 3.80276775e-14 2.73589566e-15 2.65700180e-16 5.26448339e-12
5.01187234e-01 4.91762194e-12 4.87588783e-12 3.48922661e-14 6.84184649e-15 6.59728434e-16 4.91310176e-12
5.75439937e-01 4.60119841e-12 4.55564672e-12 3.14858113e-14 1.40658784e-14 1.34144371e-15 4.58517335e-12
6.60693448e-01 4.30924693e-12 4.25590942e-12 2.86676955e-14 2.46698065e-14 2.37212156e-15 4.27913275e-12
7.58577575e-01 4.03756092e-12 3.97547626e-12 2.37260619e-14 3.83585961e-14 3.65920616e-15 3.99351904e-12
8.70963590e-01 3.78858746e-12 3.71326192e-12 2.11903964e-14 5.41351488e-14 5.01874069e-15 3.72696882e-12
1.00000000e+00 3.55752508e-12 3.46796540e-12 1.86407782e-14 7.09189029e-14 6.33771610e-15 3.47820968e-12
1.14815362e+00 3.34432158e-12 3.23853416e-12 1.54037572e-14 9.03836592e-14 7.65003373e-15 3.24605414e-12
1.31825674e+00 3.15115839e-12 3.02397000e-12 1.18206918e-14 1.15367698e-13 8.85601264e-15 3.02939399e-12
1.51356125e+00 2.98199722e-12 2.82332247e-12 9.08185241e-15 1.49592889e-13 1.02229503e-14 2.82719497e-12
1.73780083e+00 2.83684119e-12 2.63577213e-12 6.84187809e-15 1.94227180e-13 1.13719348e-14 2.63849186e-12
1.99526231e+00 2.71220392e-12 2.46050379e-12 5.00341914e-15 2.46696717e-13 1.15929023e-14 2.46238388e-12
2.29086765e+00 2.60110688e-12 2.29673475e-12 3.46604546e-15 3.00906081e-13 1.10830803e-14 2.29803035e-12
2.63026799e+00 2.49341570e-12 2.14374555e-12 2.35501885e-15 3.47315132e-13 9.35238161e-15 2.14464670e-12
3.01995172e+00 2.38161306e-12 2.00086591e-12 1.39835592e-15 3.79348790e-13 7.17928453e-15 2.00150076e-12
3.46736850e+00 2.26070315e-12 1.86745466e-12 8.71046289e-16 3.92377450e-13 5.04958506e-15 1.86790919e-12
3.98107171e+00 2.12813442e-12 1.74290470e-12 5.25576075e-16 3.84704149e-13 3.25809154e-15 1.74323429e-12
4.57088190e+00 1.98722097e-12 1.62663865e-12 2.93912939e-16 3.60288414e-13 1.97749277e-15 1.62688090e-12
5.24807460e+00 1.67081979e-12 1.34502023e-12 1.52926448e-16 3.25646634e-13 1.11825937e-15 1.34518114e-12
6.02559586e+00 1.17731916e-12 8.88664021e-13 6.08357864e-17 2.88594300e-13 5.92510206e-16 8.88752369e-13
6.70000000e+00 9.05792217e-13 6.46425007e-13 2.95922003e-17 2.59337618e-13 3.46160105e-16 6.46481889e-13
6.92422916e+00 8.35677651e-13 5.85638471e-13 2.28051226e-17 2.50016376e-13 2.87528420e-16 5.85688198e-13
7.15596261e+00 7.74541405e-13 5.30567143e-13 1.78692696e-17 2.43956393e-13 2.37552116e-16 5.30611407e-13
7.39545150e+00 7.25691988e-13 4.80672854e-13 1.40726471e-17 2.45005061e-13 1.98627584e-16 4.80713913e-13
7.64295536e+00 7.02088313e-13 4.35466284e-13 1.05376395e-17 2.66611492e-13 1.74868644e-16 4.35508666e-13
7.89874245e+00 7.14904376e-13 3.94504810e-13 7.04272866e-18 3.20392524e-13 1.59390018e-16 3.94554418e-13
8.16308998e+00 7.58167128e-13 3.57390730e-13 4.94321485e-18 4.00771455e-13 1.45060699e-16 3.57451415e-13
8.43628443e+00 8.39527339e-13 3.23761114e-13 3.08450701e-18 5.15763141e-13 1.26514085e-16 3.23837494e-13
8.71862190e+00 8.92046971e-13 2.93299527e-13 1.79651038e-18 5.98745647e-13 1.00583654e-16 2.93384550e-13
9.01040836e+00 9.51471069e-13 2.65702023e-13 8.42261822e-19 6.85768204e-13 6.43779097e-17 2.65795332e-13
9.31196005e+00 9.96622989e-13 2.40702498e-13 0.00000000e+00 7.55920491e-13 0.00000000e+00 2.40800541e-13
9.62360379e+00 9.70285064e-13 2.18065041e-13 0.00000000e+00 7.52220023e-13 0.00000000e+00 2.18156204e-13
9.94567731e+00 8.90131506e-13 1.97563793e-13 0.00000000e+00 6.92567713e-13 0.00000000e+00 1.97641289e-13
1.02785297e+01 7.97968491e-13 1.78992035e-13 0.00000000e+00 6.18976456e-13 0.00000000e+00 1.79055550e-13
1.06225216e+01 7.10368975e-13 1.62166073e-13 0.00000000e+00 5.48202902e-13 0.00000000e+00 1.62217572e-13
1.09780260e+01 6.18751607e-13 1.46922749e-13 0.00000000e+00 4.71828859e-13 0.00000000e+00 1.46962999e-13
1.13454280e+01 5.40021144e-13 1.33111347e-13 0.00000000e+00 4.06909797e-13 0.00000000e+00 1.33142932e-13
1.17251259e+01 4.73659768e-13 1.20597528e-13 0.00000000e+00 3.53062240e-13 0.00000000e+00 1.20622472e-13
1.21175312e+01 4.14852661e-13 1.09259810e-13 0.00000000e+00 3.05592851e-13 0.00000000e+00 1.09279408e-13
1.25230691e+01 3.62959756e-13 9.89876640e-14 0.00000000e+00 2.63972092e-13 0.00000000e+00 9.90030204e-14
1.29421791e+01 3.19438763e-13 8.96808840e-14 0.00000000e+00 2.29757879e-13 0.00000000e+00 8.96930008e-14
1.33753155e+01 2.82740640e-13 8.12488454e-14 0.00000000e+00 2.01491795e-13 0.00000000e+00 8.12584743e-14
1.38229477e+01 2.56880695e-13 7.36091066e-14 0.00000000e+00 1.83271589e-13 0.00000000e+00 7.36171115e-14
1.42855609e+01 2.39419518e-13 6.66873679e-14 0.00000000e+00 1.72732151e-13 0.00000000e+00 6.66943252e-14
1.47636563e+01 2.34841267e-13 6.04159390e-14 0.00000000e+00 1.74425328e-13 0.00000000e+00 6.04225420e-14
1.52577522e+01 2.33519082e-13 5.47341631e-14 0.00000000e+00 1.78784919e-13 0.00000000e+00 5.47405431e-14
1.57683840e+01 2.34743386e-13 4.95866229e-14 0.00000000e+00 1.85156763e-13 0.00000000e+00 4.95928665e-14
1.62961051e+01 2.36762480e-13 4.49231629e-14 0.00000000e+00 1.91839317e-13 0.00000000e+00 4.49292657e-14
1.68414875e+01 2.39150977e-13 4.06982676e-14 0.00000000e+00 1.98452710e-13 0.00000000e+00 4.07042194e-14
1.74051222e+01 2.37860821e-13 3.68708349e-14 0.00000000e+00 2.00989986e-13 0.00000000e+00 3.68764869e-14
1.79876201e+01 2.34441839e-13 3.34034285e-14 0.00000000e+00 2.01038411e-13 0.00000000e+00 3.34087056e-14
1.85896125e+01 2.26616917e-13 3.02622519e-14 0.00000000e+00 1.96354665e-13 0.00000000e+00 3.02670267e-14
1.92117518e+01 2.14926040e-13 2.74165901e-14 0.00000000e+00 1.87509450e-13 0.00000000e+00 2.74207841e-14
1.98547123e+01 2.01235332e-13 2.48385837e-14 0.00000000e+00 1.76396748e-13 0.00000000e+00 2.48421957e-14
2.05191907e+01 1.87311955e-13 2.25030125e-14 0.00000000e+00 1.64808943e-13 0.00000000e+00 2.25060919e-14
2.12059073e+01 1.74512278e-13 2.03870451e-14 0.00000000e+00 1.54125233e-13 0.00000000e+00 2.03896700e-14
2.19156062e+01 1.63258603e-13 1.84700233e-14 0.00000000e+00 1.44788580e-13 0.00000000e+00 1.84722717e-14
2.26490567e+01 1.53030866e-13 1.67332521e-14 0.00000000e+00 1.36297614e-13 0.00000000e+00 1.67351811e-14
2.34070535e+01 1.43689903e-13 1.51597846e-14 0.00000000e+00 1.28530119e-13 0.00000000e+00 1.51614426e-14
2.41904183e+01 1.35164615e-13 1.37342662e-14 0.00000000e+00 1.21430349e-13 0.00000000e+00 1.37356949e-14
2.50000000e+01 1.27405412e-13 1.24427876e-14 0.00000000e+00 1.14962624e-13 0.00000000e+00 1.24440213e-14
2.75422870e+01 1.07183950e-13 9.30557520e-15 0.00000000e+00 9.78783752e-14 0.00000000e+00 9.30637977e-15
3.16227766e+01 8.33319127e-14 6.14822209e-15 0.00000000e+00 7.71836906e-14 0.00000000e+00 6.14866414e-15
3.63078055e+01 6.26309633e-14 4.06214052e-15 0.00000000e+00 5.85688227e-14 0.00000000e+00 4.06238211e-15
4.16869383e+01 4.46480953e-14 2.68386071e-15 0.00000000e+00 4.19642345e-14 0.00000000e+00 2.68398924e-15
4.78630092e+01 3.00772598e-14 1.77322784e-15 0.00000000e+00 2.83040320e-14 0.00000000e+00 1.77329411e-15
5.49540874e+01 1.93450016e-14 1.17157036e-15 0.00000000e+00 1.81734313e-14 0.00000000e+00 1.17160380e-15
6.30957344e+01 1.19993568e-14 7.74054298e-16 0.00000000e+00 1.12253025e-14 0.00000000e+00 7.74070953e-16
7.24435960e+01 7.22969078e-15 5.11415370e-16 0.00000000e+00 6.71827541e-15 0.00000000e+00 5.11423607e-16
8.31763771e+01 4.26266104e-15 3.37890159e-16 0.00000000e+00 3.92477088e-15 0.00000000e+00 3.37894226e-16
9.54992586e+01 2.47410394e-15 2.23242488e-16 0.00000000e+00 2.25086145e-15 0.00000000e+00 2.23244502e-16
1.09647820e+02 1.41930942e-15 1.47495180e-16 0.00000000e+00 1.27181424e-15 0.00000000e+00 1.47496179e-16
1.25892541e+02 8.15526438e-16 9.74492553e-17 0.00000000e+00 7.18077182e-16 0.00000000e+00 9.74497594e-17
1.44543977e+02 4.66939943e-16 6.43841616e-17 0.00000000e+00 4.02555781e-16 0.00000000e+00 6.43844175e-17
1.65958691e+02 2.56850647e-16 4.25382373e-17 0.00000000e+00 2.14312409e-16 0.00000000e+00 4.25383628e-17
1.90546072e+02 1.42133974e-16 2.81047555e-17 0.00000000e+00 1.14029218e-16 0.00000000e+00 2.81048176e-17
2.18776162e+02 7.90436879e-17 1.85686379e-17 0.00000000e+00 6.04750500e-17 0.00000000e+00 1.85686688e-17
2.51188643e+02 4.41772203e-17 1.22681824e-17 0.00000000e+00 3.19090379e-17 0.00000000e+00 1.22681978e-17
2.88403150e+02 2.48363877e-17 8.10551020e-18 0.00000000e+00 1.67308775e-17 0.00000000e+00 8.10551794e-18
3.31131121e+02 1.40908321e-17 5.35525871e-18 0.00000000e+00 8.73557342e-18 0.00000000e+00 5.35526259e-18
3.80189396e+02 8.07561414e-18 3.53818496e-18 0.00000000e+00 4.53742918e-18 0.00000000e+00 3.53818691e-18
4.36515832e+02 4.68579279e-18 2.33765593e-18 0.00000000e+00 2.34813686e-18 0.00000000e+00 2.33765691e-18
5.01187234e+02 2.75501330e-18 1.54447411e-18 0.00000000e+00 1.21053919e-18 0.00000000e+00 1.54447460e-18
5.75439937e+02 1.64250264e-18 1.02042400e-18 0.00000000e+00 6.22078634e-19 0.00000000e+00 1.02042425e-18
6.60693448e+02 9.92975747e-19 6.74187493e-19 0.00000000e+00 3.18788254e-19 0.00000000e+00 6.74187617e-19
7.58577575e+02 6.08399408e-19 4.45431279e-19 0.00000000e+00 1.62968129e-19 0.00000000e+00 4.45431341e-19
8.70963590e+02 3.77407268e-19 2.94293537e-19 0.00000000e+00 8.31137307e-20 0.00000000e+00 2.94293569e-19
1.00000000e+03 4.22952849e-20 0.00000000e+00 0.00000000e+00 4.22952849e-20 0.00000000e+00 0.00000000e+00
