# column 1: lambda (micron)
# column 2: total flux; lambda*F_lambda (W/m2)
# column 3: direct stellar flux; lambda*F_lambda (W/m2)
# column 4: scattered stellar flux; lambda*F_lambda (W/m2)
# column 5: total dust emission flux; lambda*F_lambda (W/m2)
# column 6: dust emission scattered flux; lambda*F_lambda (W/m2)
# column 7: transparent flux; lambda*F_lambda (W/m2)
1.00000000e-03 9.68074429e-13 9.68073281e-13 1.14822565e-18 0.00000000e+00 0.00000000e+00 9.68073281e-13
1.14815362e-03 1.14263864e-12 1.14263687e-12 1.77443512e-18 0.00000000e+00 0.00000000e+00 1.14263687e-12
1.31825674e-03 1.34868054e-12 1.34867788e-12 2.65825235e-18 0.00000000e+00 0.00000000e+00 1.34867788e-12
1.51356125e-03 1.59187634e-12 1.59187233e-12 4.01178693e-18 0.00000000e+00 0.00000000e+00 1.59187233e-12
1.73780083e-03 1.87892703e-12 1.87891976e-12 7.27112521e-18 0.00000000e+00 0.00000000e+00 1.87891976e-12
1.99526231e-03 2.21774025e-12 2.21772777e-12 1.24891643e-17 0.00000000e+00 0.00000000e+00 2.21772777e-12
2.29086765e-03 2.61764891e-12 2.61762985e-12 1.90672474e-17 0.00000000e+00 0.00000000e+00 2.61762985e-12
2.63026799e-03 3.08968065e-12 3.08964252e-12 3.81245804e-17 0.00000000e+00 0.00000000e+00 3.08964252e-12
3.01995172e-03 3.64682978e-12 3.64676883e-12 6.09566690e-17 0.00000000e+00 0.00000000e+00 3.64676883e-12
3.46736850e-03 4.30445498e-12 4.30435650e-12 9.84844792e-17 0.00000000e+00 0.00000000e+00 4.30435650e-12
3.98107171e-03 5.08067909e-12 5.08052080e-12 1.58294715e-16 0.00000000e+00 0.00000000e+00 5.08052080e-12
4.57088190e-03 5.99701635e-12 5.99664354e-12 3.72808494e-16 0.00000000e+00 0.00000000e+00 5.99664354e-12
5.24807460e-03 7.07862248e-12 7.07796211e-12 6.60361733e-16 0.00000000e+00 0.00000000e+00 7.07796211e-12
6.02559586e-03 8.35545231e-12 8.35426474e-12 1.18756303e-15 0.00000000e+00 0.00000000e+00 8.35426474e-12
6.91830971e-03 9.86246666e-12 9.86071107e-12 1.75559247e-15 0.00000000e+00 0.00000000e+00 9.86071107e-12
7.94328235e-03 1.16417653e-11 1.16388008e-11 2.96454205e-15 0.00000000e+00 0.00000000e+00 1.16388008e-11
9.12010839e-03 1.37427944e-11 1.37375167e-11 5.27767897e-15 0.00000000e+00 0.00000000e+00 1.37375167e-11
1.04712855e-02 1.53494792e-11 1.53429287e-11 6.55053536e-15 0.00000000e+00 0.00000000e+00 1.53429287e-11
1.20226443e-02 1.53526406e-11 1.53429287e-11 9.71191563e-15 0.00000000e+00 0.00000000e+00 1.53429287e-11
1.38038426e-02 1.53563977e-11 1.53429287e-11 1.34689922e-14 2.16256164e-289 1.86276368e-290 1.53429287e-11
1.58489319e-02 1.53830402e-11 1.53429287e-11 4.01115208e-14 1.32164514e-252 1.10555778e-253 1.53429287e-11
1.81970086e-02 1.53699393e-11 1.53429287e-11 2.70106320e-14 1.35931334e-220 9.98625363e-222 1.53429287e-11
2.08929613e-02 1.53822526e-11 1.53429287e-11 3.93239012e-14 9.33161322e-193 6.96182113e-194 1.53429287e-11
2.39883292e-02 1.53955097e-11 1.53429287e-11 5.25810344e-14 1.59059959e-168 1.27580955e-169 1.53429287e-11
2.75422870e-02 1.54132168e-11 1.53429287e-11 7.02881099e-14 1.92634044e-147 1.55158658e-148 1.53429287e-11
3.16227766e-02 1.54287513e-11 1.53429287e-11 8.58226557e-14 4.19757924e-129 3.46866973e-130 1.53429287e-11
3.63078055e-02 1.54410441e-11 1.53429287e-11 9.81154689e-14 3.62641425e-113 3.12261048e-114 1.53429287e-11
4.16869383e-02 1.54791716e-11 1.53429287e-11 1.36242974e-13 2.63029807e-99 2.69293383e-100 1.53429287e-11
4.78630092e-02 1.55254849e-11 1.53429287e-11 1.82556207e-13 2.87640384e-87 3.32951312e-88 1.53429287e-11
5.49540874e-02 1.55610908e-11 1.53429287e-11 2.18162139e-13 8.22829298e-77 1.06122057e-77 1.53429287e-11
6.30957344e-02 1.55925834e-11 1.53429287e-11 2.49654726e-13 1.27353798e-67 1.78629178e-68 1.53429287e-11
7.24435960e-02 1.55754355e-11 1.53429287e-11 2.32506807e-13 1.17503143e-59 1.53851240e-60 1.53429287e-11
8.31763771e-02 1.55731151e-11 1.53429287e-11 2.30186467e-13 7.72896445e-53 9.90204533e-54 1.53429287e-11
9.54992586e-02 1.55849344e-11 1.53429287e-11 2.42005696e-13 6.19212496e-47 8.22906571e-48 1.53429287e-11
1.09647820e-01 1.49011198e-11 1.46523889e-11 2.48730881e-13 7.45160608e-42 1.07855971e-42 1.46523889e-11
1.25892541e-01 1.39071569e-11 1.36744049e-11 2.32751969e-13 1.81941125e-37 2.67125953e-38 1.36744049e-11
1.44543977e-01 1.29734243e-11 1.27616972e-11 2.11727073e-13 1.09762144e-33 1.61689978e-34 1.27616972e-11
1.65958691e-01 1.21313864e-11 1.19099088e-11 2.21477581e-13 1.55180401e-30 2.53151605e-31 1.19099088e-11
1.90546072e-01 1.13599378e-11 1.11149736e-11 2.44964174e-13 6.09259883e-28 1.17693397e-28 1.11149736e-11
2.18776162e-01 1.06153777e-11 1.03730969e-11 2.42280741e-13 9.29522395e-26 1.88348499e-26 1.03730969e-11
2.51188643e-01 9.96496416e-12 9.68073733e-12 2.84226831e-13 1.19785756e-23 3.00928727e-24 9.68073733e-12
2.88403150e-01 9.29950582e-12 9.03458975e-12 2.64916072e-13 8.08811734e-22 2.08257190e-22 9.03458975e-12
3.31131121e-01 8.67452896e-12 8.43156974e-12 2.42959184e-13 3.00229425e-20 7.78414371e-21 8.43156974e-12
3.80189396e-01 8.09206681e-12 7.86879872e-12 2.23267412e-13 6.76927288e-19 1.76577796e-19 7.86879872e-12
4.36515832e-01 7.55239776e-12 7.34359025e-12 2.08797745e-13 9.76652085e-18 2.59029104e-18 7.34359025e-12
5.01187234e-01 7.04514816e-12 6.85343719e-12 1.91615349e-13 9.56253823e-17 2.53674249e-17 6.85343719e-12
5.75439937e-01 6.58078862e-12 6.39599973e-12 1.84125858e-13 6.63036844e-16 1.76360076e-16 6.39599973e-12
6.60693448e-01 6.14579092e-12 5.96909425e-12 1.73298351e-13 3.39831003e-15 8.93243468e-16 5.96909425e-12
7.58577575e-01 5.73974566e-12 5.57068288e-12 1.55450032e-13 1.36127440e-14 3.52743465e-15 5.57068288e-12
8.70963590e-01 5.38305497e-12 5.19886376e-12 1.40100546e-13 4.40906640e-14 1.08601479e-14 5.19886376e-12
1.00000000e+00 5.09501146e-12 4.85186196e-12 1.23609312e-13 1.19540184e-13 2.79922822e-14 4.85186196e-12
1.14815362e+00 4.90956626e-12 4.52802104e-12 1.03015901e-13 2.78529319e-13 5.95770315e-14 4.52802104e-12
1.31825674e+00 4.88634202e-12 4.22579511e-12 8.39048142e-14 5.76642090e-13 1.09467111e-13 4.22579511e-12
1.51356125e+00 5.07140113e-12 3.94374146e-12 6.80749543e-14 1.05958472e-12 1.75351679e-13 3.94374146e-12
1.73780083e+00 5.45034892e-12 3.68051368e-12 5.31739620e-14 1.71666127e-12 2.40598050e-13 3.68051368e-12
1.99526231e+00 5.95462686e-12 3.43485522e-12 4.13469727e-14 2.47842466e-12 2.84221034e-13 3.43485522e-12
2.29086765e+00 6.43119594e-12 3.20559341e-12 3.03843225e-14 3.19521820e-12 2.87021072e-13 3.20559341e-12
2.63026799e+00 6.78821095e-12 2.99163384e-12 2.13896599e-14 3.77518746e-12 2.55859085e-13 2.99163384e-12
3.01995172e+00 6.91848190e-12 2.79195514e-12 1.42396786e-14 4.11228708e-12 2.02162659e-13 2.79195514e-12
3.46736850e+00 6.83988816e-12 2.60560415e-12 9.25617928e-15 4.22502783e-12 1.45243243e-13 2.60560415e-12
3.98107171e+00 6.55588742e-12 2.43169128e-12 5.78311497e-15 4.11841303e-12 9.52667856e-14 2.43169128e-12
4.57088190e+00 6.12607469e-12 2.26938634e-12 3.54061635e-15 3.85314774e-12 5.79503518e-14 2.26938634e-12
5.24807460e+00 5.38778449e-12 1.87643467e-12 1.83497565e-15 3.50951484e-12 3.32997756e-14 1.87643467e-12
6.02559586e+00 4.39526576e-12 1.23974809e-12 7.34245305e-16 3.15478342e-12 1.81661410e-14 1.23974809e-12
6.70000000e+00 3.77682146e-12 9.01797527e-13 3.53444469e-16 2.87467049e-12 1.09508011e-14 9.01797527e-13
6.92422916e+00 3.60404885e-12 8.16994532e-13 2.80229693e-16 2.78677409e-12 9.20458618e-15 8.16994532e-13
7.15596261e+00 3.46938040e-12 7.40166218e-13 2.20320083e-16 2.72899387e-12 7.82294739e-15 7.40166218e-13
7.39545150e+00 3.40853422e-12 6.70562664e-13 1.68885609e-16 2.73780267e-12 6.62986961e-15 6.70562664e-13
7.64295536e+00 3.54621496e-12 6.07504471e-13 1.24544240e-16 2.93858595e-12 5.83684663e-15 6.07504471e-13
7.89874245e+00 3.97456991e-12 5.50376127e-13 8.71571851e-17 3.42410662e-12 5.21167385e-15 5.50376127e-13
8.16308998e+00 4.60865544e-12 4.98620004e-13 5.80121593e-17 4.10997742e-12 4.71945752e-15 4.98620004e-13
8.43628443e+00 5.46641300e-12 4.51730909e-13 3.59061244e-17 5.01464619e-12 4.02046060e-15 4.51730909e-13
8.71862190e+00 6.01816748e-12 4.09251158e-13 2.33263486e-17 5.60889299e-12 3.23339428e-15 4.09251158e-13
9.01040836e+00 6.56029269e-12 3.70766106e-13 1.23409395e-17 6.18951424e-12 2.18402380e-15 3.70766106e-13
9.31196005e+00 6.94805397e-12 3.35900102e-13 0.00000000e+00 6.61215387e-12 0.00000000e+00 3.35900102e-13
9.62360379e+00 6.83963634e-12 3.04312818e-13 0.00000000e+00 6.53532352e-12 0.00000000e+00 3.04312818e-13
9.94567731e+00 6.42563852e-12 2.75695930e-13 0.00000000e+00 6.14994259e-12 0.00000000e+00 2.75695930e-13
1.02785297e+01 5.89667608e-12 2.49770110e-13 0.00000000e+00 5.64690597e-12 0.00000000e+00 2.49770110e-13
1.06225216e+01 5.38260494e-12 2.26282295e-13 0.00000000e+00 5.15632264e-12 0.00000000e+00 2.26282295e-13
1.09780260e+01 4.81220204e-12 2.05003220e-13 0.00000000e+00 4.60719882e-12 0.00000000e+00 2.05003220e-13
1.13454280e+01 4.30919302e-12 1.85725182e-13 0.00000000e+00 4.12346784e-12 0.00000000e+00 1.85725182e-13
1.17251259e+01 3.86751190e-12 1.68260007e-13 0.00000000e+00 3.69925189e-12 0.00000000e+00 1.68260007e-13
1.21175312e+01 3.46330221e-12 1.52437217e-13 0.00000000e+00 3.31086500e-12 0.00000000e+00 1.52437217e-13
1.25230691e+01 3.10108295e-12 1.38102367e-13 0.00000000e+00 2.96298058e-12 0.00000000e+00 1.38102367e-13
1.29421791e+01 2.78459167e-12 1.25115533e-13 0.00000000e+00 2.65947614e-12 0.00000000e+00 1.25115533e-13
1.33753155e+01 2.51058582e-12 1.13349952e-13 0.00000000e+00 2.39723587e-12 0.00000000e+00 1.13349952e-13
1.38229477e+01 2.33223823e-12 1.02690779e-13 0.00000000e+00 2.22954745e-12 0.00000000e+00 1.02690779e-13
1.42855609e+01 2.22907690e-12 9.30339713e-14 0.00000000e+00 2.13604293e-12 0.00000000e+00 9.30339713e-14
1.47636563e+01 2.25079537e-12 8.42852675e-14 0.00000000e+00 2.16651010e-12 0.00000000e+00 8.42852675e-14
1.52577522e+01 2.30141350e-12 7.63592720e-14 0.00000000e+00 2.22505423e-12 0.00000000e+00 7.63592720e-14
1.57683840e+01 2.37921430e-12 6.91786191e-14 0.00000000e+00 2.31003568e-12 0.00000000e+00 6.91786191e-14
1.62961051e+01 2.45694359e-12 6.26732185e-14 0.00000000e+00 2.39427037e-12 0.00000000e+00 6.26732185e-14
1.68414875e+01 2.53831822e-12 5.67795711e-14 0.00000000e+00 2.48153865e-12 0.00000000e+00 5.67795711e-14
1.74051222e+01 2.57800725e-12 5.14401489e-14 0.00000000e+00 2.52656710e-12 0.00000000e+00 5.14401489e-14
1.79876201e+01 2.59293750e-12 4.66028339e-14 0.00000000e+00 2.54633466e-12 0.00000000e+00 4.66028339e-14
1.85896125e+01 2.55710935e-12 4.22204090e-14 0.00000000e+00 2.51488895e-12 0.00000000e+00 4.22204090e-14
1.92117518e+01 2.47636868e-12 3.82500974e-14 0.00000000e+00 2.43811858e-12 0.00000000e+00 3.82500974e-14
1.98547123e+01 2.36595290e-12 3.46531450e-14 0.00000000e+00 2.33129976e-12 0.00000000e+00 3.46531450e-14
2.05191907e+01 2.24731331e-12 3.13944418e-14 0.00000000e+00 2.21591887e-12 0.00000000e+00 3.13944418e-14
2.12059073e+01 2.13243215e-12 2.84421796e-14 0.00000000e+00 2.10398998e-12 0.00000000e+00 2.84421796e-14
2.19156062e+01 2.03005337e-12 2.57675415e-14 0.00000000e+00 2.00428583e-12 0.00000000e+00 2.57675415e-14
2.26490567e+01 1.93204265e-12 2.33444203e-14 0.00000000e+00 1.90869823e-12 0.00000000e+00 2.33444203e-14
2.34070535e+01 1.84002901e-12 2.11491639e-14 0.00000000e+00 1.81887985e-12 0.00000000e+00 2.11491639e-14
2.41904183e+01 1.75427834e-12 1.91603445e-14 0.00000000e+00 1.73511800e-12 0.00000000e+00 1.91603445e-14
2.50000000e+01 1.67291277e-12 1.73585491e-14 0.00000000e+00 1.65555422e-12 0.00000000e+00 1.73585491e-14
2.75422870e+01 1.44378643e-12 1.29817562e-14 0.00000000e+00 1.43080467e-12 0.00000000e+00 1.29817562e-14
3.16227766e+01 1.14105130e-12 8.57696126e-15 0.00000000e+00 1.13247434e-12 0.00000000e+00 8.57696126e-15
3.63078055e+01 8.55442221e-13 5.66674211e-15 0.00000000e+00 8.49775479e-13 0.00000000e+00 5.66674211e-15
4.16869383e+01 5.99537381e-13 3.74397938e-15 0.00000000e+00 5.95793401e-13 0.00000000e+00 3.74397938e-15
4.78630092e+01 3.92769750e-13 2.47362265e-15 0.00000000e+00 3.90296127e-13 0.00000000e+00 2.47362265e-15
5.49540874e+01 2.44046501e-13 1.63430628e-15 0.00000000e+00 2.42412195e-13 0.00000000e+00 1.63430628e-15
6.30957344e+01 1.45598031e-13 1.07977545e-15 0.00000000e+00 1.44518256e-13 0.00000000e+00 1.07977545e-15
7.24435960e+01 8.41946462e-14 7.13400564e-16 0.00000000e+00 8.34812457e-14 0.00000000e+00 7.13400564e-16
8.31763771e+01 4.76023307e-14 4.71339078e-16 0.00000000e+00 4.71309916e-14 0.00000000e+00 4.71339078e-16
9.54992586e+01 2.64997567e-14 3.11410641e-16 0.00000000e+00 2.61883461e-14 0.00000000e+00 3.11410641e-16
1.09647820e+02 1.45805957e-14 2.05746970e-16 0.00000000e+00 1.43748487e-14 0.00000000e+00 2.05746970e-16
1.25892541e+02 8.04588028e-15 1.35935675e-16 0.00000000e+00 7.90994461e-15 0.00000000e+00 1.35935675e-16
1.44543977e+02 4.42437626e-15 8.98118099e-17 0.00000000e+00 4.33456445e-15 0.00000000e+00 8.98118099e-17
1.65958691e+02 2.32073872e-15 5.93380743e-17 0.00000000e+00 2.26140065e-15 0.00000000e+00 5.93380743e-17
1.90546072e+02 1.22133753e-15 3.92042769e-17 0.00000000e+00 1.18213325e-15 0.00000000e+00 3.92042769e-17
2.18776162e+02 6.43303815e-16 2.59020089e-17 0.00000000e+00 6.17401806e-16 0.00000000e+00 2.59020089e-17
2.51188643e+02 3.38577172e-16 1.71132876e-17 0.00000000e+00 3.21463884e-16 0.00000000e+00 1.71132876e-17
2.88403150e+02 1.77933501e-16 1.13066370e-17 0.00000000e+00 1.66626864e-16 0.00000000e+00 1.13066370e-17
3.31131121e+02 9.36088252e-17 7.47022097e-18 0.00000000e+00 8.61386043e-17 0.00000000e+00 7.47022097e-18
3.80189396e+02 4.92944086e-17 4.93552605e-18 0.00000000e+00 4.43588825e-17 0.00000000e+00 4.93552605e-18
4.36515832e+02 2.60467779e-17 3.26086972e-18 0.00000000e+00 2.27859082e-17 0.00000000e+00 3.26086972e-18
5.01187234e+02 1.38260707e-17 2.15443526e-18 0.00000000e+00 1.16716355e-17 0.00000000e+00 2.15443526e-18
5.75439937e+02 7.38807899e-18 1.42342126e-18 0.00000000e+00 5.96465773e-18 0.00000000e+00 1.42342126e-18
6.60693448e+02 3.98242053e-18 9.40445101e-19 0.00000000e+00 3.04197543e-18 0.00000000e+00 9.40445101e-19
7.58577575e+02 2.16998374e-18 6.21345916e-19 0.00000000e+00 1.54863783e-18 0.00000000e+00 6.21345916e-19
8.70963590e+02 1.19748607e-18 4.10519176e-19 0.00000000e+00 7.86966895e-19 0.00000000e+00 4.10519176e-19
1.00000000e+03 3.99227840e-19 0.00000000e+00 0.00000000e+00 3.99227840e-19 0.00000000e+00 0.00000000e+00
