# column 1: lambda (micron)
# column 2: total flux; lambda*F_lambda (W/m2)
# column 3: direct stellar flux; lambda*F_lambda (W/m2)
# column 4: scattered stellar flux; lambda*F_lambda (W/m2)
# column 5: total dust emission flux; lambda*F_lambda (W/m2)
# column 6: dust emission scattered flux; lambda*F_lambda (W/m2)
# column 7: transparent flux; lambda*F_lambda (W/m2)
1.00000000e-03 9.66996184e-13 9.66985371e-13 1.08135845e-17 0.00000000e+00 0.00000000e+00 9.68073281e-13
1.14815362e-03 1.14095817e-12 1.14094070e-12 1.74678583e-17 0.00000000e+00 0.00000000e+00 1.14263687e-12
1.31825674e-03 1.34616195e-12 1.34613298e-12 2.89677788e-17 0.00000000e+00 0.00000000e+00 1.34867788e-12
1.51356125e-03 1.58837683e-12 1.58833155e-12 4.52855603e-17 0.00000000e+00 0.00000000e+00 1.59187233e-12
1.73780083e-03 1.87478191e-12 1.87469736e-12 8.45475979e-17 0.00000000e+00 0.00000000e+00 1.87891976e-12
1.99526231e-03 2.21128293e-12 2.21112253e-12 1.60396593e-16 0.00000000e+00 0.00000000e+00 2.21772777e-12
2.29086765e-03 2.61030337e-12 2.60936321e-12 9.40162043e-16 0.00000000e+00 0.00000000e+00 2.61762985e-12
2.63026799e-03 3.07855431e-12 3.07795349e-12 6.00815390e-16 0.00000000e+00 0.00000000e+00 3.08964252e-12
3.01995172e-03 3.63068674e-12 3.62971283e-12 9.73912875e-16 0.00000000e+00 0.00000000e+00 3.64676883e-12
3.46736850e-03 4.28297445e-12 4.28063797e-12 2.33648186e-15 0.00000000e+00 0.00000000e+00 4.30435650e-12
3.98107171e-03 5.05147688e-12 5.04848824e-12 2.98863437e-15 0.00000000e+00 0.00000000e+00 5.08052080e-12
4.57088190e-03 5.97707392e-12 5.97139684e-12 5.67707842e-15 0.00000000e+00 0.00000000e+00 5.99664354e-12
5.24807460e-03 7.04765796e-12 7.03992369e-12 7.73426676e-15 0.00000000e+00 0.00000000e+00 7.07796211e-12
6.02559586e-03 8.32019948e-12 8.30015958e-12 2.00398971e-14 0.00000000e+00 0.00000000e+00 8.35426474e-12
6.91830971e-03 9.83899591e-12 9.78704333e-12 5.19525840e-14 0.00000000e+00 0.00000000e+00 9.86071107e-12
7.94328235e-03 1.15986944e-11 1.15418343e-11 5.68600997e-14 3.16137542e-303 4.90082032e-305 1.16388008e-11
9.12010839e-03 1.36787201e-11 1.36105683e-11 6.81518442e-14 1.71715786e-264 6.93207350e-266 1.37375167e-11
1.04712855e-02 1.52811160e-11 1.51921348e-11 8.89812310e-14 8.40635206e-231 1.85712390e-232 1.53429287e-11
1.20226443e-02 1.53088320e-11 1.51832817e-11 1.25550303e-13 1.57113486e-201 8.58037875e-203 1.53429287e-11
1.38038426e-02 1.53539582e-11 1.51727876e-11 1.81170534e-13 4.79338269e-176 2.10362056e-177 1.53429287e-11
1.58489319e-02 1.53878562e-11 1.51599012e-11 2.27955078e-13 7.34869488e-154 4.55804294e-155 1.53429287e-11
1.81970086e-02 1.54456263e-11 1.51480254e-11 2.97600878e-13 1.42406094e-134 7.47322971e-136 1.53429287e-11
2.08929613e-02 1.54810899e-11 1.51381612e-11 3.42928749e-13 8.08845938e-118 4.43701947e-119 1.53429287e-11
2.39883292e-02 1.55454415e-11 1.51253900e-11 4.20051495e-13 3.06885959e-103 1.97276612e-104 1.53429287e-11
2.75422870e-02 1.55943154e-11 1.51105485e-11 4.83766904e-13 1.45601898e-90 9.34517858e-92 1.53429287e-11
3.16227766e-02 1.56234432e-11 1.50960147e-11 5.27428489e-13 1.50412496e-79 1.08351438e-80 1.53429287e-11
3.63078055e-02 1.56475948e-11 1.50846249e-11 5.62969914e-13 5.43565564e-70 3.73498682e-71 1.53429287e-11
4.16869383e-02 1.57148780e-11 1.50747805e-11 6.40097552e-13 1.08466934e-61 8.85111660e-63 1.53429287e-11
4.78630092e-02 1.57182885e-11 1.50476779e-11 6.70610591e-13 1.69554810e-54 1.49930972e-55 1.53429287e-11
5.49540874e-02 1.56625507e-11 1.50100676e-11 6.52483109e-13 2.88204779e-48 2.68921228e-49 1.53429287e-11
6.30957344e-02 1.55434846e-11 1.49161726e-11 6.27312012e-13 9.38045078e-43 8.94194021e-44 1.53429287e-11
7.24435960e-02 1.53416727e-11 1.48057124e-11 5.35960330e-13 5.41361389e-38 4.75639629e-39 1.53429287e-11
8.31763771e-02 1.53316130e-11 1.48155085e-11 5.16104465e-13 5.66731577e-34 4.77376481e-35 1.53429287e-11
9.54992586e-02 1.53606874e-11 1.48442773e-11 5.16410097e-13 1.63213086e-30 1.41227390e-31 1.53429287e-11
1.09647820e-01 1.48032619e-11 1.42556766e-11 5.47585242e-13 1.43553806e-27 1.37638665e-28 1.46523889e-11
1.25892541e-01 1.39186196e-11 1.33689086e-11 5.49711027e-13 4.79028653e-25 4.61410588e-26 1.36744049e-11
1.44543977e-01 1.30437797e-11 1.25249307e-11 5.18849030e-13 6.68359142e-23 6.42841855e-24 1.27616972e-11
1.65958691e-01 1.22550292e-11 1.17164389e-11 5.38590345e-13 3.46366817e-21 3.61502601e-22 1.19099088e-11
1.90546072e-01 1.14722778e-11 1.09224519e-11 5.49825755e-13 7.37828651e-20 8.85974630e-21 1.11149736e-11
2.18776162e-01 1.06352522e-11 1.01626540e-11 4.72597279e-13 8.68003808e-19 1.03126054e-19 1.03730969e-11
2.51188643e-01 1.00625025e-11 9.52334938e-12 5.39142262e-13 1.08749401e-17 1.56762082e-18 9.68073733e-12
2.88403150e-01 9.43299106e-12 8.91247232e-12 5.20426511e-13 9.22274060e-17 1.33670732e-17 9.03458975e-12
3.31131121e-01 8.83127736e-12 8.33213597e-12 4.98607951e-13 5.33438546e-16 7.53561101e-17 8.43156974e-12
3.80189396e-01 8.25457120e-12 7.78724997e-12 4.65075737e-13 2.24549401e-15 3.16077244e-16 7.86879872e-12
4.36515832e-01 7.73095473e-12 7.27730964e-12 4.46470606e-13 7.17448874e-15 1.00020248e-15 7.34359025e-12
5.01187234e-01 7.23633059e-12 6.80029676e-12 4.17903096e-13 1.81307318e-14 2.52448110e-15 6.85343719e-12
5.75439937e-01 6.77945426e-12 6.35383599e-12 3.87300499e-13 3.83177707e-14 5.53108131e-15 6.39599973e-12
6.60693448e-01 6.37362899e-12 5.93593117e-12 3.66777411e-13 7.09204072e-14 1.10084076e-14 5.96909425e-12
7.58577575e-01 6.01159598e-12 5.54491737e-12 3.41613517e-13 1.25065090e-13 2.21221740e-14 5.57068288e-12
8.70963590e-01 5.71324407e-12 5.17928979e-12 3.10218454e-13 2.23735833e-13 4.65029869e-14 5.19886376e-12
1.00000000e+00 5.52703464e-12 4.83723262e-12 2.74043876e-13 4.15758143e-13 9.70052784e-14 4.85186196e-12
1.14815362e+00 5.55016644e-12 4.51728206e-12 2.36530776e-13 7.96353614e-13 1.90249016e-13 4.52802104e-12
1.31825674e+00 5.91048509e-12 4.21804928e-12 1.94930997e-13 1.49750482e-12 3.42191026e-13 4.22579511e-12
1.51356125e+00 6.74840341e-12 3.93821124e-12 1.56766606e-13 2.65342556e-12 5.47983595e-13 3.94374146e-12
1.73780083e+00 8.06096823e-12 3.67662968e-12 1.25741638e-13 4.25859691e-12 7.67522477e-13 3.68051368e-12
1.99526231e+00 9.77937469e-12 3.43217028e-12 9.49207383e-14 6.25228367e-12 9.48829844e-13 3.43485522e-12
2.29086765e+00 1.15844414e-11 3.20374318e-12 6.78200886e-14 8.31287812e-12 9.92883515e-13 3.20559341e-12
2.63026799e+00 1.32126004e-11 2.99034691e-12 4.61829904e-14 1.01760705e-11 9.02034739e-13 2.99163384e-12
3.01995172e+00 1.44603826e-11 2.79104852e-12 2.99677048e-14 1.16393664e-11 7.19609015e-13 2.79195514e-12
3.46736850e+00 1.51271924e-11 2.60495503e-12 1.86636784e-14 1.25035736e-11 5.14771918e-13 2.60560415e-12
3.98107171e+00 1.51819649e-11 2.43122059e-12 1.12426395e-14 1.27395017e-11 3.31717227e-13 2.43169128e-12
4.57088190e+00 1.46767670e-11 2.26904038e-12 6.64092342e-15 1.24010857e-11 1.98022364e-13 2.26938634e-12
5.24807460e+00 1.35211261e-11 1.87620487e-12 3.37622743e-15 1.16415450e-11 1.10519379e-13 1.87643467e-12
6.02559586e+00 1.19236135e-11 1.23962192e-12 1.32004400e-15 1.06826715e-11 5.81032735e-14 1.23974809e-12
6.70000000e+00 1.07267929e-11 9.01716294e-13 6.31886402e-16 9.82444471e-12 3.40791052e-14 9.01797527e-13
6.92422916e+00 1.03553933e-11 8.16923517e-13 4.91995740e-16 9.53797782e-12 2.84672126e-14 8.16994532e-13
7.15596261e+00 1.00898810e-11 7.40103004e-13 3.78565998e-16 9.34939940e-12 2.37360118e-14 7.40166218e-13
7.39545150e+00 1.00311347e-11 6.70504028e-13 2.86078366e-16 9.36034462e-12 1.99733688e-14 6.70562664e-13
7.64295536e+00 1.05238792e-11 6.07443945e-13 2.05931761e-16 9.91622935e-12 1.74139941e-14 6.07504471e-13
7.89874245e+00 1.18473375e-11 5.50305282e-13 1.34659848e-16 1.12968976e-11 1.56558268e-14 5.50376127e-13
8.16308998e+00 1.36067501e-11 4.98533340e-13 8.16769317e-17 1.31081350e-11 1.38737613e-14 4.98620004e-13
8.43628443e+00 1.58224030e-11 4.51621831e-13 4.22488801e-17 1.53707389e-11 1.11822510e-14 4.51730909e-13
8.71862190e+00 1.71659479e-11 4.09129737e-13 1.92871650e-17 1.67567989e-11 7.96036464e-15 4.09251158e-13
9.01040836e+00 1.84064291e-11 3.70632852e-13 4.83188367e-18 1.80357914e-11 3.67189326e-15 3.70766106e-13
9.31196005e+00 1.92138198e-11 3.35760087e-13 0.00000000e+00 1.88780597e-11 0.00000000e+00 3.35900102e-13
9.62360379e+00 1.89941062e-11 3.04182628e-13 0.00000000e+00 1.86899236e-11 0.00000000e+00 3.04312818e-13
9.94567731e+00 1.81020056e-11 2.75585259e-13 0.00000000e+00 1.78264203e-11 0.00000000e+00 2.75695930e-13
1.02785297e+01 1.69662706e-11 2.49679404e-13 0.00000000e+00 1.67165912e-11 0.00000000e+00 2.49770110e-13
1.06225216e+01 1.57335659e-11 2.26208749e-13 0.00000000e+00 1.55073572e-11 0.00000000e+00 2.26282295e-13
1.09780260e+01 1.43531933e-11 2.04945739e-13 0.00000000e+00 1.41482476e-11 0.00000000e+00 2.05003220e-13
1.13454280e+01 1.30011883e-11 1.85680076e-13 0.00000000e+00 1.28155082e-11 0.00000000e+00 1.85725182e-13
1.17251259e+01 1.18129527e-11 1.68224385e-13 0.00000000e+00 1.16447283e-11 0.00000000e+00 1.68260007e-13
1.21175312e+01 1.06329899e-11 1.52409229e-13 0.00000000e+00 1.04805807e-11 0.00000000e+00 1.52437217e-13
1.25230691e+01 9.57788510e-12 1.38080436e-13 0.00000000e+00 9.43980466e-12 0.00000000e+00 1.38102367e-13
1.29421791e+01 8.60339550e-12 1.25098229e-13 0.00000000e+00 8.47829727e-12 0.00000000e+00 1.25115533e-13
1.33753155e+01 7.75765530e-12 1.13336201e-13 0.00000000e+00 7.64431910e-12 0.00000000e+00 1.13349952e-13
1.38229477e+01 7.18659784e-12 1.02679348e-13 0.00000000e+00 7.08391849e-12 0.00000000e+00 1.02690779e-13
1.42855609e+01 6.82622893e-12 9.30240356e-14 0.00000000e+00 6.73320490e-12 0.00000000e+00 9.30339713e-14
1.47636563e+01 6.86326595e-12 8.42758378e-14 0.00000000e+00 6.77899011e-12 0.00000000e+00 8.42852675e-14
1.52577522e+01 6.96607123e-12 7.63501607e-14 0.00000000e+00 6.88972107e-12 0.00000000e+00 7.63592720e-14
1.57683840e+01 7.14614407e-12 6.91697026e-14 0.00000000e+00 7.07697437e-12 0.00000000e+00 6.91786191e-14
1.62961051e+01 7.30427205e-12 6.26645031e-14 0.00000000e+00 7.24160755e-12 0.00000000e+00 6.26732185e-14
1.68414875e+01 7.47635073e-12 5.67710714e-14 0.00000000e+00 7.41957966e-12 0.00000000e+00 5.67795711e-14
1.74051222e+01 7.49987765e-12 5.14320774e-14 0.00000000e+00 7.44844557e-12 0.00000000e+00 5.14401489e-14
1.79876201e+01 7.46353223e-12 4.65952976e-14 0.00000000e+00 7.41693694e-12 0.00000000e+00 4.66028339e-14
1.85896125e+01 7.27373488e-12 4.22135902e-14 0.00000000e+00 7.23152129e-12 0.00000000e+00 4.22204090e-14
1.92117518e+01 6.93562472e-12 3.82441080e-14 0.00000000e+00 6.89738061e-12 0.00000000e+00 3.82500974e-14
1.98547123e+01 6.53851070e-12 3.46479867e-14 0.00000000e+00 6.50386271e-12 0.00000000e+00 3.46531450e-14
2.05191907e+01 6.10914915e-12 3.13900441e-14 0.00000000e+00 6.07775911e-12 0.00000000e+00 3.13944418e-14
2.12059073e+01 5.70238335e-12 2.84384310e-14 0.00000000e+00 5.67394492e-12 0.00000000e+00 2.84421796e-14
2.19156062e+01 5.32547553e-12 2.57643306e-14 0.00000000e+00 5.29971120e-12 0.00000000e+00 2.57675415e-14
2.26490567e+01 4.97504659e-12 2.33416656e-14 0.00000000e+00 4.95170492e-12 0.00000000e+00 2.33444203e-14
2.34070535e+01 4.64587655e-12 2.11467962e-14 0.00000000e+00 4.62472975e-12 0.00000000e+00 2.11491639e-14
2.41904183e+01 4.33977308e-12 1.91583042e-14 0.00000000e+00 4.32061477e-12 0.00000000e+00 1.91603445e-14
2.50000000e+01 4.05249909e-12 1.73567872e-14 0.00000000e+00 4.03514230e-12 0.00000000e+00 1.73585491e-14
2.75422870e+01 3.28066515e-12 1.29806072e-14 0.00000000e+00 3.26768455e-12 0.00000000e+00 1.29817562e-14
3.16227766e+01 2.36399786e-12 8.57632997e-15 0.00000000e+00 2.35542153e-12 0.00000000e+00 8.57696126e-15
3.63078055e+01 1.61755625e-12 5.66639709e-15 0.00000000e+00 1.61188985e-12 0.00000000e+00 5.66674211e-15
4.16869383e+01 1.03828187e-12 3.74379582e-15 0.00000000e+00 1.03453808e-12 0.00000000e+00 3.74397938e-15
4.78630092e+01 6.26651747e-13 2.47352801e-15 0.00000000e+00 6.24178219e-13 0.00000000e+00 2.47362265e-15
5.49540874e+01 3.61014484e-13 1.63425853e-15 0.00000000e+00 3.59380225e-13 0.00000000e+00 1.63430628e-15
6.30957344e+01 2.01228045e-13 1.07975166e-15 0.00000000e+00 2.00148294e-13 0.00000000e+00 1.07977545e-15
7.24435960e+01 1.09469149e-13 7.13388800e-16 0.00000000e+00 1.08755760e-13 0.00000000e+00 7.13400564e-16
8.31763771e+01 5.86663657e-14 4.71333270e-16 0.00000000e+00 5.81950325e-14 0.00000000e+00 4.71339078e-16
9.54992586e+01 3.11546931e-14 3.11407766e-16 0.00000000e+00 3.08432853e-14 0.00000000e+00 3.11410641e-16
1.09647820e+02 1.64573158e-14 2.05745542e-16 0.00000000e+00 1.62515702e-14 0.00000000e+00 2.05746970e-16
1.25892541e+02 8.76968548e-15 1.35934955e-16 0.00000000e+00 8.63375053e-15 0.00000000e+00 1.35935675e-16
1.44543977e+02 4.68101536e-15 8.98114443e-17 0.00000000e+00 4.59120391e-15 0.00000000e+00 8.98118099e-17
1.65958691e+02 2.39033964e-15 5.93378951e-17 0.00000000e+00 2.33100174e-15 0.00000000e+00 5.93380743e-17
1.90546072e+02 1.22971329e-15 3.92041882e-17 0.00000000e+00 1.19050910e-15 0.00000000e+00 3.92042769e-17
2.18776162e+02 6.35399521e-16 2.59019647e-17 0.00000000e+00 6.09497556e-16 0.00000000e+00 2.59020089e-17
2.51188643e+02 3.29070765e-16 1.71132655e-17 0.00000000e+00 3.11957499e-16 0.00000000e+00 1.71132876e-17
2.88403150e+02 1.70637995e-16 1.13066259e-17 0.00000000e+00 1.59331369e-16 0.00000000e+00 1.13066370e-17
3.31131121e+02 8.87969567e-17 7.47021543e-18 0.00000000e+00 8.13267413e-17 0.00000000e+00 7.47022097e-18
3.80189396e+02 4.63596465e-17 4.93552327e-18 0.00000000e+00 4.14241232e-17 0.00000000e+00 4.93552605e-18
4.36515832e+02 2.43391592e-17 3.26086833e-18 0.00000000e+00 2.10782909e-17 0.00000000e+00 3.26086972e-18
5.01187234e+02 1.28635909e-17 2.15443456e-18 0.00000000e+00 1.07091563e-17 0.00000000e+00 2.15443526e-18
5.75439937e+02 6.85781199e-18 1.42342091e-18 0.00000000e+00 5.43439108e-18 0.00000000e+00 1.42342126e-18
6.60693448e+02 3.69515938e-18 9.40444924e-19 0.00000000e+00 2.75471445e-18 0.00000000e+00 9.40445101e-19
7.58577575e+02 2.01638014e-18 6.21345828e-19 0.00000000e+00 1.39503431e-18 0.00000000e+00 6.21345916e-19
8.70963590e+02 1.11621196e-18 4.10519131e-19 0.00000000e+00 7.05692826e-19 0.00000000e+00 4.10519176e-19
1.00000000e+03 3.56589278e-19 0.00000000e+00 0.00000000e+00 3.56589278e-19 0.00000000e+00 0.00000000e+00
