# column 1: lambda (micron)
# column 2: total flux; lambda*F_lambda (W/m2)
# column 3: direct stellar flux; lambda*F_lambda (W/m2)
# column 4: scattered stellar flux; lambda*F_lambda (W/m2)
# column 5: total dust emission flux; lambda*F_lambda (W/m2)
# column 6: dust emission scattered flux; lambda*F_lambda (W/m2)
# column 7: transparent flux; lambda*F_lambda (W/m2)
1.00000000e-03 9.68082434e-13 9.68073281e-13 9.15292154e-18 0.00000000e+00 0.00000000e+00 9.68073281e-13
1.14815362e-03 1.14265082e-12 1.14263687e-12 1.39534954e-17 0.00000000e+00 0.00000000e+00 1.14263687e-12
1.31825674e-03 1.34869830e-12 1.34867788e-12 2.04216088e-17 0.00000000e+00 0.00000000e+00 1.34867788e-12
1.51356125e-03 1.59190280e-12 1.59187233e-12 3.04687287e-17 0.00000000e+00 0.00000000e+00 1.59187233e-12
1.73780083e-03 1.87897308e-12 1.87891976e-12 5.33233556e-17 0.00000000e+00 0.00000000e+00 1.87891976e-12
1.99526231e-03 2.21782046e-12 2.21772777e-12 9.26996406e-17 0.00000000e+00 0.00000000e+00 2.21772777e-12
2.29086765e-03 2.61777100e-12 2.61762985e-12 1.41152929e-16 0.00000000e+00 0.00000000e+00 2.61762985e-12
2.63026799e-03 3.08991472e-12 3.08964252e-12 2.72197610e-16 0.00000000e+00 0.00000000e+00 3.08964252e-12
3.01995172e-03 3.64721855e-12 3.64676883e-12 4.49719328e-16 0.00000000e+00 0.00000000e+00 3.64676883e-12
3.46736850e-03 4.30508862e-12 4.30435650e-12 7.32121074e-16 0.00000000e+00 0.00000000e+00 4.30435650e-12
3.98107171e-03 5.08171470e-12 5.08052080e-12 1.19390283e-15 0.00000000e+00 0.00000000e+00 5.08052080e-12
4.57088190e-03 5.99942440e-12 5.99664354e-12 2.78086405e-15 0.00000000e+00 0.00000000e+00 5.99664354e-12
5.24807460e-03 7.08264836e-12 7.07796211e-12 4.68624201e-15 0.00000000e+00 0.00000000e+00 7.07796211e-12
6.02559586e-03 8.36306015e-12 8.35426474e-12 8.79540598e-15 0.00000000e+00 0.00000000e+00 8.35426474e-12
6.91830971e-03 9.87426664e-12 9.86071107e-12 1.35555711e-14 0.00000000e+00 0.00000000e+00 9.86071107e-12
7.94328235e-03 1.16634393e-11 1.16388008e-11 2.46384958e-14 1.97295576e-304 5.63259475e-307 1.16388008e-11
9.12010839e-03 1.38014574e-11 1.37375167e-11 6.39406445e-14 8.47757778e-266 3.43036082e-268 1.37375167e-11
1.04712855e-02 1.53973766e-11 1.53429287e-11 5.44479051e-14 3.54927797e-232 4.65928678e-234 1.53429287e-11
1.20226443e-02 1.54234671e-11 1.53429287e-11 8.05384426e-14 5.44454595e-203 4.86050953e-205 1.53429287e-11
1.38038426e-02 1.54466974e-11 1.53429287e-11 1.03768693e-13 1.46725352e-177 1.84420462e-179 1.53429287e-11
1.58489319e-02 1.55067258e-11 1.53429287e-11 1.63797108e-13 1.96423800e-155 2.96146042e-157 1.53429287e-11
1.81970086e-02 1.55494639e-11 1.53429287e-11 2.06535260e-13 3.48645269e-136 7.48316496e-138 1.53429287e-11
2.08929613e-02 1.56319913e-11 1.53429287e-11 2.89062676e-13 1.81450204e-119 5.11001212e-121 1.53429287e-11
2.39883292e-02 1.57271535e-11 1.53429287e-11 3.84224844e-13 6.35448241e-105 2.26967312e-106 1.53429287e-11
2.75422870e-02 1.58222522e-11 1.53429287e-11 4.79323582e-13 2.84032384e-92 1.22140463e-93 1.53429287e-11
3.16227766e-02 1.58858064e-11 1.53429287e-11 5.42877763e-13 2.77345461e-81 1.44973170e-82 1.53429287e-11
3.63078055e-02 1.59342390e-11 1.53429287e-11 5.91310289e-13 9.58424689e-72 5.34540716e-73 1.53429287e-11
4.16869383e-02 1.60547174e-11 1.53429287e-11 7.11788730e-13 1.83344091e-63 1.28549903e-64 1.53429287e-11
4.78630092e-02 1.61197788e-11 1.53429287e-11 7.76850148e-13 2.77193430e-56 2.20625881e-57 1.53429287e-11
5.49540874e-02 1.61506541e-11 1.53429287e-11 8.07725482e-13 4.59352442e-50 3.88753110e-51 1.53429287e-11
6.30957344e-02 1.61221893e-11 1.53429287e-11 7.79260651e-13 1.47769357e-44 1.28876608e-45 1.53429287e-11
7.24435960e-02 1.60155095e-11 1.53429287e-11 6.72580861e-13 8.50177654e-40 6.82515564e-41 1.53429287e-11
8.31763771e-02 1.59745235e-11 1.53429287e-11 6.31594812e-13 8.65598794e-36 6.67527861e-37 1.53429287e-11
9.54992586e-02 1.59908989e-11 1.53429287e-11 6.47970226e-13 2.43413524e-32 1.93524171e-33 1.53429287e-11
1.09647820e-01 1.53452303e-11 1.46523889e-11 6.92841373e-13 2.06501319e-29 1.78378296e-30 1.46523889e-11
1.25892541e-01 1.43656569e-11 1.36744049e-11 6.91251991e-13 6.69500275e-27 5.97831508e-28 1.36744049e-11
1.44543977e-01 1.34063182e-11 1.27616972e-11 6.44620927e-13 9.09240823e-25 8.03051734e-26 1.27616972e-11
1.65958691e-01 1.25414878e-11 1.19099088e-11 6.31578933e-13 4.60281774e-23 4.37219933e-24 1.19099088e-11
1.90546072e-01 1.17606146e-11 1.11149736e-11 6.45640963e-13 9.71845306e-22 1.04773254e-22 1.11149736e-11
2.18776162e-01 1.09455763e-11 1.03730969e-11 5.72479354e-13 1.14183252e-20 1.18539807e-21 1.03730969e-11
2.51188643e-01 1.03200713e-11 9.68073733e-12 6.39333861e-13 1.38953757e-19 1.72005530e-20 9.68073733e-12
2.88403150e-01 9.64253105e-12 9.03458975e-12 6.07940139e-13 1.15720566e-18 1.44289560e-19 9.03458975e-12
3.31131121e-01 8.99388699e-12 8.43156974e-12 5.62310596e-13 6.65352015e-18 8.31832091e-19 8.43156974e-12
3.80189396e-01 8.39401583e-12 7.86879872e-12 5.25188827e-13 2.82760645e-17 3.65356554e-18 7.86879872e-12
4.36515832e-01 7.82472989e-12 7.34359025e-12 4.81041630e-13 9.80118608e-17 1.44599979e-17 7.34359025e-12
5.01187234e-01 7.29643198e-12 6.85343719e-12 4.42656271e-13 3.38519908e-16 6.88156303e-17 6.85343719e-12
5.75439937e-01 6.79781321e-12 6.39599973e-12 4.00453795e-13 1.35968636e-15 3.62244952e-16 6.39599973e-12
6.60693448e-01 6.33887868e-12 5.96909425e-12 3.63891553e-13 5.89287047e-15 1.78207048e-15 5.96909425e-12
7.58577575e-01 5.92305821e-12 5.57068288e-12 3.29539543e-13 2.28357817e-14 6.97010848e-15 5.57068288e-12
8.70963590e-01 5.56321507e-12 5.19886376e-12 2.89365337e-13 7.49859752e-14 2.22998685e-14 5.19886376e-12
1.00000000e+00 5.30721545e-12 4.85186196e-12 2.50470275e-13 2.04883215e-13 5.71027699e-14 4.85186196e-12
1.14815362e+00 5.22921554e-12 4.52802104e-12 2.12114343e-13 4.89080150e-13 1.24202130e-13 4.52802104e-12
1.31825674e+00 5.43306177e-12 4.22579511e-12 1.72824222e-13 1.03444243e-12 2.33251720e-13 4.22579511e-12
1.51356125e+00 6.01422505e-12 3.94374146e-12 1.38766871e-13 1.93171672e-12 3.78606002e-13 3.94374146e-12
1.73780083e+00 7.01008921e-12 3.68051368e-12 1.11930715e-13 3.21764481e-12 5.36758710e-13 3.68051368e-12
1.99526231e+00 8.32143386e-12 3.43485522e-12 8.61578518e-14 4.80042078e-12 6.51780136e-13 3.43485522e-12
2.29086765e+00 9.73393711e-12 3.20559341e-12 6.37770179e-14 6.46456668e-12 6.83677647e-13 3.20559341e-12
2.63026799e+00 1.10458471e-11 2.99163384e-12 4.48950339e-14 8.00931820e-12 6.28720248e-13 2.99163384e-12
3.01995172e+00 1.20697262e-11 2.79195514e-12 3.03730692e-14 9.24739804e-12 5.18549974e-13 2.79195514e-12
3.46736850e+00 1.27097175e-11 2.60560415e-12 1.97123034e-14 1.00844011e-11 3.86188378e-13 2.60560415e-12
3.98107171e+00 1.28699950e-11 2.43169128e-12 1.22708358e-14 1.04260329e-11 2.64122001e-13 2.43169128e-12
4.57088190e+00 1.26550364e-11 2.26938634e-12 7.53898834e-15 1.03781110e-11 1.67590482e-13 2.26938634e-12
5.24807460e+00 1.19044798e-11 1.87643467e-12 3.92929804e-15 1.00241159e-11 1.00387576e-13 1.87643467e-12
6.02559586e+00 1.07691744e-11 1.23974809e-12 1.59397786e-15 9.52783234e-12 5.70474124e-14 1.23974809e-12
6.70000000e+00 9.96701727e-12 9.01797527e-13 7.69977286e-16 9.06444977e-12 3.57224634e-14 9.01797527e-13
6.92422916e+00 9.73653862e-12 8.16994532e-13 6.05782432e-16 8.91893831e-12 3.06785482e-14 8.16994532e-13
7.15596261e+00 9.56529504e-12 7.40166218e-13 4.73452023e-16 8.82465537e-12 2.61452866e-14 7.40166218e-13
7.39545150e+00 9.55840255e-12 6.70562664e-13 3.60953891e-16 8.88747893e-12 2.22834679e-14 6.70562664e-13
7.64295536e+00 1.00535395e-11 6.07504471e-13 2.61866909e-16 9.44577315e-12 1.94077849e-14 6.07504471e-13
7.89874245e+00 1.11839265e-11 5.50376127e-13 1.74837175e-16 1.06333756e-11 1.70144798e-14 5.50376127e-13
8.16308998e+00 1.27708955e-11 4.98620004e-13 1.09821125e-16 1.22721657e-11 1.45804161e-14 4.98620004e-13
8.43628443e+00 1.47500035e-11 4.51730909e-13 6.17128258e-17 1.42982109e-11 1.18342626e-14 4.51730909e-13
8.71862190e+00 1.60144794e-11 4.09251158e-13 3.35769264e-17 1.56051947e-11 8.76077123e-15 4.09251158e-13
9.01040836e+00 1.71491535e-11 3.70766106e-13 1.34690951e-17 1.67783740e-11 5.15428811e-15 3.70766106e-13
9.31196005e+00 1.79825972e-11 3.35900102e-13 0.00000000e+00 1.76466971e-11 0.00000000e+00 3.35900102e-13
9.62360379e+00 1.79252348e-11 3.04312818e-13 0.00000000e+00 1.76209220e-11 0.00000000e+00 3.04312818e-13
9.94567731e+00 1.71649370e-11 2.75695930e-13 0.00000000e+00 1.68892411e-11 0.00000000e+00 2.75695930e-13
1.02785297e+01 1.62840000e-11 2.49770110e-13 0.00000000e+00 1.60342299e-11 0.00000000e+00 2.49770110e-13
1.06225216e+01 1.53042261e-11 2.26282295e-13 0.00000000e+00 1.50779439e-11 0.00000000e+00 2.26282295e-13
1.09780260e+01 1.42337233e-11 2.05003220e-13 0.00000000e+00 1.40287201e-11 0.00000000e+00 2.05003220e-13
1.13454280e+01 1.32145504e-11 1.85725182e-13 0.00000000e+00 1.30288252e-11 0.00000000e+00 1.85725182e-13
1.17251259e+01 1.22978337e-11 1.68260007e-13 0.00000000e+00 1.21295737e-11 0.00000000e+00 1.68260007e-13
1.21175312e+01 1.14314138e-11 1.52437217e-13 0.00000000e+00 1.12789766e-11 0.00000000e+00 1.52437217e-13
1.25230691e+01 1.05764102e-11 1.38102367e-13 0.00000000e+00 1.04383078e-11 0.00000000e+00 1.38102367e-13
1.29421791e+01 9.82509317e-12 1.25115533e-13 0.00000000e+00 9.69997764e-12 0.00000000e+00 1.25115533e-13
1.33753155e+01 9.13447816e-12 1.13349952e-13 0.00000000e+00 9.02112821e-12 0.00000000e+00 1.13349952e-13
1.38229477e+01 8.69600521e-12 1.02690779e-13 0.00000000e+00 8.59331443e-12 0.00000000e+00 1.02690779e-13
1.42855609e+01 8.45975436e-12 9.30339713e-14 0.00000000e+00 8.36672038e-12 0.00000000e+00 9.30339713e-14
1.47636563e+01 8.62985985e-12 8.42852675e-14 0.00000000e+00 8.54557459e-12 0.00000000e+00 8.42852675e-14
1.52577522e+01 8.86444989e-12 7.63592720e-14 0.00000000e+00 8.78809062e-12 0.00000000e+00 7.63592720e-14
1.57683840e+01 9.18081482e-12 6.91786191e-14 0.00000000e+00 9.11163621e-12 0.00000000e+00 6.91786191e-14
1.62961051e+01 9.48744865e-12 6.26732185e-14 0.00000000e+00 9.42477543e-12 0.00000000e+00 6.26732185e-14
1.68414875e+01 9.78624548e-12 5.67795711e-14 0.00000000e+00 9.72946590e-12 0.00000000e+00 5.67795711e-14
1.74051222e+01 9.97084475e-12 5.14401489e-14 0.00000000e+00 9.91940460e-12 0.00000000e+00 5.14401489e-14
1.79876201e+01 1.00752739e-11 4.66028339e-14 0.00000000e+00 1.00286711e-11 0.00000000e+00 4.66028339e-14
1.85896125e+01 9.97684700e-12 4.22204090e-14 0.00000000e+00 9.93462659e-12 0.00000000e+00 4.22204090e-14
1.92117518e+01 9.73557985e-12 3.82500974e-14 0.00000000e+00 9.69732975e-12 0.00000000e+00 3.82500974e-14
1.98547123e+01 9.38441332e-12 3.46531450e-14 0.00000000e+00 9.34976017e-12 0.00000000e+00 3.46531450e-14
2.05191907e+01 9.00873576e-12 3.13944418e-14 0.00000000e+00 8.97734132e-12 0.00000000e+00 3.13944418e-14
2.12059073e+01 8.59593954e-12 2.84421796e-14 0.00000000e+00 8.56749736e-12 0.00000000e+00 2.84421796e-14
2.19156062e+01 8.21948814e-12 2.57675415e-14 0.00000000e+00 8.19372060e-12 0.00000000e+00 2.57675415e-14
2.26490567e+01 7.86857502e-12 2.33444203e-14 0.00000000e+00 7.84523060e-12 0.00000000e+00 2.33444203e-14
2.34070535e+01 7.50126127e-12 2.11491639e-14 0.00000000e+00 7.48011211e-12 0.00000000e+00 2.11491639e-14
2.41904183e+01 7.15205757e-12 1.91603445e-14 0.00000000e+00 7.13289723e-12 0.00000000e+00 1.91603445e-14
2.50000000e+01 6.80389495e-12 1.73585491e-14 0.00000000e+00 6.78653640e-12 0.00000000e+00 1.73585491e-14
2.75422870e+01 5.80890048e-12 1.29817562e-14 0.00000000e+00 5.79591873e-12 0.00000000e+00 1.29817562e-14
3.16227766e+01 4.45678331e-12 8.57696126e-15 0.00000000e+00 4.44820635e-12 0.00000000e+00 8.57696126e-15
3.63078055e+01 3.22212850e-12 5.66674211e-15 0.00000000e+00 3.21646176e-12 0.00000000e+00 5.66674211e-15
4.16869383e+01 2.16795751e-12 3.74397938e-15 0.00000000e+00 2.16421353e-12 0.00000000e+00 3.74397938e-15
4.78630092e+01 1.36519748e-12 2.47362265e-15 0.00000000e+00 1.36272386e-12 0.00000000e+00 2.47362265e-15
5.49540874e+01 8.15768185e-13 1.63430628e-15 0.00000000e+00 8.14133878e-13 0.00000000e+00 1.63430628e-15
6.30957344e+01 4.68348400e-13 1.07977545e-15 0.00000000e+00 4.67268624e-13 0.00000000e+00 1.07977545e-15
7.24435960e+01 2.61200819e-13 7.13400564e-16 0.00000000e+00 2.60487418e-13 0.00000000e+00 7.13400564e-16
8.31763771e+01 1.42678897e-13 4.71339078e-16 0.00000000e+00 1.42207558e-13 0.00000000e+00 4.71339078e-16
9.54992586e+01 7.69505019e-14 3.11410641e-16 0.00000000e+00 7.66390912e-14 0.00000000e+00 3.11410641e-16
1.09647820e+02 4.11323073e-14 2.05746970e-16 0.00000000e+00 4.09265603e-14 0.00000000e+00 2.05746970e-16
1.25892541e+02 2.21091699e-14 1.35935675e-16 0.00000000e+00 2.19732343e-14 0.00000000e+00 1.35935675e-16
1.44543977e+02 1.18738270e-14 8.98118099e-17 0.00000000e+00 1.17840152e-14 0.00000000e+00 8.98118099e-17
1.65958691e+02 6.09050268e-15 5.93380743e-17 0.00000000e+00 6.03116461e-15 0.00000000e+00 5.93380743e-17
1.90546072e+02 3.13953276e-15 3.92042769e-17 0.00000000e+00 3.10032849e-15 0.00000000e+00 3.92042769e-17
2.18776162e+02 1.62159253e-15 2.59020089e-17 0.00000000e+00 1.59569052e-15 0.00000000e+00 2.59020089e-17
2.51188643e+02 8.37386107e-16 1.71132876e-17 0.00000000e+00 8.20272820e-16 0.00000000e+00 1.71132876e-17
2.88403150e+02 4.31790248e-16 1.13066370e-17 0.00000000e+00 4.20483611e-16 0.00000000e+00 1.13066370e-17
3.31131121e+02 2.22751597e-16 7.47022097e-18 0.00000000e+00 2.15281376e-16 0.00000000e+00 7.47022097e-18
3.80189396e+02 1.14871672e-16 4.93552605e-18 0.00000000e+00 1.09936146e-16 0.00000000e+00 4.93552605e-18
4.36515832e+02 5.93219294e-17 3.26086972e-18 0.00000000e+00 5.60610597e-17 0.00000000e+00 3.26086972e-18
5.01187234e+02 3.06895144e-17 2.15443526e-18 0.00000000e+00 2.85350791e-17 0.00000000e+00 2.15443526e-18
5.75439937e+02 1.59261410e-17 1.42342126e-18 0.00000000e+00 1.45027198e-17 0.00000000e+00 1.42342126e-18
6.60693448e+02 8.30162246e-18 9.40445101e-19 0.00000000e+00 7.36117736e-18 0.00000000e+00 9.40445101e-19
7.58577575e+02 4.35335200e-18 6.21345916e-19 0.00000000e+00 3.73200609e-18 0.00000000e+00 6.21345916e-19
8.70963590e+02 2.30019644e-18 4.10519176e-19 0.00000000e+00 1.88967726e-18 0.00000000e+00 4.10519176e-19
1.00000000e+03 9.55642446e-19 0.00000000e+00 0.00000000e+00 9.55642446e-19 0.00000000e+00 0.00000000e+00
