# column 1: lambda (micron)
# column 2: total flux; lambda*F_lambda (W/m2)
# column 3: direct stellar flux; lambda*F_lambda (W/m2)
# column 4: scattered stellar flux; lambda*F_lambda (W/m2)
# column 5: total dust emission flux; lambda*F_lambda (W/m2)
# column 6: dust emission scattered flux; lambda*F_lambda (W/m2)
# column 7: transparent flux; lambda*F_lambda (W/m2)
1.00000000e-03 1.04634369e-12 1.04634360e-12 8.07066647e-20 0.00000000e+00 0.00000000e+00 1.04634360e-12
1.14815362e-03 1.23502108e-12 1.23502095e-12 1.35824060e-19 0.00000000e+00 0.00000000e+00 1.23502095e-12
1.31825674e-03 1.45772093e-12 1.45772071e-12 2.20494174e-19 0.00000000e+00 0.00000000e+00 1.45772071e-12
1.51356125e-03 1.72057821e-12 1.72057784e-12 3.74827429e-19 0.00000000e+00 0.00000000e+00 1.72057784e-12
1.73780083e-03 2.03083417e-12 2.03083353e-12 6.49273163e-19 0.00000000e+00 0.00000000e+00 2.03083353e-12
1.99526231e-03 2.39703606e-12 2.39703472e-12 1.33999842e-18 0.00000000e+00 0.00000000e+00 2.39703472e-12
2.29086765e-03 2.82927162e-12 2.82926954e-12 2.08252199e-18 0.00000000e+00 0.00000000e+00 2.82926954e-12
2.63026799e-03 3.33944958e-12 3.33944522e-12 4.35323276e-18 0.00000000e+00 0.00000000e+00 3.33944522e-12
3.01995172e-03 3.94162444e-12 3.94161611e-12 8.33388680e-18 0.00000000e+00 0.00000000e+00 3.94161611e-12
3.46736850e-03 4.65238570e-12 4.65237083e-12 1.48644010e-17 0.00000000e+00 0.00000000e+00 4.65237083e-12
3.98107171e-03 5.49131530e-12 5.49128930e-12 2.60009128e-17 0.00000000e+00 0.00000000e+00 5.49128930e-12
4.57088190e-03 6.48152784e-12 6.48148207e-12 4.57706944e-17 0.00000000e+00 0.00000000e+00 6.48148207e-12
5.24807460e-03 7.65031695e-12 7.65022704e-12 8.99146657e-17 0.00000000e+00 0.00000000e+00 7.65022704e-12
6.02559586e-03 9.02989565e-12 9.02972084e-12 1.74811727e-16 0.00000000e+00 0.00000000e+00 9.02972084e-12
6.91830971e-03 1.06582775e-11 1.06579658e-11 3.11655245e-16 0.00000000e+00 0.00000000e+00 1.06579658e-11
7.94328235e-03 1.25803391e-11 1.25798170e-11 5.22075931e-16 2.08931362e-303 9.81668217e-306 1.25798170e-11
9.12010839e-03 1.48491115e-11 1.48482176e-11 8.93916764e-16 1.10095417e-264 7.26758629e-267 1.48482176e-11
1.04712855e-02 1.65847267e-11 1.65834298e-11 1.29690032e-15 5.46527648e-231 5.10008718e-233 1.65834298e-11
1.20226443e-02 1.65855061e-11 1.65834298e-11 2.07627339e-15 9.81139918e-202 7.80421225e-204 1.65834298e-11
1.38038426e-02 1.65863098e-11 1.65834298e-11 2.87998113e-15 3.05015065e-176 6.14121679e-178 1.65834298e-11
1.58489319e-02 1.65875767e-11 1.65834298e-11 4.14694154e-15 4.52899313e-154 4.67193971e-156 1.65834298e-11
1.81970086e-02 1.65896138e-11 1.65834298e-11 6.18402579e-15 8.90385884e-135 1.53452599e-136 1.65834298e-11
2.08929613e-02 1.65917979e-11 1.65834298e-11 8.36814784e-15 5.02520258e-118 8.42750643e-120 1.65834298e-11
2.39883292e-02 1.65952739e-11 1.65834298e-11 1.18440844e-14 1.88906382e-103 3.52337315e-105 1.65834298e-11
2.75422870e-02 1.65999488e-11 1.65834298e-11 1.65189717e-14 9.00298163e-91 2.12652202e-92 1.65834298e-11
3.16227766e-02 1.66051843e-11 1.65834298e-11 2.17545022e-14 9.25151596e-80 2.48685260e-81 1.65834298e-11
3.63078055e-02 1.66076953e-11 1.65834298e-11 2.42655369e-14 3.35887988e-70 9.90457133e-72 1.65834298e-11
4.16869383e-02 1.66159629e-11 1.65834298e-11 3.25331108e-14 6.65448989e-62 2.37363170e-63 1.65834298e-11
4.78630092e-02 1.66267048e-11 1.65834298e-11 4.32750609e-14 1.04356325e-54 4.68785471e-56 1.65834298e-11
5.49540874e-02 1.66370222e-11 1.65834298e-11 5.35924398e-14 1.78853381e-48 9.49890696e-50 1.65834298e-11
6.30957344e-02 1.66508827e-11 1.65834298e-11 6.74529359e-14 5.90671698e-43 3.49452093e-44 1.65834298e-11
7.24435960e-02 1.66560010e-11 1.65834298e-11 7.25712381e-14 3.47007224e-38 1.90244709e-39 1.65834298e-11
8.31763771e-02 1.66542942e-11 1.65834298e-11 7.08644262e-14 3.62327949e-34 1.94820235e-35 1.65834298e-11
9.54992586e-02 1.66536665e-11 1.65834298e-11 7.02366858e-14 1.04161376e-30 5.92879760e-32 1.65834298e-11
1.09647820e-01 1.59040307e-11 1.58370587e-11 6.69719676e-14 9.03238069e-28 5.63387872e-29 1.58370587e-11
1.25892541e-01 1.48361931e-11 1.47800032e-11 5.61899788e-14 2.97792956e-25 1.86015879e-26 1.47800032e-11
1.44543977e-01 1.38396880e-11 1.37935015e-11 4.61864588e-14 4.11340551e-23 2.51264050e-24 1.37935015e-11
1.65958691e-01 1.29167274e-11 1.28728446e-11 4.38828126e-14 2.11087108e-21 1.42366399e-22 1.28728446e-11
1.90546072e-01 1.20644537e-11 1.20136376e-11 5.08160873e-14 4.49793380e-20 3.64220538e-21 1.20136376e-11
2.18776162e-01 1.12634371e-11 1.12117790e-11 5.16576421e-14 5.36410882e-19 4.61770368e-20 1.12117790e-11
2.51188643e-01 1.05184259e-11 1.04634409e-11 5.49783187e-14 6.60542796e-18 7.03709163e-19 1.04634409e-11
2.88403150e-01 9.81120010e-12 9.76505125e-12 4.60935176e-14 5.53304896e-17 5.72809678e-18 9.76505125e-12
3.31131121e-01 9.15357423e-12 9.11327608e-12 3.99803689e-14 3.17779513e-16 3.11183405e-17 9.11327608e-12
3.80189396e-01 8.53984474e-12 8.50500410e-12 3.35086834e-14 1.33195733e-15 1.27831540e-16 8.50500410e-12
4.36515832e-01 7.97232943e-12 7.93733165e-12 3.07720002e-14 4.22578403e-15 3.94669653e-16 7.93733165e-12
5.01187234e-01 7.44542247e-12 7.40754890e-12 2.73039712e-14 1.05695944e-14 9.64257775e-16 7.40754890e-12
5.75439937e-01 6.95915945e-12 6.91312687e-12 2.42838317e-14 2.17487478e-14 1.93984197e-15 6.91312687e-12
6.60693448e-01 6.51204869e-12 6.45170538e-12 2.22593339e-14 3.80839723e-14 3.34765778e-15 6.45170538e-12
7.58577575e-01 6.09972882e-12 6.02108180e-12 1.97018819e-14 5.89451469e-14 5.00684842e-15 6.02108180e-12
8.70963590e-01 5.71833234e-12 5.61920048e-12 1.66587559e-14 8.24731073e-14 6.70710244e-15 5.61920048e-12
1.00000000e+00 5.36513009e-12 5.24414302e-12 1.51161418e-14 1.05870928e-13 8.24549457e-15 5.24414302e-12
1.14815362e+00 5.03619022e-12 4.89411902e-12 1.25312545e-14 1.29539943e-13 9.50104584e-15 4.89411902e-12
1.31825674e+00 4.73200143e-12 4.56745763e-12 1.01985168e-14 1.54345290e-13 1.02002205e-14 4.56745763e-12
1.51356125e+00 4.45214543e-12 4.26259947e-12 7.59102182e-15 1.81954931e-13 1.07105483e-14 4.26259947e-12
1.73780083e+00 4.19627192e-12 3.97808929e-12 5.77002756e-15 2.12412600e-13 1.06168659e-14 3.97808929e-12
1.99526231e+00 3.96156718e-12 3.71256894e-12 4.11325571e-15 2.44884978e-13 9.95772995e-15 3.71256894e-12
2.29086765e+00 3.74308848e-12 3.46477093e-12 3.03866396e-15 2.75278881e-13 8.73789033e-15 3.46477093e-12
2.63026799e+00 3.53470543e-12 3.23351237e-12 2.13084960e-15 2.99062207e-13 7.22849876e-15 3.23351237e-12
3.01995172e+00 3.33177881e-12 3.01768933e-12 1.35655846e-15 3.12732918e-13 5.59204776e-15 3.01768933e-12
3.46736850e+00 3.13218136e-12 2.81627154e-12 8.35516330e-16 3.15074301e-13 4.02768670e-15 2.81627154e-12
3.98107171e+00 2.93405575e-12 2.62829753e-12 5.37922378e-16 3.05220300e-13 2.70936640e-15 2.62829753e-12
4.57088190e+00 2.73906874e-12 2.45286997e-12 3.28224777e-16 2.85870541e-13 1.72261368e-15 2.45286997e-12
5.24807460e+00 2.29007839e-12 2.02814751e-12 1.66716933e-16 2.61764166e-13 1.04639776e-15 2.02814751e-12
6.02559586e+00 1.57656574e-12 1.33998377e-12 6.88543246e-17 2.36513109e-13 5.93455080e-16 1.33998377e-12
6.70000000e+00 1.19095681e-12 9.74709347e-13 3.26226075e-17 2.16214843e-13 3.65060192e-16 9.74709347e-13
6.92422916e+00 1.09284564e-12 8.83049889e-13 2.40227834e-17 2.09771730e-13 3.10622044e-16 8.83049889e-13
7.15596261e+00 1.00571545e-12 8.00009879e-13 2.10117452e-17 2.05684560e-13 2.61115436e-16 8.00009879e-13
7.39545150e+00 9.31775038e-13 7.24778763e-13 1.51850601e-17 2.06981091e-13 2.23807813e-16 7.24778763e-13
7.64295536e+00 8.80983380e-13 6.56622211e-13 1.08804567e-17 2.24350289e-13 1.93676122e-16 6.56622211e-13
7.89874245e+00 8.61704000e-13 5.94874946e-13 7.60456979e-18 2.66821450e-13 1.70349537e-16 5.94874946e-13
8.16308998e+00 8.69101138e-13 5.38934254e-13 4.72076079e-18 3.30162163e-13 1.50649563e-16 5.38934254e-13
8.43628443e+00 9.09044864e-13 4.88254098e-13 3.19127969e-18 4.20787574e-13 1.27745043e-16 4.88254098e-13
8.71862190e+00 9.29334523e-13 4.42339790e-13 1.99337067e-18 4.86992740e-13 1.01269889e-16 4.42339790e-13
9.01040836e+00 9.57167846e-13 4.00743158e-13 1.06224168e-18 5.56423625e-13 6.81592702e-17 4.00743158e-13
9.31196005e+00 9.75964078e-13 3.63058180e-13 0.00000000e+00 6.12905898e-13 0.00000000e+00 3.63058180e-13
9.62360379e+00 9.39251832e-13 3.28917012e-13 0.00000000e+00 6.10334821e-13 0.00000000e+00 3.28917012e-13
9.94567731e+00 8.64036221e-13 2.97986401e-13 0.00000000e+00 5.66049820e-13 0.00000000e+00 2.97986401e-13
1.02785297e+01 7.80094286e-13 2.69964435e-13 0.00000000e+00 5.10129850e-13 0.00000000e+00 2.69964435e-13
1.06225216e+01 7.00199609e-13 2.44577592e-13 0.00000000e+00 4.55622017e-13 0.00000000e+00 2.44577592e-13
1.09780260e+01 6.17570488e-13 2.21578069e-13 0.00000000e+00 3.95992419e-13 0.00000000e+00 2.21578069e-13
1.13454280e+01 5.45817995e-13 2.00741370e-13 0.00000000e+00 3.45076625e-13 0.00000000e+00 2.00741370e-13
1.17251259e+01 4.84088365e-13 1.81864106e-13 0.00000000e+00 3.02224259e-13 0.00000000e+00 1.81864106e-13
1.21175312e+01 4.28884455e-13 1.64762018e-13 0.00000000e+00 2.64122437e-13 0.00000000e+00 1.64762018e-13
1.25230691e+01 3.80262511e-13 1.49268171e-13 0.00000000e+00 2.30994340e-13 0.00000000e+00 1.49268171e-13
1.29421791e+01 3.38518184e-13 1.35231331e-13 0.00000000e+00 2.03286853e-13 0.00000000e+00 1.35231331e-13
1.33753155e+01 3.02512164e-13 1.22514483e-13 0.00000000e+00 1.79997681e-13 0.00000000e+00 1.22514483e-13
1.38229477e+01 2.76045249e-13 1.10993499e-13 0.00000000e+00 1.65051751e-13 0.00000000e+00 1.10993499e-13
1.42855609e+01 2.56893318e-13 1.00555922e-13 0.00000000e+00 1.56337397e-13 0.00000000e+00 1.00555922e-13
1.47636563e+01 2.49067638e-13 9.10998706e-14 0.00000000e+00 1.57967767e-13 0.00000000e+00 9.10998706e-14
1.52577522e+01 2.44487646e-13 8.25330452e-14 0.00000000e+00 1.61954601e-13 0.00000000e+00 8.25330452e-14
1.57683840e+01 2.42207976e-13 7.47718247e-14 0.00000000e+00 1.67436152e-13 0.00000000e+00 7.47718247e-14
1.62961051e+01 2.40941290e-13 6.77404517e-14 0.00000000e+00 1.73200838e-13 0.00000000e+00 6.77404517e-14
1.68414875e+01 2.40137858e-13 6.13702932e-14 0.00000000e+00 1.78767565e-13 0.00000000e+00 6.13702932e-14
1.74051222e+01 2.36531857e-13 5.55991699e-14 0.00000000e+00 1.80932687e-13 0.00000000e+00 5.55991699e-14
1.79876201e+01 2.31200041e-13 5.03707500e-14 0.00000000e+00 1.80829291e-13 0.00000000e+00 5.03707500e-14
1.85896125e+01 2.22061104e-13 4.56339988e-14 0.00000000e+00 1.76427105e-13 0.00000000e+00 4.56339988e-14
1.92117518e+01 2.09912221e-13 4.13426810e-14 0.00000000e+00 1.68569540e-13 0.00000000e+00 4.13426810e-14
1.98547123e+01 1.96084904e-13 3.74549090e-14 0.00000000e+00 1.58629995e-13 0.00000000e+00 3.74549090e-14
2.05191907e+01 1.82161643e-13 3.39327342e-14 0.00000000e+00 1.48228909e-13 0.00000000e+00 3.39327342e-14
2.12059073e+01 1.69372706e-13 3.07417768e-14 0.00000000e+00 1.38630929e-13 0.00000000e+00 3.07417768e-14
2.19156062e+01 1.57853617e-13 2.78508898e-14 0.00000000e+00 1.30002727e-13 0.00000000e+00 2.78508898e-14
2.26490567e+01 1.47342364e-13 2.52318552e-14 0.00000000e+00 1.22110509e-13 0.00000000e+00 2.52318552e-14
2.34070535e+01 1.37586763e-13 2.28591087e-14 0.00000000e+00 1.14727654e-13 0.00000000e+00 2.28591087e-14
2.41904183e+01 1.28789176e-13 2.07094900e-14 0.00000000e+00 1.08079687e-13 0.00000000e+00 2.07094900e-14
2.50000000e+01 1.20568290e-13 1.87620165e-14 0.00000000e+00 1.01806273e-13 0.00000000e+00 1.87620165e-14
2.75422870e+01 9.92240617e-14 1.40313526e-14 0.00000000e+00 8.51927090e-14 0.00000000e+00 1.40313526e-14
3.16227766e+01 7.42140072e-14 9.27042274e-15 0.00000000e+00 6.49435845e-14 0.00000000e+00 9.27042274e-15
3.63078055e+01 5.34566653e-14 6.12490756e-15 0.00000000e+00 4.73317578e-14 0.00000000e+00 6.12490756e-15
4.16869383e+01 3.64534771e-14 4.04668630e-15 0.00000000e+00 3.24067908e-14 0.00000000e+00 4.04668630e-15
4.78630092e+01 2.35381230e-14 2.67361912e-15 0.00000000e+00 2.08645039e-14 0.00000000e+00 2.67361912e-15
5.49540874e+01 1.45551450e-14 1.76644264e-15 0.00000000e+00 1.27887023e-14 0.00000000e+00 1.76644264e-15
6.30957344e+01 8.71954205e-15 1.16707708e-15 0.00000000e+00 7.55246498e-15 0.00000000e+00 1.16707708e-15
7.24435960e+01 5.10431081e-15 7.71080178e-16 0.00000000e+00 4.33323063e-15 0.00000000e+00 7.71080178e-16
8.31763771e+01 2.94458113e-15 5.09447621e-16 0.00000000e+00 2.43513351e-15 0.00000000e+00 5.09447621e-16
9.54992586e+01 1.68539851e-15 3.36588705e-16 0.00000000e+00 1.34880980e-15 0.00000000e+00 3.36588705e-16
1.09647820e+02 9.61396082e-16 2.22381952e-16 0.00000000e+00 7.39014129e-16 0.00000000e+00 2.22381952e-16
1.25892541e+02 5.53176378e-16 1.46926299e-16 0.00000000e+00 4.06250079e-16 0.00000000e+00 1.46926299e-16
1.44543977e+02 3.19615443e-16 9.70732430e-17 0.00000000e+00 2.22542200e-16 0.00000000e+00 9.70732430e-17
1.65958691e+02 1.80149666e-16 6.41356556e-17 0.00000000e+00 1.16014010e-16 0.00000000e+00 6.41356556e-17
1.90546072e+02 1.02999223e-16 4.23740075e-17 0.00000000e+00 6.06252154e-17 0.00000000e+00 4.23740075e-17
2.18776162e+02 5.96558542e-17 2.79962291e-17 0.00000000e+00 3.16596251e-17 0.00000000e+00 2.79962291e-17
2.51188643e+02 3.49813984e-17 1.84969251e-17 0.00000000e+00 1.64844732e-17 0.00000000e+00 1.84969251e-17
2.88403150e+02 2.07661085e-17 1.22207972e-17 0.00000000e+00 8.54531127e-18 0.00000000e+00 1.22207972e-17
3.31131121e+02 1.24922957e-17 8.07420067e-18 0.00000000e+00 4.41809499e-18 0.00000000e+00 8.07420067e-18
3.80189396e+02 7.61009719e-18 5.33457148e-18 0.00000000e+00 2.27552571e-18 0.00000000e+00 5.33457148e-18
4.36515832e+02 4.69356984e-18 3.52451642e-18 0.00000000e+00 1.16905342e-18 0.00000000e+00 3.52451642e-18
5.01187234e+02 2.92754099e-18 2.32862491e-18 0.00000000e+00 5.98916077e-19 0.00000000e+00 2.32862491e-18
5.75439937e+02 1.84462328e-18 1.53850722e-18 0.00000000e+00 3.06116064e-19 0.00000000e+00 1.53850722e-18
6.60693448e+02 1.17262325e-18 1.01648164e-18 0.00000000e+00 1.56141612e-19 0.00000000e+00 1.01648164e-18
7.58577575e+02 7.51083434e-19 6.71582760e-19 0.00000000e+00 7.95006740e-20 0.00000000e+00 6.71582760e-19
8.70963590e+02 4.84114995e-19 4.43710329e-19 0.00000000e+00 4.04046662e-20 0.00000000e+00 4.43710329e-19
1.00000000e+03 2.04995774e-20 0.00000000e+00 0.00000000e+00 2.04995774e-20 0.00000000e+00 0.00000000e+00
