# column 1: lambda (micron)
# column 2: total flux; lambda*F_lambda (W/m2)
# column 3: direct stellar flux; lambda*F_lambda (W/m2)
# column 4: scattered stellar flux; lambda*F_lambda (W/m2)
# column 5: total dust emission flux; lambda*F_lambda (W/m2)
# column 6: dust emission scattered flux; lambda*F_lambda (W/m2)
# column 7: transparent flux; lambda*F_lambda (W/m2)
1.00000000e-03 8.46530297e-13 8.46529401e-13 8.96334056e-19 0.00000000e+00 0.00000000e+00 8.46529401e-13
1.14815362e-03 9.99177481e-13 9.99176121e-13 1.36063721e-18 0.00000000e+00 0.00000000e+00 9.99176121e-13
1.31825674e-03 1.17935024e-12 1.17934819e-12 2.04563408e-18 0.00000000e+00 0.00000000e+00 1.17934819e-12
1.51356125e-03 1.39201209e-12 1.39200901e-12 3.08094429e-18 0.00000000e+00 0.00000000e+00 1.39200901e-12
1.73780083e-03 1.64302231e-12 1.64301696e-12 5.34677343e-18 0.00000000e+00 0.00000000e+00 1.64301696e-12
1.99526231e-03 1.93929584e-12 1.93928682e-12 9.01656514e-18 0.00000000e+00 0.00000000e+00 1.93928682e-12
2.29086765e-03 2.28899437e-12 2.28898025e-12 1.41124045e-17 0.00000000e+00 0.00000000e+00 2.28898025e-12
2.63026799e-03 2.70175870e-12 2.70173063e-12 2.80739972e-17 0.00000000e+00 0.00000000e+00 2.70173063e-12
3.01995172e-03 3.18895597e-12 3.18890841e-12 4.75609907e-17 0.00000000e+00 0.00000000e+00 3.18890841e-12
3.46736850e-03 3.76400899e-12 3.76393440e-12 7.45897517e-17 0.00000000e+00 0.00000000e+00 3.76393440e-12
3.98107171e-03 4.44276576e-12 4.44264945e-12 1.16309244e-16 0.00000000e+00 0.00000000e+00 4.44264945e-12
4.57088190e-03 5.24403384e-12 5.24375082e-12 2.83021490e-16 0.00000000e+00 0.00000000e+00 5.24375082e-12
5.24807460e-03 6.19195673e-12 6.18930730e-12 2.64942837e-15 0.00000000e+00 0.00000000e+00 6.18930730e-12
6.02559586e-03 7.30807890e-12 7.30536713e-12 2.71177222e-15 0.00000000e+00 0.00000000e+00 7.30536713e-12
6.91830971e-03 8.62542048e-12 8.62267558e-12 2.74490524e-15 0.00000000e+00 0.00000000e+00 8.62267558e-12
7.94328235e-03 1.01881846e-11 1.01775219e-11 1.06627148e-14 1.52626381e-303 2.29471418e-306 1.01775219e-11
9.12010839e-03 1.20335035e-11 1.20127391e-11 2.07643160e-14 6.65856115e-265 1.25553997e-267 1.20127391e-11
1.04712855e-02 1.34294958e-11 1.34165878e-11 1.29079694e-14 2.80351081e-231 7.73320112e-234 1.34165878e-11
1.20226443e-02 1.34341679e-11 1.34165878e-11 1.75800478e-14 4.39215326e-202 3.24911516e-204 1.34165878e-11
1.38038426e-02 1.34386259e-11 1.34165878e-11 2.20380519e-14 1.18901379e-176 6.06044926e-179 1.34165878e-11
1.58489319e-02 1.34447143e-11 1.34165878e-11 2.81264738e-14 1.60677378e-154 1.27269101e-156 1.34165878e-11
1.81970086e-02 1.34484285e-11 1.34165878e-11 3.18406330e-14 2.85892697e-135 2.54605024e-137 1.34165878e-11
2.08929613e-02 1.34662916e-11 1.34165878e-11 4.97037288e-14 1.49400601e-118 1.92811084e-120 1.34165878e-11
2.39883292e-02 1.34694181e-11 1.34165878e-11 5.28302953e-14 5.24518189e-104 9.00424298e-106 1.34165878e-11
2.75422870e-02 1.34794353e-11 1.34165878e-11 6.28474544e-14 2.34960735e-91 5.09606069e-93 1.34165878e-11
3.16227766e-02 1.34965659e-11 1.34165878e-11 7.99780393e-14 2.29291177e-80 6.03502628e-82 1.34165878e-11
3.63078055e-02 1.35051696e-11 1.34165878e-11 8.85817964e-14 7.95947234e-71 2.42712672e-72 1.34165878e-11
4.16869383e-02 1.35309870e-11 1.34165878e-11 1.14399143e-13 1.52178677e-62 6.30029735e-64 1.34165878e-11
4.78630092e-02 1.35672548e-11 1.34165878e-11 1.50666935e-13 2.31439047e-55 1.25515596e-56 1.34165878e-11
5.49540874e-02 1.35994573e-11 1.34165878e-11 1.82869482e-13 3.86863481e-49 2.53494915e-50 1.34165878e-11
6.30957344e-02 1.36231826e-11 1.34165878e-11 2.06594727e-13 1.25648864e-43 9.56990917e-45 1.34165878e-11
7.24435960e-02 1.36143072e-11 1.34165878e-11 1.97719371e-13 7.25889729e-39 5.27222239e-40 1.34165878e-11
8.31763771e-02 1.36075910e-11 1.34165878e-11 1.91003114e-13 7.42620552e-35 5.35658829e-36 1.34165878e-11
9.54992586e-02 1.36144079e-11 1.34165878e-11 1.97820044e-13 2.09120658e-31 1.54841431e-32 1.34165878e-11
1.09647820e-01 1.30210889e-11 1.28127470e-11 2.08341951e-13 1.77816984e-28 1.43390994e-29 1.28127470e-11
1.25892541e-01 1.21477668e-11 1.19575512e-11 1.90215606e-13 5.75235342e-26 4.56974224e-27 1.19575512e-11
1.44543977e-01 1.13251511e-11 1.11594361e-11 1.65715023e-13 7.79130827e-24 5.79030592e-25 1.11594361e-11
1.65958691e-01 1.05890225e-11 1.04145917e-11 1.74430772e-13 3.95773935e-22 3.28222763e-23 1.04145917e-11
1.90546072e-01 9.91091904e-12 9.71946251e-12 1.91456518e-13 8.37733636e-21 8.18310236e-22 9.71946251e-12
2.18776162e-01 9.25663954e-12 9.07073019e-12 1.85909251e-13 9.94951020e-20 1.02869859e-20 9.07073019e-12
2.51188643e-01 8.67366053e-12 8.46529796e-12 2.08361354e-13 1.21243684e-18 1.49416747e-19 8.46529796e-12
2.88403150e-01 8.08906350e-12 7.90027573e-12 1.88777701e-13 1.00667955e-17 1.21565341e-18 7.90027573e-12
3.31131121e-01 7.54502030e-12 7.37296631e-12 1.71996558e-13 5.74315204e-17 6.61628486e-18 7.37296631e-12
3.80189396e-01 7.03844743e-12 6.88085251e-12 1.57356117e-13 2.38801229e-16 2.66454111e-17 6.88085251e-12
4.36515832e-01 6.56400843e-12 6.42158520e-12 1.41666019e-13 7.57209285e-16 8.40315932e-17 6.42158520e-12
5.01187234e-01 6.12782297e-12 5.99297201e-12 1.32934682e-13 1.91628010e-15 2.16416943e-16 5.99297201e-12
5.75439937e-01 5.72031589e-12 5.59296690e-12 1.23214752e-13 4.13423975e-15 4.92138879e-16 5.59296690e-12
6.60693448e-01 5.33989946e-12 5.21966041e-12 1.11956761e-13 8.28228365e-15 1.10527490e-15 5.21966041e-12
7.58577575e-01 4.99329056e-12 4.87127053e-12 1.04984723e-13 1.70353053e-14 2.65895776e-15 4.87127053e-12
8.70963590e-01 4.67568103e-12 4.54613417e-12 9.24278911e-14 3.71189678e-14 6.52409161e-15 4.54613417e-12
1.00000000e+00 4.40702023e-12 4.24269927e-12 8.26615392e-14 8.16594237e-14 1.48543337e-14 4.24269927e-12
1.14815362e+00 4.20478789e-12 3.95951734e-12 7.01773484e-14 1.75093197e-13 3.08526626e-14 3.95951734e-12
1.31825674e+00 4.10678480e-12 3.69523659e-12 5.91194615e-14 3.52428756e-13 5.72784091e-14 3.69523659e-12
1.51356125e+00 4.14341687e-12 3.44859544e-12 4.86408162e-14 6.46180619e-13 9.38891227e-14 3.44859544e-12
1.73780083e+00 4.32038612e-12 3.21841652e-12 3.90871207e-14 1.06288247e-12 1.33338880e-13 3.21841652e-12
1.99526231e+00 4.60273196e-12 3.00360106e-12 2.93644734e-14 1.56976642e-12 1.62341227e-13 3.00360106e-12
2.29086765e+00 4.91654932e-12 2.80312361e-12 2.18870626e-14 2.09153865e-12 1.70002724e-13 2.80312361e-12
2.63026799e+00 5.17948122e-12 2.61602716e-12 1.52953815e-14 2.54815867e-12 1.56123000e-13 2.61602716e-12
3.01995172e+00 5.34334465e-12 2.44141860e-12 1.01074921e-14 2.89181856e-12 1.26413168e-13 2.44141860e-12
3.46736850e+00 5.37575798e-12 2.27846441e-12 6.32479647e-15 3.09096878e-12 9.24222527e-14 2.27846441e-12
3.98107171e+00 5.24124356e-12 2.12638671e-12 3.95693803e-15 3.11089991e-12 6.17825568e-14 2.12638671e-12
4.57088190e+00 4.97694904e-12 1.98445954e-12 2.36694384e-15 2.99012255e-12 3.80262363e-14 1.98445954e-12
5.24807460e+00 4.42010772e-12 1.64084388e-12 1.22790082e-15 2.77803594e-12 2.20932348e-14 1.64084388e-12
6.02559586e+00 3.61136811e-12 1.08409480e-12 4.90253347e-16 2.52678306e-12 1.20250041e-14 1.08409480e-12
6.70000000e+00 3.10647482e-12 7.88574724e-13 2.37272119e-16 2.31766282e-12 7.21173572e-15 7.88574724e-13
6.92422916e+00 2.96246611e-12 7.14418944e-13 1.92107448e-16 2.24785505e-12 6.05763001e-15 7.14418944e-13
7.15596261e+00 2.85014645e-12 6.47236606e-13 1.45344573e-16 2.20276450e-12 5.14607756e-15 6.47236606e-13
7.39545150e+00 2.80001388e-12 5.86371942e-13 1.12189430e-16 2.21352975e-12 4.33590277e-15 5.86371942e-13
7.64295536e+00 2.90411655e-12 5.31230854e-13 8.12977193e-17 2.37280440e-12 3.79258925e-15 5.31230854e-13
7.89874245e+00 3.24314149e-12 4.81275108e-13 5.64361888e-17 2.76180994e-12 3.38168581e-15 4.81275108e-13
8.16308998e+00 3.73969762e-12 4.36017088e-13 3.63716355e-17 3.30364416e-12 3.01604000e-15 4.36017088e-13
8.43628443e+00 4.41001767e-12 3.95015029e-13 2.08649562e-17 4.01498178e-12 2.49905650e-15 3.95015029e-13
8.71862190e+00 4.84027125e-12 3.57868711e-13 1.22146534e-17 4.48239033e-12 1.89588702e-15 3.57868711e-13
9.01040836e+00 5.26584216e-12 3.24215549e-13 5.29838159e-18 4.94162131e-12 1.13260115e-15 3.24215549e-13
9.31196005e+00 5.57518397e-12 2.93727053e-13 0.00000000e+00 5.28145692e-12 0.00000000e+00 2.93727053e-13
9.62360379e+00 5.47717381e-12 2.66105627e-13 0.00000000e+00 5.21106818e-12 0.00000000e+00 2.66105627e-13
9.94567731e+00 5.12433288e-12 2.41081657e-13 0.00000000e+00 4.88325122e-12 0.00000000e+00 2.41081657e-13
1.02785297e+01 4.72455450e-12 2.18410884e-13 0.00000000e+00 4.50614361e-12 0.00000000e+00 2.18410884e-13
1.06225216e+01 4.29109387e-12 1.97872020e-13 0.00000000e+00 4.09322185e-12 0.00000000e+00 1.97872020e-13
1.09780260e+01 3.83840347e-12 1.79264583e-13 0.00000000e+00 3.65913888e-12 0.00000000e+00 1.79264583e-13
1.13454280e+01 3.43345857e-12 1.62406948e-13 0.00000000e+00 3.27105162e-12 0.00000000e+00 1.62406948e-13
1.17251259e+01 3.06890302e-12 1.47134567e-13 0.00000000e+00 2.92176845e-12 0.00000000e+00 1.47134567e-13
1.21175312e+01 2.74200159e-12 1.33298366e-13 0.00000000e+00 2.60870322e-12 0.00000000e+00 1.33298366e-13
1.25230691e+01 2.43874214e-12 1.20763289e-13 0.00000000e+00 2.31797885e-12 0.00000000e+00 1.20763289e-13
1.29421791e+01 2.18314483e-12 1.09406983e-13 0.00000000e+00 2.07373785e-12 0.00000000e+00 1.09406983e-13
1.33753155e+01 1.95686208e-12 9.91185987e-14 0.00000000e+00 1.85774348e-12 0.00000000e+00 9.91185987e-14
1.38229477e+01 1.80756333e-12 8.97977103e-14 0.00000000e+00 1.71776562e-12 0.00000000e+00 8.97977103e-14
1.42855609e+01 1.71516285e-12 8.13533371e-14 0.00000000e+00 1.63380951e-12 0.00000000e+00 8.13533371e-14
1.47636563e+01 1.72172327e-12 7.37030537e-14 0.00000000e+00 1.64802022e-12 0.00000000e+00 7.37030537e-14
1.52577522e+01 1.74857834e-12 6.67721855e-14 0.00000000e+00 1.68180615e-12 0.00000000e+00 6.67721855e-14
1.57683840e+01 1.79238984e-12 6.04930805e-14 0.00000000e+00 1.73189676e-12 0.00000000e+00 6.04930805e-14
1.62961051e+01 1.83236041e-12 5.48044484e-14 0.00000000e+00 1.77755596e-12 0.00000000e+00 5.48044484e-14
1.68414875e+01 1.87342790e-12 4.96507622e-14 0.00000000e+00 1.82377713e-12 0.00000000e+00 4.96507622e-14
1.74051222e+01 1.88299522e-12 4.49817171e-14 0.00000000e+00 1.83801350e-12 0.00000000e+00 4.49817171e-14
1.79876201e+01 1.87338801e-12 4.07517384e-14 0.00000000e+00 1.83263627e-12 0.00000000e+00 4.07517384e-14
1.85896125e+01 1.82363989e-12 3.69195372e-14 0.00000000e+00 1.78672036e-12 0.00000000e+00 3.69195372e-14
1.92117518e+01 1.74603803e-12 3.34477076e-14 0.00000000e+00 1.71259033e-12 0.00000000e+00 3.34477076e-14
1.98547123e+01 1.64751738e-12 3.03023610e-14 0.00000000e+00 1.61721502e-12 0.00000000e+00 3.03023610e-14
2.05191907e+01 1.54185225e-12 2.74527957e-14 0.00000000e+00 1.51439945e-12 0.00000000e+00 2.74527957e-14
2.12059073e+01 1.44392886e-12 2.48711970e-14 0.00000000e+00 1.41905767e-12 0.00000000e+00 2.48711970e-14
2.19156062e+01 1.35477940e-12 2.25323660e-14 0.00000000e+00 1.33224703e-12 0.00000000e+00 2.25323660e-14
2.26490567e+01 1.26877811e-12 2.04134733e-14 0.00000000e+00 1.24836464e-12 0.00000000e+00 2.04134733e-14
2.34070535e+01 1.19008082e-12 1.84938366e-14 0.00000000e+00 1.17158699e-12 0.00000000e+00 1.84938366e-14
2.41904183e+01 1.11592809e-12 1.67547181e-14 0.00000000e+00 1.09917337e-12 0.00000000e+00 1.67547181e-14
2.50000000e+01 1.04779112e-12 1.51791424e-14 0.00000000e+00 1.03261198e-12 0.00000000e+00 1.51791424e-14
2.75422870e+01 8.60254616e-13 1.13518661e-14 0.00000000e+00 8.48902750e-13 0.00000000e+00 1.13518661e-14
3.16227766e+01 6.32962337e-13 7.50010357e-15 0.00000000e+00 6.25462234e-13 0.00000000e+00 7.50010357e-15
3.63078055e+01 4.42326938e-13 4.95526929e-15 0.00000000e+00 4.37371668e-13 0.00000000e+00 4.95526929e-15
4.16869383e+01 2.90111676e-13 3.27391395e-15 0.00000000e+00 2.86837762e-13 0.00000000e+00 3.27391395e-15
4.78630092e+01 1.78691188e-13 2.16305350e-15 0.00000000e+00 1.76528134e-13 0.00000000e+00 2.16305350e-15
5.49540874e+01 1.04963245e-13 1.42911527e-15 0.00000000e+00 1.03534129e-13 0.00000000e+00 1.42911527e-15
6.30957344e+01 5.95045618e-14 9.44207098e-16 0.00000000e+00 5.85603547e-14 0.00000000e+00 9.44207098e-16
7.24435960e+01 3.28883139e-14 6.23831443e-16 0.00000000e+00 3.22644824e-14 0.00000000e+00 6.23831443e-16
8.31763771e+01 1.78701915e-14 4.12161347e-16 0.00000000e+00 1.74580302e-14 0.00000000e+00 4.12161347e-16
9.54992586e+01 9.61628866e-15 2.72312302e-16 0.00000000e+00 9.34397636e-15 0.00000000e+00 2.72312302e-16
1.09647820e+02 5.14277430e-15 1.79914953e-16 0.00000000e+00 4.96285935e-15 0.00000000e+00 1.79914953e-16
1.25892541e+02 2.77290439e-15 1.18868631e-16 0.00000000e+00 2.65403576e-15 0.00000000e+00 1.18868631e-16
1.44543977e+02 1.49751378e-15 7.85357256e-17 0.00000000e+00 1.41897806e-15 0.00000000e+00 7.85357256e-17
1.65958691e+02 7.76050908e-16 5.18880394e-17 0.00000000e+00 7.24162869e-16 0.00000000e+00 5.18880394e-17
1.90546072e+02 4.05709998e-16 3.42820876e-17 0.00000000e+00 3.71427911e-16 0.00000000e+00 3.42820876e-17
2.18776162e+02 2.13488292e-16 2.26499507e-17 0.00000000e+00 1.90838342e-16 0.00000000e+00 2.26499507e-17
2.51188643e+02 1.12932697e-16 1.49646740e-17 0.00000000e+00 9.79680225e-17 0.00000000e+00 1.49646740e-17
2.88403150e+02 6.00513169e-17 9.88706207e-18 0.00000000e+00 5.01642549e-17 0.00000000e+00 9.88706207e-18
3.31131121e+02 3.21924174e-17 6.53231713e-18 0.00000000e+00 2.56601003e-17 0.00000000e+00 6.53231713e-18
3.80189396e+02 1.74100092e-17 4.31585913e-18 0.00000000e+00 1.30941501e-17 0.00000000e+00 4.31585913e-18
4.36515832e+02 9.52468433e-18 2.85145985e-18 0.00000000e+00 6.67322448e-18 0.00000000e+00 2.85145985e-18
5.01187234e+02 5.27891410e-18 1.88394084e-18 0.00000000e+00 3.39497326e-18 0.00000000e+00 1.88394084e-18
5.75439937e+02 2.96946402e-18 1.24470737e-18 0.00000000e+00 1.72475665e-18 0.00000000e+00 1.24470737e-18
6.60693448e+02 1.69751189e-18 8.22370004e-19 0.00000000e+00 8.75141888e-19 0.00000000e+00 8.22370004e-19
7.58577575e+02 9.86894420e-19 5.43334473e-19 0.00000000e+00 4.43559947e-19 0.00000000e+00 5.43334473e-19
8.70963590e+02 5.83518341e-19 3.58977527e-19 0.00000000e+00 2.24540814e-19 0.00000000e+00 3.58977527e-19
1.00000000e+03 1.13531919e-19 0.00000000e+00 0.00000000e+00 1.13531919e-19 0.00000000e+00 0.00000000e+00
