# column 1: lambda (micron)
# column 2: total flux; lambda*F_lambda (W/m2)
# column 3: direct stellar flux; lambda*F_lambda (W/m2)
# column 4: scattered stellar flux; lambda*F_lambda (W/m2)
# column 5: total dust emission flux; lambda*F_lambda (W/m2)
# column 6: dust emission scattered flux; lambda*F_lambda (W/m2)
# column 7: transparent flux; lambda*F_lambda (W/m2)
1.00000000e-03 9.68074778e-13 9.68073281e-13 1.49689996e-18 0.00000000e+00 0.00000000e+00 9.68073281e-13
1.14815362e-03 1.14263907e-12 1.14263687e-12 2.20421064e-18 0.00000000e+00 0.00000000e+00 1.14263687e-12
1.31825674e-03 1.34868119e-12 1.34867788e-12 3.30821467e-18 0.00000000e+00 0.00000000e+00 1.34867788e-12
1.51356125e-03 1.59187744e-12 1.59187233e-12 5.11474762e-18 0.00000000e+00 0.00000000e+00 1.59187233e-12
1.73780083e-03 1.87892888e-12 1.87891976e-12 9.12462939e-18 0.00000000e+00 0.00000000e+00 1.87891976e-12
1.99526231e-03 2.21774372e-12 2.21772777e-12 1.59589593e-17 0.00000000e+00 0.00000000e+00 2.21772777e-12
2.29086765e-03 2.61765405e-12 2.61762985e-12 2.42054053e-17 0.00000000e+00 0.00000000e+00 2.61762985e-12
2.63026799e-03 3.08968931e-12 3.08964252e-12 4.67836870e-17 0.00000000e+00 0.00000000e+00 3.08964252e-12
3.01995172e-03 3.64684961e-12 3.64676883e-12 8.07872476e-17 0.00000000e+00 0.00000000e+00 3.64676883e-12
3.46736850e-03 4.30448284e-12 4.30435650e-12 1.26337849e-16 0.00000000e+00 0.00000000e+00 4.30435650e-12
3.98107171e-03 5.08072586e-12 5.08052080e-12 2.05057958e-16 0.00000000e+00 0.00000000e+00 5.08052080e-12
4.57088190e-03 5.99711366e-12 5.99664354e-12 4.70124569e-16 0.00000000e+00 0.00000000e+00 5.99664354e-12
5.24807460e-03 7.07880156e-12 7.07796211e-12 8.39449615e-16 0.00000000e+00 0.00000000e+00 7.07796211e-12
6.02559586e-03 8.35580838e-12 8.35426474e-12 1.54364189e-15 0.00000000e+00 0.00000000e+00 8.35426474e-12
6.91830971e-03 9.86301797e-12 9.86071107e-12 2.30690041e-15 0.00000000e+00 0.00000000e+00 9.86071107e-12
7.94328235e-03 1.16426952e-11 1.16388008e-11 3.89445848e-15 1.78554062e-303 2.34057536e-306 1.16388008e-11
9.12010839e-03 1.37437189e-11 1.37375167e-11 6.20216663e-15 7.60906092e-265 1.39863803e-267 1.37375167e-11
1.04712855e-02 1.53517692e-11 1.53429287e-11 8.84053456e-15 3.13961537e-231 9.18659790e-234 1.53429287e-11
1.20226443e-02 1.53560602e-11 1.53429287e-11 1.31314959e-14 4.81437177e-202 1.93568244e-204 1.53429287e-11
1.38038426e-02 1.53633346e-11 1.53429287e-11 2.04059687e-14 1.28871369e-176 7.73500837e-179 1.53429287e-11
1.58489319e-02 1.53705945e-11 1.53429287e-11 2.76657979e-14 1.71616736e-154 1.31561827e-156 1.53429287e-11
1.81970086e-02 1.53809193e-11 1.53429287e-11 3.79906495e-14 3.02254695e-135 3.09595963e-137 1.53429287e-11
2.08929613e-02 1.53954676e-11 1.53429287e-11 5.25389240e-14 1.56192634e-118 2.06456627e-120 1.53429287e-11
2.39883292e-02 1.54148327e-11 1.53429287e-11 7.19040666e-14 5.43490076e-104 9.55090909e-106 1.53429287e-11
2.75422870e-02 1.54392138e-11 1.53429287e-11 9.62851723e-14 2.41636095e-91 5.43607775e-93 1.53429287e-11
3.16227766e-02 1.54612482e-11 1.53429287e-11 1.18319569e-13 2.34484032e-80 6.60153302e-82 1.53429287e-11
3.63078055e-02 1.54781621e-11 1.53429287e-11 1.35233404e-13 8.09408937e-71 2.64212160e-72 1.53429287e-11
4.16869383e-02 1.55291622e-11 1.53429287e-11 1.86233504e-13 1.54089000e-62 6.84478434e-64 1.53429287e-11
4.78630092e-02 1.55843487e-11 1.53429287e-11 2.41420077e-13 2.33271673e-55 1.33047487e-56 1.53429287e-11
5.49540874e-02 1.56398207e-11 1.53429287e-11 2.96892032e-13 3.88997915e-49 2.71757019e-50 1.53429287e-11
6.30957344e-02 1.56832054e-11 1.53429287e-11 3.40276709e-13 1.26020588e-43 1.02159636e-44 1.53429287e-11
7.24435960e-02 1.56627183e-11 1.53429287e-11 3.19789637e-13 7.26484133e-39 5.69888075e-40 1.53429287e-11
8.31763771e-02 1.56565654e-11 1.53429287e-11 3.13636756e-13 7.41642740e-35 5.79146691e-36 1.53429287e-11
9.54992586e-02 1.56735495e-11 1.53429287e-11 3.30620882e-13 2.08614107e-31 1.69057407e-32 1.53429287e-11
1.09647820e-01 1.49909134e-11 1.46523889e-11 3.38524539e-13 1.76798194e-28 1.52797619e-29 1.46523889e-11
1.25892541e-01 1.39834424e-11 1.36744049e-11 3.09037469e-13 5.68765942e-26 4.65654644e-27 1.36744049e-11
1.44543977e-01 1.30418016e-11 1.27616972e-11 2.80104420e-13 7.70990432e-24 6.06609486e-25 1.27616972e-11
1.65958691e-01 1.21973766e-11 1.19099088e-11 2.87467748e-13 3.90480345e-22 3.35115252e-23 1.19099088e-11
1.90546072e-01 1.14316899e-11 1.11149736e-11 3.16716219e-13 8.26286519e-21 8.36876782e-22 1.11149736e-11
2.18776162e-01 1.06805628e-11 1.03730969e-11 3.07465740e-13 9.81262758e-20 1.05777699e-20 1.03730969e-11
2.51188643e-01 1.00297843e-11 9.68073733e-12 3.49045771e-13 1.19519243e-18 1.52703051e-19 9.68073733e-12
2.88403150e-01 9.35773222e-12 9.03458975e-12 3.23132561e-13 9.91038050e-18 1.23649617e-18 9.03458975e-12
3.31131121e-01 8.72368479e-12 8.43156974e-12 2.92058472e-13 5.65756317e-17 6.80840884e-18 8.43156974e-12
3.80189396e-01 8.13503067e-12 7.86879872e-12 2.65996581e-13 2.35366207e-16 2.76970307e-17 7.86879872e-12
4.36515832e-01 7.58965208e-12 7.34359025e-12 2.45314349e-13 7.47480317e-16 8.81133565e-17 7.34359025e-12
5.01187234e-01 7.08103420e-12 6.85343719e-12 2.25691826e-13 1.90519105e-15 2.28311371e-16 6.85343719e-12
5.75439937e-01 6.60774770e-12 6.39599973e-12 2.07502522e-13 4.24544816e-15 5.68751120e-16 6.39599973e-12
6.60693448e-01 6.17167044e-12 5.96909425e-12 1.93364864e-13 9.21132289e-15 1.49442119e-15 5.96909425e-12
7.58577575e-01 5.76697104e-12 5.57068288e-12 1.74913492e-13 2.13746622e-14 4.21766054e-15 5.57068288e-12
8.70963590e-01 5.40504210e-12 5.19886376e-12 1.53453843e-13 5.27244952e-14 1.14590451e-14 5.19886376e-12
1.00000000e+00 5.11490543e-12 4.85186196e-12 1.36824498e-13 1.26218966e-13 2.77446629e-14 4.85186196e-12
1.14815362e+00 4.92951121e-12 4.52802104e-12 1.16405551e-13 2.85084619e-13 5.90489052e-14 4.52802104e-12
1.31825674e+00 4.90564273e-12 4.22579511e-12 9.44453909e-14 5.85402220e-13 1.09884546e-13 4.22579511e-12
1.51356125e+00 5.10696857e-12 3.94374146e-12 7.58846284e-14 1.08734248e-12 1.78001181e-13 3.94374146e-12
1.73780083e+00 5.53980198e-12 3.68051368e-12 6.01052771e-14 1.79918302e-12 2.52151923e-13 3.68051368e-12
1.99526231e+00 6.14396898e-12 3.43485522e-12 4.57122652e-14 2.66340149e-12 3.04132438e-13 3.43485522e-12
2.29086765e+00 6.82173794e-12 3.20559341e-12 3.39253784e-14 3.58221915e-12 3.23711104e-13 3.20559341e-12
2.63026799e+00 7.44032772e-12 2.99163384e-12 2.42447731e-14 4.42444911e-12 3.02784938e-13 2.99163384e-12
3.01995172e+00 7.89742257e-12 2.79195514e-12 1.67556845e-14 5.08871174e-12 2.53265222e-13 2.79195514e-12
3.46736850e+00 8.11531513e-12 2.60560415e-12 1.12100024e-14 5.49850099e-12 1.94426632e-13 2.60560415e-12
3.98107171e+00 8.08940263e-12 2.43169128e-12 7.24458435e-15 5.65046677e-12 1.34947494e-13 2.43169128e-12
4.57088190e+00 7.82865665e-12 2.26938634e-12 4.44389169e-15 5.55482642e-12 8.71153381e-14 2.26938634e-12
5.24807460e+00 7.18922938e-12 1.87643467e-12 2.37414988e-15 5.31042056e-12 5.35374212e-14 1.87643467e-12
6.02559586e+00 6.22010238e-12 1.23974809e-12 9.91055871e-16 4.97936323e-12 3.08839412e-14 1.23974809e-12
6.70000000e+00 5.58093164e-12 9.01797527e-13 4.80160583e-16 4.67865395e-12 1.93242728e-14 9.01797527e-13
6.92422916e+00 5.39628192e-12 8.16994532e-13 3.86658719e-16 4.57890073e-12 1.65307800e-14 8.16994532e-13
7.15596261e+00 5.26045680e-12 7.40166218e-13 3.01767983e-16 4.51998881e-12 1.41094536e-14 7.40166218e-13
7.39545150e+00 5.21405178e-12 6.70562664e-13 2.31213385e-16 4.54325790e-12 1.20076687e-14 6.70562664e-13
7.64295536e+00 5.44223791e-12 6.07504471e-13 1.67526095e-16 4.83456592e-12 1.04601437e-14 6.07504471e-13
7.89874245e+00 6.05839231e-12 5.50376127e-13 1.10335500e-16 5.50790585e-12 9.00877934e-15 5.50376127e-13
8.16308998e+00 6.91338784e-12 4.98620004e-13 6.94931003e-17 6.41469835e-12 7.65313729e-15 4.98620004e-13
8.43628443e+00 8.02805797e-12 4.51730909e-13 4.04435239e-17 7.57628662e-12 6.18492675e-15 4.51730909e-13
8.71862190e+00 8.71806690e-12 4.09251158e-13 2.44861105e-17 8.30879126e-12 4.81714811e-15 4.09251158e-13
9.01040836e+00 9.39582634e-12 3.70766106e-13 1.26183370e-17 9.02504761e-12 3.20798807e-15 3.70766106e-13
9.31196005e+00 9.89675632e-12 3.35900102e-13 0.00000000e+00 9.56085621e-12 0.00000000e+00 3.35900102e-13
9.62360379e+00 9.75814542e-12 3.04312818e-13 0.00000000e+00 9.45383260e-12 0.00000000e+00 3.04312818e-13
9.94567731e+00 9.25462038e-12 2.75695930e-13 0.00000000e+00 8.97892445e-12 0.00000000e+00 2.75695930e-13
1.02785297e+01 8.65213695e-12 2.49770110e-13 0.00000000e+00 8.40236684e-12 0.00000000e+00 2.49770110e-13
1.06225216e+01 8.06544685e-12 2.26282295e-13 0.00000000e+00 7.83916456e-12 0.00000000e+00 2.26282295e-13
1.09780260e+01 7.35427717e-12 2.05003220e-13 0.00000000e+00 7.14927395e-12 0.00000000e+00 2.05003220e-13
1.13454280e+01 6.75109575e-12 1.85725182e-13 0.00000000e+00 6.56537057e-12 0.00000000e+00 1.85725182e-13
1.17251259e+01 6.19065536e-12 1.68260007e-13 0.00000000e+00 6.02239535e-12 0.00000000e+00 1.68260007e-13
1.21175312e+01 5.65498765e-12 1.52437217e-13 0.00000000e+00 5.50255043e-12 0.00000000e+00 1.52437217e-13
1.25230691e+01 5.17433728e-12 1.38102367e-13 0.00000000e+00 5.03623491e-12 0.00000000e+00 1.38102367e-13
1.29421791e+01 4.73769632e-12 1.25115533e-13 0.00000000e+00 4.61258078e-12 0.00000000e+00 1.25115533e-13
1.33753155e+01 4.35014829e-12 1.13349952e-13 0.00000000e+00 4.23679834e-12 0.00000000e+00 1.13349952e-13
1.38229477e+01 4.08924991e-12 1.02690779e-13 0.00000000e+00 3.98655913e-12 0.00000000e+00 1.02690779e-13
1.42855609e+01 3.93491838e-12 9.30339713e-14 0.00000000e+00 3.84188440e-12 0.00000000e+00 9.30339713e-14
1.47636563e+01 3.96481861e-12 8.42852675e-14 0.00000000e+00 3.88053335e-12 0.00000000e+00 8.42852675e-14
1.52577522e+01 4.04112236e-12 7.63592720e-14 0.00000000e+00 3.96476309e-12 0.00000000e+00 7.63592720e-14
1.57683840e+01 4.13983244e-12 6.91786191e-14 0.00000000e+00 4.07065382e-12 0.00000000e+00 6.91786191e-14
1.62961051e+01 4.24181323e-12 6.26732185e-14 0.00000000e+00 4.17914001e-12 0.00000000e+00 6.26732185e-14
1.68414875e+01 4.33093836e-12 5.67795711e-14 0.00000000e+00 4.27415879e-12 0.00000000e+00 5.67795711e-14
1.74051222e+01 4.36017939e-12 5.14401489e-14 0.00000000e+00 4.30873924e-12 0.00000000e+00 5.14401489e-14
1.79876201e+01 4.33773646e-12 4.66028339e-14 0.00000000e+00 4.29113362e-12 0.00000000e+00 4.66028339e-14
1.85896125e+01 4.25895646e-12 4.22204090e-14 0.00000000e+00 4.21673605e-12 0.00000000e+00 4.22204090e-14
1.92117518e+01 4.09488000e-12 3.82500974e-14 0.00000000e+00 4.05662990e-12 0.00000000e+00 3.82500974e-14
1.98547123e+01 3.90896448e-12 3.46531450e-14 0.00000000e+00 3.87431134e-12 0.00000000e+00 3.46531450e-14
2.05191907e+01 3.69386278e-12 3.13944418e-14 0.00000000e+00 3.66246834e-12 0.00000000e+00 3.13944418e-14
2.12059073e+01 3.48995980e-12 2.84421796e-14 0.00000000e+00 3.46151762e-12 0.00000000e+00 2.84421796e-14
2.19156062e+01 3.29885801e-12 2.57675415e-14 0.00000000e+00 3.27309047e-12 0.00000000e+00 2.57675415e-14
2.26490567e+01 3.11587544e-12 2.33444203e-14 0.00000000e+00 3.09253102e-12 0.00000000e+00 2.33444203e-14
2.34070535e+01 2.94151264e-12 2.11491639e-14 0.00000000e+00 2.92036347e-12 0.00000000e+00 2.11491639e-14
2.41904183e+01 2.77213117e-12 1.91603445e-14 0.00000000e+00 2.75297082e-12 0.00000000e+00 1.91603445e-14
2.50000000e+01 2.61001061e-12 1.73585491e-14 0.00000000e+00 2.59265207e-12 0.00000000e+00 1.73585491e-14
2.75422870e+01 2.17043427e-12 1.29817562e-14 0.00000000e+00 2.15745251e-12 0.00000000e+00 1.29817562e-14
3.16227766e+01 1.61091197e-12 8.57696126e-15 0.00000000e+00 1.60233501e-12 0.00000000e+00 8.57696126e-15
3.63078055e+01 1.12996671e-12 5.66674211e-15 0.00000000e+00 1.12429997e-12 0.00000000e+00 5.66674211e-15
4.16869383e+01 7.43484006e-13 3.74397938e-15 0.00000000e+00 7.39740027e-13 0.00000000e+00 3.74397938e-15
4.78630092e+01 4.59456418e-13 2.47362265e-15 0.00000000e+00 4.56982795e-13 0.00000000e+00 2.47362265e-15
5.49540874e+01 2.70184105e-13 1.63430628e-15 0.00000000e+00 2.68549798e-13 0.00000000e+00 1.63430628e-15
6.30957344e+01 1.53096838e-13 1.07977545e-15 0.00000000e+00 1.52017063e-13 0.00000000e+00 1.07977545e-15
7.24435960e+01 8.44614947e-14 7.13400564e-16 0.00000000e+00 8.37480941e-14 0.00000000e+00 7.13400564e-16
8.31763771e+01 4.57392358e-14 4.71339078e-16 0.00000000e+00 4.52678967e-14 0.00000000e+00 4.71339078e-16
9.54992586e+01 2.44890311e-14 3.11410641e-16 0.00000000e+00 2.41776205e-14 0.00000000e+00 3.11410641e-16
1.09647820e+02 1.30175569e-14 2.05746970e-16 0.00000000e+00 1.28118099e-14 0.00000000e+00 2.05746970e-16
1.25892541e+02 6.96999426e-15 1.35935675e-16 0.00000000e+00 6.83405859e-15 0.00000000e+00 1.35935675e-16
1.44543977e+02 3.73399357e-15 8.98118099e-17 0.00000000e+00 3.64418176e-15 0.00000000e+00 8.98118099e-17
1.65958691e+02 1.91496477e-15 5.93380743e-17 0.00000000e+00 1.85562670e-15 0.00000000e+00 5.93380743e-17
1.90546072e+02 9.88982640e-16 3.92042769e-17 0.00000000e+00 9.49778363e-16 0.00000000e+00 3.92042769e-17
2.18776162e+02 5.12872356e-16 2.59020089e-17 0.00000000e+00 4.86970347e-16 0.00000000e+00 2.59020089e-17
2.51188643e+02 2.66626176e-16 1.71132876e-17 0.00000000e+00 2.49512888e-16 0.00000000e+00 1.71132876e-17
2.88403150e+02 1.38850502e-16 1.13066370e-17 0.00000000e+00 1.27543865e-16 0.00000000e+00 1.13066370e-17
3.31131121e+02 7.26108205e-17 7.47022097e-18 0.00000000e+00 6.51405996e-17 0.00000000e+00 7.47022097e-18
3.80189396e+02 3.81296803e-17 4.93552605e-18 0.00000000e+00 3.31941543e-17 0.00000000e+00 4.93552605e-18
4.36515832e+02 2.01569260e-17 3.26086972e-18 0.00000000e+00 1.68960563e-17 0.00000000e+00 3.26086972e-18
5.01187234e+02 1.07407147e-17 2.15443526e-18 0.00000000e+00 8.58627942e-18 0.00000000e+00 2.15443526e-18
5.75439937e+02 5.78129649e-18 1.42342126e-18 0.00000000e+00 4.35787523e-18 0.00000000e+00 1.42342126e-18
6.60693448e+02 3.14972908e-18 9.40445101e-19 0.00000000e+00 2.20928398e-18 0.00000000e+00 9.40445101e-19
7.58577575e+02 1.74025494e-18 6.21345916e-19 0.00000000e+00 1.11890902e-18 0.00000000e+00 6.21345916e-19
8.70963590e+02 9.76560260e-19 4.10519176e-19 0.00000000e+00 5.66041084e-19 0.00000000e+00 4.10519176e-19
1.00000000e+03 2.86033537e-19 0.00000000e+00 0.00000000e+00 2.86033537e-19 0.00000000e+00 0.00000000e+00
