# column 1: lambda (micron)
# column 2: total flux; lambda*F_lambda (W/m2)
# column 3: direct stellar flux; lambda*F_lambda (W/m2)
# column 4: scattered stellar flux; lambda*F_lambda (W/m2)
# column 5: total dust emission flux; lambda*F_lambda (W/m2)
# column 6: dust emission scattered flux; lambda*F_lambda (W/m2)
# column 7: transparent flux; lambda*F_lambda (W/m2)
1.00000000e-03 1.04634666e-12 1.04634360e-12 3.05675189e-18 0.00000000e+00 0.00000000e+00 1.04634360e-12
1.14815362e-03 1.23502532e-12 1.23502095e-12 4.36812497e-18 0.00000000e+00 0.00000000e+00 1.23502095e-12
1.31825674e-03 1.45772696e-12 1.45772071e-12 6.25022101e-18 0.00000000e+00 0.00000000e+00 1.45772071e-12
1.51356125e-03 1.72058662e-12 1.72057784e-12 8.78327465e-18 0.00000000e+00 0.00000000e+00 1.72057784e-12
1.73780083e-03 2.03084950e-12 2.03083353e-12 1.59782181e-17 0.00000000e+00 0.00000000e+00 2.03083353e-12
1.99526231e-03 2.39706125e-12 2.39703472e-12 2.65278009e-17 0.00000000e+00 0.00000000e+00 2.39703472e-12
2.29086765e-03 2.82931013e-12 2.82926954e-12 4.05864165e-17 0.00000000e+00 0.00000000e+00 2.82926954e-12
2.63026799e-03 3.33952496e-12 3.33944522e-12 7.97366014e-17 0.00000000e+00 0.00000000e+00 3.33944522e-12
3.01995172e-03 3.94174160e-12 3.94161611e-12 1.25489524e-16 0.00000000e+00 0.00000000e+00 3.94161611e-12
3.46736850e-03 4.65256956e-12 4.65237083e-12 1.98732203e-16 0.00000000e+00 0.00000000e+00 4.65237083e-12
3.98107171e-03 5.49160153e-12 5.49128930e-12 3.12233386e-16 0.00000000e+00 0.00000000e+00 5.49128930e-12
4.57088190e-03 6.48226891e-12 6.48148207e-12 7.86836671e-16 0.00000000e+00 0.00000000e+00 6.48148207e-12
5.24807460e-03 7.65151905e-12 7.65022704e-12 1.29201254e-15 0.00000000e+00 0.00000000e+00 7.65022704e-12
6.02559586e-03 9.03216813e-12 9.02972084e-12 2.44728240e-15 0.00000000e+00 0.00000000e+00 9.02972084e-12
6.91830971e-03 1.06613841e-11 1.06579658e-11 3.41828386e-15 0.00000000e+00 0.00000000e+00 1.06579658e-11
7.94328235e-03 1.25856748e-11 1.25798170e-11 5.85780709e-15 0.00000000e+00 0.00000000e+00 1.25798170e-11
9.12010839e-03 1.48574932e-11 1.48482176e-11 9.27558463e-15 0.00000000e+00 0.00000000e+00 1.48482176e-11
1.04712855e-02 1.65958304e-11 1.65834298e-11 1.24006255e-14 0.00000000e+00 0.00000000e+00 1.65834298e-11
1.20226443e-02 1.66285948e-11 1.65834298e-11 4.51650139e-14 0.00000000e+00 0.00000000e+00 1.65834298e-11
1.38038426e-02 1.66142581e-11 1.65834298e-11 3.08283342e-14 4.77395016e-276 2.75199340e-278 1.65834298e-11
1.58489319e-02 1.66207526e-11 1.65834298e-11 3.73228328e-14 2.62531826e-241 2.37647696e-243 1.65834298e-11
1.81970086e-02 1.66462732e-11 1.65834298e-11 6.28434272e-14 4.48774918e-211 4.85700893e-213 1.65834298e-11
2.08929613e-02 1.66619106e-11 1.65834298e-11 7.84807699e-14 8.62362177e-185 1.34859978e-186 1.65834298e-11
2.39883292e-02 1.66900861e-11 1.65834298e-11 1.06656328e-13 6.48857567e-162 1.31163473e-163 1.65834298e-11
2.75422870e-02 1.67177212e-11 1.65834298e-11 1.34291388e-13 5.25230759e-142 1.42004409e-143 1.65834298e-11
3.16227766e-02 1.67474093e-11 1.65834298e-11 1.63979518e-13 1.07230853e-124 3.60375444e-126 1.65834298e-11
3.63078055e-02 1.67741956e-11 1.65834298e-11 1.90765826e-13 1.18971634e-109 4.60783308e-111 1.65834298e-11
4.16869383e-02 1.68414624e-11 1.65834298e-11 2.58032656e-13 1.42095544e-96 7.57925255e-98 1.65834298e-11
4.78630092e-02 1.69023395e-11 1.65834298e-11 3.18909719e-13 3.25444515e-85 2.31349728e-86 1.65834298e-11
5.49540874e-02 1.69617795e-11 1.65834298e-11 3.78349677e-13 2.37575029e-75 2.12662868e-76 1.65834298e-11
6.30957344e-02 1.69877444e-11 1.65834298e-11 4.04314586e-13 1.14317696e-66 1.21199495e-67 1.65834298e-11
7.24435960e-02 1.69520545e-11 1.65834298e-11 3.68624750e-13 3.79931170e-59 3.95705405e-60 1.65834298e-11
8.31763771e-02 1.69382723e-11 1.65834298e-11 3.54842546e-13 9.81699291e-53 1.01302001e-53 1.65834298e-11
9.54992586e-02 1.69557954e-11 1.65834298e-11 3.72365654e-13 3.43133505e-47 3.69745901e-48 1.65834298e-11
1.09647820e-01 1.62303955e-11 1.58370587e-11 3.93336812e-13 1.93950505e-42 2.22912159e-43 1.58370587e-11
1.25892541e-01 1.51529449e-11 1.47800032e-11 3.72941768e-13 2.41930502e-38 2.65553361e-39 1.47800032e-11
1.44543977e-01 1.41349386e-11 1.37935015e-11 3.41437033e-13 8.08833459e-35 8.93682513e-36 1.37935015e-11
1.65958691e-01 1.32304060e-11 1.28728446e-11 3.57561428e-13 7.40426761e-32 1.08885767e-32 1.28728446e-11
1.90546072e-01 1.24112691e-11 1.20136376e-11 3.97631536e-13 2.59529947e-29 6.22499882e-30 1.20136376e-11
2.18776162e-01 1.15732311e-11 1.12117790e-11 3.61452147e-13 5.08464575e-27 1.55633704e-27 1.12117790e-11
2.51188643e-01 1.08769661e-11 1.04634409e-11 4.13525119e-13 1.22764943e-24 5.10190238e-25 1.04634409e-11
2.88403150e-01 1.01595001e-11 9.76505125e-12 3.94448879e-13 1.52552077e-22 6.57133593e-23 9.76505125e-12
3.31131121e-01 9.46968280e-12 9.11327608e-12 3.56406710e-13 9.36408480e-21 3.95885999e-21 9.11327608e-12
3.80189396e-01 8.83490700e-12 8.50500410e-12 3.29902583e-13 3.16418149e-19 1.32508426e-19 8.50500410e-12
4.36515832e-01 8.25249894e-12 7.93733165e-12 3.15161023e-13 6.26700309e-18 2.54938207e-18 7.93733165e-12
5.01187234e-01 7.69618212e-12 7.40754890e-12 2.88555043e-13 7.81821358e-17 3.08408164e-17 7.40754890e-12
5.75439937e-01 7.18012709e-12 6.91312687e-12 2.66332859e-13 6.67367144e-16 2.53151542e-16 6.91312687e-12
6.60693448e-01 6.70124833e-12 6.45170538e-12 2.45556593e-13 3.98635110e-15 1.44003889e-15 6.45170538e-12
7.58577575e-01 6.26146591e-12 6.02108180e-12 2.22241477e-13 1.81426327e-14 6.14511693e-15 6.02108180e-12
8.70963590e-01 5.88356019e-12 5.61920048e-12 1.99074766e-13 6.52849431e-14 2.02995309e-14 5.61920048e-12
1.00000000e+00 5.60524951e-12 5.24414302e-12 1.71088416e-13 1.90018081e-13 5.37182928e-14 5.24414302e-12
1.14815362e+00 5.50668565e-12 4.89411902e-12 1.43512245e-13 4.69054382e-13 1.16224635e-13 4.89411902e-12
1.31825674e+00 5.70284202e-12 4.56745763e-12 1.17001908e-13 1.01838248e-12 2.15290481e-13 4.56745763e-12
1.51356125e+00 6.28935011e-12 4.26259947e-12 9.53653982e-14 1.93138524e-12 3.49333954e-13 4.26259947e-12
1.73780083e+00 7.29585668e-12 3.97808929e-12 7.67770885e-14 3.24099030e-12 4.95273607e-13 3.97808929e-12
1.99526231e+00 8.56916435e-12 3.71256894e-12 6.03582096e-14 4.79623720e-12 6.07931200e-13 3.71256894e-12
2.29086765e+00 9.94406593e-12 3.46477093e-12 4.69832399e-14 6.43231176e-12 6.59022877e-13 3.46477093e-12
2.63026799e+00 1.12207240e-11 3.23351237e-12 3.53010882e-14 7.95191056e-12 6.44105946e-13 3.23351237e-12
3.01995172e+00 1.22447603e-11 3.01768933e-12 2.53901920e-14 9.20168074e-12 5.69751836e-13 3.01768933e-12
3.46736850e+00 1.28676503e-11 2.81627154e-12 1.75488121e-14 1.00338300e-11 4.59823642e-13 2.81627154e-12
3.98107171e+00 1.31449523e-11 2.62829753e-12 1.16375715e-14 1.05050172e-11 3.36052355e-13 2.62829753e-12
4.57088190e+00 1.30342091e-11 2.45286997e-12 7.45695805e-15 1.05738822e-11 2.23243372e-13 2.45286997e-12
5.24807460e+00 1.23222436e-11 2.02814751e-12 4.07507833e-15 1.02900210e-11 1.38128120e-13 2.02814751e-12
6.02559586e+00 1.11121219e-11 1.33998377e-12 1.70587752e-15 9.77043227e-12 7.96420712e-14 1.33998377e-12
6.70000000e+00 1.01798632e-11 9.74709347e-13 8.44123398e-16 9.20430969e-12 4.94641930e-14 9.74709347e-13
6.92422916e+00 9.90872491e-12 8.83049889e-13 6.74893599e-16 9.02500013e-12 4.20737571e-14 8.83049889e-13
7.15596261e+00 9.67904945e-12 8.00009879e-13 5.34566301e-16 8.87850501e-12 3.60533909e-14 8.00009879e-13
7.39545150e+00 9.59686270e-12 7.24778763e-13 4.11428549e-16 8.87167251e-12 3.04423266e-14 7.24778763e-13
7.64295536e+00 9.95675200e-12 6.56622211e-13 2.95576459e-16 9.29983421e-12 2.61601230e-14 6.56622211e-13
7.89874245e+00 1.08625255e-11 5.94874946e-13 1.94160487e-16 1.02674564e-11 2.22567064e-14 5.94874946e-13
8.16308998e+00 1.20452747e-11 5.38934254e-13 1.19182222e-16 1.15062213e-11 1.84650313e-14 5.38934254e-13
8.43628443e+00 1.34240998e-11 4.88254098e-13 6.78603675e-17 1.29357779e-11 1.44413694e-14 4.88254098e-13
8.71862190e+00 1.41959618e-11 4.42339790e-13 4.11672512e-17 1.37535808e-11 1.11027890e-14 4.42339790e-13
9.01040836e+00 1.48364208e-11 4.00743158e-13 2.15587352e-17 1.44356561e-11 7.38130342e-15 4.00743158e-13
9.31196005e+00 1.52302812e-11 3.63058180e-13 0.00000000e+00 1.48672230e-11 0.00000000e+00 3.63058180e-13
9.62360379e+00 1.51290237e-11 3.28917012e-13 0.00000000e+00 1.48001067e-11 0.00000000e+00 3.28917012e-13
9.94567731e+00 1.44449344e-11 2.97986401e-13 0.00000000e+00 1.41469480e-11 0.00000000e+00 2.97986401e-13
1.02785297e+01 1.37391015e-11 2.69964435e-13 0.00000000e+00 1.34691370e-11 0.00000000e+00 2.69964435e-13
1.06225216e+01 1.29975894e-11 2.44577592e-13 0.00000000e+00 1.27530118e-11 0.00000000e+00 2.44577592e-13
1.09780260e+01 1.20595837e-11 2.21578069e-13 0.00000000e+00 1.18380056e-11 0.00000000e+00 2.21578069e-13
1.13454280e+01 1.12476966e-11 2.00741370e-13 0.00000000e+00 1.10469553e-11 0.00000000e+00 2.00741370e-13
1.17251259e+01 1.04501304e-11 1.81864106e-13 0.00000000e+00 1.02682663e-11 0.00000000e+00 1.81864106e-13
1.21175312e+01 9.66638360e-12 1.64762018e-13 0.00000000e+00 9.50162159e-12 0.00000000e+00 1.64762018e-13
1.25230691e+01 8.87622344e-12 1.49268171e-13 0.00000000e+00 8.72695527e-12 0.00000000e+00 1.49268171e-13
1.29421791e+01 8.15528618e-12 1.35231331e-13 0.00000000e+00 8.02005485e-12 0.00000000e+00 1.35231331e-13
1.33753155e+01 7.46365332e-12 1.22514483e-13 0.00000000e+00 7.34113884e-12 0.00000000e+00 1.22514483e-13
1.38229477e+01 6.98541030e-12 1.10993499e-13 0.00000000e+00 6.87441680e-12 0.00000000e+00 1.10993499e-13
1.42855609e+01 6.66365419e-12 1.00555922e-13 0.00000000e+00 6.56309826e-12 0.00000000e+00 1.00555922e-13
1.47636563e+01 6.64780553e-12 9.10998706e-14 0.00000000e+00 6.55670566e-12 0.00000000e+00 9.10998706e-14
1.52577522e+01 6.70439543e-12 8.25330452e-14 0.00000000e+00 6.62186239e-12 0.00000000e+00 8.25330452e-14
1.57683840e+01 6.78714390e-12 7.47718247e-14 0.00000000e+00 6.71237208e-12 0.00000000e+00 7.47718247e-14
1.62961051e+01 6.87589743e-12 6.77404517e-14 0.00000000e+00 6.80815698e-12 0.00000000e+00 6.77404517e-14
1.68414875e+01 6.93660774e-12 6.13702932e-14 0.00000000e+00 6.87523745e-12 0.00000000e+00 6.13702932e-14
1.74051222e+01 6.89839442e-12 5.55991699e-14 0.00000000e+00 6.84279525e-12 0.00000000e+00 5.55991699e-14
1.79876201e+01 6.79847489e-12 5.03707500e-14 0.00000000e+00 6.74810414e-12 0.00000000e+00 5.03707500e-14
1.85896125e+01 6.58435929e-12 4.56339988e-14 0.00000000e+00 6.53872529e-12 0.00000000e+00 4.56339988e-14
1.92117518e+01 6.28742153e-12 4.13426810e-14 0.00000000e+00 6.24607885e-12 0.00000000e+00 4.13426810e-14
1.98547123e+01 5.93242820e-12 3.74549090e-14 0.00000000e+00 5.89497329e-12 0.00000000e+00 3.74549090e-14
2.05191907e+01 5.56703252e-12 3.39327342e-14 0.00000000e+00 5.53309978e-12 0.00000000e+00 3.39327342e-14
2.12059073e+01 5.21016177e-12 3.07417768e-14 0.00000000e+00 5.17942000e-12 0.00000000e+00 3.07417768e-14
2.19156062e+01 4.87409692e-12 2.78508898e-14 0.00000000e+00 4.84624603e-12 0.00000000e+00 2.78508898e-14
2.26490567e+01 4.55595710e-12 2.52318552e-14 0.00000000e+00 4.53072525e-12 0.00000000e+00 2.52318552e-14
2.34070535e+01 4.25494984e-12 2.28591087e-14 0.00000000e+00 4.23209073e-12 0.00000000e+00 2.28591087e-14
2.41904183e+01 3.96770397e-12 2.07094900e-14 0.00000000e+00 3.94699448e-12 0.00000000e+00 2.07094900e-14
2.50000000e+01 3.70072905e-12 1.87620165e-14 0.00000000e+00 3.68196704e-12 0.00000000e+00 1.87620165e-14
2.75422870e+01 2.97456812e-12 1.40313526e-14 0.00000000e+00 2.96053677e-12 0.00000000e+00 1.40313526e-14
3.16227766e+01 2.12157281e-12 9.27042274e-15 0.00000000e+00 2.11230239e-12 0.00000000e+00 9.27042274e-15
3.63078055e+01 1.43675017e-12 6.12490756e-15 0.00000000e+00 1.43062526e-12 0.00000000e+00 6.12490756e-15
4.16869383e+01 9.15943389e-13 4.04668630e-15 0.00000000e+00 9.11896703e-13 0.00000000e+00 4.04668630e-15
4.78630092e+01 5.50875077e-13 2.67361912e-15 0.00000000e+00 5.48201458e-13 0.00000000e+00 2.67361912e-15
5.49540874e+01 3.16208052e-13 1.76644264e-15 0.00000000e+00 3.14441610e-13 0.00000000e+00 1.76644264e-15
6.30957344e+01 1.75548349e-13 1.16707708e-15 0.00000000e+00 1.74381272e-13 0.00000000e+00 1.16707708e-15
7.24435960e+01 9.51168127e-14 7.71080178e-16 0.00000000e+00 9.43457325e-14 0.00000000e+00 7.71080178e-16
8.31763771e+01 5.07460016e-14 5.09447621e-16 0.00000000e+00 5.02365540e-14 0.00000000e+00 5.09447621e-16
9.54992586e+01 2.68224780e-14 3.36588705e-16 0.00000000e+00 2.64858893e-14 0.00000000e+00 3.36588705e-16
1.09647820e+02 1.41049022e-14 2.22381952e-16 0.00000000e+00 1.38825202e-14 0.00000000e+00 2.22381952e-16
1.25892541e+02 7.48419488e-15 1.46926299e-16 0.00000000e+00 7.33726858e-15 0.00000000e+00 1.46926299e-16
1.44543977e+02 3.97951052e-15 9.70732430e-17 0.00000000e+00 3.88243728e-15 0.00000000e+00 9.70732430e-17
1.65958691e+02 2.02781227e-15 6.41356556e-17 0.00000000e+00 1.96367662e-15 0.00000000e+00 6.41356556e-17
1.90546072e+02 1.04167246e-15 4.23740075e-17 0.00000000e+00 9.99298454e-16 0.00000000e+00 4.23740075e-17
2.18776162e+02 5.37855844e-16 2.79962291e-17 0.00000000e+00 5.09859615e-16 0.00000000e+00 2.79962291e-17
2.51188643e+02 2.78666343e-16 1.84969251e-17 0.00000000e+00 2.60169417e-16 0.00000000e+00 1.84969251e-17
2.88403150e+02 1.44734508e-16 1.22207972e-17 0.00000000e+00 1.32513711e-16 0.00000000e+00 1.22207972e-17
3.31131121e+02 7.55475056e-17 8.07420067e-18 0.00000000e+00 6.74733050e-17 0.00000000e+00 8.07420067e-18
3.80189396e+02 3.96279768e-17 5.33457148e-18 0.00000000e+00 3.42934054e-17 0.00000000e+00 5.33457148e-18
4.36515832e+02 2.09407531e-17 3.52451642e-18 0.00000000e+00 1.74162367e-17 0.00000000e+00 3.52451642e-18
5.01187234e+02 1.11622740e-17 2.32862491e-18 0.00000000e+00 8.83364913e-18 0.00000000e+00 2.32862491e-18
5.75439937e+02 6.01448135e-18 1.53850722e-18 0.00000000e+00 4.47597413e-18 0.00000000e+00 1.53850722e-18
6.60693448e+02 3.28239376e-18 1.01648164e-18 0.00000000e+00 2.26591212e-18 0.00000000e+00 1.01648164e-18
7.58577575e+02 1.81775888e-18 6.71582760e-19 0.00000000e+00 1.14617612e-18 0.00000000e+00 6.71582760e-19
8.70963590e+02 1.02292785e-18 4.43710329e-19 0.00000000e+00 5.79217523e-19 0.00000000e+00 4.43710329e-19
1.00000000e+03 2.92421846e-19 0.00000000e+00 0.00000000e+00 2.92421846e-19 0.00000000e+00 0.00000000e+00
