# column 1: lambda (micron)
# column 2: total flux; lambda*F_lambda (W/m2)
# column 3: direct stellar flux; lambda*F_lambda (W/m2)
# column 4: scattered stellar flux; lambda*F_lambda (W/m2)
# column 5: total dust emission flux; lambda*F_lambda (W/m2)
# column 6: dust emission scattered flux; lambda*F_lambda (W/m2)
# column 7: transparent flux; lambda*F_lambda (W/m2)
1.00000000e-03 1.04634792e-12 1.04634360e-12 4.31524435e-18 0.00000000e+00 0.00000000e+00 1.04634360e-12
1.14815362e-03 1.23502757e-12 1.23502095e-12 6.62167179e-18 0.00000000e+00 0.00000000e+00 1.23502095e-12
1.31825674e-03 1.45773045e-12 1.45772071e-12 9.74322645e-18 0.00000000e+00 0.00000000e+00 1.45772071e-12
1.51356125e-03 1.72059214e-12 1.72057784e-12 1.43031258e-17 0.00000000e+00 0.00000000e+00 1.72057784e-12
1.73780083e-03 2.03085953e-12 2.03083353e-12 2.60031499e-17 0.00000000e+00 0.00000000e+00 2.03083353e-12
1.99526231e-03 2.39850925e-12 2.39703472e-12 1.47453662e-15 0.00000000e+00 0.00000000e+00 2.39703472e-12
2.29086765e-03 2.82933645e-12 2.82926954e-12 6.69091980e-17 0.00000000e+00 0.00000000e+00 2.82926954e-12
2.63026799e-03 3.33957950e-12 3.33944522e-12 1.34274379e-16 0.00000000e+00 0.00000000e+00 3.33944522e-12
3.01995172e-03 3.94183257e-12 3.94161611e-12 2.16460661e-16 0.00000000e+00 0.00000000e+00 3.94161611e-12
3.46736850e-03 4.65271642e-12 4.65237083e-12 3.45593426e-16 0.00000000e+00 0.00000000e+00 4.65237083e-12
3.98107171e-03 5.49183979e-12 5.49128930e-12 5.50495976e-16 0.00000000e+00 0.00000000e+00 5.49128930e-12
4.57088190e-03 6.48410900e-12 6.48148207e-12 2.62693020e-15 0.00000000e+00 0.00000000e+00 6.48148207e-12
5.24807460e-03 7.65257521e-12 7.65022704e-12 2.34817457e-15 0.00000000e+00 0.00000000e+00 7.65022704e-12
6.02559586e-03 9.03424523e-12 9.02972084e-12 4.52438529e-15 0.00000000e+00 0.00000000e+00 9.02972084e-12
6.91830971e-03 1.06641305e-11 1.06579658e-11 6.16463913e-15 0.00000000e+00 0.00000000e+00 1.06579658e-11
7.94328235e-03 1.25905747e-11 1.25798170e-11 1.07576696e-14 1.47095879e-304 2.04683671e-307 1.25798170e-11
9.12010839e-03 1.48661773e-11 1.48482176e-11 1.79597050e-14 6.01117684e-266 1.18580569e-268 1.48482176e-11
1.04712855e-02 1.66080213e-11 1.65834298e-11 2.45915632e-14 2.39093618e-232 7.30314885e-235 1.65834298e-11
1.20226443e-02 1.66223469e-11 1.65834298e-11 3.89170815e-14 3.55007358e-203 1.35839452e-205 1.65834298e-11
1.38038426e-02 1.66362670e-11 1.65834298e-11 5.28372461e-14 9.23677905e-178 4.72395281e-180 1.65834298e-11
1.58489319e-02 1.66744249e-11 1.65834298e-11 9.09951089e-14 1.20339309e-155 1.08014062e-157 1.65834298e-11
1.81970086e-02 1.66856780e-11 1.65834298e-11 1.02248253e-13 2.07444729e-136 2.29636811e-138 1.65834298e-11
2.08929613e-02 1.67395275e-11 1.65834298e-11 1.56097752e-13 1.05541319e-119 1.77359597e-121 1.65834298e-11
2.39883292e-02 1.67900279e-11 1.65834298e-11 2.06598134e-13 3.61535968e-105 7.69041955e-107 1.65834298e-11
2.75422870e-02 1.68431627e-11 1.65834298e-11 2.59732924e-13 1.58773087e-92 4.36008022e-94 1.65834298e-11
3.16227766e-02 1.68950305e-11 1.65834298e-11 3.11600742e-13 1.52242047e-81 5.04313918e-83 1.65834298e-11
3.63078055e-02 1.69406502e-11 1.65834298e-11 3.57220440e-13 5.20131944e-72 1.96024476e-73 1.65834298e-11
4.16869383e-02 1.70624881e-11 1.65834298e-11 4.79058334e-13 9.83029266e-64 5.02382566e-65 1.65834298e-11
4.78630092e-02 1.71753787e-11 1.65834298e-11 5.91948895e-13 1.47962694e-56 9.68271262e-58 1.65834298e-11
5.49540874e-02 1.72660759e-11 1.65834298e-11 6.82646094e-13 2.44725828e-50 1.86883211e-51 1.65834298e-11
6.30957344e-02 1.73231036e-11 1.65834298e-11 7.39673819e-13 7.88785598e-45 6.88060826e-46 1.65834298e-11
7.24435960e-02 1.72490496e-11 1.65834298e-11 6.65619834e-13 4.52749805e-40 3.79190612e-41 1.65834298e-11
8.31763771e-02 1.72354449e-11 1.65834298e-11 6.52015068e-13 4.59635569e-36 3.81314175e-37 1.65834298e-11
9.54992586e-02 1.72445715e-11 1.65834298e-11 6.61141697e-13 1.28472069e-32 1.08098538e-33 1.65834298e-11
1.09647820e-01 1.65161406e-11 1.58370587e-11 6.79081830e-13 1.08255523e-29 9.59825188e-31 1.58370587e-11
1.25892541e-01 1.54265917e-11 1.47800032e-11 6.46588525e-13 3.47810342e-27 3.01391305e-28 1.47800032e-11
1.44543977e-01 1.43822264e-11 1.37935015e-11 5.88724871e-13 4.69596014e-25 3.90817818e-26 1.37935015e-11
1.65958691e-01 1.34513802e-11 1.28728446e-11 5.78535593e-13 2.37134827e-23 2.13876936e-24 1.28728446e-11
1.90546072e-01 1.26227384e-11 1.20136376e-11 6.09100783e-13 5.00412436e-22 5.23914124e-23 1.20136376e-11
2.18776162e-01 1.17731978e-11 1.12117790e-11 5.61418868e-13 5.90682387e-21 6.30030618e-22 1.12117790e-11
2.51188643e-01 1.10630020e-11 1.04634409e-11 5.99561039e-13 7.16895586e-20 9.02245789e-21 1.04634409e-11
2.88403150e-01 1.03193611e-11 9.76505125e-12 5.54309237e-13 5.94464310e-19 7.40141624e-20 9.76505125e-12
3.31131121e-01 9.61375614e-12 9.11327608e-12 5.00476662e-13 3.39781743e-18 4.13193115e-19 9.11327608e-12
3.80189396e-01 8.96516302e-12 8.50500410e-12 4.60144592e-13 1.43286024e-17 1.75618941e-18 8.50500410e-12
4.36515832e-01 8.35219668e-12 7.93733165e-12 4.14816436e-13 4.85891845e-17 6.56673619e-18 7.93733165e-12
5.01187234e-01 7.78729488e-12 7.40754890e-12 3.79584858e-13 1.61126316e-16 2.87939114e-17 7.40754890e-12
5.75439937e-01 7.25768934e-12 6.91312687e-12 3.43931207e-13 6.31262125e-16 1.50613010e-16 6.91312687e-12
6.60693448e-01 6.76390501e-12 6.45170538e-12 3.09505823e-13 2.69380784e-15 7.25299294e-16 6.45170538e-12
7.58577575e-01 6.30834418e-12 6.02108180e-12 2.76459666e-13 1.08027213e-14 2.99305901e-15 6.02108180e-12
8.70963590e-01 5.89861804e-12 5.61920048e-12 2.42249820e-13 3.71677405e-14 9.99305560e-15 5.61920048e-12
1.00000000e+00 5.55284955e-12 5.24414302e-12 2.02226802e-13 1.06479734e-13 2.68411415e-14 5.24414302e-12
1.14815362e+00 5.33307569e-12 4.89411902e-12 1.72063488e-13 2.66893183e-13 6.13695577e-14 4.89411902e-12
1.31825674e+00 5.30154505e-12 4.56745763e-12 1.38278807e-13 5.95808618e-13 1.20963436e-13 4.56745763e-12
1.51356125e+00 5.55690868e-12 4.26259947e-12 1.11609681e-13 1.18269952e-12 2.09042648e-13 4.26259947e-12
1.73780083e+00 6.16899735e-12 3.97808929e-12 8.84253942e-14 2.10248267e-12 3.13813204e-13 3.97808929e-12
1.99526231e+00 7.15148718e-12 3.71256894e-12 6.90692739e-14 3.36984896e-12 4.07996059e-13 3.71256894e-12
2.29086765e+00 8.36935746e-12 3.46477093e-12 5.15005688e-14 4.85308596e-12 4.58394691e-13 3.46477093e-12
2.63026799e+00 9.69002527e-12 3.23351237e-12 3.67267967e-14 6.41978610e-12 4.54047734e-13 3.23351237e-12
3.01995172e+00 1.09338488e-11 3.01768933e-12 2.53417008e-14 7.89081782e-12 4.03969520e-13 3.01768933e-12
3.46736850e+00 1.19725894e-11 2.81627154e-12 1.67539167e-14 9.13956396e-12 3.25570864e-13 2.81627154e-12
3.98107171e+00 1.25898059e-11 2.62829753e-12 1.07474811e-14 9.95076088e-12 2.39789493e-13 2.62829753e-12
4.57088190e+00 1.28653778e-11 2.45286997e-12 6.61212988e-15 1.04058957e-11 1.63395803e-13 2.45286997e-12
5.24807460e+00 1.25180894e-11 2.02814751e-12 3.52433339e-15 1.04864176e-11 1.05460573e-13 2.02814751e-12
6.02559586e+00 1.16236327e-11 1.33998377e-12 1.43482361e-15 1.02822141e-11 6.30550746e-14 1.33998377e-12
6.70000000e+00 1.09589909e-11 9.74709347e-13 6.99247605e-16 9.98358232e-12 4.08978351e-14 9.74709347e-13
6.92422916e+00 1.07406596e-11 8.83049889e-13 5.52590944e-16 9.85705712e-12 3.52951361e-14 8.83049889e-13
7.15596261e+00 1.05752356e-11 8.00009879e-13 4.33706961e-16 9.77479206e-12 3.04977256e-14 8.00009879e-13
7.39545150e+00 1.05733264e-11 7.24778763e-13 3.29761750e-16 9.84821790e-12 2.59020859e-14 7.24778763e-13
7.64295536e+00 1.10184963e-11 6.56622211e-13 2.37530509e-16 1.03616366e-11 2.21653616e-14 6.56622211e-13
7.89874245e+00 1.21012108e-11 5.94874946e-13 1.54011921e-16 1.15061818e-11 1.87539292e-14 5.94874946e-13
8.16308998e+00 1.35989120e-11 5.38934254e-13 9.47160780e-17 1.30598830e-11 1.55632766e-14 5.38934254e-13
8.43628443e+00 1.54493591e-11 4.88254098e-13 5.24813516e-17 1.49610525e-11 1.21389836e-14 4.88254098e-13
8.71862190e+00 1.66588410e-11 4.42339790e-13 2.93729013e-17 1.62164718e-11 9.22918193e-15 4.42339790e-13
9.01040836e+00 1.77821235e-11 4.00743158e-13 1.25182292e-17 1.73813679e-11 5.75474112e-15 4.00743158e-13
9.31196005e+00 1.85258131e-11 3.63058180e-13 0.00000000e+00 1.81627549e-11 0.00000000e+00 3.63058180e-13
9.62360379e+00 1.83513112e-11 3.28917012e-13 0.00000000e+00 1.80223941e-11 0.00000000e+00 3.28917012e-13
9.94567731e+00 1.77672182e-11 2.97986401e-13 0.00000000e+00 1.74692318e-11 0.00000000e+00 2.97986401e-13
1.02785297e+01 1.69017552e-11 2.69964435e-13 0.00000000e+00 1.66317908e-11 0.00000000e+00 2.69964435e-13
1.06225216e+01 1.59133688e-11 2.44577592e-13 0.00000000e+00 1.56687912e-11 0.00000000e+00 2.44577592e-13
1.09780260e+01 1.49045573e-11 2.21578069e-13 0.00000000e+00 1.46829792e-11 0.00000000e+00 2.21578069e-13
1.13454280e+01 1.38869808e-11 2.00741370e-13 0.00000000e+00 1.36862394e-11 0.00000000e+00 2.00741370e-13
1.17251259e+01 1.29175525e-11 1.81864106e-13 0.00000000e+00 1.27356883e-11 0.00000000e+00 1.81864106e-13
1.21175312e+01 1.20146408e-11 1.64762018e-13 0.00000000e+00 1.18498788e-11 0.00000000e+00 1.64762018e-13
1.25230691e+01 1.11267169e-11 1.49268171e-13 0.00000000e+00 1.09774488e-11 0.00000000e+00 1.49268171e-13
1.29421791e+01 1.02825899e-11 1.35231331e-13 0.00000000e+00 1.01473585e-11 0.00000000e+00 1.35231331e-13
1.33753155e+01 9.50280440e-12 1.22514483e-13 0.00000000e+00 9.38028992e-12 0.00000000e+00 1.22514483e-13
1.38229477e+01 8.98757752e-12 1.10993499e-13 0.00000000e+00 8.87658402e-12 0.00000000e+00 1.10993499e-13
1.42855609e+01 8.64522008e-12 1.00555922e-13 0.00000000e+00 8.54466415e-12 0.00000000e+00 1.00555922e-13
1.47636563e+01 8.68034617e-12 9.10998706e-14 0.00000000e+00 8.58924630e-12 0.00000000e+00 9.10998706e-14
1.52577522e+01 8.77722738e-12 8.25330452e-14 0.00000000e+00 8.69469434e-12 0.00000000e+00 8.25330452e-14
1.57683840e+01 8.93545910e-12 7.47718247e-14 0.00000000e+00 8.86068727e-12 0.00000000e+00 7.47718247e-14
1.62961051e+01 9.07131574e-12 6.77404517e-14 0.00000000e+00 9.00357529e-12 0.00000000e+00 6.77404517e-14
1.68414875e+01 9.17821953e-12 6.13702932e-14 0.00000000e+00 9.11684924e-12 0.00000000e+00 6.13702932e-14
1.74051222e+01 9.16783929e-12 5.55991699e-14 0.00000000e+00 9.11224012e-12 0.00000000e+00 5.55991699e-14
1.79876201e+01 9.07033163e-12 5.03707500e-14 0.00000000e+00 9.01996088e-12 0.00000000e+00 5.03707500e-14
1.85896125e+01 8.83820918e-12 4.56339988e-14 0.00000000e+00 8.79257518e-12 0.00000000e+00 4.56339988e-14
1.92117518e+01 8.45054103e-12 4.13426810e-14 0.00000000e+00 8.40919835e-12 0.00000000e+00 4.13426810e-14
1.98547123e+01 8.01821992e-12 3.74549090e-14 0.00000000e+00 7.98076501e-12 0.00000000e+00 3.74549090e-14
2.05191907e+01 7.57061127e-12 3.39327342e-14 0.00000000e+00 7.53667854e-12 0.00000000e+00 3.39327342e-14
2.12059073e+01 7.11018547e-12 3.07417768e-14 0.00000000e+00 7.07944369e-12 0.00000000e+00 3.07417768e-14
2.19156062e+01 6.68609982e-12 2.78508898e-14 0.00000000e+00 6.65824893e-12 0.00000000e+00 2.78508898e-14
2.26490567e+01 6.27764680e-12 2.52318552e-14 0.00000000e+00 6.25241494e-12 0.00000000e+00 2.52318552e-14
2.34070535e+01 5.88633340e-12 2.28591087e-14 0.00000000e+00 5.86347429e-12 0.00000000e+00 2.28591087e-14
2.41904183e+01 5.51647625e-12 2.07094900e-14 0.00000000e+00 5.49576676e-12 0.00000000e+00 2.07094900e-14
2.50000000e+01 5.17087452e-12 1.87620165e-14 0.00000000e+00 5.15211250e-12 0.00000000e+00 1.87620165e-14
2.75422870e+01 4.19836447e-12 1.40313526e-14 0.00000000e+00 4.18433312e-12 0.00000000e+00 1.40313526e-14
3.16227766e+01 3.03302013e-12 9.27042274e-15 0.00000000e+00 3.02374971e-12 0.00000000e+00 9.27042274e-15
3.63078055e+01 2.07911851e-12 6.12490756e-15 0.00000000e+00 2.07299360e-12 0.00000000e+00 6.12490756e-15
4.16869383e+01 1.34150187e-12 4.04668630e-15 0.00000000e+00 1.33745519e-12 0.00000000e+00 4.04668630e-15
4.78630092e+01 8.14792067e-13 2.67361912e-15 0.00000000e+00 8.12118447e-13 0.00000000e+00 2.67361912e-15
5.49540874e+01 4.72216711e-13 1.76644264e-15 0.00000000e+00 4.70450268e-13 0.00000000e+00 1.76644264e-15
6.30957344e+01 2.64069879e-13 1.16707708e-15 0.00000000e+00 2.62902802e-13 0.00000000e+00 1.16707708e-15
7.24435960e+01 1.43860189e-13 7.71080178e-16 0.00000000e+00 1.43089109e-13 0.00000000e+00 7.71080178e-16
8.31763771e+01 7.70731290e-14 5.09447621e-16 0.00000000e+00 7.65636814e-14 0.00000000e+00 5.09447621e-16
9.54992586e+01 4.08647971e-14 3.36588705e-16 0.00000000e+00 4.05282084e-14 0.00000000e+00 3.36588705e-16
1.09647820e+02 2.15183460e-14 2.22381952e-16 0.00000000e+00 2.12959640e-14 0.00000000e+00 2.22381952e-16
1.25892541e+02 1.14238049e-14 1.46926299e-16 0.00000000e+00 1.12768786e-14 0.00000000e+00 1.46926299e-16
1.44543977e+02 6.07169158e-15 9.70732430e-17 0.00000000e+00 5.97461833e-15 0.00000000e+00 9.70732430e-17
1.65958691e+02 3.08926975e-15 6.41356556e-17 0.00000000e+00 3.02513410e-15 0.00000000e+00 6.41356556e-17
1.90546072e+02 1.58291092e-15 4.23740075e-17 0.00000000e+00 1.54053691e-15 0.00000000e+00 4.23740075e-17
2.18776162e+02 8.14441871e-16 2.79962291e-17 0.00000000e+00 7.86445642e-16 0.00000000e+00 2.79962291e-17
2.51188643e+02 4.19918212e-16 1.84969251e-17 0.00000000e+00 4.01421287e-16 0.00000000e+00 1.84969251e-17
2.88403150e+02 2.16729399e-16 1.22207972e-17 0.00000000e+00 2.04508601e-16 0.00000000e+00 1.22207972e-17
3.31131121e+02 1.12218431e-16 8.07420067e-18 0.00000000e+00 1.04144230e-16 0.00000000e+00 8.07420067e-18
3.80189396e+02 5.82695368e-17 5.33457148e-18 0.00000000e+00 5.29349653e-17 0.00000000e+00 5.33457148e-18
4.36515832e+02 3.04089915e-17 3.52451642e-18 0.00000000e+00 2.68844751e-17 0.00000000e+00 3.52451642e-18
5.01187234e+02 1.59647239e-17 2.32862491e-18 0.00000000e+00 1.36360990e-17 0.00000000e+00 2.32862491e-18
5.75439937e+02 8.44775823e-18 1.53850722e-18 0.00000000e+00 6.90925101e-18 0.00000000e+00 1.53850722e-18
6.60693448e+02 4.51411719e-18 1.01648164e-18 0.00000000e+00 3.49763555e-18 0.00000000e+00 1.01648164e-18
7.58577575e+02 2.44075094e-18 6.71582760e-19 0.00000000e+00 1.76916818e-18 0.00000000e+00 6.71582760e-19
8.70963590e+02 1.33772174e-18 4.43710329e-19 0.00000000e+00 8.94011413e-19 0.00000000e+00 4.43710329e-19
1.00000000e+03 4.51328932e-19 0.00000000e+00 0.00000000e+00 4.51328932e-19 0.00000000e+00 0.00000000e+00
