# column 1: lambda (micron)
# column 2: total flux; lambda*F_lambda (W/m2)
# column 3: direct stellar flux; lambda*F_lambda (W/m2)
# column 4: scattered stellar flux; lambda*F_lambda (W/m2)
# column 5: total dust emission flux; lambda*F_lambda (W/m2)
# column 6: dust emission scattered flux; lambda*F_lambda (W/m2)
# column 7: transparent flux; lambda*F_lambda (W/m2)
1.00000000e-03 5.25637813e-13 5.25636674e-13 1.13964181e-18 0.00000000e+00 0.00000000e+00 5.25636674e-13
1.14815362e-03 6.20421684e-13 6.20419813e-13 1.87089333e-18 0.00000000e+00 0.00000000e+00 6.20419813e-13
1.31825674e-03 7.32297235e-13 7.32294308e-13 2.92688705e-18 0.00000000e+00 0.00000000e+00 7.32294308e-13
1.51356125e-03 8.64346774e-13 8.64342083e-13 4.69130738e-18 0.00000000e+00 0.00000000e+00 8.64342083e-13
1.73780083e-03 1.02020888e-12 1.02020080e-12 8.08666461e-18 0.00000000e+00 0.00000000e+00 1.02020080e-12
1.99526231e-03 1.20418007e-12 1.20416405e-12 1.60215152e-17 0.00000000e+00 0.00000000e+00 1.20416405e-12
2.29086765e-03 1.42132486e-12 1.42129968e-12 2.51795399e-17 0.00000000e+00 0.00000000e+00 1.42129968e-12
2.63026799e-03 1.67771991e-12 1.67758934e-12 1.30564211e-16 0.00000000e+00 0.00000000e+00 1.67758934e-12
3.01995172e-03 1.98035591e-12 1.98009332e-12 2.62593572e-16 0.00000000e+00 0.00000000e+00 1.98009332e-12
3.46736850e-03 2.33739816e-12 2.33714500e-12 2.53158527e-16 0.00000000e+00 0.00000000e+00 2.33714500e-12
3.98107171e-03 2.75917527e-12 2.75858048e-12 5.94791567e-16 0.00000000e+00 0.00000000e+00 2.75858048e-12
4.57088190e-03 3.26043576e-12 3.25600946e-12 4.42629873e-15 0.00000000e+00 0.00000000e+00 3.25600946e-12
5.24807460e-03 3.85724041e-12 3.84313516e-12 1.41052553e-14 0.00000000e+00 0.00000000e+00 3.84313516e-12
6.02559586e-03 4.53911154e-12 4.53613173e-12 2.97980904e-15 0.00000000e+00 0.00000000e+00 4.53613173e-12
6.91830971e-03 5.36041395e-12 5.35408989e-12 6.32405982e-15 0.00000000e+00 0.00000000e+00 5.35408989e-12
7.94328235e-03 6.32950833e-12 6.31954278e-12 9.96554564e-15 0.00000000e+00 0.00000000e+00 6.31954278e-12
9.12010839e-03 7.46765086e-12 7.45908676e-12 8.56410682e-15 0.00000000e+00 0.00000000e+00 7.45908676e-12
1.04712855e-02 8.35414717e-12 8.33078048e-12 2.33666901e-14 0.00000000e+00 0.00000000e+00 8.33078048e-12
1.20226443e-02 8.35225784e-12 8.33078048e-12 2.14773660e-14 1.00104331e-310 4.63020382e-313 8.33078048e-12
1.38038426e-02 8.36038541e-12 8.33078048e-12 2.96049302e-14 1.89716110e-271 1.52037204e-273 8.33078048e-12
1.58489319e-02 8.37718211e-12 8.33078048e-12 4.64016365e-14 2.91485300e-237 2.67146366e-239 8.33078048e-12
1.81970086e-02 8.37994498e-12 8.33078048e-12 4.91645075e-14 1.64710735e-207 2.09200746e-209 8.33078048e-12
2.08929613e-02 8.39005952e-12 8.33078048e-12 5.92790444e-14 1.20791197e-181 2.39756996e-183 8.33078048e-12
2.39883292e-02 8.41416528e-12 8.33078048e-12 8.33848071e-14 3.92043342e-159 9.65989363e-161 8.33078048e-12
2.75422870e-02 8.41498903e-12 8.33078048e-12 8.42085543e-14 1.52354083e-139 4.60252710e-141 8.33078048e-12
3.16227766e-02 8.42676152e-12 8.33078048e-12 9.59810490e-14 1.64241042e-122 5.94406062e-124 8.33078048e-12
3.63078055e-02 8.43593883e-12 8.33078048e-12 1.05158352e-13 1.04499715e-107 4.27762038e-109 8.33078048e-12
4.16869383e-02 8.46694858e-12 8.33078048e-12 1.36168105e-13 7.67932187e-95 4.13469972e-96 8.33078048e-12
4.78630092e-02 8.47781270e-12 8.33078048e-12 1.47032222e-13 1.15246051e-83 8.08734389e-85 8.33078048e-12
5.49540874e-02 8.48458855e-12 8.33078048e-12 1.53808071e-13 5.78463268e-74 4.66031257e-75 8.33078048e-12
6.30957344e-02 8.48279132e-12 8.33078048e-12 1.52010847e-13 2.01933868e-65 1.84910778e-66 8.33078048e-12
7.24435960e-02 8.46578082e-12 8.33078048e-12 1.35000343e-13 5.15616548e-58 4.49811344e-59 8.33078048e-12
8.31763771e-02 8.45687342e-12 8.33078048e-12 1.26092939e-13 1.09776550e-51 9.51070493e-53 8.33078048e-12
9.54992586e-02 8.46456683e-12 8.33078048e-12 1.33786353e-13 3.49754176e-46 3.26024859e-47 8.33078048e-12
1.09647820e-01 8.09643495e-12 7.95583672e-12 1.40598233e-13 2.07469690e-41 2.12664634e-42 7.95583672e-12
1.25892541e-01 7.55806125e-12 7.42481883e-12 1.33242419e-13 3.20910194e-37 3.54798451e-38 7.42481883e-12
1.44543977e-01 7.05727269e-12 6.92924411e-12 1.28028583e-13 1.45195613e-33 1.66443966e-34 6.92924411e-12
1.65958691e-01 6.59800153e-12 6.46674687e-12 1.31254666e-13 1.74822540e-30 2.24429917e-31 6.46674687e-12
1.90546072e-01 6.17224593e-12 6.03511933e-12 1.37126605e-13 6.08139117e-28 9.34299507e-29 6.03511933e-12
2.18776162e-01 5.75182788e-12 5.63230107e-12 1.19526810e-13 8.54277824e-26 1.37822281e-26 5.63230107e-12
2.51188643e-01 5.39433729e-12 5.25636919e-12 1.37968098e-13 1.00641464e-23 1.99010912e-24 5.25636919e-12
2.88403150e-01 5.03643585e-12 4.90552916e-12 1.30906695e-13 6.26468356e-22 1.25646887e-22 4.90552916e-12
3.31131121e-01 4.69880919e-12 4.57810618e-12 1.20702988e-13 2.13964274e-20 4.34969729e-21 4.57810618e-12
3.80189396e-01 4.38407712e-12 4.27253728e-12 1.11539393e-13 4.42162660e-19 9.05104005e-20 4.27253728e-12
4.36515832e-01 4.09027901e-12 3.98736380e-12 1.02909296e-13 5.92173809e-18 1.21782179e-18 3.98736380e-12
5.01187234e-01 3.81738788e-12 3.72122441e-12 9.61097826e-14 5.36863241e-17 1.11348867e-17 3.72122441e-12
5.75439937e-01 3.56086821e-12 3.47284869e-12 8.76706906e-14 3.48835990e-16 7.17513797e-17 3.47284869e-12
6.60693448e-01 3.32141111e-12 3.24105097e-12 7.86709673e-14 1.68916619e-15 3.42270081e-16 3.24105097e-12
7.58577575e-01 3.10186943e-12 3.02472476e-12 7.06358376e-14 6.50883680e-15 1.30346107e-15 3.02472476e-12
8.70963590e-01 2.90575118e-12 2.82283739e-12 6.25939340e-14 2.03198561e-14 3.89476150e-15 2.82283739e-12
1.00000000e+00 2.74234648e-12 2.63442513e-12 5.45420091e-14 5.33793336e-14 9.60677029e-15 2.63442513e-12
1.14815362e+00 2.62661888e-12 2.45858859e-12 4.59708411e-14 1.22059456e-13 2.00789952e-14 2.45858859e-12
1.31825674e+00 2.58179240e-12 2.29448837e-12 3.82340603e-14 2.49069970e-13 3.65090389e-14 2.29448837e-12
1.51356125e+00 2.62435159e-12 2.14134114e-12 3.13891380e-14 4.51621306e-13 5.72730865e-14 2.14134114e-12
1.73780083e+00 2.74853627e-12 1.99841583e-12 2.43582938e-14 7.25762144e-13 7.77566925e-14 1.99841583e-12
1.99526231e+00 2.92153493e-12 1.86503017e-12 1.87473842e-14 1.03775738e-12 8.92552692e-14 1.86503017e-12
2.29086765e+00 3.08753236e-12 1.74054743e-12 1.36977474e-14 1.33328719e-12 8.86938857e-14 1.74054743e-12
2.63026799e+00 3.19808570e-12 1.62437337e-12 9.26990732e-15 1.56444242e-12 7.64209143e-14 1.62437337e-12
3.01995172e+00 3.21898535e-12 1.51595343e-12 6.01772373e-15 1.69701420e-12 5.86125093e-14 1.51595343e-12
3.46736850e+00 3.14859530e-12 1.41477006e-12 3.86002681e-15 1.72996521e-12 4.08270272e-14 1.41477006e-12
3.98107171e+00 2.98557633e-12 1.32034025e-12 2.36504496e-15 1.66287104e-12 2.59415230e-14 1.32034025e-12
4.57088190e+00 2.76238858e-12 1.23221321e-12 1.34224816e-15 1.52883312e-12 1.52283767e-14 1.23221321e-12
5.24807460e+00 2.38412627e-12 1.01885146e-12 7.06827648e-16 1.36456798e-12 8.52052116e-15 1.01885146e-12
6.02559586e+00 1.87541185e-12 6.73148485e-13 2.81490524e-16 1.20198188e-12 4.51870550e-15 6.73148485e-13
6.70000000e+00 1.56842086e-12 4.89650796e-13 1.33506862e-16 1.07863655e-12 2.63621384e-15 4.89650796e-13
6.92422916e+00 1.48372826e-12 4.43605145e-13 1.05635061e-16 1.04001748e-12 2.21171030e-15 4.43605145e-13
7.15596261e+00 1.41705769e-12 4.01889522e-13 8.41785863e-17 1.01508399e-12 1.85662845e-15 4.01889522e-13
7.39545150e+00 1.38261804e-12 3.64096743e-13 6.32630719e-17 1.01845804e-12 1.57168037e-15 3.64096743e-13
7.64295536e+00 1.43325596e-12 3.29857910e-13 4.72349298e-17 1.10335081e-12 1.37873248e-15 3.29857910e-13
7.89874245e+00 1.60722668e-12 2.98838820e-13 3.36702249e-17 1.30835419e-12 1.25445837e-15 2.98838820e-13
8.16308998e+00 1.87554707e-12 2.70736695e-13 2.26042578e-17 1.60478777e-12 1.14080715e-15 2.70736695e-13
8.43628443e+00 2.25201718e-12 2.45277229e-13 1.39474863e-17 2.00672600e-12 9.77932023e-16 2.45277229e-13
8.71862190e+00 2.49549612e-12 2.22211915e-13 8.92768059e-18 2.27327528e-12 7.79191205e-16 2.22211915e-13
9.01040836e+00 2.74274360e-12 2.01315610e-13 4.13529039e-18 2.54142385e-12 4.95742473e-16 2.01315610e-13
9.31196005e+00 2.92539947e-12 1.82384346e-13 0.00000000e+00 2.74301512e-12 0.00000000e+00 1.82384346e-13
9.62360379e+00 2.86665719e-12 1.65233336e-13 0.00000000e+00 2.70142385e-12 0.00000000e+00 1.65233336e-13
9.94567731e+00 2.66143220e-12 1.49695167e-13 0.00000000e+00 2.51173703e-12 0.00000000e+00 1.49695167e-13
1.02785297e+01 2.40714546e-12 1.35618173e-13 0.00000000e+00 2.27152729e-12 0.00000000e+00 1.35618173e-13
1.06225216e+01 2.16263638e-12 1.22864947e-13 0.00000000e+00 2.03977144e-12 0.00000000e+00 1.22864947e-13
1.09780260e+01 1.90024233e-12 1.11311006e-13 0.00000000e+00 1.78893133e-12 0.00000000e+00 1.11311006e-13
1.13454280e+01 1.67173522e-12 1.00843571e-13 0.00000000e+00 1.57089164e-12 0.00000000e+00 1.00843571e-13
1.17251259e+01 1.47875274e-12 9.13604705e-14 0.00000000e+00 1.38739227e-12 0.00000000e+00 9.13604705e-14
1.21175312e+01 1.30265021e-12 8.27691389e-14 0.00000000e+00 1.21988107e-12 0.00000000e+00 8.27691389e-14
1.25230691e+01 1.14768500e-12 7.49857166e-14 0.00000000e+00 1.07269928e-12 0.00000000e+00 7.49857166e-14
1.29421791e+01 1.02049249e-12 6.79342298e-14 0.00000000e+00 9.52558264e-13 0.00000000e+00 6.79342298e-14
1.33753155e+01 9.09345726e-13 6.15458488e-14 0.00000000e+00 8.47799877e-13 0.00000000e+00 6.15458488e-14
1.38229477e+01 8.36923413e-13 5.57582167e-14 0.00000000e+00 7.81165196e-13 0.00000000e+00 5.57582167e-14
1.42855609e+01 7.93929785e-13 5.05148403e-14 0.00000000e+00 7.43414945e-13 0.00000000e+00 5.05148403e-14
1.47636563e+01 7.97996763e-13 4.57645392e-14 0.00000000e+00 7.52232224e-13 0.00000000e+00 4.57645392e-14
1.52577522e+01 8.13507758e-13 4.14609457e-14 0.00000000e+00 7.72046812e-13 0.00000000e+00 4.14609457e-14
1.57683840e+01 8.37966292e-13 3.75620523e-14 0.00000000e+00 8.00404240e-13 0.00000000e+00 3.75620523e-14
1.62961051e+01 8.63321954e-13 3.40298020e-14 0.00000000e+00 8.29292152e-13 0.00000000e+00 3.40298020e-14
1.68414875e+01 8.89681469e-13 3.08297166e-14 0.00000000e+00 8.58851752e-13 0.00000000e+00 3.08297166e-14
1.74051222e+01 9.01379511e-13 2.79305599e-14 0.00000000e+00 8.73448951e-13 0.00000000e+00 2.79305599e-14
1.79876201e+01 9.03517101e-13 2.53040334e-14 0.00000000e+00 8.78213067e-13 0.00000000e+00 2.53040334e-14
1.85896125e+01 8.88310701e-13 2.29244994e-14 0.00000000e+00 8.65386202e-13 0.00000000e+00 2.29244994e-14
1.92117518e+01 8.56749052e-13 2.07687314e-14 0.00000000e+00 8.35980320e-13 0.00000000e+00 2.07687314e-14
1.98547123e+01 8.16482610e-13 1.88156870e-14 0.00000000e+00 7.97666923e-13 0.00000000e+00 1.88156870e-14
2.05191907e+01 7.72911306e-13 1.70463024e-14 0.00000000e+00 7.55865003e-13 0.00000000e+00 1.70463024e-14
2.12059073e+01 7.31743302e-13 1.54433068e-14 0.00000000e+00 7.16299995e-13 0.00000000e+00 1.54433068e-14
2.19156062e+01 6.96427521e-13 1.39910532e-14 0.00000000e+00 6.82436468e-13 0.00000000e+00 1.39910532e-14
2.26490567e+01 6.62955291e-13 1.26753663e-14 0.00000000e+00 6.50279925e-13 0.00000000e+00 1.26753663e-14
2.34070535e+01 6.32424475e-13 1.14834036e-14 0.00000000e+00 6.20941071e-13 0.00000000e+00 1.14834036e-14
2.41904183e+01 6.03228705e-13 1.04035303e-14 0.00000000e+00 5.92825175e-13 0.00000000e+00 1.04035303e-14
2.50000000e+01 5.76259854e-13 9.42520591e-15 0.00000000e+00 5.66834648e-13 0.00000000e+00 9.42520591e-15
2.75422870e+01 5.02209897e-13 7.04872996e-15 0.00000000e+00 4.95161167e-13 0.00000000e+00 7.04872996e-15
3.16227766e+01 4.05268540e-13 4.65704970e-15 0.00000000e+00 4.00611490e-13 0.00000000e+00 4.65704970e-15
3.63078055e+01 3.11850245e-13 3.07688223e-15 0.00000000e+00 3.08773362e-13 0.00000000e+00 3.07688223e-15
4.16869383e+01 2.24809247e-13 2.03287593e-15 0.00000000e+00 2.22776372e-13 0.00000000e+00 2.03287593e-15
4.78630092e+01 1.51785203e-13 1.34310781e-15 0.00000000e+00 1.50442096e-13 0.00000000e+00 1.34310781e-15
5.49540874e+01 9.71325206e-14 8.87382527e-16 0.00000000e+00 9.62451381e-14 0.00000000e+00 8.87382527e-16
6.30957344e+01 5.96141633e-14 5.86287821e-16 0.00000000e+00 5.90278755e-14 0.00000000e+00 5.86287821e-16
7.24435960e+01 3.53929511e-14 3.87356522e-16 0.00000000e+00 3.50055946e-14 0.00000000e+00 3.87356522e-16
8.31763771e+01 2.05015883e-14 2.55923916e-16 0.00000000e+00 2.02456644e-14 0.00000000e+00 2.55923916e-16
9.54992586e+01 1.16629686e-14 1.69087255e-16 0.00000000e+00 1.14938814e-14 0.00000000e+00 1.69087255e-16
1.09647820e+02 6.54314797e-15 1.11714841e-16 0.00000000e+00 6.43143313e-15 0.00000000e+00 1.11714841e-16
1.25892541e+02 3.67235659e-15 7.38092637e-17 0.00000000e+00 3.59854733e-15 0.00000000e+00 7.38092637e-17
1.44543977e+02 2.04955582e-15 4.87652969e-17 0.00000000e+00 2.00079052e-15 0.00000000e+00 4.87652969e-17
1.65958691e+02 1.08947681e-15 3.22189122e-17 0.00000000e+00 1.05725790e-15 0.00000000e+00 3.22189122e-17
1.90546072e+02 5.80113860e-16 2.12868242e-17 0.00000000e+00 5.58827036e-16 0.00000000e+00 2.12868242e-17
2.18776162e+02 3.08724251e-16 1.40640653e-17 0.00000000e+00 2.94660186e-16 0.00000000e+00 1.40640653e-17
2.51188643e+02 1.63976298e-16 9.29203577e-18 0.00000000e+00 1.54684262e-16 0.00000000e+00 9.29203577e-18
2.88403150e+02 8.68869107e-17 6.13918715e-18 0.00000000e+00 8.07477235e-17 0.00000000e+00 6.13918715e-18
3.31131121e+02 4.60541997e-17 4.05612073e-18 0.00000000e+00 4.19980790e-17 0.00000000e+00 4.05612073e-18
3.80189396e+02 2.44215371e-17 2.67985239e-18 0.00000000e+00 2.17416847e-17 0.00000000e+00 2.67985239e-18
4.36515832e+02 1.29893759e-17 1.77056092e-18 0.00000000e+00 1.12188150e-17 0.00000000e+00 1.77056092e-18
5.01187234e+02 6.93889659e-18 1.16979800e-18 0.00000000e+00 5.76909859e-18 0.00000000e+00 1.16979800e-18
5.75439937e+02 3.73108210e-18 7.72877871e-19 0.00000000e+00 2.95820423e-18 0.00000000e+00 7.72877871e-19
6.60693448e+02 2.02372621e-18 5.10635346e-19 0.00000000e+00 1.51309087e-18 0.00000000e+00 5.10635346e-19
7.58577575e+02 1.10961518e-18 3.37373427e-19 0.00000000e+00 7.72241750e-19 0.00000000e+00 3.37373427e-19
8.70963590e+02 6.16184838e-19 2.22900413e-19 0.00000000e+00 3.93284425e-19 0.00000000e+00 2.22900413e-19
1.00000000e+03 1.99889885e-19 0.00000000e+00 0.00000000e+00 1.99889885e-19 0.00000000e+00 0.00000000e+00
