# column 1: lambda (micron)
# column 2: total flux; lambda*F_lambda (W/m2)
# column 3: direct stellar flux; lambda*F_lambda (W/m2)
# column 4: scattered stellar flux; lambda*F_lambda (W/m2)
# column 5: total dust emission flux; lambda*F_lambda (W/m2)
# column 6: dust emission scattered flux; lambda*F_lambda (W/m2)
# column 7: transparent flux; lambda*F_lambda (W/m2)
1.00000000e-03 9.68080049e-13 9.68073281e-13 6.76790710e-18 0.00000000e+00 0.00000000e+00 9.68073281e-13
1.14815362e-03 1.14264741e-12 1.14263687e-12 1.05431028e-17 0.00000000e+00 0.00000000e+00 1.14263687e-12
1.31825674e-03 1.34869314e-12 1.34867788e-12 1.52614657e-17 0.00000000e+00 0.00000000e+00 1.34867788e-12
1.51356125e-03 1.59189458e-12 1.59187233e-12 2.22522877e-17 0.00000000e+00 0.00000000e+00 1.59187233e-12
1.73780083e-03 1.87895982e-12 1.87891976e-12 4.00583695e-17 0.00000000e+00 0.00000000e+00 1.87891976e-12
1.99526231e-03 2.21779658e-12 2.21772777e-12 6.88164567e-17 0.00000000e+00 0.00000000e+00 2.21772777e-12
2.29086765e-03 2.61773222e-12 2.61762985e-12 1.02378930e-16 0.00000000e+00 0.00000000e+00 2.61762985e-12
2.63026799e-03 3.08985696e-12 3.08964252e-12 2.14438126e-16 0.00000000e+00 0.00000000e+00 3.08964252e-12
3.01995172e-03 3.64711343e-12 3.64676883e-12 3.44606267e-16 0.00000000e+00 0.00000000e+00 3.64676883e-12
3.46736850e-03 4.30490726e-12 4.30435650e-12 5.50759093e-16 0.00000000e+00 0.00000000e+00 4.30435650e-12
3.98107171e-03 5.08140983e-12 5.08052080e-12 8.89025402e-16 0.00000000e+00 0.00000000e+00 5.08052080e-12
4.57088190e-03 5.99869401e-12 5.99664354e-12 2.05047016e-15 0.00000000e+00 0.00000000e+00 5.99664354e-12
5.24807460e-03 7.08157609e-12 7.07796211e-12 3.61397317e-15 0.00000000e+00 0.00000000e+00 7.07796211e-12
6.02559586e-03 8.36261103e-12 8.35426474e-12 8.34629225e-15 0.00000000e+00 0.00000000e+00 8.35426474e-12
6.91830971e-03 9.87271374e-12 9.86071107e-12 1.20026675e-14 0.00000000e+00 0.00000000e+00 9.86071107e-12
7.94328235e-03 1.16579807e-11 1.16388008e-11 1.91799093e-14 1.47176534e-304 2.84913743e-307 1.16388008e-11
9.12010839e-03 1.37697303e-11 1.37375167e-11 3.22135647e-14 6.01525355e-266 1.59156351e-268 1.37375167e-11
1.04712855e-02 1.53831767e-11 1.53429287e-11 4.02479868e-14 2.39301697e-232 9.37571030e-235 1.53429287e-11
1.20226443e-02 1.54127951e-11 1.53429287e-11 6.98664759e-14 3.55464537e-203 1.81425243e-205 1.53429287e-11
1.38038426e-02 1.54397395e-11 1.53429287e-11 9.68108436e-14 9.26889765e-178 7.93215270e-180 1.53429287e-11
1.58489319e-02 1.54629887e-11 1.53429287e-11 1.20059987e-13 1.20533747e-155 1.27409890e-157 1.53429287e-11
1.81970086e-02 1.55068842e-11 1.53429287e-11 1.63955549e-13 2.08160288e-136 3.01102759e-138 1.53429287e-11
2.08929613e-02 1.55941665e-11 1.53429287e-11 2.51237823e-13 1.05864312e-119 2.09610327e-121 1.53429287e-11
2.39883292e-02 1.56526912e-11 1.53429287e-11 3.09762512e-13 3.63500866e-105 9.65360204e-107 1.53429287e-11
2.75422870e-02 1.57157636e-11 1.53429287e-11 3.72834975e-13 1.59731540e-92 5.31768014e-94 1.53429287e-11
3.16227766e-02 1.57688943e-11 1.53429287e-11 4.25965650e-13 1.52951164e-81 5.75145077e-83 1.53429287e-11
3.63078055e-02 1.57983565e-11 1.53429287e-11 4.55427851e-13 5.22294578e-72 2.17619647e-73 1.53429287e-11
4.16869383e-02 1.59098303e-11 1.53429287e-11 5.66901663e-13 9.86022099e-64 5.32253140e-65 1.53429287e-11
4.78630092e-02 1.59720426e-11 1.53429287e-11 6.29113936e-13 1.47783786e-56 9.50284038e-58 1.53429287e-11
5.49540874e-02 1.60028316e-11 1.53429287e-11 6.59902907e-13 2.43266276e-50 1.72270430e-51 1.53429287e-11
6.30957344e-02 1.59954285e-11 1.53429287e-11 6.52499851e-13 7.80978245e-45 6.09915688e-46 1.53429287e-11
7.24435960e-02 1.59111774e-11 1.53429287e-11 5.68248779e-13 4.47483713e-40 3.26475377e-41 1.53429287e-11
8.31763771e-02 1.58935065e-11 1.53429287e-11 5.50577876e-13 4.54382492e-36 3.28733119e-37 1.53429287e-11
9.54992586e-02 1.59005525e-11 1.53429287e-11 5.57623870e-13 1.26898433e-32 9.23485171e-34 1.53429287e-11
1.09647820e-01 1.52310536e-11 1.46523889e-11 5.78664750e-13 1.06887785e-29 8.22957822e-31 1.46523889e-11
1.25892541e-01 1.42463442e-11 1.36744049e-11 5.71939275e-13 3.44040691e-27 2.63670576e-28 1.36744049e-11
1.44543977e-01 1.32941778e-11 1.27616972e-11 5.32480602e-13 4.65324588e-25 3.48074313e-26 1.27616972e-11
1.65958691e-01 1.24301401e-11 1.19099088e-11 5.20231292e-13 2.34533993e-23 1.87856158e-24 1.19099088e-11
1.90546072e-01 1.16521167e-11 1.11149736e-11 5.37143027e-13 4.93659777e-22 4.56360363e-23 1.11149736e-11
2.18776162e-01 1.08527171e-11 1.03730969e-11 4.79620177e-13 5.81573580e-21 5.38906124e-22 1.03730969e-11
2.51188643e-01 1.01980321e-11 9.68073733e-12 5.17294723e-13 7.04737395e-20 7.80645901e-21 9.68073733e-12
2.88403150e-01 9.51466634e-12 9.03458975e-12 4.80076005e-13 5.84895457e-19 6.44409086e-20 9.03458975e-12
3.31131121e-01 8.86886479e-12 8.43156974e-12 4.37291705e-13 3.34601707e-18 3.61437118e-19 8.43156974e-12
3.80189396e-01 8.27563256e-12 7.86879872e-12 4.06819725e-13 1.41122353e-17 1.54701228e-18 7.86879872e-12
4.36515832e-01 7.71068356e-12 7.34359025e-12 3.67045529e-13 4.77791266e-17 5.88367965e-18 7.34359025e-12
5.01187234e-01 7.19154632e-12 6.85343719e-12 3.37951887e-13 1.57248897e-16 2.66252316e-17 6.85343719e-12
5.75439937e-01 6.70458782e-12 6.39599973e-12 3.07978867e-13 6.09227559e-16 1.42141534e-16 6.39599973e-12
6.60693448e-01 6.25037069e-12 5.96909425e-12 2.78698062e-13 2.57836844e-15 6.95105837e-16 5.96909425e-12
7.58577575e-01 5.83028659e-12 5.57068288e-12 2.49290417e-13 1.03132879e-14 2.87637582e-15 5.57068288e-12
8.70963590e-01 5.45447770e-12 5.19886376e-12 2.20363251e-13 3.52506907e-14 9.55196387e-15 5.19886376e-12
1.00000000e+00 5.13886989e-12 4.85186196e-12 1.86477870e-13 1.00530055e-13 2.56413490e-14 4.85186196e-12
1.14815362e+00 4.94014655e-12 4.52802104e-12 1.60467031e-13 2.51658477e-13 5.86695073e-14 4.52802104e-12
1.31825674e+00 4.91524418e-12 4.22579511e-12 1.30224850e-13 5.59224214e-13 1.16066829e-13 4.22579511e-12
1.51356125e+00 5.15868086e-12 3.94374146e-12 1.05340346e-13 1.10959905e-12 2.01288212e-13 3.94374146e-12
1.73780083e+00 5.74610742e-12 3.68051368e-12 8.47552357e-14 1.98083850e-12 3.03576803e-13 3.68051368e-12
1.99526231e+00 6.66807711e-12 3.43485522e-12 6.57889816e-14 3.16743291e-12 3.94962830e-13 3.43485522e-12
2.29086765e+00 7.82686906e-12 3.20559341e-12 4.97117620e-14 4.57156389e-12 4.44423199e-13 3.20559341e-12
2.63026799e+00 9.12203274e-12 2.99163384e-12 3.57806259e-14 6.09461828e-12 4.41621180e-13 2.99163384e-12
3.01995172e+00 1.03494251e-11 2.79195514e-12 2.46968463e-14 7.53277309e-12 3.95987879e-13 2.79195514e-12
3.46736850e+00 1.13853508e-11 2.60560415e-12 1.64601987e-14 8.76328646e-12 3.19194733e-13 2.60560415e-12
3.98107171e+00 1.20470155e-11 2.43169128e-12 1.06079328e-14 9.60471624e-12 2.36551310e-13 2.43169128e-12
4.57088190e+00 1.23765691e-11 2.26938634e-12 6.55516625e-15 1.01006276e-11 1.61530061e-13 2.26938634e-12
5.24807460e+00 1.21243814e-11 1.87643467e-12 3.51202684e-15 1.02444347e-11 1.04628165e-13 1.87643467e-12
6.02559586e+00 1.13434357e-11 1.23974809e-12 1.42924281e-15 1.01022584e-11 6.26974748e-14 1.23974809e-12
6.70000000e+00 1.07248472e-11 9.01797527e-13 6.95744287e-16 9.82235392e-12 4.06581073e-14 9.01797527e-13
6.92422916e+00 1.05355948e-11 8.16994532e-13 5.49414012e-16 9.71805082e-12 3.51698325e-14 8.16994532e-13
7.15596261e+00 1.03866133e-11 7.40166218e-13 4.32562022e-16 9.64601456e-12 3.03477487e-14 7.40166218e-13
7.39545150e+00 1.03930200e-11 6.70562664e-13 3.28798372e-16 9.72212849e-12 2.57961860e-14 6.70562664e-13
7.64295536e+00 1.08288838e-11 6.07504471e-13 2.35987387e-16 1.02211433e-11 2.20950843e-14 6.07504471e-13
7.89874245e+00 1.18471880e-11 5.50376127e-13 1.53366604e-16 1.12966585e-11 1.86402546e-14 5.50376127e-13
8.16308998e+00 1.32713627e-11 4.98620004e-13 9.39894903e-17 1.27726487e-11 1.54726819e-14 4.98620004e-13
8.43628443e+00 1.49150818e-11 4.51730909e-13 5.19772383e-17 1.44632989e-11 1.19989289e-14 4.51730909e-13
8.71862190e+00 1.60072763e-11 4.09251158e-13 2.89415545e-17 1.55979962e-11 9.03198634e-15 4.09251158e-13
9.01040836e+00 1.70410720e-11 3.70766106e-13 1.23026098e-17 1.66702936e-11 5.62061878e-15 3.70766106e-13
9.31196005e+00 1.76620224e-11 3.35900102e-13 0.00000000e+00 1.73261223e-11 0.00000000e+00 3.35900102e-13
9.62360379e+00 1.76057209e-11 3.04312818e-13 0.00000000e+00 1.73014081e-11 0.00000000e+00 3.04312818e-13
9.94567731e+00 1.70814645e-11 2.75695930e-13 0.00000000e+00 1.68057686e-11 0.00000000e+00 2.75695930e-13
1.02785297e+01 1.62737511e-11 2.49770110e-13 0.00000000e+00 1.60239810e-11 0.00000000e+00 2.49770110e-13
1.06225216e+01 1.53465131e-11 2.26282295e-13 0.00000000e+00 1.51202308e-11 0.00000000e+00 2.26282295e-13
1.09780260e+01 1.44466068e-11 2.05003220e-13 0.00000000e+00 1.42416035e-11 0.00000000e+00 2.05003220e-13
1.13454280e+01 1.35646236e-11 1.85725182e-13 0.00000000e+00 1.33788984e-11 0.00000000e+00 1.85725182e-13
1.17251259e+01 1.26713646e-11 1.68260007e-13 0.00000000e+00 1.25031046e-11 0.00000000e+00 1.68260007e-13
1.21175312e+01 1.18260309e-11 1.52437217e-13 0.00000000e+00 1.16735937e-11 0.00000000e+00 1.52437217e-13
1.25230691e+01 1.09773275e-11 1.38102367e-13 0.00000000e+00 1.08392252e-11 0.00000000e+00 1.38102367e-13
1.29421791e+01 1.01748153e-11 1.25115533e-13 0.00000000e+00 1.00496998e-11 0.00000000e+00 1.25115533e-13
1.33753155e+01 9.41654642e-12 1.13349952e-13 0.00000000e+00 9.30319647e-12 0.00000000e+00 1.13349952e-13
1.38229477e+01 8.92587940e-12 1.02690779e-13 0.00000000e+00 8.82318862e-12 0.00000000e+00 1.02690779e-13
1.42855609e+01 8.58962748e-12 9.30339713e-14 0.00000000e+00 8.49659351e-12 0.00000000e+00 9.30339713e-14
1.47636563e+01 8.61665366e-12 8.42852675e-14 0.00000000e+00 8.53236839e-12 0.00000000e+00 8.42852675e-14
1.52577522e+01 8.73228249e-12 7.63592720e-14 0.00000000e+00 8.65592322e-12 0.00000000e+00 7.63592720e-14
1.57683840e+01 8.86933737e-12 6.91786191e-14 0.00000000e+00 8.80015875e-12 0.00000000e+00 6.91786191e-14
1.62961051e+01 9.01965411e-12 6.26732185e-14 0.00000000e+00 8.95698089e-12 0.00000000e+00 6.26732185e-14
1.68414875e+01 9.10605602e-12 5.67795711e-14 0.00000000e+00 9.04927645e-12 0.00000000e+00 5.67795711e-14
1.74051222e+01 9.10330675e-12 5.14401489e-14 0.00000000e+00 9.05186660e-12 0.00000000e+00 5.14401489e-14
1.79876201e+01 9.00324459e-12 4.66028339e-14 0.00000000e+00 8.95664175e-12 0.00000000e+00 4.66028339e-14
1.85896125e+01 8.76952060e-12 4.22204090e-14 0.00000000e+00 8.72730019e-12 0.00000000e+00 4.22204090e-14
1.92117518e+01 8.43329764e-12 3.82500974e-14 0.00000000e+00 8.39504754e-12 0.00000000e+00 3.82500974e-14
1.98547123e+01 7.99238462e-12 3.46531450e-14 0.00000000e+00 7.95773147e-12 0.00000000e+00 3.46531450e-14
2.05191907e+01 7.53831241e-12 3.13944418e-14 0.00000000e+00 7.50691797e-12 0.00000000e+00 3.13944418e-14
2.12059073e+01 7.08637243e-12 2.84421796e-14 0.00000000e+00 7.05793025e-12 0.00000000e+00 2.84421796e-14
2.19156062e+01 6.67692592e-12 2.57675415e-14 0.00000000e+00 6.65115838e-12 0.00000000e+00 2.57675415e-14
2.26490567e+01 6.26565138e-12 2.33444203e-14 0.00000000e+00 6.24230696e-12 0.00000000e+00 2.33444203e-14
2.34070535e+01 5.87964013e-12 2.11491639e-14 0.00000000e+00 5.85849097e-12 0.00000000e+00 2.11491639e-14
2.41904183e+01 5.51085905e-12 1.91603445e-14 0.00000000e+00 5.49169870e-12 0.00000000e+00 1.91603445e-14
2.50000000e+01 5.16352364e-12 1.73585491e-14 0.00000000e+00 5.14616509e-12 0.00000000e+00 1.73585491e-14
2.75422870e+01 4.20195815e-12 1.29817562e-14 0.00000000e+00 4.18897639e-12 0.00000000e+00 1.29817562e-14
3.16227766e+01 3.03854180e-12 8.57696126e-15 0.00000000e+00 3.02996484e-12 0.00000000e+00 8.57696126e-15
3.63078055e+01 2.08156343e-12 5.66674211e-15 0.00000000e+00 2.07589669e-12 0.00000000e+00 5.66674211e-15
4.16869383e+01 1.34297058e-12 3.74397938e-15 0.00000000e+00 1.33922660e-12 0.00000000e+00 3.74397938e-15
4.78630092e+01 8.15854909e-13 2.47362265e-15 0.00000000e+00 8.13381287e-13 0.00000000e+00 2.47362265e-15
5.49540874e+01 4.72585340e-13 1.63430628e-15 0.00000000e+00 4.70951034e-13 0.00000000e+00 1.63430628e-15
6.30957344e+01 2.64224311e-13 1.07977545e-15 0.00000000e+00 2.63144535e-13 0.00000000e+00 1.07977545e-15
7.24435960e+01 1.43919986e-13 7.13400564e-16 0.00000000e+00 1.43206585e-13 0.00000000e+00 7.13400564e-16
8.31763771e+01 7.70913336e-14 4.71339078e-16 0.00000000e+00 7.66199945e-14 0.00000000e+00 4.71339078e-16
9.54992586e+01 4.08562711e-14 3.11410641e-16 0.00000000e+00 4.05448605e-14 0.00000000e+00 3.11410641e-16
1.09647820e+02 2.15093969e-14 2.05746970e-16 0.00000000e+00 2.13036500e-14 0.00000000e+00 2.05746970e-16
1.25892541e+02 1.14151947e-14 1.35935675e-16 0.00000000e+00 1.12792590e-14 0.00000000e+00 1.35935675e-16
1.44543977e+02 6.06515662e-15 8.98118099e-17 0.00000000e+00 5.97534481e-15 0.00000000e+00 8.98118099e-17
1.65958691e+02 3.08499833e-15 5.93380743e-17 0.00000000e+00 3.02566025e-15 0.00000000e+00 5.93380743e-17
1.90546072e+02 1.57989693e-15 3.92042769e-17 0.00000000e+00 1.54069265e-15 0.00000000e+00 3.92042769e-17
2.18776162e+02 8.12385805e-16 2.59020089e-17 0.00000000e+00 7.86483796e-16 0.00000000e+00 2.59020089e-17
2.51188643e+02 4.18563277e-16 1.71132876e-17 0.00000000e+00 4.01449989e-16 0.00000000e+00 1.71132876e-17
2.88403150e+02 2.15827017e-16 1.13066370e-17 0.00000000e+00 2.04520380e-16 0.00000000e+00 1.13066370e-17
3.31131121e+02 1.11617978e-16 7.47022097e-18 0.00000000e+00 1.04147757e-16 0.00000000e+00 7.47022097e-18
3.80189396e+02 5.78719701e-17 4.93552605e-18 0.00000000e+00 5.29364440e-17 0.00000000e+00 4.93552605e-18
4.36515832e+02 3.01458703e-17 3.26086972e-18 0.00000000e+00 2.68850006e-17 0.00000000e+00 3.26086972e-18
5.01187234e+02 1.57907280e-17 2.15443526e-18 0.00000000e+00 1.36362927e-17 0.00000000e+00 2.15443526e-18
5.75439937e+02 8.33277440e-18 1.42342126e-18 0.00000000e+00 6.90935314e-18 0.00000000e+00 1.42342126e-18
6.60693448e+02 4.43812497e-18 9.40445101e-19 0.00000000e+00 3.49767987e-18 0.00000000e+00 9.40445101e-19
7.58577575e+02 2.39052722e-18 6.21345916e-19 0.00000000e+00 1.76918130e-18 0.00000000e+00 6.21345916e-19
8.70963590e+02 1.30453520e-18 4.10519176e-19 0.00000000e+00 8.94016024e-19 0.00000000e+00 4.10519176e-19
1.00000000e+03 4.51331988e-19 0.00000000e+00 0.00000000e+00 4.51331988e-19 0.00000000e+00 0.00000000e+00
