# column 1: lambda (micron)
# column 2: total flux; lambda*F_lambda (W/m2)
# column 3: direct stellar flux; lambda*F_lambda (W/m2)
# column 4: scattered stellar flux; lambda*F_lambda (W/m2)
# column 5: total dust emission flux; lambda*F_lambda (W/m2)
# column 6: dust emission scattered flux; lambda*F_lambda (W/m2)
# column 7: transparent flux; lambda*F_lambda (W/m2)
1.00000000e-03 5.25637425e-13 5.25636674e-13 7.50755190e-19 0.00000000e+00 0.00000000e+00 5.25636674e-13
1.14815362e-03 6.20420977e-13 6.20419813e-13 1.16454696e-18 0.00000000e+00 0.00000000e+00 6.20419813e-13
1.31825674e-03 7.32295998e-13 7.32294308e-13 1.69027694e-18 0.00000000e+00 0.00000000e+00 7.32294308e-13
1.51356125e-03 8.64344536e-13 8.64342083e-13 2.45334142e-18 0.00000000e+00 0.00000000e+00 8.64342083e-13
1.73780083e-03 1.02020553e-12 1.02020080e-12 4.72819577e-18 0.00000000e+00 0.00000000e+00 1.02020080e-12
1.99526231e-03 1.20417140e-12 1.20416405e-12 7.35145062e-18 0.00000000e+00 0.00000000e+00 1.20416405e-12
2.29086765e-03 1.42130994e-12 1.42129968e-12 1.02576318e-17 0.00000000e+00 0.00000000e+00 1.42129968e-12
2.63026799e-03 1.67761272e-12 1.67758934e-12 2.33810365e-17 0.00000000e+00 0.00000000e+00 1.67758934e-12
3.01995172e-03 1.98013377e-12 1.98009332e-12 4.04467474e-17 0.00000000e+00 0.00000000e+00 1.98009332e-12
3.46736850e-03 2.33721014e-12 2.33714500e-12 6.51348906e-17 0.00000000e+00 0.00000000e+00 2.33714500e-12
3.98107171e-03 2.75867992e-12 2.75858048e-12 9.94389727e-17 0.00000000e+00 0.00000000e+00 2.75858048e-12
4.57088190e-03 3.25627807e-12 3.25600946e-12 2.68602197e-16 0.00000000e+00 0.00000000e+00 3.25600946e-12
5.24807460e-03 3.84351201e-12 3.84313516e-12 3.76847708e-16 0.00000000e+00 0.00000000e+00 3.84313516e-12
6.02559586e-03 4.53693625e-12 4.53613173e-12 8.04512726e-16 0.00000000e+00 0.00000000e+00 4.53613173e-12
6.91830971e-03 5.35578946e-12 5.35408989e-12 1.69957138e-15 0.00000000e+00 0.00000000e+00 5.35408989e-12
7.94328235e-03 6.32162473e-12 6.31954278e-12 2.08194236e-15 9.34748466e-304 1.66278266e-304 6.31954278e-12
9.12010839e-03 7.46212999e-12 7.45908676e-12 3.04323793e-15 3.84192934e-265 3.97954613e-266 7.45908676e-12
1.04712855e-02 8.33498839e-12 8.33078048e-12 4.20791124e-15 1.72530162e-231 2.27057610e-232 8.33078048e-12
1.20226443e-02 8.33748594e-12 8.33078048e-12 6.70546530e-15 2.91087865e-202 5.21745908e-203 8.33078048e-12
1.38038426e-02 8.34023950e-12 8.33078048e-12 9.45902085e-15 8.71259093e-177 2.10227759e-177 8.33078048e-12
1.58489319e-02 8.35313783e-12 8.33078048e-12 2.23573517e-14 1.13484060e-154 2.33288218e-155 8.33078048e-12
1.81970086e-02 8.34774704e-12 8.33078048e-12 1.69665690e-14 2.02722511e-135 4.15186009e-136 8.33078048e-12
2.08929613e-02 8.35759960e-12 8.33078048e-12 2.68191237e-14 1.06595657e-118 2.17670884e-119 8.33078048e-12
2.39883292e-02 8.36421831e-12 8.33078048e-12 3.34378379e-14 3.66455309e-104 7.08538569e-105 8.33078048e-12
2.75422870e-02 8.37590730e-12 8.33078048e-12 4.51268196e-14 1.62084869e-91 3.11141418e-92 8.33078048e-12
3.16227766e-02 8.38205821e-12 8.33078048e-12 5.12777348e-14 1.53048102e-80 2.62700300e-81 8.33078048e-12
3.63078055e-02 8.38872417e-12 8.33078048e-12 5.79436978e-14 5.25259840e-71 8.57196851e-72 8.33078048e-12
4.16869383e-02 8.40573882e-12 8.33078048e-12 7.49583443e-14 9.78894175e-63 1.50772622e-63 8.33078048e-12
4.78630092e-02 8.42394557e-12 8.33078048e-12 9.31650968e-14 1.41407440e-55 1.96863679e-56 8.33078048e-12
5.49540874e-02 8.43361229e-12 8.33078048e-12 1.02831815e-13 2.24661141e-49 2.80936134e-50 8.33078048e-12
6.30957344e-02 8.43595435e-12 8.33078048e-12 1.05173874e-13 6.53412834e-44 6.46545015e-45 8.33078048e-12
7.24435960e-02 8.42396927e-12 8.33078048e-12 9.31887918e-14 3.53080904e-39 2.60832074e-40 8.33078048e-12
8.31763771e-02 8.42154469e-12 8.33078048e-12 9.07642125e-14 3.65708874e-35 2.68810664e-36 8.33078048e-12
9.54992586e-02 8.42513779e-12 8.33078048e-12 9.43573157e-14 1.05156839e-31 8.05828827e-33 8.33078048e-12
1.09647820e-01 8.05614249e-12 7.95583672e-12 1.00305774e-13 9.50757414e-29 9.08074821e-30 7.95583672e-12
1.25892541e-01 7.51989087e-12 7.42481883e-12 9.50720325e-14 3.33371238e-26 3.63716471e-27 7.42481883e-12
1.44543977e-01 7.02309330e-12 6.92924411e-12 9.38491907e-14 4.88510030e-24 5.77470743e-25 6.92924411e-12
1.65958691e-01 6.56040574e-12 6.46674687e-12 9.36588739e-14 2.61216114e-22 3.48688658e-23 6.46674687e-12
1.90546072e-01 6.13138963e-12 6.03511933e-12 9.62703031e-14 5.39314573e-21 7.50546012e-22 6.03511933e-12
2.18776162e-01 5.72394878e-12 5.63230107e-12 9.16476535e-14 5.95358228e-20 7.48367714e-21 5.63230107e-12
2.51188643e-01 5.35808164e-12 5.25636919e-12 1.01711647e-13 7.95265313e-19 1.24451906e-19 5.25636919e-12
2.88403150e-01 5.00354041e-12 4.90552916e-12 9.80041090e-14 7.14547023e-18 1.13533857e-18 4.90552916e-12
3.31131121e-01 4.66703214e-12 4.57810618e-12 8.88826595e-14 4.32949130e-17 6.83353290e-18 4.57810618e-12
3.80189396e-01 4.35197077e-12 4.27253728e-12 7.92445534e-14 1.88933142e-16 2.92252293e-17 4.27253728e-12
4.36515832e-01 4.06264898e-12 3.98736380e-12 7.46597147e-14 6.25469511e-16 9.46541229e-17 3.98736380e-12
5.01187234e-01 3.79127964e-12 3.72122441e-12 6.84085929e-14 1.64663926e-15 2.35021141e-16 3.72122441e-12
5.75439937e-01 3.53850529e-12 3.47284869e-12 6.20669685e-14 3.58963343e-15 4.79238161e-16 3.47284869e-12
6.60693448e-01 3.30284255e-12 3.24105097e-12 5.48678336e-14 6.92374568e-15 8.83512225e-16 3.24105097e-12
7.58577575e-01 3.08851725e-12 3.02472476e-12 5.11193941e-14 1.26730954e-14 1.56440852e-15 3.02472476e-12
8.70963590e-01 2.89149849e-12 2.82283739e-12 4.53395171e-14 2.33215840e-14 2.89448192e-15 2.82283739e-12
1.00000000e+00 2.71776421e-12 2.63442513e-12 3.96896412e-14 4.36494383e-14 5.37185789e-15 2.63442513e-12
1.14815362e+00 2.57429111e-12 2.45858859e-12 3.24302345e-14 8.32722845e-14 9.76826993e-15 2.45858859e-12
1.31825674e+00 2.47825500e-12 2.29448837e-12 2.69016902e-14 1.56864937e-13 1.68339293e-14 2.29448837e-12
1.51356125e+00 2.44133650e-12 2.14134114e-12 2.25211113e-14 2.77474243e-13 2.70104020e-14 2.14134114e-12
1.73780083e+00 2.46378357e-12 1.99841583e-12 1.77945760e-14 4.47573168e-13 3.78468587e-14 1.99841583e-12
1.99526231e+00 2.53154579e-12 1.86503017e-12 1.34620239e-14 6.53053598e-13 4.63012786e-14 1.86503017e-12
2.29086765e+00 2.60994590e-12 1.74054743e-12 1.00555467e-14 8.59342927e-13 4.88300342e-14 1.74054743e-12
2.63026799e+00 2.66855806e-12 1.62437337e-12 7.10946878e-15 1.03707522e-12 4.52832231e-14 1.62437337e-12
3.01995172e+00 2.68295198e-12 1.51595343e-12 4.65889217e-15 1.16233965e-12 3.74649571e-14 1.51595343e-12
3.46736850e+00 2.64917389e-12 1.41477006e-12 3.00093877e-15 1.23140289e-12 2.83720886e-14 1.41477006e-12
3.98107171e+00 2.55509438e-12 1.32034025e-12 1.87344178e-15 1.23288069e-12 1.93658145e-14 1.32034025e-12
4.57088190e+00 2.41492525e-12 1.23221321e-12 1.13694983e-15 1.18157509e-12 1.21984641e-14 1.23221321e-12
5.24807460e+00 2.11842766e-12 1.01885146e-12 5.95864359e-16 1.09898034e-12 7.23965127e-15 1.01885146e-12
6.02559586e+00 1.67364491e-12 6.73148485e-13 2.37848309e-16 1.00025857e-12 4.03018193e-15 6.73148485e-13
6.70000000e+00 1.40633427e-12 4.89650796e-13 1.14581269e-16 9.16568889e-13 2.45451632e-15 4.89650796e-13
6.92422916e+00 1.33307938e-12 4.43605145e-13 8.93141037e-17 8.89384921e-13 2.06811256e-15 4.43605145e-13
7.15596261e+00 1.27352354e-12 4.01889522e-13 6.94532536e-17 8.71564561e-13 1.74780940e-15 4.01889522e-13
7.39545150e+00 1.23914597e-12 3.64096743e-13 5.41035528e-17 8.74995129e-13 1.47575390e-15 3.64096743e-13
7.64295536e+00 1.26967446e-12 3.29857910e-13 3.92373281e-17 9.39777309e-13 1.28687254e-15 3.29857910e-13
7.89874245e+00 1.39685586e-12 2.98838820e-13 2.71642232e-17 1.09798988e-12 1.14596515e-15 2.98838820e-13
8.16308998e+00 1.59503426e-12 2.70736695e-13 1.80212932e-17 1.32427954e-12 1.00115070e-15 2.70736695e-13
8.43628443e+00 1.86841681e-12 2.45277229e-13 1.08309679e-17 1.62312875e-12 8.34907197e-16 2.45277229e-13
8.71862190e+00 2.04932277e-12 2.22211915e-13 6.45784970e-18 1.82710440e-12 6.37540328e-16 2.22211915e-13
9.01040836e+00 2.22517567e-12 2.01315610e-13 2.96614924e-18 2.02385709e-12 3.85262587e-16 2.01315610e-13
9.31196005e+00 2.35228024e-12 1.82384346e-13 0.00000000e+00 2.16989589e-12 0.00000000e+00 1.82384346e-13
9.62360379e+00 2.31587799e-12 1.65233336e-13 0.00000000e+00 2.15064465e-12 0.00000000e+00 1.65233336e-13
9.94567731e+00 2.15564085e-12 1.49695167e-13 0.00000000e+00 2.00594569e-12 0.00000000e+00 1.49695167e-13
1.02785297e+01 1.96778032e-12 1.35618173e-13 0.00000000e+00 1.83216214e-12 0.00000000e+00 1.35618173e-13
1.06225216e+01 1.78156236e-12 1.22864947e-13 0.00000000e+00 1.65869742e-12 0.00000000e+00 1.22864947e-13
1.09780260e+01 1.58376185e-12 1.11311006e-13 0.00000000e+00 1.47245085e-12 0.00000000e+00 1.11311006e-13
1.13454280e+01 1.40431548e-12 1.00843571e-13 0.00000000e+00 1.30347191e-12 0.00000000e+00 1.00843571e-13
1.17251259e+01 1.25238901e-12 9.13604705e-14 0.00000000e+00 1.16102854e-12 0.00000000e+00 9.13604705e-14
1.21175312e+01 1.11306479e-12 8.27691389e-14 0.00000000e+00 1.03029565e-12 0.00000000e+00 8.27691389e-14
1.25230691e+01 9.85808585e-13 7.49857166e-14 0.00000000e+00 9.10822868e-13 0.00000000e+00 7.49857166e-14
1.29421791e+01 8.77255748e-13 6.79342298e-14 0.00000000e+00 8.09321518e-13 0.00000000e+00 6.79342298e-14
1.33753155e+01 7.83810900e-13 6.15458488e-14 0.00000000e+00 7.22265051e-13 0.00000000e+00 6.15458488e-14
1.38229477e+01 7.19153889e-13 5.57582167e-14 0.00000000e+00 6.63395672e-13 0.00000000e+00 5.57582167e-14
1.42855609e+01 6.79815741e-13 5.05148403e-14 0.00000000e+00 6.29300900e-13 0.00000000e+00 5.05148403e-14
1.47636563e+01 6.78802033e-13 4.57645392e-14 0.00000000e+00 6.33037494e-13 0.00000000e+00 4.57645392e-14
1.52577522e+01 6.85318912e-13 4.14609457e-14 0.00000000e+00 6.43857966e-13 0.00000000e+00 4.14609457e-14
1.57683840e+01 6.98922141e-13 3.75620523e-14 0.00000000e+00 6.61360089e-13 0.00000000e+00 3.75620523e-14
1.62961051e+01 7.11808022e-13 3.40298020e-14 0.00000000e+00 6.77778220e-13 0.00000000e+00 3.40298020e-14
1.68414875e+01 7.25592896e-13 3.08297166e-14 0.00000000e+00 6.94763180e-13 0.00000000e+00 3.08297166e-14
1.74051222e+01 7.26264766e-13 2.79305599e-14 0.00000000e+00 6.98334207e-13 0.00000000e+00 2.79305599e-14
1.79876201e+01 7.19548509e-13 2.53040334e-14 0.00000000e+00 6.94244476e-13 0.00000000e+00 2.53040334e-14
1.85896125e+01 6.98570882e-13 2.29244994e-14 0.00000000e+00 6.75646382e-13 0.00000000e+00 2.29244994e-14
1.92117518e+01 6.65919110e-13 2.07687314e-14 0.00000000e+00 6.45150378e-13 0.00000000e+00 2.07687314e-14
1.98547123e+01 6.26698439e-13 1.88156870e-14 0.00000000e+00 6.07882752e-13 0.00000000e+00 1.88156870e-14
2.05191907e+01 5.85718952e-13 1.70463024e-14 0.00000000e+00 5.68672650e-13 0.00000000e+00 1.70463024e-14
2.12059073e+01 5.46318749e-13 1.54433068e-14 0.00000000e+00 5.30875442e-13 0.00000000e+00 1.54433068e-14
2.19156062e+01 5.11118471e-13 1.39910532e-14 0.00000000e+00 4.97127418e-13 0.00000000e+00 1.39910532e-14
2.26490567e+01 4.79002481e-13 1.26753663e-14 0.00000000e+00 4.66327114e-13 0.00000000e+00 1.26753663e-14
2.34070535e+01 4.48338471e-13 1.14834036e-14 0.00000000e+00 4.36855068e-13 0.00000000e+00 1.14834036e-14
2.41904183e+01 4.20498470e-13 1.04035303e-14 0.00000000e+00 4.10094940e-13 0.00000000e+00 1.04035303e-14
2.50000000e+01 3.94476630e-13 9.42520591e-15 0.00000000e+00 3.85051424e-13 0.00000000e+00 9.42520591e-15
2.75422870e+01 3.24252256e-13 7.04872996e-15 0.00000000e+00 3.17203526e-13 0.00000000e+00 7.04872996e-15
3.16227766e+01 2.40326504e-13 4.65704970e-15 0.00000000e+00 2.35669454e-13 0.00000000e+00 4.65704970e-15
3.63078055e+01 1.69802017e-13 3.07688223e-15 0.00000000e+00 1.66725135e-13 0.00000000e+00 3.07688223e-15
4.16869383e+01 1.12851189e-13 2.03287593e-15 0.00000000e+00 1.10818313e-13 0.00000000e+00 2.03287593e-15
4.78630092e+01 7.05230753e-14 1.34310781e-15 0.00000000e+00 6.91799674e-14 0.00000000e+00 1.34310781e-15
5.49540874e+01 4.20293549e-14 8.87382527e-16 0.00000000e+00 4.11419723e-14 0.00000000e+00 8.87382527e-16
6.30957344e+01 2.41744677e-14 5.86287821e-16 0.00000000e+00 2.35881799e-14 0.00000000e+00 5.86287821e-16
7.24435960e+01 1.35467843e-14 3.87356522e-16 0.00000000e+00 1.31594277e-14 0.00000000e+00 3.87356522e-16
8.31763771e+01 7.46353576e-15 2.55923916e-16 0.00000000e+00 7.20761184e-15 0.00000000e+00 2.55923916e-16
9.54992586e+01 4.06778828e-15 1.69087255e-16 0.00000000e+00 3.89870103e-15 0.00000000e+00 1.69087255e-16
1.09647820e+02 2.20260316e-15 1.11714841e-16 0.00000000e+00 2.09088831e-15 0.00000000e+00 1.11714841e-16
1.25892541e+02 1.20150059e-15 7.38092637e-17 0.00000000e+00 1.12769133e-15 0.00000000e+00 7.38092637e-17
1.44543977e+02 6.56213901e-16 4.87652969e-17 0.00000000e+00 6.07448604e-16 0.00000000e+00 4.87652969e-17
1.65958691e+02 3.44318996e-16 3.22189122e-17 0.00000000e+00 3.12100084e-16 0.00000000e+00 3.22189122e-17
1.90546072e+02 1.82314261e-16 2.12868242e-17 0.00000000e+00 1.61027437e-16 0.00000000e+00 2.12868242e-17
2.18776162e+02 9.72239593e-17 1.40640653e-17 0.00000000e+00 8.31598940e-17 0.00000000e+00 1.40640653e-17
2.51188643e+02 5.21736265e-17 9.29203577e-18 0.00000000e+00 4.28815907e-17 0.00000000e+00 9.29203577e-18
2.88403150e+02 2.81817783e-17 6.13918715e-18 0.00000000e+00 2.20425912e-17 0.00000000e+00 6.13918715e-18
3.31131121e+02 1.53696055e-17 4.05612073e-18 0.00000000e+00 1.13134848e-17 0.00000000e+00 4.05612073e-18
3.80189396e+02 8.46999219e-18 2.67985239e-18 0.00000000e+00 5.79013980e-18 0.00000000e+00 2.67985239e-18
4.36515832e+02 4.72893783e-18 1.77056092e-18 0.00000000e+00 2.95837692e-18 0.00000000e+00 1.77056092e-18
5.01187234e+02 2.67819547e-18 1.16979800e-18 0.00000000e+00 1.50839748e-18 0.00000000e+00 1.16979800e-18
5.75439937e+02 1.54066516e-18 7.72877871e-19 0.00000000e+00 7.67787287e-19 0.00000000e+00 7.72877871e-19
6.60693448e+02 9.00861456e-19 5.10635346e-19 0.00000000e+00 3.90226111e-19 0.00000000e+00 5.10635346e-19
7.58577575e+02 5.35442980e-19 3.37373427e-19 0.00000000e+00 1.98069553e-19 0.00000000e+00 3.37373427e-19
8.70963590e+02 3.23293947e-19 2.22900413e-19 0.00000000e+00 1.00393534e-19 0.00000000e+00 2.22900413e-19
1.00000000e+03 5.08161126e-20 0.00000000e+00 0.00000000e+00 5.08161126e-20 0.00000000e+00 0.00000000e+00
