# column 1: lambda (micron)
# column 2: total flux; lambda*F_lambda (W/m2)
# column 3: direct stellar flux; lambda*F_lambda (W/m2)
# column 4: scattered stellar flux; lambda*F_lambda (W/m2)
# column 5: total dust emission flux; lambda*F_lambda (W/m2)
# column 6: dust emission scattered flux; lambda*F_lambda (W/m2)
# column 7: transparent flux; lambda*F_lambda (W/m2)
1.00000000e-03 8.44518326e-13 8.44511593e-13 6.73270425e-18 0.00000000e+00 0.00000000e+00 8.46529401e-13
1.14815362e-03 9.96172103e-13 9.96030773e-13 1.41329222e-16 0.00000000e+00 0.00000000e+00 9.99176121e-13
1.31825674e-03 1.17464648e-12 1.17463006e-12 1.64235651e-17 0.00000000e+00 0.00000000e+00 1.17934819e-12
1.51356125e-03 1.38553563e-12 1.38544578e-12 8.98485173e-17 0.00000000e+00 0.00000000e+00 1.39200901e-12
1.73780083e-03 1.63708645e-12 1.63519037e-12 1.89607671e-15 0.00000000e+00 0.00000000e+00 1.64301696e-12
1.99526231e-03 1.92715266e-12 1.92704848e-12 1.04175651e-16 0.00000000e+00 0.00000000e+00 1.93928682e-12
2.29086765e-03 2.27388463e-12 2.27366518e-12 2.19455020e-16 0.00000000e+00 0.00000000e+00 2.28898025e-12
2.63026799e-03 2.68230802e-12 2.68008271e-12 2.22531024e-15 0.00000000e+00 0.00000000e+00 2.70173063e-12
3.01995172e-03 3.15955704e-12 3.15733680e-12 2.22023399e-15 0.00000000e+00 0.00000000e+00 3.18890841e-12
3.46736850e-03 3.72264021e-12 3.72005066e-12 2.58955178e-15 0.00000000e+00 0.00000000e+00 3.76393440e-12
3.98107171e-03 4.39909997e-12 4.38340969e-12 1.56902794e-14 0.00000000e+00 0.00000000e+00 4.44264945e-12
4.57088190e-03 5.20667782e-12 5.19700550e-12 9.67231780e-15 0.00000000e+00 0.00000000e+00 5.24375082e-12
5.24807460e-03 6.13821468e-12 6.11892367e-12 1.92910113e-14 0.00000000e+00 0.00000000e+00 6.18930730e-12
6.02559586e-03 7.23634789e-12 7.20531680e-12 3.10310889e-14 0.00000000e+00 0.00000000e+00 7.30536713e-12
6.91830971e-03 8.61816584e-12 8.48652672e-12 1.31639113e-13 0.00000000e+00 0.00000000e+00 8.62267558e-12
7.94328235e-03 1.00739857e-11 9.99840037e-12 7.55853559e-14 3.21247182e-303 1.32508138e-305 1.01775219e-11
9.12010839e-03 1.18686890e-11 1.17783536e-11 9.03353735e-14 1.69628266e-264 9.28032762e-267 1.20127391e-11
1.04712855e-02 1.32564352e-11 1.31382685e-11 1.18166652e-13 8.42147507e-231 4.59603891e-233 1.34165878e-11
1.20226443e-02 1.32864025e-11 1.31220243e-11 1.64378203e-13 1.53094815e-201 2.22246278e-203 1.34165878e-11
1.38038426e-02 1.32645675e-11 1.31027828e-11 1.61784655e-13 4.68433972e-176 4.34074331e-178 1.34165878e-11
1.58489319e-02 1.32544180e-11 1.30791752e-11 1.75242728e-13 7.05825961e-154 8.36201270e-156 1.34165878e-11
1.81970086e-02 1.32443857e-11 1.30574391e-11 1.86946606e-13 1.38331509e-134 2.00217282e-136 1.34165878e-11
2.08929613e-02 1.32358522e-11 1.30393993e-11 1.96452907e-13 7.84164773e-118 1.34018484e-119 1.34165878e-11
2.39883292e-02 1.32173874e-11 1.30160627e-11 2.01324700e-13 2.95757798e-103 6.26721216e-105 1.34165878e-11
2.75422870e-02 1.32104923e-11 1.29889708e-11 2.21521478e-13 1.40919344e-90 3.51240371e-92 1.34165878e-11
3.16227766e-02 1.31965219e-11 1.29624696e-11 2.34052271e-13 1.45345888e-79 4.42129449e-81 1.34165878e-11
3.63078055e-02 1.31834899e-11 1.29417212e-11 2.41768697e-13 5.29153923e-70 1.84428659e-71 1.34165878e-11
4.16869383e-02 1.32001340e-11 1.29238022e-11 2.76331798e-13 1.05451971e-61 4.84660534e-63 1.34165878e-11
4.78630092e-02 1.31784509e-11 1.28745372e-11 3.03913777e-13 1.66321649e-54 9.97299172e-56 1.34165878e-11
5.49540874e-02 1.31403636e-11 1.28063368e-11 3.34026743e-13 2.86481737e-48 2.04378475e-49 1.34165878e-11
6.30957344e-02 1.30002044e-11 1.26369090e-11 3.63295410e-13 9.54912606e-43 8.05999143e-44 1.34165878e-11
7.24435960e-02 1.27927194e-11 1.24391174e-11 3.53602002e-13 5.63143811e-38 4.63364496e-39 1.34165878e-11
8.31763771e-02 1.27989835e-11 1.24565917e-11 3.42391709e-13 5.88100248e-34 4.76811365e-35 1.34165878e-11
9.54992586e-02 1.28424420e-11 1.25079848e-11 3.34457211e-13 1.69170198e-30 1.42821648e-31 1.34165878e-11
1.09647820e-01 1.24263997e-11 1.20876530e-11 3.38746723e-13 1.46545898e-27 1.32206203e-28 1.28127470e-11
1.25892541e-01 1.17015371e-11 1.13976745e-11 3.03862629e-13 4.80822826e-25 4.14558357e-26 1.19575512e-11
1.44543977e-01 1.09882064e-11 1.07245866e-11 2.63619808e-13 6.62307695e-23 5.49513935e-24 1.11594361e-11
1.65958691e-01 1.03195839e-11 1.00587969e-11 2.60786943e-13 3.40347295e-21 3.10221780e-22 1.04145917e-11
1.90546072e-01 9.63856508e-12 9.36562716e-12 2.72937849e-13 7.30199788e-20 8.06221143e-21 9.71946251e-12
2.18776162e-01 8.94273530e-12 8.68460669e-12 2.58127737e-13 8.74437090e-19 1.03289015e-19 9.07073019e-12
2.51188643e-01 8.44729484e-12 8.17586084e-12 2.71423175e-13 1.08302292e-17 1.54994125e-18 8.46529796e-12
2.88403150e-01 7.92520240e-12 7.67535302e-12 2.49758922e-13 9.04518589e-17 1.25761512e-17 7.90027573e-12
3.31131121e-01 7.41276533e-12 7.18964530e-12 2.22601013e-13 5.19010290e-16 6.90313055e-17 7.37296631e-12
3.80189396e-01 6.92985826e-12 6.73038391e-12 1.97308250e-13 2.16610532e-15 2.78084330e-16 6.88085251e-12
4.36515832e-01 6.48768630e-12 6.29919612e-12 1.81611209e-13 6.87896959e-15 8.73520601e-16 6.42158520e-12
5.01187234e-01 6.07175497e-12 5.89477632e-12 1.59750322e-13 1.72283275e-14 2.16783575e-15 5.99297201e-12
5.75439937e-01 5.69920440e-12 5.51500353e-12 1.48498930e-13 3.57019486e-14 4.51139090e-15 5.59296690e-12
6.60693448e-01 5.35383159e-12 5.15830403e-12 1.31970675e-13 6.35568842e-14 8.05637351e-15 5.21966041e-12
7.58577575e-01 5.04368488e-12 4.82357574e-12 1.16829293e-13 1.03279845e-13 1.35744639e-14 4.87127053e-12
8.70963590e-01 4.77182380e-12 4.50988307e-12 1.02432589e-13 1.59508146e-13 2.19033578e-14 4.54613417e-12
1.00000000e+00 4.54657407e-12 4.21559423e-12 8.86834699e-14 2.42296377e-13 3.50968360e-14 4.24269927e-12
1.14815362e+00 4.39163645e-12 3.93961309e-12 7.39485150e-14 3.78074848e-13 5.55176380e-14 3.95951734e-12
1.31825674e+00 4.34438727e-12 3.68087567e-12 6.03678664e-14 6.03143728e-13 8.54327318e-14 3.69523659e-12
1.51356125e+00 4.43771979e-12 3.43833983e-12 4.95675840e-14 9.49812371e-13 1.25140798e-13 3.44859544e-12
1.73780083e+00 4.66453719e-12 3.21121237e-12 3.88242846e-14 1.41450053e-12 1.64817381e-13 3.21841652e-12
1.99526231e+00 4.98135499e-12 2.99862020e-12 2.99344591e-14 1.95280033e-12 1.91245906e-13 3.00360106e-12
2.29086765e+00 5.31274490e-12 2.79969084e-12 2.25136139e-14 2.49054045e-12 1.98401311e-13 2.80312361e-12
2.63026799e+00 5.58315981e-12 2.61363929e-12 1.63787341e-14 2.95314178e-12 1.83336821e-13 2.61602716e-12
3.01995172e+00 5.73696078e-12 2.43973628e-12 1.12123633e-14 3.28601213e-12 1.52180444e-13 2.44141860e-12
3.46736850e+00 5.74161109e-12 2.27725986e-12 7.42648433e-15 3.45692474e-12 1.15358962e-13 2.27846441e-12
3.98107171e+00 5.60544638e-12 2.12551325e-12 4.76950850e-15 3.47516362e-12 7.94448580e-14 2.12638671e-12
4.57088190e+00 5.34040987e-12 1.98381752e-12 2.87744096e-15 3.35371490e-12 5.04931084e-14 1.98445954e-12
5.24807460e+00 4.78514366e-12 1.64041742e-12 1.55467081e-15 3.14317157e-12 3.02332913e-14 1.64084388e-12
6.02559586e+00 3.97311570e-12 1.08386065e-12 6.32684565e-16 2.88862236e-12 1.69374469e-14 1.08409480e-12
6.70000000e+00 3.45627192e-12 7.88423968e-13 3.04648732e-16 2.66754330e-12 1.03351640e-14 7.88574724e-13
6.92422916e+00 3.31044646e-12 7.14287152e-13 2.42447182e-16 2.59591686e-12 8.76981448e-15 7.14418944e-13
7.15596261e+00 3.19535899e-12 6.47119293e-13 1.91198867e-16 2.54804850e-12 7.39271109e-15 6.47236606e-13
7.39545150e+00 3.14178271e-12 5.86263124e-13 1.48000912e-16 2.55537159e-12 6.31854331e-15 5.86371942e-13
7.64295536e+00 3.25204257e-12 5.31118529e-13 1.07291163e-16 2.72081675e-12 5.50217534e-15 5.31230854e-13
7.89874245e+00 3.60206841e-12 4.81143634e-13 7.26237599e-17 3.12085215e-12 4.81943600e-15 4.81275108e-13
8.16308998e+00 4.11425709e-12 4.35856262e-13 4.68247161e-17 3.67835401e-12 4.19680187e-15 4.36017088e-13
8.43628443e+00 4.77527517e-12 3.94812617e-13 2.78705596e-17 4.38043468e-12 3.46977451e-15 3.95015029e-13
8.71862190e+00 5.19631042e-12 3.57643401e-13 1.72592217e-17 4.83864976e-12 2.66929885e-15 3.57868711e-13
9.01040836e+00 5.59039359e-12 3.23968289e-13 8.44377817e-18 5.26641685e-12 1.74857314e-15 3.24215549e-13
9.31196005e+00 5.83371629e-12 2.93467256e-13 0.00000000e+00 5.54024903e-12 0.00000000e+00 2.93727053e-13
9.62360379e+00 5.75946231e-12 2.65864063e-13 0.00000000e+00 5.49359825e-12 0.00000000e+00 2.66105627e-13
9.94567731e+00 5.43130829e-12 2.40876306e-13 0.00000000e+00 5.19043199e-12 0.00000000e+00 2.41081657e-13
1.02785297e+01 5.03577098e-12 2.18242575e-13 0.00000000e+00 4.81752840e-12 0.00000000e+00 2.18410884e-13
1.06225216e+01 4.61553506e-12 1.97735550e-13 0.00000000e+00 4.41779951e-12 0.00000000e+00 1.97872020e-13
1.09780260e+01 4.16893000e-12 1.79157919e-13 0.00000000e+00 3.98977208e-12 0.00000000e+00 1.79264583e-13
1.13454280e+01 3.77082171e-12 1.62323247e-13 0.00000000e+00 3.60849846e-12 0.00000000e+00 1.62406948e-13
1.17251259e+01 3.40917356e-12 1.47068462e-13 0.00000000e+00 3.26210509e-12 0.00000000e+00 1.47134567e-13
1.21175312e+01 3.06834318e-12 1.33246426e-13 0.00000000e+00 2.93509675e-12 0.00000000e+00 1.33298366e-13
1.25230691e+01 2.75419575e-12 1.20722592e-13 0.00000000e+00 2.63347316e-12 0.00000000e+00 1.20763289e-13
1.29421791e+01 2.47674746e-12 1.09374871e-13 0.00000000e+00 2.36737259e-12 0.00000000e+00 1.09406983e-13
1.33753155e+01 2.23815469e-12 9.90930796e-14 0.00000000e+00 2.13906161e-12 0.00000000e+00 9.91185987e-14
1.38229477e+01 2.07397267e-12 8.97764951e-14 0.00000000e+00 1.98419618e-12 0.00000000e+00 8.97977103e-14
1.42855609e+01 1.96996597e-12 8.13348983e-14 0.00000000e+00 1.88863107e-12 0.00000000e+00 8.13533371e-14
1.47636563e+01 1.97429198e-12 7.36855539e-14 0.00000000e+00 1.90060643e-12 0.00000000e+00 7.37030537e-14
1.52577522e+01 1.99770542e-12 6.67552768e-14 0.00000000e+00 1.93095015e-12 0.00000000e+00 6.67721855e-14
1.57683840e+01 2.03362529e-12 6.04765334e-14 0.00000000e+00 1.97314876e-12 0.00000000e+00 6.04930805e-14
1.62961051e+01 2.08066804e-12 5.47882745e-14 0.00000000e+00 2.02587977e-12 0.00000000e+00 5.48044484e-14
1.68414875e+01 2.11902203e-12 4.96349887e-14 0.00000000e+00 2.06938704e-12 0.00000000e+00 4.96507622e-14
1.74051222e+01 2.12497099e-12 4.49667382e-14 0.00000000e+00 2.08000425e-12 0.00000000e+00 4.49817171e-14
1.79876201e+01 2.10573923e-12 4.07377528e-14 0.00000000e+00 2.06500148e-12 0.00000000e+00 4.07517384e-14
1.85896125e+01 2.04901902e-12 3.69068832e-14 0.00000000e+00 2.01211214e-12 0.00000000e+00 3.69195372e-14
1.92117518e+01 1.95610315e-12 3.34365926e-14 0.00000000e+00 1.92266656e-12 0.00000000e+00 3.34477076e-14
1.98547123e+01 1.84563679e-12 3.02927884e-14 0.00000000e+00 1.81534400e-12 0.00000000e+00 3.03023610e-14
2.05191907e+01 1.73128114e-12 2.74446346e-14 0.00000000e+00 1.70383651e-12 0.00000000e+00 2.74527957e-14
2.12059073e+01 1.61837177e-12 2.48642404e-14 0.00000000e+00 1.59350752e-12 0.00000000e+00 2.48711970e-14
2.19156062e+01 1.51767081e-12 2.25264072e-14 0.00000000e+00 1.49514440e-12 0.00000000e+00 2.25323660e-14
2.26490567e+01 1.42162980e-12 2.04083611e-14 0.00000000e+00 1.40122144e-12 0.00000000e+00 2.04134733e-14
2.34070535e+01 1.33028499e-12 1.84894425e-14 0.00000000e+00 1.31179554e-12 0.00000000e+00 1.84938366e-14
2.41904183e+01 1.24504364e-12 1.67509317e-14 0.00000000e+00 1.22829271e-12 0.00000000e+00 1.67547181e-14
2.50000000e+01 1.16633737e-12 1.51758727e-14 0.00000000e+00 1.15116150e-12 0.00000000e+00 1.51791424e-14
2.75422870e+01 9.51885438e-13 1.13497338e-14 0.00000000e+00 9.40535704e-13 0.00000000e+00 1.13518661e-14
3.16227766e+01 6.93819501e-13 7.49893200e-15 0.00000000e+00 6.86320569e-13 0.00000000e+00 7.50010357e-15
3.63078055e+01 4.80831184e-13 4.95462899e-15 0.00000000e+00 4.75876555e-13 0.00000000e+00 4.95526929e-15
4.16869383e+01 3.12656825e-13 3.27357328e-15 0.00000000e+00 3.09383252e-13 0.00000000e+00 3.27391395e-15
4.78630092e+01 1.91271434e-13 2.16287787e-15 0.00000000e+00 1.89108556e-13 0.00000000e+00 2.16305350e-15
5.49540874e+01 1.11584360e-13 1.42902666e-15 0.00000000e+00 1.10155334e-13 0.00000000e+00 1.42911527e-15
6.30957344e+01 6.28758555e-14 9.44162954e-16 0.00000000e+00 6.19316925e-14 0.00000000e+00 9.44207098e-16
7.24435960e+01 3.45703547e-14 6.23809611e-16 0.00000000e+00 3.39465451e-14 0.00000000e+00 6.23831443e-16
8.31763771e+01 1.87024449e-14 4.12150567e-16 0.00000000e+00 1.82902944e-14 0.00000000e+00 4.12161347e-16
9.54992586e+01 1.00230887e-14 2.72306966e-16 0.00000000e+00 9.75078173e-15 0.00000000e+00 2.72312302e-16
1.09647820e+02 5.34304871e-15 1.79912303e-16 0.00000000e+00 5.16313640e-15 0.00000000e+00 1.79914953e-16
1.25892541e+02 2.87236108e-15 1.18867295e-16 0.00000000e+00 2.75349379e-15 0.00000000e+00 1.18868631e-16
1.44543977e+02 1.54747419e-15 7.85350472e-17 0.00000000e+00 1.46893914e-15 0.00000000e+00 7.85357256e-17
1.65958691e+02 7.99960915e-16 5.18877067e-17 0.00000000e+00 7.48073208e-16 0.00000000e+00 5.18880394e-17
1.90546072e+02 4.17302609e-16 3.42819229e-17 0.00000000e+00 3.83020687e-16 0.00000000e+00 3.42820876e-17
2.18776162e+02 2.19149685e-16 2.26498686e-17 0.00000000e+00 1.96499817e-16 0.00000000e+00 2.26499507e-17
2.51188643e+02 1.15709882e-16 1.49646330e-17 0.00000000e+00 1.00745249e-16 0.00000000e+00 1.49646740e-17
2.88403150e+02 6.14172507e-17 9.88704156e-18 0.00000000e+00 5.15302092e-17 0.00000000e+00 9.88706207e-18
3.31131121e+02 3.28672025e-17 6.53230685e-18 0.00000000e+00 2.63348956e-17 0.00000000e+00 6.53231713e-18
3.80189396e+02 1.77435669e-17 4.31585397e-18 0.00000000e+00 1.34277129e-17 0.00000000e+00 4.31585913e-18
4.36515832e+02 9.69007493e-18 2.85145726e-18 0.00000000e+00 6.83861767e-18 0.00000000e+00 2.85145985e-18
5.01187234e+02 5.36101987e-18 1.88393954e-18 0.00000000e+00 3.47708033e-18 0.00000000e+00 1.88394084e-18
5.75439937e+02 3.01029066e-18 1.24470672e-18 0.00000000e+00 1.76558394e-18 0.00000000e+00 1.24470737e-18
6.60693448e+02 1.71784318e-18 8.22369676e-19 0.00000000e+00 8.95473504e-19 0.00000000e+00 8.22370004e-19
7.58577575e+02 9.97029860e-19 5.43334309e-19 0.00000000e+00 4.53695551e-19 0.00000000e+00 5.43334473e-19
8.70963590e+02 5.88576156e-19 3.58977444e-19 0.00000000e+00 2.29598712e-19 0.00000000e+00 3.58977527e-19
1.00000000e+03 1.16057008e-19 0.00000000e+00 0.00000000e+00 1.16057008e-19 0.00000000e+00 0.00000000e+00
