# column 1: lambda (micron)
# column 2: total flux; lambda*F_lambda (W/m2)
# column 3: direct stellar flux; lambda*F_lambda (W/m2)
# column 4: scattered stellar flux; lambda*F_lambda (W/m2)
# column 5: total dust emission flux; lambda*F_lambda (W/m2)
# column 6: dust emission scattered flux; lambda*F_lambda (W/m2)
# column 7: transparent flux; lambda*F_lambda (W/m2)
1.00000000e-03 5.25636810e-13 5.25636674e-13 1.36437217e-19 0.00000000e+00 0.00000000e+00 5.25636674e-13
1.14815362e-03 6.20420042e-13 6.20419813e-13 2.29208131e-19 0.00000000e+00 0.00000000e+00 6.20419813e-13
1.31825674e-03 7.32294652e-13 7.32294308e-13 3.43732926e-19 0.00000000e+00 0.00000000e+00 7.32294308e-13
1.51356125e-03 8.64342581e-13 8.64342083e-13 4.98003486e-19 0.00000000e+00 0.00000000e+00 8.64342083e-13
1.73780083e-03 1.02020172e-12 1.02020080e-12 9.20769690e-19 0.00000000e+00 0.00000000e+00 1.02020080e-12
1.99526231e-03 1.20416588e-12 1.20416405e-12 1.82606659e-18 0.00000000e+00 0.00000000e+00 1.20416405e-12
2.29086765e-03 1.42130242e-12 1.42129968e-12 2.73691796e-18 0.00000000e+00 0.00000000e+00 1.42129968e-12
2.63026799e-03 1.67759430e-12 1.67758934e-12 4.96213182e-18 0.00000000e+00 0.00000000e+00 1.67758934e-12
3.01995172e-03 1.98010244e-12 1.98009332e-12 9.12185453e-18 0.00000000e+00 0.00000000e+00 1.98009332e-12
3.46736850e-03 2.33716003e-12 2.33714500e-12 1.50260926e-17 0.00000000e+00 0.00000000e+00 2.33714500e-12
3.98107171e-03 2.75860610e-12 2.75858048e-12 2.56228685e-17 0.00000000e+00 0.00000000e+00 2.75858048e-12
4.57088190e-03 3.25606430e-12 3.25600946e-12 5.48420738e-17 0.00000000e+00 0.00000000e+00 3.25600946e-12
5.24807460e-03 3.84323242e-12 3.84313516e-12 9.72635720e-17 0.00000000e+00 0.00000000e+00 3.84313516e-12
6.02559586e-03 4.53630550e-12 4.53613173e-12 1.73767232e-16 0.00000000e+00 0.00000000e+00 4.53613173e-12
6.91830971e-03 5.35438127e-12 5.35408989e-12 2.91382406e-16 0.00000000e+00 0.00000000e+00 5.35408989e-12
7.94328235e-03 6.32002397e-12 6.31954278e-12 4.81188161e-16 1.39933750e-303 2.14858798e-306 6.31954278e-12
9.12010839e-03 7.45993528e-12 7.45908676e-12 8.48528127e-16 6.54159816e-265 1.65474165e-267 7.45908676e-12
1.04712855e-02 8.33241712e-12 8.33078048e-12 1.63663980e-15 2.92591971e-231 1.21553576e-233 8.33078048e-12
1.20226443e-02 8.33236992e-12 8.33078048e-12 1.58943996e-15 4.80642344e-202 2.03254665e-204 8.33078048e-12
1.38038426e-02 8.33309573e-12 8.33078048e-12 2.31525883e-15 1.36628724e-176 7.50824699e-179 8.33078048e-12
1.58489319e-02 8.33395329e-12 8.33078048e-12 3.17281457e-15 1.91621470e-154 1.17210825e-156 8.33078048e-12
1.81970086e-02 8.33579454e-12 8.33078048e-12 5.01406663e-15 3.53270995e-135 2.93581902e-137 8.33078048e-12
2.08929613e-02 8.33703836e-12 8.33078048e-12 6.25788069e-15 1.89943360e-118 2.07815031e-120 8.33078048e-12
2.39883292e-02 8.33844115e-12 8.33078048e-12 7.66067234e-15 6.83554307e-104 9.57731614e-106 8.33078048e-12
2.75422870e-02 8.34371945e-12 8.33078048e-12 1.29389741e-14 3.12653940e-91 5.27804244e-93 8.33078048e-12
3.16227766e-02 8.34377003e-12 8.33078048e-12 1.29895520e-14 3.11010855e-80 6.52931479e-82 8.33078048e-12
3.63078055e-02 8.34704944e-12 8.33078048e-12 1.62689694e-14 1.09570365e-70 2.50979049e-72 8.33078048e-12
4.16869383e-02 8.35220078e-12 8.33078048e-12 2.14203027e-14 2.12136556e-62 6.72846645e-64 8.33078048e-12
4.78630092e-02 8.35885491e-12 8.33078048e-12 2.80744311e-14 3.25707989e-55 1.35359486e-56 8.33078048e-12
5.49540874e-02 8.36316595e-12 8.33078048e-12 3.23854774e-14 5.48124280e-49 2.68532485e-50 8.33078048e-12
6.30957344e-02 8.36717848e-12 8.33078048e-12 3.63980059e-14 1.79236756e-43 1.03891789e-44 8.33078048e-12
7.24435960e-02 8.36515017e-12 8.33078048e-12 3.43696990e-14 1.04461813e-38 5.80774721e-40 8.33078048e-12
8.31763771e-02 8.36622061e-12 8.33078048e-12 3.54401298e-14 1.07596209e-34 5.84630992e-36 8.33078048e-12
9.54992586e-02 8.36762990e-12 8.33078048e-12 3.68494207e-14 3.05508134e-31 1.75687377e-32 8.33078048e-12
1.09647820e-01 7.99515121e-12 7.95583672e-12 3.93144961e-14 2.61148078e-28 1.64314538e-29 7.95583672e-12
1.25892541e-01 7.45867548e-12 7.42481883e-12 3.38566483e-14 8.48226818e-26 5.09873351e-27 7.42481883e-12
1.44543977e-01 6.95972108e-12 6.92924411e-12 3.04769735e-14 1.15790770e-23 6.65150484e-25 6.92924411e-12
1.65958691e-01 6.49767604e-12 6.46674687e-12 3.09291719e-14 5.89767905e-22 3.82310082e-23 6.46674687e-12
1.90546072e-01 6.07150064e-12 6.03511933e-12 3.63813016e-14 1.24848680e-20 9.63129071e-22 6.03511933e-12
2.18776162e-01 5.66759104e-12 5.63230107e-12 3.52898268e-14 1.48588434e-19 1.22960024e-20 5.63230107e-12
2.51188643e-01 5.29687725e-12 5.25636919e-12 4.05062398e-14 1.81289832e-18 1.83600128e-19 5.25636919e-12
2.88403150e-01 4.94106880e-12 4.90552916e-12 3.55245381e-14 1.51040385e-17 1.50118182e-18 4.90552916e-12
3.31131121e-01 4.61050362e-12 4.57810618e-12 3.23109460e-14 8.64882153e-17 8.23368008e-18 4.57810618e-12
3.80189396e-01 4.30123322e-12 4.27253728e-12 2.83355728e-14 3.60365281e-16 3.32291248e-17 4.27253728e-12
4.36515832e-01 4.01579202e-12 3.98736380e-12 2.72887512e-14 1.13947299e-15 1.02694989e-16 3.98736380e-12
5.01187234e-01 3.74886252e-12 3.72122441e-12 2.47964559e-14 2.84165166e-15 2.50819222e-16 3.72122441e-12
5.75439937e-01 3.50102336e-12 3.47284869e-12 2.23372007e-14 5.83747077e-15 5.04930139e-16 3.47284869e-12
6.60693448e-01 3.27115788e-12 3.24105097e-12 1.98509354e-14 1.02559711e-14 8.81028311e-16 3.24105097e-12
7.58577575e-01 3.05855256e-12 3.02472476e-12 1.77368810e-14 1.60909219e-14 1.34530828e-15 3.02472476e-12
8.70963590e-01 2.86142695e-12 2.82283739e-12 1.52172973e-14 2.33722654e-14 1.92412663e-15 2.82283739e-12
1.00000000e+00 2.67927148e-12 2.63442513e-12 1.25727086e-14 3.22736368e-14 2.59536178e-15 2.63442513e-12
1.14815362e+00 2.51423582e-12 2.45858859e-12 1.10442803e-14 4.46029518e-14 3.36195549e-15 2.45858859e-12
1.31825674e+00 2.36622075e-12 2.29448837e-12 8.55706437e-15 6.31753130e-14 4.30210079e-15 2.29448837e-12
1.51356125e+00 2.23916659e-12 2.14134114e-12 6.98340979e-15 9.08420339e-14 5.45467339e-15 2.14134114e-12
1.73780083e+00 2.13143815e-12 1.99841583e-12 5.24200131e-15 1.27780318e-13 6.33990140e-15 1.99841583e-12
1.99526231e+00 2.03984646e-12 1.86503017e-12 3.92283968e-15 1.70893452e-13 6.80297772e-15 1.86503017e-12
2.29086765e+00 1.95737487e-12 1.74054743e-12 2.82568441e-15 2.14001755e-13 6.63930471e-15 1.74054743e-12
2.63026799e+00 1.87608539e-12 1.62437337e-12 1.90481753e-15 2.49807201e-13 5.82449759e-15 1.62437337e-12
3.01995172e+00 1.79048722e-12 1.51595343e-12 1.26771279e-15 2.73266072e-13 4.67520098e-15 1.51595343e-12
3.46736850e+00 1.69888327e-12 1.41477006e-12 7.92027198e-16 2.83321182e-13 3.50706650e-15 1.41477006e-12
3.98107171e+00 1.60002444e-12 1.32034025e-12 5.01559642e-16 2.79182634e-13 2.37700656e-15 1.32034025e-12
4.57088190e+00 1.49660784e-12 1.23221321e-12 2.86919861e-16 2.64107703e-13 1.53019216e-15 1.23221321e-12
5.24807460e+00 1.26191178e-12 1.01885146e-12 1.55464753e-16 2.42904849e-13 9.24395736e-16 1.01885146e-12
6.02559586e+00 8.92923710e-13 6.73148485e-13 6.25338981e-17 2.19712691e-13 5.28477442e-16 6.73148485e-13
6.70000000e+00 6.90273520e-13 4.89650796e-13 2.98250883e-17 2.00592898e-13 3.24078078e-16 4.89650796e-13
6.92422916e+00 6.38251402e-13 4.43605145e-13 2.32293267e-17 1.94623028e-13 2.73235215e-16 4.43605145e-13
7.15596261e+00 5.92647478e-13 4.01889522e-13 1.89664822e-17 1.90738989e-13 2.31770954e-16 4.01889522e-13
7.39545150e+00 5.56143343e-13 3.64096743e-13 1.41349629e-17 1.92032465e-13 1.96823836e-16 3.64096743e-13
7.64295536e+00 5.38067466e-13 3.29857910e-13 1.06812018e-17 2.08198875e-13 1.71195898e-16 3.29857910e-13
7.89874245e+00 5.46630591e-13 2.98838820e-13 7.44709956e-18 2.47784324e-13 1.51044710e-16 2.98838820e-13
8.16308998e+00 5.78028417e-13 2.70736695e-13 4.84544068e-18 3.07286877e-13 1.33791826e-16 2.70736695e-13
8.43628443e+00 6.36038040e-13 2.45277229e-13 2.99930827e-18 3.90757812e-13 1.11808251e-16 2.45277229e-13
8.71862190e+00 6.74098848e-13 2.22211915e-13 1.90302614e-18 4.51885031e-13 8.85516963e-17 2.22211915e-13
9.01040836e+00 7.17341156e-13 2.01315610e-13 9.44200644e-19 5.16024602e-13 5.78283034e-17 2.01315610e-13
9.31196005e+00 7.47694779e-13 1.82384346e-13 0.00000000e+00 5.65310433e-13 0.00000000e+00 1.82384346e-13
9.62360379e+00 7.27873487e-13 1.65233336e-13 0.00000000e+00 5.62640151e-13 0.00000000e+00 1.65233336e-13
9.94567731e+00 6.71734885e-13 1.49695167e-13 0.00000000e+00 5.22039718e-13 0.00000000e+00 1.49695167e-13
1.02785297e+01 6.04937870e-13 1.35618173e-13 0.00000000e+00 4.69319697e-13 0.00000000e+00 1.35618173e-13
1.06225216e+01 5.42339877e-13 1.22864947e-13 0.00000000e+00 4.19474929e-13 0.00000000e+00 1.22864947e-13
1.09780260e+01 4.75458355e-13 1.11311006e-13 0.00000000e+00 3.64147349e-13 0.00000000e+00 1.11311006e-13
1.13454280e+01 4.18260693e-13 1.00843571e-13 0.00000000e+00 3.17417122e-13 0.00000000e+00 1.00843571e-13
1.17251259e+01 3.69383790e-13 9.13604705e-14 0.00000000e+00 2.78023320e-13 0.00000000e+00 9.13604705e-14
1.21175312e+01 3.26385609e-13 8.27691389e-14 0.00000000e+00 2.43616470e-13 0.00000000e+00 8.27691389e-14
1.25230691e+01 2.87526444e-13 7.49857166e-14 0.00000000e+00 2.12540727e-13 0.00000000e+00 7.49857166e-14
1.29421791e+01 2.54831762e-13 6.79342298e-14 0.00000000e+00 1.86897533e-13 0.00000000e+00 6.79342298e-14
1.33753155e+01 2.26660984e-13 6.15458488e-14 0.00000000e+00 1.65115135e-13 0.00000000e+00 6.15458488e-14
1.38229477e+01 2.07040134e-13 5.57582167e-14 0.00000000e+00 1.51281918e-13 0.00000000e+00 5.57582167e-14
1.42855609e+01 1.93549244e-13 5.05148403e-14 0.00000000e+00 1.43034404e-13 0.00000000e+00 5.05148403e-14
1.47636563e+01 1.90338143e-13 4.57645392e-14 0.00000000e+00 1.44573604e-13 0.00000000e+00 4.57645392e-14
1.52577522e+01 1.89321326e-13 4.14609457e-14 0.00000000e+00 1.47860380e-13 0.00000000e+00 4.14609457e-14
1.57683840e+01 1.90276076e-13 3.75620523e-14 0.00000000e+00 1.52714024e-13 0.00000000e+00 3.75620523e-14
1.62961051e+01 1.91758942e-13 3.40298020e-14 0.00000000e+00 1.57729140e-13 0.00000000e+00 3.40298020e-14
1.68414875e+01 1.93431160e-13 3.08297166e-14 0.00000000e+00 1.62601443e-13 0.00000000e+00 3.08297166e-14
1.74051222e+01 1.92214036e-13 2.79305599e-14 0.00000000e+00 1.64283476e-13 0.00000000e+00 2.79305599e-14
1.79876201e+01 1.89214710e-13 2.53040334e-14 0.00000000e+00 1.63910676e-13 0.00000000e+00 2.53040334e-14
1.85896125e+01 1.82708214e-13 2.29244994e-14 0.00000000e+00 1.59783715e-13 0.00000000e+00 2.29244994e-14
1.92117518e+01 1.73461797e-13 2.07687314e-14 0.00000000e+00 1.52693066e-13 0.00000000e+00 2.07687314e-14
1.98547123e+01 1.62195948e-13 1.88156870e-14 0.00000000e+00 1.43380261e-13 0.00000000e+00 1.88156870e-14
2.05191907e+01 1.51286425e-13 1.70463024e-14 0.00000000e+00 1.34240123e-13 0.00000000e+00 1.70463024e-14
2.12059073e+01 1.40682885e-13 1.54433068e-14 0.00000000e+00 1.25239578e-13 0.00000000e+00 1.54433068e-14
2.19156062e+01 1.31335459e-13 1.39910532e-14 0.00000000e+00 1.17344405e-13 0.00000000e+00 1.39910532e-14
2.26490567e+01 1.22872230e-13 1.26753663e-14 0.00000000e+00 1.10196864e-13 0.00000000e+00 1.26753663e-14
2.34070535e+01 1.15014368e-13 1.14834036e-14 0.00000000e+00 1.03530964e-13 0.00000000e+00 1.14834036e-14
2.41904183e+01 1.07838367e-13 1.04035303e-14 0.00000000e+00 9.74348364e-14 0.00000000e+00 1.04035303e-14
2.50000000e+01 1.01144046e-13 9.42520591e-15 0.00000000e+00 9.17188397e-14 0.00000000e+00 9.42520591e-15
2.75422870e+01 8.38165666e-14 7.04872996e-15 0.00000000e+00 7.67678367e-14 0.00000000e+00 7.04872996e-15
3.16227766e+01 6.32727055e-14 4.65704970e-15 0.00000000e+00 5.86156558e-14 0.00000000e+00 4.65704970e-15
3.63078055e+01 4.60059697e-14 3.07688223e-15 0.00000000e+00 4.29290875e-14 0.00000000e+00 3.07688223e-15
4.16869383e+01 3.16701198e-14 2.03287593e-15 0.00000000e+00 2.96372439e-14 0.00000000e+00 2.03287593e-15
4.78630092e+01 2.05872167e-14 1.34310781e-15 0.00000000e+00 1.92441089e-14 0.00000000e+00 1.34310781e-15
5.49540874e+01 1.27887757e-14 8.87382527e-16 0.00000000e+00 1.19013932e-14 0.00000000e+00 8.87382527e-16
6.30957344e+01 7.67300639e-15 5.86287821e-16 0.00000000e+00 7.08671857e-15 0.00000000e+00 5.86287821e-16
7.24435960e+01 4.48580192e-15 3.87356522e-16 0.00000000e+00 4.09844540e-15 0.00000000e+00 3.87356522e-16
8.31763771e+01 2.57502007e-15 2.55923916e-16 0.00000000e+00 2.31909615e-15 0.00000000e+00 2.55923916e-16
9.54992586e+01 1.46149579e-15 1.69087255e-16 0.00000000e+00 1.29240854e-15 0.00000000e+00 1.69087255e-16
1.09647820e+02 8.23461976e-16 1.11714841e-16 0.00000000e+00 7.11747135e-16 0.00000000e+00 1.11714841e-16
1.25892541e+02 4.66711333e-16 7.38092637e-17 0.00000000e+00 3.92902070e-16 0.00000000e+00 7.38092637e-17
1.44543977e+02 2.64739640e-16 4.87652969e-17 0.00000000e+00 2.15974343e-16 0.00000000e+00 4.87652969e-17
1.65958691e+02 1.45219913e-16 3.22189122e-17 0.00000000e+00 1.13001001e-16 0.00000000e+00 3.22189122e-17
1.90546072e+02 8.05156765e-17 2.12868242e-17 0.00000000e+00 5.92288523e-17 0.00000000e+00 2.12868242e-17
2.18776162e+02 4.50712037e-17 1.40640653e-17 0.00000000e+00 3.10071385e-17 0.00000000e+00 1.40640653e-17
2.51188643e+02 2.54703857e-17 9.29203577e-18 0.00000000e+00 1.61783499e-17 0.00000000e+00 9.29203577e-18
2.88403150e+02 1.45406108e-17 6.13918715e-18 0.00000000e+00 8.40142361e-18 0.00000000e+00 6.13918715e-18
3.31131121e+02 8.40631655e-18 4.05612073e-18 0.00000000e+00 4.35019583e-18 0.00000000e+00 4.05612073e-18
3.80189396e+02 4.92327119e-18 2.67985239e-18 0.00000000e+00 2.24341881e-18 0.00000000e+00 2.67985239e-18
4.36515832e+02 2.92437147e-18 1.77056092e-18 0.00000000e+00 1.15381055e-18 0.00000000e+00 1.77056092e-18
5.01187234e+02 1.76145285e-18 1.16979800e-18 0.00000000e+00 5.91654856e-19 0.00000000e+00 1.16979800e-18
5.75439937e+02 1.07552145e-18 7.72877871e-19 0.00000000e+00 3.02643578e-19 0.00000000e+00 7.72877871e-19
6.60693448e+02 6.65110159e-19 5.10635346e-19 0.00000000e+00 1.54474814e-19 0.00000000e+00 5.10635346e-19
7.58577575e+02 4.16070895e-19 3.37373427e-19 0.00000000e+00 7.86974674e-20 0.00000000e+00 3.37373427e-19
8.70963590e+02 2.62916729e-19 2.22900413e-19 0.00000000e+00 4.00163165e-20 0.00000000e+00 2.22900413e-19
1.00000000e+03 2.03111566e-20 0.00000000e+00 0.00000000e+00 2.03111566e-20 0.00000000e+00 0.00000000e+00
