# column 1: lambda (micron)
# column 2: total flux; lambda*F_lambda (W/m2)
# column 3: direct stellar flux; lambda*F_lambda (W/m2)
# column 4: scattered stellar flux; lambda*F_lambda (W/m2)
# column 5: total dust emission flux; lambda*F_lambda (W/m2)
# column 6: dust emission scattered flux; lambda*F_lambda (W/m2)
# column 7: transparent flux; lambda*F_lambda (W/m2)
1.00000000e-03 1.04634426e-12 1.04634360e-12 6.53114707e-19 0.00000000e+00 0.00000000e+00 1.04634360e-12
1.14815362e-03 1.23502195e-12 1.23502095e-12 1.00201576e-18 0.00000000e+00 0.00000000e+00 1.23502095e-12
1.31825674e-03 1.45772224e-12 1.45772071e-12 1.52880749e-18 0.00000000e+00 0.00000000e+00 1.45772071e-12
1.51356125e-03 1.72058013e-12 1.72057784e-12 2.29458641e-18 0.00000000e+00 0.00000000e+00 1.72057784e-12
1.73780083e-03 2.03083767e-12 2.03083353e-12 4.14741511e-18 0.00000000e+00 0.00000000e+00 2.03083353e-12
1.99526231e-03 2.39704169e-12 2.39703472e-12 6.97024754e-18 0.00000000e+00 0.00000000e+00 2.39703472e-12
2.29086765e-03 2.82928039e-12 2.82926954e-12 1.08458330e-17 0.00000000e+00 0.00000000e+00 2.82926954e-12
2.63026799e-03 3.33946668e-12 3.33944522e-12 2.14559722e-17 0.00000000e+00 0.00000000e+00 3.33944522e-12
3.01995172e-03 3.94165140e-12 3.94161611e-12 3.52922450e-17 0.00000000e+00 0.00000000e+00 3.94161611e-12
3.46736850e-03 4.65243080e-12 4.65237083e-12 5.99688074e-17 0.00000000e+00 0.00000000e+00 4.65237083e-12
3.98107171e-03 5.49138151e-12 5.49128930e-12 9.22161582e-17 0.00000000e+00 0.00000000e+00 5.49128930e-12
4.57088190e-03 6.48170031e-12 6.48148207e-12 2.18239593e-16 0.00000000e+00 0.00000000e+00 6.48148207e-12
5.24807460e-03 7.65061119e-12 7.65022704e-12 3.84150396e-16 0.00000000e+00 0.00000000e+00 7.65022704e-12
6.02559586e-03 9.03038824e-12 9.02972084e-12 6.67392100e-16 0.00000000e+00 0.00000000e+00 9.02972084e-12
6.91830971e-03 1.06589923e-11 1.06579658e-11 1.02644967e-15 0.00000000e+00 0.00000000e+00 1.06579658e-11
7.94328235e-03 1.25815625e-11 1.25798170e-11 1.74544199e-15 5.94905487e-304 5.58977177e-307 1.25798170e-11
9.12010839e-03 1.48509976e-11 1.48482176e-11 2.77997749e-15 2.55551581e-265 1.16878866e-267 1.48482176e-11
1.04712855e-02 1.65872115e-11 1.65834298e-11 3.78168685e-15 1.05670168e-231 3.91892209e-234 1.65834298e-11
1.20226443e-02 1.66074887e-11 1.65834298e-11 2.40588718e-14 1.62262872e-202 4.13346301e-205 1.65834298e-11
1.38038426e-02 1.65927936e-11 1.65834298e-11 9.36381974e-15 4.36021477e-177 2.22809193e-179 1.65834298e-11
1.58489319e-02 1.65949106e-11 1.65834298e-11 1.14807874e-14 5.81053934e-155 2.75599431e-157 1.65834298e-11
1.81970086e-02 1.65998128e-11 1.65834298e-11 1.63830580e-14 1.02613817e-135 7.81115294e-138 1.65834298e-11
2.08929613e-02 1.66061499e-11 1.65834298e-11 2.27201049e-14 5.31362625e-119 5.64271219e-121 1.65834298e-11
2.39883292e-02 1.66151411e-11 1.65834298e-11 3.17112701e-14 1.84915708e-104 2.43617923e-106 1.65834298e-11
2.75422870e-02 1.66226799e-11 1.65834298e-11 3.92501487e-14 8.22646962e-92 1.39349873e-93 1.65834298e-11
3.16227766e-02 1.66366144e-11 1.65834298e-11 5.31845657e-14 7.97903856e-81 1.65842684e-82 1.65834298e-11
3.63078055e-02 1.66447766e-11 1.65834298e-11 6.13468324e-14 2.75513787e-71 6.69688307e-73 1.65834298e-11
4.16869383e-02 1.66687293e-11 1.65834298e-11 8.52995059e-14 5.23397380e-63 1.72754710e-64 1.65834298e-11
4.78630092e-02 1.67003608e-11 1.65834298e-11 1.16931061e-13 7.92331009e-56 3.55149223e-57 1.65834298e-11
5.49540874e-02 1.67340587e-11 1.65834298e-11 1.50628946e-13 1.32047019e-49 7.40907156e-51 1.65834298e-11
6.30957344e-02 1.67642102e-11 1.65834298e-11 1.80780458e-13 4.28806555e-44 2.93907932e-45 1.65834298e-11
7.24435960e-02 1.67654964e-11 1.65834298e-11 1.82066592e-13 2.48446198e-39 1.71397459e-40 1.65834298e-11
8.31763771e-02 1.67628141e-11 1.65834298e-11 1.79384362e-13 2.53256658e-35 1.70155530e-36 1.65834298e-11
9.54992586e-02 1.67723150e-11 1.65834298e-11 1.88885209e-13 7.12801436e-32 5.02053130e-33 1.65834298e-11
1.09647820e-01 1.60329960e-11 1.58370587e-11 1.95937229e-13 6.02896170e-29 4.48205011e-30 1.58370587e-11
1.25892541e-01 1.49484763e-11 1.47800032e-11 1.68473112e-13 1.93951118e-26 1.35347595e-27 1.47800032e-11
1.44543977e-01 1.39437165e-11 1.37935015e-11 1.50215001e-13 2.62870481e-24 1.75252548e-25 1.37935015e-11
1.65958691e-01 1.30328381e-11 1.28728446e-11 1.59993458e-13 1.33023607e-22 9.71027795e-24 1.28728446e-11
1.90546072e-01 1.21944767e-11 1.20136376e-11 1.80839079e-13 2.81524100e-21 2.49120301e-22 1.20136376e-11
2.18776162e-01 1.13990851e-11 1.12117790e-11 1.87306090e-13 3.34496908e-20 3.17899297e-21 1.12117790e-11
2.51188643e-01 1.06823075e-11 1.04634409e-11 2.18866116e-13 4.07128325e-19 4.68536318e-20 1.04634409e-11
2.88403150e-01 9.96527095e-12 9.76505125e-12 2.00216314e-13 3.37769847e-18 3.80360352e-19 9.76505125e-12
3.31131121e-01 9.28996042e-12 9.11327608e-12 1.76665047e-13 1.92984751e-17 2.09814229e-18 9.11327608e-12
3.80189396e-01 8.66670711e-12 8.50500410e-12 1.61622497e-13 8.05158288e-17 8.62723152e-18 8.50500410e-12
4.36515832e-01 8.09232868e-12 7.93733165e-12 1.54739145e-13 2.57884047e-16 2.81908402e-17 7.93733165e-12
5.01187234e-01 7.55302511e-12 7.40754890e-12 1.44799107e-13 6.77099059e-16 8.07552570e-17 7.40754890e-12
5.75439937e-01 7.05040312e-12 6.91312687e-12 1.35656716e-13 1.61953370e-15 2.30734158e-16 6.91312687e-12
6.60693448e-01 6.58055086e-12 6.45170538e-12 1.24883621e-13 3.96185470e-15 7.08965460e-16 6.45170538e-12
7.58577575e-01 6.14960614e-12 6.02108180e-12 1.18149663e-13 1.03746838e-14 2.19804653e-15 6.02108180e-12
8.70963590e-01 5.75312587e-12 5.61920048e-12 1.06406452e-13 2.75189392e-14 6.21556436e-15 5.61920048e-12
1.00000000e+00 5.40755027e-12 5.24414302e-12 9.59725884e-14 6.74346641e-14 1.49053243e-14 5.24414302e-12
1.14815362e+00 5.12841286e-12 4.89411902e-12 8.30962344e-14 1.51197601e-13 3.10720356e-14 4.89411902e-12
1.31825674e+00 4.94457223e-12 4.56745763e-12 6.86993387e-14 3.08415260e-13 5.64174557e-14 4.56745763e-12
1.51356125e+00 4.88181518e-12 4.26259947e-12 5.52066614e-14 5.64009041e-13 9.01721389e-14 4.26259947e-12
1.73780083e+00 4.94406502e-12 3.97808929e-12 4.39074647e-14 9.22068268e-13 1.21993901e-13 3.97808929e-12
1.99526231e+00 5.09744538e-12 3.71256894e-12 3.31972862e-14 1.35167915e-12 1.44218221e-13 3.71256894e-12
2.29086765e+00 5.28642305e-12 3.46477093e-12 2.38571105e-14 1.79779501e-12 1.45140588e-13 3.46477093e-12
2.63026799e+00 5.45007789e-12 3.23351237e-12 1.62856306e-14 2.20027989e-12 1.28964332e-13 3.23351237e-12
3.01995172e+00 5.52584442e-12 3.01768933e-12 1.07319480e-14 2.49742314e-12 1.01915528e-13 3.01768933e-12
3.46736850e+00 5.49186043e-12 2.81627154e-12 6.68620949e-15 2.66890267e-12 7.38148396e-14 2.81627154e-12
3.98107171e+00 5.33314220e-12 2.62829753e-12 4.09713879e-15 2.70074753e-12 4.88382280e-14 2.62829753e-12
4.57088190e+00 5.07304117e-12 2.45286997e-12 2.45082575e-15 2.61772037e-12 3.00256447e-14 2.45286997e-12
5.24807460e+00 4.48788305e-12 2.02814751e-12 1.25841620e-15 2.45847712e-12 1.76164158e-14 2.02814751e-12
6.02559586e+00 3.61353628e-12 1.33998377e-12 5.06977101e-16 2.27304554e-12 9.67198014e-15 1.33998377e-12
6.70000000e+00 3.08803930e-12 9.74709347e-13 2.42542607e-16 2.11308741e-12 5.89820405e-15 9.74709347e-13
6.92422916e+00 2.94251968e-12 8.83049889e-13 1.88417428e-16 2.05928137e-12 4.98137385e-15 8.83049889e-13
7.15596261e+00 2.82968952e-12 8.00009879e-13 1.49823324e-16 2.02952981e-12 4.22900273e-15 8.00009879e-13
7.39545150e+00 2.76975761e-12 7.24778763e-13 1.14281434e-16 2.04486456e-12 3.59985626e-15 7.24778763e-13
7.64295536e+00 2.85911961e-12 6.56622211e-13 8.37936496e-17 2.20241360e-12 3.17596182e-15 6.56622211e-13
7.89874245e+00 3.16343966e-12 5.94874946e-13 5.69754343e-17 2.56850774e-12 2.81400301e-15 5.94874946e-13
8.16308998e+00 3.64134848e-12 5.38934254e-13 3.70306322e-17 3.10237720e-12 2.50728106e-15 5.38934254e-13
8.43628443e+00 4.31119330e-12 4.88254098e-13 2.21088768e-17 3.82291709e-12 2.10262808e-15 4.88254098e-13
8.71862190e+00 4.77739384e-12 4.42339790e-13 1.30843567e-17 4.33504096e-12 1.60425648e-15 4.42339790e-13
9.01040836e+00 5.24803008e-12 4.00743158e-13 5.86480799e-18 4.84728105e-12 9.83261067e-16 4.00743158e-13
9.31196005e+00 5.63517350e-12 3.63058180e-13 0.00000000e+00 5.27211532e-12 0.00000000e+00 3.63058180e-13
9.62360379e+00 5.57773842e-12 3.28917012e-13 0.00000000e+00 5.24882141e-12 0.00000000e+00 3.28917012e-13
9.94567731e+00 5.23902796e-12 2.97986401e-13 0.00000000e+00 4.94104156e-12 0.00000000e+00 2.97986401e-13
1.02785297e+01 4.81552481e-12 2.69964435e-13 0.00000000e+00 4.54556037e-12 0.00000000e+00 2.69964435e-13
1.06225216e+01 4.40684919e-12 2.44577592e-13 0.00000000e+00 4.16227160e-12 0.00000000e+00 2.44577592e-13
1.09780260e+01 3.93558235e-12 2.21578069e-13 0.00000000e+00 3.71400428e-12 0.00000000e+00 2.21578069e-13
1.13454280e+01 3.53215562e-12 2.00741370e-13 0.00000000e+00 3.33141425e-12 0.00000000e+00 2.00741370e-13
1.17251259e+01 3.17841905e-12 1.81864106e-13 0.00000000e+00 2.99655495e-12 0.00000000e+00 1.81864106e-13
1.21175312e+01 2.85072974e-12 1.64762018e-13 0.00000000e+00 2.68596772e-12 0.00000000e+00 1.64762018e-13
1.25230691e+01 2.55465200e-12 1.49268171e-13 0.00000000e+00 2.40538382e-12 0.00000000e+00 1.49268171e-13
1.29421791e+01 2.30875987e-12 1.35231331e-13 0.00000000e+00 2.17352854e-12 0.00000000e+00 1.35231331e-13
1.33753155e+01 2.09441517e-12 1.22514483e-13 0.00000000e+00 1.97190069e-12 0.00000000e+00 1.22514483e-13
1.38229477e+01 1.95722170e-12 1.10993499e-13 0.00000000e+00 1.84622821e-12 0.00000000e+00 1.10993499e-13
1.42855609e+01 1.88401094e-12 1.00555922e-13 0.00000000e+00 1.78345502e-12 0.00000000e+00 1.00555922e-13
1.47636563e+01 1.91209956e-12 9.10998706e-14 0.00000000e+00 1.82099969e-12 0.00000000e+00 9.10998706e-14
1.52577522e+01 1.96819317e-12 8.25330452e-14 0.00000000e+00 1.88566013e-12 0.00000000e+00 8.25330452e-14
1.57683840e+01 2.04536936e-12 7.47718247e-14 0.00000000e+00 1.97059753e-12 0.00000000e+00 7.47718247e-14
1.62961051e+01 2.12795971e-12 6.77404517e-14 0.00000000e+00 2.06021926e-12 0.00000000e+00 6.77404517e-14
1.68414875e+01 2.21190394e-12 6.13702932e-14 0.00000000e+00 2.15053365e-12 0.00000000e+00 6.13702932e-14
1.74051222e+01 2.26176522e-12 5.55991699e-14 0.00000000e+00 2.20616605e-12 0.00000000e+00 5.55991699e-14
1.79876201e+01 2.29121427e-12 5.03707500e-14 0.00000000e+00 2.24084352e-12 0.00000000e+00 5.03707500e-14
1.85896125e+01 2.27147957e-12 4.56339988e-14 0.00000000e+00 2.22584557e-12 0.00000000e+00 4.56339988e-14
1.92117518e+01 2.21261850e-12 4.13426810e-14 0.00000000e+00 2.17127582e-12 0.00000000e+00 4.13426810e-14
1.98547123e+01 2.13145477e-12 3.74549090e-14 0.00000000e+00 2.09399986e-12 0.00000000e+00 3.74549090e-14
2.05191907e+01 2.03474292e-12 3.39327342e-14 0.00000000e+00 2.00081019e-12 0.00000000e+00 3.39327342e-14
2.12059073e+01 1.94681434e-12 3.07417768e-14 0.00000000e+00 1.91607257e-12 0.00000000e+00 3.07417768e-14
2.19156062e+01 1.86352240e-12 2.78508898e-14 0.00000000e+00 1.83567151e-12 0.00000000e+00 2.78508898e-14
2.26490567e+01 1.78545231e-12 2.52318552e-14 0.00000000e+00 1.76022045e-12 0.00000000e+00 2.52318552e-14
2.34070535e+01 1.71195641e-12 2.28591087e-14 0.00000000e+00 1.68909730e-12 0.00000000e+00 2.28591087e-14
2.41904183e+01 1.64029134e-12 2.07094900e-14 0.00000000e+00 1.61958185e-12 0.00000000e+00 2.07094900e-14
2.50000000e+01 1.57380595e-12 1.87620165e-14 0.00000000e+00 1.55504393e-12 0.00000000e+00 1.87620165e-14
2.75422870e+01 1.37732655e-12 1.40313526e-14 0.00000000e+00 1.36329520e-12 0.00000000e+00 1.40313526e-14
3.16227766e+01 1.10395231e-12 9.27042274e-15 0.00000000e+00 1.09468189e-12 0.00000000e+00 9.27042274e-15
3.63078055e+01 8.37854755e-13 6.12490756e-15 0.00000000e+00 8.31729847e-13 0.00000000e+00 6.12490756e-15
4.16869383e+01 5.91900841e-13 4.04668630e-15 0.00000000e+00 5.87854155e-13 0.00000000e+00 4.04668630e-15
4.78630092e+01 3.89819013e-13 2.67361912e-15 0.00000000e+00 3.87145394e-13 0.00000000e+00 2.67361912e-15
5.49540874e+01 2.42967100e-13 1.76644264e-15 0.00000000e+00 2.41200657e-13 0.00000000e+00 1.76644264e-15
6.30957344e+01 1.45131556e-13 1.16707708e-15 0.00000000e+00 1.43964479e-13 0.00000000e+00 1.16707708e-15
7.24435960e+01 8.38379339e-14 7.71080178e-16 0.00000000e+00 8.30668537e-14 0.00000000e+00 7.71080178e-16
8.31763771e+01 4.73032002e-14 5.09447621e-16 0.00000000e+00 4.67937526e-14 0.00000000e+00 5.09447621e-16
9.54992586e+01 2.62605074e-14 3.36588705e-16 0.00000000e+00 2.59239187e-14 0.00000000e+00 3.36588705e-16
1.09647820e+02 1.44036874e-14 2.22381952e-16 0.00000000e+00 1.41813054e-14 0.00000000e+00 2.22381952e-16
1.25892541e+02 7.92191098e-15 1.46926299e-16 0.00000000e+00 7.77498469e-15 0.00000000e+00 1.46926299e-16
1.44543977e+02 4.34226600e-15 9.70732430e-17 0.00000000e+00 4.24519276e-15 0.00000000e+00 9.70732430e-17
1.65958691e+02 2.27232274e-15 6.41356556e-17 0.00000000e+00 2.20818709e-15 0.00000000e+00 6.41356556e-17
1.90546072e+02 1.19338258e-15 4.23740075e-17 0.00000000e+00 1.15100857e-15 0.00000000e+00 4.23740075e-17
2.18776162e+02 6.27528122e-16 2.79962291e-17 0.00000000e+00 5.99531893e-16 0.00000000e+00 2.79962291e-17
2.51188643e+02 3.29902851e-16 1.84969251e-17 0.00000000e+00 3.11405926e-16 0.00000000e+00 1.84969251e-17
2.88403150e+02 1.73277316e-16 1.22207972e-17 0.00000000e+00 1.61056518e-16 0.00000000e+00 1.22207972e-17
3.31131121e+02 9.11700855e-17 8.07420067e-18 0.00000000e+00 8.30958848e-17 0.00000000e+00 8.07420067e-18
3.80189396e+02 4.80517595e-17 5.33457148e-18 0.00000000e+00 4.27171880e-17 0.00000000e+00 5.33457148e-18
4.36515832e+02 2.54331903e-17 3.52451642e-18 0.00000000e+00 2.19086739e-17 0.00000000e+00 3.52451642e-18
5.01187234e+02 1.35355897e-17 2.32862491e-18 0.00000000e+00 1.12069648e-17 0.00000000e+00 2.32862491e-18
5.75439937e+02 7.25880721e-18 1.53850722e-18 0.00000000e+00 5.72029999e-18 0.00000000e+00 1.53850722e-18
6.60693448e+02 3.93075884e-18 1.01648164e-18 0.00000000e+00 2.91427720e-18 0.00000000e+00 1.01648164e-18
7.58577575e+02 2.15383551e-18 6.71582760e-19 0.00000000e+00 1.48225275e-18 0.00000000e+00 6.71582760e-19
8.70963590e+02 1.19633110e-18 4.43710329e-19 0.00000000e+00 7.52620768e-19 0.00000000e+00 4.43710329e-19
1.00000000e+03 3.81532614e-19 0.00000000e+00 0.00000000e+00 3.81532614e-19 0.00000000e+00 0.00000000e+00
