# column 1: lambda (micron)
# column 2: total flux; lambda*F_lambda (W/m2)
# column 3: direct stellar flux; lambda*F_lambda (W/m2)
# column 4: scattered stellar flux; lambda*F_lambda (W/m2)
# column 5: total dust emission flux; lambda*F_lambda (W/m2)
# column 6: dust emission scattered flux; lambda*F_lambda (W/m2)
# column 7: transparent flux; lambda*F_lambda (W/m2)
1.00000000e-03 1.07335803e-12 1.07335627e-12 1.76409961e-18 0.00000000e+00 0.00000000e+00 1.07335627e-12
1.14815362e-03 1.26710607e-12 1.26690456e-12 2.01517712e-16 0.00000000e+00 0.00000000e+00 1.26690456e-12
1.31825674e-03 1.49592797e-12 1.49535359e-12 5.74382889e-16 0.00000000e+00 0.00000000e+00 1.49535359e-12
1.51356125e-03 1.76501181e-12 1.76499670e-12 1.51098348e-17 0.00000000e+00 0.00000000e+00 1.76499670e-12
1.73780083e-03 2.08430623e-12 2.08326203e-12 1.04420763e-15 0.00000000e+00 0.00000000e+00 2.08326203e-12
1.99526231e-03 2.46883548e-12 2.45891716e-12 9.91831817e-15 0.00000000e+00 0.00000000e+00 2.45891716e-12
2.29086765e-03 2.90248817e-12 2.90231066e-12 1.77503579e-16 0.00000000e+00 0.00000000e+00 2.90231066e-12
2.63026799e-03 3.42798642e-12 3.42565717e-12 2.32925124e-15 0.00000000e+00 0.00000000e+00 3.42565717e-12
3.01995172e-03 4.05176315e-12 4.04337385e-12 8.38930388e-15 0.00000000e+00 0.00000000e+00 4.04337385e-12
3.46736850e-03 4.78527042e-12 4.77247759e-12 1.27928302e-14 0.00000000e+00 0.00000000e+00 4.77247759e-12
3.98107171e-03 5.65033156e-12 5.63305378e-12 1.72777825e-14 0.00000000e+00 0.00000000e+00 5.63305378e-12
4.57088190e-03 6.66729117e-12 6.64880962e-12 1.84815534e-14 0.00000000e+00 0.00000000e+00 6.64880962e-12
5.24807460e-03 7.86025875e-12 7.84772720e-12 1.25315523e-14 0.00000000e+00 0.00000000e+00 7.84772720e-12
6.02559586e-03 9.27111743e-12 9.26283435e-12 8.28307536e-15 0.00000000e+00 0.00000000e+00 9.26283435e-12
6.91830971e-03 1.09556904e-11 1.09331145e-11 2.25758979e-14 0.00000000e+00 0.00000000e+00 1.09331145e-11
7.94328235e-03 1.29744097e-11 1.29045807e-11 6.98290043e-14 5.23347746e-303 5.80265719e-305 1.29045807e-11
9.12010839e-03 1.52917387e-11 1.52315429e-11 6.01957780e-14 2.61492188e-264 1.81877085e-266 1.52315429e-11
1.04712855e-02 1.70823134e-11 1.70115517e-11 7.07616983e-14 1.24797012e-230 1.33874125e-232 1.70115517e-11
1.20226443e-02 1.70903542e-11 1.70115517e-11 7.88024680e-14 2.16100574e-201 1.94520645e-203 1.70115517e-11
1.38038426e-02 1.71045032e-11 1.70115517e-11 9.29514465e-14 6.45002425e-176 7.54537150e-178 1.70115517e-11
1.58489319e-02 1.71113347e-11 1.70115517e-11 9.97829497e-14 9.44929231e-154 1.41109610e-155 1.70115517e-11
1.81970086e-02 1.71239089e-11 1.70115517e-11 1.12357136e-13 1.80651926e-134 3.22381191e-136 1.70115517e-11
2.08929613e-02 1.71368324e-11 1.70115517e-11 1.25280695e-13 1.00322279e-117 2.16674180e-119 1.70115517e-11
2.39883292e-02 1.71555441e-11 1.70115517e-11 1.43992365e-13 3.71907994e-103 1.01889408e-104 1.70115517e-11
2.75422870e-02 1.71776249e-11 1.70115517e-11 1.66073226e-13 1.74566397e-90 5.73713156e-92 1.70115517e-11
3.16227766e-02 1.72003264e-11 1.70115517e-11 1.88774709e-13 1.77577421e-79 6.93193581e-81 1.70115517e-11
3.63078055e-02 1.72179119e-11 1.70115517e-11 2.06360187e-13 6.38128518e-70 2.75119334e-71 1.70115517e-11
4.16869383e-02 1.72676396e-11 1.70115517e-11 2.56087930e-13 1.26056084e-61 7.07760815e-63 1.70115517e-11
4.78630092e-02 1.73322026e-11 1.70115517e-11 3.20650869e-13 1.97109122e-54 1.40779558e-55 1.70115517e-11
5.49540874e-02 1.73776495e-11 1.70115517e-11 3.66097754e-13 3.36989089e-48 2.82717221e-49 1.70115517e-11
6.30957344e-02 1.74304541e-11 1.70115517e-11 4.18902426e-13 1.11070127e-42 1.05250223e-43 1.70115517e-11
7.24435960e-02 1.74111639e-11 1.70115517e-11 3.99612168e-13 6.46192089e-38 5.68012472e-39 1.70115517e-11
8.31763771e-02 1.73988009e-11 1.70115517e-11 3.87249214e-13 6.71215563e-34 5.80568480e-35 1.70115517e-11
9.54992586e-02 1.74098101e-11 1.70115517e-11 3.98258336e-13 1.92374362e-30 1.74167121e-31 1.70115517e-11
1.09647820e-01 1.66503301e-11 1.62459122e-11 4.04417919e-13 1.66642932e-27 1.64146141e-28 1.62459122e-11
1.25892541e-01 1.55334288e-11 1.51615674e-11 3.71861362e-13 5.47463360e-25 5.34407984e-26 1.51615674e-11
1.44543977e-01 1.44902020e-11 1.41495980e-11 3.40603986e-13 7.53335532e-23 7.19611092e-24 1.41495980e-11
1.65958691e-01 1.35553247e-11 1.32051732e-11 3.50151564e-13 3.87736061e-21 4.12748891e-22 1.32051732e-11
1.90546072e-01 1.27067002e-11 1.23237846e-11 3.82915506e-13 8.30078369e-20 1.04456394e-20 1.23237846e-11
2.18776162e-01 1.18730693e-11 1.15012250e-11 3.71843265e-13 9.87757286e-19 1.28975465e-19 1.15012250e-11
2.51188643e-01 1.11561879e-11 1.07335677e-11 4.22607897e-13 1.23008860e-17 1.97181882e-18 1.07335677e-11
2.88403150e-01 1.04053105e-11 1.00171482e-11 3.88059258e-13 1.02994766e-16 1.63598916e-17 1.00171482e-11
3.31131121e-01 9.70581128e-12 9.34854667e-12 3.56673264e-13 5.91346571e-16 9.12685747e-17 9.34854667e-12
3.80189396e-01 9.05189785e-12 8.72457139e-12 3.24856325e-13 2.47013266e-15 3.72845219e-16 8.72457139e-12
4.36515832e-01 8.45388907e-12 8.14224377e-12 3.03798487e-13 7.84681072e-15 1.17744935e-15 8.14224377e-12
5.01187234e-01 7.89917619e-12 7.59878402e-12 2.80690445e-13 1.97017253e-14 2.94875135e-15 7.59878402e-12
5.75439937e-01 7.40289733e-12 7.09159786e-12 2.70223050e-13 4.10764123e-14 6.19005817e-15 7.09159786e-12
6.60693448e-01 6.93987550e-12 6.61826421e-12 2.46733189e-13 7.48781010e-14 1.17318334e-14 6.61826421e-12
7.58577575e-01 6.52855280e-12 6.17652353e-12 2.24704176e-13 1.27325094e-13 2.12179468e-14 6.17652353e-12
8.70963590e-01 6.17861394e-12 5.76426715e-12 2.00705747e-13 2.13641042e-13 3.88861896e-14 5.76426715e-12
1.00000000e+00 5.91825560e-12 5.37952711e-12 1.75968387e-13 3.62760105e-13 7.12494945e-14 5.37952711e-12
1.14815362e+00 5.80598533e-12 5.02046681e-12 1.52552910e-13 6.32965607e-13 1.27422043e-13 5.02046681e-12
1.31825674e+00 5.90211113e-12 4.68537225e-12 1.20847447e-13 1.09589144e-12 2.10512288e-13 4.68537225e-12
1.51356125e+00 6.28851087e-12 4.37264380e-12 9.86811699e-14 1.81718590e-12 3.18187312e-13 4.37264380e-12
1.73780083e+00 6.95163795e-12 4.08078863e-12 7.77595373e-14 2.79308978e-12 4.26202216e-13 4.08078863e-12
1.99526231e+00 7.76979737e-12 3.80841354e-12 5.92627125e-14 3.90212111e-12 5.00281902e-13 3.80841354e-12
2.29086765e+00 8.59008708e-12 3.55421832e-12 4.40773593e-14 4.99179141e-12 5.11566698e-13 3.55421832e-12
2.63026799e+00 9.23490040e-12 3.31698953e-12 3.03782587e-14 5.88753261e-12 4.58428325e-13 3.31698953e-12
3.01995172e+00 9.60460453e-12 3.09559474e-12 2.01741574e-14 6.48883563e-12 3.64361509e-13 3.09559474e-12
3.46736850e+00 9.67007793e-12 2.88897711e-12 1.29421475e-14 6.76815868e-12 2.62042766e-13 2.88897711e-12
3.98107171e+00 9.41376679e-12 2.69615031e-12 8.00131054e-15 6.70961516e-12 1.71554669e-13 2.69615031e-12
4.57088190e+00 8.89202304e-12 2.51619387e-12 4.73388403e-15 6.37109528e-12 1.02834867e-13 2.51619387e-12
5.24807460e+00 7.95781835e-12 2.08050667e-12 2.44230019e-15 5.87486938e-12 5.82144454e-14 2.08050667e-12
6.02559586e+00 6.71046275e-12 1.37457712e-12 9.72800365e-16 5.33491283e-12 3.13369226e-14 1.37457712e-12
6.70000000e+00 5.88107347e-12 9.99872685e-13 4.64092523e-16 4.88073669e-12 1.84881794e-14 9.99872685e-13
6.92422916e+00 5.64554571e-12 9.05846924e-13 3.65788514e-16 4.73933300e-12 1.56072433e-14 9.05846924e-13
7.15596261e+00 5.46273612e-12 8.20663132e-13 2.90482442e-16 4.64178251e-12 1.31179228e-14 8.20663132e-13
7.39545150e+00 5.39334053e-12 7.43489831e-13 2.23440302e-16 4.64962726e-12 1.11219964e-14 7.43489831e-13
7.64295536e+00 5.64568927e-12 6.73573732e-13 1.63627530e-16 4.97195192e-12 9.78198814e-15 6.73573732e-13
7.89874245e+00 6.33738964e-12 6.10232385e-13 1.12482259e-16 5.72704477e-12 8.81820683e-15 6.10232385e-13
8.16308998e+00 7.33040650e-12 5.52847515e-13 7.32576977e-17 6.77748573e-12 7.95024844e-15 5.52847515e-13
8.43628443e+00 8.58755217e-12 5.00858987e-13 4.35804016e-17 8.08664960e-12 6.67563823e-15 5.00858987e-13
8.71862190e+00 9.38701551e-12 4.53759343e-13 2.48641075e-17 8.93323130e-12 5.12351086e-15 4.53759343e-13
9.01040836e+00 1.01396815e-11 4.11088843e-13 9.47961280e-18 9.72858320e-12 2.98397121e-15 4.11088843e-13
9.31196005e+00 1.06743318e-11 3.72430980e-13 0.00000000e+00 1.03019008e-11 0.00000000e+00 3.72430980e-13
9.62360379e+00 1.05357849e-11 3.37408415e-13 0.00000000e+00 1.01983765e-11 0.00000000e+00 3.37408415e-13
9.94567731e+00 9.88304061e-12 3.05679292e-13 0.00000000e+00 9.57736132e-12 0.00000000e+00 3.05679292e-13
1.02785297e+01 9.22020614e-12 2.76933904e-13 0.00000000e+00 8.94327224e-12 0.00000000e+00 2.76933904e-13
1.06225216e+01 8.46696665e-12 2.50891667e-13 0.00000000e+00 8.21607498e-12 0.00000000e+00 2.50891667e-13
1.09780260e+01 7.64627622e-12 2.27298384e-13 0.00000000e+00 7.41897784e-12 0.00000000e+00 2.27298384e-13
1.13454280e+01 6.89839023e-12 2.05923759e-13 0.00000000e+00 6.69246647e-12 0.00000000e+00 2.05923759e-13
1.17251259e+01 6.21508544e-12 1.86559155e-13 0.00000000e+00 6.02852628e-12 0.00000000e+00 1.86559155e-13
1.21175312e+01 5.59853389e-12 1.69015555e-13 0.00000000e+00 5.42951834e-12 0.00000000e+00 1.69015555e-13
1.25230691e+01 5.00962597e-12 1.53121715e-13 0.00000000e+00 4.85650426e-12 0.00000000e+00 1.53121715e-13
1.29421791e+01 4.50343819e-12 1.38722496e-13 0.00000000e+00 4.36471569e-12 0.00000000e+00 1.38722496e-13
1.33753155e+01 4.06174146e-12 1.25677347e-13 0.00000000e+00 3.93606411e-12 0.00000000e+00 1.25677347e-13
1.38229477e+01 3.76595219e-12 1.13858934e-13 0.00000000e+00 3.65209326e-12 0.00000000e+00 1.13858934e-13
1.42855609e+01 3.58435319e-12 1.03151898e-13 0.00000000e+00 3.48120129e-12 0.00000000e+00 1.03151898e-13
1.47636563e+01 3.61036602e-12 9.34517274e-14 0.00000000e+00 3.51691429e-12 0.00000000e+00 9.34517274e-14
1.52577522e+01 3.68045684e-12 8.46637387e-14 0.00000000e+00 3.59579310e-12 0.00000000e+00 8.46637387e-14
1.57683840e+01 3.77906422e-12 7.67021526e-14 0.00000000e+00 3.70236207e-12 0.00000000e+00 7.67021526e-14
1.62961051e+01 3.89124443e-12 6.94892560e-14 0.00000000e+00 3.82175517e-12 0.00000000e+00 6.94892560e-14
1.68414875e+01 3.99828055e-12 6.29546439e-14 0.00000000e+00 3.93532590e-12 0.00000000e+00 6.29546439e-14
1.74051222e+01 4.03613799e-12 5.70345319e-14 0.00000000e+00 3.97910346e-12 0.00000000e+00 5.70345319e-14
1.79876201e+01 4.02874856e-12 5.16711337e-14 0.00000000e+00 3.97707742e-12 0.00000000e+00 5.16711337e-14
1.85896125e+01 3.95180425e-12 4.68120974e-14 0.00000000e+00 3.90499215e-12 0.00000000e+00 4.68120974e-14
1.92117518e+01 3.79433156e-12 4.24099939e-14 0.00000000e+00 3.75192156e-12 0.00000000e+00 4.24099939e-14
1.98547123e+01 3.59638971e-12 3.84218542e-14 0.00000000e+00 3.55796786e-12 0.00000000e+00 3.84218542e-14
2.05191907e+01 3.37899504e-12 3.48087501e-14 0.00000000e+00 3.34418629e-12 0.00000000e+00 3.48087501e-14
2.12059073e+01 3.17378306e-12 3.15354141e-14 0.00000000e+00 3.14224764e-12 0.00000000e+00 3.15354141e-14
2.19156062e+01 2.98675353e-12 2.85698952e-14 0.00000000e+00 2.95818363e-12 0.00000000e+00 2.85698952e-14
2.26490567e+01 2.81364394e-12 2.58832470e-14 0.00000000e+00 2.78776069e-12 0.00000000e+00 2.58832470e-14
2.34070535e+01 2.64762633e-12 2.34492452e-14 0.00000000e+00 2.62417709e-12 0.00000000e+00 2.34492452e-14
2.41904183e+01 2.49063220e-12 2.12441313e-14 0.00000000e+00 2.46938807e-12 0.00000000e+00 2.12441313e-14
2.50000000e+01 2.34523128e-12 1.92463813e-14 0.00000000e+00 2.32598490e-12 0.00000000e+00 1.92463813e-14
2.75422870e+01 1.94639626e-12 1.43935895e-14 0.00000000e+00 1.93200267e-12 0.00000000e+00 1.43935895e-14
3.16227766e+01 1.44997116e-12 9.50975027e-15 0.00000000e+00 1.44046141e-12 0.00000000e+00 9.50975027e-15
3.63078055e+01 1.02416919e-12 6.28302969e-15 0.00000000e+00 1.01788616e-12 0.00000000e+00 6.28302969e-15
4.16869383e+01 6.77434313e-13 4.15115655e-15 0.00000000e+00 6.73283156e-13 0.00000000e+00 4.15115655e-15
4.78630092e+01 4.20223288e-13 2.74264194e-15 0.00000000e+00 4.17480646e-13 0.00000000e+00 2.74264194e-15
5.49540874e+01 2.48139151e-13 1.81204556e-15 0.00000000e+00 2.46327106e-13 0.00000000e+00 1.81204556e-15
6.30957344e+01 1.41377448e-13 1.19720663e-15 0.00000000e+00 1.40180242e-13 0.00000000e+00 1.19720663e-15
7.24435960e+01 7.84589304e-14 7.90986575e-16 0.00000000e+00 7.76679438e-14 0.00000000e+00 7.90986575e-16
8.31763771e+01 4.27822090e-14 5.22599647e-16 0.00000000e+00 4.22596094e-14 0.00000000e+00 5.22599647e-16
9.54992586e+01 2.30767365e-14 3.45278163e-16 0.00000000e+00 2.27314583e-14 0.00000000e+00 3.45278163e-16
1.09647820e+02 1.23592816e-14 2.28123020e-16 0.00000000e+00 1.21311585e-14 0.00000000e+00 2.28123020e-16
1.25892541e+02 6.66680305e-15 1.50719385e-16 0.00000000e+00 6.51608367e-15 0.00000000e+00 1.50719385e-16
1.44543977e+02 3.59741246e-15 9.95793099e-17 0.00000000e+00 3.49783315e-15 0.00000000e+00 9.95793099e-17
1.65958691e+02 1.85671398e-15 6.57913976e-17 0.00000000e+00 1.79092259e-15 0.00000000e+00 6.57913976e-17
1.90546072e+02 9.64804569e-16 4.34679453e-17 0.00000000e+00 9.21336623e-16 0.00000000e+00 4.34679453e-17
2.18776162e+02 5.03370522e-16 2.87189867e-17 0.00000000e+00 4.74651535e-16 0.00000000e+00 2.87189867e-17
2.51188643e+02 2.63215309e-16 1.89744463e-17 0.00000000e+00 2.44240862e-16 0.00000000e+00 1.89744463e-17
2.88403150e+02 1.37860627e-16 1.25362924e-17 0.00000000e+00 1.25324335e-16 0.00000000e+00 1.25362924e-17
3.31131121e+02 7.25072488e-17 8.28264623e-18 0.00000000e+00 6.42246026e-17 0.00000000e+00 8.28264623e-18
3.80189396e+02 3.82982924e-17 5.47229010e-18 0.00000000e+00 3.28260023e-17 0.00000000e+00 5.47229010e-18
4.36515832e+02 2.03685219e-17 3.61550621e-18 0.00000000e+00 1.67530157e-17 0.00000000e+00 3.61550621e-18
5.01187234e+02 1.09223190e-17 2.38874127e-18 0.00000000e+00 8.53357771e-18 0.00000000e+00 2.38874127e-18
5.75439937e+02 5.91823612e-18 1.57822570e-18 0.00000000e+00 4.34001041e-18 0.00000000e+00 1.57822570e-18
6.60693448e+02 3.24692944e-18 1.04272338e-18 0.00000000e+00 2.20420606e-18 0.00000000e+00 1.04272338e-18
7.58577575e+02 1.80702758e-18 6.88920507e-19 0.00000000e+00 1.11810707e-18 0.00000000e+00 6.88920507e-19
8.70963590e+02 1.02158570e-18 4.55165265e-19 0.00000000e+00 5.66420432e-19 0.00000000e+00 4.55165265e-19
1.00000000e+03 2.86571964e-19 0.00000000e+00 0.00000000e+00 2.86571964e-19 0.00000000e+00 0.00000000e+00
