# column 1: lambda (micron)
# column 2: total flux; lambda*F_lambda (W/m2)
# column 3: direct stellar flux; lambda*F_lambda (W/m2)
# column 4: scattered stellar flux; lambda*F_lambda (W/m2)
# column 5: total dust emission flux; lambda*F_lambda (W/m2)
# column 6: dust emission scattered flux; lambda*F_lambda (W/m2)
# column 7: transparent flux; lambda*F_lambda (W/m2)
1.00000000e-03 1.04634447e-12 1.04634360e-12 8.67466889e-19 0.00000000e+00 0.00000000e+00 1.04634360e-12
1.14815362e-03 1.23502226e-12 1.23502095e-12 1.31346797e-18 0.00000000e+00 0.00000000e+00 1.23502095e-12
1.31825674e-03 1.45772267e-12 1.45772071e-12 1.96290353e-18 0.00000000e+00 0.00000000e+00 1.45772071e-12
1.51356125e-03 1.72058089e-12 1.72057784e-12 3.05066193e-18 0.00000000e+00 0.00000000e+00 1.72057784e-12
1.73780083e-03 2.03083904e-12 2.03083353e-12 5.51215156e-18 0.00000000e+00 0.00000000e+00 2.03083353e-12
1.99526231e-03 2.39704397e-12 2.39703472e-12 9.25020455e-18 0.00000000e+00 0.00000000e+00 2.39703472e-12
2.29086765e-03 2.82928393e-12 2.82926954e-12 1.43859337e-17 0.00000000e+00 0.00000000e+00 2.82926954e-12
2.63026799e-03 3.33947336e-12 3.33944522e-12 2.81400095e-17 0.00000000e+00 0.00000000e+00 3.33944522e-12
3.01995172e-03 3.94166139e-12 3.94161611e-12 4.52852468e-17 0.00000000e+00 0.00000000e+00 3.94161611e-12
3.46736850e-03 4.65244597e-12 4.65237083e-12 7.51422595e-17 0.00000000e+00 0.00000000e+00 4.65237083e-12
3.98107171e-03 5.49140266e-12 5.49128930e-12 1.13359246e-16 0.00000000e+00 0.00000000e+00 5.49128930e-12
4.57088190e-03 6.48176002e-12 6.48148207e-12 2.77948946e-16 0.00000000e+00 0.00000000e+00 6.48148207e-12
5.24807460e-03 7.65071841e-12 7.65022704e-12 4.91374572e-16 0.00000000e+00 0.00000000e+00 7.65022704e-12
6.02559586e-03 9.03057194e-12 9.02972084e-12 8.51098830e-16 0.00000000e+00 0.00000000e+00 9.02972084e-12
6.91830971e-03 1.06597849e-11 1.06579658e-11 1.81908943e-15 0.00000000e+00 0.00000000e+00 1.06579658e-11
7.94328235e-03 1.25819825e-11 1.25798170e-11 2.16548786e-15 5.14277904e-304 3.39409277e-306 1.25798170e-11
9.12010839e-03 1.48518299e-11 1.48482176e-11 3.61223756e-15 2.89549462e-265 2.30110226e-267 1.48482176e-11
1.04712855e-02 1.65882255e-11 1.65834298e-11 4.79568692e-15 1.54146845e-231 3.43011364e-233 1.65834298e-11
1.20226443e-02 1.65905145e-11 1.65834298e-11 7.08475971e-15 2.90970453e-202 5.99212625e-204 1.65834298e-11
1.38038426e-02 1.65978594e-11 1.65834298e-11 1.44296129e-14 9.29792392e-177 1.55103940e-178 1.65834298e-11
1.58489319e-02 1.66037776e-11 1.65834298e-11 2.03478180e-14 1.45733748e-154 3.17762884e-156 1.65834298e-11
1.81970086e-02 1.66096077e-11 1.65834298e-11 2.61779266e-14 2.94031016e-135 6.62426305e-137 1.65834298e-11
2.08929613e-02 1.66148244e-11 1.65834298e-11 3.13946571e-14 1.72415647e-118 5.17425019e-120 1.65834298e-11
2.39883292e-02 1.66232840e-11 1.65834298e-11 3.98541769e-14 6.67622674e-104 2.48322508e-105 1.65834298e-11
2.75422870e-02 1.66339580e-11 1.65834298e-11 5.05282553e-14 3.25424163e-91 1.38802281e-92 1.65834298e-11
3.16227766e-02 1.66484447e-11 1.65834298e-11 6.50149390e-14 3.40198706e-80 1.49029610e-81 1.65834298e-11
3.63078055e-02 1.66594594e-11 1.65834298e-11 7.60296071e-14 1.25954610e-70 6.25633475e-72 1.65834298e-11
4.16869383e-02 1.66884292e-11 1.65834298e-11 1.04999464e-13 2.54555994e-62 1.56121140e-63 1.65834298e-11
4.78630092e-02 1.67278757e-11 1.65834298e-11 1.44445906e-13 4.04647581e-55 2.92930529e-56 1.65834298e-11
5.49540874e-02 1.67644131e-11 1.65834298e-11 1.80983365e-13 7.01271381e-49 5.74348305e-50 1.65834298e-11
6.30957344e-02 1.67986875e-11 1.65834298e-11 2.15257696e-13 2.32797594e-43 2.00503964e-44 1.65834298e-11
7.24435960e-02 1.67894199e-11 1.65834298e-11 2.05990155e-13 1.36455054e-38 1.02682020e-39 1.65834298e-11
8.31763771e-02 1.67878332e-11 1.65834298e-11 2.04403383e-13 1.43538585e-34 1.05784178e-35 1.65834298e-11
9.54992586e-02 1.68005821e-11 1.65834298e-11 2.17152345e-13 4.15506965e-31 3.18833704e-32 1.65834298e-11
1.09647820e-01 1.60623003e-11 1.58370587e-11 2.25241594e-13 3.64875459e-28 3.16295979e-29 1.58370587e-11
1.25892541e-01 1.49814562e-11 1.47800032e-11 2.01453022e-13 1.21696709e-25 1.10171776e-26 1.47800032e-11
1.44543977e-01 1.39756411e-11 1.37935015e-11 1.82139626e-13 1.69642703e-23 1.52556468e-24 1.37935015e-11
1.65958691e-01 1.30608314e-11 1.28728446e-11 1.87986817e-13 8.78492810e-22 8.74357435e-23 1.28728446e-11
1.90546072e-01 1.22290146e-11 1.20136376e-11 2.15376951e-13 1.87735850e-20 2.13316872e-21 1.20136376e-11
2.18776162e-01 1.14230671e-11 1.12117790e-11 2.11287909e-13 2.22703834e-19 2.53545059e-20 1.12117790e-11
2.51188643e-01 1.07215744e-11 1.04634409e-11 2.58130707e-13 2.78102248e-18 3.89752905e-19 1.04634409e-11
2.88403150e-01 9.99864231e-12 9.76505125e-12 2.33567605e-13 2.34547593e-17 3.28502578e-18 9.76505125e-12
3.31131121e-01 9.32460801e-12 9.11327608e-12 2.11196238e-13 1.35689883e-16 1.87325549e-17 9.11327608e-12
3.80189396e-01 8.69644478e-12 8.50500410e-12 1.90871010e-13 5.69676239e-16 7.67101694e-17 8.50500410e-12
4.36515832e-01 8.12194158e-12 7.93733165e-12 1.82792501e-13 1.81743247e-15 2.42755518e-16 7.93733165e-12
5.01187234e-01 7.58223780e-12 7.40754890e-12 1.70071007e-13 4.61789202e-15 6.17764380e-16 7.40754890e-12
5.75439937e-01 7.08206664e-12 6.91312687e-12 1.59083140e-13 9.85663613e-15 1.34204712e-15 6.91312687e-12
6.60693448e-01 6.62071192e-12 6.45170538e-12 1.49920409e-13 1.90861270e-14 2.79985605e-15 6.45170538e-12
7.58577575e-01 6.19589004e-12 6.02108180e-12 1.38286160e-13 3.65220866e-14 6.00830179e-15 6.02108180e-12
8.70963590e-01 5.81748890e-12 5.61920048e-12 1.26041740e-13 7.22466783e-14 1.33027454e-14 5.61920048e-12
1.00000000e+00 5.50266525e-12 5.24414302e-12 1.12302824e-13 1.46219411e-13 2.83741511e-14 5.24414302e-12
1.14815362e+00 5.28280646e-12 4.89411902e-12 9.57296464e-14 2.92957787e-13 5.54610357e-14 4.89411902e-12
1.31825674e+00 5.20694654e-12 4.56745763e-12 7.83804630e-14 5.61108452e-13 9.80958277e-14 4.56745763e-12
1.51356125e+00 5.31331087e-12 4.26259947e-12 6.31029080e-14 9.87608488e-13 1.53837269e-13 4.26259947e-12
1.73780083e+00 5.59310323e-12 3.97808929e-12 5.03398669e-14 1.56467407e-12 2.09598225e-13 3.97808929e-12
1.99526231e+00 5.97662756e-12 3.71256894e-12 3.83278977e-14 2.22573072e-12 2.45932365e-13 3.71256894e-12
2.29086765e+00 6.35825270e-12 3.46477093e-12 2.78915080e-14 2.86559026e-12 2.48648693e-13 3.46477093e-12
2.63026799e+00 6.62255832e-12 3.23351237e-12 1.91967000e-14 3.36984924e-12 2.19051489e-13 3.23351237e-12
3.01995172e+00 6.71366031e-12 3.01768933e-12 1.25038590e-14 3.68346712e-12 1.71618163e-13 3.01768933e-12
3.46736850e+00 6.61535130e-12 2.81627154e-12 8.05147932e-15 3.79102827e-12 1.22444580e-13 2.81627154e-12
3.98107171e+00 6.33557903e-12 2.62829753e-12 4.91101588e-15 3.70237048e-12 7.89246372e-14 2.62829753e-12
4.57088190e+00 5.92848170e-12 2.45286997e-12 2.89372663e-15 3.47271800e-12 4.72020948e-14 2.45286997e-12
5.24807460e+00 5.18561269e-12 2.02814751e-12 1.50530235e-15 3.15595987e-12 2.67121012e-14 2.02814751e-12
6.02559586e+00 4.16640482e-12 1.33998377e-12 5.90139477e-16 2.82583091e-12 1.43357778e-14 1.33998377e-12
6.70000000e+00 3.54727927e-12 9.74709347e-13 2.87382267e-16 2.57228254e-12 8.52671919e-15 9.74709347e-13
6.92422916e+00 3.37271212e-12 8.83049889e-13 2.26095905e-16 2.48943614e-12 7.15062267e-15 8.83049889e-13
7.15596261e+00 3.23480823e-12 8.00009879e-13 1.75110342e-16 2.43462324e-12 6.00724373e-15 8.00009879e-13
7.39545150e+00 3.16807375e-12 7.24778763e-13 1.35008450e-16 2.44315998e-12 5.12635407e-15 7.24778763e-13
7.64295536e+00 3.28549522e-12 6.56622211e-13 9.99629223e-17 2.62877305e-12 4.50312059e-15 6.56622211e-13
7.89874245e+00 3.67423025e-12 5.94874946e-13 7.04159423e-17 3.07928489e-12 4.08473972e-15 5.94874946e-13
8.16308998e+00 4.25898980e-12 5.38934254e-13 4.78239858e-17 3.72000772e-12 3.67899559e-15 5.38934254e-13
8.43628443e+00 5.05057346e-12 4.88254098e-13 2.88720613e-17 4.56229049e-12 3.18313533e-15 4.88254098e-13
8.71862190e+00 5.56082836e-12 4.42339790e-13 1.71899384e-17 5.11847138e-12 2.47825928e-15 4.42339790e-13
9.01040836e+00 6.08055381e-12 4.00743158e-13 7.17548168e-18 5.67980348e-12 1.49799857e-15 4.00743158e-13
9.31196005e+00 6.44427658e-12 3.63058180e-13 0.00000000e+00 6.08121840e-12 0.00000000e+00 3.63058180e-13
9.62360379e+00 6.33646299e-12 3.28917012e-13 0.00000000e+00 6.00754598e-12 0.00000000e+00 3.28917012e-13
9.94567731e+00 5.92331713e-12 2.97986401e-13 0.00000000e+00 5.62533072e-12 0.00000000e+00 2.97986401e-13
1.02785297e+01 5.41431854e-12 2.69964435e-13 0.00000000e+00 5.14435411e-12 0.00000000e+00 2.69964435e-13
1.06225216e+01 4.93723487e-12 2.44577592e-13 0.00000000e+00 4.69265728e-12 0.00000000e+00 2.44577592e-13
1.09780260e+01 4.38434293e-12 2.21578069e-13 0.00000000e+00 4.16276486e-12 0.00000000e+00 2.21578069e-13
1.13454280e+01 3.90204435e-12 2.00741370e-13 0.00000000e+00 3.70130298e-12 0.00000000e+00 2.00741370e-13
1.17251259e+01 3.48939493e-12 1.81864106e-13 0.00000000e+00 3.30753082e-12 0.00000000e+00 1.81864106e-13
1.21175312e+01 3.10559294e-12 1.64762018e-13 0.00000000e+00 2.94083093e-12 0.00000000e+00 1.64762018e-13
1.25230691e+01 2.75378237e-12 1.49268171e-13 0.00000000e+00 2.60451420e-12 0.00000000e+00 1.49268171e-13
1.29421791e+01 2.45918150e-12 1.35231331e-13 0.00000000e+00 2.32395017e-12 0.00000000e+00 1.35231331e-13
1.33753155e+01 2.20539000e-12 1.22514483e-13 0.00000000e+00 2.08287552e-12 0.00000000e+00 1.22514483e-13
1.38229477e+01 2.03573816e-12 1.10993499e-13 0.00000000e+00 1.92474466e-12 0.00000000e+00 1.10993499e-13
1.42855609e+01 1.93396127e-12 1.00555922e-13 0.00000000e+00 1.83340535e-12 0.00000000e+00 1.00555922e-13
1.47636563e+01 1.94500360e-12 9.10998706e-14 0.00000000e+00 1.85390373e-12 0.00000000e+00 9.10998706e-14
1.52577522e+01 1.98264529e-12 8.25330452e-14 0.00000000e+00 1.90011225e-12 0.00000000e+00 8.25330452e-14
1.57683840e+01 2.04041081e-12 7.47718247e-14 0.00000000e+00 1.96563899e-12 0.00000000e+00 7.47718247e-14
1.62961051e+01 2.10063202e-12 6.77404517e-14 0.00000000e+00 2.03289157e-12 0.00000000e+00 6.77404517e-14
1.68414875e+01 2.15973335e-12 6.13702932e-14 0.00000000e+00 2.09836306e-12 0.00000000e+00 6.13702932e-14
1.74051222e+01 2.18427703e-12 5.55991699e-14 0.00000000e+00 2.12867786e-12 0.00000000e+00 5.55991699e-14
1.79876201e+01 2.18554485e-12 5.03707500e-14 0.00000000e+00 2.13517410e-12 0.00000000e+00 5.03707500e-14
1.85896125e+01 2.14174685e-12 4.56339988e-14 0.00000000e+00 2.09611285e-12 0.00000000e+00 4.56339988e-14
1.92117518e+01 2.05876842e-12 4.13426810e-14 0.00000000e+00 2.01742573e-12 0.00000000e+00 4.13426810e-14
1.98547123e+01 1.95009134e-12 3.74549090e-14 0.00000000e+00 1.91263643e-12 0.00000000e+00 3.74549090e-14
2.05191907e+01 1.83544441e-12 3.39327342e-14 0.00000000e+00 1.80151168e-12 0.00000000e+00 3.39327342e-14
2.12059073e+01 1.72646319e-12 3.07417768e-14 0.00000000e+00 1.69572141e-12 0.00000000e+00 3.07417768e-14
2.19156062e+01 1.62688657e-12 2.78508898e-14 0.00000000e+00 1.59903569e-12 0.00000000e+00 2.78508898e-14
2.26490567e+01 1.53454472e-12 2.52318552e-14 0.00000000e+00 1.50931286e-12 0.00000000e+00 2.52318552e-14
2.34070535e+01 1.44887425e-12 2.28591087e-14 0.00000000e+00 1.42601514e-12 0.00000000e+00 2.28591087e-14
2.41904183e+01 1.36817985e-12 2.07094900e-14 0.00000000e+00 1.34747036e-12 0.00000000e+00 2.07094900e-14
2.50000000e+01 1.29187164e-12 1.87620165e-14 0.00000000e+00 1.27310962e-12 0.00000000e+00 1.87620165e-14
2.75422870e+01 1.08443235e-12 1.40313526e-14 0.00000000e+00 1.07040100e-12 0.00000000e+00 1.40313526e-14
3.16227766e+01 8.24040085e-13 9.27042274e-15 0.00000000e+00 8.14769663e-13 0.00000000e+00 9.27042274e-15
3.63078055e+01 5.94261896e-13 6.12490756e-15 0.00000000e+00 5.88136989e-13 0.00000000e+00 6.12490756e-15
4.16869383e+01 4.01340963e-13 4.04668630e-15 0.00000000e+00 3.97294277e-13 0.00000000e+00 4.04668630e-15
4.78630092e+01 2.54054754e-13 2.67361912e-15 0.00000000e+00 2.51381135e-13 0.00000000e+00 2.67361912e-15
5.49540874e+01 1.52943007e-13 1.76644264e-15 0.00000000e+00 1.51176565e-13 0.00000000e+00 1.76644264e-15
6.30957344e+01 8.87046853e-14 1.16707708e-15 0.00000000e+00 8.75376082e-14 0.00000000e+00 1.16707708e-15
7.24435960e+01 5.00305154e-14 7.71080178e-16 0.00000000e+00 4.92594352e-14 0.00000000e+00 7.71080178e-16
8.31763771e+01 2.76910988e-14 5.09447621e-16 0.00000000e+00 2.71816512e-14 0.00000000e+00 5.09447621e-16
9.54992586e+01 1.51397270e-14 3.36588705e-16 0.00000000e+00 1.48031383e-14 0.00000000e+00 3.36588705e-16
1.09647820e+02 8.20857681e-15 2.22381952e-16 0.00000000e+00 7.98619486e-15 0.00000000e+00 2.22381952e-16
1.25892541e+02 4.47680934e-15 1.46926299e-16 0.00000000e+00 4.32988304e-15 0.00000000e+00 1.46926299e-16
1.44543977e+02 2.44015009e-15 9.70732430e-17 0.00000000e+00 2.34307685e-15 0.00000000e+00 9.70732430e-17
1.65958691e+02 1.27257203e-15 6.41356556e-17 0.00000000e+00 1.20843638e-15 0.00000000e+00 6.41356556e-17
1.90546072e+02 6.67963682e-16 4.23740075e-17 0.00000000e+00 6.25589675e-16 0.00000000e+00 4.23740075e-17
2.18776162e+02 3.52021913e-16 2.79962291e-17 0.00000000e+00 3.24025684e-16 0.00000000e+00 2.79962291e-17
2.51188643e+02 1.86008454e-16 1.84969251e-17 0.00000000e+00 1.67511529e-16 0.00000000e+00 1.84969251e-17
2.88403150e+02 9.85188230e-17 1.22207972e-17 0.00000000e+00 8.62980257e-17 0.00000000e+00 1.22207972e-17
3.31131121e+02 5.24523236e-17 8.07420067e-18 0.00000000e+00 4.43781229e-17 0.00000000e+00 8.07420067e-18
3.80189396e+02 2.80848345e-17 5.33457148e-18 0.00000000e+00 2.27502631e-17 0.00000000e+00 5.33457148e-18
4.36515832e+02 1.51652736e-17 3.52451642e-18 0.00000000e+00 1.16407572e-17 0.00000000e+00 3.52451642e-18
5.01187234e+02 8.27137914e-18 2.32862491e-18 0.00000000e+00 5.94275423e-18 0.00000000e+00 2.32862491e-18
5.75439937e+02 4.56671539e-18 1.53850722e-18 0.00000000e+00 3.02820817e-18 0.00000000e+00 1.53850722e-18
6.60693448e+02 2.55701787e-18 1.01648164e-18 0.00000000e+00 1.54053623e-18 0.00000000e+00 1.01648164e-18
7.58577575e+02 1.45416517e-18 6.71582760e-19 0.00000000e+00 7.82582407e-19 0.00000000e+00 6.71582760e-19
8.70963590e+02 8.40653833e-19 4.43710329e-19 0.00000000e+00 3.96943504e-19 0.00000000e+00 4.43710329e-19
1.00000000e+03 2.01045239e-19 0.00000000e+00 0.00000000e+00 2.01045239e-19 0.00000000e+00 0.00000000e+00
