# column 1: lambda (micron)
# column 2: total flux; lambda*F_lambda (W/m2)
# column 3: direct stellar flux; lambda*F_lambda (W/m2)
# column 4: scattered stellar flux; lambda*F_lambda (W/m2)
# column 5: total dust emission flux; lambda*F_lambda (W/m2)
# column 6: dust emission scattered flux; lambda*F_lambda (W/m2)
# column 7: transparent flux; lambda*F_lambda (W/m2)
1.00000000e-03 5.25637267e-13 5.25636674e-13 5.92831603e-19 0.00000000e+00 0.00000000e+00 5.25636674e-13
1.14815362e-03 6.20420729e-13 6.20419813e-13 9.16506174e-19 0.00000000e+00 0.00000000e+00 6.20419813e-13
1.31825674e-03 7.32295663e-13 7.32294308e-13 1.35512812e-18 0.00000000e+00 0.00000000e+00 7.32294308e-13
1.51356125e-03 8.64344066e-13 8.64342083e-13 1.98348892e-18 0.00000000e+00 0.00000000e+00 8.64342083e-13
1.73780083e-03 1.02020437e-12 1.02020080e-12 3.57100549e-18 0.00000000e+00 0.00000000e+00 1.02020080e-12
1.99526231e-03 1.20417037e-12 1.20416405e-12 6.31525931e-18 0.00000000e+00 0.00000000e+00 1.20416405e-12
2.29086765e-03 1.42130972e-12 1.42129968e-12 1.00354378e-17 0.00000000e+00 0.00000000e+00 1.42129968e-12
2.63026799e-03 1.67761247e-12 1.67758934e-12 2.31259293e-17 0.00000000e+00 0.00000000e+00 1.67758934e-12
3.01995172e-03 1.98012805e-12 1.98009332e-12 3.47322270e-17 0.00000000e+00 0.00000000e+00 1.98009332e-12
3.46736850e-03 2.33720116e-12 2.33714500e-12 5.61516863e-17 0.00000000e+00 0.00000000e+00 2.33714500e-12
3.98107171e-03 2.75866858e-12 2.75858048e-12 8.81024606e-17 0.00000000e+00 0.00000000e+00 2.75858048e-12
4.57088190e-03 3.25620406e-12 3.25600946e-12 1.94599156e-16 0.00000000e+00 0.00000000e+00 3.25600946e-12
5.24807460e-03 3.84348122e-12 3.84313516e-12 3.46063469e-16 0.00000000e+00 0.00000000e+00 3.84313516e-12
6.02559586e-03 4.53683373e-12 4.53613173e-12 7.01998777e-16 0.00000000e+00 0.00000000e+00 4.53613173e-12
6.91830971e-03 5.35507601e-12 5.35408989e-12 9.86122978e-16 0.00000000e+00 0.00000000e+00 5.35408989e-12
7.94328235e-03 6.32121282e-12 6.31954278e-12 1.67003338e-15 1.31574842e-303 1.96598221e-306 6.31954278e-12
9.12010839e-03 7.46200057e-12 7.45908676e-12 2.91381701e-15 5.70277300e-265 1.05372777e-267 7.45908676e-12
1.04712855e-02 8.33485396e-12 8.33078048e-12 4.07348651e-15 2.38653957e-231 5.33561603e-234 8.33078048e-12
1.20226443e-02 8.33648772e-12 8.33078048e-12 5.70724454e-15 3.71545608e-202 2.06368178e-204 8.33078048e-12
1.38038426e-02 8.33892250e-12 8.33078048e-12 8.14202313e-15 1.00396308e-176 5.60643631e-179 8.33078048e-12
1.58489319e-02 8.34233796e-12 8.33078048e-12 1.15574891e-14 1.35004231e-154 9.67869931e-157 8.33078048e-12
1.81970086e-02 8.34556668e-12 8.33078048e-12 1.47862028e-14 2.39790909e-135 2.31449991e-137 8.33078048e-12
2.08929613e-02 8.35192220e-12 8.33078048e-12 2.11417210e-14 1.24972293e-118 1.71927201e-120 8.33078048e-12
2.39883292e-02 8.36070294e-12 8.33078048e-12 2.99224667e-14 4.37478320e-104 7.68975504e-106 8.33078048e-12
2.75422870e-02 8.37055288e-12 8.33078048e-12 3.97724037e-14 1.95797905e-91 4.57508301e-93 8.33078048e-12
3.16227766e-02 8.37694256e-12 8.33078048e-12 4.61620855e-14 1.90681192e-80 5.27583589e-82 8.33078048e-12
3.63078055e-02 8.38353794e-12 8.33078048e-12 5.27574614e-14 6.60475494e-71 2.06934038e-72 8.33078048e-12
4.16869383e-02 8.40353260e-12 8.33078048e-12 7.27521216e-14 1.25882069e-62 5.11103488e-64 8.33078048e-12
4.78630092e-02 8.41473711e-12 8.33078048e-12 8.39566346e-14 1.90618824e-55 9.63308869e-57 8.33078048e-12
5.49540874e-02 8.42957140e-12 8.33078048e-12 9.87909252e-14 3.17019533e-49 1.83661445e-50 8.33078048e-12
6.30957344e-02 8.43721132e-12 8.33078048e-12 1.06430844e-13 1.02464483e-43 6.64854372e-45 8.33078048e-12
7.24435960e-02 8.43168860e-12 8.33078048e-12 1.00908129e-13 5.92469130e-39 3.71442125e-40 8.33078048e-12
8.31763771e-02 8.42620515e-12 8.33078048e-12 9.54246708e-14 6.04503243e-35 3.64482200e-36 8.33078048e-12
9.54992586e-02 8.42896992e-12 8.33078048e-12 9.81894494e-14 1.70176451e-31 1.06545255e-32 8.33078048e-12
1.09647820e-01 8.06248066e-12 7.95583672e-12 1.06643937e-13 1.44285962e-28 9.70608179e-30 7.95583672e-12
1.25892541e-01 7.52139949e-12 7.42481883e-12 9.65806551e-14 4.66373577e-26 3.07039563e-27 7.42481883e-12
1.44543977e-01 7.01284665e-12 6.92924411e-12 8.36025439e-14 6.32856051e-24 3.97914484e-25 6.92924411e-12
1.65958691e-01 6.55111454e-12 6.46674687e-12 8.43676776e-14 3.20113858e-22 2.17602538e-23 6.46674687e-12
1.90546072e-01 6.12751140e-12 6.03511933e-12 9.23920631e-14 6.74583338e-21 5.34344695e-22 6.03511933e-12
2.18776162e-01 5.72178782e-12 5.63230107e-12 8.94866767e-14 8.00268500e-20 6.73796757e-21 5.63230107e-12
2.51188643e-01 5.35781499e-12 5.25636919e-12 1.01444833e-13 9.68688731e-19 9.56044414e-20 5.25636919e-12
2.88403150e-01 4.99551394e-12 4.90552916e-12 8.99767479e-14 8.03482662e-18 7.67665549e-19 4.90552916e-12
3.31131121e-01 4.66101972e-12 4.57810618e-12 8.28676274e-14 4.59094924e-17 4.19806404e-18 4.57810618e-12
3.80189396e-01 4.34550695e-12 4.27253728e-12 7.27788617e-14 1.90799040e-16 1.67621772e-17 4.27253728e-12
4.36515832e-01 4.05520117e-12 3.98736380e-12 6.72335507e-14 6.03821161e-16 5.29796109e-17 3.98736380e-12
5.01187234e-01 3.78363866e-12 3.72122441e-12 6.09073602e-14 1.50688601e-15 1.29383954e-16 3.72122441e-12
5.75439937e-01 3.52907745e-12 3.47284869e-12 5.31084633e-14 3.12030158e-15 2.64958517e-16 3.47284869e-12
6.60693448e-01 3.29692915e-12 3.24105097e-12 5.02602958e-14 5.61787833e-15 4.75757342e-16 3.24105097e-12
7.58577575e-01 3.07883483e-12 3.02472476e-12 4.46473197e-14 9.46275540e-15 8.36075102e-16 3.02472476e-12
8.70963590e-01 2.87913132e-12 2.82283739e-12 4.04616627e-14 1.58322628e-14 1.47947364e-15 2.82283739e-12
1.00000000e+00 2.69582766e-12 2.63442513e-12 3.38542189e-14 2.75483051e-14 2.81292229e-15 2.63442513e-12
1.14815362e+00 2.53838596e-12 2.45858859e-12 2.88221582e-14 5.09752132e-14 5.32894580e-15 2.45858859e-12
1.31825674e+00 2.41440889e-12 2.29448837e-12 2.37480656e-14 9.61724561e-14 9.83661375e-15 2.29448837e-12
1.51356125e+00 2.33712859e-12 2.14134114e-12 1.96817337e-14 1.76105714e-13 1.67013855e-14 2.14134114e-12
1.73780083e+00 2.31134947e-12 1.99841583e-12 1.52563864e-14 2.97677250e-13 2.48866381e-14 1.99841583e-12
1.99526231e+00 2.33216673e-12 1.86503017e-12 1.20166884e-14 4.55119877e-13 3.16974548e-14 1.86503017e-12
2.29086765e+00 2.38193338e-12 1.74054743e-12 8.79600109e-15 6.32589955e-13 3.52335389e-14 1.74054743e-12
2.63026799e+00 2.43437091e-12 1.62437337e-12 6.23065684e-15 8.03766882e-13 3.41640811e-14 1.62437337e-12
3.01995172e+00 2.46572446e-12 1.51595343e-12 4.32513304e-15 9.45445892e-13 3.01129287e-14 1.51595343e-12
3.46736850e+00 2.45435669e-12 1.41477006e-12 2.88124042e-15 1.03670539e-12 2.37707777e-14 1.41477006e-12
3.98107171e+00 2.39537002e-12 1.32034025e-12 1.86171511e-15 1.07316806e-12 1.69953242e-14 1.32034025e-12
4.57088190e+00 2.29293035e-12 1.23221321e-12 1.18977164e-15 1.05952736e-12 1.13694344e-14 1.23221321e-12
5.24807460e+00 2.02903532e-12 1.01885146e-12 6.30537417e-16 1.00955332e-12 7.09769013e-15 1.01885146e-12
6.02559586e+00 1.61338314e-12 6.73148485e-13 2.67085352e-16 9.39967574e-13 4.10311608e-15 6.73148485e-13
6.70000000e+00 1.36629884e-12 4.89650796e-13 1.28424027e-16 8.76519623e-13 2.59631458e-15 4.89650796e-13
6.92422916e+00 1.29969935e-12 4.43605145e-13 1.04032760e-16 8.55990174e-13 2.19454358e-15 4.43605145e-13
7.15596261e+00 1.24480892e-12 4.01889522e-13 8.28115898e-17 8.42836585e-13 1.88761407e-15 4.01889522e-13
7.39545150e+00 1.21148551e-12 3.64096743e-13 6.18216239e-17 8.47326942e-13 1.60556815e-15 3.64096743e-13
7.64295536e+00 1.23846605e-12 3.29857910e-13 4.46782078e-17 9.08563459e-13 1.39141838e-15 3.29857910e-13
7.89874245e+00 1.35135299e-12 2.98838820e-13 3.01770659e-17 1.05248399e-12 1.19586375e-15 2.98838820e-13
8.16308998e+00 1.52626170e-12 2.70736695e-13 1.84548056e-17 1.25550655e-12 1.00515802e-15 2.70736695e-13
8.43628443e+00 1.77357099e-12 2.45277229e-13 1.05882831e-17 1.52828317e-12 8.27205800e-16 2.45277229e-13
8.71862190e+00 1.94341731e-12 2.22211915e-13 6.72833625e-18 1.72119866e-12 6.33081670e-16 2.22211915e-13
9.01040836e+00 2.10687920e-12 2.01315610e-13 3.85192778e-18 1.90555973e-12 4.21801045e-16 2.01315610e-13
9.31196005e+00 2.23412034e-12 1.82384346e-13 0.00000000e+00 2.05173599e-12 0.00000000e+00 1.82384346e-13
9.62360379e+00 2.20741679e-12 1.65233336e-13 0.00000000e+00 2.04218345e-12 0.00000000e+00 1.65233336e-13
9.94567731e+00 2.05607357e-12 1.49695167e-13 0.00000000e+00 1.90637841e-12 0.00000000e+00 1.49695167e-13
1.02785297e+01 1.89213302e-12 1.35618173e-13 0.00000000e+00 1.75651485e-12 0.00000000e+00 1.35618173e-13
1.06225216e+01 1.72875251e-12 1.22864947e-13 0.00000000e+00 1.60588756e-12 0.00000000e+00 1.22864947e-13
1.09780260e+01 1.54727848e-12 1.11311006e-13 0.00000000e+00 1.43596748e-12 0.00000000e+00 1.11311006e-13
1.13454280e+01 1.39117801e-12 1.00843571e-13 0.00000000e+00 1.29033444e-12 0.00000000e+00 1.00843571e-13
1.17251259e+01 1.25337860e-12 9.13604705e-14 0.00000000e+00 1.16201813e-12 0.00000000e+00 9.13604705e-14
1.21175312e+01 1.12901143e-12 8.27691389e-14 0.00000000e+00 1.04624229e-12 0.00000000e+00 8.27691389e-14
1.25230691e+01 1.01760304e-12 7.49857166e-14 0.00000000e+00 9.42617322e-13 0.00000000e+00 7.49857166e-14
1.29421791e+01 9.20338834e-13 6.79342298e-14 0.00000000e+00 8.52404604e-13 0.00000000e+00 6.79342298e-14
1.33753155e+01 8.36643293e-13 6.15458488e-14 0.00000000e+00 7.75097444e-13 0.00000000e+00 6.15458488e-14
1.38229477e+01 7.80875560e-13 5.57582167e-14 0.00000000e+00 7.25117344e-13 0.00000000e+00 5.57582167e-14
1.42855609e+01 7.48493752e-13 5.05148403e-14 0.00000000e+00 6.97978912e-13 0.00000000e+00 5.05148403e-14
1.47636563e+01 7.53281528e-13 4.57645392e-14 0.00000000e+00 7.07516989e-13 0.00000000e+00 4.57645392e-14
1.52577522e+01 7.67296194e-13 4.14609457e-14 0.00000000e+00 7.25835248e-13 0.00000000e+00 4.14609457e-14
1.57683840e+01 7.88416900e-13 3.75620523e-14 0.00000000e+00 7.50854847e-13 0.00000000e+00 3.75620523e-14
1.62961051e+01 8.10804057e-13 3.40298020e-14 0.00000000e+00 7.76774255e-13 0.00000000e+00 3.40298020e-14
1.68414875e+01 8.33384253e-13 3.08297166e-14 0.00000000e+00 8.02554537e-13 0.00000000e+00 3.08297166e-14
1.74051222e+01 8.42932000e-13 2.79305599e-14 0.00000000e+00 8.15001440e-13 0.00000000e+00 2.79305599e-14
1.79876201e+01 8.45843209e-13 2.53040334e-14 0.00000000e+00 8.20539175e-13 0.00000000e+00 2.53040334e-14
1.85896125e+01 8.32382964e-13 2.29244994e-14 0.00000000e+00 8.09458465e-13 0.00000000e+00 2.29244994e-14
1.92117518e+01 8.06617267e-13 2.07687314e-14 0.00000000e+00 7.85848535e-13 0.00000000e+00 2.07687314e-14
1.98547123e+01 7.72717338e-13 1.88156870e-14 0.00000000e+00 7.53901651e-13 0.00000000e+00 1.88156870e-14
2.05191907e+01 7.36873831e-13 1.70463024e-14 0.00000000e+00 7.19827529e-13 0.00000000e+00 1.70463024e-14
2.12059073e+01 7.01978492e-13 1.54433068e-14 0.00000000e+00 6.86535185e-13 0.00000000e+00 1.54433068e-14
2.19156062e+01 6.68801547e-13 1.39910532e-14 0.00000000e+00 6.54810494e-13 0.00000000e+00 1.39910532e-14
2.26490567e+01 6.38255181e-13 1.26753663e-14 0.00000000e+00 6.25579815e-13 0.00000000e+00 1.26753663e-14
2.34070535e+01 6.10370497e-13 1.14834036e-14 0.00000000e+00 5.98887094e-13 0.00000000e+00 1.14834036e-14
2.41904183e+01 5.81689017e-13 1.04035303e-14 0.00000000e+00 5.71285487e-13 0.00000000e+00 1.04035303e-14
2.50000000e+01 5.55334902e-13 9.42520591e-15 0.00000000e+00 5.45909696e-13 0.00000000e+00 9.42520591e-15
2.75422870e+01 4.80340829e-13 7.04872996e-15 0.00000000e+00 4.73292099e-13 0.00000000e+00 7.04872996e-15
3.16227766e+01 3.78592222e-13 4.65704970e-15 0.00000000e+00 3.73935172e-13 0.00000000e+00 4.65704970e-15
3.63078055e+01 2.82725712e-13 3.07688223e-15 0.00000000e+00 2.79648830e-13 0.00000000e+00 3.07688223e-15
4.16869383e+01 1.97145521e-13 2.03287593e-15 0.00000000e+00 1.95112645e-13 0.00000000e+00 2.03287593e-15
4.78630092e+01 1.28662228e-13 1.34310781e-15 0.00000000e+00 1.27319120e-13 0.00000000e+00 1.34310781e-15
5.49540874e+01 7.94940008e-14 8.87382527e-16 0.00000000e+00 7.86066183e-14 0.00000000e+00 8.87382527e-16
6.30957344e+01 4.71027375e-14 5.86287821e-16 0.00000000e+00 4.65164497e-14 0.00000000e+00 5.86287821e-16
7.24435960e+01 2.70240022e-14 3.87356522e-16 0.00000000e+00 2.66366457e-14 0.00000000e+00 3.87356522e-16
8.31763771e+01 1.51534349e-14 2.55923916e-16 0.00000000e+00 1.48975110e-14 0.00000000e+00 2.55923916e-16
9.54992586e+01 8.36893011e-15 1.69087255e-16 0.00000000e+00 8.19984286e-15 0.00000000e+00 1.69087255e-16
1.09647820e+02 4.57155645e-15 1.11714841e-16 0.00000000e+00 4.45984161e-15 0.00000000e+00 1.11714841e-16
1.25892541e+02 2.50570330e-15 7.38092637e-17 0.00000000e+00 2.43189404e-15 0.00000000e+00 7.38092637e-17
1.44543977e+02 1.37042600e-15 4.87652969e-17 0.00000000e+00 1.32166070e-15 0.00000000e+00 4.87652969e-17
1.65958691e+02 7.16928862e-16 3.22189122e-17 0.00000000e+00 6.84709950e-16 0.00000000e+00 3.22189122e-17
1.90546072e+02 3.76920496e-16 2.12868242e-17 0.00000000e+00 3.55633672e-16 0.00000000e+00 2.12868242e-17
2.18776162e+02 1.98724298e-16 1.40640653e-17 0.00000000e+00 1.84660233e-16 0.00000000e+00 1.40640653e-17
2.51188643e+02 1.04943475e-16 9.29203577e-18 0.00000000e+00 9.56514389e-17 0.00000000e+00 9.29203577e-18
2.88403150e+02 5.54899844e-17 6.13918715e-18 0.00000000e+00 4.93507972e-17 0.00000000e+00 6.13918715e-18
3.31131121e+02 2.94649355e-17 4.05612073e-18 0.00000000e+00 2.54088148e-17 0.00000000e+00 4.05612073e-18
3.80189396e+02 1.57182672e-17 2.67985239e-18 0.00000000e+00 1.30384148e-17 0.00000000e+00 2.67985239e-18
4.36515832e+02 8.44706936e-18 1.77056092e-18 0.00000000e+00 6.67650845e-18 0.00000000e+00 1.77056092e-18
5.01187234e+02 4.58033751e-18 1.16979800e-18 0.00000000e+00 3.41053951e-18 0.00000000e+00 1.16979800e-18
5.75439937e+02 2.51161699e-18 7.72877871e-19 0.00000000e+00 1.73873912e-18 0.00000000e+00 7.72877871e-19
6.60693448e+02 1.39553869e-18 5.10635346e-19 0.00000000e+00 8.84903340e-19 0.00000000e+00 5.10635346e-19
7.58577575e+02 7.87043110e-19 3.37373427e-19 0.00000000e+00 4.49669683e-19 0.00000000e+00 3.37373427e-19
8.70963590e+02 4.51042678e-19 2.22900413e-19 0.00000000e+00 2.28142266e-19 0.00000000e+00 2.22900413e-19
1.00000000e+03 1.15575036e-19 0.00000000e+00 0.00000000e+00 1.15575036e-19 0.00000000e+00 0.00000000e+00
