# column 1: lambda (micron)
# column 2: total flux; lambda*F_lambda (W/m2)
# column 3: direct stellar flux; lambda*F_lambda (W/m2)
# column 4: scattered stellar flux; lambda*F_lambda (W/m2)
# column 5: total dust emission flux; lambda*F_lambda (W/m2)
# column 6: dust emission scattered flux; lambda*F_lambda (W/m2)
# column 7: transparent flux; lambda*F_lambda (W/m2)
1.00000000e-03 8.46538337e-13 8.46529401e-13 8.93602290e-18 0.00000000e+00 0.00000000e+00 8.46529401e-13
1.14815362e-03 9.99189328e-13 9.99176121e-13 1.32075044e-17 0.00000000e+00 0.00000000e+00 9.99176121e-13
1.31825674e-03 1.17936820e-12 1.17934819e-12 2.00057618e-17 0.00000000e+00 0.00000000e+00 1.17934819e-12
1.51356125e-03 1.39203675e-12 1.39200901e-12 2.77447705e-17 0.00000000e+00 0.00000000e+00 1.39200901e-12
1.73780083e-03 1.64306602e-12 1.64301696e-12 4.90630011e-17 0.00000000e+00 0.00000000e+00 1.64301696e-12
1.99526231e-03 1.93937020e-12 1.93928682e-12 8.33770768e-17 0.00000000e+00 0.00000000e+00 1.93928682e-12
2.29086765e-03 2.28910164e-12 2.28898025e-12 1.21387882e-16 0.00000000e+00 0.00000000e+00 2.28898025e-12
2.63026799e-03 2.70197894e-12 2.70173063e-12 2.48312282e-16 0.00000000e+00 0.00000000e+00 2.70173063e-12
3.01995172e-03 3.18931309e-12 3.18890841e-12 4.04680679e-16 0.00000000e+00 0.00000000e+00 3.18890841e-12
3.46736850e-03 3.76458062e-12 3.76393440e-12 6.46219031e-16 0.00000000e+00 0.00000000e+00 3.76393440e-12
3.98107171e-03 4.44361019e-12 4.44264945e-12 9.60745111e-16 0.00000000e+00 0.00000000e+00 4.44264945e-12
4.57088190e-03 5.25418948e-12 5.24375082e-12 1.04386533e-14 0.00000000e+00 0.00000000e+00 5.24375082e-12
5.24807460e-03 6.19364037e-12 6.18930730e-12 4.33306642e-15 0.00000000e+00 0.00000000e+00 6.18930730e-12
6.02559586e-03 7.31552907e-12 7.30536713e-12 1.01619377e-14 0.00000000e+00 0.00000000e+00 7.30536713e-12
6.91830971e-03 8.63442966e-12 8.62267558e-12 1.17540834e-14 0.00000000e+00 0.00000000e+00 8.62267558e-12
7.94328235e-03 1.01998718e-11 1.01775219e-11 2.23499068e-14 1.47453975e-303 5.63453854e-306 1.01775219e-11
9.12010839e-03 1.20522775e-11 1.20127391e-11 3.95383651e-14 6.74434720e-265 3.94612780e-267 1.20127391e-11
1.04712855e-02 1.34638000e-11 1.34165878e-11 4.72121983e-14 2.95421303e-231 1.91478389e-233 1.34165878e-11
1.20226443e-02 1.34838406e-11 1.34165878e-11 6.72527336e-14 4.78280694e-202 4.45782812e-204 1.34165878e-11
1.38038426e-02 1.35261198e-11 1.34165878e-11 1.09531913e-13 1.34222821e-176 1.71932216e-178 1.34165878e-11
1.58489319e-02 1.35523406e-11 1.34165878e-11 1.35752763e-13 1.87015586e-154 3.71314782e-156 1.34165878e-11
1.81970086e-02 1.36200836e-11 1.34165878e-11 2.03495784e-13 3.40376495e-135 7.02869819e-137 1.34165878e-11
2.08929613e-02 1.36496604e-11 1.34165878e-11 2.33072549e-13 1.81782288e-118 4.79861905e-120 1.34165878e-11
2.39883292e-02 1.37015224e-11 1.34165878e-11 2.84934514e-13 6.52926257e-104 2.34668866e-105 1.34165878e-11
2.75422870e-02 1.37458385e-11 1.34165878e-11 3.29250623e-13 2.97194462e-91 1.22751549e-92 1.34165878e-11
3.16227766e-02 1.37720192e-11 1.34165878e-11 3.55431394e-13 2.94536828e-80 1.41494528e-81 1.34165878e-11
3.63078055e-02 1.37894467e-11 1.34165878e-11 3.72858876e-13 1.03198615e-70 5.17204595e-72 1.34165878e-11
4.16869383e-02 1.38360305e-11 1.34165878e-11 4.19442630e-13 1.99567695e-62 1.24225949e-63 1.34165878e-11
4.78630092e-02 1.38356249e-11 1.34165878e-11 4.19037060e-13 3.05372819e-55 2.21676043e-56 1.34165878e-11
5.49540874e-02 1.38176070e-11 1.34165878e-11 4.01019199e-13 5.11601261e-49 4.04337163e-50 1.34165878e-11
6.30957344e-02 1.37799797e-11 1.34165878e-11 3.63391907e-13 1.65881922e-43 1.37080859e-44 1.34165878e-11
7.24435960e-02 1.37207426e-11 1.34165878e-11 3.04154760e-13 9.61021689e-39 7.41912743e-40 1.34165878e-11
8.31763771e-02 1.37127279e-11 1.34165878e-11 2.96140106e-13 9.86389076e-35 7.40557210e-36 1.34165878e-11
9.54992586e-02 1.37270430e-11 1.34165878e-11 3.10455185e-13 2.79644041e-31 2.20493454e-32 1.34165878e-11
1.09647820e-01 1.31546176e-11 1.28127470e-11 3.41870693e-13 2.39272783e-28 2.08312826e-29 1.28127470e-11
1.25892541e-01 1.22951169e-11 1.19575512e-11 3.37565687e-13 7.77148192e-26 6.68480852e-27 1.19575512e-11
1.44543977e-01 1.14852420e-11 1.11594361e-11 3.25805964e-13 1.06212758e-23 9.13497997e-25 1.11594361e-11
1.65958691e-01 1.07616994e-11 1.04145917e-11 3.47107650e-13 5.41724642e-22 5.18383840e-23 1.04145917e-11
1.90546072e-01 1.00754834e-11 9.71946251e-12 3.56020890e-13 1.15167891e-20 1.29312114e-21 9.71946251e-12
2.18776162e-01 9.38042183e-12 9.07073019e-12 3.09691497e-13 1.36310863e-19 1.54604494e-20 9.07073019e-12
2.51188643e-01 8.83023159e-12 8.46529796e-12 3.64931941e-13 1.68305709e-18 2.40013377e-19 8.46529796e-12
2.88403150e-01 8.26048560e-12 7.90027573e-12 3.60195852e-13 1.40173991e-17 1.98003323e-18 7.90027573e-12
3.31131121e-01 7.71872173e-12 7.37296631e-12 3.45675050e-13 8.03780351e-17 1.11557242e-17 7.37296631e-12
3.80189396e-01 7.20032256e-12 6.88085251e-12 3.19135164e-13 3.34883115e-16 4.54385434e-17 6.88085251e-12
4.36515832e-01 6.71692557e-12 6.42158520e-12 2.94273460e-13 1.06691055e-15 1.45192236e-16 6.42158520e-12
5.01187234e-01 6.27472053e-12 5.99297201e-12 2.79010010e-13 2.73851677e-15 3.94423624e-16 5.99297201e-12
5.75439937e-01 5.85976961e-12 5.59296690e-12 2.60599936e-13 6.20277517e-15 1.01431178e-15 5.59296690e-12
6.60693448e-01 5.47501102e-12 5.21966041e-12 2.41484339e-13 1.38662632e-14 2.78908698e-15 5.21966041e-12
7.58577575e-01 5.12978989e-12 4.87127053e-12 2.24479774e-13 3.40395847e-14 8.44087671e-15 4.87127053e-12
8.70963590e-01 4.83559015e-12 4.54613417e-12 2.00584044e-13 8.88719358e-14 2.43118201e-14 4.54613417e-12
1.00000000e+00 4.64005072e-12 4.24269927e-12 1.75528477e-13 2.21822971e-13 6.00751887e-14 4.24269927e-12
1.14815362e+00 4.62906228e-12 3.95951734e-12 1.52007528e-13 5.17537416e-13 1.31266647e-13 3.95951734e-12
1.31825674e+00 4.90354016e-12 3.69523659e-12 1.26131683e-13 1.08217189e-12 2.45255160e-13 3.69523659e-12
1.51356125e+00 5.55850926e-12 3.44859544e-12 1.04090465e-13 2.00582336e-12 3.92053942e-13 3.44859544e-12
1.73780083e+00 6.61032475e-12 3.21841652e-12 8.40658418e-14 3.30784239e-12 5.42015532e-13 3.21841652e-12
1.99526231e+00 7.91107589e-12 3.00360106e-12 6.68518953e-14 4.84062293e-12 6.61688401e-13 3.00360106e-12
2.29086765e+00 9.29539640e-12 2.80312361e-12 5.11211259e-14 6.44115167e-12 7.04738294e-13 2.80312361e-12
2.63026799e+00 1.05076191e-11 2.61602716e-12 3.79600727e-14 7.85363188e-12 6.74421225e-13 2.61602716e-12
3.01995172e+00 1.14423791e-11 2.44141860e-12 2.72321906e-14 8.97372836e-12 5.82209141e-13 2.44141860e-12
3.46736850e+00 1.20363576e-11 2.27846441e-12 1.88243457e-14 9.73906884e-12 4.57318422e-13 2.27846441e-12
3.98107171e+00 1.22023239e-11 2.12638671e-12 1.23792512e-14 1.00635580e-11 3.25520371e-13 2.12638671e-12
4.57088190e+00 1.19565492e-11 1.98445954e-12 7.78527782e-15 9.96430436e-12 2.10186361e-13 1.98445954e-12
5.24807460e+00 1.12597299e-11 1.64084388e-12 4.22206285e-15 9.61466398e-12 1.27902571e-13 1.64084388e-12
6.02559586e+00 1.01281580e-11 1.08409480e-12 1.76516711e-15 9.04229803e-12 7.24002627e-14 1.08409480e-12
6.70000000e+00 9.29805640e-12 7.88574724e-13 8.64604340e-16 8.50861707e-12 4.47417493e-14 7.88574724e-13
6.92422916e+00 9.04040613e-12 7.14418944e-13 6.90997536e-16 8.32529618e-12 3.81133108e-14 7.14418944e-13
7.15596261e+00 8.85534848e-12 6.47236606e-13 5.46554486e-16 8.20756532e-12 3.23053582e-14 6.47236606e-13
7.39545150e+00 8.79999927e-12 5.86371942e-13 4.21307021e-16 8.21320602e-12 2.75336699e-14 5.86371942e-13
7.64295536e+00 9.14432089e-12 5.31230854e-13 3.06119815e-16 8.61278392e-12 2.37888191e-14 5.31230854e-13
7.89874245e+00 1.00378936e-11 4.81275108e-13 2.01846155e-16 9.55641664e-12 2.04216318e-14 4.81275108e-13
8.16308998e+00 1.11831668e-11 4.36017088e-13 1.26903499e-16 1.07470229e-11 1.73667579e-14 4.36017088e-13
8.43628443e+00 1.25438276e-11 3.95015029e-13 7.38533192e-17 1.21487387e-11 1.36925421e-14 3.95015029e-13
8.71862190e+00 1.32443912e-11 3.57868711e-13 4.47435839e-17 1.28864777e-11 1.05235627e-14 3.57868711e-13
9.01040836e+00 1.39232268e-11 3.24215549e-13 2.27917660e-17 1.35989885e-11 6.82206068e-15 3.24215549e-13
9.31196005e+00 1.43812237e-11 2.93727053e-13 0.00000000e+00 1.40874966e-11 0.00000000e+00 2.93727053e-13
9.62360379e+00 1.41592771e-11 2.66105627e-13 0.00000000e+00 1.38931714e-11 0.00000000e+00 2.66105627e-13
9.94567731e+00 1.36942435e-11 2.41081657e-13 0.00000000e+00 1.34531618e-11 0.00000000e+00 2.41081657e-13
1.02785297e+01 1.29883399e-11 2.18410884e-13 0.00000000e+00 1.27699290e-11 0.00000000e+00 2.18410884e-13
1.06225216e+01 1.22838027e-11 1.97872020e-13 0.00000000e+00 1.20859307e-11 0.00000000e+00 1.97872020e-13
1.09780260e+01 1.15140489e-11 1.79264583e-13 0.00000000e+00 1.13347843e-11 0.00000000e+00 1.79264583e-13
1.13454280e+01 1.07244088e-11 1.62406948e-13 0.00000000e+00 1.05620018e-11 0.00000000e+00 1.62406948e-13
1.17251259e+01 9.99482625e-12 1.47134567e-13 0.00000000e+00 9.84769168e-12 0.00000000e+00 1.47134567e-13
1.21175312e+01 9.27065592e-12 1.33298366e-13 0.00000000e+00 9.13735756e-12 0.00000000e+00 1.33298366e-13
1.25230691e+01 8.58788793e-12 1.20763289e-13 0.00000000e+00 8.46712464e-12 0.00000000e+00 1.20763289e-13
1.29421791e+01 7.93509321e-12 1.09406983e-13 0.00000000e+00 7.82568623e-12 0.00000000e+00 1.09406983e-13
1.33753155e+01 7.33879293e-12 9.91185987e-14 0.00000000e+00 7.23967433e-12 0.00000000e+00 9.91185987e-14
1.38229477e+01 6.90772070e-12 8.97977103e-14 0.00000000e+00 6.81792299e-12 0.00000000e+00 8.97977103e-14
1.42855609e+01 6.66342588e-12 8.13533371e-14 0.00000000e+00 6.58207254e-12 0.00000000e+00 8.13533371e-14
1.47636563e+01 6.71550763e-12 7.37030537e-14 0.00000000e+00 6.64180457e-12 0.00000000e+00 7.37030537e-14
1.52577522e+01 6.83157676e-12 6.67721855e-14 0.00000000e+00 6.76480457e-12 0.00000000e+00 6.67721855e-14
1.57683840e+01 6.99710449e-12 6.04930805e-14 0.00000000e+00 6.93661141e-12 0.00000000e+00 6.04930805e-14
1.62961051e+01 7.17197354e-12 5.48044484e-14 0.00000000e+00 7.11716909e-12 0.00000000e+00 5.48044484e-14
1.68414875e+01 7.32907254e-12 4.96507622e-14 0.00000000e+00 7.27942178e-12 0.00000000e+00 4.96507622e-14
1.74051222e+01 7.39803311e-12 4.49817171e-14 0.00000000e+00 7.35305139e-12 0.00000000e+00 4.49817171e-14
1.79876201e+01 7.37941407e-12 4.07517384e-14 0.00000000e+00 7.33866234e-12 0.00000000e+00 4.07517384e-14
1.85896125e+01 7.27899038e-12 3.69195372e-14 0.00000000e+00 7.24207085e-12 0.00000000e+00 3.69195372e-14
1.92117518e+01 7.04209984e-12 3.34477076e-14 0.00000000e+00 7.00865213e-12 0.00000000e+00 3.34477076e-14
1.98547123e+01 6.74199050e-12 3.03023610e-14 0.00000000e+00 6.71168814e-12 0.00000000e+00 3.03023610e-14
2.05191907e+01 6.40360085e-12 2.74527957e-14 0.00000000e+00 6.37614805e-12 0.00000000e+00 2.74527957e-14
2.12059073e+01 6.07589615e-12 2.48711970e-14 0.00000000e+00 6.05102496e-12 0.00000000e+00 2.48711970e-14
2.19156062e+01 5.76846242e-12 2.25323660e-14 0.00000000e+00 5.74593005e-12 0.00000000e+00 2.25323660e-14
2.26490567e+01 5.46583646e-12 2.04134733e-14 0.00000000e+00 5.44542299e-12 0.00000000e+00 2.04134733e-14
2.34070535e+01 5.18589231e-12 1.84938366e-14 0.00000000e+00 5.16739848e-12 0.00000000e+00 1.84938366e-14
2.41904183e+01 4.90023053e-12 1.67547181e-14 0.00000000e+00 4.88347581e-12 0.00000000e+00 1.67547181e-14
2.50000000e+01 4.63073575e-12 1.51791424e-14 0.00000000e+00 4.61555660e-12 0.00000000e+00 1.51791424e-14
2.75422870e+01 3.88433735e-12 1.13518661e-14 0.00000000e+00 3.87298549e-12 0.00000000e+00 1.13518661e-14
3.16227766e+01 2.91651913e-12 7.50010357e-15 0.00000000e+00 2.90901902e-12 0.00000000e+00 7.50010357e-15
3.63078055e+01 2.07052333e-12 4.95526929e-15 0.00000000e+00 2.06556806e-12 0.00000000e+00 4.95526929e-15
4.16869383e+01 1.37454664e-12 3.27391395e-15 0.00000000e+00 1.37127273e-12 0.00000000e+00 3.27391395e-15
4.78630092e+01 8.54061293e-13 2.16305350e-15 0.00000000e+00 8.51898240e-13 0.00000000e+00 2.16305350e-15
5.49540874e+01 5.04779476e-13 1.42911527e-15 0.00000000e+00 5.03350361e-13 0.00000000e+00 1.42911527e-15
6.30957344e+01 2.87394758e-13 9.44207098e-16 0.00000000e+00 2.86450551e-13 0.00000000e+00 9.44207098e-16
7.24435960e+01 1.59214219e-13 6.23831443e-16 0.00000000e+00 1.58590388e-13 0.00000000e+00 6.23831443e-16
8.31763771e+01 8.65021181e-14 4.12161347e-16 0.00000000e+00 8.60899567e-14 0.00000000e+00 4.12161347e-16
9.54992586e+01 4.64687885e-14 2.72312302e-16 0.00000000e+00 4.61964762e-14 0.00000000e+00 2.72312302e-16
1.09647820e+02 2.47718296e-14 1.79914953e-16 0.00000000e+00 2.45919146e-14 0.00000000e+00 1.79914953e-16
1.25892541e+02 1.32908038e-14 1.18868631e-16 0.00000000e+00 1.31719352e-14 0.00000000e+00 1.18868631e-16
1.44543977e+02 7.12971363e-15 7.85357256e-17 0.00000000e+00 7.05117790e-15 0.00000000e+00 7.85357256e-17
1.65958691e+02 3.65468876e-15 5.18880394e-17 0.00000000e+00 3.60280072e-15 0.00000000e+00 5.18880394e-17
1.90546072e+02 1.88395654e-15 3.42820876e-17 0.00000000e+00 1.84967446e-15 0.00000000e+00 3.42820876e-17
2.18776162e+02 9.73718288e-16 2.26499507e-17 0.00000000e+00 9.51068337e-16 0.00000000e+00 2.26499507e-17
2.51188643e+02 5.03497780e-16 1.49646740e-17 0.00000000e+00 4.88533106e-16 0.00000000e+00 1.49646740e-17
2.88403150e+02 2.60166028e-16 9.88706207e-18 0.00000000e+00 2.50278966e-16 0.00000000e+00 9.88706207e-18
3.31131121e+02 1.34609971e-16 6.53231713e-18 0.00000000e+00 1.28077654e-16 0.00000000e+00 6.53231713e-18
3.80189396e+02 6.96961653e-17 4.31585913e-18 0.00000000e+00 6.53803062e-17 0.00000000e+00 4.31585913e-18
4.36515832e+02 3.61816045e-17 2.85145985e-18 0.00000000e+00 3.33301446e-17 0.00000000e+00 2.85145985e-18
5.01187234e+02 1.88448659e-17 1.88394084e-18 0.00000000e+00 1.69609251e-17 0.00000000e+00 1.88394084e-18
5.75439937e+02 9.86324965e-18 1.24470737e-18 0.00000000e+00 8.61854228e-18 0.00000000e+00 1.24470737e-18
6.60693448e+02 5.19622192e-18 8.22370004e-19 0.00000000e+00 4.37385191e-18 0.00000000e+00 8.22370004e-19
7.58577575e+02 2.76053345e-18 5.43334473e-19 0.00000000e+00 2.21719897e-18 0.00000000e+00 5.43334473e-19
8.70963590e+02 1.48152523e-18 3.58977527e-19 0.00000000e+00 1.12254771e-18 0.00000000e+00 3.58977527e-19
1.00000000e+03 5.67643330e-19 0.00000000e+00 0.00000000e+00 5.67643330e-19 0.00000000e+00 0.00000000e+00
