# column 1: lambda (micron)
# column 2: total flux; lambda*F_lambda (W/m2)
# column 3: direct stellar flux; lambda*F_lambda (W/m2)
# column 4: scattered stellar flux; lambda*F_lambda (W/m2)
# column 5: total dust emission flux; lambda*F_lambda (W/m2)
# column 6: dust emission scattered flux; lambda*F_lambda (W/m2)
# column 7: transparent flux; lambda*F_lambda (W/m2)
1.00000000e-03 9.68074980e-13 9.68073281e-13 1.69932963e-18 0.00000000e+00 0.00000000e+00 9.68073281e-13
1.14815362e-03 1.14263953e-12 1.14263687e-12 2.65989347e-18 0.00000000e+00 0.00000000e+00 1.14263687e-12
1.31825674e-03 1.34868196e-12 1.34867788e-12 4.07785694e-18 0.00000000e+00 0.00000000e+00 1.34867788e-12
1.51356125e-03 1.59187851e-12 1.59187233e-12 6.18446091e-18 0.00000000e+00 0.00000000e+00 1.59187233e-12
1.73780083e-03 1.87893083e-12 1.87891976e-12 1.10730887e-17 0.00000000e+00 0.00000000e+00 1.87891976e-12
1.99526231e-03 2.21774680e-12 2.21772777e-12 1.90363247e-17 0.00000000e+00 0.00000000e+00 2.21772777e-12
2.29086765e-03 2.61765929e-12 2.61762985e-12 2.94407537e-17 0.00000000e+00 0.00000000e+00 2.61762985e-12
2.63026799e-03 3.08970109e-12 3.08964252e-12 5.85711661e-17 0.00000000e+00 0.00000000e+00 3.08964252e-12
3.01995172e-03 3.64686452e-12 3.64676883e-12 9.56940768e-17 0.00000000e+00 0.00000000e+00 3.64676883e-12
3.46736850e-03 4.30451338e-12 4.30435650e-12 1.56880567e-16 0.00000000e+00 0.00000000e+00 4.30435650e-12
3.98107171e-03 5.08076668e-12 5.08052080e-12 2.45876458e-16 0.00000000e+00 0.00000000e+00 5.08052080e-12
4.57088190e-03 5.99722231e-12 5.99664354e-12 5.78772723e-16 0.00000000e+00 0.00000000e+00 5.99664354e-12
5.24807460e-03 7.07898974e-12 7.07796211e-12 1.02762184e-15 0.00000000e+00 0.00000000e+00 7.07796211e-12
6.02559586e-03 8.35613627e-12 8.35426474e-12 1.87152937e-15 0.00000000e+00 0.00000000e+00 8.35426474e-12
6.91830971e-03 9.86346675e-12 9.86071107e-12 2.75567508e-15 0.00000000e+00 0.00000000e+00 9.86071107e-12
7.94328235e-03 1.16434877e-11 1.16388008e-11 4.68692933e-15 0.00000000e+00 0.00000000e+00 1.16388008e-11
9.12010839e-03 1.37459118e-11 1.37375167e-11 8.39504098e-15 0.00000000e+00 0.00000000e+00 1.37375167e-11
1.04712855e-02 1.53535326e-11 1.53429287e-11 1.06039705e-14 0.00000000e+00 0.00000000e+00 1.53429287e-11
1.20226443e-02 1.53617799e-11 1.53429287e-11 1.88512665e-14 0.00000000e+00 0.00000000e+00 1.53429287e-11
1.38038426e-02 1.53653013e-11 1.53429287e-11 2.23726484e-14 5.17195729e-291 2.42857832e-292 1.53429287e-11
1.58489319e-02 1.53743478e-11 1.53429287e-11 3.14190861e-14 3.72666769e-254 1.81202671e-255 1.53429287e-11
1.81970086e-02 1.53866596e-11 1.53429287e-11 4.37308959e-14 4.54926810e-222 2.52268524e-223 1.53429287e-11
2.08929613e-02 1.54075020e-11 1.53429287e-11 6.45733730e-14 3.66434567e-194 2.30484537e-195 1.53429287e-11
2.39883292e-02 1.54285025e-11 1.53429287e-11 8.55738153e-14 7.27570889e-170 4.94997382e-171 1.53429287e-11
2.75422870e-02 1.54580233e-11 1.53429287e-11 1.15094658e-13 1.03799018e-148 7.38363111e-150 1.53429287e-11
3.16227766e-02 1.54814059e-11 1.53429287e-11 1.38477228e-13 2.66290295e-130 2.04315339e-131 1.53429287e-11
3.63078055e-02 1.54990876e-11 1.53429287e-11 1.56158895e-13 2.74991657e-114 2.12532410e-115 1.53429287e-11
4.16869383e-02 1.55550144e-11 1.53429287e-11 2.12085702e-13 2.39045628e-100 2.26381976e-101 1.53429287e-11
4.78630092e-02 1.56265525e-11 1.53429287e-11 2.83623855e-13 3.15829868e-88 3.48851791e-89 1.53429287e-11
5.49540874e-02 1.56864463e-11 1.53429287e-11 3.43517625e-13 1.09412735e-77 1.40456192e-78 1.53429287e-11
6.30957344e-02 1.57461938e-11 1.53429287e-11 4.03265176e-13 2.08139355e-68 3.03961742e-69 1.53429287e-11
7.24435960e-02 1.57182008e-11 1.53429287e-11 3.75272094e-13 2.34363453e-60 3.45159931e-61 1.53429287e-11
8.31763771e-02 1.57159137e-11 1.53429287e-11 3.72985003e-13 1.86452139e-53 2.75878970e-54 1.53429287e-11
9.54992586e-02 1.57314957e-11 1.53429287e-11 3.88567067e-13 1.78805846e-47 2.78509588e-48 1.53429287e-11
1.09647820e-01 1.50485319e-11 1.46523889e-11 3.96142987e-13 2.56567595e-42 4.29015579e-43 1.46523889e-11
1.25892541e-01 1.40449676e-11 1.36744049e-11 3.70562650e-13 7.46384902e-38 1.25889338e-38 1.36744049e-11
1.44543977e-01 1.30815942e-11 1.27616972e-11 3.19896977e-13 5.27746975e-34 8.78652701e-35 1.27616972e-11
1.65958691e-01 1.22524524e-11 1.19099088e-11 3.42543586e-13 8.80684873e-31 1.64627855e-31 1.19099088e-11
1.90546072e-01 1.14882158e-11 1.11149736e-11 3.73242125e-13 4.03362126e-28 9.06801326e-29 1.11149736e-11
2.18776162e-01 1.07319903e-11 1.03730969e-11 3.58893404e-13 7.04915142e-26 1.72563553e-26 1.03730969e-11
2.51188643e-01 1.00972050e-11 9.68073733e-12 4.16467657e-13 1.04183740e-23 3.13099778e-24 9.68073733e-12
2.88403150e-01 9.42387383e-12 9.03458975e-12 3.89284073e-13 7.76775904e-22 2.37948531e-22 9.03458975e-12
3.31131121e-01 8.78573497e-12 8.43156974e-12 3.54165196e-13 3.12379438e-20 9.74717941e-21 8.43156974e-12
3.80189396e-01 8.19691066e-12 7.86879872e-12 3.28111195e-13 7.43876737e-19 2.33657121e-19 7.86879872e-12
4.36515832e-01 7.63873561e-12 7.34359025e-12 2.95134198e-13 1.11558128e-17 3.55578892e-18 7.34359025e-12
5.01187234e-01 7.13340673e-12 6.85343719e-12 2.79858503e-13 1.11040836e-16 3.53461089e-17 6.85343719e-12
5.75439937e-01 6.65314002e-12 6.39599973e-12 2.56361610e-13 7.78685628e-16 2.47455909e-16 6.39599973e-12
6.60693448e-01 6.21513991e-12 5.96909425e-12 2.42036987e-13 4.00866604e-15 1.24781989e-15 5.96909425e-12
7.58577575e-01 5.80270606e-12 5.57068288e-12 2.16086486e-13 1.59366853e-14 4.87151398e-15 5.57068288e-12
8.70963590e-01 5.44648855e-12 5.19886376e-12 1.96274998e-13 5.13497936e-14 1.49194457e-14 5.19886376e-12
1.00000000e+00 5.15786330e-12 4.85186196e-12 1.69456701e-13 1.36544638e-13 3.70382879e-14 4.85186196e-12
1.14815362e+00 4.98543595e-12 4.52802104e-12 1.43927493e-13 3.13487414e-13 7.71382918e-14 4.52802104e-12
1.31825674e+00 4.98093141e-12 4.22579511e-12 1.17442426e-13 6.37693872e-13 1.37824610e-13 4.22579511e-12
1.51356125e+00 5.19305724e-12 3.94374146e-12 9.48818344e-14 1.15443394e-12 2.14894247e-13 3.94374146e-12
1.73780083e+00 5.61509314e-12 3.68051368e-12 7.42913715e-14 1.86028809e-12 2.88870275e-13 3.68051368e-12
1.99526231e+00 6.16221414e-12 3.43485522e-12 5.53906895e-14 2.67196822e-12 3.30287446e-13 3.43485522e-12
2.29086765e+00 6.71950244e-12 3.20559341e-12 3.99758257e-14 3.47393320e-12 3.24851915e-13 3.20559341e-12
2.63026799e+00 7.16272331e-12 2.99163384e-12 2.69595938e-14 4.14412988e-12 2.80984489e-13 2.99163384e-12
3.01995172e+00 7.40510716e-12 2.79195514e-12 1.74476756e-14 4.59570434e-12 2.16707653e-13 2.79195514e-12
3.46736850e+00 7.45024558e-12 2.60560415e-12 1.09895525e-14 4.83365188e-12 1.52991426e-13 2.60560415e-12
3.98107171e+00 7.27489433e-12 2.43169128e-12 6.69030298e-15 4.83651275e-12 9.98760284e-14 2.43169128e-12
4.57088190e+00 6.92786800e-12 2.26938634e-12 3.98346750e-15 4.65449819e-12 6.05938208e-14 2.26938634e-12
5.24807460e+00 6.24343684e-12 1.87643467e-12 2.06011650e-15 4.36494205e-12 3.50703181e-14 1.87643467e-12
6.02559586e+00 5.29154607e-12 1.23974809e-12 8.06264159e-16 4.05099172e-12 1.92441017e-14 1.23974809e-12
6.70000000e+00 4.69014419e-12 9.01797527e-13 3.88095268e-16 3.78795857e-12 1.17751636e-14 9.01797527e-13
6.92422916e+00 4.51868148e-12 8.16994532e-13 3.05214056e-16 3.70138174e-12 9.99172704e-15 8.16994532e-13
7.15596261e+00 4.39413755e-12 7.40166218e-13 2.41282322e-16 3.65373005e-12 8.46736476e-15 7.40166218e-13
7.39545150e+00 4.35596723e-12 6.70562664e-13 1.80640789e-16 3.68522392e-12 7.24573865e-15 6.70562664e-13
7.64295536e+00 4.56152956e-12 6.07504471e-13 1.32510710e-16 3.95389257e-12 6.30576174e-15 6.07504471e-13
7.89874245e+00 5.13775009e-12 5.50376127e-13 9.10467487e-17 4.58728291e-12 5.61694608e-15 5.50376127e-13
8.16308998e+00 5.98955553e-12 4.98620004e-13 5.88962334e-17 5.49087663e-12 5.03217255e-15 4.98620004e-13
8.43628443e+00 7.16096020e-12 4.51730909e-13 3.41418007e-17 6.70919515e-12 4.15592888e-15 4.51730909e-13
8.71862190e+00 7.96350726e-12 4.09251158e-13 1.95334562e-17 7.55423657e-12 3.17672034e-15 4.09251158e-13
9.01040836e+00 8.77260014e-12 3.70766106e-13 8.20176271e-18 8.40182583e-12 1.90059356e-15 3.70766106e-13
9.31196005e+00 9.39764955e-12 3.35900102e-13 0.00000000e+00 9.06174945e-12 0.00000000e+00 3.35900102e-13
9.62360379e+00 9.36813528e-12 3.04312818e-13 0.00000000e+00 9.06382247e-12 0.00000000e+00 3.04312818e-13
9.94567731e+00 8.83770212e-12 2.75695930e-13 0.00000000e+00 8.56200619e-12 0.00000000e+00 2.75695930e-13
1.02785297e+01 8.17931299e-12 2.49770110e-13 0.00000000e+00 7.92954288e-12 0.00000000e+00 2.49770110e-13
1.06225216e+01 7.55996943e-12 2.26282295e-13 0.00000000e+00 7.33368713e-12 0.00000000e+00 2.26282295e-13
1.09780260e+01 6.81050872e-12 2.05003220e-13 0.00000000e+00 6.60550550e-12 0.00000000e+00 2.05003220e-13
1.13454280e+01 6.15885100e-12 1.85725182e-13 0.00000000e+00 5.97312582e-12 0.00000000e+00 1.85725182e-13
1.17251259e+01 5.59624654e-12 1.68260007e-13 0.00000000e+00 5.42798653e-12 0.00000000e+00 1.68260007e-13
1.21175312e+01 5.08137878e-12 1.52437217e-13 0.00000000e+00 4.92894156e-12 0.00000000e+00 1.52437217e-13
1.25230691e+01 4.60161138e-12 1.38102367e-13 0.00000000e+00 4.46350901e-12 0.00000000e+00 1.38102367e-13
1.29421791e+01 4.19589359e-12 1.25115533e-13 0.00000000e+00 4.07077805e-12 0.00000000e+00 1.25115533e-13
1.33753155e+01 3.85094924e-12 1.13349952e-13 0.00000000e+00 3.73759928e-12 0.00000000e+00 1.13349952e-13
1.38229477e+01 3.62878662e-12 1.02690779e-13 0.00000000e+00 3.52609584e-12 0.00000000e+00 1.02690779e-13
1.42855609e+01 3.51662833e-12 9.30339713e-14 0.00000000e+00 3.42359436e-12 0.00000000e+00 9.30339713e-14
1.47636563e+01 3.60048665e-12 8.42852675e-14 0.00000000e+00 3.51620139e-12 0.00000000e+00 8.42852675e-14
1.52577522e+01 3.72739144e-12 7.63592720e-14 0.00000000e+00 3.65103217e-12 0.00000000e+00 7.63592720e-14
1.57683840e+01 3.89896609e-12 6.91786191e-14 0.00000000e+00 3.82978747e-12 0.00000000e+00 6.91786191e-14
1.62961051e+01 4.07555215e-12 6.26732185e-14 0.00000000e+00 4.01287893e-12 0.00000000e+00 6.26732185e-14
1.68414875e+01 4.26614655e-12 5.67795711e-14 0.00000000e+00 4.20936698e-12 0.00000000e+00 5.67795711e-14
1.74051222e+01 4.38963880e-12 5.14401489e-14 0.00000000e+00 4.33819865e-12 0.00000000e+00 5.14401489e-14
1.79876201e+01 4.47658519e-12 4.66028339e-14 0.00000000e+00 4.42998236e-12 0.00000000e+00 4.66028339e-14
1.85896125e+01 4.47828830e-12 4.22204090e-14 0.00000000e+00 4.43606789e-12 0.00000000e+00 4.22204090e-14
1.92117518e+01 4.39024766e-12 3.82500974e-14 0.00000000e+00 4.35199756e-12 0.00000000e+00 3.82500974e-14
1.98547123e+01 4.26519725e-12 3.46531450e-14 0.00000000e+00 4.23054410e-12 0.00000000e+00 3.46531450e-14
2.05191907e+01 4.10904834e-12 3.13944418e-14 0.00000000e+00 4.07765390e-12 0.00000000e+00 3.13944418e-14
2.12059073e+01 3.96149085e-12 2.84421796e-14 0.00000000e+00 3.93304867e-12 0.00000000e+00 2.84421796e-14
2.19156062e+01 3.81924314e-12 2.57675415e-14 0.00000000e+00 3.79347560e-12 0.00000000e+00 2.57675415e-14
2.26490567e+01 3.68850478e-12 2.33444203e-14 0.00000000e+00 3.66516036e-12 0.00000000e+00 2.33444203e-14
2.34070535e+01 3.55527452e-12 2.11491639e-14 0.00000000e+00 3.53412535e-12 0.00000000e+00 2.11491639e-14
2.41904183e+01 3.43347772e-12 1.91603445e-14 0.00000000e+00 3.41431737e-12 0.00000000e+00 1.91603445e-14
2.50000000e+01 3.31070499e-12 1.73585491e-14 0.00000000e+00 3.29334644e-12 0.00000000e+00 1.73585491e-14
2.75422870e+01 2.94782535e-12 1.29817562e-14 0.00000000e+00 2.93484360e-12 0.00000000e+00 1.29817562e-14
3.16227766e+01 2.41253834e-12 8.57696126e-15 0.00000000e+00 2.40396138e-12 0.00000000e+00 8.57696126e-15
3.63078055e+01 1.85925563e-12 5.66674211e-15 0.00000000e+00 1.85358889e-12 0.00000000e+00 5.66674211e-15
4.16869383e+01 1.33091066e-12 3.74397938e-15 0.00000000e+00 1.32716668e-12 0.00000000e+00 3.74397938e-15
4.78630092e+01 8.86071653e-13 2.47362265e-15 0.00000000e+00 8.83598030e-13 0.00000000e+00 2.47362265e-15
5.49540874e+01 5.57253538e-13 1.63430628e-15 0.00000000e+00 5.55619231e-13 0.00000000e+00 1.63430628e-15
6.30957344e+01 3.35052038e-13 1.07977545e-15 0.00000000e+00 3.33972263e-13 0.00000000e+00 1.07977545e-15
7.24435960e+01 1.94731706e-13 7.13400564e-16 0.00000000e+00 1.94018305e-13 0.00000000e+00 7.13400564e-16
8.31763771e+01 1.10327327e-13 4.71339078e-16 0.00000000e+00 1.09855988e-13 0.00000000e+00 4.71339078e-16
9.54992586e+01 6.14456136e-14 3.11410641e-16 0.00000000e+00 6.11342029e-14 0.00000000e+00 3.11410641e-16
1.09647820e+02 3.37738617e-14 2.05746970e-16 0.00000000e+00 3.35681148e-14 0.00000000e+00 2.05746970e-16
1.25892541e+02 1.85962271e-14 1.35935675e-16 0.00000000e+00 1.84602914e-14 0.00000000e+00 1.35935675e-16
1.44543977e+02 1.01962149e-14 8.98118099e-17 0.00000000e+00 1.01064030e-14 0.00000000e+00 8.98118099e-17
1.65958691e+02 5.32820791e-15 5.93380743e-17 0.00000000e+00 5.26886983e-15 0.00000000e+00 5.93380743e-17
1.90546072e+02 2.79082021e-15 3.92042769e-17 0.00000000e+00 2.75161594e-15 0.00000000e+00 3.92042769e-17
2.18776162e+02 1.46147115e-15 2.59020089e-17 0.00000000e+00 1.43556914e-15 0.00000000e+00 2.59020089e-17
2.51188643e+02 7.63759575e-16 1.71132876e-17 0.00000000e+00 7.46646287e-16 0.00000000e+00 1.71132876e-17
2.88403150e+02 3.97919568e-16 1.13066370e-17 0.00000000e+00 3.86612931e-16 0.00000000e+00 1.13066370e-17
3.31131121e+02 2.07138685e-16 7.47022097e-18 0.00000000e+00 1.99668464e-16 0.00000000e+00 7.47022097e-18
3.80189396e+02 1.07666983e-16 4.93552605e-18 0.00000000e+00 1.02731457e-16 0.00000000e+00 4.93552605e-18
4.36515832e+02 5.59883342e-17 3.26086972e-18 0.00000000e+00 5.27274645e-17 0.00000000e+00 3.26086972e-18
5.01187234e+02 2.91430552e-17 2.15443526e-18 0.00000000e+00 2.69886199e-17 0.00000000e+00 2.15443526e-18
5.75439937e+02 1.52065195e-17 1.42342126e-18 0.00000000e+00 1.37830983e-17 0.00000000e+00 1.42342126e-18
6.60693448e+02 7.96567000e-18 9.40445101e-19 0.00000000e+00 7.02522490e-18 0.00000000e+00 9.40445101e-19
7.58577575e+02 4.19593190e-18 6.21345916e-19 0.00000000e+00 3.57458598e-18 0.00000000e+00 6.21345916e-19
8.70963590e+02 2.22615536e-18 4.10519176e-19 0.00000000e+00 1.81563619e-18 0.00000000e+00 4.10519176e-19
1.00000000e+03 9.20689244e-19 0.00000000e+00 0.00000000e+00 9.20689244e-19 0.00000000e+00 0.00000000e+00
