# column 1: lambda (micron)
# column 2: total flux; lambda*F_lambda (W/m2)
# column 3: direct stellar flux; lambda*F_lambda (W/m2)
# column 4: scattered stellar flux; lambda*F_lambda (W/m2)
# column 5: total dust emission flux; lambda*F_lambda (W/m2)
# column 6: dust emission scattered flux; lambda*F_lambda (W/m2)
# column 7: transparent flux; lambda*F_lambda (W/m2)
1.00000000e-03 1.07336126e-12 1.07335627e-12 4.98784017e-18 0.00000000e+00 0.00000000e+00 1.07335627e-12
1.14815362e-03 1.26691252e-12 1.26690456e-12 7.96028014e-18 0.00000000e+00 0.00000000e+00 1.26690456e-12
1.31825674e-03 1.49536573e-12 1.49535359e-12 1.21397888e-17 0.00000000e+00 0.00000000e+00 1.49535359e-12
1.51356125e-03 1.76501492e-12 1.76499670e-12 1.82245430e-17 0.00000000e+00 0.00000000e+00 1.76499670e-12
1.73780083e-03 2.08329561e-12 2.08326203e-12 3.35858146e-17 0.00000000e+00 0.00000000e+00 2.08326203e-12
1.99526231e-03 2.45897409e-12 2.45891716e-12 5.69287721e-17 0.00000000e+00 0.00000000e+00 2.45891716e-12
2.29086765e-03 2.90239707e-12 2.90231066e-12 8.64015143e-17 0.00000000e+00 0.00000000e+00 2.90231066e-12
2.63026799e-03 3.42582871e-12 3.42565717e-12 1.71537312e-16 0.00000000e+00 0.00000000e+00 3.42565717e-12
3.01995172e-03 4.04365314e-12 4.04337385e-12 2.79293801e-16 0.00000000e+00 0.00000000e+00 4.04337385e-12
3.46736850e-03 4.77292959e-12 4.77247759e-12 4.52002576e-16 0.00000000e+00 0.00000000e+00 4.77247759e-12
3.98107171e-03 5.63376891e-12 5.63305378e-12 7.15123756e-16 0.00000000e+00 0.00000000e+00 5.63305378e-12
4.57088190e-03 6.65050020e-12 6.64880962e-12 1.69057871e-15 0.00000000e+00 0.00000000e+00 6.64880962e-12
5.24807460e-03 7.85136694e-12 7.84772720e-12 3.63974135e-15 0.00000000e+00 0.00000000e+00 7.84772720e-12
6.02559586e-03 9.26869926e-12 9.26283435e-12 5.86490640e-15 0.00000000e+00 0.00000000e+00 9.26283435e-12
6.91830971e-03 1.09413866e-11 1.09331145e-11 8.27209076e-15 0.00000000e+00 0.00000000e+00 1.09331145e-11
7.94328235e-03 1.29182562e-11 1.29045807e-11 1.36755101e-14 0.00000000e+00 0.00000000e+00 1.29045807e-11
9.12010839e-03 1.52546689e-11 1.52315429e-11 2.31260547e-14 0.00000000e+00 0.00000000e+00 1.52315429e-11
1.04712855e-02 1.70474592e-11 1.70115517e-11 3.59075237e-14 0.00000000e+00 0.00000000e+00 1.70115517e-11
1.20226443e-02 1.70667660e-11 1.70115517e-11 5.52142673e-14 7.57859418e-314 4.99675188e-316 1.70115517e-11
1.38038426e-02 1.70824342e-11 1.70115517e-11 7.08824562e-14 2.60459280e-274 2.54571241e-276 1.70115517e-11
1.58489319e-02 1.71140965e-11 1.70115517e-11 1.02544750e-13 6.72340948e-240 7.51023877e-242 1.70115517e-11
1.81970086e-02 1.71525191e-11 1.70115517e-11 1.40967351e-13 5.97785191e-210 9.71095867e-212 1.70115517e-11
2.08929613e-02 1.71924821e-11 1.70115517e-11 1.80930429e-13 6.49948212e-184 1.54314002e-185 1.70115517e-11
2.39883292e-02 1.72597899e-11 1.70115517e-11 2.48238215e-13 2.97424259e-161 8.73591949e-163 1.70115517e-11
2.75422870e-02 1.73229154e-11 1.70115517e-11 3.11363678e-13 1.56180703e-141 5.83725317e-143 1.70115517e-11
3.16227766e-02 1.73906781e-11 1.70115517e-11 3.79126405e-13 2.18724334e-124 9.82882931e-126 1.70115517e-11
3.63078055e-02 1.74405550e-11 1.70115517e-11 4.29003271e-13 1.74987970e-109 9.12040021e-111 1.70115517e-11
4.16869383e-02 1.75920758e-11 1.70115517e-11 5.80524047e-13 1.57579714e-96 1.10782096e-97 1.70115517e-11
4.78630092e-02 1.77527896e-11 1.70115517e-11 7.41237892e-13 2.82575482e-85 2.55328466e-86 1.70115517e-11
5.49540874e-02 1.78554454e-11 1.70115517e-11 8.43893637e-13 1.67364861e-75 1.78009175e-76 1.70115517e-11
6.30957344e-02 1.79360800e-11 1.70115517e-11 9.24528327e-13 6.94093374e-67 8.37550657e-68 1.70115517e-11
7.24435960e-02 1.78608270e-11 1.70115517e-11 8.49275247e-13 2.23274795e-59 2.63051341e-60 1.70115517e-11
8.31763771e-02 1.78367317e-11 1.70115517e-11 8.25179940e-13 6.84077186e-53 8.37063985e-54 1.70115517e-11
9.54992586e-02 1.78528295e-11 1.70115517e-11 8.41277820e-13 3.58391509e-47 4.75904609e-48 1.70115517e-11
1.09647820e-01 1.71259853e-11 1.62459122e-11 8.80073098e-13 3.59927714e-42 5.42269412e-43 1.62459122e-11
1.25892541e-01 1.59939145e-11 1.51615674e-11 8.32347113e-13 8.51243643e-38 1.34966909e-38 1.51615674e-11
1.44543977e-01 1.49084397e-11 1.41495980e-11 7.58841706e-13 5.31193213e-34 8.72308163e-35 1.41495980e-11
1.65958691e-01 1.39861058e-11 1.32051732e-11 7.80932642e-13 8.27746450e-31 1.57037898e-31 1.32051732e-11
1.90546072e-01 1.31483623e-11 1.23237846e-11 8.24577645e-13 3.66798832e-28 8.34646968e-29 1.23237846e-11
2.18776162e-01 1.22399734e-11 1.15012250e-11 7.38748417e-13 6.33187995e-26 1.54222735e-26 1.15012250e-11
2.51188643e-01 1.15590081e-11 1.07335677e-11 8.25440391e-13 9.61655924e-24 2.89671184e-24 1.07335677e-11
2.88403150e-01 1.08051285e-11 1.00171482e-11 7.87980234e-13 7.61898504e-22 2.42786876e-22 1.00171482e-11
3.31131121e-01 1.00788444e-11 9.34854667e-12 7.30297690e-13 3.24666118e-20 1.06374623e-20 9.34854667e-12
3.80189396e-01 9.38461613e-12 8.72457139e-12 6.60043917e-13 8.22025084e-19 2.73562024e-19 8.72457139e-12
4.36515832e-01 8.75858069e-12 8.14224377e-12 6.16323931e-13 1.29893108e-17 4.35806121e-18 8.14224377e-12
5.01187234e-01 8.16695399e-12 7.59878402e-12 5.68033660e-13 1.36308260e-16 4.55273655e-17 7.59878402e-12
5.75439937e-01 7.60725713e-12 7.09159786e-12 5.14659916e-13 9.99351552e-16 3.29434037e-16 7.09159786e-12
6.60693448e-01 7.09664633e-12 6.61826421e-12 4.73044832e-13 5.33729249e-15 1.72335050e-15 6.61826421e-12
7.58577575e-01 6.62745064e-12 6.17652353e-12 4.28800511e-13 2.21265924e-14 6.91990466e-15 6.17652353e-12
8.70963590e-01 6.21373526e-12 5.76426715e-12 3.75712948e-13 7.37551610e-14 2.20320298e-14 5.76426715e-12
1.00000000e+00 5.90727265e-12 5.37952711e-12 3.25413537e-13 2.02331997e-13 5.67988712e-14 5.37952711e-12
1.14815362e+00 5.77256606e-12 5.02046681e-12 2.70326279e-13 4.81772969e-13 1.23200885e-13 5.02046681e-12
1.31825674e+00 5.91526479e-12 4.68537225e-12 2.15400577e-13 1.01449197e-12 2.29975365e-13 4.68537225e-12
1.51356125e+00 6.44231846e-12 4.37264380e-12 1.71560975e-13 1.89811368e-12 3.74243661e-13 4.37264380e-12
1.73780083e+00 7.35688243e-12 4.08078863e-12 1.32503294e-13 3.14359051e-12 5.23800832e-13 4.08078863e-12
1.99526231e+00 8.56855544e-12 3.80841354e-12 9.89403644e-14 4.66120154e-12 6.22679689e-13 3.80841354e-12
2.29086765e+00 9.85602667e-12 3.55421832e-12 7.01230604e-14 6.23168529e-12 6.36077386e-13 3.55421832e-12
2.63026799e+00 1.10111857e-11 3.31698953e-12 4.65639638e-14 7.64763217e-12 5.65105880e-13 3.31698953e-12
3.01995172e+00 1.19051117e-11 3.09559474e-12 3.01009357e-14 8.77941605e-12 4.51880755e-13 3.09559474e-12
3.46736850e+00 1.24024886e-11 2.88897711e-12 1.87330173e-14 9.49477846e-12 3.28967254e-13 2.88897711e-12
3.98107171e+00 1.24643649e-11 2.69615031e-12 1.12457270e-14 9.75696887e-12 2.17062620e-13 2.69615031e-12
4.57088190e+00 1.21757150e-11 2.51619387e-12 6.66267493e-15 9.65285850e-12 1.35283861e-13 2.51619387e-12
5.24807460e+00 1.13803404e-11 2.08050667e-12 3.40173574e-15 9.29643197e-12 7.96353958e-14 2.08050667e-12
6.02559586e+00 1.01865983e-11 1.37457712e-12 1.34081904e-15 8.81068032e-12 4.46339503e-14 1.37457712e-12
6.70000000e+00 9.37166688e-12 9.99872685e-13 6.34236309e-16 8.37115996e-12 2.74590869e-14 9.99872685e-13
6.92422916e+00 9.12981049e-12 9.05846924e-13 4.96240227e-16 8.22346733e-12 2.34345167e-14 9.05846924e-13
7.15596261e+00 8.95627560e-12 8.20663132e-13 3.86237654e-16 8.13522623e-12 1.97928885e-14 8.20663132e-13
7.39545150e+00 8.95503353e-12 7.43489831e-13 2.92099587e-16 8.21125160e-12 1.69625556e-14 7.43489831e-13
7.64295536e+00 9.45019364e-12 6.73573732e-13 2.12400850e-16 8.77640750e-12 1.48030974e-14 6.73573732e-13
7.89874245e+00 1.06737682e-11 6.10232385e-13 1.41724920e-16 1.00633941e-11 1.31485618e-14 6.10232385e-13
8.16308998e+00 1.24459846e-11 5.52847515e-13 8.86142443e-17 1.18930484e-11 1.15384230e-14 5.52847515e-13
8.43628443e+00 1.47965523e-11 5.00858987e-13 4.87715437e-17 1.42956445e-11 9.42462762e-15 5.00858987e-13
8.71862190e+00 1.64566535e-11 4.53759343e-13 2.56490562e-17 1.60028685e-11 6.90631255e-15 4.53759343e-13
9.01040836e+00 1.81335026e-11 4.11088843e-13 9.10117279e-18 1.77224047e-11 3.73595747e-15 4.11088843e-13
9.31196005e+00 1.93497080e-11 3.72430980e-13 0.00000000e+00 1.89772770e-11 0.00000000e+00 3.72430980e-13
9.62360379e+00 1.93571232e-11 3.37408415e-13 0.00000000e+00 1.90197148e-11 0.00000000e+00 3.37408415e-13
9.94567731e+00 1.83743518e-11 3.05679292e-13 0.00000000e+00 1.80686725e-11 0.00000000e+00 3.05679292e-13
1.02785297e+01 1.72644917e-11 2.76933904e-13 0.00000000e+00 1.69875578e-11 0.00000000e+00 2.76933904e-13
1.06225216e+01 1.60401056e-11 2.50891667e-13 0.00000000e+00 1.57892139e-11 0.00000000e+00 2.50891667e-13
1.09780260e+01 1.46000873e-11 2.27298384e-13 0.00000000e+00 1.43727889e-11 0.00000000e+00 2.27298384e-13
1.13454280e+01 1.33581444e-11 2.05923759e-13 0.00000000e+00 1.31522206e-11 0.00000000e+00 2.05923759e-13
1.17251259e+01 1.22422788e-11 1.86559155e-13 0.00000000e+00 1.20557196e-11 0.00000000e+00 1.86559155e-13
1.21175312e+01 1.12105714e-11 1.69015555e-13 0.00000000e+00 1.10415558e-11 0.00000000e+00 1.69015555e-13
1.25230691e+01 1.02386880e-11 1.53121715e-13 0.00000000e+00 1.00855663e-11 0.00000000e+00 1.53121715e-13
1.29421791e+01 9.40592816e-12 1.38722496e-13 0.00000000e+00 9.26720566e-12 0.00000000e+00 1.38722496e-13
1.33753155e+01 8.68055365e-12 1.25677347e-13 0.00000000e+00 8.55487631e-12 0.00000000e+00 1.25677347e-13
1.38229477e+01 8.22081893e-12 1.13858934e-13 0.00000000e+00 8.10696000e-12 0.00000000e+00 1.13858934e-13
1.42855609e+01 7.99495425e-12 1.03151898e-13 0.00000000e+00 7.89180235e-12 0.00000000e+00 1.03151898e-13
1.47636563e+01 8.17648962e-12 9.34517274e-14 0.00000000e+00 8.08303789e-12 0.00000000e+00 9.34517274e-14
1.52577522e+01 8.46762287e-12 8.46637387e-14 0.00000000e+00 8.38295913e-12 0.00000000e+00 8.46637387e-14
1.57683840e+01 8.84115944e-12 7.67021526e-14 0.00000000e+00 8.76445728e-12 0.00000000e+00 7.67021526e-14
1.62961051e+01 9.21251852e-12 6.94892560e-14 0.00000000e+00 9.14302927e-12 0.00000000e+00 6.94892560e-14
1.68414875e+01 9.59854609e-12 6.29546439e-14 0.00000000e+00 9.53559144e-12 0.00000000e+00 6.29546439e-14
1.74051222e+01 9.85304683e-12 5.70345319e-14 0.00000000e+00 9.79601230e-12 0.00000000e+00 5.70345319e-14
1.79876201e+01 1.00001788e-11 5.16711337e-14 0.00000000e+00 9.94850767e-12 0.00000000e+00 5.16711337e-14
1.85896125e+01 9.96964323e-12 4.68120974e-14 0.00000000e+00 9.92283114e-12 0.00000000e+00 4.68120974e-14
1.92117518e+01 9.74900022e-12 4.24099939e-14 0.00000000e+00 9.70659023e-12 0.00000000e+00 4.24099939e-14
1.98547123e+01 9.43933798e-12 3.84218542e-14 0.00000000e+00 9.40091612e-12 0.00000000e+00 3.84218542e-14
2.05191907e+01 9.05928785e-12 3.48087501e-14 0.00000000e+00 9.02447910e-12 0.00000000e+00 3.48087501e-14
2.12059073e+01 8.67195477e-12 3.15354141e-14 0.00000000e+00 8.64041935e-12 0.00000000e+00 3.15354141e-14
2.19156062e+01 8.33753873e-12 2.85698952e-14 0.00000000e+00 8.30896883e-12 0.00000000e+00 2.85698952e-14
2.26490567e+01 8.00614418e-12 2.58832470e-14 0.00000000e+00 7.98026093e-12 0.00000000e+00 2.58832470e-14
2.34070535e+01 7.66870129e-12 2.34492452e-14 0.00000000e+00 7.64525204e-12 0.00000000e+00 2.34492452e-14
2.41904183e+01 7.35401048e-12 2.12441313e-14 0.00000000e+00 7.33276635e-12 0.00000000e+00 2.12441313e-14
2.50000000e+01 7.03819678e-12 1.92463813e-14 0.00000000e+00 7.01895040e-12 0.00000000e+00 1.92463813e-14
2.75422870e+01 6.10727286e-12 1.43935895e-14 0.00000000e+00 6.09287928e-12 0.00000000e+00 1.43935895e-14
3.16227766e+01 4.82342084e-12 9.50975027e-15 0.00000000e+00 4.81391109e-12 0.00000000e+00 9.50975027e-15
3.63078055e+01 3.57932442e-12 6.28302969e-15 0.00000000e+00 3.57304139e-12 0.00000000e+00 6.28302969e-15
4.16869383e+01 2.46925540e-12 4.15115655e-15 0.00000000e+00 2.46510424e-12 0.00000000e+00 4.15115655e-15
4.78630092e+01 1.58898353e-12 2.74264194e-15 0.00000000e+00 1.58624089e-12 0.00000000e+00 2.74264194e-15
5.49540874e+01 9.68729515e-13 1.81204556e-15 0.00000000e+00 9.66917469e-13 0.00000000e+00 1.81204556e-15
6.30957344e+01 5.66127575e-13 1.19720663e-15 0.00000000e+00 5.64930368e-13 0.00000000e+00 1.19720663e-15
7.24435960e+01 3.20750061e-13 7.90986575e-16 0.00000000e+00 3.19959074e-13 0.00000000e+00 7.90986575e-16
8.31763771e+01 1.77724848e-13 5.22599647e-16 0.00000000e+00 1.77202248e-13 0.00000000e+00 5.22599647e-16
9.54992586e+01 9.70573304e-14 3.45278163e-16 0.00000000e+00 9.67120522e-14 0.00000000e+00 3.45278163e-16
1.09647820e+02 5.24575244e-14 2.28123020e-16 0.00000000e+00 5.22294014e-14 0.00000000e+00 2.28123020e-16
1.25892541e+02 2.84672417e-14 1.50719385e-16 0.00000000e+00 2.83165223e-14 0.00000000e+00 1.50719385e-16
1.44543977e+02 1.54138280e-14 9.95793099e-17 0.00000000e+00 1.53142486e-14 0.00000000e+00 9.95793099e-17
1.65958691e+02 7.96274614e-15 6.57913976e-17 0.00000000e+00 7.89695474e-15 0.00000000e+00 6.57913976e-17
1.90546072e+02 4.12940609e-15 4.34679453e-17 0.00000000e+00 4.08593815e-15 0.00000000e+00 4.34679453e-17
2.18776162e+02 2.14351760e-15 2.87189867e-17 0.00000000e+00 2.11479861e-15 0.00000000e+00 2.87189867e-17
2.51188643e+02 1.11138024e-15 1.89744463e-17 0.00000000e+00 1.09240579e-15 0.00000000e+00 1.89744463e-17
2.88403150e+02 5.74874320e-16 1.25362924e-17 0.00000000e+00 5.62338028e-16 0.00000000e+00 1.25362924e-17
3.31131121e+02 2.97239987e-16 8.28264623e-18 0.00000000e+00 2.88957341e-16 0.00000000e+00 8.28264623e-18
3.80189396e+02 1.53498428e-16 5.47229010e-18 0.00000000e+00 1.48026138e-16 0.00000000e+00 5.47229010e-18
4.36515832e+02 7.93067428e-17 3.61550621e-18 0.00000000e+00 7.56912366e-17 0.00000000e+00 3.61550621e-18
5.01187234e+02 4.10063644e-17 2.38874127e-18 0.00000000e+00 3.86176231e-17 0.00000000e+00 2.38874127e-18
5.75439937e+02 2.12453355e-17 1.57822570e-18 0.00000000e+00 1.96671098e-17 0.00000000e+00 1.57822570e-18
6.60693448e+02 1.10429347e-17 1.04272338e-18 0.00000000e+00 1.00002114e-17 0.00000000e+00 1.04272338e-18
7.58577575e+02 5.76667405e-18 6.88920507e-19 0.00000000e+00 5.07775354e-18 0.00000000e+00 6.88920507e-19
8.70963590e+02 3.02967492e-18 4.55165265e-19 0.00000000e+00 2.57450965e-18 0.00000000e+00 4.55165265e-19
1.00000000e+03 1.30347799e-18 0.00000000e+00 0.00000000e+00 1.30347799e-18 0.00000000e+00 0.00000000e+00
