# column 1: lambda (micron)
# column 2: total flux; lambda*F_lambda (W/m2)
# column 3: direct stellar flux; lambda*F_lambda (W/m2)
# column 4: scattered stellar flux; lambda*F_lambda (W/m2)
# column 5: total dust emission flux; lambda*F_lambda (W/m2)
# column 6: dust emission scattered flux; lambda*F_lambda (W/m2)
# column 7: transparent flux; lambda*F_lambda (W/m2)
1.00000000e-03 6.93993809e-13 6.93993746e-13 6.29537233e-20 0.00000000e+00 0.00000000e+00 6.93993746e-13
1.14815362e-03 8.19135246e-13 8.19135139e-13 1.07296026e-19 0.00000000e+00 0.00000000e+00 8.19135139e-13
1.31825674e-03 9.66842265e-13 9.66842108e-13 1.56682878e-19 0.00000000e+00 0.00000000e+00 9.66842108e-13
1.51356125e-03 1.14118391e-12 1.14118369e-12 2.21350918e-19 0.00000000e+00 0.00000000e+00 1.14118369e-12
1.73780083e-03 1.34696307e-12 1.34696266e-12 4.13343620e-19 0.00000000e+00 0.00000000e+00 1.34696266e-12
1.99526231e-03 1.58984861e-12 1.58984782e-12 7.87537797e-19 0.00000000e+00 0.00000000e+00 1.58984782e-12
2.29086765e-03 1.87653130e-12 1.87653019e-12 1.10469901e-18 0.00000000e+00 0.00000000e+00 1.87653019e-12
2.63026799e-03 2.21490967e-12 2.21490731e-12 2.36188122e-18 0.00000000e+00 0.00000000e+00 2.21490731e-12
3.01995172e-03 2.61430469e-12 2.61430080e-12 3.88934880e-18 0.00000000e+00 0.00000000e+00 2.61430080e-12
3.46736850e-03 3.08571997e-12 3.08571319e-12 6.77992114e-18 0.00000000e+00 0.00000000e+00 3.08571319e-12
3.98107171e-03 3.64214179e-12 3.64213095e-12 1.08390040e-17 0.00000000e+00 0.00000000e+00 3.64213095e-12
4.57088190e-03 4.29890534e-12 4.29888232e-12 2.30182164e-17 0.00000000e+00 0.00000000e+00 4.29888232e-12
5.24807460e-03 5.07410100e-12 5.07405951e-12 4.14876293e-17 0.00000000e+00 0.00000000e+00 5.07405951e-12
6.02559586e-03 5.98909356e-12 5.98901715e-12 7.64122778e-17 0.00000000e+00 0.00000000e+00 5.98901715e-12
6.91830971e-03 7.06909501e-12 7.06896053e-12 1.34480304e-16 0.00000000e+00 0.00000000e+00 7.06896053e-12
7.94328235e-03 8.34389864e-12 8.34363998e-12 2.58653942e-16 2.26213215e-304 9.98010807e-308 8.34363998e-12
9.12010839e-03 9.84847998e-12 9.84817045e-12 3.09532886e-16 9.63694068e-266 5.70304167e-269 9.84817045e-12
1.04712855e-02 1.09995298e-11 1.09990604e-11 4.69314253e-16 3.97233002e-232 3.01446307e-235 1.09990604e-11
1.20226443e-02 1.09997216e-11 1.09990604e-11 6.61146142e-16 6.08665276e-203 6.81337828e-206 1.09990604e-11
1.38038426e-02 1.09999884e-11 1.09990604e-11 9.27920214e-16 1.62729976e-177 2.98360325e-180 1.09990604e-11
1.58489319e-02 1.10003735e-11 1.09990604e-11 1.31304560e-15 2.16464862e-155 5.06449725e-158 1.09990604e-11
1.81970086e-02 1.10009773e-11 1.09990604e-11 1.91686747e-15 3.80710225e-136 1.31356243e-138 1.09990604e-11
2.08929613e-02 1.10019286e-11 1.09990604e-11 2.86816310e-15 1.96396761e-119 9.39151195e-122 1.09990604e-11
2.39883292e-02 1.10027141e-11 1.09990604e-11 3.65367212e-15 6.81635996e-105 4.39791974e-107 1.09990604e-11
2.75422870e-02 1.10043852e-11 1.09990604e-11 5.32475279e-15 3.02303259e-92 2.62501140e-94 1.09990604e-11
3.16227766e-02 1.10048874e-11 1.09990604e-11 5.82695226e-15 2.92245671e-81 3.08631499e-83 1.09990604e-11
3.63078055e-02 1.10063840e-11 1.09990604e-11 7.32353309e-15 1.00641990e-71 1.27424679e-73 1.09990604e-11
4.16869383e-02 1.10092032e-11 1.09990604e-11 1.01427627e-14 1.90235019e-63 3.34175261e-65 1.09990604e-11
4.78630092e-02 1.10130238e-11 1.09990604e-11 1.39633868e-14 2.86214375e-56 6.93168277e-58 1.09990604e-11
5.49540874e-02 1.10162558e-11 1.09990604e-11 1.71953389e-14 4.74066450e-50 1.43483973e-51 1.09990604e-11
6.30957344e-02 1.10208368e-11 1.09990604e-11 2.17763509e-14 1.53239906e-44 5.91982037e-46 1.09990604e-11
7.24435960e-02 1.10208379e-11 1.09990604e-11 2.17774384e-14 8.88821050e-40 3.55195260e-41 1.09990604e-11
8.31763771e-02 1.10210007e-11 1.09990604e-11 2.19402227e-14 9.06808203e-36 3.57774374e-37 1.09990604e-11
9.54992586e-02 1.10221021e-11 1.09990604e-11 2.30416267e-14 2.54518397e-32 1.03908733e-33 1.09990604e-11
1.09647820e-01 1.05274993e-11 1.05040253e-11 2.34740212e-14 2.14335567e-29 8.92054674e-31 1.05040253e-11
1.25892541e-01 9.82205591e-12 9.80292679e-12 1.91291167e-14 6.90055469e-27 2.66071658e-28 9.80292679e-12
1.44543977e-01 9.16641699e-12 9.14862359e-12 1.77933953e-14 9.35048213e-25 3.35331318e-26 9.14862359e-12
1.65958691e-01 8.55592974e-12 8.53799231e-12 1.79374277e-14 4.70805261e-23 1.79735006e-24 8.53799231e-12
1.90546072e-01 7.98903176e-12 7.96811805e-12 2.09137113e-14 9.89058377e-22 4.68204877e-23 7.96811805e-12
2.18776162e-01 7.45707459e-12 7.43628044e-12 2.07941433e-14 1.17380543e-20 6.20969071e-22 7.43628044e-12
2.51188643e-01 6.96287608e-12 6.93994070e-12 2.29352426e-14 1.40962775e-19 8.73569609e-21 6.93994070e-12
2.88403150e-01 6.49779871e-12 6.47672950e-12 2.10680357e-14 1.16777203e-18 6.83204450e-20 6.47672950e-12
3.31131121e-01 6.06315722e-12 6.04443567e-12 1.87148807e-14 6.67706824e-18 3.72569994e-19 6.04443567e-12
3.80189396e-01 5.65874851e-12 5.64099558e-12 1.77251567e-14 2.77709119e-17 1.48890916e-18 5.64099558e-12
4.36515832e-01 5.28005541e-12 5.26448339e-12 1.54843067e-14 8.77128401e-17 4.61843825e-18 5.26448339e-12
5.01187234e-01 4.92735030e-12 4.91310176e-12 1.40301418e-14 2.18392798e-16 1.11834029e-17 4.91310176e-12
5.75439937e-01 4.59912375e-12 4.58517335e-12 1.35011921e-14 4.49204778e-16 2.33110286e-17 4.58517335e-12
6.60693448e-01 4.29279487e-12 4.27913275e-12 1.28730269e-14 7.89098268e-16 4.00631281e-17 4.27913275e-12
7.58577575e-01 4.00600663e-12 3.99351904e-12 1.12412131e-14 1.24637988e-15 6.21826281e-17 3.99351904e-12
8.70963590e-01 3.73857607e-12 3.72696882e-12 9.76473371e-15 1.84251369e-15 9.10744819e-17 3.72696882e-12
1.00000000e+00 3.48949675e-12 3.47820968e-12 8.61775046e-15 2.66932154e-15 1.31439495e-16 3.47820968e-12
1.14815362e+00 3.25777856e-12 3.24605414e-12 7.60636106e-15 4.11805685e-15 2.08355430e-16 3.24605414e-12
1.31825674e+00 3.04266872e-12 3.02939399e-12 6.23142137e-15 7.04331221e-15 3.71846494e-16 3.02939399e-12
1.51356125e+00 2.84524357e-12 2.82719497e-12 5.09713996e-15 1.29514588e-14 6.99464324e-16 2.82719497e-12
1.73780083e+00 2.66612626e-12 2.63849186e-12 3.94619816e-15 2.36881962e-14 1.21899309e-15 2.63849186e-12
1.99526231e+00 2.50634728e-12 2.46238388e-12 2.98456885e-15 4.09788310e-14 1.83499889e-15 2.46238388e-12
2.29086765e+00 2.36540031e-12 2.29803035e-12 2.27254479e-15 6.50974199e-14 2.35130330e-15 2.29803035e-12
2.63026799e+00 2.24041914e-12 2.14464670e-12 1.47424839e-15 9.42981893e-14 2.63519126e-15 2.14464670e-12
3.01995172e+00 2.12839426e-12 2.00150076e-12 1.04619275e-15 1.25847308e-13 2.58704635e-15 2.00150076e-12
3.46736850e+00 2.02376361e-12 1.86790919e-12 6.67897392e-16 1.55186515e-13 2.26210375e-15 1.86790919e-12
3.98107171e+00 1.92147027e-12 1.74323429e-12 4.37603743e-16 1.77798375e-13 1.78386555e-15 1.74323429e-12
4.57088190e+00 1.81827621e-12 1.62688090e-12 2.58622939e-16 1.91136687e-13 1.27829392e-15 1.62688090e-12
5.24807460e+00 1.54013579e-12 1.34518114e-12 1.49888605e-16 1.94804757e-13 8.49126382e-16 1.34518114e-12
6.02559586e+00 1.07967347e-12 8.88752369e-13 5.75960076e-17 1.90863505e-13 5.12965382e-16 8.88752369e-13
6.70000000e+00 8.30379519e-13 6.46481889e-13 2.73817726e-17 1.83870247e-13 3.28834199e-16 6.46481889e-13
6.92422916e+00 7.66572097e-13 5.85688198e-13 2.15032985e-17 1.80862396e-13 2.86491878e-16 5.85688198e-13
7.15596261e+00 7.09927418e-13 5.30611407e-13 1.78353755e-17 1.79298175e-13 2.44442015e-16 5.30611407e-13
7.39545150e+00 6.61905882e-13 4.80713913e-13 1.37438312e-17 1.81178225e-13 2.07256640e-16 4.80713913e-13
7.64295536e+00 6.29032513e-13 4.35508666e-13 9.77908897e-18 1.93514068e-13 1.77264637e-16 4.35508666e-13
7.89874245e+00 6.18025692e-13 3.94554418e-13 6.42773398e-18 2.23464846e-13 1.49663351e-16 3.94554418e-13
8.16308998e+00 6.26268800e-13 3.57451415e-13 4.32560236e-18 2.68813059e-13 1.26899363e-16 3.57451415e-13
8.43628443e+00 6.57136039e-13 3.23837494e-13 2.33042023e-18 3.33296214e-13 1.00486609e-16 3.23837494e-13
8.71862190e+00 6.75950233e-13 2.93384550e-13 1.47949094e-18 3.82564203e-13 7.73042366e-17 2.93384550e-13
9.01040836e+00 7.01044765e-13 2.65795332e-13 7.88790272e-19 4.35248645e-13 5.09336453e-17 2.65795332e-13
9.31196005e+00 7.22789872e-13 2.40800541e-13 0.00000000e+00 4.81989331e-13 0.00000000e+00 2.40800541e-13
9.62360379e+00 7.05790273e-13 2.18156204e-13 0.00000000e+00 4.87634069e-13 0.00000000e+00 2.18156204e-13
9.94567731e+00 6.59618786e-13 1.97641289e-13 0.00000000e+00 4.61977497e-13 0.00000000e+00 1.97641289e-13
1.02785297e+01 6.04946456e-13 1.79055550e-13 0.00000000e+00 4.25890906e-13 0.00000000e+00 1.79055550e-13
1.06225216e+01 5.51722754e-13 1.62217572e-13 0.00000000e+00 3.89505182e-13 0.00000000e+00 1.62217572e-13
1.09780260e+01 4.94348163e-13 1.46962999e-13 0.00000000e+00 3.47385164e-13 0.00000000e+00 1.46962999e-13
1.13454280e+01 4.44239053e-13 1.33142932e-13 0.00000000e+00 3.11096121e-13 0.00000000e+00 1.33142932e-13
1.17251259e+01 3.99268533e-13 1.20622472e-13 0.00000000e+00 2.78646061e-13 0.00000000e+00 1.20622472e-13
1.21175312e+01 3.59185974e-13 1.09279408e-13 0.00000000e+00 2.49906565e-13 0.00000000e+00 1.09279408e-13
1.25230691e+01 3.22442387e-13 9.90030204e-14 0.00000000e+00 2.23439366e-13 0.00000000e+00 9.90030204e-14
1.29421791e+01 2.91252257e-13 8.96930008e-14 0.00000000e+00 2.01559257e-13 0.00000000e+00 8.96930008e-14
1.33753155e+01 2.63556886e-13 8.12584743e-14 0.00000000e+00 1.82298412e-13 0.00000000e+00 8.12584743e-14
1.38229477e+01 2.43741307e-13 7.36171115e-14 0.00000000e+00 1.70124195e-13 0.00000000e+00 7.36171115e-14
1.42855609e+01 2.30352753e-13 6.66943252e-14 0.00000000e+00 1.63658428e-13 0.00000000e+00 6.66943252e-14
1.47636563e+01 2.27351529e-13 6.04225420e-14 0.00000000e+00 1.66928987e-13 0.00000000e+00 6.04225420e-14
1.52577522e+01 2.26852867e-13 5.47405431e-14 0.00000000e+00 1.72112324e-13 0.00000000e+00 5.47405431e-14
1.57683840e+01 2.29191652e-13 4.95928665e-14 0.00000000e+00 1.79598786e-13 0.00000000e+00 4.95928665e-14
1.62961051e+01 2.32102051e-13 4.49292657e-14 0.00000000e+00 1.87172785e-13 0.00000000e+00 4.49292657e-14
1.68414875e+01 2.35414143e-13 4.07042194e-14 0.00000000e+00 1.94709924e-13 0.00000000e+00 4.07042194e-14
1.74051222e+01 2.36099890e-13 3.68764869e-14 0.00000000e+00 1.99223403e-13 0.00000000e+00 3.68764869e-14
1.79876201e+01 2.34569211e-13 3.34087056e-14 0.00000000e+00 2.01160505e-13 0.00000000e+00 3.34087056e-14
1.85896125e+01 2.29762680e-13 3.02670267e-14 0.00000000e+00 1.99495653e-13 0.00000000e+00 3.02670267e-14
1.92117518e+01 2.20619202e-13 2.74207841e-14 0.00000000e+00 1.93198418e-13 0.00000000e+00 2.74207841e-14
1.98547123e+01 2.09924118e-13 2.48421957e-14 0.00000000e+00 1.85081922e-13 0.00000000e+00 2.48421957e-14
2.05191907e+01 1.98596372e-13 2.25060919e-14 0.00000000e+00 1.76090280e-13 0.00000000e+00 2.25060919e-14
2.12059073e+01 1.87116581e-13 2.03896700e-14 0.00000000e+00 1.66726911e-13 0.00000000e+00 2.03896700e-14
2.19156062e+01 1.77795347e-13 1.84722717e-14 0.00000000e+00 1.59323075e-13 0.00000000e+00 1.84722717e-14
2.26490567e+01 1.68762645e-13 1.67351811e-14 0.00000000e+00 1.52027464e-13 0.00000000e+00 1.67351811e-14
2.34070535e+01 1.60313991e-13 1.51614426e-14 0.00000000e+00 1.45152549e-13 0.00000000e+00 1.51614426e-14
2.41904183e+01 1.52640205e-13 1.37356949e-14 0.00000000e+00 1.38904511e-13 0.00000000e+00 1.37356949e-14
2.50000000e+01 1.45375908e-13 1.24440213e-14 0.00000000e+00 1.32931887e-13 0.00000000e+00 1.24440213e-14
2.75422870e+01 1.25511584e-13 9.30637977e-15 0.00000000e+00 1.16205204e-13 0.00000000e+00 9.30637977e-15
3.16227766e+01 9.99178185e-14 6.14866414e-15 0.00000000e+00 9.37691543e-14 0.00000000e+00 6.14866414e-15
3.63078055e+01 7.62878299e-14 4.06238211e-15 0.00000000e+00 7.22254478e-14 0.00000000e+00 4.06238211e-15
4.16869383e+01 5.48884316e-14 2.68398924e-15 0.00000000e+00 5.22044423e-14 0.00000000e+00 2.68398924e-15
4.78630092e+01 3.71284698e-14 1.77329411e-15 0.00000000e+00 3.53551757e-14 0.00000000e+00 1.77329411e-15
5.49540874e+01 2.38614710e-14 1.17160380e-15 0.00000000e+00 2.26898672e-14 0.00000000e+00 1.17160380e-15
6.30957344e+01 1.47204646e-14 7.74070953e-16 0.00000000e+00 1.39463936e-14 0.00000000e+00 7.74070953e-16
7.24435960e+01 8.79372395e-15 5.11423607e-16 0.00000000e+00 8.28230035e-15 0.00000000e+00 5.11423607e-16
8.31763771e+01 5.12578470e-15 3.37894226e-16 0.00000000e+00 4.78789047e-15 0.00000000e+00 3.37894226e-16
9.54992586e+01 2.93906552e-15 2.23244502e-16 0.00000000e+00 2.71582102e-15 0.00000000e+00 2.23244502e-16
1.09647820e+02 1.66432980e-15 1.47496179e-16 0.00000000e+00 1.51683362e-15 0.00000000e+00 1.47496179e-16
1.25892541e+02 9.44062182e-16 9.74497594e-17 0.00000000e+00 8.46612422e-16 0.00000000e+00 9.74497594e-17
1.44543977e+02 5.33782063e-16 6.43844175e-17 0.00000000e+00 4.69397645e-16 0.00000000e+00 6.43844175e-17
1.65958691e+02 2.90208302e-16 4.25383628e-17 0.00000000e+00 2.47669940e-16 0.00000000e+00 4.25383628e-17
1.90546072e+02 1.58790542e-16 2.81048176e-17 0.00000000e+00 1.30685725e-16 0.00000000e+00 2.81048176e-17
2.18776162e+02 8.73494621e-17 1.85686688e-17 0.00000000e+00 6.87807933e-17 0.00000000e+00 1.85686688e-17
2.51188643e+02 4.83110419e-17 1.22681978e-17 0.00000000e+00 3.60428441e-17 0.00000000e+00 1.22681978e-17
2.88403150e+02 2.68893878e-17 8.10551794e-18 0.00000000e+00 1.87838698e-17 0.00000000e+00 8.10551794e-18
3.31131121e+02 1.51103973e-17 5.35526259e-18 0.00000000e+00 9.75513469e-18 0.00000000e+00 5.35526259e-18
3.80189396e+02 8.58142481e-18 3.53818691e-18 0.00000000e+00 5.04323790e-18 0.00000000e+00 3.53818691e-18
4.36515832e+02 4.93677276e-18 2.33765691e-18 0.00000000e+00 2.59911585e-18 0.00000000e+00 2.33765691e-18
5.01187234e+02 2.87955627e-18 1.54447460e-18 0.00000000e+00 1.33508167e-18 0.00000000e+00 1.54447460e-18
5.75439937e+02 1.70434090e-18 1.02042425e-18 0.00000000e+00 6.83916653e-19 0.00000000e+00 1.02042425e-18
6.60693448e+02 1.02369771e-18 6.74187617e-19 0.00000000e+00 3.49510097e-19 0.00000000e+00 6.74187617e-19
7.58577575e+02 6.23674309e-19 4.45431341e-19 0.00000000e+00 1.78242968e-19 0.00000000e+00 4.45431341e-19
8.70963590e+02 3.85006379e-19 2.94293569e-19 0.00000000e+00 9.07128103e-20 0.00000000e+00 2.94293569e-19
1.00000000e+03 4.60776573e-20 0.00000000e+00 0.00000000e+00 4.60776573e-20 0.00000000e+00 0.00000000e+00
