# column 1: lambda (micron)
# column 2: total flux; lambda*F_lambda (W/m2)
# column 3: direct stellar flux; lambda*F_lambda (W/m2)
# column 4: scattered stellar flux; lambda*F_lambda (W/m2)
# column 5: total dust emission flux; lambda*F_lambda (W/m2)
# column 6: dust emission scattered flux; lambda*F_lambda (W/m2)
# column 7: transparent flux; lambda*F_lambda (W/m2)
1.00000000e-03 2.06069985e-13 2.06069257e-13 7.27721872e-19 0.00000000e+00 0.00000000e+00 2.06075710e-13
1.14815362e-03 2.43226527e-13 2.43225351e-13 1.17581894e-18 0.00000000e+00 0.00000000e+00 2.43235413e-13
1.31825674e-03 2.87082442e-13 2.87080678e-13 1.76415082e-18 0.00000000e+00 0.00000000e+00 2.87095777e-13
1.51356125e-03 3.38846152e-13 3.38844058e-13 2.09398994e-18 0.00000000e+00 0.00000000e+00 3.38865070e-13
1.73780083e-03 3.99949846e-13 3.99944378e-13 5.46781393e-18 0.00000000e+00 0.00000000e+00 3.99969435e-13
1.99526231e-03 4.72061650e-13 4.72052967e-13 8.68355320e-18 0.00000000e+00 0.00000000e+00 4.72092178e-13
2.29086765e-03 5.57185052e-13 5.57171061e-13 1.39908685e-17 0.00000000e+00 0.00000000e+00 5.57220139e-13
2.63026799e-03 6.57654085e-13 6.57629011e-13 2.50731525e-17 0.00000000e+00 0.00000000e+00 6.57698429e-13
3.01995172e-03 7.76244800e-13 7.76193693e-13 5.11068326e-17 0.00000000e+00 0.00000000e+00 7.76295028e-13
3.46736850e-03 9.16208111e-13 9.16136065e-13 7.20462970e-17 0.00000000e+00 0.00000000e+00 9.16277040e-13
3.98107171e-03 1.08140348e-12 1.08131023e-12 9.32483849e-17 0.00000000e+00 0.00000000e+00 1.08150070e-12
4.57088190e-03 1.27658013e-12 1.27636763e-12 2.12501750e-16 0.00000000e+00 0.00000000e+00 1.27651759e-12
5.24807460e-03 1.50697297e-12 1.50647398e-12 4.98985705e-16 0.00000000e+00 0.00000000e+00 1.50670006e-12
6.02559586e-03 1.77887837e-12 1.77806743e-12 8.10937598e-16 0.00000000e+00 0.00000000e+00 1.77838917e-12
6.91830971e-03 2.09974072e-12 2.09863116e-12 1.10956629e-15 0.00000000e+00 0.00000000e+00 2.09906943e-12
7.94328235e-03 2.47920151e-12 2.47699783e-12 2.20367769e-15 4.30555214e-304 8.76891216e-307 2.47757497e-12
9.12010839e-03 2.92936722e-12 2.92357694e-12 5.79027651e-15 1.85659917e-265 4.44132851e-268 2.92433286e-12
1.04712855e-02 3.27118178e-12 3.26518197e-12 5.99980756e-15 7.73448799e-232 2.14464782e-234 3.26608014e-12
1.20226443e-02 3.27323183e-12 3.26512897e-12 8.10286103e-15 1.19718396e-202 5.02506487e-205 3.26608014e-12
1.38038426e-02 3.27434710e-12 3.26506611e-12 9.28099281e-15 3.23389382e-177 2.37014302e-179 3.26608014e-12
1.58489319e-02 3.28009672e-12 3.26498886e-12 1.51078657e-14 4.34838378e-155 5.09910404e-157 3.26608014e-12
1.81970086e-02 3.28132539e-12 3.26491761e-12 1.64077793e-14 7.69448272e-136 9.97127603e-138 3.26608014e-12
2.08929613e-02 3.28947610e-12 3.26485838e-12 2.46177183e-14 3.99515026e-119 6.20964323e-121 3.26608014e-12
2.39883292e-02 3.30191809e-12 3.26478165e-12 3.71364327e-14 1.39887168e-104 2.99479595e-106 3.26608014e-12
2.75422870e-02 3.29834330e-12 3.26469240e-12 3.36508939e-14 6.24607660e-92 1.64900254e-93 3.26608014e-12
3.16227766e-02 3.30653439e-12 3.26460492e-12 4.19294627e-14 6.06171084e-81 1.73959702e-82 3.26608014e-12
3.63078055e-02 3.30434435e-12 3.26453631e-12 3.98080422e-14 2.09936232e-71 7.00564004e-73 3.26608014e-12
4.16869383e-02 3.29948310e-12 3.26447696e-12 3.50061404e-14 3.97807483e-63 1.51443898e-64 3.26608014e-12
4.78630092e-02 3.30020855e-12 3.26431339e-12 3.58951676e-14 5.99605473e-56 2.65203622e-57 3.26608014e-12
5.49540874e-02 3.29695464e-12 3.26408591e-12 3.28687255e-14 9.90955576e-50 4.58628896e-51 3.26608014e-12
6.30957344e-02 3.29817075e-12 3.26351560e-12 3.46551554e-14 3.18949960e-44 1.56646952e-45 3.26608014e-12
7.24435960e-02 3.29299952e-12 3.26284018e-12 3.01593416e-14 1.83947066e-39 8.08027249e-41 3.26608014e-12
8.31763771e-02 3.29310231e-12 3.26290028e-12 3.02020339e-14 1.87950906e-35 8.18710463e-37 3.26608014e-12
9.54992586e-02 3.29224054e-12 3.26307654e-12 2.91639970e-14 5.27931682e-32 2.34798626e-33 3.26608014e-12
1.09647820e-01 3.14786820e-12 3.11670042e-12 3.11677738e-14 4.46077237e-29 2.10734163e-30 3.11908354e-12
1.25892541e-01 2.94031923e-12 2.90906727e-12 3.12519587e-14 1.44315770e-26 6.89404329e-28 2.91089813e-12
1.44543977e-01 2.74424443e-12 2.71519190e-12 2.90525374e-14 1.96010497e-24 9.09942174e-26 2.71660820e-12
1.65958691e-01 2.56061508e-12 2.53413029e-12 2.64847863e-14 9.88498898e-23 4.89073640e-24 2.53528629e-12
1.90546072e-01 2.39299725e-12 2.36491589e-12 2.80813599e-14 2.07040891e-21 1.14327551e-22 2.36606683e-12
2.18776162e-01 2.23201493e-12 2.20688213e-12 2.51327797e-14 2.44698563e-20 1.38309309e-21 2.20814205e-12
2.51188643e-01 2.08798221e-12 2.05981765e-12 2.81642676e-14 2.94102818e-19 1.93272857e-20 2.06075806e-12
2.88403150e-01 1.95003420e-12 1.92248264e-12 2.75491052e-14 2.44785253e-18 1.61924034e-19 1.92321132e-12
3.31131121e-01 1.81936371e-12 1.79425242e-12 2.50972868e-14 1.40093858e-17 8.95711738e-19 1.79484524e-12
3.80189396e-01 1.69640450e-12 1.67456119e-12 2.17850241e-14 5.82864025e-17 3.59646426e-18 1.67504704e-12
4.36515832e-01 1.58187091e-12 1.56285022e-12 1.88367893e-14 1.83895167e-16 1.09131602e-17 1.56324485e-12
5.01187234e-01 1.47586392e-12 1.45858879e-12 1.68168067e-14 4.58323858e-16 2.66715844e-17 1.45890498e-12
5.75439937e-01 1.37838611e-12 1.36127861e-12 1.61653559e-14 9.42148310e-16 5.40019826e-17 1.36152935e-12
6.60693448e-01 1.28629879e-12 1.27045601e-12 1.41864026e-14 1.65637849e-15 9.10234486e-17 1.27065312e-12
7.58577575e-01 1.20137699e-12 1.18568941e-12 1.30602531e-14 2.62732308e-15 1.42619310e-16 1.18584249e-12
8.70963590e-01 1.12181963e-12 1.10657636e-12 1.13192387e-14 3.92403477e-15 2.12814895e-16 1.10669260e-12
1.00000000e+00 1.04818569e-12 1.03273879e-12 9.67330144e-15 5.77360109e-15 3.14538023e-16 1.03282563e-12
1.14815362e+00 9.80928574e-13 9.63825231e-13 8.09462966e-15 9.00871365e-15 5.01741785e-16 9.63888963e-13
1.31825674e+00 9.21366472e-13 8.99507564e-13 6.54714787e-15 1.53117602e-14 8.76119069e-16 8.99553520e-13
1.51356125e+00 8.72417823e-13 8.39479387e-13 5.74207132e-15 2.71963649e-14 1.53460408e-15 8.39512191e-13
1.73780083e+00 8.35162342e-13 7.83455328e-13 4.34600059e-15 4.73610133e-14 2.46326314e-15 7.83478363e-13
1.99526231e+00 8.11508274e-13 7.31168630e-13 3.30936157e-15 7.70302823e-14 3.41789614e-15 7.31184552e-13
2.29086765e+00 7.99641098e-13 6.82370157e-13 2.26170454e-15 1.15009237e-13 4.06116137e-15 6.82381128e-13
2.63026799e+00 7.95665460e-13 6.36827492e-13 1.66504404e-15 1.57172924e-13 4.20728714e-15 6.36835122e-13
3.01995172e+00 7.92321065e-13 5.94323742e-13 1.15351345e-15 1.96843810e-13 3.80634819e-15 5.94329117e-13
3.46736850e+00 7.83027666e-13 5.54656356e-13 7.37497446e-16 2.27633812e-13 3.07825070e-15 5.54660204e-13
3.98107171e+00 7.63154927e-13 5.17636231e-13 4.70029764e-16 2.45048667e-13 2.21257544e-15 5.17639021e-13
4.57088190e+00 7.30753015e-13 4.83086792e-13 2.82715722e-16 2.47383508e-13 1.46480270e-15 4.83088843e-13
5.24807460e+00 6.37622361e-13 3.99439066e-13 1.56211998e-16 2.38027083e-13 8.97718777e-16 3.99440428e-13
6.02559586e+00 4.85501331e-13 2.63906926e-13 6.02664854e-17 2.21534138e-13 5.08283884e-16 2.63907674e-13
6.70000000e+00 3.97604831e-13 1.91966975e-13 3.05357961e-17 2.05607320e-13 3.08712535e-16 1.91967457e-13
6.92422916e+00 3.73992757e-13 1.73914851e-13 2.43368838e-17 2.00053570e-13 2.63329333e-16 1.73915272e-13
7.15596261e+00 3.54192785e-13 1.57560299e-13 1.85908238e-17 1.96613895e-13 2.23029832e-16 1.57560674e-13
7.39545150e+00 3.40464748e-13 1.42743678e-13 1.43625306e-17 1.97706707e-13 1.89219591e-16 1.42744025e-13
7.64295536e+00 3.42231162e-13 1.29320342e-13 1.00440346e-17 2.12900776e-13 1.60299885e-16 1.29320701e-13
7.89874245e+00 3.67192377e-13 1.17159255e-13 6.68396693e-18 2.50026438e-13 1.39645064e-16 1.17159675e-13
8.16308998e+00 4.10834083e-13 1.06141731e-13 4.38709219e-18 3.04687965e-13 1.20307227e-16 1.06142245e-13
8.43628443e+00 4.77238630e-13 9.61602220e-14 2.60079564e-18 3.81075807e-13 9.72497212e-17 9.61608686e-14
8.71862190e+00 5.24106221e-13 8.71173986e-14 1.63647871e-18 4.36987186e-13 7.30489906e-17 8.71181185e-14
9.01040836e+00 5.73360067e-13 7.89249380e-14 9.57087838e-19 4.94434172e-13 4.90690785e-17 7.89257281e-14
9.31196005e+00 6.12969143e-13 7.15029013e-14 0.00000000e+00 5.41466241e-13 0.00000000e+00 7.15037315e-14
9.62360379e+00 6.07367631e-13 6.47789107e-14 0.00000000e+00 5.42588720e-13 0.00000000e+00 6.47796826e-14
9.94567731e+00 5.64448095e-13 5.86872919e-14 0.00000000e+00 5.05760803e-13 0.00000000e+00 5.86879481e-14
1.02785297e+01 5.14419443e-13 5.31685287e-14 0.00000000e+00 4.61250915e-13 0.00000000e+00 5.31690665e-14
1.06225216e+01 4.63905595e-13 4.81687319e-14 0.00000000e+00 4.15736863e-13 0.00000000e+00 4.81691679e-14
1.09780260e+01 4.10213704e-13 4.36391078e-14 0.00000000e+00 3.66574596e-13 0.00000000e+00 4.36394486e-14
1.13454280e+01 3.63104782e-13 3.95354263e-14 0.00000000e+00 3.23569356e-13 0.00000000e+00 3.95356937e-14
1.17251259e+01 3.22685535e-13 3.58176355e-14 0.00000000e+00 2.86867899e-13 0.00000000e+00 3.58178467e-14
1.21175312e+01 2.85838836e-13 3.24494516e-14 0.00000000e+00 2.53389384e-13 0.00000000e+00 3.24496176e-14
1.25230691e+01 2.53435803e-13 2.93979991e-14 0.00000000e+00 2.24037804e-13 0.00000000e+00 2.93981291e-14
1.29421791e+01 2.25894152e-13 2.66334931e-14 0.00000000e+00 1.99260659e-13 0.00000000e+00 2.66335956e-14
1.33753155e+01 2.02529416e-13 2.41289512e-14 0.00000000e+00 1.78400465e-13 0.00000000e+00 2.41290327e-14
1.38229477e+01 1.86904320e-13 2.18599254e-14 0.00000000e+00 1.65044394e-13 0.00000000e+00 2.18599931e-14
1.42855609e+01 1.77316911e-13 1.98042700e-14 0.00000000e+00 1.57512641e-13 0.00000000e+00 1.98043289e-14
1.47636563e+01 1.77911606e-13 1.79419188e-14 0.00000000e+00 1.59969687e-13 0.00000000e+00 1.79419747e-14
1.52577522e+01 1.80977481e-13 1.62546981e-14 0.00000000e+00 1.64722783e-13 0.00000000e+00 1.62547521e-14
1.57683840e+01 1.85817113e-13 1.47261392e-14 0.00000000e+00 1.71090974e-13 0.00000000e+00 1.47261920e-14
1.62961051e+01 1.91063003e-13 1.33413226e-14 0.00000000e+00 1.77721681e-13 0.00000000e+00 1.33413743e-14
1.68414875e+01 1.96407651e-13 1.20867313e-14 0.00000000e+00 1.84320919e-13 0.00000000e+00 1.20867817e-14
1.74051222e+01 1.98817626e-13 1.09501203e-14 0.00000000e+00 1.87867506e-13 0.00000000e+00 1.09501681e-14
1.79876201e+01 1.99129071e-13 9.92039447e-15 0.00000000e+00 1.89208677e-13 0.00000000e+00 9.92043915e-15
1.85896125e+01 1.96162228e-13 8.98750311e-15 0.00000000e+00 1.87174725e-13 0.00000000e+00 8.98754353e-15
1.92117518e+01 1.89401088e-13 8.14233980e-15 0.00000000e+00 1.81258748e-13 0.00000000e+00 8.14237531e-15
1.98547123e+01 1.80609716e-13 7.37665421e-15 0.00000000e+00 1.73233061e-13 0.00000000e+00 7.37668479e-15
2.05191907e+01 1.71605373e-13 6.68297200e-15 0.00000000e+00 1.64922401e-13 0.00000000e+00 6.68299807e-15
2.12059073e+01 1.63031834e-13 6.05452185e-15 0.00000000e+00 1.56977312e-13 0.00000000e+00 6.05454408e-15
2.19156062e+01 1.55567260e-13 5.48516944e-15 0.00000000e+00 1.50082091e-13 0.00000000e+00 5.48518847e-15
2.26490567e+01 1.48837106e-13 4.96935745e-15 0.00000000e+00 1.43867749e-13 0.00000000e+00 4.96937378e-15
2.34070535e+01 1.42488295e-13 4.50205110e-15 0.00000000e+00 1.37986244e-13 0.00000000e+00 4.50206513e-15
2.41904183e+01 1.36758721e-13 4.07868904e-15 0.00000000e+00 1.32680032e-13 0.00000000e+00 4.07870113e-15
2.50000000e+01 1.31513364e-13 3.69513888e-15 0.00000000e+00 1.27818226e-13 0.00000000e+00 3.69514932e-15
2.75422870e+01 1.17411796e-13 2.76344578e-15 0.00000000e+00 1.14648350e-13 0.00000000e+00 2.76345259e-15
3.16227766e+01 9.89761237e-14 1.82579128e-15 0.00000000e+00 9.71503324e-14 0.00000000e+00 1.82579502e-15
3.63078055e+01 8.07872150e-14 1.20628876e-15 0.00000000e+00 7.95809262e-14 0.00000000e+00 1.20629081e-15
4.16869383e+01 6.23975196e-14 7.96987346e-16 0.00000000e+00 6.16005322e-14 0.00000000e+00 7.96988434e-16
4.78630092e+01 4.54051203e-14 5.26564476e-16 0.00000000e+00 4.48785558e-14 0.00000000e+00 5.26565037e-16
5.49540874e+01 3.13249221e-14 3.47897787e-16 0.00000000e+00 3.09770243e-14 0.00000000e+00 3.47898070e-16
6.30957344e+01 2.06421850e-14 2.29853834e-16 0.00000000e+00 2.04123312e-14 0.00000000e+00 2.29853975e-16
7.24435960e+01 1.30764903e-14 1.51862946e-16 0.00000000e+00 1.29246273e-14 0.00000000e+00 1.51863015e-16
8.31763771e+01 8.02568037e-15 1.00334865e-16 0.00000000e+00 7.92534551e-15 0.00000000e+00 1.00334899e-16
9.54992586e+01 4.79969165e-15 6.62905935e-17 0.00000000e+00 4.73340105e-15 0.00000000e+00 6.62906105e-17
1.09647820e+02 2.81090306e-15 4.37977636e-17 0.00000000e+00 2.76710529e-15 0.00000000e+00 4.37977720e-17
1.25892541e+02 1.63488676e-15 2.89368968e-17 0.00000000e+00 1.60594986e-15 0.00000000e+00 2.89369010e-17
1.44543977e+02 9.39970333e-16 1.91184187e-17 0.00000000e+00 9.20851914e-16 0.00000000e+00 1.91184209e-17
1.65958691e+02 5.13310670e-16 1.26314144e-17 0.00000000e+00 5.00679256e-16 0.00000000e+00 1.26314154e-17
1.90546072e+02 2.79323957e-16 8.34549289e-18 0.00000000e+00 2.70978464e-16 0.00000000e+00 8.34549342e-18
2.18776162e+02 1.51269779e-16 5.51381256e-18 0.00000000e+00 1.45755967e-16 0.00000000e+00 5.51381282e-18
2.51188643e+02 8.14578437e-17 3.64293987e-18 0.00000000e+00 7.78149038e-17 0.00000000e+00 3.64294000e-18
2.88403150e+02 4.36111212e-17 2.40686653e-18 0.00000000e+00 4.12042547e-17 0.00000000e+00 2.40686659e-18
3.31131121e+02 2.32827625e-17 1.59020096e-18 0.00000000e+00 2.16925615e-17 0.00000000e+00 1.59020099e-18
3.80189396e+02 1.23974506e-17 1.05063536e-18 0.00000000e+00 1.13468152e-17 0.00000000e+00 1.05063537e-18
4.36515832e+02 6.60099624e-18 6.94147899e-19 0.00000000e+00 5.90684834e-18 0.00000000e+00 6.94147908e-19
5.01187234e+02 3.51909313e-18 4.58618970e-19 0.00000000e+00 3.06047416e-18 0.00000000e+00 4.58618975e-19
5.75439937e+02 1.88246007e-18 3.03006550e-19 0.00000000e+00 1.57945352e-18 0.00000000e+00 3.03006552e-19
6.60693448e+02 1.01254559e-18 2.00194442e-19 0.00000000e+00 8.12351149e-19 0.00000000e+00 2.00194443e-19
7.58577575e+02 5.48840055e-19 1.32267157e-19 0.00000000e+00 4.16572899e-19 0.00000000e+00 1.32267157e-19
8.70963590e+02 3.00404709e-19 8.73880438e-20 0.00000000e+00 2.13016666e-19 0.00000000e+00 8.73880441e-20
1.00000000e+03 1.08648102e-19 0.00000000e+00 0.00000000e+00 1.08648102e-19 0.00000000e+00 0.00000000e+00
