# column 1: lambda (micron)
# column 2: total flux; lambda*F_lambda (W/m2)
# column 3: direct stellar flux; lambda*F_lambda (W/m2)
# column 4: scattered stellar flux; lambda*F_lambda (W/m2)
# column 5: total dust emission flux; lambda*F_lambda (W/m2)
# column 6: dust emission scattered flux; lambda*F_lambda (W/m2)
# column 7: transparent flux; lambda*F_lambda (W/m2)
1.00000000e-03 1.07237022e-12 1.07236831e-12 1.90900086e-18 0.00000000e+00 0.00000000e+00 1.07335627e-12
1.14815362e-03 1.26536718e-12 1.26536417e-12 3.00901821e-18 0.00000000e+00 0.00000000e+00 1.26690456e-12
1.31825674e-03 1.49304680e-12 1.49304235e-12 4.45555129e-18 0.00000000e+00 0.00000000e+00 1.49535359e-12
1.51356125e-03 1.76178770e-12 1.76178091e-12 6.79224665e-18 0.00000000e+00 0.00000000e+00 1.76499670e-12
1.73780083e-03 2.07943946e-12 2.07942717e-12 1.22951910e-17 0.00000000e+00 0.00000000e+00 2.08326203e-12
1.99526231e-03 2.45295902e-12 2.45291777e-12 4.12522538e-17 0.00000000e+00 0.00000000e+00 2.45891716e-12
2.29086765e-03 2.89486029e-12 2.89480214e-12 5.81534382e-17 0.00000000e+00 0.00000000e+00 2.90231066e-12
2.63026799e-03 3.41524456e-12 3.41503951e-12 2.05053523e-16 0.00000000e+00 0.00000000e+00 3.42565717e-12
3.01995172e-03 4.02806806e-12 4.02787987e-12 1.88193164e-16 0.00000000e+00 0.00000000e+00 4.04337385e-12
3.46736850e-03 4.76243432e-12 4.75092962e-12 1.15047019e-14 0.00000000e+00 0.00000000e+00 4.77247759e-12
3.98107171e-03 5.60475650e-12 5.60395053e-12 8.05968595e-16 0.00000000e+00 0.00000000e+00 5.63305378e-12
4.57088190e-03 6.62706770e-12 6.62587604e-12 1.19166504e-15 0.00000000e+00 0.00000000e+00 6.64880962e-12
5.24807460e-03 7.81511776e-12 7.81317022e-12 1.94754194e-15 0.00000000e+00 0.00000000e+00 7.84772720e-12
6.02559586e-03 9.25357231e-12 9.21367622e-12 3.98960944e-14 0.00000000e+00 0.00000000e+00 9.26283435e-12
6.91830971e-03 1.08983836e-11 1.08661764e-11 3.22071933e-14 0.00000000e+00 0.00000000e+00 1.09331145e-11
7.94328235e-03 1.28329073e-11 1.28164653e-11 1.64420395e-14 0.00000000e+00 0.00000000e+00 1.29045807e-11
9.12010839e-03 1.51425131e-11 1.51161728e-11 2.63403578e-14 0.00000000e+00 0.00000000e+00 1.52315429e-11
1.04712855e-02 1.68971423e-11 1.68745036e-11 2.26386527e-14 0.00000000e+00 0.00000000e+00 1.70115517e-11
1.20226443e-02 1.69050151e-11 1.68664499e-11 3.85651760e-14 5.01979335e-310 4.87892293e-312 1.70115517e-11
1.38038426e-02 1.68974023e-11 1.68569023e-11 4.04999962e-14 8.05221607e-271 1.38982072e-272 1.70115517e-11
1.58489319e-02 1.69003721e-11 1.68451764e-11 5.51957205e-14 1.07487896e-236 2.78446891e-238 1.70115517e-11
1.81970086e-02 1.68969545e-11 1.68343686e-11 6.25858501e-14 5.40991634e-207 2.08387146e-208 1.70115517e-11
2.08929613e-02 1.69028991e-11 1.68253903e-11 7.75087502e-14 3.60389304e-181 2.05794301e-182 1.70115517e-11
2.39883292e-02 1.69144471e-11 1.68137645e-11 1.00682566e-13 1.06894348e-158 6.86350447e-160 1.70115517e-11
2.75422870e-02 1.69200824e-11 1.68002518e-11 1.19830577e-13 3.83121253e-139 2.72001552e-140 1.70115517e-11
3.16227766e-02 1.69284967e-11 1.67870170e-11 1.41479690e-13 3.86426497e-122 3.12220676e-123 1.70115517e-11
3.63078055e-02 1.69457421e-11 1.67766436e-11 1.69098561e-13 2.30874204e-107 1.95348831e-108 1.70115517e-11
4.16869383e-02 1.69886373e-11 1.67676765e-11 2.20960865e-13 1.63078968e-94 1.75788041e-95 1.70115517e-11
4.78630092e-02 1.70264557e-11 1.67429837e-11 2.83471907e-13 2.31539319e-83 2.85350559e-84 1.70115517e-11
5.49540874e-02 1.70460469e-11 1.67087042e-11 3.37342705e-13 1.10662608e-73 1.50015180e-74 1.70115517e-11
6.30957344e-02 1.69946933e-11 1.66230567e-11 3.71636604e-13 3.57630454e-65 5.09196094e-66 1.70115517e-11
7.24435960e-02 1.68656975e-11 1.65221740e-11 3.43523584e-13 8.47896979e-58 1.10918716e-58 1.70115517e-11
8.31763771e-02 1.68630240e-11 1.65311262e-11 3.31897866e-13 1.74920898e-51 2.27998176e-52 1.70115517e-11
9.54992586e-02 1.69096096e-11 1.65574105e-11 3.52199029e-13 5.39161306e-46 7.37956295e-47 1.70115517e-11
1.09647820e-01 1.62625841e-11 1.58847920e-11 3.77792018e-13 3.16595140e-41 4.76331762e-42 1.62459122e-11
1.25892541e-01 1.52366461e-11 1.48836007e-11 3.53045399e-13 4.78154306e-37 7.36296141e-38 1.51615674e-11
1.44543977e-01 1.42595139e-11 1.39342425e-11 3.25271460e-13 2.15102687e-33 3.26371901e-34 1.41495980e-11
1.65958691e-01 1.33751865e-11 1.30292361e-11 3.45950387e-13 2.60837075e-30 4.41536883e-31 1.32051732e-11
1.90546072e-01 1.25315384e-11 1.21486927e-11 3.82845714e-13 9.43893880e-28 1.86066016e-28 1.23237846e-11
2.18776162e-01 1.16714274e-11 1.13097822e-11 3.61645219e-13 1.38820070e-25 2.86877075e-26 1.15012250e-11
2.51188643e-01 1.10220847e-11 1.05904426e-11 4.31642055e-13 1.77746836e-23 4.58086140e-24 1.07335677e-11
2.88403150e-01 1.03207954e-11 9.90612520e-12 4.14670182e-13 1.19844345e-21 3.18045007e-22 1.00171482e-11
3.31131121e-01 9.63797204e-12 9.25816071e-12 3.79811285e-13 4.52221815e-20 1.22137276e-20 9.34854667e-12
3.80189396e-01 9.00025038e-12 8.65045269e-12 3.49796662e-13 1.03045989e-18 2.84604277e-19 8.72457139e-12
4.36515832e-01 8.41627385e-12 8.08200945e-12 3.34249198e-13 1.51997066e-17 4.27614240e-18 8.14224377e-12
5.01187234e-01 7.86275416e-12 7.55049680e-12 3.12106172e-13 1.51184482e-16 4.32051153e-17 7.59878402e-12
5.75439937e-01 7.34889774e-12 7.05328890e-12 2.94540925e-13 1.06791297e-15 3.09300702e-16 7.09159786e-12
6.60693448e-01 6.86702192e-12 6.58813586e-12 2.73320696e-13 5.56536723e-15 1.61133215e-15 6.61826421e-12
7.58577575e-01 6.42962517e-12 6.15311779e-12 2.53855941e-13 2.26514365e-14 6.47029447e-15 6.17652353e-12
8.70963590e-01 6.04672615e-12 5.74648728e-12 2.26080578e-13 7.41582952e-14 2.04455067e-14 5.76426715e-12
1.00000000e+00 5.76487296e-12 5.36623956e-12 1.97673937e-13 2.00959466e-13 5.26543620e-14 5.37952711e-12
1.14815362e+00 5.65162344e-12 5.01071336e-12 1.66893851e-13 4.74016228e-13 1.14958908e-13 5.02046681e-12
1.31825674e+00 5.78975489e-12 4.67833760e-12 1.36583520e-13 9.74833770e-13 2.11663243e-13 4.68537225e-12
1.51356125e+00 6.24837192e-12 4.36762154e-12 1.08243653e-13 1.77250672e-12 3.36439414e-13 4.37264380e-12
1.73780083e+00 7.03661230e-12 4.07726149e-12 8.69579547e-14 2.87239285e-12 4.67953376e-13 4.08078863e-12
1.99526231e+00 7.99205582e-12 3.80597535e-12 6.48360547e-14 4.12124441e-12 5.50601741e-13 3.80841354e-12
2.29086765e+00 8.93822136e-12 3.55253816e-12 4.72406954e-14 5.33844250e-12 5.61326686e-13 3.55421832e-12
2.63026799e+00 9.63648863e-12 3.31582091e-12 3.23720978e-14 6.28829563e-12 4.96781879e-13 3.31698953e-12
3.01995172e+00 1.00336568e-11 3.09477147e-12 2.13416202e-14 6.91754375e-12 3.89053505e-13 3.09559474e-12
3.46736850e+00 1.00339081e-11 2.88838767e-12 1.33515773e-14 7.13216883e-12 2.74762924e-13 2.88897711e-12
3.98107171e+00 9.68461195e-12 2.69572291e-12 8.11419091e-15 6.98077486e-12 1.75296314e-13 2.69615031e-12
4.57088190e+00 9.07009763e-12 2.51587973e-12 4.84403247e-15 6.54937386e-12 1.03788014e-13 2.51619387e-12
5.24807460e+00 8.05225619e-12 2.08029800e-12 2.46926425e-15 5.96948893e-12 5.81188309e-14 2.08050667e-12
6.02559586e+00 6.72915018e-12 1.37446256e-12 9.75290460e-16 5.35371233e-12 3.07560748e-14 1.37457712e-12
6.70000000e+00 5.86978494e-12 9.99798921e-13 4.68478271e-16 4.86951754e-12 1.81191243e-14 9.99872685e-13
6.92422916e+00 5.61999299e-12 9.05782439e-13 3.68351251e-16 4.71384220e-12 1.51716008e-14 9.05846924e-13
7.15596261e+00 5.43677408e-12 8.20605732e-13 2.89255867e-16 4.61587910e-12 1.27178143e-14 8.20663132e-13
7.39545150e+00 5.37035189e-12 7.43436587e-13 2.22009438e-16 4.62669329e-12 1.08231429e-14 7.43489831e-13
7.64295536e+00 5.63494036e-12 6.73518772e-13 1.65620307e-16 4.96125596e-12 9.58497342e-15 6.73573732e-13
7.89874245e+00 6.36306008e-12 6.10168054e-13 1.15326314e-16 5.75277670e-12 8.71096023e-15 6.10232385e-13
8.16308998e+00 7.41514805e-12 5.52768820e-13 7.43011609e-17 6.86230493e-12 7.92876416e-15 5.52847515e-13
8.43628443e+00 8.76856515e-12 5.00759939e-13 4.45180576e-17 8.26776069e-12 6.75274547e-15 5.00858987e-13
8.71862190e+00 9.61472484e-12 4.53649087e-13 2.56062345e-17 9.16105014e-12 5.17896358e-15 4.53759343e-13
9.01040836e+00 1.04313596e-11 4.10967840e-13 9.61691185e-18 1.00203822e-11 2.96987370e-15 4.11088843e-13
9.31196005e+00 1.10116120e-11 3.72303837e-13 0.00000000e+00 1.06393081e-11 0.00000000e+00 3.72430980e-13
9.62360379e+00 1.08694952e-11 3.37290194e-13 0.00000000e+00 1.05322050e-11 0.00000000e+00 3.37408415e-13
9.94567731e+00 1.02307113e-11 3.05578795e-13 0.00000000e+00 9.92513246e-12 0.00000000e+00 3.05679292e-13
1.02785297e+01 9.43688733e-12 2.76851538e-13 0.00000000e+00 9.16003579e-12 0.00000000e+00 2.76933904e-13
1.06225216e+01 8.65779032e-12 2.50824884e-13 0.00000000e+00 8.40696543e-12 0.00000000e+00 2.50891667e-13
1.09780260e+01 7.76278666e-12 2.27246187e-13 0.00000000e+00 7.53554047e-12 0.00000000e+00 2.27298384e-13
1.13454280e+01 6.98192419e-12 2.05882800e-13 0.00000000e+00 6.77604139e-12 0.00000000e+00 2.05923759e-13
1.17251259e+01 6.27159908e-12 1.86526808e-13 0.00000000e+00 6.08507227e-12 0.00000000e+00 1.86559155e-13
1.21175312e+01 5.62225056e-12 1.68990140e-13 0.00000000e+00 5.45326042e-12 0.00000000e+00 1.69015555e-13
1.25230691e+01 5.02099064e-12 1.53101801e-13 0.00000000e+00 4.86788884e-12 0.00000000e+00 1.53121715e-13
1.29421791e+01 4.50259167e-12 1.38706784e-13 0.00000000e+00 4.36388488e-12 0.00000000e+00 1.38722496e-13
1.33753155e+01 4.05775281e-12 1.25664861e-13 0.00000000e+00 3.93208794e-12 0.00000000e+00 1.25677347e-13
1.38229477e+01 3.76360658e-12 1.13848554e-13 0.00000000e+00 3.64975803e-12 0.00000000e+00 1.13858934e-13
1.42855609e+01 3.58720722e-12 1.03142876e-13 0.00000000e+00 3.48406434e-12 0.00000000e+00 1.03151898e-13
1.47636563e+01 3.62294839e-12 9.34431648e-14 0.00000000e+00 3.52950523e-12 0.00000000e+00 9.34517274e-14
1.52577522e+01 3.70501706e-12 8.46554653e-14 0.00000000e+00 3.62036159e-12 0.00000000e+00 8.46637387e-14
1.57683840e+01 3.82272755e-12 7.66940560e-14 0.00000000e+00 3.74603349e-12 0.00000000e+00 7.67021526e-14
1.62961051e+01 3.94606700e-12 6.94813421e-14 0.00000000e+00 3.87658565e-12 0.00000000e+00 6.94892560e-14
1.68414875e+01 4.07307571e-12 6.29469258e-14 0.00000000e+00 4.01012878e-12 0.00000000e+00 6.29546439e-14
1.74051222e+01 4.13337463e-12 5.70272025e-14 0.00000000e+00 4.07634743e-12 0.00000000e+00 5.70345319e-14
1.79876201e+01 4.15077450e-12 5.16642904e-14 0.00000000e+00 4.09911021e-12 0.00000000e+00 5.16711337e-14
1.85896125e+01 4.08319468e-12 4.68059056e-14 0.00000000e+00 4.03638877e-12 0.00000000e+00 4.68120974e-14
1.92117518e+01 3.93823354e-12 4.24045552e-14 0.00000000e+00 3.89582898e-12 0.00000000e+00 4.24099939e-14
1.98547123e+01 3.74985286e-12 3.84171702e-14 0.00000000e+00 3.71143569e-12 0.00000000e+00 3.84218542e-14
2.05191907e+01 3.54428029e-12 3.48047568e-14 0.00000000e+00 3.50947554e-12 0.00000000e+00 3.48087501e-14
2.12059073e+01 3.34585272e-12 3.15320102e-14 0.00000000e+00 3.31432071e-12 0.00000000e+00 3.15354141e-14
2.19156062e+01 3.16759537e-12 2.85669796e-14 0.00000000e+00 3.13902839e-12 0.00000000e+00 2.85698952e-14
2.26490567e+01 2.99930325e-12 2.58807456e-14 0.00000000e+00 2.97342251e-12 0.00000000e+00 2.58832470e-14
2.34070535e+01 2.84358676e-12 2.34470951e-14 0.00000000e+00 2.82013966e-12 0.00000000e+00 2.34492452e-14
2.41904183e+01 2.69333286e-12 2.12422786e-14 0.00000000e+00 2.67209058e-12 0.00000000e+00 2.12441313e-14
2.50000000e+01 2.55280647e-12 1.92447815e-14 0.00000000e+00 2.53356169e-12 0.00000000e+00 1.92463813e-14
2.75422870e+01 2.16051002e-12 1.43925461e-14 0.00000000e+00 2.14611748e-12 0.00000000e+00 1.43935895e-14
3.16227766e+01 1.66054884e-12 9.50917704e-15 0.00000000e+00 1.65103967e-12 0.00000000e+00 9.50975027e-15
3.63078055e+01 1.20901960e-12 6.28271641e-15 0.00000000e+00 1.20273689e-12 0.00000000e+00 6.28302969e-15
4.16869383e+01 8.21689671e-13 4.15098987e-15 0.00000000e+00 8.17538681e-13 0.00000000e+00 4.15115655e-15
4.78630092e+01 5.23226014e-13 2.74255601e-15 0.00000000e+00 5.20483458e-13 0.00000000e+00 2.74264194e-15
5.49540874e+01 3.16379669e-13 1.81200220e-15 0.00000000e+00 3.14567666e-13 0.00000000e+00 1.81204556e-15
6.30957344e+01 1.84089292e-13 1.19718503e-15 0.00000000e+00 1.82892107e-13 0.00000000e+00 1.19720663e-15
7.24435960e+01 1.04087352e-13 7.90975893e-16 0.00000000e+00 1.03296376e-13 0.00000000e+00 7.90986575e-16
8.31763771e+01 5.77024811e-14 5.22594373e-16 0.00000000e+00 5.71798867e-14 0.00000000e+00 5.22599647e-16
9.54992586e+01 3.15633904e-14 3.45275552e-16 0.00000000e+00 3.12181148e-14 0.00000000e+00 3.45278163e-16
1.09647820e+02 1.71094167e-14 2.28121723e-16 0.00000000e+00 1.68812950e-14 0.00000000e+00 2.28123020e-16
1.25892541e+02 9.32115157e-15 1.50718731e-16 0.00000000e+00 9.17043284e-15 0.00000000e+00 1.50719385e-16
1.44543977e+02 5.07025065e-15 9.95789780e-17 0.00000000e+00 4.97067167e-15 0.00000000e+00 9.95793099e-17
1.65958691e+02 2.63309987e-15 6.57912349e-17 0.00000000e+00 2.56730863e-15 0.00000000e+00 6.57913976e-17
1.90546072e+02 1.37412052e-15 4.34678647e-17 0.00000000e+00 1.33065266e-15 0.00000000e+00 4.34679453e-17
2.18776162e+02 7.18660714e-16 2.87189465e-17 0.00000000e+00 6.89941767e-16 0.00000000e+00 2.87189867e-17
2.51188643e+02 3.75976405e-16 1.89744263e-17 0.00000000e+00 3.57001979e-16 0.00000000e+00 1.89744463e-17
2.88403150e+02 1.96595703e-16 1.25362823e-17 0.00000000e+00 1.84059421e-16 0.00000000e+00 1.25362924e-17
3.31131121e+02 1.02996853e-16 8.28264120e-18 0.00000000e+00 9.47142114e-17 0.00000000e+00 8.28264623e-18
3.80189396e+02 5.40548246e-17 5.47228758e-18 0.00000000e+00 4.85825370e-17 0.00000000e+00 5.47229010e-18
4.36515832e+02 2.84862615e-17 3.61550495e-18 0.00000000e+00 2.48707565e-17 0.00000000e+00 3.61550621e-18
5.01187234e+02 1.50909876e-17 2.38874063e-18 0.00000000e+00 1.27022470e-17 0.00000000e+00 2.38874127e-18
5.75439937e+02 8.05319875e-18 1.57822538e-18 0.00000000e+00 6.47497336e-18 0.00000000e+00 1.57822570e-18
6.60693448e+02 4.33776660e-18 1.04272322e-18 0.00000000e+00 3.29504338e-18 0.00000000e+00 1.04272338e-18
7.58577575e+02 2.36324300e-18 6.88920426e-19 0.00000000e+00 1.67432257e-18 0.00000000e+00 6.88920507e-19
8.70963590e+02 1.30462012e-18 4.55165224e-19 0.00000000e+00 8.49454896e-19 0.00000000e+00 4.55165265e-19
1.00000000e+03 4.30323042e-19 0.00000000e+00 0.00000000e+00 4.30323042e-19 0.00000000e+00 0.00000000e+00
