# column 1: lambda (micron)
# column 2: total flux; lambda*F_lambda (W/m2)
# column 3: direct stellar flux; lambda*F_lambda (W/m2)
# column 4: scattered stellar flux; lambda*F_lambda (W/m2)
# column 5: total dust emission flux; lambda*F_lambda (W/m2)
# column 6: dust emission scattered flux; lambda*F_lambda (W/m2)
# column 7: transparent flux; lambda*F_lambda (W/m2)
1.00000000e-03 8.46530614e-13 8.46529401e-13 1.21283932e-18 0.00000000e+00 0.00000000e+00 8.46529401e-13
1.14815362e-03 9.99177996e-13 9.99176121e-13 1.87523756e-18 0.00000000e+00 0.00000000e+00 9.99176121e-13
1.31825674e-03 1.17935117e-12 1.17934819e-12 2.97640818e-18 0.00000000e+00 0.00000000e+00 1.17934819e-12
1.51356125e-03 1.39201345e-12 1.39200901e-12 4.43785030e-18 0.00000000e+00 0.00000000e+00 1.39200901e-12
1.73780083e-03 1.64302510e-12 1.64301696e-12 8.13862278e-18 0.00000000e+00 0.00000000e+00 1.64301696e-12
1.99526231e-03 1.93930087e-12 1.93928682e-12 1.40502461e-17 0.00000000e+00 0.00000000e+00 1.93928682e-12
2.29086765e-03 2.28900092e-12 2.28898025e-12 2.06672147e-17 0.00000000e+00 0.00000000e+00 2.28898025e-12
2.63026799e-03 2.70177226e-12 2.70173063e-12 4.16268853e-17 0.00000000e+00 0.00000000e+00 2.70173063e-12
3.01995172e-03 3.18897659e-12 3.18890841e-12 6.81769228e-17 0.00000000e+00 0.00000000e+00 3.18890841e-12
3.46736850e-03 3.76404530e-12 3.76393440e-12 1.10894198e-16 0.00000000e+00 0.00000000e+00 3.76393440e-12
3.98107171e-03 4.44282205e-12 4.44264945e-12 1.72600257e-16 0.00000000e+00 0.00000000e+00 4.44264945e-12
4.57088190e-03 5.24423001e-12 5.24375082e-12 4.79189132e-16 0.00000000e+00 0.00000000e+00 5.24375082e-12
5.24807460e-03 6.19004741e-12 6.18930730e-12 7.40108513e-16 0.00000000e+00 0.00000000e+00 6.18930730e-12
6.02559586e-03 7.30662208e-12 7.30536713e-12 1.25494531e-15 0.00000000e+00 0.00000000e+00 7.30536713e-12
6.91830971e-03 8.62472680e-12 8.62267558e-12 2.05122868e-15 0.00000000e+00 0.00000000e+00 8.62267558e-12
7.94328235e-03 1.01811141e-11 1.01775219e-11 3.59221884e-15 0.00000000e+00 0.00000000e+00 1.01775219e-11
9.12010839e-03 1.20182795e-11 1.20127391e-11 5.54039669e-15 0.00000000e+00 0.00000000e+00 1.20127391e-11
1.04712855e-02 1.34320008e-11 1.34165878e-11 1.54129615e-14 0.00000000e+00 0.00000000e+00 1.34165878e-11
1.20226443e-02 1.34278403e-11 1.34165878e-11 1.12524742e-14 0.00000000e+00 0.00000000e+00 1.34165878e-11
1.38038426e-02 1.34316181e-11 1.34165878e-11 1.50303036e-14 3.31190552e-290 6.02070142e-292 1.34165878e-11
1.58489319e-02 1.34399474e-11 1.34165878e-11 2.33595874e-14 1.96869241e-253 6.08270201e-255 1.34165878e-11
1.81970086e-02 1.34482433e-11 1.34165878e-11 3.16555064e-14 2.04110615e-221 7.70554057e-223 1.34165878e-11
2.08929613e-02 1.34597793e-11 1.34165878e-11 4.31914914e-14 1.45129758e-193 7.79714446e-195 1.34165878e-11
2.39883292e-02 1.34772660e-11 1.34165878e-11 6.06781844e-14 2.58597507e-169 1.48846023e-170 1.34165878e-11
2.75422870e-02 1.34882411e-11 1.34165878e-11 7.16532608e-14 3.42339205e-148 2.24515958e-149 1.34165878e-11
3.16227766e-02 1.35032359e-11 1.34165878e-11 8.66480951e-14 8.13834383e-130 5.92869366e-131 1.34165878e-11
3.63078055e-02 1.35204536e-11 1.34165878e-11 1.03865792e-13 7.85198625e-114 5.77644353e-115 1.34165878e-11
4.16869383e-02 1.35574030e-11 1.34165878e-11 1.40815135e-13 6.34645837e-100 5.73852457e-101 1.34165878e-11
4.78630092e-02 1.35928147e-11 1.34165878e-11 1.76226812e-13 7.76702352e-88 8.10680604e-89 1.34165878e-11
5.49540874e-02 1.36323189e-11 1.34165878e-11 2.15731012e-13 2.44840175e-77 2.83969530e-78 1.34165878e-11
6.30957344e-02 1.36551586e-11 1.34165878e-11 2.38570764e-13 4.25882180e-68 5.47972493e-69 1.34165878e-11
7.24435960e-02 1.36340030e-11 1.34165878e-11 2.17415125e-13 4.39374193e-60 5.47732798e-61 1.34165878e-11
8.31763771e-02 1.36267569e-11 1.34165878e-11 2.10169091e-13 3.14175918e-53 3.88372045e-54 1.34165878e-11
9.54992586e-02 1.36393197e-11 1.34165878e-11 2.22731829e-13 2.72527383e-47 3.53590920e-48 1.34165878e-11
1.09647820e-01 1.30553123e-11 1.28127470e-11 2.42565388e-13 3.51151612e-42 4.95955969e-43 1.28127470e-11
1.25892541e-01 1.21751060e-11 1.19575512e-11 2.17554754e-13 9.23376757e-38 1.30318863e-38 1.19575512e-11
1.44543977e-01 1.13654060e-11 1.11594361e-11 2.05969935e-13 5.90762804e-34 8.28407273e-35 1.11594361e-11
1.65958691e-01 1.06275952e-11 1.04145917e-11 2.13003521e-13 8.93418560e-31 1.39823861e-31 1.04145917e-11
1.90546072e-01 9.95069947e-12 9.71946251e-12 2.31236954e-13 3.74961257e-28 7.01413081e-29 9.71946251e-12
2.18776162e-01 9.29026104e-12 9.07073019e-12 2.19530846e-13 6.13802054e-26 1.24234965e-26 9.07073019e-12
2.51188643e-01 8.72378156e-12 8.46529796e-12 2.58483591e-13 8.43203499e-24 2.07685723e-24 8.46529796e-12
2.88403150e-01 8.14118105e-12 7.90027573e-12 2.40905318e-13 5.94816681e-22 1.50638532e-22 7.90027573e-12
3.31131121e-01 7.59425072e-12 7.37296631e-12 2.21284395e-13 2.30621688e-20 5.88720647e-21 7.37296631e-12
3.80189396e-01 7.08124117e-12 6.88085251e-12 2.00388118e-13 5.32591663e-19 1.35571233e-19 6.88085251e-12
4.36515832e-01 6.61133463e-12 6.42158520e-12 1.89741600e-13 7.83264228e-18 2.02432516e-18 6.42158520e-12
5.01187234e-01 6.16688099e-12 5.99297201e-12 1.73832141e-13 7.68432225e-17 1.99583248e-17 5.99297201e-12
5.75439937e-01 5.76098222e-12 5.59296690e-12 1.67482772e-13 5.32547378e-16 1.37893150e-16 5.59296690e-12
6.60693448e-01 5.37486389e-12 5.21966041e-12 1.52460898e-13 2.74258284e-15 7.08010893e-16 5.21966041e-12
7.58577575e-01 5.02396409e-12 4.87127053e-12 1.41780525e-13 1.09130365e-14 2.77563663e-15 4.87127053e-12
8.70963590e-01 4.71005141e-12 4.54613417e-12 1.28576823e-13 3.53404112e-14 8.73169875e-15 4.54613417e-12
1.00000000e+00 4.44944685e-12 4.24269927e-12 1.12571343e-13 9.41762415e-14 2.20725160e-14 4.24269927e-12
1.14815362e+00 4.27619932e-12 3.95951734e-12 9.61819753e-14 2.20500004e-13 4.80405512e-14 3.95951734e-12
1.31825674e+00 4.22758554e-12 3.69523659e-12 7.89841554e-14 4.53364797e-13 8.80228204e-14 3.69523659e-12
1.51356125e+00 4.34075996e-12 3.44859544e-12 6.36756171e-14 8.28488902e-13 1.41208905e-13 3.44859544e-12
1.73780083e+00 4.61526542e-12 3.21841652e-12 5.12823220e-14 1.34556657e-12 1.93224002e-13 3.21841652e-12
1.99526231e+00 4.98796889e-12 3.00360106e-12 3.83876434e-14 1.94598018e-12 2.23951106e-13 3.00360106e-12
2.29086765e+00 5.35665627e-12 2.80312361e-12 2.73985793e-14 2.52613408e-12 2.20507027e-13 2.80312361e-12
2.63026799e+00 5.62322887e-12 2.61602716e-12 1.84465696e-14 2.98875514e-12 1.88987984e-13 2.61602716e-12
3.01995172e+00 5.72399643e-12 2.44141860e-12 1.18575457e-14 3.27072028e-12 1.43251002e-13 2.44141860e-12
3.46736850e+00 5.65471229e-12 2.27846441e-12 7.43691197e-15 3.36881097e-12 9.83062911e-14 2.27846441e-12
3.98107171e+00 5.40356270e-12 2.12638671e-12 4.45250372e-15 3.27272349e-12 6.14140627e-14 2.12638671e-12
4.57088190e+00 5.02234807e-12 1.98445954e-12 2.62259251e-15 3.03526594e-12 3.57632886e-14 1.98445954e-12
5.24807460e+00 4.37351429e-12 1.64084388e-12 1.33288841e-15 2.73133752e-12 1.97765524e-14 1.64084388e-12
6.02559586e+00 3.51278050e-12 1.08409480e-12 5.28693977e-16 2.42815701e-12 1.03543508e-14 1.08409480e-12
6.70000000e+00 2.98507524e-12 7.88574724e-13 2.48315518e-16 2.19625220e-12 6.09793966e-15 7.88574724e-13
6.92422916e+00 2.83744079e-12 7.14418944e-13 1.97416028e-16 2.12282443e-12 5.07089861e-15 7.14418944e-13
7.15596261e+00 2.72594516e-12 6.47236606e-13 1.54128422e-16 2.07855442e-12 4.26457267e-15 6.47236606e-13
7.39545150e+00 2.67566832e-12 5.86371942e-13 1.16715181e-16 2.08917966e-12 3.63057731e-15 5.86371942e-13
7.64295536e+00 2.79177045e-12 5.31230854e-13 8.77283860e-17 2.26045186e-12 3.19049695e-15 5.31230854e-13
7.89874245e+00 3.15664062e-12 4.81275108e-13 6.06920883e-17 2.67530482e-12 2.92894731e-15 4.81275108e-13
8.16308998e+00 3.70051081e-12 4.36017088e-13 4.00355518e-17 3.26445369e-12 2.67499435e-15 4.36017088e-13
8.43628443e+00 4.45970097e-12 3.95015029e-13 2.41711667e-17 4.06466177e-12 2.29215350e-15 3.95015029e-13
8.71862190e+00 4.96254625e-12 3.57868711e-13 1.42354785e-17 4.60466331e-12 1.75906299e-15 3.57868711e-13
9.01040836e+00 5.46513807e-12 3.24215549e-13 5.86278119e-18 5.14091666e-12 1.02286503e-15 3.24215549e-13
9.31196005e+00 5.83940336e-12 2.93727053e-13 0.00000000e+00 5.54567631e-12 0.00000000e+00 2.93727053e-13
9.62360379e+00 5.76145525e-12 2.66105627e-13 0.00000000e+00 5.49534962e-12 0.00000000e+00 2.66105627e-13
9.94567731e+00 5.36722335e-12 2.41081657e-13 0.00000000e+00 5.12614169e-12 0.00000000e+00 2.41081657e-13
1.02785297e+01 4.89758445e-12 2.18410884e-13 0.00000000e+00 4.67917356e-12 0.00000000e+00 2.18410884e-13
1.06225216e+01 4.42124126e-12 1.97872020e-13 0.00000000e+00 4.22336924e-12 0.00000000e+00 1.97872020e-13
1.09780260e+01 3.90974696e-12 1.79264583e-13 0.00000000e+00 3.73048238e-12 0.00000000e+00 1.79264583e-13
1.13454280e+01 3.46781279e-12 1.62406948e-13 0.00000000e+00 3.30540584e-12 0.00000000e+00 1.62406948e-13
1.17251259e+01 3.08593518e-12 1.47134567e-13 0.00000000e+00 2.93880062e-12 0.00000000e+00 1.47134567e-13
1.21175312e+01 2.74174481e-12 1.33298366e-13 0.00000000e+00 2.60844645e-12 0.00000000e+00 1.33298366e-13
1.25230691e+01 2.43019294e-12 1.20763289e-13 0.00000000e+00 2.30942965e-12 0.00000000e+00 1.20763289e-13
1.29421791e+01 2.17126944e-12 1.09406983e-13 0.00000000e+00 2.06186246e-12 0.00000000e+00 1.09406983e-13
1.33753155e+01 1.95185755e-12 9.91185987e-14 0.00000000e+00 1.85273895e-12 0.00000000e+00 9.91185987e-14
1.38229477e+01 1.80946669e-12 8.97977103e-14 0.00000000e+00 1.71966898e-12 0.00000000e+00 8.97977103e-14
1.42855609e+01 1.72948594e-12 8.13533371e-14 0.00000000e+00 1.64813260e-12 0.00000000e+00 8.13533371e-14
1.47636563e+01 1.75387020e-12 7.37030537e-14 0.00000000e+00 1.68016715e-12 0.00000000e+00 7.37030537e-14
1.52577522e+01 1.80262880e-12 6.67721855e-14 0.00000000e+00 1.73585661e-12 0.00000000e+00 6.67721855e-14
1.57683840e+01 1.87136620e-12 6.04930805e-14 0.00000000e+00 1.81087312e-12 0.00000000e+00 6.04930805e-14
1.62961051e+01 1.94370324e-12 5.48044484e-14 0.00000000e+00 1.88889879e-12 0.00000000e+00 5.48044484e-14
1.68414875e+01 2.01955577e-12 4.96507622e-14 0.00000000e+00 1.96990501e-12 0.00000000e+00 4.96507622e-14
1.74051222e+01 2.06367046e-12 4.49817171e-14 0.00000000e+00 2.01868874e-12 0.00000000e+00 4.49817171e-14
1.79876201e+01 2.08591734e-12 4.07517384e-14 0.00000000e+00 2.04516561e-12 0.00000000e+00 4.07517384e-14
1.85896125e+01 2.07114463e-12 3.69195372e-14 0.00000000e+00 2.03422509e-12 0.00000000e+00 3.69195372e-14
1.92117518e+01 2.01283111e-12 3.34477076e-14 0.00000000e+00 1.97938340e-12 0.00000000e+00 3.34477076e-14
1.98547123e+01 1.93242427e-12 3.03023610e-14 0.00000000e+00 1.90212191e-12 0.00000000e+00 3.03023610e-14
2.05191907e+01 1.84415424e-12 2.74527957e-14 0.00000000e+00 1.81670144e-12 0.00000000e+00 2.74527957e-14
2.12059073e+01 1.75823357e-12 2.48711970e-14 0.00000000e+00 1.73336238e-12 0.00000000e+00 2.48711970e-14
2.19156062e+01 1.68446499e-12 2.25323660e-14 0.00000000e+00 1.66193263e-12 0.00000000e+00 2.25323660e-14
2.26490567e+01 1.61485676e-12 2.04134733e-14 0.00000000e+00 1.59444328e-12 0.00000000e+00 2.04134733e-14
2.34070535e+01 1.54891315e-12 1.84938366e-14 0.00000000e+00 1.53041931e-12 0.00000000e+00 1.84938366e-14
2.41904183e+01 1.48700210e-12 1.67547181e-14 0.00000000e+00 1.47024739e-12 0.00000000e+00 1.67547181e-14
2.50000000e+01 1.42792189e-12 1.51791424e-14 0.00000000e+00 1.41274275e-12 0.00000000e+00 1.51791424e-14
2.75422870e+01 1.25915828e-12 1.13518661e-14 0.00000000e+00 1.24780641e-12 0.00000000e+00 1.13518661e-14
3.16227766e+01 1.02805401e-12 7.50010357e-15 0.00000000e+00 1.02055391e-12 0.00000000e+00 7.50010357e-15
3.63078055e+01 7.94456771e-13 4.95526929e-15 0.00000000e+00 7.89501501e-13 0.00000000e+00 4.95526929e-15
4.16869383e+01 5.72129840e-13 3.27391395e-15 0.00000000e+00 5.68855926e-13 0.00000000e+00 3.27391395e-15
4.78630092e+01 3.84513746e-13 2.16305350e-15 0.00000000e+00 3.82350693e-13 0.00000000e+00 2.16305350e-15
5.49540874e+01 2.44247471e-13 1.42911527e-15 0.00000000e+00 2.42818356e-13 0.00000000e+00 1.42911527e-15
6.30957344e+01 1.48476683e-13 9.44207098e-16 0.00000000e+00 1.47532476e-13 0.00000000e+00 9.44207098e-16
7.24435960e+01 8.72403040e-14 6.23831443e-16 0.00000000e+00 8.66164726e-14 0.00000000e+00 6.23831443e-16
8.31763771e+01 4.99902895e-14 4.12161347e-16 0.00000000e+00 4.95781281e-14 0.00000000e+00 4.12161347e-16
9.54992586e+01 2.81366935e-14 2.72312302e-16 0.00000000e+00 2.78643812e-14 0.00000000e+00 2.72312302e-16
1.09647820e+02 1.56233586e-14 1.79914953e-16 0.00000000e+00 1.54434436e-14 0.00000000e+00 1.79914953e-16
1.25892541e+02 8.68363291e-15 1.18868631e-16 0.00000000e+00 8.56476427e-15 0.00000000e+00 1.18868631e-16
1.44543977e+02 4.80287874e-15 7.85357256e-17 0.00000000e+00 4.72434301e-15 0.00000000e+00 7.85357256e-17
1.65958691e+02 2.53094667e-15 5.18880394e-17 0.00000000e+00 2.47905863e-15 0.00000000e+00 5.18880394e-17
1.90546072e+02 1.33649747e-15 3.42820876e-17 0.00000000e+00 1.30221538e-15 0.00000000e+00 3.42820876e-17
2.18776162e+02 7.05520265e-16 2.26499507e-17 0.00000000e+00 6.82870315e-16 0.00000000e+00 2.26499507e-17
2.51188643e+02 3.71721910e-16 1.49646740e-17 0.00000000e+00 3.56757236e-16 0.00000000e+00 1.49646740e-17
2.88403150e+02 1.95337233e-16 9.88706207e-18 0.00000000e+00 1.85450171e-16 0.00000000e+00 9.88706207e-18
3.31131121e+02 1.02634507e-16 6.53231713e-18 0.00000000e+00 9.61021901e-17 0.00000000e+00 6.53231713e-18
3.80189396e+02 5.39082295e-17 4.31585913e-18 0.00000000e+00 4.95923703e-17 0.00000000e+00 4.31585913e-18
4.36515832e+02 2.83703923e-17 2.85145985e-18 0.00000000e+00 2.55189325e-17 0.00000000e+00 2.85145985e-18
5.01187234e+02 1.49751539e-17 1.88394084e-18 0.00000000e+00 1.30912131e-17 0.00000000e+00 1.88394084e-18
5.75439937e+02 7.94341941e-18 1.24470737e-18 0.00000000e+00 6.69871204e-18 0.00000000e+00 1.24470737e-18
6.60693448e+02 4.24247074e-18 8.22370004e-19 0.00000000e+00 3.42010074e-18 0.00000000e+00 8.22370004e-19
7.58577575e+02 2.28611118e-18 5.43334473e-19 0.00000000e+00 1.74277671e-18 0.00000000e+00 5.43334473e-19
8.70963590e+02 1.24531766e-18 3.58977527e-19 0.00000000e+00 8.86340134e-19 0.00000000e+00 3.58977527e-19
1.00000000e+03 4.49953278e-19 0.00000000e+00 0.00000000e+00 4.49953278e-19 0.00000000e+00 0.00000000e+00
