# column 1: lambda (micron)
# column 2: total flux; lambda*F_lambda (W/m2)
# column 3: direct stellar flux; lambda*F_lambda (W/m2)
# column 4: scattered stellar flux; lambda*F_lambda (W/m2)
# column 5: total dust emission flux; lambda*F_lambda (W/m2)
# column 6: dust emission scattered flux; lambda*F_lambda (W/m2)
# column 7: transparent flux; lambda*F_lambda (W/m2)
1.00000000e-03 6.93993850e-13 6.93993746e-13 1.04713850e-19 0.00000000e+00 0.00000000e+00 6.93993746e-13
1.14815362e-03 8.19135295e-13 8.19135139e-13 1.56183586e-19 0.00000000e+00 0.00000000e+00 8.19135139e-13
1.31825674e-03 9.66842349e-13 9.66842108e-13 2.40576085e-19 0.00000000e+00 0.00000000e+00 9.66842108e-13
1.51356125e-03 1.14118408e-12 1.14118369e-12 3.93480405e-19 0.00000000e+00 0.00000000e+00 1.14118369e-12
1.73780083e-03 1.34696331e-12 1.34696266e-12 6.50606684e-19 0.00000000e+00 0.00000000e+00 1.34696266e-12
1.99526231e-03 1.58984898e-12 1.58984782e-12 1.15792411e-18 0.00000000e+00 0.00000000e+00 1.58984782e-12
2.29086765e-03 1.87653203e-12 1.87653019e-12 1.83752973e-18 0.00000000e+00 0.00000000e+00 1.87653019e-12
2.63026799e-03 2.21491129e-12 2.21490731e-12 3.97595984e-18 0.00000000e+00 0.00000000e+00 2.21490731e-12
3.01995172e-03 2.61430700e-12 2.61430080e-12 6.19310356e-18 0.00000000e+00 0.00000000e+00 2.61430080e-12
3.46736850e-03 3.08572450e-12 3.08571319e-12 1.13145732e-17 0.00000000e+00 0.00000000e+00 3.08571319e-12
3.98107171e-03 3.64214963e-12 3.64213095e-12 1.86751067e-17 0.00000000e+00 0.00000000e+00 3.64213095e-12
4.57088190e-03 4.29892386e-12 4.29888232e-12 4.15390035e-17 0.00000000e+00 0.00000000e+00 4.29888232e-12
5.24807460e-03 5.07412925e-12 5.07405951e-12 6.97365115e-17 0.00000000e+00 0.00000000e+00 5.07405951e-12
6.02559586e-03 5.98914040e-12 5.98901715e-12 1.23250580e-16 0.00000000e+00 0.00000000e+00 5.98901715e-12
6.91830971e-03 7.06915369e-12 7.06896053e-12 1.93166476e-16 0.00000000e+00 0.00000000e+00 7.06896053e-12
7.94328235e-03 8.34396918e-12 8.34363998e-12 3.29201052e-16 0.00000000e+00 0.00000000e+00 8.34363998e-12
9.12010839e-03 9.84870772e-12 9.84817045e-12 5.37270736e-16 0.00000000e+00 0.00000000e+00 9.84817045e-12
1.04712855e-02 1.09997641e-11 1.09990604e-11 7.03674681e-16 0.00000000e+00 0.00000000e+00 1.09990604e-11
1.20226443e-02 1.10001920e-11 1.09990604e-11 1.13158325e-15 0.00000000e+00 0.00000000e+00 1.09990604e-11
1.38038426e-02 1.10007063e-11 1.09990604e-11 1.64588193e-15 2.14651711e-290 8.78293504e-293 1.09990604e-11
1.58489319e-02 1.10013700e-11 1.09990604e-11 2.30958651e-15 1.21658491e-253 7.94485951e-256 1.09990604e-11
1.81970086e-02 1.10020947e-11 1.09990604e-11 3.03426051e-15 1.17934747e-221 9.61661145e-224 1.09990604e-11
2.08929613e-02 1.10037244e-11 1.09990604e-11 4.66397910e-15 7.60631865e-194 7.25760374e-196 1.09990604e-11
2.39883292e-02 1.10052423e-11 1.09990604e-11 6.18184260e-15 1.22154282e-169 1.46147730e-171 1.09990604e-11
2.75422870e-02 1.10075139e-11 1.09990604e-11 8.45342271e-15 1.41691128e-148 1.92867496e-150 1.09990604e-11
3.16227766e-02 1.10085588e-11 1.09990604e-11 9.49834961e-15 2.94190660e-130 4.79929155e-132 1.09990604e-11
3.63078055e-02 1.10103418e-11 1.09990604e-11 1.12813085e-14 2.46273197e-114 4.66281050e-116 1.09990604e-11
4.16869383e-02 1.10154792e-11 1.09990604e-11 1.64187884e-14 1.69898689e-100 4.28457940e-102 1.09990604e-11
4.78630092e-02 1.10220149e-11 1.09990604e-11 2.29544839e-14 1.78600504e-88 5.92797272e-90 1.09990604e-11
5.49540874e-02 1.10279968e-11 1.09990604e-11 2.89363158e-14 4.89919649e-78 1.99410053e-79 1.09990604e-11
6.30957344e-02 1.10341257e-11 1.09990604e-11 3.50652471e-14 7.47938129e-69 3.81848766e-70 1.09990604e-11
7.24435960e-02 1.10348888e-11 1.09990604e-11 3.58283800e-14 6.85869896e-61 3.60929170e-62 1.09990604e-11
8.31763771e-02 1.10354748e-11 1.09990604e-11 3.64143122e-14 4.28868009e-54 2.21582359e-55 1.09990604e-11
9.54992586e-02 1.10376291e-11 1.09990604e-11 3.85686603e-14 3.22535214e-48 1.70450919e-49 1.09990604e-11
1.09647820e-01 1.05418584e-11 1.05040253e-11 3.78331395e-14 3.54992720e-43 1.94368741e-44 1.05040253e-11
1.25892541e-01 9.83515659e-12 9.80292679e-12 3.22297926e-14 7.95053489e-39 4.01823622e-40 9.80292679e-12
1.44543977e-01 9.17664845e-12 9.14862359e-12 2.80248562e-14 4.33681657e-35 2.02149176e-36 9.14862359e-12
1.65958691e-01 8.56579763e-12 8.53799231e-12 2.78053194e-14 5.48571198e-32 2.77789527e-33 8.53799231e-12
1.90546072e-01 7.99966171e-12 7.96811805e-12 3.15436631e-14 1.92394684e-29 1.19994067e-30 7.96811805e-12
2.18776162e-01 7.47047539e-12 7.43628044e-12 3.41949581e-14 2.69301045e-27 1.87443026e-28 7.43628044e-12
2.51188643e-01 6.97706733e-12 6.93994070e-12 3.71266304e-14 2.89091885e-25 2.38284432e-26 6.93994070e-12
2.88403150e-01 6.51036030e-12 6.47672950e-12 3.36307989e-14 1.70472408e-23 1.37295515e-24 6.47672950e-12
3.31131121e-01 6.07480073e-12 6.04443567e-12 3.03650625e-14 5.83199149e-22 4.72091445e-23 6.04443567e-12
3.80189396e-01 5.66912921e-12 5.64099558e-12 2.81336166e-14 1.26108243e-20 1.03280874e-21 5.64099558e-12
4.36515832e-01 5.28899189e-12 5.26448339e-12 2.45083169e-14 1.82090712e-19 1.52603792e-20 5.26448339e-12
5.01187234e-01 4.93474385e-12 4.91310176e-12 2.16402643e-14 1.82847576e-18 1.56878079e-19 4.91310176e-12
5.75439937e-01 4.60636498e-12 4.58517335e-12 2.11783001e-14 1.33277271e-17 1.20181646e-18 4.58517335e-12
6.60693448e-01 4.29860271e-12 4.27913275e-12 1.93969827e-14 7.29795778e-17 6.84659327e-18 4.27913275e-12
7.58577575e-01 4.01108885e-12 3.99351904e-12 1.72547051e-14 3.15105055e-16 3.07211307e-17 3.99351904e-12
8.70963590e-01 3.74408867e-12 3.72696882e-12 1.60085926e-14 1.11125509e-15 1.08914010e-16 3.72696882e-12
1.00000000e+00 3.49534602e-12 3.47820968e-12 1.38591595e-14 3.27717838e-15 3.18306001e-16 3.47820968e-12
1.14815362e+00 3.26598151e-12 3.24605414e-12 1.14783702e-14 8.44899579e-15 7.83243292e-16 3.24605414e-12
1.31825674e+00 3.05798787e-12 3.02939399e-12 9.18942621e-15 1.94044514e-14 1.65906081e-15 3.02939399e-12
1.51356125e+00 2.87402098e-12 2.82719497e-12 7.33642041e-15 3.94895930e-14 2.98804486e-15 2.82719497e-12
1.73780083e+00 2.71505143e-12 2.63849186e-12 5.54085216e-15 7.10187156e-14 4.54186258e-15 2.63849186e-12
1.99526231e+00 2.58019227e-12 2.46238388e-12 4.37600629e-15 1.13432381e-13 5.89200833e-15 2.46238388e-12
2.29086765e+00 2.46311780e-12 2.29803035e-12 2.79525209e-15 1.62292202e-13 6.28920948e-15 2.29803035e-12
2.63026799e+00 2.35835005e-12 2.14464670e-12 2.00847864e-15 2.11694871e-13 6.01317643e-15 2.14464670e-12
3.01995172e+00 2.25657279e-12 2.00150076e-12 1.36454908e-15 2.53707482e-13 5.01092233e-15 2.00150076e-12
3.46736850e+00 2.15181368e-12 1.86790919e-12 8.41975971e-16 2.83062507e-13 3.83701923e-15 1.86790919e-12
3.98107171e+00 2.03956045e-12 1.74323429e-12 5.14218849e-16 2.95811944e-13 2.63443255e-15 1.74323429e-12
4.57088190e+00 1.91910125e-12 1.62688090e-12 3.16972263e-16 2.91903382e-13 1.68813445e-15 1.62688090e-12
5.24807460e+00 1.62153504e-12 1.34518114e-12 1.63265832e-16 2.76190630e-13 9.96492327e-16 1.34518114e-12
6.02559586e+00 1.14263455e-12 8.88752369e-13 6.34878421e-17 2.53818696e-13 5.42418510e-16 8.88752369e-13
6.70000000e+00 8.80423405e-13 6.46481889e-13 3.15740097e-17 2.33909942e-13 3.25665189e-16 6.46481889e-13
6.92422916e+00 8.12957669e-13 5.85688198e-13 2.35410320e-17 2.27245931e-13 2.78343668e-16 5.85688198e-13
7.15596261e+00 7.53671857e-13 5.30611407e-13 1.84429692e-17 2.23042008e-13 2.32437813e-16 5.30611407e-13
7.39545150e+00 7.05128868e-13 4.80713913e-13 1.49950249e-17 2.24399960e-13 1.96494969e-16 4.80713913e-13
7.64295536e+00 6.78146079e-13 4.35508666e-13 1.07513199e-17 2.42626661e-13 1.67877000e-16 4.35508666e-13
7.89874245e+00 6.82026128e-13 3.94554418e-13 7.28110676e-18 2.87464428e-13 1.48959688e-16 3.94554418e-13
8.16308998e+00 7.12043306e-13 3.57451415e-13 4.59312328e-18 3.54587298e-13 1.30740506e-16 3.57451415e-13
8.43628443e+00 7.74574677e-13 3.23837494e-13 2.92595197e-18 4.50734257e-13 1.09305908e-16 3.23837494e-13
8.71862190e+00 8.14450018e-13 2.93384550e-13 1.81431618e-18 5.21063654e-13 8.42925606e-17 2.93384550e-13
9.01040836e+00 8.61906814e-13 2.65795332e-13 1.02948155e-18 5.96110452e-13 5.81476178e-17 2.65795332e-13
9.31196005e+00 9.00308609e-13 2.40800541e-13 0.00000000e+00 6.59508068e-13 0.00000000e+00 2.40800541e-13
9.62360379e+00 8.79037560e-13 2.18156204e-13 0.00000000e+00 6.60881356e-13 0.00000000e+00 2.18156204e-13
9.94567731e+00 8.12453613e-13 1.97641289e-13 0.00000000e+00 6.14812324e-13 0.00000000e+00 1.97641289e-13
1.02785297e+01 7.35754370e-13 1.79055550e-13 0.00000000e+00 5.56698820e-13 0.00000000e+00 1.79055550e-13
1.06225216e+01 6.62123143e-13 1.62217572e-13 0.00000000e+00 4.99905571e-13 0.00000000e+00 1.62217572e-13
1.09780260e+01 5.83630365e-13 1.46962999e-13 0.00000000e+00 4.36667366e-13 0.00000000e+00 1.46962999e-13
1.13454280e+01 5.15841659e-13 1.33142932e-13 0.00000000e+00 3.82698728e-13 0.00000000e+00 1.33142932e-13
1.17251259e+01 4.57515884e-13 1.20622472e-13 0.00000000e+00 3.36893412e-13 0.00000000e+00 1.20622472e-13
1.21175312e+01 4.04673402e-13 1.09279408e-13 0.00000000e+00 2.95393993e-13 0.00000000e+00 1.09279408e-13
1.25230691e+01 3.58445454e-13 9.90030204e-14 0.00000000e+00 2.59442434e-13 0.00000000e+00 9.90030204e-14
1.29421791e+01 3.19320768e-13 8.96930008e-14 0.00000000e+00 2.29627767e-13 0.00000000e+00 8.96930008e-14
1.33753155e+01 2.85604836e-13 8.12584743e-14 0.00000000e+00 2.04346362e-13 0.00000000e+00 8.12584743e-14
1.38229477e+01 2.62312882e-13 7.36171115e-14 0.00000000e+00 1.88695770e-13 0.00000000e+00 7.36171115e-14
1.42855609e+01 2.46654050e-13 6.66943252e-14 0.00000000e+00 1.79959725e-13 0.00000000e+00 6.66943252e-14
1.47636563e+01 2.43785961e-13 6.04225420e-14 0.00000000e+00 1.83363419e-13 0.00000000e+00 6.04225420e-14
1.52577522e+01 2.44361854e-13 5.47405431e-14 0.00000000e+00 1.89621311e-13 0.00000000e+00 5.47405431e-14
1.57683840e+01 2.47671081e-13 4.95928665e-14 0.00000000e+00 1.98078215e-13 0.00000000e+00 4.95928665e-14
1.62961051e+01 2.52344928e-13 4.49292657e-14 0.00000000e+00 2.07415663e-13 0.00000000e+00 4.49292657e-14
1.68414875e+01 2.57202347e-13 4.07042194e-14 0.00000000e+00 2.16498128e-13 0.00000000e+00 4.07042194e-14
1.74051222e+01 2.58831976e-13 3.68764869e-14 0.00000000e+00 2.21955489e-13 0.00000000e+00 3.68764869e-14
1.79876201e+01 2.58129378e-13 3.34087056e-14 0.00000000e+00 2.24720672e-13 0.00000000e+00 3.34087056e-14
1.85896125e+01 2.52950053e-13 3.02670267e-14 0.00000000e+00 2.22683026e-13 0.00000000e+00 3.02670267e-14
1.92117518e+01 2.43096181e-13 2.74207841e-14 0.00000000e+00 2.15675397e-13 0.00000000e+00 2.74207841e-14
1.98547123e+01 2.31231456e-13 2.48421957e-14 0.00000000e+00 2.06389260e-13 0.00000000e+00 2.48421957e-14
2.05191907e+01 2.19065839e-13 2.25060919e-14 0.00000000e+00 1.96559747e-13 0.00000000e+00 2.25060919e-14
2.12059073e+01 2.07066240e-13 2.03896700e-14 0.00000000e+00 1.86676570e-13 0.00000000e+00 2.03896700e-14
2.19156062e+01 1.97168806e-13 1.84722717e-14 0.00000000e+00 1.78696535e-13 0.00000000e+00 1.84722717e-14
2.26490567e+01 1.88094584e-13 1.67351811e-14 0.00000000e+00 1.71359403e-13 0.00000000e+00 1.67351811e-14
2.34070535e+01 1.79780128e-13 1.51614426e-14 0.00000000e+00 1.64618685e-13 0.00000000e+00 1.51614426e-14
2.41904183e+01 1.72049288e-13 1.37356949e-14 0.00000000e+00 1.58313593e-13 0.00000000e+00 1.37356949e-14
2.50000000e+01 1.65187057e-13 1.24440213e-14 0.00000000e+00 1.52743036e-13 0.00000000e+00 1.24440213e-14
2.75422870e+01 1.47012270e-13 9.30637977e-15 0.00000000e+00 1.37705891e-13 0.00000000e+00 9.30637977e-15
3.16227766e+01 1.24565510e-13 6.14866414e-15 0.00000000e+00 1.18416846e-13 0.00000000e+00 6.14866414e-15
3.63078055e+01 1.02866850e-13 4.06238211e-15 0.00000000e+00 9.88044680e-14 0.00000000e+00 4.06238211e-15
4.16869383e+01 8.09556167e-14 2.68398924e-15 0.00000000e+00 7.82716275e-14 0.00000000e+00 2.68398924e-15
4.78630092e+01 6.03016925e-14 1.77329411e-15 0.00000000e+00 5.85283984e-14 0.00000000e+00 1.77329411e-15
5.49540874e+01 4.27237064e-14 1.17160380e-15 0.00000000e+00 4.15521026e-14 0.00000000e+00 1.17160380e-15
6.30957344e+01 2.89841404e-14 7.74070953e-16 0.00000000e+00 2.82100695e-14 0.00000000e+00 7.74070953e-16
7.24435960e+01 1.89080479e-14 5.11423607e-16 0.00000000e+00 1.83966243e-14 0.00000000e+00 5.11423607e-16
8.31763771e+01 1.19365969e-14 3.37894226e-16 0.00000000e+00 1.15987027e-14 0.00000000e+00 3.37894226e-16
9.54992586e+01 7.33380719e-15 2.23244502e-16 0.00000000e+00 7.11056269e-15 0.00000000e+00 2.23244502e-16
1.09647820e+02 4.40168334e-15 1.47496179e-16 0.00000000e+00 4.25418716e-15 0.00000000e+00 1.47496179e-16
1.25892541e+02 2.61787445e-15 9.74497594e-17 0.00000000e+00 2.52042469e-15 0.00000000e+00 9.74497594e-17
1.44543977e+02 1.53586422e-15 6.43844175e-17 0.00000000e+00 1.47147981e-15 0.00000000e+00 6.43844175e-17
1.65958691e+02 8.55397497e-16 4.25383628e-17 0.00000000e+00 8.12859134e-16 0.00000000e+00 4.25383628e-17
1.90546072e+02 4.74158848e-16 2.81048176e-17 0.00000000e+00 4.46054030e-16 0.00000000e+00 2.81048176e-17
2.18776162e+02 2.61340386e-16 1.85686688e-17 0.00000000e+00 2.42771717e-16 0.00000000e+00 1.85686688e-17
2.51188643e+02 1.43198434e-16 1.22681978e-17 0.00000000e+00 1.30930237e-16 0.00000000e+00 1.22681978e-17
2.88403150e+02 7.80404240e-17 8.10551794e-18 0.00000000e+00 6.99349061e-17 0.00000000e+00 8.10551794e-18
3.31131121e+02 4.24499031e-17 5.35526259e-18 0.00000000e+00 3.70946405e-17 0.00000000e+00 5.35526259e-18
3.80189396e+02 2.30659362e-17 3.53818691e-18 0.00000000e+00 1.95277493e-17 0.00000000e+00 3.53818691e-18
4.36515832e+02 1.25593981e-17 2.33765691e-18 0.00000000e+00 1.02217411e-17 0.00000000e+00 2.33765691e-18
5.01187234e+02 6.86575796e-18 1.54447460e-18 0.00000000e+00 5.32128335e-18 0.00000000e+00 1.54447460e-18
5.75439937e+02 3.77784261e-18 1.02042425e-18 0.00000000e+00 2.75741836e-18 0.00000000e+00 1.02042425e-18
6.60693448e+02 2.09738358e-18 6.74187617e-19 0.00000000e+00 1.42319596e-18 0.00000000e+00 6.74187617e-19
7.58577575e+02 1.17745681e-18 4.45431341e-19 0.00000000e+00 7.32025468e-19 0.00000000e+00 4.45431341e-19
8.70963590e+02 6.69596831e-19 2.94293569e-19 0.00000000e+00 3.75303263e-19 0.00000000e+00 2.94293569e-19
1.00000000e+03 1.91853975e-19 0.00000000e+00 0.00000000e+00 1.91853975e-19 0.00000000e+00 0.00000000e+00
