# column 1: lambda (micron)
# column 2: total flux; lambda*F_lambda (W/m2)
# column 3: direct stellar flux; lambda*F_lambda (W/m2)
# column 4: scattered stellar flux; lambda*F_lambda (W/m2)
# column 5: total dust emission flux; lambda*F_lambda (W/m2)
# column 6: dust emission scattered flux; lambda*F_lambda (W/m2)
# column 7: transparent flux; lambda*F_lambda (W/m2)
1.00000000e-03 6.93995447e-13 6.93993746e-13 1.70149824e-18 0.00000000e+00 0.00000000e+00 6.93993746e-13
1.14815362e-03 8.19139342e-13 8.19135139e-13 4.20341578e-18 0.00000000e+00 0.00000000e+00 8.19135139e-13
1.31825674e-03 9.67449767e-13 9.66842108e-13 6.07659319e-16 0.00000000e+00 0.00000000e+00 9.66842108e-13
1.51356125e-03 1.14120564e-12 1.14118369e-12 2.19517182e-17 0.00000000e+00 0.00000000e+00 1.14118369e-12
1.73780083e-03 1.34701024e-12 1.34696266e-12 4.75810039e-17 0.00000000e+00 0.00000000e+00 1.34696266e-12
1.99526231e-03 1.59003034e-12 1.58984782e-12 1.82513877e-16 0.00000000e+00 0.00000000e+00 1.58984782e-12
2.29086765e-03 1.87664631e-12 1.87653019e-12 1.16114079e-16 0.00000000e+00 0.00000000e+00 1.87653019e-12
2.63026799e-03 2.21508332e-12 2.21490731e-12 1.76005402e-16 0.00000000e+00 0.00000000e+00 2.21490731e-12
3.01995172e-03 2.61490861e-12 2.61430080e-12 6.07800624e-16 0.00000000e+00 0.00000000e+00 2.61430080e-12
3.46736850e-03 3.29583103e-12 3.08571319e-12 2.10117839e-13 0.00000000e+00 0.00000000e+00 3.08571319e-12
3.98107171e-03 3.65163370e-12 3.64213095e-12 9.50274522e-15 0.00000000e+00 0.00000000e+00 3.64213095e-12
4.57088190e-03 4.30098669e-12 4.29888232e-12 2.10436685e-15 0.00000000e+00 0.00000000e+00 4.29888232e-12
5.24807460e-03 5.08412957e-12 5.07405951e-12 1.00700562e-14 0.00000000e+00 0.00000000e+00 5.07405951e-12
6.02559586e-03 5.99593975e-12 5.98901715e-12 6.92260469e-15 0.00000000e+00 0.00000000e+00 5.98901715e-12
6.91830971e-03 7.10146660e-12 7.06896053e-12 3.25060761e-14 0.00000000e+00 0.00000000e+00 7.06896053e-12
7.94328235e-03 8.36570269e-12 8.34363998e-12 2.20627125e-14 2.29654557e-303 6.72734187e-306 8.34363998e-12
9.12010839e-03 9.88468034e-12 9.84817045e-12 3.65098938e-14 1.14858175e-264 5.47829916e-267 9.84817045e-12
1.04712855e-02 1.10591587e-11 1.09990604e-11 6.00982116e-14 5.43691638e-231 2.65036151e-233 1.09990604e-11
1.20226443e-02 1.10646600e-11 1.09990604e-11 6.55995638e-14 9.40768554e-202 6.02902695e-204 1.09990604e-11
1.38038426e-02 1.10708644e-11 1.09990604e-11 7.18039348e-14 2.79592212e-176 2.26231750e-178 1.09990604e-11
1.58489319e-02 1.10677107e-11 1.09990604e-11 6.86502724e-14 4.08694980e-154 4.84022517e-156 1.09990604e-11
1.81970086e-02 1.10763570e-11 1.09990604e-11 7.72965246e-14 7.78341561e-135 1.02301046e-136 1.09990604e-11
2.08929613e-02 1.10866436e-11 1.09990604e-11 8.75831995e-14 4.30945511e-118 6.91349307e-120 1.09990604e-11
2.39883292e-02 1.10910491e-11 1.09990604e-11 9.19886118e-14 1.59310829e-103 3.30555476e-105 1.09990604e-11
2.75422870e-02 1.11003241e-11 1.09990604e-11 1.01263619e-13 7.45543806e-91 1.83746983e-92 1.09990604e-11
3.16227766e-02 1.11055808e-11 1.09990604e-11 1.06520340e-13 7.56705334e-80 2.25134631e-81 1.09990604e-11
3.63078055e-02 1.11123707e-11 1.09990604e-11 1.13310244e-13 2.71616305e-70 9.15301628e-72 1.09990604e-11
4.16869383e-02 1.11250513e-11 1.09990604e-11 1.25990855e-13 5.34174731e-62 2.32890957e-63 1.09990604e-11
4.78630092e-02 1.11436968e-11 1.09990604e-11 1.44636321e-13 8.31304759e-55 4.53016934e-56 1.09990604e-11
5.49540874e-02 1.11603178e-11 1.09990604e-11 1.61257401e-13 1.41569841e-48 8.97596613e-50 1.09990604e-11
6.30957344e-02 1.11711332e-11 1.09990604e-11 1.72072802e-13 4.65570150e-43 3.26393105e-44 1.09990604e-11
7.24435960e-02 1.11670650e-11 1.09990604e-11 1.68004604e-13 2.72406882e-38 1.79255964e-39 1.09990604e-11
8.31763771e-02 1.11589190e-11 1.09990604e-11 1.59858588e-13 2.82848795e-34 1.82967483e-35 1.09990604e-11
9.54992586e-02 1.11643417e-11 1.09990604e-11 1.65281228e-13 8.08056964e-31 5.43496086e-32 1.09990604e-11
1.09647820e-01 1.06669917e-11 1.05040253e-11 1.62966440e-13 6.96902524e-28 5.17750497e-29 1.05040253e-11
1.25892541e-01 9.95256475e-12 9.80292679e-12 1.49637957e-13 2.28437154e-25 1.69262302e-26 9.80292679e-12
1.44543977e-01 9.27895401e-12 9.14862359e-12 1.30330419e-13 3.13442817e-23 2.22967800e-24 9.14862359e-12
1.65958691e-01 8.66482627e-12 8.53799231e-12 1.26833955e-13 1.60853327e-21 1.30809726e-22 8.53799231e-12
1.90546072e-01 8.10227254e-12 7.96811805e-12 1.34154455e-13 3.42382675e-20 3.27649514e-21 7.96811805e-12
2.18776162e-01 7.56484849e-12 7.43628044e-12 1.28567650e-13 4.06650697e-19 3.97744501e-20 7.43628044e-12
2.51188643e-01 7.07865140e-12 6.93994070e-12 1.38705693e-13 5.01119003e-18 6.07781854e-19 6.93994070e-12
2.88403150e-01 6.60107171e-12 6.47672950e-12 1.24300284e-13 4.19166668e-17 5.04957884e-18 6.47672950e-12
3.31131121e-01 6.15657148e-12 6.04443567e-12 1.11895411e-13 2.40407907e-16 2.77985348e-17 6.04443567e-12
3.80189396e-01 5.73932361e-12 5.64099558e-12 9.73242419e-14 1.00378695e-15 1.13154085e-16 5.64099558e-12
4.36515832e-01 5.35858827e-12 5.26448339e-12 9.09253641e-14 3.17951957e-15 3.51121975e-16 5.26448339e-12
5.01187234e-01 4.99985701e-12 4.91310176e-12 7.87763027e-14 7.97894781e-15 8.94043138e-16 4.91310176e-12
5.75439937e-01 4.67466078e-12 4.58517335e-12 7.30612509e-14 1.64261811e-14 1.78814746e-15 4.58517335e-12
6.60693448e-01 4.37370587e-12 4.27913275e-12 6.54357950e-14 2.91373261e-14 3.17057499e-15 4.27913275e-12
7.58577575e-01 4.09847416e-12 3.99351904e-12 5.81897474e-14 4.67653678e-14 5.07172236e-15 3.99351904e-12
8.70963590e-01 3.84943461e-12 3.72696882e-12 5.16251352e-14 7.08406575e-14 7.75390130e-15 3.72696882e-12
1.00000000e+00 3.62751590e-12 3.47820968e-12 4.45647615e-14 1.04741456e-13 1.14718490e-14 3.47820968e-12
1.14815362e+00 3.44179171e-12 3.24605414e-12 3.65630608e-14 1.59174509e-13 1.73582350e-14 3.24605414e-12
1.31825674e+00 3.30631884e-12 3.02939399e-12 2.91883472e-14 2.47736502e-13 2.56094488e-14 3.02939399e-12
1.51356125e+00 3.23580468e-12 2.82719497e-12 2.39993514e-14 3.84610356e-13 3.65141557e-14 2.82719497e-12
1.73780083e+00 3.22616486e-12 2.63849186e-12 1.86689204e-14 5.69004074e-13 4.75253261e-14 2.63849186e-12
1.99526231e+00 3.26002102e-12 2.46238388e-12 1.51195679e-14 7.82517567e-13 5.50849039e-14 2.46238388e-12
2.29086765e+00 3.29915196e-12 2.29803035e-12 1.06396093e-14 9.90482004e-13 5.62117219e-14 2.29803035e-12
2.63026799e+00 3.31617134e-12 2.14464670e-12 7.38667107e-15 1.16413796e-12 5.09336932e-14 2.14464670e-12
3.01995172e+00 3.28734894e-12 2.00150076e-12 5.01703468e-15 1.28083114e-12 4.16186523e-14 2.00150076e-12
3.46736850e+00 3.20467266e-12 1.86790919e-12 3.27998401e-15 1.33348348e-12 3.13542658e-14 1.86790919e-12
3.98107171e+00 3.06834928e-12 1.74323429e-12 2.00984015e-15 1.32310516e-12 2.13270809e-14 1.74323429e-12
4.57088190e+00 2.89159163e-12 1.62688090e-12 1.21005751e-15 1.26350068e-12 1.35806215e-14 1.62688090e-12
5.24807460e+00 2.51544425e-12 1.34518114e-12 6.31424797e-16 1.16963169e-12 8.10118067e-15 1.34518114e-12
6.02559586e+00 1.95380698e-12 8.88752369e-13 2.55322910e-16 1.06479929e-12 4.52938605e-15 8.88752369e-13
6.70000000e+00 1.62354621e-12 6.46481889e-13 1.25975223e-16 9.76938346e-13 2.73485971e-15 6.46481889e-13
6.92422916e+00 1.53385316e-12 5.85688198e-13 9.86202787e-17 9.48066346e-13 2.32901010e-15 5.85688198e-13
7.15596261e+00 1.46048388e-12 5.30611407e-13 7.73500528e-17 9.29795127e-13 1.98930547e-15 5.30611407e-13
7.39545150e+00 1.41396469e-12 4.80713913e-13 5.98095490e-17 9.33190968e-13 1.67756220e-15 4.80713913e-13
7.64295536e+00 1.43874450e-12 4.35508666e-13 4.37012675e-17 1.00319214e-12 1.46224762e-15 4.35508666e-13
7.89874245e+00 1.56617125e-12 3.94554418e-13 2.95273919e-17 1.17158730e-12 1.29315696e-15 3.94554418e-13
8.16308998e+00 1.77235177e-12 3.57451415e-13 1.94945328e-17 1.41488086e-12 1.13642748e-15 3.57451415e-13
8.43628443e+00 2.06473515e-12 3.23837494e-13 1.18650959e-17 1.74088579e-12 9.51321161e-16 3.23837494e-13
8.71862190e+00 2.25317668e-12 2.93384550e-13 7.43512076e-18 1.95978470e-12 7.35218362e-16 2.93384550e-13
9.01040836e+00 2.44244158e-12 2.65795332e-13 3.65107481e-18 2.17664260e-12 4.70339588e-16 2.65795332e-13
9.31196005e+00 2.58365879e-12 2.40800541e-13 0.00000000e+00 2.34285825e-12 0.00000000e+00 2.40800541e-13
9.62360379e+00 2.53708947e-12 2.18156204e-13 0.00000000e+00 2.31893327e-12 0.00000000e+00 2.18156204e-13
9.94567731e+00 2.36528600e-12 1.97641289e-13 0.00000000e+00 2.16764471e-12 0.00000000e+00 1.97641289e-13
1.02785297e+01 2.15775542e-12 1.79055550e-13 0.00000000e+00 1.97869987e-12 0.00000000e+00 1.79055550e-13
1.06225216e+01 1.95445758e-12 1.62217572e-13 0.00000000e+00 1.79224001e-12 0.00000000e+00 1.62217572e-13
1.09780260e+01 1.73113744e-12 1.46962999e-13 0.00000000e+00 1.58417444e-12 0.00000000e+00 1.46962999e-13
1.13454280e+01 1.54243336e-12 1.33142932e-13 0.00000000e+00 1.40929043e-12 0.00000000e+00 1.33142932e-13
1.17251259e+01 1.37510490e-12 1.20622472e-13 0.00000000e+00 1.25448243e-12 0.00000000e+00 1.20622472e-13
1.21175312e+01 1.22200618e-12 1.09279408e-13 0.00000000e+00 1.11272677e-12 0.00000000e+00 1.09279408e-13
1.25230691e+01 1.08409988e-12 9.90030204e-14 0.00000000e+00 9.85096863e-13 0.00000000e+00 9.90030204e-14
1.29421791e+01 9.66523612e-13 8.96930008e-14 0.00000000e+00 8.76830611e-13 0.00000000e+00 8.96930008e-14
1.33753155e+01 8.63756494e-13 8.12584743e-14 0.00000000e+00 7.82498020e-13 0.00000000e+00 8.12584743e-14
1.38229477e+01 7.94875783e-13 7.36171115e-14 0.00000000e+00 7.21258672e-13 0.00000000e+00 7.36171115e-14
1.42855609e+01 7.50502219e-13 6.66943252e-14 0.00000000e+00 6.83807894e-13 0.00000000e+00 6.66943252e-14
1.47636563e+01 7.49261829e-13 6.04225420e-14 0.00000000e+00 6.88839287e-13 0.00000000e+00 6.04225420e-14
1.52577522e+01 7.57080077e-13 5.47405431e-14 0.00000000e+00 7.02339534e-13 0.00000000e+00 5.47405431e-14
1.57683840e+01 7.71190610e-13 4.95928665e-14 0.00000000e+00 7.21597744e-13 0.00000000e+00 4.95928665e-14
1.62961051e+01 7.85940729e-13 4.49292657e-14 0.00000000e+00 7.41011463e-13 0.00000000e+00 4.49292657e-14
1.68414875e+01 8.00981750e-13 4.07042194e-14 0.00000000e+00 7.60277530e-13 0.00000000e+00 4.07042194e-14
1.74051222e+01 8.03266851e-13 3.68764869e-14 0.00000000e+00 7.66390365e-13 0.00000000e+00 3.68764869e-14
1.79876201e+01 7.95031359e-13 3.34087056e-14 0.00000000e+00 7.61622653e-13 0.00000000e+00 3.34087056e-14
1.85896125e+01 7.73658714e-13 3.02670267e-14 0.00000000e+00 7.43391688e-13 0.00000000e+00 3.02670267e-14
1.92117518e+01 7.37356947e-13 2.74207841e-14 0.00000000e+00 7.09936163e-13 0.00000000e+00 2.74207841e-14
1.98547123e+01 6.93141625e-13 2.48421957e-14 0.00000000e+00 6.68299430e-13 0.00000000e+00 2.48421957e-14
2.05191907e+01 6.48231095e-13 2.25060919e-14 0.00000000e+00 6.25725003e-13 0.00000000e+00 2.25060919e-14
2.12059073e+01 6.05497314e-13 2.03896700e-14 0.00000000e+00 5.85107644e-13 0.00000000e+00 2.03896700e-14
2.19156062e+01 5.67134637e-13 1.84722717e-14 0.00000000e+00 5.48662365e-13 0.00000000e+00 1.84722717e-14
2.26490567e+01 5.31450417e-13 1.67351811e-14 0.00000000e+00 5.14715236e-13 0.00000000e+00 1.67351811e-14
2.34070535e+01 4.98024711e-13 1.51614426e-14 0.00000000e+00 4.82863268e-13 0.00000000e+00 1.51614426e-14
2.41904183e+01 4.66917544e-13 1.37356949e-14 0.00000000e+00 4.53181849e-13 0.00000000e+00 1.37356949e-14
2.50000000e+01 4.37760640e-13 1.24440213e-14 0.00000000e+00 4.25316619e-13 0.00000000e+00 1.24440213e-14
2.75422870e+01 3.60315489e-13 9.30637977e-15 0.00000000e+00 3.51009110e-13 0.00000000e+00 9.30637977e-15
3.16227766e+01 2.67013201e-13 6.14866414e-15 0.00000000e+00 2.60864537e-13 0.00000000e+00 6.14866414e-15
3.63078055e+01 1.88676371e-13 4.06238211e-15 0.00000000e+00 1.84613989e-13 0.00000000e+00 4.06238211e-15
4.16869383e+01 1.25202561e-13 2.68398924e-15 0.00000000e+00 1.22518572e-13 0.00000000e+00 2.68398924e-15
4.78630092e+01 7.81874741e-14 1.77329411e-15 0.00000000e+00 7.64141800e-14 0.00000000e+00 1.77329411e-15
5.49540874e+01 4.65421095e-14 1.17160380e-15 0.00000000e+00 4.53705057e-14 0.00000000e+00 1.17160380e-15
6.30957344e+01 2.67579368e-14 7.74070953e-16 0.00000000e+00 2.59838658e-14 0.00000000e+00 7.74070953e-16
7.24435960e+01 1.49904840e-14 5.11423607e-16 0.00000000e+00 1.44790604e-14 0.00000000e+00 5.11423607e-16
8.31763771e+01 8.25731288e-15 3.37894226e-16 0.00000000e+00 7.91941866e-15 0.00000000e+00 3.37894226e-16
9.54992586e+01 4.50373944e-15 2.23244502e-16 0.00000000e+00 4.28049494e-15 0.00000000e+00 2.23244502e-16
1.09647820e+02 2.44139723e-15 1.47496179e-16 0.00000000e+00 2.29390105e-15 0.00000000e+00 1.47496179e-16
1.25892541e+02 1.33392122e-15 9.74497594e-17 0.00000000e+00 1.23647146e-15 0.00000000e+00 9.74497594e-17
1.44543977e+02 7.30124846e-16 6.43844175e-17 0.00000000e+00 6.65740428e-16 0.00000000e+00 6.43844175e-17
1.65958691e+02 3.84388788e-16 4.25383628e-17 0.00000000e+00 3.41850425e-16 0.00000000e+00 4.25383628e-17
1.90546072e+02 2.04404836e-16 2.81048176e-17 0.00000000e+00 1.76300018e-16 0.00000000e+00 2.81048176e-17
2.18776162e+02 1.09582906e-16 1.85686688e-17 0.00000000e+00 9.10142368e-17 0.00000000e+00 1.85686688e-17
2.51188643e+02 5.91845442e-17 1.22681978e-17 0.00000000e+00 4.69163463e-17 0.00000000e+00 1.22681978e-17
2.88403150e+02 3.22162915e-17 8.10551794e-18 0.00000000e+00 2.41107736e-17 0.00000000e+00 8.10551794e-18
3.31131121e+02 1.77274223e-17 5.35526259e-18 0.00000000e+00 1.23721597e-17 0.00000000e+00 5.35526259e-18
3.80189396e+02 9.86897837e-18 3.53818691e-18 0.00000000e+00 6.33079146e-18 0.00000000e+00 3.53818691e-18
4.36515832e+02 5.57177153e-18 2.33765691e-18 0.00000000e+00 3.23411462e-18 0.00000000e+00 2.33765691e-18
5.01187234e+02 3.19323752e-18 1.54447460e-18 0.00000000e+00 1.64876291e-18 0.00000000e+00 1.54447460e-18
5.75439937e+02 1.85956105e-18 1.02042425e-18 0.00000000e+00 8.39136803e-19 0.00000000e+00 1.02042425e-18
6.60693448e+02 1.10063431e-18 6.74187617e-19 0.00000000e+00 4.26446690e-19 0.00000000e+00 6.74187617e-19
7.58577575e+02 6.61867364e-19 4.45431341e-19 0.00000000e+00 2.16436024e-19 0.00000000e+00 4.45431341e-19
8.70963590e+02 4.03988663e-19 2.94293569e-19 0.00000000e+00 1.09695095e-19 0.00000000e+00 2.94293569e-19
1.00000000e+03 5.55208741e-20 0.00000000e+00 0.00000000e+00 5.55208741e-20 0.00000000e+00 0.00000000e+00
