# column 1: lambda (micron)
# column 2: total flux; lambda*F_lambda (W/m2)
# column 3: direct stellar flux; lambda*F_lambda (W/m2)
# column 4: scattered stellar flux; lambda*F_lambda (W/m2)
# column 5: total dust emission flux; lambda*F_lambda (W/m2)
# column 6: dust emission scattered flux; lambda*F_lambda (W/m2)
# column 7: transparent flux; lambda*F_lambda (W/m2)
1.00000000e-03 1.07335668e-12 1.07333332e-12 2.33595592e-17 0.00000000e+00 0.00000000e+00 1.07335627e-12
1.14815362e-03 1.26690346e-12 1.26686877e-12 3.46929019e-17 0.00000000e+00 0.00000000e+00 1.26690456e-12
1.31825674e-03 1.49534936e-12 1.49529988e-12 4.94806967e-17 0.00000000e+00 0.00000000e+00 1.49535359e-12
1.51356125e-03 1.76499449e-12 1.76492196e-12 7.25295942e-17 0.00000000e+00 0.00000000e+00 1.76499670e-12
1.73780083e-03 2.08330439e-12 2.08317290e-12 1.31486424e-16 0.00000000e+00 0.00000000e+00 2.08326203e-12
1.99526231e-03 2.45899168e-12 2.45877769e-12 2.13995230e-16 0.00000000e+00 0.00000000e+00 2.45891716e-12
2.29086765e-03 2.90246044e-12 2.90213610e-12 3.24341666e-16 0.00000000e+00 0.00000000e+00 2.90231066e-12
2.63026799e-03 3.42603151e-12 3.42541025e-12 6.21258297e-16 0.00000000e+00 0.00000000e+00 3.42565717e-12
3.01995172e-03 4.04399708e-12 4.04301340e-12 9.83678309e-16 0.00000000e+00 0.00000000e+00 4.04337385e-12
3.46736850e-03 4.77352666e-12 4.77197614e-12 1.55052161e-15 0.00000000e+00 0.00000000e+00 4.77247759e-12
3.98107171e-03 5.63474176e-12 5.63237630e-12 2.36546538e-15 0.00000000e+00 0.00000000e+00 5.63305378e-12
4.57088190e-03 6.65620128e-12 6.64827621e-12 7.92507282e-15 0.00000000e+00 0.00000000e+00 6.64880962e-12
5.24807460e-03 8.00146691e-12 7.84692306e-12 1.54543850e-13 0.00000000e+00 0.00000000e+00 7.84772720e-12
6.02559586e-03 9.27976144e-12 9.26168994e-12 1.80714970e-14 0.00000000e+00 0.00000000e+00 9.26283435e-12
6.91830971e-03 1.09628316e-11 1.09315556e-11 3.12760129e-14 0.00000000e+00 0.00000000e+00 1.09331145e-11
7.94328235e-03 1.29490242e-11 1.29025278e-11 4.64964105e-14 7.04894650e-304 1.86144319e-305 1.29045807e-11
9.12010839e-03 1.53170481e-11 1.52288541e-11 8.81940476e-14 2.96763525e-265 6.33219529e-267 1.52315429e-11
1.04712855e-02 1.71162079e-11 1.70083569e-11 1.07851005e-13 1.20940860e-231 1.83622201e-233 1.70115517e-11
1.20226443e-02 1.72159287e-11 1.70081684e-11 2.07760345e-13 1.86997589e-202 5.44884655e-204 1.70115517e-11
1.38038426e-02 1.72407035e-11 1.70079448e-11 2.32758785e-13 4.98706220e-177 1.56763200e-178 1.70115517e-11
1.58489319e-02 1.73151506e-11 1.70076699e-11 3.07480698e-13 6.67996018e-155 2.88324743e-156 1.70115517e-11
1.81970086e-02 1.74197500e-11 1.70074165e-11 4.12333547e-13 1.17386439e-135 5.52109696e-137 1.70115517e-11
2.08929613e-02 1.75217763e-11 1.70072058e-11 5.14570457e-13 6.05436412e-119 3.07861910e-120 1.70115517e-11
2.39883292e-02 1.76367834e-11 1.70069329e-11 6.29850566e-13 2.09888029e-104 1.15345970e-105 1.70115517e-11
2.75422870e-02 1.76991590e-11 1.70066154e-11 6.92543616e-13 9.27305311e-92 5.21448643e-93 1.70115517e-11
3.16227766e-02 1.77507934e-11 1.70063042e-11 7.44489233e-13 8.91545103e-81 5.03254865e-82 1.70115517e-11
3.63078055e-02 1.77738062e-11 1.70060601e-11 7.67746157e-13 3.04442731e-71 1.61415498e-72 1.70115517e-11
4.16869383e-02 1.77934666e-11 1.70058490e-11 7.87617614e-13 5.71362554e-63 3.02803167e-64 1.70115517e-11
4.78630092e-02 1.76978312e-11 1.70052670e-11 6.92564156e-13 8.47566981e-56 4.22603115e-57 1.70115517e-11
5.49540874e-02 1.76180966e-11 1.70044578e-11 6.13638791e-13 1.38194167e-49 6.28259818e-51 1.70115517e-11
6.30957344e-02 1.74364201e-11 1.70024288e-11 4.33991321e-13 4.33451504e-44 1.57757758e-45 1.70115517e-11
7.24435960e-02 1.73143538e-11 1.70000257e-11 3.14328078e-13 2.45786065e-39 7.02211394e-41 1.70115517e-11
8.31763771e-02 1.72933602e-11 1.70002396e-11 2.93120630e-13 2.50564737e-35 6.67006606e-37 1.70115517e-11
9.54992586e-02 1.72851928e-11 1.70008667e-11 2.84326118e-13 7.04734936e-32 1.89517614e-33 1.70115517e-11
1.09647820e-01 1.65763191e-11 1.62374346e-11 3.38884480e-13 6.01392276e-29 1.91572324e-30 1.62459122e-11
1.25892541e-01 1.55591841e-11 1.51550546e-11 4.04129518e-13 1.96739568e-26 7.26064426e-28 1.51615674e-11
1.44543977e-01 1.45477550e-11 1.41445599e-11 4.03195053e-13 2.69802055e-24 1.04385788e-25 1.41495980e-11
1.65958691e-01 1.35976564e-11 1.32010611e-11 3.96595258e-13 1.36545682e-22 5.69133090e-24 1.32051732e-11
1.90546072e-01 1.26689284e-11 1.23196906e-11 3.49237776e-13 2.84116032e-21 1.25211045e-22 1.23237846e-11
2.18776162e-01 1.17587723e-11 1.14967432e-11 2.62029041e-13 3.31795501e-20 1.31509985e-21 1.15012250e-11
2.51188643e-01 1.10225333e-11 1.07302225e-11 2.92310330e-13 4.00482818e-19 1.88083993e-20 1.07335677e-11
2.88403150e-01 1.03180698e-11 1.00145562e-11 3.03510166e-13 3.35450797e-18 1.63802545e-19 1.00171482e-11
3.31131121e-01 9.64505172e-12 9.34643796e-12 2.98594411e-13 1.93526126e-17 9.92335974e-19 9.34854667e-12
3.80189396e-01 9.01370253e-12 8.72284319e-12 2.90778005e-13 8.13374761e-17 4.40928825e-18 8.72457139e-12
4.36515832e-01 8.40730746e-12 8.14084007e-12 2.66206367e-13 2.61025288e-16 1.52650293e-17 8.14224377e-12
5.01187234e-01 7.85636371e-12 7.59765930e-12 2.58017751e-13 6.86649818e-16 5.23620968e-17 7.59878402e-12
5.75439937e-01 7.33042733e-12 7.09070598e-12 2.38041394e-13 1.67995538e-15 2.07144066e-16 7.09159786e-12
6.60693448e-01 6.84342862e-12 6.61756307e-12 2.21382089e-13 4.48345696e-15 8.94168350e-16 6.61826421e-12
7.58577575e-01 6.39052390e-12 6.17597905e-12 2.00937252e-13 1.36076013e-14 3.58731072e-15 6.17652353e-12
8.70963590e-01 5.98727951e-12 5.76385368e-12 1.81907735e-13 4.15180925e-14 1.17540787e-14 5.76426715e-12
1.00000000e+00 5.66215846e-12 5.37921820e-12 1.64074693e-13 1.18865566e-13 3.30498008e-14 5.37952711e-12
1.14815362e+00 5.46269607e-12 5.02024012e-12 1.44003021e-13 2.98452923e-13 7.75087373e-14 5.02046681e-12
1.31825674e+00 5.49066392e-12 4.68520878e-12 1.24385954e-13 6.81069185e-13 1.57252308e-13 4.68537225e-12
1.51356125e+00 5.87561168e-12 4.37252712e-12 1.07145737e-13 1.39593883e-12 2.82447201e-13 4.37264380e-12
1.73780083e+00 6.72734475e-12 4.08070670e-12 9.16614178e-14 2.55497663e-12 4.47094662e-13 4.08078863e-12
1.99526231e+00 8.09346038e-12 3.80835691e-12 7.53350990e-14 4.20976837e-12 6.07043580e-13 3.80841354e-12
2.29086765e+00 9.85794230e-12 3.55417929e-12 5.92654266e-14 6.24449758e-12 7.07741415e-13 3.55421832e-12
2.63026799e+00 1.17900375e-11 3.31696239e-12 4.41108769e-14 8.42896421e-12 7.22783091e-13 3.31698953e-12
3.01995172e+00 1.37298297e-11 3.09557563e-12 3.13004510e-14 1.06029536e-11 6.53800707e-13 3.09559474e-12
3.46736850e+00 1.53532482e-11 2.88896342e-12 2.10139219e-14 1.24432708e-11 5.31556590e-13 2.88897711e-12
3.98107171e+00 1.65175403e-11 2.69614039e-12 1.34939480e-14 1.38079060e-11 3.89442456e-13 2.69615031e-12
4.57088190e+00 1.71048090e-11 2.51618658e-12 8.41702078e-15 1.45802054e-11 2.61233194e-13 2.51619387e-12
5.24807460e+00 1.69354027e-11 2.08050182e-12 4.52891741e-15 1.48503720e-11 1.65596542e-13 2.08050667e-12
6.02559586e+00 1.60355615e-11 1.37457446e-12 1.85175279e-15 1.46591353e-11 9.71407878e-14 1.37457712e-12
6.70000000e+00 1.52199344e-11 9.99870972e-13 8.92917257e-16 1.42191705e-11 6.15680226e-14 9.99872685e-13
6.92422916e+00 1.49408936e-11 9.05845426e-13 7.07861994e-16 1.40343403e-11 5.27204532e-14 9.05846924e-13
7.15596261e+00 1.47251158e-11 8.20661799e-13 5.50996669e-16 1.39039030e-11 4.51828135e-14 8.20663132e-13
7.39545150e+00 1.47405788e-11 7.43488595e-13 4.18714341e-16 1.39966715e-11 3.82984958e-14 7.43489831e-13
7.64295536e+00 1.53034425e-11 6.73572456e-13 3.02077704e-16 1.46295680e-11 3.30572242e-14 6.73573732e-13
7.89874245e+00 1.66159161e-11 6.10230891e-13 1.93894185e-16 1.60054913e-11 2.80873046e-14 6.10232385e-13
8.16308998e+00 1.82971267e-11 5.52845687e-13 1.17086258e-16 1.77441639e-11 2.32965123e-14 5.52847515e-13
8.43628443e+00 2.00455180e-11 5.00856687e-13 6.12025702e-17 1.95446001e-11 1.78701335e-14 5.00858987e-13
8.71862190e+00 2.09443777e-11 4.53756783e-13 3.11943861e-17 2.04905897e-11 1.29941269e-14 4.53759343e-13
9.01040836e+00 2.18344488e-11 4.11086033e-13 1.13099606e-17 2.14233514e-11 7.46236792e-15 4.11088843e-13
9.31196005e+00 2.22020004e-11 3.72428027e-13 0.00000000e+00 2.18295724e-11 0.00000000e+00 3.72430980e-13
9.62360379e+00 2.21037804e-11 3.37405669e-13 0.00000000e+00 2.17663747e-11 0.00000000e+00 3.37408415e-13
9.94567731e+00 2.15518634e-11 3.05676958e-13 0.00000000e+00 2.12461864e-11 0.00000000e+00 3.05679292e-13
1.02785297e+01 2.08162099e-11 2.76931991e-13 0.00000000e+00 2.05392779e-11 0.00000000e+00 2.76933904e-13
1.06225216e+01 2.01905978e-11 2.50890117e-13 0.00000000e+00 1.99397077e-11 0.00000000e+00 2.50891667e-13
1.09780260e+01 1.91953622e-11 2.27297172e-13 0.00000000e+00 1.89680650e-11 0.00000000e+00 2.27298384e-13
1.13454280e+01 1.82004426e-11 2.05922808e-13 0.00000000e+00 1.79945198e-11 0.00000000e+00 2.05923759e-13
1.17251259e+01 1.71593283e-11 1.86558404e-13 0.00000000e+00 1.69727699e-11 0.00000000e+00 1.86559155e-13
1.21175312e+01 1.60772666e-11 1.69014965e-13 0.00000000e+00 1.59082517e-11 0.00000000e+00 1.69015555e-13
1.25230691e+01 1.49450566e-11 1.53121253e-13 0.00000000e+00 1.47919353e-11 0.00000000e+00 1.53121715e-13
1.29421791e+01 1.38604314e-11 1.38722131e-13 0.00000000e+00 1.37217092e-11 0.00000000e+00 1.38722496e-13
1.33753155e+01 1.28292922e-11 1.25677057e-13 0.00000000e+00 1.27036151e-11 0.00000000e+00 1.25677347e-13
1.38229477e+01 1.20777062e-11 1.13858693e-13 0.00000000e+00 1.19638475e-11 0.00000000e+00 1.13858934e-13
1.42855609e+01 1.16231740e-11 1.03151689e-13 0.00000000e+00 1.15200223e-11 0.00000000e+00 1.03151898e-13
1.47636563e+01 1.16047658e-11 9.34515286e-14 0.00000000e+00 1.15113142e-11 0.00000000e+00 9.34517274e-14
1.52577522e+01 1.16969771e-11 8.46635466e-14 0.00000000e+00 1.16123136e-11 0.00000000e+00 8.46637387e-14
1.57683840e+01 1.18622483e-11 7.67019646e-14 0.00000000e+00 1.17855463e-11 0.00000000e+00 7.67021526e-14
1.62961051e+01 1.20053789e-11 6.94890723e-14 0.00000000e+00 1.19358898e-11 0.00000000e+00 6.94892560e-14
1.68414875e+01 1.20673713e-11 6.29544647e-14 0.00000000e+00 1.20044168e-11 0.00000000e+00 6.29546439e-14
1.74051222e+01 1.20179766e-11 5.70343617e-14 0.00000000e+00 1.19609422e-11 0.00000000e+00 5.70345319e-14
1.79876201e+01 1.18444742e-11 5.16709748e-14 0.00000000e+00 1.17928033e-11 0.00000000e+00 5.16711337e-14
1.85896125e+01 1.15000672e-11 4.68119536e-14 0.00000000e+00 1.14532552e-11 0.00000000e+00 4.68120974e-14
1.92117518e+01 1.09885702e-11 4.24098676e-14 0.00000000e+00 1.09461603e-11 0.00000000e+00 4.24099939e-14
1.98547123e+01 1.03661942e-11 3.84217454e-14 0.00000000e+00 1.03277724e-11 0.00000000e+00 3.84218542e-14
2.05191907e+01 9.76296651e-12 3.48086574e-14 0.00000000e+00 9.72815785e-12 0.00000000e+00 3.48087501e-14
2.12059073e+01 9.12558146e-12 3.15353351e-14 0.00000000e+00 9.09404613e-12 0.00000000e+00 3.15354141e-14
2.19156062e+01 8.53403938e-12 2.85698275e-14 0.00000000e+00 8.50546955e-12 0.00000000e+00 2.85698952e-14
2.26490567e+01 7.98605650e-12 2.58831890e-14 0.00000000e+00 7.96017331e-12 0.00000000e+00 2.58832470e-14
2.34070535e+01 7.45464847e-12 2.34491952e-14 0.00000000e+00 7.43119928e-12 0.00000000e+00 2.34492452e-14
2.41904183e+01 6.94275101e-12 2.12440883e-14 0.00000000e+00 6.92150692e-12 0.00000000e+00 2.12441313e-14
2.50000000e+01 6.46251217e-12 1.92463442e-14 0.00000000e+00 6.44326583e-12 0.00000000e+00 1.92463813e-14
2.75422870e+01 5.19666263e-12 1.43935653e-14 0.00000000e+00 5.18226907e-12 0.00000000e+00 1.43935895e-14
3.16227766e+01 3.68291307e-12 9.50973696e-15 0.00000000e+00 3.67340333e-12 0.00000000e+00 9.50975027e-15
3.63078055e+01 2.48058352e-12 6.28302242e-15 0.00000000e+00 2.47430050e-12 0.00000000e+00 6.28302969e-15
4.16869383e+01 1.57494267e-12 4.15115268e-15 0.00000000e+00 1.57079152e-12 0.00000000e+00 4.15115655e-15
4.78630092e+01 9.43141871e-13 2.74263994e-15 0.00000000e+00 9.40399231e-13 0.00000000e+00 2.74264194e-15
5.49540874e+01 5.39779571e-13 1.81204455e-15 0.00000000e+00 5.37967526e-13 0.00000000e+00 1.81204556e-15
6.30957344e+01 2.98661610e-13 1.19720613e-15 0.00000000e+00 2.97464404e-13 0.00000000e+00 1.19720663e-15
7.24435960e+01 1.61239228e-13 7.90986327e-16 0.00000000e+00 1.60448241e-13 0.00000000e+00 7.90986575e-16
8.31763771e+01 8.56970463e-14 5.22599525e-16 0.00000000e+00 8.51744468e-14 0.00000000e+00 5.22599647e-16
9.54992586e+01 4.51200889e-14 3.45278102e-16 0.00000000e+00 4.47748108e-14 0.00000000e+00 3.45278163e-16
1.09647820e+02 2.36367272e-14 2.28122990e-16 0.00000000e+00 2.34086042e-14 0.00000000e+00 2.28123020e-16
1.25892541e+02 1.24908364e-14 1.50719369e-16 0.00000000e+00 1.23401170e-14 0.00000000e+00 1.50719385e-16
1.44543977e+02 6.61357535e-15 9.95793022e-17 0.00000000e+00 6.51399605e-15 0.00000000e+00 9.95793099e-17
1.65958691e+02 3.35360434e-15 6.57913938e-17 0.00000000e+00 3.28781295e-15 0.00000000e+00 6.57913976e-17
1.90546072e+02 1.71339915e-15 4.34679435e-17 0.00000000e+00 1.66993121e-15 0.00000000e+00 4.34679453e-17
2.18776162e+02 8.79305176e-16 2.87189858e-17 0.00000000e+00 8.50586190e-16 0.00000000e+00 2.87189867e-17
2.51188643e+02 4.52332128e-16 1.89744459e-17 0.00000000e+00 4.33357682e-16 0.00000000e+00 1.89744463e-17
2.88403150e+02 2.32957503e-16 1.25362921e-17 0.00000000e+00 2.20421211e-16 0.00000000e+00 1.25362924e-17
3.31131121e+02 1.20378600e-16 8.28264612e-18 0.00000000e+00 1.12095954e-16 0.00000000e+00 8.28264623e-18
3.80189396e+02 6.23833004e-17 5.47229004e-18 0.00000000e+00 5.69110104e-17 0.00000000e+00 5.47229010e-18
4.36515832e+02 3.24908206e-17 3.61550618e-18 0.00000000e+00 2.88753144e-17 0.00000000e+00 3.61550621e-18
5.01187234e+02 1.70222312e-17 2.38874125e-18 0.00000000e+00 1.46334900e-17 0.00000000e+00 2.38874127e-18
5.75439937e+02 8.98748560e-18 1.57822570e-18 0.00000000e+00 7.40925990e-18 0.00000000e+00 1.57822570e-18
6.60693448e+02 4.79114780e-18 1.04272338e-18 0.00000000e+00 3.74842442e-18 0.00000000e+00 1.04272338e-18
7.58577575e+02 2.58392696e-18 6.88920505e-19 0.00000000e+00 1.89500645e-18 0.00000000e+00 6.88920507e-19
8.70963590e+02 1.41232792e-18 4.55165264e-19 0.00000000e+00 9.57162654e-19 0.00000000e+00 4.55165265e-19
1.00000000e+03 4.83019445e-19 0.00000000e+00 0.00000000e+00 4.83019445e-19 0.00000000e+00 0.00000000e+00
