# column 1: lambda (micron)
# column 2: total flux; lambda*F_lambda (W/m2)
# column 3: direct stellar flux; lambda*F_lambda (W/m2)
# column 4: scattered stellar flux; lambda*F_lambda (W/m2)
# column 5: total dust emission flux; lambda*F_lambda (W/m2)
# column 6: dust emission scattered flux; lambda*F_lambda (W/m2)
# column 7: transparent flux; lambda*F_lambda (W/m2)
1.00000000e-03 6.93994171e-13 6.93993746e-13 4.25469192e-19 0.00000000e+00 0.00000000e+00 6.93993746e-13
1.14815362e-03 8.19135762e-13 8.19135139e-13 6.23424292e-19 0.00000000e+00 0.00000000e+00 8.19135139e-13
1.31825674e-03 9.66843058e-13 9.66842108e-13 9.49899260e-19 0.00000000e+00 0.00000000e+00 9.66842108e-13
1.51356125e-03 1.14118512e-12 1.14118369e-12 1.42506945e-18 0.00000000e+00 0.00000000e+00 1.14118369e-12
1.73780083e-03 1.34696523e-12 1.34696266e-12 2.57483565e-18 0.00000000e+00 0.00000000e+00 1.34696266e-12
1.99526231e-03 1.58985219e-12 1.58984782e-12 4.37166751e-18 0.00000000e+00 0.00000000e+00 1.58984782e-12
2.29086765e-03 1.87653731e-12 1.87653019e-12 7.12008891e-18 0.00000000e+00 0.00000000e+00 1.87653019e-12
2.63026799e-03 2.21492176e-12 2.21490731e-12 1.44535509e-17 0.00000000e+00 0.00000000e+00 2.21490731e-12
3.01995172e-03 2.61432549e-12 2.61430080e-12 2.46829852e-17 0.00000000e+00 0.00000000e+00 2.61430080e-12
3.46736850e-03 3.08575393e-12 3.08571319e-12 4.07404719e-17 0.00000000e+00 0.00000000e+00 3.08571319e-12
3.98107171e-03 3.64219585e-12 3.64213095e-12 6.48964846e-17 0.00000000e+00 0.00000000e+00 3.64213095e-12
4.57088190e-03 4.29903041e-12 4.29888232e-12 1.48092490e-16 0.00000000e+00 0.00000000e+00 4.29888232e-12
5.24807460e-03 5.07431602e-12 5.07405951e-12 2.56506401e-16 0.00000000e+00 0.00000000e+00 5.07405951e-12
6.02559586e-03 5.98948675e-12 5.98901715e-12 4.69605067e-16 0.00000000e+00 0.00000000e+00 5.98901715e-12
6.91830971e-03 7.06962417e-12 7.06896053e-12 6.63640794e-16 0.00000000e+00 0.00000000e+00 7.06896053e-12
7.94328235e-03 8.34789389e-12 8.34363998e-12 4.25390288e-15 8.07631637e-304 1.40753090e-306 8.34363998e-12
9.12010839e-03 9.85012680e-12 9.84817045e-12 1.95634863e-15 3.58993265e-265 5.05567978e-268 9.84817045e-12
1.04712855e-02 1.10017389e-11 1.09990604e-11 2.67843003e-15 1.53998860e-231 6.17204274e-234 1.09990604e-11
1.20226443e-02 1.10081015e-11 1.09990604e-11 9.04110413e-15 2.43375629e-202 6.50644374e-205 1.09990604e-11
1.38038426e-02 1.10059352e-11 1.09990604e-11 6.87474141e-15 6.69857578e-177 2.71921568e-179 1.09990604e-11
1.58489319e-02 1.10070788e-11 1.09990604e-11 8.01840099e-15 9.14699390e-155 5.55769505e-157 1.09990604e-11
1.81970086e-02 1.10097849e-11 1.09990604e-11 1.07244066e-14 1.64313879e-135 1.12748211e-137 1.09990604e-11
2.08929613e-02 1.10154867e-11 1.09990604e-11 1.64263037e-14 8.64773987e-119 8.17441661e-121 1.09990604e-11
2.39883292e-02 1.10200900e-11 1.09990604e-11 2.10295596e-14 3.05464694e-104 3.79862419e-106 1.09990604e-11
2.75422870e-02 1.10275627e-11 1.09990604e-11 2.85022627e-14 1.37679988e-91 2.29381767e-93 1.09990604e-11
3.16227766e-02 1.10348923e-11 1.09990604e-11 3.58318799e-14 1.35203892e-80 2.95313973e-82 1.09990604e-11
3.63078055e-02 1.10398731e-11 1.09990604e-11 4.08127026e-14 4.70530214e-71 1.11660884e-72 1.09990604e-11
4.16869383e-02 1.10559942e-11 1.09990604e-11 5.69337068e-14 9.02330510e-63 3.02591288e-64 1.09990604e-11
4.78630092e-02 1.10750481e-11 1.09990604e-11 7.59876263e-14 1.37550817e-55 6.19303662e-57 1.09990604e-11
5.49540874e-02 1.10918764e-11 1.09990604e-11 9.28159224e-14 2.30522897e-49 1.28275894e-50 1.09990604e-11
6.30957344e-02 1.11035674e-11 1.09990604e-11 1.04506908e-13 7.52265217e-44 5.09498516e-45 1.09990604e-11
7.24435960e-02 1.10967625e-11 1.09990604e-11 9.77020707e-14 4.37168583e-39 2.92017206e-40 1.09990604e-11
8.31763771e-02 1.11001420e-11 1.09990604e-11 1.01081521e-13 4.48012305e-35 2.95438962e-36 1.09990604e-11
9.54992586e-02 1.11033046e-11 1.09990604e-11 1.04244146e-13 1.26556504e-31 8.75250475e-33 1.09990604e-11
1.09647820e-01 1.06097942e-11 1.05040253e-11 1.05768882e-13 1.07455215e-28 7.89408853e-30 1.05040253e-11
1.25892541e-01 9.89893493e-12 9.80292679e-12 9.60081360e-14 3.46911188e-26 2.41052989e-27 9.80292679e-12
1.44543977e-01 9.23453148e-12 9.14862359e-12 8.59078908e-14 4.70990243e-24 3.09010958e-25 9.14862359e-12
1.65958691e-01 8.62925281e-12 8.53799231e-12 9.12604974e-14 2.39199037e-22 1.75396105e-23 8.53799231e-12
1.90546072e-01 8.06864592e-12 7.96811805e-12 1.00527871e-13 5.07817520e-21 4.57296274e-22 7.96811805e-12
2.18776162e-01 7.53540978e-12 7.43628044e-12 9.91292872e-14 6.04091066e-20 5.81594380e-21 7.43628044e-12
2.51188643e-01 7.05049057e-12 6.93994070e-12 1.10549136e-13 7.37291241e-19 8.65241803e-20 6.93994070e-12
2.88403150e-01 6.57689810e-12 6.47672950e-12 1.00162489e-13 6.10551198e-18 6.84827777e-19 6.47672950e-12
3.31131121e-01 6.13321506e-12 6.04443567e-12 8.87445016e-14 3.48943085e-17 3.76409579e-18 6.04443567e-12
3.80189396e-01 5.72057389e-12 5.64099558e-12 7.94333180e-14 1.44994416e-16 1.50035342e-17 5.64099558e-12
4.36515832e-01 5.33983468e-12 5.26448339e-12 7.48922968e-14 4.58999241e-16 4.66887906e-17 5.26448339e-12
5.01187234e-01 4.98183377e-12 4.91310176e-12 6.75767053e-14 1.15529837e-15 1.17602611e-16 4.91310176e-12
5.75439937e-01 4.65104686e-12 4.58517335e-12 6.34242833e-14 2.44922529e-15 2.49957551e-16 4.58517335e-12
6.60693448e-01 4.34143964e-12 4.27913275e-12 5.75993349e-14 4.70755930e-15 5.03164725e-16 4.27913275e-12
7.58577575e-01 4.05444615e-12 3.99351904e-12 5.19692321e-14 8.95787847e-15 1.01718641e-15 3.99351904e-12
8.70963590e-01 3.79206397e-12 3.72696882e-12 4.72678235e-14 1.78273292e-14 2.13880655e-15 3.72696882e-12
1.00000000e+00 3.55381139e-12 3.47820968e-12 3.91132880e-14 3.64884221e-14 4.44461490e-15 3.47820968e-12
1.14815362e+00 3.35420747e-12 3.24605414e-12 3.35655467e-14 7.45877756e-14 8.76218056e-15 3.24605414e-12
1.31825674e+00 3.20320807e-12 3.02939399e-12 2.75982058e-14 1.46215877e-13 1.58278591e-14 3.02939399e-12
1.51356125e+00 3.11372748e-12 2.82719497e-12 2.20500716e-14 2.64482442e-13 2.56149644e-14 2.82719497e-12
1.73780083e+00 3.08981883e-12 2.63849186e-12 1.76787436e-14 4.33648225e-13 3.66778424e-14 2.63849186e-12
1.99526231e+00 3.11235777e-12 2.46238388e-12 1.37041728e-14 6.36269713e-13 4.49588692e-14 2.46238388e-12
2.29086765e+00 3.15363888e-12 2.29803035e-12 1.00129984e-14 8.45595536e-13 4.80207213e-14 2.29803035e-12
2.63026799e+00 3.17977198e-12 2.14464670e-12 7.32820562e-15 1.02779707e-12 4.55108443e-14 2.14464670e-12
3.01995172e+00 3.16933193e-12 2.00150076e-12 4.98166315e-15 1.16284950e-12 3.81129922e-14 2.00150076e-12
3.46736850e+00 3.10662601e-12 1.86790919e-12 3.26294757e-15 1.23545387e-12 2.95546237e-14 1.86790919e-12
3.98107171e+00 2.99018304e-12 1.74323429e-12 2.12525342e-15 1.24482350e-12 2.06980888e-14 1.74323429e-12
4.57088190e+00 2.82545930e-12 1.62688090e-12 1.29708518e-15 1.19728131e-12 1.33268030e-14 1.62688090e-12
5.24807460e+00 2.46395712e-12 1.34518114e-12 6.99494865e-16 1.11807648e-12 8.14219370e-15 1.34518114e-12
6.02559586e+00 1.91319594e-12 8.88752369e-13 2.84873688e-16 1.02415870e-12 4.63456000e-15 8.88752369e-13
6.70000000e+00 1.59019250e-12 6.46481889e-13 1.37511603e-16 9.43573102e-13 2.85486471e-15 6.46481889e-13
6.92422916e+00 1.50359867e-12 5.85688198e-13 1.10211570e-16 9.17800261e-13 2.44063014e-15 5.85688198e-13
7.15596261e+00 1.43115834e-12 5.30611407e-13 8.69029883e-17 9.00460034e-13 2.07624990e-15 5.30611407e-13
7.39545150e+00 1.38731408e-12 4.80713913e-13 6.83236420e-17 9.06531842e-13 1.76415809e-15 4.80713913e-13
7.64295536e+00 1.40949125e-12 4.35508666e-13 4.89953351e-17 9.73933585e-13 1.52999098e-15 4.35508666e-13
7.89874245e+00 1.53006060e-12 3.94554418e-13 3.29859491e-17 1.13547320e-12 1.33377483e-15 3.94554418e-13
8.16308998e+00 1.72915987e-12 3.57451415e-13 2.07501931e-17 1.37168770e-12 1.16722870e-15 3.57451415e-13
8.43628443e+00 2.00271454e-12 3.23837494e-13 1.24458959e-17 1.67886460e-12 9.49814801e-16 3.23837494e-13
8.71862190e+00 2.18456943e-12 2.93384550e-13 8.03846273e-18 1.89117684e-12 7.48194622e-16 2.93384550e-13
9.01040836e+00 2.36665258e-12 2.65795332e-13 4.35792095e-18 2.10085289e-12 5.05824660e-16 2.65795332e-13
9.31196005e+00 2.50484731e-12 2.40800541e-13 0.00000000e+00 2.26404677e-12 0.00000000e+00 2.40800541e-13
9.62360379e+00 2.45936372e-12 2.18156204e-13 0.00000000e+00 2.24120751e-12 0.00000000e+00 2.18156204e-13
9.94567731e+00 2.29629286e-12 1.97641289e-13 0.00000000e+00 2.09865157e-12 0.00000000e+00 1.97641289e-13
1.02785297e+01 2.09287302e-12 1.79055550e-13 0.00000000e+00 1.91381747e-12 0.00000000e+00 1.79055550e-13
1.06225216e+01 1.90719023e-12 1.62217572e-13 0.00000000e+00 1.74497266e-12 0.00000000e+00 1.62217572e-13
1.09780260e+01 1.69220935e-12 1.46962999e-13 0.00000000e+00 1.54524635e-12 0.00000000e+00 1.46962999e-13
1.13454280e+01 1.50907898e-12 1.33142932e-13 0.00000000e+00 1.37593605e-12 0.00000000e+00 1.33142932e-13
1.17251259e+01 1.35169846e-12 1.20622472e-13 0.00000000e+00 1.23107599e-12 0.00000000e+00 1.20622472e-13
1.21175312e+01 1.20682075e-12 1.09279408e-13 0.00000000e+00 1.09754134e-12 0.00000000e+00 1.09279408e-13
1.25230691e+01 1.07725695e-12 9.90030204e-14 0.00000000e+00 9.78253925e-13 0.00000000e+00 9.90030204e-14
1.29421791e+01 9.66604364e-13 8.96930008e-14 0.00000000e+00 8.76911363e-13 0.00000000e+00 8.96930008e-14
1.33753155e+01 8.71052802e-13 8.12584743e-14 0.00000000e+00 7.89794328e-13 0.00000000e+00 8.12584743e-14
1.38229477e+01 8.06568982e-13 7.36171115e-14 0.00000000e+00 7.32951871e-13 0.00000000e+00 7.36171115e-14
1.42855609e+01 7.67999156e-13 6.66943252e-14 0.00000000e+00 7.01304831e-13 0.00000000e+00 6.66943252e-14
1.47636563e+01 7.68216678e-13 6.04225420e-14 0.00000000e+00 7.07794136e-13 0.00000000e+00 6.04225420e-14
1.52577522e+01 7.79208263e-13 5.47405431e-14 0.00000000e+00 7.24467720e-13 0.00000000e+00 5.47405431e-14
1.57683840e+01 7.98821421e-13 4.95928665e-14 0.00000000e+00 7.49228554e-13 0.00000000e+00 4.95928665e-14
1.62961051e+01 8.17261012e-13 4.49292657e-14 0.00000000e+00 7.72331746e-13 0.00000000e+00 4.49292657e-14
1.68414875e+01 8.35101194e-13 4.07042194e-14 0.00000000e+00 7.94396975e-13 0.00000000e+00 4.07042194e-14
1.74051222e+01 8.42316244e-13 3.68764869e-14 0.00000000e+00 8.05439757e-13 0.00000000e+00 3.68764869e-14
1.79876201e+01 8.39763913e-13 3.34087056e-14 0.00000000e+00 8.06355208e-13 0.00000000e+00 3.34087056e-14
1.85896125e+01 8.23090020e-13 3.02670267e-14 0.00000000e+00 7.92822994e-13 0.00000000e+00 3.02670267e-14
1.92117518e+01 7.91762910e-13 2.74207841e-14 0.00000000e+00 7.64342126e-13 0.00000000e+00 2.74207841e-14
1.98547123e+01 7.53020295e-13 2.48421957e-14 0.00000000e+00 7.28178100e-13 0.00000000e+00 2.48421957e-14
2.05191907e+01 7.10997013e-13 2.25060919e-14 0.00000000e+00 6.88490921e-13 0.00000000e+00 2.25060919e-14
2.12059073e+01 6.72019111e-13 2.03896700e-14 0.00000000e+00 6.51629441e-13 0.00000000e+00 2.03896700e-14
2.19156062e+01 6.35672798e-13 1.84722717e-14 0.00000000e+00 6.17200526e-13 0.00000000e+00 1.84722717e-14
2.26490567e+01 6.02647200e-13 1.67351811e-14 0.00000000e+00 5.85912019e-13 0.00000000e+00 1.67351811e-14
2.34070535e+01 5.70029635e-13 1.51614426e-14 0.00000000e+00 5.54868193e-13 0.00000000e+00 1.51614426e-14
2.41904183e+01 5.41026937e-13 1.37356949e-14 0.00000000e+00 5.27291242e-13 0.00000000e+00 1.37356949e-14
2.50000000e+01 5.12242194e-13 1.24440213e-14 0.00000000e+00 4.99798173e-13 0.00000000e+00 1.24440213e-14
2.75422870e+01 4.34718292e-13 9.30637977e-15 0.00000000e+00 4.25411912e-13 0.00000000e+00 9.30637977e-15
3.16227766e+01 3.34458753e-13 6.14866414e-15 0.00000000e+00 3.28310089e-13 0.00000000e+00 6.14866414e-15
3.63078055e+01 2.44816074e-13 4.06238211e-15 0.00000000e+00 2.40753692e-13 0.00000000e+00 4.06238211e-15
4.16869383e+01 1.67658617e-13 2.68398924e-15 0.00000000e+00 1.64974628e-13 0.00000000e+00 2.68398924e-15
4.78630092e+01 1.07691814e-13 1.77329411e-15 0.00000000e+00 1.05918520e-13 0.00000000e+00 1.77329411e-15
5.49540874e+01 6.55988319e-14 1.17160380e-15 0.00000000e+00 6.44272281e-14 0.00000000e+00 1.17160380e-15
6.30957344e+01 3.84404498e-14 7.74070953e-16 0.00000000e+00 3.76663788e-14 0.00000000e+00 7.74070953e-16
7.24435960e+01 2.18839100e-14 5.11423607e-16 0.00000000e+00 2.13724864e-14 0.00000000e+00 5.11423607e-16
8.31763771e+01 1.21983366e-14 3.37894226e-16 0.00000000e+00 1.18604424e-14 0.00000000e+00 3.37894226e-16
9.54992586e+01 6.71178456e-15 2.23244502e-16 0.00000000e+00 6.48854005e-15 0.00000000e+00 2.23244502e-16
1.09647820e+02 3.65951056e-15 1.47496179e-16 0.00000000e+00 3.51201438e-15 0.00000000e+00 1.47496179e-16
1.25892541e+02 2.00571467e-15 9.74497594e-17 0.00000000e+00 1.90826491e-15 0.00000000e+00 9.74497594e-17
1.44543977e+02 1.09861125e-15 6.43844175e-17 0.00000000e+00 1.03422683e-15 0.00000000e+00 6.43844175e-17
1.65958691e+02 5.76856660e-16 4.25383628e-17 0.00000000e+00 5.34318297e-16 0.00000000e+00 4.25383628e-17
1.90546072e+02 3.05034974e-16 2.81048176e-17 0.00000000e+00 2.76930157e-16 0.00000000e+00 2.81048176e-17
2.18776162e+02 1.62119985e-16 1.85686688e-17 0.00000000e+00 1.43551316e-16 0.00000000e+00 1.85686688e-17
2.51188643e+02 8.65230711e-17 1.22681978e-17 0.00000000e+00 7.42548733e-17 0.00000000e+00 1.22681978e-17
2.88403150e+02 4.63762224e-17 8.10551794e-18 0.00000000e+00 3.82707045e-17 0.00000000e+00 8.10551794e-18
3.31131121e+02 2.50417591e-17 5.35526259e-18 0.00000000e+00 1.96864965e-17 0.00000000e+00 5.35526259e-18
3.80189396e+02 1.36326372e-17 3.53818691e-18 0.00000000e+00 1.00944503e-17 0.00000000e+00 3.53818691e-18
4.36515832e+02 7.50354960e-18 2.33765691e-18 0.00000000e+00 5.16589269e-18 0.00000000e+00 2.33765691e-18
5.01187234e+02 4.18202020e-18 1.54447460e-18 0.00000000e+00 2.63754560e-18 0.00000000e+00 1.54447460e-18
5.75439937e+02 2.36451885e-18 1.02042425e-18 0.00000000e+00 1.34409460e-18 0.00000000e+00 1.02042425e-18
6.60693448e+02 1.35799981e-18 6.74187617e-19 0.00000000e+00 6.83812198e-19 0.00000000e+00 6.74187617e-19
7.58577575e+02 7.92814287e-19 4.45431341e-19 0.00000000e+00 3.47382946e-19 0.00000000e+00 4.45431341e-19
8.70963590e+02 4.70496810e-19 2.94293569e-19 0.00000000e+00 1.76203241e-19 0.00000000e+00 2.94293569e-19
1.00000000e+03 8.92446736e-20 0.00000000e+00 0.00000000e+00 8.92446736e-20 0.00000000e+00 0.00000000e+00
