# column 1: lambda (micron)
# column 2: total flux; lambda*F_lambda (W/m2)
# column 3: direct stellar flux; lambda*F_lambda (W/m2)
# column 4: scattered stellar flux; lambda*F_lambda (W/m2)
# column 5: total dust emission flux; lambda*F_lambda (W/m2)
# column 6: dust emission scattered flux; lambda*F_lambda (W/m2)
# column 7: transparent flux; lambda*F_lambda (W/m2)
1.00000000e-03 6.93995903e-13 6.93993746e-13 2.15691972e-18 0.00000000e+00 0.00000000e+00 6.93993746e-13
1.14815362e-03 8.19138465e-13 8.19135139e-13 3.32564942e-18 0.00000000e+00 0.00000000e+00 8.19135139e-13
1.31825674e-03 9.66846980e-13 9.66842108e-13 4.87221599e-18 0.00000000e+00 0.00000000e+00 9.66842108e-13
1.51356125e-03 1.14119150e-12 1.14118369e-12 7.80782505e-18 0.00000000e+00 0.00000000e+00 1.14118369e-12
1.73780083e-03 1.34697802e-12 1.34696266e-12 1.53552950e-17 0.00000000e+00 0.00000000e+00 1.34696266e-12
1.99526231e-03 1.58987190e-12 1.58984782e-12 2.40757205e-17 0.00000000e+00 0.00000000e+00 1.58984782e-12
2.29086765e-03 1.87656729e-12 1.87653019e-12 3.71008640e-17 0.00000000e+00 0.00000000e+00 1.87653019e-12
2.63026799e-03 2.21498212e-12 2.21490731e-12 7.48064250e-17 0.00000000e+00 0.00000000e+00 2.21490731e-12
3.01995172e-03 2.61442558e-12 2.61430080e-12 1.24773940e-16 0.00000000e+00 0.00000000e+00 2.61430080e-12
3.46736850e-03 3.08590763e-12 3.08571319e-12 1.94447212e-16 0.00000000e+00 0.00000000e+00 3.08571319e-12
3.98107171e-03 3.64244108e-12 3.64213095e-12 3.10129178e-16 0.00000000e+00 0.00000000e+00 3.64213095e-12
4.57088190e-03 4.29961698e-12 4.29888232e-12 7.34663386e-16 0.00000000e+00 0.00000000e+00 4.29888232e-12
5.24807460e-03 5.07532757e-12 5.07405951e-12 1.26806230e-15 0.00000000e+00 0.00000000e+00 5.07405951e-12
6.02559586e-03 5.99127523e-12 5.98901715e-12 2.25807861e-15 0.00000000e+00 0.00000000e+00 5.98901715e-12
6.91830971e-03 7.07234384e-12 7.06896053e-12 3.38331169e-15 0.00000000e+00 0.00000000e+00 7.06896053e-12
7.94328235e-03 8.34943137e-12 8.34363998e-12 5.79138695e-15 0.00000000e+00 0.00000000e+00 8.34363998e-12
9.12010839e-03 9.85778667e-12 9.84817045e-12 9.61622102e-15 0.00000000e+00 0.00000000e+00 9.84817045e-12
1.04712855e-02 1.10116420e-11 1.09990604e-11 1.25815262e-14 0.00000000e+00 0.00000000e+00 1.09990604e-11
1.20226443e-02 1.10230197e-11 1.09990604e-11 2.39592570e-14 0.00000000e+00 0.00000000e+00 1.09990604e-11
1.38038426e-02 1.10286003e-11 1.09990604e-11 2.95398936e-14 1.68220384e-289 1.23296261e-290 1.09990604e-11
1.58489319e-02 1.10403750e-11 1.09990604e-11 4.13145743e-14 9.95479873e-253 7.82234354e-254 1.09990604e-11
1.81970086e-02 1.10513842e-11 1.09990604e-11 5.23237858e-14 1.00422516e-220 8.04035683e-222 1.09990604e-11
2.08929613e-02 1.10755250e-11 1.09990604e-11 7.64645227e-14 6.83579338e-193 6.74871849e-194 1.09990604e-11
2.39883292e-02 1.10945278e-11 1.09990604e-11 9.54673752e-14 1.10289572e-168 8.50800552e-170 1.09990604e-11
2.75422870e-02 1.11092402e-11 1.09990604e-11 1.10179785e-13 1.33127741e-147 1.18578880e-148 1.09990604e-11
3.16227766e-02 1.11379685e-11 1.09990604e-11 1.38908094e-13 2.85350270e-129 2.51648917e-130 1.09990604e-11
3.63078055e-02 1.11508654e-11 1.09990604e-11 1.51804986e-13 2.47878219e-113 2.19614265e-114 1.09990604e-11
4.16869383e-02 1.11876485e-11 1.09990604e-11 1.88588045e-13 1.79790347e-99 1.79245282e-100 1.09990604e-11
4.78630092e-02 1.12192187e-11 1.09990604e-11 2.20158285e-13 1.96983258e-87 2.17888348e-88 1.09990604e-11
5.49540874e-02 1.12389519e-11 1.09990604e-11 2.39891428e-13 5.64791738e-77 6.67987090e-78 1.09990604e-11
6.30957344e-02 1.12457862e-11 1.09990604e-11 2.46725780e-13 8.92047092e-68 1.09498985e-68 1.09990604e-11
7.24435960e-02 1.12104616e-11 1.09990604e-11 2.11401177e-13 8.31053162e-60 9.45279354e-61 1.09990604e-11
8.31763771e-02 1.12040602e-11 1.09990604e-11 2.04999787e-13 5.57001628e-53 6.28702519e-54 1.09990604e-11
9.54992586e-02 1.12105073e-11 1.09990604e-11 2.11446870e-13 4.55849321e-47 5.36634952e-48 1.09990604e-11
1.09647820e-01 1.07353244e-11 1.05040253e-11 2.31299057e-13 5.56411212e-42 7.15263214e-43 1.05040253e-11
1.25892541e-01 1.00244239e-11 9.80292679e-12 2.21497078e-13 1.40583819e-37 1.87371476e-38 9.80292679e-12
1.44543977e-01 9.36181014e-12 9.14862359e-12 2.13186553e-13 8.59118873e-34 1.13742252e-34 9.14862359e-12
1.65958691e-01 8.76002387e-12 8.53799231e-12 2.22031554e-13 1.24517744e-30 1.82641371e-31 8.53799231e-12
1.90546072e-01 8.20291684e-12 7.96811805e-12 2.34798790e-13 5.01253372e-28 8.74142317e-29 7.96811805e-12
2.18776162e-01 7.64213935e-12 7.43628044e-12 2.05858918e-13 7.78378335e-26 1.42557485e-26 7.43628044e-12
2.51188643e-01 7.18838271e-12 6.93994070e-12 2.48442009e-13 1.02211716e-23 2.33375502e-24 6.93994070e-12
2.88403150e-01 6.71603716e-12 6.47672950e-12 2.39307659e-13 7.01344185e-22 1.66157815e-22 6.47672950e-12
3.31131121e-01 6.25821766e-12 6.04443567e-12 2.13781966e-13 2.63222968e-20 6.33402817e-21 6.04443567e-12
3.80189396e-01 5.84291538e-12 5.64099558e-12 2.01919202e-13 5.94830282e-19 1.44649671e-19 5.64099558e-12
4.36515832e-01 5.45345094e-12 5.26448339e-12 1.88958920e-13 8.63870234e-18 2.13651047e-18 5.26448339e-12
5.01187234e-01 5.09173502e-12 4.91310176e-12 1.78548753e-13 8.45008078e-17 2.11728573e-17 4.91310176e-12
5.75439937e-01 4.75290535e-12 4.58517335e-12 1.67147974e-13 5.84025861e-16 1.45518338e-16 4.58517335e-12
6.60693448e-01 4.43621228e-12 4.27913275e-12 1.54081575e-13 2.99795465e-15 7.48568806e-16 4.27913275e-12
7.58577575e-01 4.14564462e-12 3.99351904e-12 1.40041884e-13 1.20836986e-14 2.95459765e-15 3.99351904e-12
8.70963590e-01 3.89225633e-12 3.72696882e-12 1.26006476e-13 3.92810360e-14 9.32150334e-15 3.72696882e-12
1.00000000e+00 3.69420763e-12 3.47820968e-12 1.10144935e-13 1.05853018e-13 2.37071845e-14 3.47820968e-12
1.14815362e+00 3.58901081e-12 3.24605414e-12 9.47425238e-14 2.48214139e-13 5.13167928e-14 3.24605414e-12
1.31825674e+00 3.62278971e-12 3.02939399e-12 7.83231722e-14 5.15072544e-13 9.60011505e-14 3.02939399e-12
1.51356125e+00 3.83351937e-12 2.82719497e-12 6.33824457e-14 9.42941952e-13 1.53262367e-13 2.82719497e-12
1.73780083e+00 4.21771780e-12 2.63849186e-12 4.96862527e-14 1.52953968e-12 2.12086532e-13 2.63849186e-12
1.99526231e+00 4.70423954e-12 2.46238388e-12 3.81931790e-14 2.20366248e-12 2.49700264e-13 2.46238388e-12
2.29086765e+00 5.17530610e-12 2.29803035e-12 2.77179534e-14 2.84955780e-12 2.49809115e-13 2.29803035e-12
2.63026799e+00 5.53664167e-12 2.14464670e-12 1.87451451e-14 3.37324982e-12 2.16313368e-13 2.14464670e-12
3.01995172e+00 5.69797545e-12 2.00150076e-12 1.21104690e-14 3.68436422e-12 1.65640485e-13 2.00150076e-12
3.46736850e+00 5.65286336e-12 1.86790919e-12 7.35016883e-15 3.77760400e-12 1.14250009e-13 1.86790919e-12
3.98107171e+00 5.41237197e-12 1.74323429e-12 4.49722037e-15 3.66464047e-12 7.15416109e-14 1.74323429e-12
4.57088190e+00 5.03293974e-12 1.62688090e-12 2.61169690e-15 3.40344715e-12 4.19901722e-14 1.62688090e-12
5.24807460e+00 4.40981640e-12 1.34518114e-12 1.31889051e-15 3.06331636e-12 2.32025871e-14 1.34518114e-12
6.02559586e+00 3.60289209e-12 8.88752369e-13 5.21818071e-16 2.71361790e-12 1.21531281e-14 8.88752369e-13
6.70000000e+00 3.09327979e-12 6.46481889e-13 2.49403833e-16 2.44654850e-12 7.08144814e-15 6.46481889e-13
6.92422916e+00 2.94945608e-12 5.85688198e-13 1.95090252e-16 2.36357279e-12 5.93213478e-15 5.85688198e-13
7.15596261e+00 2.84105622e-12 5.30611407e-13 1.55482859e-16 2.31028933e-12 4.97857779e-15 5.30611407e-13
7.39545150e+00 2.79682756e-12 4.80713913e-13 1.18229857e-16 2.31599542e-12 4.20586510e-15 4.80713913e-13
7.64295536e+00 2.93042019e-12 4.35508666e-13 8.81255657e-17 2.49482340e-12 3.70970764e-15 4.35508666e-13
7.89874245e+00 3.32560309e-12 3.94554418e-13 6.16086196e-17 2.93098706e-12 3.38570050e-15 3.94554418e-13
8.16308998e+00 3.90607211e-12 3.57451415e-13 4.03017046e-17 3.54858039e-12 3.09484469e-15 3.57451415e-13
8.43628443e+00 4.68556482e-12 3.23837494e-13 2.40730750e-17 4.36170325e-12 2.62020970e-15 3.23837494e-13
8.71862190e+00 5.18625318e-12 2.93384550e-13 1.31575496e-17 4.89285547e-12 1.98494869e-15 2.93384550e-13
9.01040836e+00 5.67446009e-12 2.65795332e-13 4.52974278e-18 5.40866022e-12 1.08689833e-15 2.65795332e-13
9.31196005e+00 6.01636589e-12 2.40800541e-13 0.00000000e+00 5.77556535e-12 0.00000000e+00 2.40800541e-13
9.62360379e+00 5.93053842e-12 2.18156204e-13 0.00000000e+00 5.71238222e-12 0.00000000e+00 2.18156204e-13
9.94567731e+00 5.52538611e-12 1.97641289e-13 0.00000000e+00 5.32774482e-12 0.00000000e+00 1.97641289e-13
1.02785297e+01 5.04441302e-12 1.79055550e-13 0.00000000e+00 4.86535747e-12 0.00000000e+00 1.79055550e-13
1.06225216e+01 4.57450275e-12 1.62217572e-13 0.00000000e+00 4.41228518e-12 0.00000000e+00 1.62217572e-13
1.09780260e+01 4.04681033e-12 1.46962999e-13 0.00000000e+00 3.89984733e-12 0.00000000e+00 1.46962999e-13
1.13454280e+01 3.59661309e-12 1.33142932e-13 0.00000000e+00 3.46347016e-12 0.00000000e+00 1.33142932e-13
1.17251259e+01 3.20830925e-12 1.20622472e-13 0.00000000e+00 3.08768678e-12 0.00000000e+00 1.20622472e-13
1.21175312e+01 2.84326084e-12 1.09279408e-13 0.00000000e+00 2.73398143e-12 0.00000000e+00 1.09279408e-13
1.25230691e+01 2.51752553e-12 9.90030204e-14 0.00000000e+00 2.41852251e-12 0.00000000e+00 9.90030204e-14
1.29421791e+01 2.24239516e-12 8.96930008e-14 0.00000000e+00 2.15270216e-12 0.00000000e+00 8.96930008e-14
1.33753155e+01 2.00621762e-12 8.12584743e-14 0.00000000e+00 1.92495914e-12 0.00000000e+00 8.12584743e-14
1.38229477e+01 1.85285950e-12 7.36171115e-14 0.00000000e+00 1.77924239e-12 0.00000000e+00 7.36171115e-14
1.42855609e+01 1.76169460e-12 6.66943252e-14 0.00000000e+00 1.69500027e-12 0.00000000e+00 6.66943252e-14
1.47636563e+01 1.77360507e-12 6.04225420e-14 0.00000000e+00 1.71318253e-12 0.00000000e+00 6.04225420e-14
1.52577522e+01 1.81234623e-12 5.47405431e-14 0.00000000e+00 1.75760569e-12 0.00000000e+00 5.47405431e-14
1.57683840e+01 1.86791739e-12 4.95928665e-14 0.00000000e+00 1.81832452e-12 0.00000000e+00 4.95928665e-14
1.62961051e+01 1.92735268e-12 4.49292657e-14 0.00000000e+00 1.88242342e-12 0.00000000e+00 4.49292657e-14
1.68414875e+01 1.98565997e-12 4.07042194e-14 0.00000000e+00 1.94495575e-12 0.00000000e+00 4.07042194e-14
1.74051222e+01 2.01147768e-12 3.68764869e-14 0.00000000e+00 1.97460120e-12 0.00000000e+00 3.68764869e-14
1.79876201e+01 2.01651375e-12 3.34087056e-14 0.00000000e+00 1.98310505e-12 0.00000000e+00 3.34087056e-14
1.85896125e+01 1.98394750e-12 3.02670267e-14 0.00000000e+00 1.95368048e-12 0.00000000e+00 3.02670267e-14
1.92117518e+01 1.91192967e-12 2.74207841e-14 0.00000000e+00 1.88450888e-12 0.00000000e+00 2.74207841e-14
1.98547123e+01 1.82111639e-12 2.48421957e-14 0.00000000e+00 1.79627420e-12 0.00000000e+00 2.48421957e-14
2.05191907e+01 1.71893404e-12 2.25060919e-14 0.00000000e+00 1.69642794e-12 0.00000000e+00 2.25060919e-14
2.12059073e+01 1.62237617e-12 2.03896700e-14 0.00000000e+00 1.60198650e-12 0.00000000e+00 2.03896700e-14
2.19156062e+01 1.53705680e-12 1.84722717e-14 0.00000000e+00 1.51858453e-12 0.00000000e+00 1.84722717e-14
2.26490567e+01 1.45814997e-12 1.67351811e-14 0.00000000e+00 1.44141479e-12 0.00000000e+00 1.67351811e-14
2.34070535e+01 1.38327723e-12 1.51614426e-14 0.00000000e+00 1.36811579e-12 0.00000000e+00 1.51614426e-14
2.41904183e+01 1.31413005e-12 1.37356949e-14 0.00000000e+00 1.30039435e-12 0.00000000e+00 1.37356949e-14
2.50000000e+01 1.24785141e-12 1.24440213e-14 0.00000000e+00 1.23540739e-12 0.00000000e+00 1.24440213e-14
2.75422870e+01 1.06736970e-12 9.30637977e-15 0.00000000e+00 1.05806332e-12 0.00000000e+00 9.30637977e-15
3.16227766e+01 8.34457658e-13 6.14866414e-15 0.00000000e+00 8.28308994e-13 0.00000000e+00 6.14866414e-15
3.63078055e+01 6.19454547e-13 4.06238211e-15 0.00000000e+00 6.15392165e-13 0.00000000e+00 4.06238211e-15
4.16869383e+01 4.29839780e-13 2.68398924e-15 0.00000000e+00 4.27155791e-13 0.00000000e+00 2.68398924e-15
4.78630092e+01 2.79351355e-13 1.77329411e-15 0.00000000e+00 2.77578061e-13 0.00000000e+00 1.77329411e-15
5.49540874e+01 1.72242898e-13 1.17160380e-15 0.00000000e+00 1.71071294e-13 0.00000000e+00 1.17160380e-15
6.30957344e+01 1.02096949e-13 7.74070953e-16 0.00000000e+00 1.01322878e-13 0.00000000e+00 7.74070953e-16
7.24435960e+01 5.87125303e-14 5.11423607e-16 0.00000000e+00 5.82011067e-14 0.00000000e+00 5.11423607e-16
8.31763771e+01 3.30400205e-14 3.37894226e-16 0.00000000e+00 3.27021263e-14 0.00000000e+00 3.37894226e-16
9.54992586e+01 1.83220863e-14 2.23244502e-16 0.00000000e+00 1.80988418e-14 0.00000000e+00 2.23244502e-16
1.09647820e+02 1.00504123e-14 1.47496179e-16 0.00000000e+00 9.90291609e-15 0.00000000e+00 1.47496179e-16
1.25892541e+02 5.53231414e-15 9.74497594e-17 0.00000000e+00 5.43486438e-15 0.00000000e+00 9.74497594e-17
1.44543977e+02 3.03639444e-15 6.43844175e-17 0.00000000e+00 2.97201003e-15 0.00000000e+00 6.43844175e-17
1.65958691e+02 1.58974048e-15 4.25383628e-17 0.00000000e+00 1.54720212e-15 0.00000000e+00 4.25383628e-17
1.90546072e+02 8.35520029e-16 2.81048176e-17 0.00000000e+00 8.07415211e-16 0.00000000e+00 2.81048176e-17
2.18776162e+02 4.39664583e-16 1.85686688e-17 0.00000000e+00 4.21095914e-16 0.00000000e+00 1.85686688e-17
2.51188643e+02 2.31259839e-16 1.22681978e-17 0.00000000e+00 2.18991641e-16 0.00000000e+00 1.22681978e-17
2.88403150e+02 1.21504632e-16 8.10551794e-18 0.00000000e+00 1.13399114e-16 0.00000000e+00 8.10551794e-18
3.31131121e+02 6.39283476e-17 5.35526259e-18 0.00000000e+00 5.85730850e-17 0.00000000e+00 5.35526259e-18
3.80189396e+02 3.36801923e-17 3.53818691e-18 0.00000000e+00 3.01420054e-17 0.00000000e+00 3.53818691e-18
4.36515832e+02 1.78113523e-17 2.33765691e-18 0.00000000e+00 1.54736954e-17 0.00000000e+00 2.33765691e-18
5.01187234e+02 9.46647527e-18 1.54447460e-18 0.00000000e+00 7.92200067e-18 0.00000000e+00 1.54447460e-18
5.75439937e+02 5.06710800e-18 1.02042425e-18 0.00000000e+00 4.04668375e-18 0.00000000e+00 1.02042425e-18
6.60693448e+02 2.73722545e-18 6.74187617e-19 0.00000000e+00 2.06303783e-18 0.00000000e+00 6.74187617e-19
7.58577575e+02 1.49536784e-18 4.45431341e-19 0.00000000e+00 1.04993650e-18 0.00000000e+00 4.45431341e-19
8.70963590e+02 8.27691378e-19 2.94293569e-19 0.00000000e+00 5.33397810e-19 0.00000000e+00 2.94293569e-19
1.00000000e+03 2.70529039e-19 0.00000000e+00 0.00000000e+00 2.70529039e-19 0.00000000e+00 0.00000000e+00
