# column 1: lambda (micron)
# column 2: total flux; lambda*F_lambda (W/m2)
# column 3: direct stellar flux; lambda*F_lambda (W/m2)
# column 4: scattered stellar flux; lambda*F_lambda (W/m2)
# column 5: total dust emission flux; lambda*F_lambda (W/m2)
# column 6: dust emission scattered flux; lambda*F_lambda (W/m2)
# column 7: transparent flux; lambda*F_lambda (W/m2)
1.00000000e-03 5.25015122e-13 5.24901045e-13 1.14077016e-16 0.00000000e+00 0.00000000e+00 5.25636674e-13
1.14815362e-03 6.19279828e-13 6.19272938e-13 6.89027588e-18 0.00000000e+00 0.00000000e+00 6.20419813e-13
1.31825674e-03 7.30670453e-13 7.30573649e-13 9.68042268e-17 0.00000000e+00 0.00000000e+00 7.32294308e-13
1.51356125e-03 8.61966088e-13 8.61948183e-13 1.79043794e-17 0.00000000e+00 0.00000000e+00 8.64342083e-13
1.73780083e-03 1.01738526e-12 1.01734607e-12 3.91964184e-17 0.00000000e+00 0.00000000e+00 1.02020080e-12
1.99526231e-03 1.19994321e-12 1.19969871e-12 2.44502130e-16 0.00000000e+00 0.00000000e+00 1.20416405e-12
2.29086765e-03 1.41668762e-12 1.41571130e-12 9.76316844e-16 0.00000000e+00 0.00000000e+00 1.42129968e-12
2.63026799e-03 1.67036458e-12 1.66968798e-12 6.76600302e-16 0.00000000e+00 0.00000000e+00 1.67758934e-12
3.01995172e-03 1.97173296e-12 1.96856535e-12 3.16761072e-15 0.00000000e+00 0.00000000e+00 1.98009332e-12
3.46736850e-03 2.39069055e-12 2.32111554e-12 6.95750055e-14 0.00000000e+00 0.00000000e+00 2.33714500e-12
3.98107171e-03 2.74759312e-12 2.73693435e-12 1.06587746e-14 0.00000000e+00 0.00000000e+00 2.75858048e-12
4.57088190e-03 3.25244483e-12 3.23894450e-12 1.35003267e-14 0.00000000e+00 0.00000000e+00 3.25600946e-12
5.24807460e-03 3.83636760e-12 3.81742759e-12 1.89400042e-14 0.00000000e+00 0.00000000e+00 3.84313516e-12
6.02559586e-03 4.55150855e-12 4.49957072e-12 5.19378219e-14 0.00000000e+00 0.00000000e+00 4.53613173e-12
6.91830971e-03 5.32701880e-12 5.30431577e-12 2.27030287e-14 0.00000000e+00 0.00000000e+00 5.35408989e-12
7.94328235e-03 6.30700155e-12 6.25403365e-12 5.29678967e-14 1.04775147e-303 1.72849634e-305 6.31954278e-12
9.12010839e-03 7.48733537e-12 7.37333189e-12 1.14003475e-13 6.81401776e-265 2.61986067e-266 7.45908676e-12
1.04712855e-02 8.39545192e-12 8.22892519e-12 1.66526721e-13 3.91165205e-231 8.25169323e-233 8.33078048e-12
1.20226443e-02 8.37480401e-12 8.22295296e-12 1.51851052e-13 8.45533105e-202 5.12239162e-203 8.33078048e-12
1.38038426e-02 8.40166587e-12 8.21587485e-12 1.85791020e-13 2.91139258e-176 1.46166029e-177 8.33078048e-12
1.58489319e-02 8.35687539e-12 8.20718475e-12 1.49690640e-13 4.76380246e-154 1.52631161e-155 8.33078048e-12
1.81970086e-02 8.38034276e-12 8.19917783e-12 1.81164931e-13 1.02804549e-134 3.95396035e-136 8.33078048e-12
2.08929613e-02 8.36073559e-12 8.19252830e-12 1.68207286e-13 6.30443590e-118 2.36888477e-119 8.33078048e-12
2.39883292e-02 8.36651200e-12 8.18392077e-12 1.82591231e-13 2.55938922e-103 1.18421017e-104 8.33078048e-12
2.75422870e-02 8.36803836e-12 8.17392009e-12 1.94118274e-13 1.29402081e-90 6.31137926e-92 8.33078048e-12
3.16227766e-02 8.37374146e-12 8.16412912e-12 2.09612347e-13 1.40131679e-79 7.26238242e-81 8.33078048e-12
3.63078055e-02 8.37049009e-12 8.15645777e-12 2.14032321e-13 5.35218766e-70 2.94954576e-71 8.33078048e-12
4.16869383e-02 8.37800733e-12 8.14982844e-12 2.28178889e-13 1.10537911e-61 7.10985136e-63 8.33078048e-12
4.78630092e-02 8.37839823e-12 8.13158275e-12 2.46815481e-13 1.78607282e-54 1.26012057e-55 8.33078048e-12
5.49540874e-02 8.35999865e-12 8.10627653e-12 2.53722112e-13 3.15890887e-48 2.51380709e-49 8.33078048e-12
6.30957344e-02 8.31822564e-12 8.04316699e-12 2.75058648e-13 1.06916579e-42 9.43768357e-44 8.33078048e-12
7.24435960e-02 8.23425992e-12 7.96904832e-12 2.65211603e-13 6.35379279e-38 5.22947022e-39 8.33078048e-12
8.31763771e-02 8.22861426e-12 7.97561602e-12 2.52998240e-13 6.75704194e-34 5.45628249e-35 8.33078048e-12
9.54992586e-02 8.23929439e-12 7.99490995e-12 2.44384441e-13 1.98646451e-30 1.62181040e-31 8.33078048e-12
1.09647820e-01 7.92837483e-12 7.68844666e-12 2.39928163e-13 1.75930884e-27 1.54282075e-28 7.95583672e-12
1.25892541e-01 7.44403231e-12 7.21878808e-12 2.25244227e-13 5.91732536e-25 5.19312105e-26 7.42481883e-12
1.44543977e-01 6.96076456e-12 6.76949042e-12 1.91274135e-13 8.31557169e-23 7.05919216e-24 6.92924411e-12
1.65958691e-01 6.51789522e-12 6.33616931e-12 1.81725906e-13 4.34458571e-21 4.09711698e-22 6.46674687e-12
1.90546072e-01 6.09002171e-12 5.90519913e-12 1.84822494e-13 9.31579849e-20 9.95686625e-21 6.03511933e-12
2.18776162e-01 5.66694796e-12 5.49033935e-12 1.76607498e-13 1.11374550e-18 1.22493766e-19 5.63230107e-12
2.51188643e-01 5.32805476e-12 5.15014443e-12 1.77896366e-13 1.39588229e-17 1.85285752e-18 5.25636919e-12
2.88403150e-01 4.98155322e-12 4.82308129e-12 1.58353358e-13 1.18581232e-16 1.56077925e-17 4.90552916e-12
3.31131121e-01 4.64978577e-12 4.51095892e-12 1.38138463e-13 6.88388656e-16 8.85731569e-17 4.57810618e-12
3.80189396e-01 4.34509702e-12 4.21745797e-12 1.24731214e-13 2.90783294e-15 3.64079378e-16 4.27253728e-12
4.36515832e-01 4.06183981e-12 3.94258943e-12 1.09918651e-13 9.33172243e-15 1.16529662e-15 3.98736380e-12
5.01187234e-01 3.80608003e-12 3.68532097e-12 9.72181446e-14 2.35409126e-14 2.88374459e-15 3.72122441e-12
5.75439937e-01 3.57676480e-12 3.44435738e-12 8.34530998e-14 4.89543247e-14 5.96541571e-15 3.47284869e-12
6.60693448e-01 3.37892185e-12 3.21863881e-12 7.37824200e-14 8.65006158e-14 1.03007417e-14 3.24105097e-12
7.58577575e-01 3.20668631e-12 3.00731001e-12 6.39648281e-14 1.35411472e-13 1.55590499e-14 3.02472476e-12
8.70963590e-01 3.05620586e-12 2.80960606e-12 5.32839017e-14 1.93315899e-13 2.13387759e-14 2.82283739e-12
1.00000000e+00 2.92663344e-12 2.62453529e-12 4.41083727e-14 2.57989775e-13 2.76192834e-14 2.63442513e-12
1.14815362e+00 2.82263241e-12 2.45132816e-12 3.65002248e-14 3.34804032e-13 3.34170990e-14 2.45858859e-12
1.31825674e+00 2.75210069e-12 2.28925121e-12 2.85758210e-14 4.34273662e-13 4.02495570e-14 2.29448837e-12
1.51356125e+00 2.72924014e-12 2.13760182e-12 2.22633078e-14 5.69375018e-13 4.85801150e-14 2.14134114e-12
1.73780083e+00 2.75106137e-12 1.99578950e-12 1.72424741e-14 7.38029394e-13 5.51084553e-14 1.99841583e-12
1.99526231e+00 2.80359983e-12 1.86321458e-12 1.28779104e-14 9.27507338e-13 5.83806165e-14 1.86503017e-12
2.29086765e+00 2.85939583e-12 1.73929625e-12 9.57151140e-15 1.11052807e-12 5.66965756e-14 1.74054743e-12
2.63026799e+00 2.88864792e-12 1.62350309e-12 6.74087515e-15 1.25840395e-12 5.15933295e-14 1.62437337e-12
3.01995172e+00 2.86797884e-12 1.51534033e-12 4.70047931e-15 1.34793803e-12 4.30937058e-14 1.51595343e-12
3.46736850e+00 2.80475496e-12 1.41433109e-12 3.23185267e-15 1.38719202e-12 3.39084299e-14 1.41477006e-12
3.98107171e+00 2.69056094e-12 1.32002194e-12 2.12250174e-15 1.36841650e-12 2.43831247e-14 1.32034025e-12
4.57088190e+00 2.54643169e-12 1.23197925e-12 1.37051967e-15 1.31308191e-12 1.65709469e-14 1.23221321e-12
5.24807460e+00 2.24999816e-12 1.01869606e-12 7.47620934e-16 1.23055449e-12 1.05893233e-14 1.01885146e-12
6.02559586e+00 1.81296958e-12 6.73063162e-13 3.09172199e-16 1.13959725e-12 6.28331971e-15 6.73148485e-13
6.70000000e+00 1.54991297e-12 4.89595860e-13 1.48625259e-16 1.06016848e-12 4.04115834e-15 4.89650796e-13
6.92422916e+00 1.47873716e-12 4.43557119e-13 1.19840716e-16 1.03506020e-12 3.44923042e-15 4.43605145e-13
7.15596261e+00 1.41811343e-12 4.01846773e-13 9.47083181e-17 1.01617195e-12 2.96726092e-15 4.01889522e-13
7.39545150e+00 1.38430787e-12 3.64057089e-13 7.39357924e-17 1.02017684e-12 2.51689060e-15 3.64096743e-13
7.64295536e+00 1.41413899e-12 3.29816978e-13 5.24915956e-17 1.08426952e-12 2.14841278e-15 3.29857910e-13
7.89874245e+00 1.54007677e-12 2.98790909e-13 3.45418512e-17 1.24125132e-12 1.80790630e-15 2.98838820e-13
8.16308998e+00 1.73305919e-12 2.70678087e-13 2.16421430e-17 1.46235946e-12 1.50433163e-15 2.70736695e-13
8.43628443e+00 2.00010532e-12 2.45203465e-13 1.22860516e-17 1.75488957e-12 1.18901022e-15 2.45277229e-13
8.71862190e+00 2.16218785e-12 2.22129804e-13 7.92126148e-18 1.94005012e-12 9.14121552e-16 2.22211915e-13
9.01040836e+00 2.32995996e-12 2.01225497e-13 4.47824609e-18 2.12872999e-12 6.49978638e-16 2.01315610e-13
9.31196005e+00 2.44530310e-12 1.82289662e-13 0.00000000e+00 2.26301344e-12 0.00000000e+00 1.82384346e-13
9.62360379e+00 2.40453595e-12 1.65145296e-13 0.00000000e+00 2.23939065e-12 0.00000000e+00 1.65233336e-13
9.94567731e+00 2.24774983e-12 1.49620326e-13 0.00000000e+00 2.09812951e-12 0.00000000e+00 1.49695167e-13
1.02785297e+01 2.06943859e-12 1.35556833e-13 0.00000000e+00 1.93388176e-12 0.00000000e+00 1.35618173e-13
1.06225216e+01 1.89208254e-12 1.22815212e-13 0.00000000e+00 1.76926732e-12 0.00000000e+00 1.22864947e-13
1.09780260e+01 1.69472300e-12 1.11272134e-13 0.00000000e+00 1.58345087e-12 0.00000000e+00 1.11311006e-13
1.13454280e+01 1.52742436e-12 1.00813068e-13 0.00000000e+00 1.42661130e-12 0.00000000e+00 1.00843571e-13
1.17251259e+01 1.38253631e-12 9.13363805e-14 0.00000000e+00 1.29119993e-12 0.00000000e+00 9.13604705e-14
1.21175312e+01 1.24886275e-12 8.27502113e-14 0.00000000e+00 1.16611254e-12 0.00000000e+00 8.27691389e-14
1.25230691e+01 1.12354358e-12 7.49708858e-14 0.00000000e+00 1.04857270e-12 0.00000000e+00 7.49857166e-14
1.29421791e+01 1.01671029e-12 6.79225277e-14 0.00000000e+00 9.48787761e-13 0.00000000e+00 6.79342298e-14
1.33753155e+01 9.22212825e-13 6.15365494e-14 0.00000000e+00 8.60676275e-13 0.00000000e+00 6.15458488e-14
1.38229477e+01 8.58090534e-13 5.57504857e-14 0.00000000e+00 8.02340049e-13 0.00000000e+00 5.57582167e-14
1.42855609e+01 8.16725860e-13 5.05081211e-14 0.00000000e+00 7.66217739e-13 0.00000000e+00 5.05148403e-14
1.47636563e+01 8.15825008e-13 4.57581622e-14 0.00000000e+00 7.70066846e-13 0.00000000e+00 4.57645392e-14
1.52577522e+01 8.22780740e-13 4.14547840e-14 0.00000000e+00 7.81325956e-13 0.00000000e+00 4.14609457e-14
1.57683840e+01 8.35671943e-13 3.75560224e-14 0.00000000e+00 7.98115921e-13 0.00000000e+00 3.75620523e-14
1.62961051e+01 8.47857847e-13 3.40239081e-14 0.00000000e+00 8.13833938e-13 0.00000000e+00 3.40298020e-14
1.68414875e+01 8.61969736e-13 3.08239685e-14 0.00000000e+00 8.31145767e-13 0.00000000e+00 3.08297166e-14
1.74051222e+01 8.63673295e-13 2.79251014e-14 0.00000000e+00 8.35748194e-13 0.00000000e+00 2.79305599e-14
1.79876201e+01 8.54114881e-13 2.52989368e-14 0.00000000e+00 8.28815944e-13 0.00000000e+00 2.53040334e-14
1.85896125e+01 8.34344077e-13 2.29198881e-14 0.00000000e+00 8.11424189e-13 0.00000000e+00 2.29244994e-14
1.92117518e+01 7.99870121e-13 2.07646810e-14 0.00000000e+00 7.79105440e-13 0.00000000e+00 2.07687314e-14
1.98547123e+01 7.59302690e-13 1.88121986e-14 0.00000000e+00 7.40490492e-13 0.00000000e+00 1.88156870e-14
2.05191907e+01 7.15475440e-13 1.70433285e-14 0.00000000e+00 6.98432111e-13 0.00000000e+00 1.70463024e-14
2.12059073e+01 6.75977497e-13 1.54407718e-14 0.00000000e+00 6.60536726e-13 0.00000000e+00 1.54433068e-14
2.19156062e+01 6.37064819e-13 1.39888818e-14 0.00000000e+00 6.23075937e-13 0.00000000e+00 1.39910532e-14
2.26490567e+01 6.02319377e-13 1.26735033e-14 0.00000000e+00 5.89645874e-13 0.00000000e+00 1.26753663e-14
2.34070535e+01 5.67926740e-13 1.14818023e-14 0.00000000e+00 5.56444938e-13 0.00000000e+00 1.14834036e-14
2.41904183e+01 5.36139645e-13 1.04021505e-14 0.00000000e+00 5.25737494e-13 0.00000000e+00 1.04035303e-14
2.50000000e+01 5.06695700e-13 9.42401440e-15 0.00000000e+00 4.97271686e-13 0.00000000e+00 9.42520591e-15
2.75422870e+01 4.25068366e-13 7.04795292e-15 0.00000000e+00 4.18020414e-13 0.00000000e+00 7.04872996e-15
3.16227766e+01 3.21931905e-13 4.65662278e-15 0.00000000e+00 3.17275282e-13 0.00000000e+00 4.65704970e-15
3.63078055e+01 2.32013338e-13 3.07664890e-15 0.00000000e+00 2.28936689e-13 0.00000000e+00 3.07688223e-15
4.16869383e+01 1.56708181e-13 2.03275179e-15 0.00000000e+00 1.54675430e-13 0.00000000e+00 2.03287593e-15
4.78630092e+01 9.94811409e-14 1.34304381e-15 0.00000000e+00 9.81380971e-14 0.00000000e+00 1.34310781e-15
5.49540874e+01 6.00380340e-14 8.87350236e-16 0.00000000e+00 5.91506838e-14 0.00000000e+00 8.87382527e-16
6.30957344e+01 3.49220819e-14 5.86271736e-16 0.00000000e+00 3.43358102e-14 0.00000000e+00 5.86287821e-16
7.24435960e+01 1.97254201e-14 3.87348567e-16 0.00000000e+00 1.93380716e-14 0.00000000e+00 3.87356522e-16
8.31763771e+01 1.09313857e-14 2.55919988e-16 0.00000000e+00 1.06754657e-14 0.00000000e+00 2.55923916e-16
9.54992586e+01 5.98107478e-15 1.69085310e-16 0.00000000e+00 5.81198947e-15 0.00000000e+00 1.69087255e-16
1.09647820e+02 3.24555096e-15 1.11713876e-16 0.00000000e+00 3.13383708e-15 0.00000000e+00 1.11714841e-16
1.25892541e+02 1.77152005e-15 7.38087769e-17 0.00000000e+00 1.69771128e-15 0.00000000e+00 7.38092637e-17
1.44543977e+02 9.66560114e-16 4.87650497e-17 0.00000000e+00 9.17795064e-16 0.00000000e+00 4.87652969e-17
1.65958691e+02 5.05246662e-16 3.22187910e-17 0.00000000e+00 4.73027871e-16 0.00000000e+00 3.22189122e-17
1.90546072e+02 2.65955274e-16 2.12867642e-17 0.00000000e+00 2.44668510e-16 0.00000000e+00 2.12868242e-17
2.18776162e+02 1.40691942e-16 1.40640354e-17 0.00000000e+00 1.26627907e-16 0.00000000e+00 1.40640653e-17
2.51188643e+02 7.47035022e-17 9.29202083e-18 0.00000000e+00 6.54114814e-17 0.00000000e+00 9.29203577e-18
2.88403150e+02 3.98135040e-17 6.13917968e-18 0.00000000e+00 3.36743244e-17 0.00000000e+00 6.13918715e-18
3.31131121e+02 2.13617318e-17 4.05611698e-18 0.00000000e+00 1.73056149e-17 0.00000000e+00 4.05612073e-18
3.80189396e+02 1.15461389e-17 2.67985051e-18 0.00000000e+00 8.86628841e-18 0.00000000e+00 2.67985239e-18
4.36515832e+02 6.30479759e-18 1.77055997e-18 0.00000000e+00 4.53423762e-18 0.00000000e+00 1.77056092e-18
5.01187234e+02 3.48347292e-18 1.16979752e-18 0.00000000e+00 2.31367540e-18 0.00000000e+00 1.16979800e-18
5.75439937e+02 1.95134271e-18 7.72877634e-19 0.00000000e+00 1.17846508e-18 0.00000000e+00 7.72877871e-19
6.60693448e+02 1.10992567e-18 5.10635226e-19 0.00000000e+00 5.99290447e-19 0.00000000e+00 5.10635346e-19
7.58577575e+02 6.41707029e-19 3.37373367e-19 0.00000000e+00 3.04333662e-19 0.00000000e+00 3.37373427e-19
8.70963590e+02 3.77219338e-19 2.22900383e-19 0.00000000e+00 1.54318956e-19 0.00000000e+00 2.22900413e-19
1.00000000e+03 7.81395794e-20 0.00000000e+00 0.00000000e+00 7.81395794e-20 0.00000000e+00 0.00000000e+00
