# column 1: lambda (micron)
# column 2: total flux; lambda*F_lambda (W/m2)
# column 3: direct stellar flux; lambda*F_lambda (W/m2)
# column 4: scattered stellar flux; lambda*F_lambda (W/m2)
# column 5: total dust emission flux; lambda*F_lambda (W/m2)
# column 6: dust emission scattered flux; lambda*F_lambda (W/m2)
# column 7: transparent flux; lambda*F_lambda (W/m2)
1.00000000e-03 8.46529509e-13 8.46529401e-13 1.08181854e-19 0.00000000e+00 0.00000000e+00 8.46529401e-13
1.14815362e-03 9.99176298e-13 9.99176121e-13 1.77412191e-19 0.00000000e+00 0.00000000e+00 9.99176121e-13
1.31825674e-03 1.17934848e-12 1.17934819e-12 2.89283192e-19 0.00000000e+00 0.00000000e+00 1.17934819e-12
1.51356125e-03 1.39200944e-12 1.39200901e-12 4.33969322e-19 0.00000000e+00 0.00000000e+00 1.39200901e-12
1.73780083e-03 1.64301776e-12 1.64301696e-12 8.02208966e-19 0.00000000e+00 0.00000000e+00 1.64301696e-12
1.99526231e-03 1.93928826e-12 1.93928682e-12 1.44107064e-18 0.00000000e+00 0.00000000e+00 1.93928682e-12
2.29086765e-03 2.28898250e-12 2.28898025e-12 2.24161499e-18 0.00000000e+00 0.00000000e+00 2.28898025e-12
2.63026799e-03 2.70173525e-12 2.70173063e-12 4.62379069e-18 0.00000000e+00 0.00000000e+00 2.70173063e-12
3.01995172e-03 3.18891647e-12 3.18890841e-12 8.05936851e-18 0.00000000e+00 0.00000000e+00 3.18890841e-12
3.46736850e-03 3.76394786e-12 3.76393440e-12 1.34509375e-17 0.00000000e+00 0.00000000e+00 3.76393440e-12
3.98107171e-03 4.44267139e-12 4.44264945e-12 2.19375443e-17 0.00000000e+00 0.00000000e+00 4.44264945e-12
4.57088190e-03 5.24379648e-12 5.24375082e-12 4.56590243e-17 0.00000000e+00 0.00000000e+00 5.24375082e-12
5.24807460e-03 6.18939333e-12 6.18930730e-12 8.60281917e-17 0.00000000e+00 0.00000000e+00 6.18930730e-12
6.02559586e-03 7.30552170e-12 7.30536713e-12 1.54565944e-16 0.00000000e+00 0.00000000e+00 7.30536713e-12
6.91830971e-03 8.62292005e-12 8.62267558e-12 2.44471873e-16 0.00000000e+00 0.00000000e+00 8.62267558e-12
7.94328235e-03 1.01779263e-11 1.01775219e-11 4.04365871e-16 0.00000000e+00 0.00000000e+00 1.01775219e-11
9.12010839e-03 1.20134228e-11 1.20127391e-11 6.83633702e-16 0.00000000e+00 0.00000000e+00 1.20127391e-11
1.04712855e-02 1.34174956e-11 1.34165878e-11 9.07750939e-16 0.00000000e+00 0.00000000e+00 1.34165878e-11
1.20226443e-02 1.34179478e-11 1.34165878e-11 1.35999179e-15 0.00000000e+00 0.00000000e+00 1.34165878e-11
1.38038426e-02 1.34204684e-11 1.34165878e-11 3.88057844e-15 1.89358739e-289 2.22994039e-291 1.34165878e-11
1.58489319e-02 1.34192948e-11 1.34165878e-11 2.70691463e-15 1.04598229e-252 1.61009027e-254 1.34165878e-11
1.81970086e-02 1.34202268e-11 1.34165878e-11 3.63893091e-15 9.95051267e-221 1.68556992e-222 1.34165878e-11
2.08929613e-02 1.34228403e-11 1.34165878e-11 6.25241731e-15 6.34958569e-193 1.20944606e-194 1.34165878e-11
2.39883292e-02 1.34237209e-11 1.34165878e-11 7.13307703e-15 1.01767389e-168 2.61272531e-170 1.34165878e-11
2.75422870e-02 1.34276380e-11 1.34165878e-11 1.10501971e-14 1.17996239e-147 3.53636050e-149 1.34165878e-11
3.16227766e-02 1.34287213e-11 1.34165878e-11 1.21334138e-14 2.45493086e-129 8.46817070e-131 1.34165878e-11
3.63078055e-02 1.34318608e-11 1.34165878e-11 1.52729506e-14 2.05994033e-113 7.78661461e-115 1.34165878e-11
4.16869383e-02 1.34382936e-11 1.34165878e-11 2.17057529e-14 1.43171146e-99 6.83200062e-101 1.34165878e-11
4.78630092e-02 1.34468464e-11 1.34165878e-11 3.02585142e-14 1.51425108e-87 9.05088593e-89 1.34165878e-11
5.49540874e-02 1.34544288e-11 1.34165878e-11 3.78409394e-14 4.17376797e-77 2.96309095e-78 1.34165878e-11
6.30957344e-02 1.34658540e-11 1.34165878e-11 4.92661912e-14 6.36963495e-68 5.41774171e-69 1.34165878e-11
7.24435960e-02 1.34661612e-11 1.34165878e-11 4.95733387e-14 5.77728088e-60 4.79638462e-61 1.34165878e-11
8.31763771e-02 1.34636551e-11 1.34165878e-11 4.70672763e-14 3.63065921e-53 2.97340606e-54 1.34165878e-11
9.54992586e-02 1.34661457e-11 1.34165878e-11 4.95578773e-14 2.75484135e-47 2.32536845e-48 1.34165878e-11
1.09647820e-01 1.28614971e-11 1.28127470e-11 4.87501104e-14 3.08296241e-42 2.72556231e-43 1.28127470e-11
1.25892541e-01 1.20016943e-11 1.19575512e-11 4.41431147e-14 6.97683314e-38 5.80140937e-39 1.19575512e-11
1.44543977e-01 1.11987737e-11 1.11594361e-11 3.93375917e-14 3.83970134e-34 2.99249909e-35 1.11594361e-11
1.65958691e-01 1.04533084e-11 1.04145917e-11 3.87166960e-14 4.88931417e-31 4.08060668e-32 1.04145917e-11
1.90546072e-01 9.76588473e-12 9.71946251e-12 4.64222131e-14 1.71456587e-28 1.72266419e-29 9.71946251e-12
2.18776162e-01 9.11868791e-12 9.07073019e-12 4.79577158e-14 2.35576627e-26 2.57951116e-27 9.07073019e-12
2.51188643e-01 8.52181575e-12 8.46529796e-12 5.65177879e-14 2.48922278e-24 3.23309121e-25 8.46529796e-12
2.88403150e-01 7.94956540e-12 7.90027573e-12 4.92896707e-14 1.38880249e-22 1.74213262e-23 7.90027573e-12
3.31131121e-01 7.41743798e-12 7.37296631e-12 4.44716733e-14 4.35606679e-21 5.33414210e-22 7.37296631e-12
3.80189396e-01 6.91905419e-12 6.88085251e-12 3.82015914e-14 8.50688747e-20 1.06006725e-20 6.88085251e-12
4.36515832e-01 6.45807593e-12 6.42158520e-12 3.64896302e-14 1.09963714e-18 1.37822725e-19 6.42158520e-12
5.01187234e-01 6.02564453e-12 5.99297201e-12 3.26625569e-14 9.96482435e-18 1.26040023e-18 5.99297201e-12
5.75439937e-01 5.62476324e-12 5.59296690e-12 3.17303477e-14 6.59892307e-17 8.41232859e-18 5.59296690e-12
6.60693448e-01 5.24866464e-12 5.21966041e-12 2.86741458e-14 3.30084092e-16 4.17137890e-17 5.21966041e-12
7.58577575e-01 4.89877077e-12 4.87127053e-12 2.61943238e-14 1.30591524e-15 1.60206834e-16 4.87127053e-12
8.70963590e-01 4.57294453e-12 4.54613417e-12 2.25900935e-14 4.22025964e-15 4.97775467e-16 4.54613417e-12
1.00000000e+00 4.27369822e-12 4.24269927e-12 1.96308152e-14 1.13681342e-14 1.27276284e-15 4.24269927e-12
1.14815362e+00 4.00291764e-12 3.95951734e-12 1.66330486e-14 2.67672546e-14 2.71975998e-15 3.95951734e-12
1.31825674e+00 3.76484217e-12 3.69523659e-12 1.33874080e-14 5.62181787e-14 5.15613286e-15 3.69523659e-12
1.51356125e+00 3.56410055e-12 3.44859544e-12 1.03138203e-14 1.05191290e-13 8.37274982e-15 3.44859544e-12
1.73780083e+00 3.40087548e-12 3.21841652e-12 7.60682288e-15 1.74852130e-13 1.18131046e-14 3.21841652e-12
1.99526231e+00 3.26745965e-12 3.00360106e-12 5.35960643e-15 2.58498980e-13 1.39613293e-14 3.00360106e-12
2.29086765e+00 3.15108062e-12 2.80312361e-12 3.85150602e-15 3.44105505e-13 1.44072981e-14 2.80312361e-12
2.63026799e+00 3.03595005e-12 2.61602716e-12 2.61471192e-15 4.17308171e-13 1.28838111e-14 2.61602716e-12
3.01995172e+00 2.90973504e-12 2.44141860e-12 1.70389934e-15 4.66612541e-13 1.03444886e-14 2.44141860e-12
3.46736850e+00 2.76674694e-12 2.27846441e-12 1.08397233e-15 4.87198555e-13 7.50707933e-15 2.27846441e-12
3.98107171e+00 2.60418410e-12 2.12638671e-12 6.98486275e-16 4.77098908e-13 5.03187296e-15 2.12638671e-12
4.57088190e+00 2.42874954e-12 1.98445954e-12 4.03363937e-16 4.43886630e-13 3.13498293e-15 1.98445954e-12
5.24807460e+00 2.03901912e-12 1.64084388e-12 2.22820370e-16 3.97952419e-13 1.80782440e-15 1.64084388e-12
6.02559586e+00 1.43372350e-12 1.08409480e-12 9.02630341e-17 3.49538441e-13 9.95523424e-16 1.08409480e-12
6.70000000e+00 1.10084783e-12 7.88574724e-13 4.24160667e-17 3.12230687e-13 6.04721905e-16 7.88574724e-13
6.92422916e+00 1.01504544e-12 7.14418944e-13 3.58447634e-17 3.00590651e-13 5.13668689e-16 7.14418944e-13
7.15596261e+00 9.40306925e-13 6.47236606e-13 2.60003251e-17 2.93044319e-13 4.37604037e-16 6.47236606e-13
7.39545150e+00 8.80555789e-13 5.86371942e-13 2.09401443e-17 2.94162907e-13 3.74652334e-16 5.86371942e-13
7.64295536e+00 8.51694387e-13 5.31230854e-13 1.59518334e-17 3.20447581e-13 3.33316017e-16 5.31230854e-13
7.89874245e+00 8.67537908e-13 4.81275108e-13 1.01486009e-17 3.86252651e-13 3.05322601e-16 4.81275108e-13
8.16308998e+00 9.19635193e-13 4.36017088e-13 6.94007509e-18 4.83611165e-13 2.90557943e-16 4.36017088e-13
8.43628443e+00 1.01678253e-12 3.95015029e-13 4.47981290e-18 6.21763023e-13 2.75059153e-16 3.95015029e-13
8.71862190e+00 1.07808488e-12 3.57868711e-13 3.20788155e-18 7.20212963e-13 2.54852054e-16 3.57868711e-13
9.01040836e+00 1.14591838e-12 3.24215549e-13 2.35919022e-18 8.21700471e-13 2.42403648e-16 3.24215549e-13
9.31196005e+00 1.19640664e-12 2.93727053e-13 1.87426249e-18 9.02677712e-13 2.37469139e-16 2.93727053e-13
9.62360379e+00 1.16105016e-12 2.66105627e-13 1.52466623e-18 8.94943008e-13 2.21992160e-16 2.66105627e-13
9.94567731e+00 1.06392952e-12 2.41081657e-13 1.32250110e-18 8.22846542e-13 1.97350135e-16 2.41081657e-13
1.02785297e+01 9.53780119e-13 2.18410884e-13 1.16758347e-18 7.35368067e-13 1.72633242e-16 2.18410884e-13
1.06225216e+01 8.48121617e-13 1.97872020e-13 1.03915978e-18 6.50248558e-13 1.49371915e-16 1.97872020e-13
1.09780260e+01 7.38273828e-13 1.79264583e-13 9.61419195e-19 5.59008283e-13 1.24082913e-16 1.79264583e-13
1.13454280e+01 6.44087439e-13 1.62406948e-13 8.08967130e-19 4.81679682e-13 1.02913771e-16 1.62406948e-13
1.17251259e+01 5.65105314e-13 1.47134567e-13 7.24302076e-19 4.17970023e-13 8.50809177e-17 1.47134567e-13
1.21175312e+01 4.94735054e-13 1.33298366e-13 6.17823709e-19 3.61436070e-13 6.95480279e-17 1.33298366e-13
1.25230691e+01 4.33335186e-13 1.20763289e-13 5.36988184e-19 3.12571359e-13 5.53786947e-17 1.20763289e-13
1.29421791e+01 3.81671190e-13 1.09406983e-13 4.52673800e-19 2.72263754e-13 4.42698546e-17 1.09406983e-13
1.33753155e+01 3.38026385e-13 9.91185987e-14 3.65772044e-19 2.38907421e-13 3.52066456e-17 9.91185987e-14
1.38229477e+01 3.07359173e-13 8.97977103e-14 3.08673101e-19 2.17561154e-13 2.78671792e-17 8.97977103e-14
1.42855609e+01 2.86737451e-13 8.13533371e-14 2.30583068e-19 2.05383883e-13 2.24492454e-17 8.13533371e-14
1.47636563e+01 2.81504614e-13 7.37030537e-14 1.67202621e-19 2.07801393e-13 1.86237761e-17 7.37030537e-14
1.52577522e+01 2.80123862e-13 6.67721855e-14 1.22828065e-19 2.13351554e-13 1.56227472e-17 6.67721855e-14
1.57683840e+01 2.81825636e-13 6.04930805e-14 9.90168307e-20 2.21332457e-13 1.32309858e-17 6.04930805e-14
1.62961051e+01 2.84527484e-13 5.48044484e-14 7.64740092e-20 2.29722959e-13 1.12533609e-17 5.48044484e-14
1.68414875e+01 2.87719976e-13 4.96507622e-14 5.40475106e-20 2.38069160e-13 9.64706978e-18 4.96507622e-14
1.74051222e+01 2.87220193e-13 4.49817171e-14 4.43947649e-20 2.42238432e-13 8.10691630e-18 4.49817171e-14
1.79876201e+01 2.83822480e-13 4.07517384e-14 3.40867392e-20 2.43070707e-13 6.71806990e-18 4.07517384e-14
1.85896125e+01 2.75434527e-13 3.69195372e-14 2.70022975e-20 2.38514963e-13 5.60510128e-18 3.69195372e-14
1.92117518e+01 2.62868334e-13 3.34477076e-14 2.13858416e-20 2.29420605e-13 4.55923542e-18 3.34477076e-14
1.98547123e+01 2.47913545e-13 3.03023610e-14 1.71171220e-20 2.17611167e-13 3.56824562e-18 3.03023610e-14
2.05191907e+01 2.32628843e-13 2.74527957e-14 1.29327147e-20 2.05176035e-13 2.65395760e-18 2.74527957e-14
2.12059073e+01 2.18628182e-13 2.48711970e-14 8.42150917e-21 1.93756977e-13 1.84251342e-18 2.48711970e-14
2.19156062e+01 2.06658140e-13 2.25323660e-14 5.13280925e-21 1.84125769e-13 1.15884925e-18 2.25323660e-14
2.26490567e+01 1.95653278e-13 2.04134733e-14 2.40294014e-21 1.75239802e-13 5.87801922e-19 2.04134733e-14
2.34070535e+01 1.85974110e-13 1.84938366e-14 6.61262730e-22 1.67480273e-13 1.88502866e-19 1.84938366e-14
2.41904183e+01 1.77212200e-13 1.67547181e-14 5.68282399e-23 1.60457481e-13 1.90229368e-20 1.67547181e-14
2.50000000e+01 1.69196040e-13 1.51791424e-14 0.00000000e+00 1.54016898e-13 0.00000000e+00 1.51791424e-14
2.75422870e+01 1.48693599e-13 1.13518661e-14 0.00000000e+00 1.37341733e-13 0.00000000e+00 1.13518661e-14
3.16227766e+01 1.24493192e-13 7.50010357e-15 0.00000000e+00 1.16993088e-13 0.00000000e+00 7.50010357e-15
3.63078055e+01 1.01947829e-13 4.95526929e-15 0.00000000e+00 9.69925595e-14 0.00000000e+00 4.95526929e-15
4.16869383e+01 7.98628670e-14 3.27391395e-15 0.00000000e+00 7.65889530e-14 0.00000000e+00 3.27391395e-15
4.78630092e+01 5.92892969e-14 2.16305350e-15 0.00000000e+00 5.71262434e-14 0.00000000e+00 2.16305350e-15
5.49540874e+01 4.19550095e-14 1.42911527e-15 0.00000000e+00 4.05258943e-14 0.00000000e+00 1.42911527e-15
6.30957344e+01 2.84681637e-14 9.44207098e-16 0.00000000e+00 2.75239566e-14 0.00000000e+00 9.44207098e-16
7.24435960e+01 1.86065782e-14 6.23831443e-16 0.00000000e+00 1.79827467e-14 0.00000000e+00 6.23831443e-16
8.31763771e+01 1.17774100e-14 4.12161347e-16 0.00000000e+00 1.13652487e-14 0.00000000e+00 4.12161347e-16
9.54992586e+01 7.26178111e-15 2.72312302e-16 0.00000000e+00 6.98946881e-15 0.00000000e+00 2.72312302e-16
1.09647820e+02 4.37671616e-15 1.79914953e-16 0.00000000e+00 4.19680121e-15 0.00000000e+00 1.79914953e-16
1.25892541e+02 2.61448344e-15 1.18868631e-16 0.00000000e+00 2.49561481e-15 0.00000000e+00 1.18868631e-16
1.44543977e+02 1.54084616e-15 7.85357256e-17 0.00000000e+00 1.46231044e-15 0.00000000e+00 7.85357256e-17
1.65958691e+02 8.62065105e-16 5.18880394e-17 0.00000000e+00 8.10177066e-16 0.00000000e+00 5.18880394e-17
1.90546072e+02 4.80129695e-16 3.42820876e-17 0.00000000e+00 4.45847607e-16 0.00000000e+00 3.42820876e-17
2.18776162e+02 2.65945010e-16 2.26499507e-17 0.00000000e+00 2.43295059e-16 0.00000000e+00 2.26499507e-17
2.51188643e+02 1.46483662e-16 1.49646740e-17 0.00000000e+00 1.31518988e-16 0.00000000e+00 1.49646740e-17
2.88403150e+02 8.02832686e-17 9.88706207e-18 0.00000000e+00 7.03962065e-17 0.00000000e+00 9.88706207e-18
3.31131121e+02 4.39399984e-17 6.53231713e-18 0.00000000e+00 3.74076813e-17 0.00000000e+00 6.53231713e-18
3.80189396e+02 2.40401283e-17 4.31585913e-18 0.00000000e+00 1.97242692e-17 0.00000000e+00 4.31585913e-18
4.36515832e+02 1.31905805e-17 2.85145985e-18 0.00000000e+00 1.03391207e-17 0.00000000e+00 2.85145985e-18
5.01187234e+02 7.27291824e-18 1.88394084e-18 0.00000000e+00 5.38897740e-18 0.00000000e+00 1.88394084e-18
5.75439937e+02 4.04018735e-18 1.24470737e-18 0.00000000e+00 2.79547998e-18 0.00000000e+00 1.24470737e-18
6.60693448e+02 2.26654807e-18 8.22370004e-19 0.00000000e+00 1.44417806e-18 0.00000000e+00 8.22370004e-19
7.58577575e+02 1.28675437e-18 5.43334473e-19 0.00000000e+00 7.43419900e-19 0.00000000e+00 5.43334473e-19
8.70963590e+02 7.40390985e-19 3.58977527e-19 0.00000000e+00 3.81413458e-19 0.00000000e+00 3.58977527e-19
1.00000000e+03 1.95096218e-19 0.00000000e+00 0.00000000e+00 1.95096218e-19 0.00000000e+00 0.00000000e+00
