# column 1: lambda (micron)
# column 2: total flux; lambda*F_lambda (W/m2)
# column 3: direct stellar flux; lambda*F_lambda (W/m2)
# column 4: scattered stellar flux; lambda*F_lambda (W/m2)
# column 5: total dust emission flux; lambda*F_lambda (W/m2)
# column 6: dust emission scattered flux; lambda*F_lambda (W/m2)
# column 7: transparent flux; lambda*F_lambda (W/m2)
1.00000000e-03 9.68081374e-13 9.68073281e-13 8.09243788e-18 0.00000000e+00 0.00000000e+00 9.68073281e-13
1.14815362e-03 1.14264912e-12 1.14263687e-12 1.22490181e-17 0.00000000e+00 0.00000000e+00 1.14263687e-12
1.31825674e-03 1.34869635e-12 1.34867788e-12 1.84693076e-17 0.00000000e+00 0.00000000e+00 1.34867788e-12
1.51356125e-03 1.59190095e-12 1.59187233e-12 2.86195694e-17 0.00000000e+00 0.00000000e+00 1.59187233e-12
1.73780083e-03 1.87896804e-12 1.87891976e-12 4.82793274e-17 0.00000000e+00 0.00000000e+00 1.87891976e-12
1.99526231e-03 2.21781030e-12 2.21772777e-12 8.25380110e-17 0.00000000e+00 0.00000000e+00 2.21772777e-12
2.29086765e-03 2.61776106e-12 2.61762985e-12 1.31219177e-16 0.00000000e+00 0.00000000e+00 2.61762985e-12
2.63026799e-03 3.08991371e-12 3.08964252e-12 2.71183234e-16 0.00000000e+00 0.00000000e+00 3.08964252e-12
3.01995172e-03 3.64721670e-12 3.64676883e-12 4.47878140e-16 0.00000000e+00 0.00000000e+00 3.64676883e-12
3.46736850e-03 4.30509770e-12 4.30435650e-12 7.41205081e-16 0.00000000e+00 0.00000000e+00 4.30435650e-12
3.98107171e-03 5.08164891e-12 5.08052080e-12 1.12811379e-15 0.00000000e+00 0.00000000e+00 5.08052080e-12
4.57088190e-03 5.99945641e-12 5.99664354e-12 2.81287222e-15 0.00000000e+00 0.00000000e+00 5.99664354e-12
5.24807460e-03 7.08269323e-12 7.07796211e-12 4.73111342e-15 0.00000000e+00 0.00000000e+00 7.07796211e-12
6.02559586e-03 8.36344234e-12 8.35426474e-12 9.17760032e-15 0.00000000e+00 0.00000000e+00 8.35426474e-12
6.91830971e-03 9.87418255e-12 9.86071107e-12 1.34714751e-14 0.00000000e+00 0.00000000e+00 9.86071107e-12
7.94328235e-03 1.16638968e-11 1.16388008e-11 2.50960800e-14 1.60144890e-303 1.32667643e-305 1.16388008e-11
9.12010839e-03 1.37744989e-11 1.37375167e-11 3.69822303e-14 6.85314086e-265 8.65024413e-267 1.37375167e-11
1.04712855e-02 1.53938622e-11 1.53429287e-11 5.09335147e-14 2.83619594e-231 4.60810077e-233 1.53429287e-11
1.20226443e-02 1.54498077e-11 1.53429287e-11 1.06879054e-13 4.35089445e-202 7.64265142e-204 1.53429287e-11
1.38038426e-02 1.54736132e-11 1.53429287e-11 1.30684578e-13 1.17676886e-176 3.47543400e-178 1.53429287e-11
1.58489319e-02 1.55100490e-11 1.53429287e-11 1.67120384e-13 1.56797237e-154 5.00958402e-156 1.53429287e-11
1.81970086e-02 1.55685535e-11 1.53429287e-11 2.25624842e-13 2.76597250e-135 1.00587049e-136 1.53429287e-11
2.08929613e-02 1.56529671e-11 1.53429287e-11 3.10038464e-13 1.44096992e-118 6.84382795e-120 1.53429287e-11
2.39883292e-02 1.57422678e-11 1.53429287e-11 3.99339171e-13 5.04679318e-104 2.97283605e-105 1.53429287e-11
2.75422870e-02 1.58466839e-11 1.53429287e-11 5.03755278e-13 2.25352699e-91 1.54156649e-92 1.53429287e-11
3.16227766e-02 1.59446994e-11 1.53429287e-11 6.01770777e-13 2.18896741e-80 1.64942521e-81 1.53429287e-11
3.63078055e-02 1.59585210e-11 1.53429287e-11 6.15592347e-13 7.53046949e-71 5.83030303e-72 1.53429287e-11
4.16869383e-02 1.61128089e-11 1.53429287e-11 7.69880252e-13 1.43868903e-62 1.32308058e-63 1.53429287e-11
4.78630092e-02 1.61766503e-11 1.53429287e-11 8.33721638e-13 2.15774183e-55 2.11382901e-56 1.53429287e-11
5.49540874e-02 1.62186248e-11 1.53429287e-11 8.75696127e-13 3.56309546e-49 3.71105261e-50 1.53429287e-11
6.30957344e-02 1.62015766e-11 1.53429287e-11 8.58647964e-13 1.13106526e-43 1.18624517e-44 1.53429287e-11
7.24435960e-02 1.60817521e-11 1.53429287e-11 7.38823439e-13 6.39826882e-39 6.02739827e-40 1.53429287e-11
8.31763771e-02 1.60530444e-11 1.53429287e-11 7.10115775e-13 6.52855206e-35 6.00141551e-36 1.53429287e-11
9.54992586e-02 1.60628491e-11 1.53429287e-11 7.19920407e-13 1.83771072e-31 1.72266948e-32 1.53429287e-11
1.09647820e-01 1.54127484e-11 1.46523889e-11 7.60359512e-13 1.57499498e-28 1.60848343e-29 1.46523889e-11
1.25892541e-01 1.44284851e-11 1.36744049e-11 7.54080196e-13 5.15312418e-26 5.45625407e-27 1.36744049e-11
1.44543977e-01 1.34656639e-11 1.27616972e-11 7.03966634e-13 7.03700287e-24 7.35238704e-25 1.27616972e-11
1.65958691e-01 1.26104954e-11 1.19099088e-11 7.00586567e-13 3.57452003e-22 3.95492884e-23 1.19099088e-11
1.90546072e-01 1.18284599e-11 1.11149736e-11 7.13486258e-13 7.51965727e-21 9.18177624e-22 1.11149736e-11
2.18776162e-01 1.10030691e-11 1.03730969e-11 6.29972081e-13 8.80503958e-20 1.05781238e-20 1.03730969e-11
2.51188643e-01 1.03683981e-11 9.68073733e-12 6.87659642e-13 1.08104201e-18 1.53282761e-19 9.68073733e-12
2.88403150e-01 9.67672236e-12 9.03458975e-12 6.42123579e-13 9.02953956e-18 1.27229417e-18 9.03458975e-12
3.31131121e-01 9.02858240e-12 8.43156974e-12 5.96960741e-13 5.19196604e-17 7.26957474e-18 8.43156974e-12
3.80189396e-01 8.41220076e-12 7.86879872e-12 5.43185227e-13 2.16808070e-16 2.98123961e-17 7.86879872e-12
4.36515832e-01 7.84362878e-12 7.34359025e-12 4.99343204e-13 6.95324470e-16 9.71411240e-17 7.34359025e-12
5.01187234e-01 7.30812545e-12 6.85343719e-12 4.52861953e-13 1.82631289e-15 2.71766618e-16 6.85343719e-12
5.75439937e-01 6.80847970e-12 6.39599973e-12 4.08076596e-13 4.40337312e-15 7.65809892e-16 6.39599973e-12
6.60693448e-01 6.34619145e-12 5.96909425e-12 3.66017223e-13 1.10799675e-14 2.39268628e-15 5.96909425e-12
7.58577575e-01 5.93374647e-12 5.57068288e-12 3.32455417e-13 3.06081656e-14 7.85189738e-15 5.57068288e-12
8.70963590e-01 5.56846679e-12 5.19886376e-12 2.84752380e-13 8.48506516e-14 2.27547974e-14 5.19886376e-12
1.00000000e+00 5.31263239e-12 4.85186196e-12 2.44232193e-13 2.16538235e-13 5.66137264e-14 4.85186196e-12
1.14815362e+00 5.22642545e-12 4.52802104e-12 2.02296434e-13 4.96107967e-13 1.20557775e-13 4.52802104e-12
1.31825674e+00 5.41357850e-12 4.22579511e-12 1.60448209e-13 1.02733517e-12 2.21956738e-13 4.22579511e-12
1.51356125e+00 5.98182822e-12 3.94374146e-12 1.28408145e-13 1.90967861e-12 3.63130930e-13 3.94374146e-12
1.73780083e+00 6.94778152e-12 3.68051368e-12 1.02241721e-13 3.16502611e-12 5.12050184e-13 3.68051368e-12
1.99526231e+00 8.21359009e-12 3.43485522e-12 7.76296505e-14 4.70110522e-12 6.19907933e-13 3.43485522e-12
2.29086765e+00 9.63971396e-12 3.20559341e-12 5.77871706e-14 6.37633337e-12 6.65186901e-13 3.20559341e-12
2.63026799e+00 1.09939031e-11 2.99163384e-12 4.13204315e-14 7.96094885e-12 6.28024435e-13 2.99163384e-12
3.01995172e+00 1.20660425e-11 2.79195514e-12 2.87016719e-14 9.24538569e-12 5.35267086e-13 2.79195514e-12
3.46736850e+00 1.28225266e-11 2.60560415e-12 1.91032743e-14 1.01978192e-11 4.20537370e-13 2.60560415e-12
3.98107171e+00 1.31270090e-11 2.43169128e-12 1.23431712e-14 1.06829745e-11 3.02274543e-13 2.43169128e-12
4.57088190e+00 1.30874996e-11 2.26938634e-12 7.69701262e-15 1.08104163e-11 2.01098770e-13 2.26938634e-12
5.24807460e+00 1.25134681e-11 1.87643467e-12 4.14838717e-15 1.06328851e-11 1.27043368e-13 1.87643467e-12
6.02559586e+00 1.15183617e-11 1.23974809e-12 1.71561269e-15 1.02768980e-11 7.53279427e-14 1.23974809e-12
6.70000000e+00 1.07954248e-11 9.01797527e-13 8.37929578e-16 9.89278930e-12 4.87846409e-14 9.01797527e-13
6.92422916e+00 1.05761136e-11 8.16994532e-13 6.63880442e-16 9.75845518e-12 4.20264932e-14 8.16994532e-13
7.15596261e+00 1.04214152e-11 7.40166218e-13 5.22219771e-16 9.68072676e-12 3.60922224e-14 7.40166218e-13
7.39545150e+00 1.04078825e-11 6.70562664e-13 3.98949516e-16 9.73692089e-12 3.08551189e-14 6.70562664e-13
7.64295536e+00 1.08786892e-11 6.07504471e-13 2.86223491e-16 1.02708985e-11 2.64418680e-14 6.07504471e-13
7.89874245e+00 1.19790142e-11 5.50376127e-13 1.85674340e-16 1.14284524e-11 2.22861085e-14 5.50376127e-13
8.16308998e+00 1.34472329e-11 4.98620004e-13 1.15336322e-16 1.29484976e-11 1.85340000e-14 4.98620004e-13
8.43628443e+00 1.52465987e-11 4.51730909e-13 6.46561024e-17 1.47948031e-11 1.44948319e-14 4.51730909e-13
8.71862190e+00 1.63174602e-11 4.09251158e-13 3.76354666e-17 1.59081714e-11 1.11803635e-14 4.09251158e-13
9.01040836e+00 1.74224376e-11 3.70766106e-13 1.79758248e-17 1.70516535e-11 7.65252370e-15 3.70766106e-13
9.31196005e+00 1.81772751e-11 3.35900102e-13 0.00000000e+00 1.78413750e-11 0.00000000e+00 3.35900102e-13
9.62360379e+00 1.79600020e-11 3.04312818e-13 0.00000000e+00 1.76556892e-11 0.00000000e+00 3.04312818e-13
9.94567731e+00 1.73779328e-11 2.75695930e-13 0.00000000e+00 1.71022369e-11 0.00000000e+00 2.75695930e-13
1.02785297e+01 1.64499056e-11 2.49770110e-13 0.00000000e+00 1.62001355e-11 0.00000000e+00 2.49770110e-13
1.06225216e+01 1.56966071e-11 2.26282295e-13 0.00000000e+00 1.54703248e-11 0.00000000e+00 2.26282295e-13
1.09780260e+01 1.46998940e-11 2.05003220e-13 0.00000000e+00 1.44948908e-11 0.00000000e+00 2.05003220e-13
1.13454280e+01 1.37837868e-11 1.85725182e-13 0.00000000e+00 1.35980616e-11 0.00000000e+00 1.85725182e-13
1.17251259e+01 1.29864817e-11 1.68260007e-13 0.00000000e+00 1.28182217e-11 0.00000000e+00 1.68260007e-13
1.21175312e+01 1.21839272e-11 1.52437217e-13 0.00000000e+00 1.20314900e-11 0.00000000e+00 1.52437217e-13
1.25230691e+01 1.13899295e-11 1.38102367e-13 0.00000000e+00 1.12518272e-11 0.00000000e+00 1.38102367e-13
1.29421791e+01 1.07235530e-11 1.25115533e-13 0.00000000e+00 1.05984375e-11 0.00000000e+00 1.25115533e-13
1.33753155e+01 1.00872443e-11 1.13349952e-13 0.00000000e+00 9.97389439e-12 0.00000000e+00 1.13349952e-13
1.38229477e+01 9.64813149e-12 1.02690779e-13 0.00000000e+00 9.54544071e-12 0.00000000e+00 1.02690779e-13
1.42855609e+01 9.40506349e-12 9.30339713e-14 0.00000000e+00 9.31202952e-12 0.00000000e+00 9.30339713e-14
1.47636563e+01 9.57033229e-12 8.42852675e-14 0.00000000e+00 9.48604702e-12 0.00000000e+00 8.42852675e-14
1.52577522e+01 9.81566532e-12 7.63592720e-14 0.00000000e+00 9.73930604e-12 0.00000000e+00 7.63592720e-14
1.57683840e+01 1.01169491e-11 6.91786191e-14 0.00000000e+00 1.00477705e-11 0.00000000e+00 6.91786191e-14
1.62961051e+01 1.04128770e-11 6.26732185e-14 0.00000000e+00 1.03502038e-11 0.00000000e+00 6.26732185e-14
1.68414875e+01 1.07164810e-11 5.67795711e-14 0.00000000e+00 1.06597015e-11 0.00000000e+00 5.67795711e-14
1.74051222e+01 1.08863034e-11 5.14401489e-14 0.00000000e+00 1.08348633e-11 0.00000000e+00 5.14401489e-14
1.79876201e+01 1.09433859e-11 4.66028339e-14 0.00000000e+00 1.08967831e-11 0.00000000e+00 4.66028339e-14
1.85896125e+01 1.08801138e-11 4.22204090e-14 0.00000000e+00 1.08378934e-11 0.00000000e+00 4.22204090e-14
1.92117518e+01 1.06359816e-11 3.82500974e-14 0.00000000e+00 1.05977316e-11 0.00000000e+00 3.82500974e-14
1.98547123e+01 1.03172188e-11 3.46531450e-14 0.00000000e+00 1.02825657e-11 0.00000000e+00 3.46531450e-14
2.05191907e+01 9.94028442e-12 3.13944418e-14 0.00000000e+00 9.90888998e-12 0.00000000e+00 3.13944418e-14
2.12059073e+01 9.52574495e-12 2.84421796e-14 0.00000000e+00 9.49730277e-12 0.00000000e+00 2.84421796e-14
2.19156062e+01 9.17921381e-12 2.57675415e-14 0.00000000e+00 9.15344627e-12 0.00000000e+00 2.57675415e-14
2.26490567e+01 8.81156183e-12 2.33444203e-14 0.00000000e+00 8.78821741e-12 0.00000000e+00 2.33444203e-14
2.34070535e+01 8.43256905e-12 2.11491639e-14 0.00000000e+00 8.41141988e-12 0.00000000e+00 2.11491639e-14
2.41904183e+01 8.06900870e-12 1.91603445e-14 0.00000000e+00 8.04984836e-12 0.00000000e+00 1.91603445e-14
2.50000000e+01 7.72006720e-12 1.73585491e-14 0.00000000e+00 7.70270865e-12 0.00000000e+00 1.73585491e-14
2.75422870e+01 6.65111976e-12 1.29817562e-14 0.00000000e+00 6.63813801e-12 0.00000000e+00 1.29817562e-14
3.16227766e+01 5.16637311e-12 8.57696126e-15 0.00000000e+00 5.15779615e-12 0.00000000e+00 8.57696126e-15
3.63078055e+01 3.78195627e-12 5.66674211e-15 0.00000000e+00 3.77628953e-12 0.00000000e+00 5.66674211e-15
4.16869383e+01 2.58145038e-12 3.74397938e-15 0.00000000e+00 2.57770640e-12 0.00000000e+00 3.74397938e-15
4.78630092e+01 1.64762609e-12 2.47362265e-15 0.00000000e+00 1.64515247e-12 0.00000000e+00 2.47362265e-15
5.49540874e+01 9.95765426e-13 1.63430628e-15 0.00000000e+00 9.94131120e-13 0.00000000e+00 1.63430628e-15
6.30957344e+01 5.77406934e-13 1.07977545e-15 0.00000000e+00 5.76327159e-13 0.00000000e+00 1.07977545e-15
7.24435960e+01 3.24622518e-13 7.13400564e-16 0.00000000e+00 3.23909117e-13 0.00000000e+00 7.13400564e-16
8.31763771e+01 1.78479479e-13 4.71339078e-16 0.00000000e+00 1.78008140e-13 0.00000000e+00 4.71339078e-16
9.54992586e+01 9.67419557e-14 3.11410641e-16 0.00000000e+00 9.64305450e-14 0.00000000e+00 3.11410641e-16
1.09647820e+02 5.19168977e-14 2.05746970e-16 0.00000000e+00 5.17111508e-14 0.00000000e+00 2.05746970e-16
1.25892541e+02 2.79865024e-14 1.35935675e-16 0.00000000e+00 2.78505667e-14 0.00000000e+00 1.35935675e-16
1.44543977e+02 1.50603435e-14 8.98118099e-17 0.00000000e+00 1.49705317e-14 0.00000000e+00 8.98118099e-17
1.65958691e+02 7.74039092e-15 5.93380743e-17 0.00000000e+00 7.68105284e-15 0.00000000e+00 5.93380743e-17
1.90546072e+02 3.99461631e-15 3.92042769e-17 0.00000000e+00 3.95541203e-15 0.00000000e+00 3.92042769e-17
2.18776162e+02 2.06454699e-15 2.59020089e-17 0.00000000e+00 2.03864499e-15 0.00000000e+00 2.59020089e-17
2.51188643e+02 1.06631921e-15 1.71132876e-17 0.00000000e+00 1.04920592e-15 0.00000000e+00 1.71132876e-17
2.88403150e+02 5.49641488e-16 1.13066370e-17 0.00000000e+00 5.38334851e-16 0.00000000e+00 1.13066370e-17
3.31131121e+02 2.83297973e-16 7.47022097e-18 0.00000000e+00 2.75827752e-16 0.00000000e+00 7.47022097e-18
3.80189396e+02 1.45876386e-16 4.93552605e-18 0.00000000e+00 1.40940860e-16 0.00000000e+00 4.93552605e-18
4.36515832e+02 7.51692451e-17 3.26086972e-18 0.00000000e+00 7.19083754e-17 0.00000000e+00 3.26086972e-18
5.01187234e+02 3.87706862e-17 2.15443526e-18 0.00000000e+00 3.66162509e-17 0.00000000e+00 2.15443526e-18
5.75439937e+02 2.00396143e-17 1.42342126e-18 0.00000000e+00 1.86161930e-17 0.00000000e+00 1.42342126e-18
6.60693448e+02 1.03922394e-17 9.40445101e-19 0.00000000e+00 9.45179430e-18 0.00000000e+00 9.40445101e-19
7.58577575e+02 5.41440750e-18 6.21345916e-19 0.00000000e+00 4.79306159e-18 0.00000000e+00 6.21345916e-19
8.70963590e+02 2.83794607e-18 4.10519176e-19 0.00000000e+00 2.42742689e-18 0.00000000e+00 4.10519176e-19
1.00000000e+03 1.22779568e-18 0.00000000e+00 0.00000000e+00 1.22779568e-18 0.00000000e+00 0.00000000e+00
