# column 1: lambda (micron)
# column 2: total flux; lambda*F_lambda (W/m2)
# column 3: direct stellar flux; lambda*F_lambda (W/m2)
# column 4: scattered stellar flux; lambda*F_lambda (W/m2)
# column 5: total dust emission flux; lambda*F_lambda (W/m2)
# column 6: dust emission scattered flux; lambda*F_lambda (W/m2)
# column 7: transparent flux; lambda*F_lambda (W/m2)
1.00000000e-03 9.68073621e-13 9.68073281e-13 3.39886246e-19 0.00000000e+00 0.00000000e+00 9.68073281e-13
1.14815362e-03 1.14263739e-12 1.14263687e-12 5.22900927e-19 0.00000000e+00 0.00000000e+00 1.14263687e-12
1.31825674e-03 1.34867867e-12 1.34867788e-12 7.90323750e-19 0.00000000e+00 0.00000000e+00 1.34867788e-12
1.51356125e-03 1.59187357e-12 1.59187233e-12 1.23787035e-18 0.00000000e+00 0.00000000e+00 1.59187233e-12
1.73780083e-03 1.87892187e-12 1.87891976e-12 2.10948820e-18 0.00000000e+00 0.00000000e+00 1.87891976e-12
1.99526231e-03 2.21773162e-12 2.21772777e-12 3.85929986e-18 0.00000000e+00 0.00000000e+00 2.21772777e-12
2.29086765e-03 2.61763569e-12 2.61762985e-12 5.84842136e-18 0.00000000e+00 0.00000000e+00 2.61762985e-12
2.63026799e-03 3.08965433e-12 3.08964252e-12 1.18069250e-17 0.00000000e+00 0.00000000e+00 3.08964252e-12
3.01995172e-03 3.64678964e-12 3.64676883e-12 2.08171970e-17 0.00000000e+00 0.00000000e+00 3.64676883e-12
3.46736850e-03 4.30439027e-12 4.30435650e-12 3.37672738e-17 0.00000000e+00 0.00000000e+00 4.30435650e-12
3.98107171e-03 5.08057435e-12 5.08052080e-12 5.35504228e-17 0.00000000e+00 0.00000000e+00 5.08052080e-12
4.57088190e-03 5.99676582e-12 5.99664354e-12 1.22282809e-16 0.00000000e+00 0.00000000e+00 5.99664354e-12
5.24807460e-03 7.07817891e-12 7.07796211e-12 2.16797933e-16 0.00000000e+00 0.00000000e+00 7.07796211e-12
6.02559586e-03 8.35466415e-12 8.35426474e-12 3.99412151e-16 0.00000000e+00 0.00000000e+00 8.35426474e-12
6.91830971e-03 9.86132237e-12 9.86071107e-12 6.11300955e-16 0.00000000e+00 0.00000000e+00 9.86071107e-12
7.94328235e-03 1.16398694e-11 1.16388008e-11 1.06864254e-15 3.81594455e-303 2.30149006e-305 1.16388008e-11
9.12010839e-03 1.37391565e-11 1.37375167e-11 1.63974715e-15 1.76890761e-264 4.56554023e-266 1.37375167e-11
1.04712855e-02 1.53452264e-11 1.53429287e-11 2.29769252e-15 7.55779521e-231 4.21201442e-233 1.53429287e-11
1.20226443e-02 1.53469875e-11 1.53429287e-11 4.05878954e-15 1.21759261e-201 8.61190547e-204 1.53429287e-11
1.38038426e-02 1.53475550e-11 1.53429287e-11 4.62629026e-15 3.42468404e-176 5.32873553e-178 1.53429287e-11
1.58489319e-02 1.53504147e-11 1.53429287e-11 7.48606487e-15 4.74857352e-154 9.66459011e-156 1.53429287e-11
1.81970086e-02 1.53540074e-11 1.53429287e-11 1.10787676e-14 8.58177035e-135 1.49737609e-136 1.53429287e-11
2.08929613e-02 1.53555721e-11 1.53429287e-11 1.26434762e-14 4.58208293e-118 1.11830703e-119 1.53429287e-11
2.39883292e-02 1.53614090e-11 1.53429287e-11 1.84803106e-14 1.62470467e-103 3.96486128e-105 1.53429287e-11
2.75422870e-02 1.53692962e-11 1.53429287e-11 2.63675176e-14 7.36617568e-91 2.02691086e-92 1.53429287e-11
3.16227766e-02 1.53744848e-11 1.53429287e-11 3.15561455e-14 7.27502672e-80 2.40912465e-81 1.53429287e-11
3.63078055e-02 1.53797028e-11 1.53429287e-11 3.67741275e-14 2.54833721e-70 9.11105695e-72 1.53429287e-11
4.16869383e-02 1.53959371e-11 1.53429287e-11 5.30084237e-14 4.90484747e-62 2.24413765e-63 1.53429287e-11
4.78630092e-02 1.54169635e-11 1.53429287e-11 7.40348397e-14 7.48600083e-55 4.22276424e-56 1.53429287e-11
5.49540874e-02 1.54368042e-11 1.53429287e-11 9.38755688e-14 1.25467134e-48 8.22798169e-50 1.53429287e-11
6.30957344e-02 1.54620256e-11 1.53429287e-11 1.19096956e-13 4.05717242e-43 2.96112934e-44 1.53429287e-11
7.24435960e-02 1.54612055e-11 1.53429287e-11 1.18276821e-13 2.34053236e-38 1.59925002e-39 1.53429287e-11
8.31763771e-02 1.54604511e-11 1.53429287e-11 1.17522477e-13 2.40601642e-34 1.61628529e-35 1.53429287e-11
9.54992586e-02 1.54666408e-11 1.53429287e-11 1.23712177e-13 6.81979979e-31 4.77589570e-32 1.53429287e-11
1.09647820e-01 1.47751927e-11 1.46523889e-11 1.22803773e-13 5.85239892e-28 4.52392634e-29 1.46523889e-11
1.25892541e-01 1.37806913e-11 1.36744049e-11 1.06286389e-13 1.90484047e-25 1.43357170e-26 1.36744049e-11
1.44543977e-01 1.28544456e-11 1.27616972e-11 9.27484111e-14 2.61100182e-23 1.93279335e-24 1.27616972e-11
1.65958691e-01 1.20071840e-11 1.19099088e-11 9.72751912e-14 1.33038642e-21 1.08077990e-22 1.19099088e-11
1.90546072e-01 1.12285371e-11 1.11149736e-11 1.13563440e-13 2.81984841e-20 2.72452914e-21 1.11149736e-11
2.18776162e-01 1.04893121e-11 1.03730969e-11 1.16214812e-13 3.34012018e-19 3.39184805e-20 1.03730969e-11
2.51188643e-01 9.81184513e-12 9.68073733e-12 1.31103687e-13 4.11058034e-18 5.11930245e-19 9.68073733e-12
2.88403150e-01 9.15526981e-12 9.03458975e-12 1.20645755e-13 3.43027778e-17 4.18101033e-18 9.03458975e-12
3.31131121e-01 8.53853410e-12 8.43156974e-12 1.06767553e-13 1.96803987e-16 2.33461939e-17 8.43156974e-12
3.80189396e-01 7.96659552e-12 7.86879872e-12 9.69776839e-14 8.19107891e-16 9.30581601e-17 7.86879872e-12
4.36515832e-01 7.43465746e-12 7.34359025e-12 8.84664035e-14 2.60080813e-15 2.96282725e-16 7.34359025e-12
5.01187234e-01 6.94274913e-12 6.85343719e-12 8.28041518e-14 6.50779062e-15 7.28102840e-16 6.85343719e-12
5.75439937e-01 6.48833265e-12 6.39599973e-12 7.88316993e-14 1.35012216e-14 1.51668967e-15 6.39599973e-12
6.60693448e-01 6.06606538e-12 5.96909425e-12 7.27713736e-14 2.41997528e-14 2.74710146e-15 5.96909425e-12
7.58577575e-01 5.67596791e-12 5.57068288e-12 6.55995755e-14 3.96854475e-14 4.59595886e-15 5.57068288e-12
8.70963590e-01 5.31933249e-12 5.19886376e-12 5.81058396e-14 6.23628883e-14 7.47357427e-15 5.19886376e-12
1.00000000e+00 5.00032004e-12 4.85186196e-12 5.16359683e-14 9.68221081e-14 1.19938214e-14 4.85186196e-12
1.14815362e+00 4.72673075e-12 4.52802104e-12 4.37514011e-14 1.54958303e-13 1.93849482e-14 4.52802104e-12
1.31825674e+00 4.51315595e-12 4.22579511e-12 3.52370842e-14 2.52123752e-13 3.00687326e-14 4.22579511e-12
1.51356125e+00 4.37572780e-12 3.94374146e-12 2.86497673e-14 4.03336568e-13 4.36863527e-14 3.94374146e-12
1.73780083e+00 4.30912588e-12 3.68051368e-12 2.18333187e-14 6.06778879e-13 5.66645141e-14 3.68051368e-12
1.99526231e+00 4.29769945e-12 3.43485522e-12 1.68522523e-14 8.45991975e-13 6.66331588e-14 3.43485522e-12
2.29086765e+00 4.30045126e-12 3.20559341e-12 1.19962469e-14 1.08286160e-12 6.71189064e-14 3.20559341e-12
2.63026799e+00 4.28378302e-12 2.99163384e-12 8.58291391e-15 1.28356627e-12 6.19209262e-14 2.99163384e-12
3.01995172e+00 4.21681083e-12 2.79195514e-12 5.91995174e-15 1.41893574e-12 5.08193622e-14 2.79195514e-12
3.46736850e+00 4.08607633e-12 2.60560415e-12 3.97535683e-15 1.47649683e-12 3.85141050e-14 2.60560415e-12
3.98107171e+00 3.89054645e-12 2.43169128e-12 2.54240269e-15 1.45631277e-12 2.68351923e-14 2.43169128e-12
4.57088190e+00 3.64536003e-12 2.26938634e-12 1.63117680e-15 1.37434252e-12 1.71933792e-14 2.26938634e-12
5.24807460e+00 3.13465351e-12 1.87643467e-12 8.63867857e-16 1.25735497e-12 1.04159782e-14 1.87643467e-12
6.02559586e+00 2.37512826e-12 1.23974809e-12 3.66617031e-16 1.13501355e-12 5.92118580e-15 1.23974809e-12
6.70000000e+00 1.94115530e-12 9.01797527e-13 1.83286154e-16 1.03917448e-12 3.68944128e-15 9.01797527e-13
6.92422916e+00 1.82545203e-12 8.16994532e-13 1.42892457e-16 1.00831460e-12 3.15784254e-15 8.16994532e-13
7.15596261e+00 1.72938091e-12 7.40166218e-13 1.12272677e-16 9.89102423e-13 2.69144258e-15 7.40166218e-13
7.39545150e+00 1.66543430e-12 6.70562664e-13 8.66755338e-17 9.94784965e-13 2.30750405e-15 6.70562664e-13
7.64295536e+00 1.67970242e-12 6.07504471e-13 6.26842788e-17 1.07213527e-12 1.98845120e-15 6.07504471e-13
7.89874245e+00 1.81242942e-12 5.50376127e-13 4.11182309e-17 1.26201217e-12 1.72865240e-15 5.50376127e-13
8.16308998e+00 2.03253162e-12 4.98620004e-13 2.64777494e-17 1.53388514e-12 1.47523258e-15 4.98620004e-13
8.43628443e+00 2.35020511e-12 4.51730909e-13 1.54429539e-17 1.89845876e-12 1.21327433e-15 4.51730909e-13
8.71862190e+00 2.55614142e-12 4.09251158e-13 9.99249745e-18 2.14688027e-12 9.78625382e-16 4.09251158e-13
9.01040836e+00 2.77496143e-12 3.70766106e-13 6.32469562e-18 2.40418900e-12 7.33152127e-16 3.70766106e-13
9.31196005e+00 2.92261772e-12 3.35900102e-13 0.00000000e+00 2.58671762e-12 0.00000000e+00 3.35900102e-13
9.62360379e+00 2.87007353e-12 3.04312818e-13 0.00000000e+00 2.56576072e-12 0.00000000e+00 3.04312818e-13
9.94567731e+00 2.67504901e-12 2.75695930e-13 0.00000000e+00 2.39935308e-12 0.00000000e+00 2.75695930e-13
1.02785297e+01 2.43396606e-12 2.49770110e-13 0.00000000e+00 2.18419595e-12 0.00000000e+00 2.49770110e-13
1.06225216e+01 2.20193149e-12 2.26282295e-13 0.00000000e+00 1.97564919e-12 0.00000000e+00 2.26282295e-13
1.09780260e+01 1.95835507e-12 2.05003220e-13 0.00000000e+00 1.75335185e-12 0.00000000e+00 2.05003220e-13
1.13454280e+01 1.74423461e-12 1.85725182e-13 0.00000000e+00 1.55850943e-12 0.00000000e+00 1.85725182e-13
1.17251259e+01 1.55949623e-12 1.68260007e-13 0.00000000e+00 1.39123622e-12 0.00000000e+00 1.68260007e-13
1.21175312e+01 1.39404063e-12 1.52437217e-13 0.00000000e+00 1.24160341e-12 0.00000000e+00 1.52437217e-13
1.25230691e+01 1.24785597e-12 1.38102367e-13 0.00000000e+00 1.10975361e-12 0.00000000e+00 1.38102367e-13
1.29421791e+01 1.12130235e-12 1.25115533e-13 0.00000000e+00 9.96186820e-13 0.00000000e+00 1.25115533e-13
1.33753155e+01 1.01298738e-12 1.13349952e-13 0.00000000e+00 8.99637429e-13 0.00000000e+00 1.13349952e-13
1.38229477e+01 9.42750023e-13 1.02690779e-13 0.00000000e+00 8.40059244e-13 0.00000000e+00 1.02690779e-13
1.42855609e+01 8.99573966e-13 9.30339713e-14 0.00000000e+00 8.06539995e-13 0.00000000e+00 9.30339713e-14
1.47636563e+01 9.05297275e-13 8.42852675e-14 0.00000000e+00 8.21012008e-13 0.00000000e+00 8.42852675e-14
1.52577522e+01 9.21522939e-13 7.63592720e-14 0.00000000e+00 8.45163667e-13 0.00000000e+00 7.63592720e-14
1.57683840e+01 9.48628515e-13 6.91786191e-14 0.00000000e+00 8.79449896e-13 0.00000000e+00 6.91786191e-14
1.62961051e+01 9.76384788e-13 6.26732185e-14 0.00000000e+00 9.13711570e-13 0.00000000e+00 6.26732185e-14
1.68414875e+01 1.00634105e-12 5.67795711e-14 0.00000000e+00 9.49561480e-13 0.00000000e+00 5.67795711e-14
1.74051222e+01 1.01964068e-12 5.14401489e-14 0.00000000e+00 9.68200530e-13 0.00000000e+00 5.14401489e-14
1.79876201e+01 1.02725984e-12 4.66028339e-14 0.00000000e+00 9.80657008e-13 0.00000000e+00 4.66028339e-14
1.85896125e+01 1.01440174e-12 4.22204090e-14 0.00000000e+00 9.72181327e-13 0.00000000e+00 4.22204090e-14
1.92117518e+01 9.85643098e-13 3.82500974e-14 0.00000000e+00 9.47393000e-13 0.00000000e+00 3.82500974e-14
1.98547123e+01 9.48018460e-13 3.46531450e-14 0.00000000e+00 9.13365315e-13 0.00000000e+00 3.46531450e-14
2.05191907e+01 9.07419102e-13 3.13944418e-14 0.00000000e+00 8.76024661e-13 0.00000000e+00 3.13944418e-14
2.12059073e+01 8.67411289e-13 2.84421796e-14 0.00000000e+00 8.38969110e-13 0.00000000e+00 2.84421796e-14
2.19156062e+01 8.33209823e-13 2.57675415e-14 0.00000000e+00 8.07442281e-13 0.00000000e+00 2.57675415e-14
2.26490567e+01 7.98868510e-13 2.33444203e-14 0.00000000e+00 7.75524090e-13 0.00000000e+00 2.33444203e-14
2.34070535e+01 7.68616651e-13 2.11491639e-14 0.00000000e+00 7.47467487e-13 0.00000000e+00 2.11491639e-14
2.41904183e+01 7.39590956e-13 1.91603445e-14 0.00000000e+00 7.20430611e-13 0.00000000e+00 1.91603445e-14
2.50000000e+01 7.12960813e-13 1.73585491e-14 0.00000000e+00 6.95602263e-13 0.00000000e+00 1.73585491e-14
2.75422870e+01 6.34821160e-13 1.29817562e-14 0.00000000e+00 6.21839404e-13 0.00000000e+00 1.29817562e-14
3.16227766e+01 5.26695098e-13 8.57696126e-15 0.00000000e+00 5.18118137e-13 0.00000000e+00 8.57696126e-15
3.63078055e+01 4.15641071e-13 5.66674211e-15 0.00000000e+00 4.09974329e-13 0.00000000e+00 5.66674211e-15
4.16869383e+01 3.07002738e-13 3.74397938e-15 0.00000000e+00 3.03258759e-13 0.00000000e+00 3.74397938e-15
4.78630092e+01 2.11850292e-13 2.47362265e-15 0.00000000e+00 2.09376669e-13 0.00000000e+00 2.47362265e-15
5.49540874e+01 1.38182233e-13 1.63430628e-15 0.00000000e+00 1.36547927e-13 0.00000000e+00 1.63430628e-15
6.30957344e+01 8.61916590e-14 1.07977545e-15 0.00000000e+00 8.51118836e-14 0.00000000e+00 1.07977545e-15
7.24435960e+01 5.18234258e-14 7.13400564e-16 0.00000000e+00 5.11100252e-14 0.00000000e+00 7.13400564e-16
8.31763771e+01 3.03277120e-14 4.71339078e-16 0.00000000e+00 2.98563729e-14 0.00000000e+00 4.71339078e-16
9.54992586e+01 1.73908055e-14 3.11410641e-16 0.00000000e+00 1.70793949e-14 0.00000000e+00 3.11410641e-16
1.09647820e+02 9.81668723e-15 2.05746970e-16 0.00000000e+00 9.61094026e-15 0.00000000e+00 2.05746970e-16
1.25892541e+02 5.53488790e-15 1.35935675e-16 0.00000000e+00 5.39895222e-15 0.00000000e+00 1.35935675e-16
1.44543977e+02 3.10026349e-15 8.98118099e-17 0.00000000e+00 3.01045168e-15 0.00000000e+00 8.98118099e-17
1.65958691e+02 1.65495798e-15 5.93380743e-17 0.00000000e+00 1.59561991e-15 0.00000000e+00 5.93380743e-17
1.90546072e+02 8.84455163e-16 3.92042769e-17 0.00000000e+00 8.45250886e-16 0.00000000e+00 3.92042769e-17
2.18776162e+02 4.72284166e-16 2.59020089e-17 0.00000000e+00 4.46382157e-16 0.00000000e+00 2.59020089e-17
2.51188643e+02 2.51732109e-16 1.71132876e-17 0.00000000e+00 2.34618822e-16 0.00000000e+00 1.71132876e-17
2.88403150e+02 1.33893071e-16 1.13066370e-17 0.00000000e+00 1.22586434e-16 0.00000000e+00 1.13066370e-17
3.31131121e+02 7.12747692e-17 7.47022097e-18 0.00000000e+00 6.38045482e-17 0.00000000e+00 7.47022097e-18
3.80189396e+02 3.79841011e-17 4.93552605e-18 0.00000000e+00 3.30485750e-17 0.00000000e+00 4.93552605e-18
4.36515832e+02 2.03213062e-17 3.26086972e-18 0.00000000e+00 1.70604365e-17 0.00000000e+00 3.26086972e-18
5.01187234e+02 1.09304030e-17 2.15443526e-18 0.00000000e+00 8.77596771e-18 0.00000000e+00 2.15443526e-18
5.75439937e+02 5.92456922e-18 1.42342126e-18 0.00000000e+00 4.50114796e-18 0.00000000e+00 1.42342126e-18
6.60693448e+02 3.24320713e-18 9.40445101e-19 0.00000000e+00 2.30276202e-18 0.00000000e+00 9.40445101e-19
7.58577575e+02 1.79679389e-18 6.21345916e-19 0.00000000e+00 1.17544797e-18 0.00000000e+00 6.21345916e-19
8.70963590e+02 1.00922038e-18 4.10519176e-19 0.00000000e+00 5.98701201e-19 0.00000000e+00 4.10519176e-19
1.00000000e+03 3.04323487e-19 0.00000000e+00 0.00000000e+00 3.04323487e-19 0.00000000e+00 0.00000000e+00
