# column 1: lambda (micron)
# column 2: total flux; lambda*F_lambda (W/m2)
# column 3: direct stellar flux; lambda*F_lambda (W/m2)
# column 4: scattered stellar flux; lambda*F_lambda (W/m2)
# column 5: total dust emission flux; lambda*F_lambda (W/m2)
# column 6: dust emission scattered flux; lambda*F_lambda (W/m2)
# column 7: transparent flux; lambda*F_lambda (W/m2)
1.00000000e-03 1.07335696e-12 1.07335627e-12 6.91734034e-19 0.00000000e+00 0.00000000e+00 1.07335627e-12
1.14815362e-03 1.26690563e-12 1.26690456e-12 1.07762903e-18 0.00000000e+00 0.00000000e+00 1.26690456e-12
1.31825674e-03 1.49535522e-12 1.49535359e-12 1.62839864e-18 0.00000000e+00 0.00000000e+00 1.49535359e-12
1.51356125e-03 1.76499922e-12 1.76499670e-12 2.51789748e-18 0.00000000e+00 0.00000000e+00 1.76499670e-12
1.73780083e-03 2.08326655e-12 2.08326203e-12 4.52830268e-18 0.00000000e+00 0.00000000e+00 2.08326203e-12
1.99526231e-03 2.45892499e-12 2.45891716e-12 7.82822883e-18 0.00000000e+00 0.00000000e+00 2.45891716e-12
2.29086765e-03 2.90232284e-12 2.90231066e-12 1.21727283e-17 0.00000000e+00 0.00000000e+00 2.90231066e-12
2.63026799e-03 3.42568153e-12 3.42565717e-12 2.43656734e-17 0.00000000e+00 0.00000000e+00 3.42565717e-12
3.01995172e-03 4.04341419e-12 4.04337385e-12 4.03417411e-17 0.00000000e+00 0.00000000e+00 4.04337385e-12
3.46736850e-03 4.77254504e-12 4.77247759e-12 6.74501419e-17 0.00000000e+00 0.00000000e+00 4.77247759e-12
3.98107171e-03 5.63316361e-12 5.63305378e-12 1.09831244e-16 0.00000000e+00 0.00000000e+00 5.63305378e-12
4.57088190e-03 6.64904960e-12 6.64880962e-12 2.39981433e-16 0.00000000e+00 0.00000000e+00 6.64880962e-12
5.24807460e-03 7.84815374e-12 7.84772720e-12 4.26544601e-16 0.00000000e+00 0.00000000e+00 7.84772720e-12
6.02559586e-03 9.26359695e-12 9.26283435e-12 7.62594720e-16 0.00000000e+00 0.00000000e+00 9.26283435e-12
6.91830971e-03 1.09343715e-11 1.09331145e-11 1.25693895e-15 0.00000000e+00 0.00000000e+00 1.09331145e-11
7.94328235e-03 1.29066150e-11 1.29045807e-11 2.03432437e-15 0.00000000e+00 0.00000000e+00 1.29045807e-11
9.12010839e-03 1.52347549e-11 1.52315429e-11 3.21197286e-15 0.00000000e+00 0.00000000e+00 1.52315429e-11
1.04712855e-02 1.70158325e-11 1.70115517e-11 4.28078369e-15 0.00000000e+00 0.00000000e+00 1.70115517e-11
1.20226443e-02 1.70180502e-11 1.70115517e-11 6.49844397e-15 1.80808820e-312 6.96203332e-314 1.70115517e-11
1.38038426e-02 1.70207468e-11 1.70115517e-11 9.19511898e-15 4.45857974e-273 2.25573785e-274 1.70115517e-11
1.58489319e-02 1.70248726e-11 1.70115517e-11 1.33208805e-14 8.58346920e-239 4.95492366e-240 1.70115517e-11
1.81970086e-02 1.70371697e-11 1.70115517e-11 2.56179587e-14 5.86194681e-209 3.52141117e-210 1.70115517e-11
2.08929613e-02 1.70381615e-11 1.70115517e-11 2.66097705e-14 5.05608552e-183 3.19426879e-184 1.70115517e-11
2.39883292e-02 1.70456825e-11 1.70115517e-11 3.41307878e-14 1.89102092e-160 1.26987080e-161 1.70115517e-11
2.75422870e-02 1.70610763e-11 1.70115517e-11 4.95245918e-14 8.32818861e-141 6.27474816e-142 1.70115517e-11
3.16227766e-02 1.70708762e-11 1.70115517e-11 5.93245113e-14 9.94963929e-124 7.82360760e-125 1.70115517e-11
3.63078055e-02 1.70815495e-11 1.70115517e-11 6.99977580e-14 6.91226107e-109 5.45893410e-110 1.70115517e-11
4.16869383e-02 1.71130660e-11 1.70115517e-11 1.01514302e-13 5.53554238e-96 5.32730106e-97 1.70115517e-11
4.78630092e-02 1.71456834e-11 1.70115517e-11 1.34131692e-13 8.80998987e-85 9.74935837e-86 1.70115517e-11
5.49540874e-02 1.71825253e-11 1.70115517e-11 1.70973578e-13 4.66860332e-75 5.95999070e-76 1.70115517e-11
6.30957344e-02 1.72203681e-11 1.70115517e-11 2.08816414e-13 1.67254843e-66 2.47432357e-67 1.70115517e-11
7.24435960e-02 1.72142278e-11 1.70115517e-11 2.02676100e-13 4.43674498e-59 6.69342025e-60 1.70115517e-11
8.31763771e-02 1.72117329e-11 1.70115517e-11 2.00181184e-13 1.12888977e-52 1.67049862e-53 1.70115517e-11
9.54992586e-02 1.72190211e-11 1.70115517e-11 2.07469431e-13 4.99877929e-47 7.75366609e-48 1.70115517e-11
1.09647820e-01 1.64648103e-11 1.62459122e-11 2.18898145e-13 4.64516481e-42 7.67447685e-43 1.62459122e-11
1.25892541e-01 1.53556550e-11 1.51615674e-11 1.94087619e-13 1.07402083e-37 1.77568296e-38 1.51615674e-11
1.44543977e-01 1.43241331e-11 1.41495980e-11 1.74535146e-13 6.61055369e-34 1.07060231e-34 1.41495980e-11
1.65958691e-01 1.33909586e-11 1.32051732e-11 1.85785483e-13 9.90758802e-31 1.76025590e-31 1.32051732e-11
1.90546072e-01 1.25380913e-11 1.23237846e-11 2.14306616e-13 4.10827595e-28 8.66402798e-29 1.23237846e-11
2.18776162e-01 1.17148277e-11 1.15012250e-11 2.13602699e-13 6.55110383e-26 1.48456603e-26 1.15012250e-11
2.51188643e-01 1.09897780e-11 1.07335677e-11 2.56210308e-13 9.01236341e-24 2.45032137e-24 1.07335677e-11
2.88403150e-01 1.02485812e-11 1.00171482e-11 2.31432915e-13 6.32802558e-22 1.74427390e-22 1.00171482e-11
3.31131121e-01 9.55569376e-12 9.34854667e-12 2.07147068e-13 2.41788332e-20 6.69181174e-21 9.34854667e-12
3.80189396e-01 8.91398790e-12 8.72457139e-12 1.89415964e-13 5.49729375e-19 1.51940014e-19 8.72457139e-12
4.36515832e-01 8.32159324e-12 8.14224377e-12 1.79341503e-13 7.96892701e-18 2.23653536e-18 8.14224377e-12
5.01187234e-01 7.76472602e-12 7.59878402e-12 1.65864709e-13 7.72909873e-17 2.16860175e-17 7.59878402e-12
5.75439937e-01 7.25206385e-12 7.09159786e-12 1.59933851e-13 5.32138006e-16 1.47493907e-16 7.09159786e-12
6.60693448e-01 6.76954332e-12 6.61826421e-12 1.48587044e-13 2.69207178e-15 7.37497974e-16 6.61826421e-12
7.58577575e-01 6.32226272e-12 6.17652353e-12 1.35080468e-13 1.06587160e-14 2.82229852e-15 6.17652353e-12
8.70963590e-01 5.92021111e-12 5.76426715e-12 1.21689010e-13 3.42549471e-14 8.64656740e-15 5.76426715e-12
1.00000000e+00 5.57975676e-12 5.37952711e-12 1.09022358e-13 9.12072949e-14 2.16257446e-14 5.37952711e-12
1.14815362e+00 5.32117122e-12 5.02046681e-12 9.03190070e-14 2.10385397e-13 4.48860922e-14 5.02046681e-12
1.31825674e+00 5.18842027e-12 4.68537225e-12 7.28545662e-14 4.30193456e-13 8.05529037e-14 4.68537225e-12
1.51356125e+00 5.21032478e-12 4.37264380e-12 5.77577361e-14 7.79923241e-13 1.24543011e-13 4.37264380e-12
1.73780083e+00 5.38147003e-12 4.08078863e-12 4.39054844e-14 1.25677591e-12 1.67209208e-13 4.08078863e-12
1.99526231e+00 5.64772084e-12 3.80841354e-12 3.28083967e-14 1.80649890e-12 1.90350724e-13 3.80841354e-12
2.29086765e+00 5.90958677e-12 3.55421832e-12 2.38012387e-14 2.33156721e-12 1.90010836e-13 3.55421832e-12
2.63026799e+00 6.09669194e-12 3.31698953e-12 1.71005776e-14 2.76260183e-12 1.67471097e-13 3.31698953e-12
3.01995172e+00 6.14464985e-12 3.09559474e-12 1.15982879e-14 3.03745682e-12 1.35062263e-13 3.09559474e-12
3.46736850e+00 6.05640352e-12 2.88897711e-12 7.93797394e-15 3.15948844e-12 1.00137588e-13 2.88897711e-12
3.98107171e+00 5.81865840e-12 2.69615031e-12 5.10209754e-15 3.11740599e-12 6.91007730e-14 2.69615031e-12
4.57088190e+00 5.47890510e-12 2.51619387e-12 3.23369029e-15 2.95947753e-12 4.38955204e-14 2.51619387e-12
5.24807460e+00 4.82566932e-12 2.08050667e-12 1.75200344e-15 2.74341065e-12 2.65760812e-14 2.08050667e-12
6.02559586e+00 3.88805919e-12 1.37457712e-12 7.24670143e-16 2.51275739e-12 1.53100555e-14 1.37457712e-12
6.70000000e+00 3.33000513e-12 9.99872685e-13 3.58880777e-16 2.32977357e-12 9.58669643e-15 9.99872685e-13
6.92422916e+00 3.17850687e-12 9.05846924e-13 2.88784092e-16 2.27237116e-12 8.21960083e-15 9.05846924e-13
7.15596261e+00 3.05675625e-12 8.20663132e-13 2.28367089e-16 2.23586475e-12 7.03269341e-15 8.20663132e-13
7.39545150e+00 2.99349867e-12 7.43489831e-13 1.74802079e-16 2.24983404e-12 6.01552967e-15 7.43489831e-13
7.64295536e+00 3.08965361e-12 6.73573732e-13 1.26972663e-16 2.41595291e-12 5.19378217e-15 6.73573732e-13
7.89874245e+00 3.41135250e-12 6.10232385e-13 8.26776480e-17 2.80103743e-12 4.42748105e-15 6.10232385e-13
8.16308998e+00 3.89863991e-12 5.52847515e-13 5.07196165e-17 3.34574167e-12 3.75925812e-15 5.52847515e-13
8.43628443e+00 4.58000045e-12 5.00858987e-13 3.01486092e-17 4.07911132e-12 3.04939948e-15 5.00858987e-13
8.71862190e+00 5.02113091e-12 4.53759343e-13 1.89999689e-17 4.56735257e-12 2.44835184e-15 4.53759343e-13
9.01040836e+00 5.48472234e-12 4.11088843e-13 1.13504434e-17 5.07362214e-12 1.81508162e-15 4.11088843e-13
9.31196005e+00 5.84205122e-12 3.72430980e-13 0.00000000e+00 5.46962024e-12 0.00000000e+00 3.72430980e-13
9.62360379e+00 5.78904417e-12 3.37408415e-13 0.00000000e+00 5.45163576e-12 0.00000000e+00 3.37408415e-13
9.94567731e+00 5.42948254e-12 3.05679292e-13 0.00000000e+00 5.12380325e-12 0.00000000e+00 3.05679292e-13
1.02785297e+01 4.99082893e-12 2.76933904e-13 0.00000000e+00 4.71389503e-12 0.00000000e+00 2.76933904e-13
1.06225216e+01 4.57326011e-12 2.50891667e-13 0.00000000e+00 4.32236844e-12 0.00000000e+00 2.50891667e-13
1.09780260e+01 4.12093771e-12 2.27298384e-13 0.00000000e+00 3.89363933e-12 0.00000000e+00 2.27298384e-13
1.13454280e+01 3.71557058e-12 2.05923759e-13 0.00000000e+00 3.50964682e-12 0.00000000e+00 2.05923759e-13
1.17251259e+01 3.37916212e-12 1.86559155e-13 0.00000000e+00 3.19260296e-12 0.00000000e+00 1.86559155e-13
1.21175312e+01 3.06593084e-12 1.69015555e-13 0.00000000e+00 2.89691528e-12 0.00000000e+00 1.69015555e-13
1.25230691e+01 2.78669649e-12 1.53121715e-13 0.00000000e+00 2.63357477e-12 0.00000000e+00 1.53121715e-13
1.29421791e+01 2.54473554e-12 1.38722496e-13 0.00000000e+00 2.40601304e-12 0.00000000e+00 1.38722496e-13
1.33753155e+01 2.34301499e-12 1.25677347e-13 0.00000000e+00 2.21733764e-12 0.00000000e+00 1.25677347e-13
1.38229477e+01 2.21404689e-12 1.13858934e-13 0.00000000e+00 2.10018796e-12 0.00000000e+00 1.13858934e-13
1.42855609e+01 2.14812901e-12 1.03151898e-13 0.00000000e+00 2.04497711e-12 0.00000000e+00 1.03151898e-13
1.47636563e+01 2.19347142e-12 9.34517274e-14 0.00000000e+00 2.10001970e-12 0.00000000e+00 9.34517274e-14
1.52577522e+01 2.26245738e-12 8.46637387e-14 0.00000000e+00 2.17779364e-12 0.00000000e+00 8.46637387e-14
1.57683840e+01 2.35716641e-12 7.67021526e-14 0.00000000e+00 2.28046426e-12 0.00000000e+00 7.67021526e-14
1.62961051e+01 2.46011413e-12 6.94892560e-14 0.00000000e+00 2.39062487e-12 0.00000000e+00 6.94892560e-14
1.68414875e+01 2.56487730e-12 6.29546439e-14 0.00000000e+00 2.50192266e-12 0.00000000e+00 6.29546439e-14
1.74051222e+01 2.64008113e-12 5.70345319e-14 0.00000000e+00 2.58304660e-12 0.00000000e+00 5.70345319e-14
1.79876201e+01 2.69095398e-12 5.16711337e-14 0.00000000e+00 2.63928284e-12 0.00000000e+00 5.16711337e-14
1.85896125e+01 2.69923441e-12 4.68120974e-14 0.00000000e+00 2.65242231e-12 0.00000000e+00 4.68120974e-14
1.92117518e+01 2.66523112e-12 4.24099939e-14 0.00000000e+00 2.62282113e-12 0.00000000e+00 4.24099939e-14
1.98547123e+01 2.60630120e-12 3.84218542e-14 0.00000000e+00 2.56787935e-12 0.00000000e+00 3.84218542e-14
2.05191907e+01 2.53870333e-12 3.48087501e-14 0.00000000e+00 2.50389458e-12 0.00000000e+00 3.48087501e-14
2.12059073e+01 2.46558037e-12 3.15354141e-14 0.00000000e+00 2.43404496e-12 0.00000000e+00 3.15354141e-14
2.19156062e+01 2.41225552e-12 2.85698952e-14 0.00000000e+00 2.38368562e-12 0.00000000e+00 2.85698952e-14
2.26490567e+01 2.35446292e-12 2.58832470e-14 0.00000000e+00 2.32857967e-12 0.00000000e+00 2.58832470e-14
2.34070535e+01 2.29909774e-12 2.34492452e-14 0.00000000e+00 2.27564850e-12 0.00000000e+00 2.34492452e-14
2.41904183e+01 2.24831835e-12 2.12441313e-14 0.00000000e+00 2.22707422e-12 0.00000000e+00 2.12441313e-14
2.50000000e+01 2.19140952e-12 1.92463813e-14 0.00000000e+00 2.17216314e-12 0.00000000e+00 1.92463813e-14
2.75422870e+01 2.03001582e-12 1.43935895e-14 0.00000000e+00 2.01562223e-12 0.00000000e+00 1.43935895e-14
3.16227766e+01 1.76451664e-12 9.50975027e-15 0.00000000e+00 1.75500689e-12 0.00000000e+00 9.50975027e-15
3.63078055e+01 1.44725838e-12 6.28302969e-15 0.00000000e+00 1.44097535e-12 0.00000000e+00 6.28302969e-15
4.16869383e+01 1.10371429e-12 4.15115655e-15 0.00000000e+00 1.09956314e-12 0.00000000e+00 4.15115655e-15
4.78630092e+01 7.83232819e-13 2.74264194e-15 0.00000000e+00 7.80490177e-13 0.00000000e+00 2.74264194e-15
5.49540874e+01 5.22175622e-13 1.81204556e-15 0.00000000e+00 5.20363576e-13 0.00000000e+00 1.81204556e-15
6.30957344e+01 3.30925395e-13 1.19720663e-15 0.00000000e+00 3.29728188e-13 0.00000000e+00 1.19720663e-15
7.24435960e+01 2.01449942e-13 7.90986575e-16 0.00000000e+00 2.00658956e-13 0.00000000e+00 7.90986575e-16
8.31763771e+01 1.18835966e-13 5.22599647e-16 0.00000000e+00 1.18313367e-13 0.00000000e+00 5.22599647e-16
9.54992586e+01 6.84770403e-14 3.45278163e-16 0.00000000e+00 6.81317621e-14 0.00000000e+00 3.45278163e-16
1.09647820e+02 3.87554224e-14 2.28123020e-16 0.00000000e+00 3.85272994e-14 0.00000000e+00 2.28123020e-16
1.25892541e+02 2.18605170e-14 1.50719385e-16 0.00000000e+00 2.17097977e-14 0.00000000e+00 1.50719385e-16
1.44543977e+02 1.22309262e-14 9.95793099e-17 0.00000000e+00 1.21313469e-14 0.00000000e+00 9.95793099e-17
1.65958691e+02 6.50936209e-15 6.57913976e-17 0.00000000e+00 6.44357070e-15 0.00000000e+00 6.57913976e-17
1.90546072e+02 3.46130335e-15 4.34679453e-17 0.00000000e+00 3.41783540e-15 0.00000000e+00 4.34679453e-17
2.18776162e+02 1.83526281e-15 2.87189867e-17 0.00000000e+00 1.80654382e-15 0.00000000e+00 2.87189867e-17
2.51188643e+02 9.69026891e-16 1.89744463e-17 0.00000000e+00 9.50052445e-16 0.00000000e+00 1.89744463e-17
2.88403150e+02 5.09112970e-16 1.25362924e-17 0.00000000e+00 4.96576678e-16 0.00000000e+00 1.25362924e-17
3.31131121e+02 2.66795103e-16 8.28264623e-18 0.00000000e+00 2.58512457e-16 0.00000000e+00 8.28264623e-18
3.80189396e+02 1.39390787e-16 5.47229010e-18 0.00000000e+00 1.33918497e-16 0.00000000e+00 5.47229010e-18
4.36515832e+02 7.27513106e-17 3.61550621e-18 0.00000000e+00 6.91358044e-17 0.00000000e+00 3.61550621e-18
5.01187234e+02 3.79528973e-17 2.38874127e-18 0.00000000e+00 3.55641561e-17 0.00000000e+00 2.38874127e-18
5.75439937e+02 1.98185692e-17 1.57822570e-18 0.00000000e+00 1.82403435e-17 0.00000000e+00 1.57822570e-18
6.60693448e+02 1.03739363e-17 1.04272338e-18 0.00000000e+00 9.33121293e-18 0.00000000e+00 1.04272338e-18
7.58577575e+02 5.45181284e-18 6.88920507e-19 0.00000000e+00 4.76289233e-18 0.00000000e+00 6.88920507e-19
8.70963590e+02 2.88094928e-18 4.55165265e-19 0.00000000e+00 2.42578401e-18 0.00000000e+00 4.55165265e-19
1.00000000e+03 1.23296997e-18 0.00000000e+00 0.00000000e+00 1.23296997e-18 0.00000000e+00 0.00000000e+00
