# column 1: lambda (micron)
# column 2: total flux; lambda*F_lambda (W/m2)
# column 3: direct stellar flux; lambda*F_lambda (W/m2)
# column 4: scattered stellar flux; lambda*F_lambda (W/m2)
# column 5: total dust emission flux; lambda*F_lambda (W/m2)
# column 6: dust emission scattered flux; lambda*F_lambda (W/m2)
# column 7: transparent flux; lambda*F_lambda (W/m2)
1.00000000e-03 1.04635435e-12 1.04634360e-12 1.07428843e-17 0.00000000e+00 0.00000000e+00 1.04634360e-12
1.14815362e-03 1.23503699e-12 1.23502095e-12 1.60427181e-17 0.00000000e+00 0.00000000e+00 1.23502095e-12
1.31825674e-03 1.45774504e-12 1.45772071e-12 2.43285144e-17 0.00000000e+00 0.00000000e+00 1.45772071e-12
1.51356125e-03 1.72061440e-12 1.72057784e-12 3.65668133e-17 0.00000000e+00 0.00000000e+00 1.72057784e-12
1.73780083e-03 2.03089845e-12 2.03083353e-12 6.49272891e-17 0.00000000e+00 0.00000000e+00 2.03083353e-12
1.99526231e-03 2.39714822e-12 2.39703472e-12 1.13504787e-16 0.00000000e+00 0.00000000e+00 2.39703472e-12
2.29086765e-03 2.82945017e-12 2.82926954e-12 1.80632795e-16 0.00000000e+00 0.00000000e+00 2.82926954e-12
2.63026799e-03 3.33980039e-12 3.33944522e-12 3.55170248e-16 0.00000000e+00 0.00000000e+00 3.33944522e-12
3.01995172e-03 3.94220648e-12 3.94161611e-12 5.90371335e-16 0.00000000e+00 0.00000000e+00 3.94161611e-12
3.46736850e-03 4.65336409e-12 4.65237083e-12 9.93258304e-16 0.00000000e+00 0.00000000e+00 4.65237083e-12
3.98107171e-03 5.49289768e-12 5.49128930e-12 1.60838409e-15 0.00000000e+00 0.00000000e+00 5.49128930e-12
4.57088190e-03 6.48497360e-12 6.48148207e-12 3.49152634e-15 0.00000000e+00 0.00000000e+00 6.48148207e-12
5.24807460e-03 7.65685657e-12 7.65022704e-12 6.62952556e-15 0.00000000e+00 0.00000000e+00 7.65022704e-12
6.02559586e-03 9.07908847e-12 9.02972084e-12 4.93676251e-14 0.00000000e+00 0.00000000e+00 9.02972084e-12
6.91830971e-03 1.06789404e-11 1.06579658e-11 2.09745112e-14 0.00000000e+00 0.00000000e+00 1.06579658e-11
7.94328235e-03 1.26231100e-11 1.25798170e-11 4.32929558e-14 0.00000000e+00 0.00000000e+00 1.25798170e-11
9.12010839e-03 1.49050706e-11 1.48482176e-11 5.68530217e-14 0.00000000e+00 0.00000000e+00 1.48482176e-11
1.04712855e-02 1.66589471e-11 1.65834298e-11 7.55172897e-14 0.00000000e+00 0.00000000e+00 1.65834298e-11
1.20226443e-02 1.66968123e-11 1.65834298e-11 1.13382467e-13 1.58903768e-311 8.89991354e-313 1.65834298e-11
1.38038426e-02 1.67538608e-11 1.65834298e-11 1.70430968e-13 2.43365898e-272 1.50794007e-273 1.65834298e-11
1.58489319e-02 1.68172843e-11 1.65834298e-11 2.33854520e-13 3.09815789e-238 2.00041343e-239 1.65834298e-11
1.81970086e-02 1.68974878e-11 1.65834298e-11 3.14058022e-13 1.49998022e-208 1.17636442e-209 1.65834298e-11
2.08929613e-02 1.70203030e-11 1.65834298e-11 4.36873209e-13 9.53513140e-183 8.21174025e-184 1.65834298e-11
2.39883292e-02 1.71799677e-11 1.65834298e-11 5.96537909e-13 2.74755536e-160 2.70626090e-161 1.65834298e-11
2.75422870e-02 1.73017116e-11 1.65834298e-11 7.18281789e-13 9.61918544e-141 1.07201606e-141 1.65834298e-11
3.16227766e-02 1.74003015e-11 1.65834298e-11 8.16871735e-13 9.37345339e-124 1.08339185e-124 1.65834298e-11
3.63078055e-02 1.75136037e-11 1.65834298e-11 9.30173919e-13 5.45805664e-109 6.42442350e-110 1.65834298e-11
4.16869383e-02 1.77207751e-11 1.65834298e-11 1.13734534e-12 3.72097810e-96 4.81447738e-97 1.65834298e-11
4.78630092e-02 1.78154919e-11 1.65834298e-11 1.23206216e-12 5.14544024e-85 7.10550015e-86 1.65834298e-11
5.49540874e-02 1.78930202e-11 1.65834298e-11 1.30959043e-12 2.39507290e-75 3.43465779e-76 1.65834298e-11
6.30957344e-02 1.78498410e-11 1.65834298e-11 1.26641123e-12 7.70060893e-67 1.14918815e-67 1.65834298e-11
7.24435960e-02 1.76766875e-11 1.65834298e-11 1.09325776e-12 1.93854478e-59 2.75016096e-60 1.65834298e-11
8.31763771e-02 1.76206928e-11 1.65834298e-11 1.03726306e-12 5.31091616e-53 7.79164749e-54 1.65834298e-11
9.54992586e-02 1.76260467e-11 1.65834298e-11 1.04261691e-12 2.82213660e-47 4.59882881e-48 1.65834298e-11
1.09647820e-01 1.69400377e-11 1.58370587e-11 1.10297897e-12 3.14398876e-42 5.80792306e-43 1.58370587e-11
1.25892541e-01 1.58675187e-11 1.47800032e-11 1.08751550e-12 8.15486514e-38 1.57463574e-38 1.47800032e-11
1.44543977e-01 1.48059071e-11 1.37935015e-11 1.01240556e-12 5.41020890e-34 1.07084916e-34 1.37935015e-11
1.65958691e-01 1.38424447e-11 1.28728446e-11 9.69600071e-13 8.72391529e-31 1.92450516e-31 1.28728446e-11
1.90546072e-01 1.29848290e-11 1.20136376e-11 9.71191415e-13 3.82769591e-28 9.92157267e-29 1.20136376e-11
2.18776162e-01 1.20534648e-11 1.12117790e-11 8.41685819e-13 6.35595340e-26 1.69502350e-26 1.12117790e-11
2.51188643e-01 1.13420951e-11 1.04634409e-11 8.78654203e-13 9.57138562e-24 3.08741823e-24 1.04634409e-11
2.88403150e-01 1.05919428e-11 9.76505125e-12 8.26891522e-13 7.55758288e-22 2.56946094e-22 9.76505125e-12
3.31131121e-01 9.87290082e-12 9.11327608e-12 7.59624704e-13 3.19928033e-20 1.10517867e-20 9.11327608e-12
3.80189396e-01 9.19577704e-12 8.50500410e-12 6.90772153e-13 7.93650021e-19 2.73967181e-19 8.50500410e-12
4.36515832e-01 8.54290979e-12 7.93733165e-12 6.05565708e-13 1.24282487e-17 4.24174867e-18 7.93733165e-12
5.01187234e-01 7.95356936e-12 7.40754890e-12 5.45891543e-13 1.28912333e-16 4.33126006e-17 7.40754890e-12
5.75439937e-01 7.39752257e-12 6.91312687e-12 4.83469209e-13 9.26491345e-16 3.03522826e-16 6.91312687e-12
6.60693448e-01 6.86903938e-12 6.45170538e-12 4.12491269e-13 4.84272690e-15 1.51074307e-15 6.45170538e-12
7.58577575e-01 6.39949217e-12 6.02108180e-12 3.58870922e-13 1.95394490e-14 5.72029517e-15 6.02108180e-12
8.70963590e-01 5.98969507e-12 5.61920048e-12 3.06929719e-13 6.35648704e-14 1.73568872e-14 5.61920048e-12
1.00000000e+00 5.66820405e-12 5.24414302e-12 2.54051945e-13 1.70009085e-13 4.21622350e-14 5.24414302e-12
1.14815362e+00 5.49434671e-12 4.89411902e-12 2.05756823e-13 3.94470867e-13 8.61458187e-14 4.89411902e-12
1.31825674e+00 5.54416409e-12 4.56745763e-12 1.64794733e-13 8.11911728e-13 1.51999034e-13 4.56745763e-12
1.51356125e+00 5.88635897e-12 4.26259947e-12 1.28380433e-13 1.49537906e-12 2.37975216e-13 4.26259947e-12
1.73780083e+00 6.54212015e-12 3.97808929e-12 1.01530770e-13 2.46250009e-12 3.23047800e-13 3.97808929e-12
1.99526231e+00 7.45529181e-12 3.71256894e-12 7.80985820e-14 3.66462429e-12 3.87880764e-13 3.71256894e-12
2.29086765e+00 8.51792496e-12 3.46477093e-12 5.85834557e-14 4.99457057e-12 4.11978265e-13 3.46477093e-12
2.63026799e+00 9.59379047e-12 3.23351237e-12 4.30990477e-14 6.31717905e-12 4.01624555e-13 3.23351237e-12
3.01995172e+00 1.05820884e-11 3.01768933e-12 3.03984250e-14 7.53400062e-12 3.62565540e-13 3.01768933e-12
3.46736850e+00 1.14810652e-11 2.81627154e-12 2.11109961e-14 8.64368267e-12 3.09852504e-13 2.81627154e-12
3.98107171e+00 1.21454110e-11 2.62829753e-12 1.42210528e-14 9.50289241e-12 2.46405108e-13 2.62829753e-12
4.57088190e+00 1.25342450e-11 2.45286997e-12 9.14240979e-15 1.00722326e-11 1.80840388e-13 2.45286997e-12
5.24807460e+00 1.25143674e-11 2.02814751e-12 5.10041980e-15 1.04811194e-11 1.26402374e-13 2.02814751e-12
6.02559586e+00 1.19862328e-11 1.33998377e-12 2.16173345e-15 1.06440873e-11 8.27499656e-14 1.33998377e-12
6.70000000e+00 1.16459735e-11 9.74709347e-13 1.07952107e-15 1.06701846e-11 5.71194074e-14 9.74709347e-13
6.92422916e+00 1.15333175e-11 8.83049889e-13 8.57572857e-16 1.06494100e-11 5.03593173e-14 8.83049889e-13
7.15596261e+00 1.14801053e-11 8.00009879e-13 6.80243722e-16 1.06794152e-11 4.41589729e-14 8.00009879e-13
7.39545150e+00 1.15448276e-11 7.24778763e-13 5.17370207e-16 1.08195315e-11 3.81151295e-14 7.24778763e-13
7.64295536e+00 1.19701159e-11 6.56622211e-13 3.66293016e-16 1.13131274e-11 3.18941093e-14 6.56622211e-13
7.89874245e+00 1.28971241e-11 5.94874946e-13 2.29569094e-16 1.23020196e-11 2.54617653e-14 5.94874946e-13
8.16308998e+00 1.42390255e-11 5.38934254e-13 1.37552313e-16 1.36999537e-11 1.99538365e-14 5.38934254e-13
8.43628443e+00 1.59826153e-11 4.88254098e-13 7.47597791e-17 1.54942864e-11 1.49123904e-14 4.88254098e-13
8.71862190e+00 1.72302733e-11 4.42339790e-13 4.44991860e-17 1.67878890e-11 1.15777862e-14 4.42339790e-13
9.01040836e+00 1.83657508e-11 4.00743158e-13 2.41426528e-17 1.79649835e-11 8.39513500e-15 4.00743158e-13
9.31196005e+00 1.92833562e-11 3.63058180e-13 0.00000000e+00 1.89202980e-11 0.00000000e+00 3.63058180e-13
9.62360379e+00 1.94693062e-11 3.28917012e-13 0.00000000e+00 1.91403892e-11 0.00000000e+00 3.28917012e-13
9.94567731e+00 1.88888576e-11 2.97986401e-13 0.00000000e+00 1.85908712e-11 0.00000000e+00 2.97986401e-13
1.02785297e+01 1.81750548e-11 2.69964435e-13 0.00000000e+00 1.79050904e-11 0.00000000e+00 2.69964435e-13
1.06225216e+01 1.74590711e-11 2.44577592e-13 0.00000000e+00 1.72144935e-11 0.00000000e+00 2.44577592e-13
1.09780260e+01 1.67468949e-11 2.21578069e-13 0.00000000e+00 1.65253168e-11 0.00000000e+00 2.21578069e-13
1.13454280e+01 1.60880119e-11 2.00741370e-13 0.00000000e+00 1.58872706e-11 0.00000000e+00 2.00741370e-13
1.17251259e+01 1.55049837e-11 1.81864106e-13 0.00000000e+00 1.53231196e-11 0.00000000e+00 1.81864106e-13
1.21175312e+01 1.49298788e-11 1.64762018e-13 0.00000000e+00 1.47651168e-11 0.00000000e+00 1.64762018e-13
1.25230691e+01 1.44456303e-11 1.49268171e-13 0.00000000e+00 1.42963621e-11 0.00000000e+00 1.49268171e-13
1.29421791e+01 1.39625047e-11 1.35231331e-13 0.00000000e+00 1.38272734e-11 0.00000000e+00 1.35231331e-13
1.33753155e+01 1.35485310e-11 1.22514483e-13 0.00000000e+00 1.34260165e-11 0.00000000e+00 1.22514483e-13
1.38229477e+01 1.33615199e-11 1.10993499e-13 0.00000000e+00 1.32505264e-11 0.00000000e+00 1.10993499e-13
1.42855609e+01 1.33302026e-11 1.00555922e-13 0.00000000e+00 1.32296467e-11 0.00000000e+00 1.00555922e-13
1.47636563e+01 1.37235083e-11 9.10998706e-14 0.00000000e+00 1.36324084e-11 0.00000000e+00 9.10998706e-14
1.52577522e+01 1.42638593e-11 8.25330452e-14 0.00000000e+00 1.41813263e-11 0.00000000e+00 8.25330452e-14
1.57683840e+01 1.48255928e-11 7.47718247e-14 0.00000000e+00 1.47508210e-11 0.00000000e+00 7.47718247e-14
1.62961051e+01 1.54728940e-11 6.77404517e-14 0.00000000e+00 1.54051535e-11 0.00000000e+00 6.77404517e-14
1.68414875e+01 1.59730445e-11 6.13702932e-14 0.00000000e+00 1.59116742e-11 0.00000000e+00 6.13702932e-14
1.74051222e+01 1.64439696e-11 5.55991699e-14 0.00000000e+00 1.63883704e-11 0.00000000e+00 5.55991699e-14
1.79876201e+01 1.68018444e-11 5.03707500e-14 0.00000000e+00 1.67514737e-11 0.00000000e+00 5.03707500e-14
1.85896125e+01 1.70211873e-11 4.56339988e-14 0.00000000e+00 1.69755533e-11 0.00000000e+00 4.56339988e-14
1.92117518e+01 1.69314852e-11 4.13426810e-14 0.00000000e+00 1.68901425e-11 0.00000000e+00 4.13426810e-14
1.98547123e+01 1.68267069e-11 3.74549090e-14 0.00000000e+00 1.67892520e-11 0.00000000e+00 3.74549090e-14
2.05191907e+01 1.65996844e-11 3.39327342e-14 0.00000000e+00 1.65657517e-11 0.00000000e+00 3.39327342e-14
2.12059073e+01 1.63590914e-11 3.07417768e-14 0.00000000e+00 1.63283496e-11 0.00000000e+00 3.07417768e-14
2.19156062e+01 1.61002242e-11 2.78508898e-14 0.00000000e+00 1.60723733e-11 0.00000000e+00 2.78508898e-14
2.26490567e+01 1.57697915e-11 2.52318552e-14 0.00000000e+00 1.57445597e-11 0.00000000e+00 2.52318552e-14
2.34070535e+01 1.54148532e-11 2.28591087e-14 0.00000000e+00 1.53919941e-11 0.00000000e+00 2.28591087e-14
2.41904183e+01 1.51256519e-11 2.07094900e-14 0.00000000e+00 1.51049424e-11 0.00000000e+00 2.07094900e-14
2.50000000e+01 1.47136687e-11 1.87620165e-14 0.00000000e+00 1.46949067e-11 0.00000000e+00 1.87620165e-14
2.75422870e+01 1.33877631e-11 1.40313526e-14 0.00000000e+00 1.33737317e-11 0.00000000e+00 1.40313526e-14
3.16227766e+01 1.11839100e-11 9.27042274e-15 0.00000000e+00 1.11746396e-11 0.00000000e+00 9.27042274e-15
3.63078055e+01 8.72463324e-12 6.12490756e-15 0.00000000e+00 8.71850833e-12 0.00000000e+00 6.12490756e-15
4.16869383e+01 6.31840934e-12 4.04668630e-15 0.00000000e+00 6.31436266e-12 0.00000000e+00 4.04668630e-15
4.78630092e+01 4.26396757e-12 2.67361912e-15 0.00000000e+00 4.26129395e-12 0.00000000e+00 2.67361912e-15
5.49540874e+01 2.70226304e-12 1.76644264e-15 0.00000000e+00 2.70049660e-12 0.00000000e+00 1.76644264e-15
6.30957344e+01 1.63453457e-12 1.16707708e-15 0.00000000e+00 1.63336749e-12 0.00000000e+00 1.16707708e-15
7.24435960e+01 9.51100121e-13 7.71080178e-16 0.00000000e+00 9.50329041e-13 0.00000000e+00 7.71080178e-16
8.31763771e+01 5.38001327e-13 5.09447621e-16 0.00000000e+00 5.37491879e-13 0.00000000e+00 5.09447621e-16
9.54992586e+01 2.98567050e-13 3.36588705e-16 0.00000000e+00 2.98230461e-13 0.00000000e+00 3.36588705e-16
1.09647820e+02 1.63262098e-13 2.22381952e-16 0.00000000e+00 1.63039716e-13 0.00000000e+00 2.22381952e-16
1.25892541e+02 8.93246535e-14 1.46926299e-16 0.00000000e+00 8.91777272e-14 0.00000000e+00 1.46926299e-16
1.44543977e+02 4.86270586e-14 9.70732430e-17 0.00000000e+00 4.85299853e-14 0.00000000e+00 9.70732430e-17
1.65958691e+02 2.52576668e-14 6.41356556e-17 0.00000000e+00 2.51935312e-14 0.00000000e+00 6.41356556e-17
1.90546072e+02 1.31398705e-14 4.23740075e-17 0.00000000e+00 1.30974965e-14 0.00000000e+00 4.23740075e-17
2.18776162e+02 6.83062707e-15 2.79962291e-17 0.00000000e+00 6.80263085e-15 0.00000000e+00 2.79962291e-17
2.51188643e+02 3.54228572e-15 1.84969251e-17 0.00000000e+00 3.52378879e-15 0.00000000e+00 1.84969251e-17
2.88403150e+02 1.82986001e-15 1.22207972e-17 0.00000000e+00 1.81763921e-15 0.00000000e+00 1.22207972e-17
3.31131121e+02 9.43555347e-16 8.07420067e-18 0.00000000e+00 9.35481146e-16 0.00000000e+00 8.07420067e-18
3.80189396e+02 4.85167243e-16 5.33457148e-18 0.00000000e+00 4.79832671e-16 0.00000000e+00 5.33457148e-18
4.36515832e+02 2.49115172e-16 3.52451642e-18 0.00000000e+00 2.45590656e-16 0.00000000e+00 3.52451642e-18
5.01187234e+02 1.27723362e-16 2.32862491e-18 0.00000000e+00 1.25394737e-16 0.00000000e+00 2.32862491e-18
5.75439937e+02 6.54370761e-17 1.53850722e-18 0.00000000e+00 6.38985688e-17 0.00000000e+00 1.53850722e-18
6.60693448e+02 3.35223857e-17 1.01648164e-18 0.00000000e+00 3.25059041e-17 0.00000000e+00 1.01648164e-18
7.58577575e+02 1.71829886e-17 6.71582760e-19 0.00000000e+00 1.65114058e-17 0.00000000e+00 6.71582760e-19
8.70963590e+02 8.81767544e-18 4.43710329e-19 0.00000000e+00 8.37396511e-18 0.00000000e+00 4.43710329e-19
1.00000000e+03 4.24071313e-18 0.00000000e+00 0.00000000e+00 4.24071313e-18 0.00000000e+00 0.00000000e+00
