# column 1: lambda (micron)
# column 2: total flux; lambda*F_lambda (W/m2)
# column 3: direct stellar flux; lambda*F_lambda (W/m2)
# column 4: scattered stellar flux; lambda*F_lambda (W/m2)
# column 5: total dust emission flux; lambda*F_lambda (W/m2)
# column 6: dust emission scattered flux; lambda*F_lambda (W/m2)
# column 7: transparent flux; lambda*F_lambda (W/m2)
1.00000000e-03 6.93997471e-13 6.93992988e-13 4.48344662e-18 0.00000000e+00 0.00000000e+00 6.93993746e-13
1.14815362e-03 8.19140804e-13 8.19133957e-13 6.84711995e-18 0.00000000e+00 0.00000000e+00 8.19135139e-13
1.31825674e-03 9.66850921e-13 9.66840334e-13 1.05867018e-17 0.00000000e+00 0.00000000e+00 9.66842108e-13
1.51356125e-03 1.14119813e-12 1.14118122e-12 1.69109306e-17 0.00000000e+00 0.00000000e+00 1.14118369e-12
1.73780083e-03 1.34698814e-12 1.34695972e-12 2.84284131e-17 0.00000000e+00 0.00000000e+00 1.34696266e-12
1.99526231e-03 1.58989439e-12 1.58984322e-12 5.11781669e-17 0.00000000e+00 0.00000000e+00 1.58984782e-12
2.29086765e-03 1.87660808e-12 1.87652443e-12 8.36526967e-17 0.00000000e+00 0.00000000e+00 1.87653019e-12
2.63026799e-03 2.21506996e-12 2.21489916e-12 1.70806024e-16 0.00000000e+00 0.00000000e+00 2.21490731e-12
3.01995172e-03 2.61455783e-12 2.61428890e-12 2.68929584e-16 0.00000000e+00 0.00000000e+00 2.61430080e-12
3.46736850e-03 3.08615878e-12 3.08569663e-12 4.62159182e-16 0.00000000e+00 0.00000000e+00 3.08571319e-12
3.98107171e-03 3.64288386e-12 3.64210857e-12 7.75290283e-16 0.00000000e+00 0.00000000e+00 3.64213095e-12
4.57088190e-03 4.30048319e-12 4.29886470e-12 1.61848841e-15 0.00000000e+00 0.00000000e+00 4.29888232e-12
5.24807460e-03 5.07698770e-12 5.07403295e-12 2.95474347e-15 0.00000000e+00 0.00000000e+00 5.07405951e-12
6.02559586e-03 5.99422324e-12 5.98897935e-12 5.24388729e-15 0.00000000e+00 0.00000000e+00 5.98901715e-12
6.91830971e-03 7.07730173e-12 7.06890904e-12 8.39269879e-15 0.00000000e+00 0.00000000e+00 7.06896053e-12
7.94328235e-03 8.35859687e-12 8.34357218e-12 1.50246919e-14 0.00000000e+00 0.00000000e+00 8.34363998e-12
9.12010839e-03 9.87316866e-12 9.84808164e-12 2.50870201e-14 0.00000000e+00 0.00000000e+00 9.84817045e-12
1.04712855e-02 1.10323072e-11 1.09989549e-11 3.33522626e-14 0.00000000e+00 0.00000000e+00 1.09990604e-11
1.20226443e-02 1.10535402e-11 1.09989487e-11 5.45915077e-14 1.96126818e-311 5.29071114e-313 1.09990604e-11
1.38038426e-02 1.10759677e-11 1.09989413e-11 7.70264037e-14 3.91619895e-272 1.47525830e-273 1.09990604e-11
1.58489319e-02 1.11165167e-11 1.09989322e-11 1.17584477e-13 6.26390200e-238 2.55589886e-239 1.09990604e-11
1.81970086e-02 1.11348764e-11 1.09989239e-11 1.35952557e-13 3.66439987e-208 1.67809185e-209 1.09990604e-11
2.08929613e-02 1.11933314e-11 1.09989169e-11 1.94414483e-13 2.76324596e-182 1.43355206e-183 1.09990604e-11
2.39883292e-02 1.12496669e-11 1.09989079e-11 2.50759020e-13 9.27718122e-160 6.09580238e-161 1.09990604e-11
2.75422870e-02 1.12964031e-11 1.09988974e-11 2.97505683e-13 3.69089376e-140 2.72252621e-141 1.09990604e-11
3.16227766e-02 1.13509148e-11 1.09988871e-11 3.52027669e-13 4.06698716e-123 3.40132476e-124 1.09990604e-11
3.63078055e-02 1.13796171e-11 1.09988790e-11 3.80738029e-13 2.62233863e-108 2.25773292e-109 1.09990604e-11
4.16869383e-02 1.14372963e-11 1.09988721e-11 4.38424232e-13 1.95270988e-95 1.92014395e-96 1.09990604e-11
4.78630092e-02 1.14733645e-11 1.09988528e-11 4.74511640e-13 2.92911099e-84 3.10778126e-85 1.09990604e-11
5.49540874e-02 1.14814524e-11 1.09988261e-11 4.82626253e-13 1.46642645e-74 1.61076487e-75 1.09990604e-11
6.30957344e-02 1.14539000e-11 1.09987591e-11 4.55140948e-13 5.04693082e-66 5.56789673e-67 1.09990604e-11
7.24435960e-02 1.13824716e-11 1.09986797e-11 3.83791939e-13 1.29855619e-58 1.35049916e-59 1.09990604e-11
8.31763771e-02 1.13715209e-11 1.09986867e-11 3.72834137e-13 3.07607216e-52 3.49044411e-53 1.09990604e-11
9.54992586e-02 1.13826023e-11 1.09987074e-11 3.83894870e-13 1.24996273e-46 1.71780031e-47 1.09990604e-11
1.09647820e-01 1.09121711e-11 1.05037453e-11 4.08425806e-13 1.09072729e-41 1.81693761e-42 1.05040253e-11
1.25892541e-01 1.02158725e-11 9.80271165e-12 4.13160812e-13 2.44141830e-37 4.34196936e-38 9.80292679e-12
1.44543977e-01 9.52671797e-12 9.14845717e-12 3.78260796e-13 1.47637991e-33 2.60295295e-34 9.14862359e-12
1.65958691e-01 8.91975240e-12 8.53785648e-12 3.81895913e-13 2.17192775e-30 4.14403088e-31 8.53799231e-12
1.90546072e-01 8.36104852e-12 7.96798281e-12 3.93065709e-13 8.87173053e-28 2.00776524e-28 7.96811805e-12
2.18776162e-01 7.78782619e-12 7.43613239e-12 3.51693799e-13 1.37980014e-25 3.31405504e-26 7.43628044e-12
2.51188643e-01 7.33580498e-12 6.93983020e-12 3.95974783e-13 1.83173274e-23 5.28035732e-24 6.93994070e-12
2.88403150e-01 6.83850637e-12 6.47664389e-12 3.61862480e-13 1.22713250e-21 3.58194113e-22 6.47672950e-12
3.31131121e-01 6.37959020e-12 6.04436601e-12 3.35224138e-13 4.50654172e-20 1.33028021e-20 6.04443567e-12
3.80189396e-01 5.95038160e-12 5.64093850e-12 3.09442105e-13 9.93578831e-19 2.99098608e-19 5.64099558e-12
4.36515832e-01 5.55379327e-12 5.26443702e-12 2.89342174e-13 1.40749250e-17 4.31681492e-18 5.26448339e-12
5.01187234e-01 5.17712324e-12 4.91306461e-12 2.63923085e-13 1.35543581e-16 4.21724356e-17 4.91310176e-12
5.75439937e-01 4.82678513e-12 4.58514389e-12 2.40726835e-13 9.14408003e-16 2.83658736e-16 4.58517335e-12
6.60693448e-01 4.49859392e-12 4.27910959e-12 2.14872110e-13 4.61222037e-15 1.41763009e-15 4.27913275e-12
7.58577575e-01 4.20054138e-12 3.99350106e-12 1.89008074e-13 1.80322462e-14 5.40880683e-15 3.99351904e-12
8.70963590e-01 3.95379676e-12 3.72695516e-12 1.69127279e-13 5.77143181e-14 1.65494291e-14 3.72696882e-12
1.00000000e+00 3.77532190e-12 3.47819948e-12 1.44795784e-13 1.52326638e-13 4.07728572e-14 3.47820968e-12
1.14815362e+00 3.71396632e-12 3.24604666e-12 1.21029649e-13 3.46890014e-13 8.42636139e-14 3.24605414e-12
1.31825674e+00 3.82722105e-12 3.02938859e-12 9.67525292e-14 7.01079933e-13 1.49148691e-13 3.02939399e-12
1.51356125e+00 4.17559314e-12 2.82719112e-12 7.85424097e-14 1.26985961e-12 2.33273271e-13 2.82719497e-12
1.73780083e+00 4.72687003e-12 2.63848916e-12 6.08506732e-14 2.02753020e-12 3.09015817e-13 2.63849186e-12
1.99526231e+00 5.43881013e-12 2.46238201e-12 4.65050510e-14 2.92992307e-12 3.58985573e-13 2.46238388e-12
2.29086765e+00 6.16369061e-12 2.29802906e-12 3.45340303e-14 3.83112752e-12 3.62311144e-13 2.29803035e-12
2.63026799e+00 6.78182339e-12 2.14464581e-12 2.47829497e-14 4.61239463e-12 3.29583974e-13 2.14464670e-12
3.01995172e+00 7.19285076e-12 2.00150013e-12 1.72794098e-14 5.17407122e-12 2.68395520e-13 2.00150076e-12
3.46736850e+00 7.34774853e-12 1.86790874e-12 1.18543514e-14 5.46798544e-12 2.02113670e-13 1.86790919e-12
3.98107171e+00 7.22320486e-12 1.74323396e-12 7.81381215e-15 5.47215709e-12 1.40635062e-13 1.74323429e-12
4.57088190e+00 6.90497841e-12 1.62688066e-12 4.98026845e-15 5.27311748e-12 9.15940884e-14 1.62688090e-12
5.24807460e+00 6.30260035e-12 1.34518098e-12 2.75194012e-15 4.95466742e-12 5.61912677e-14 1.34518114e-12
6.02559586e+00 5.49309467e-12 8.88752281e-13 1.15510047e-15 4.60318729e-12 3.27895918e-14 8.88752369e-13
6.70000000e+00 4.96453028e-12 6.46481833e-13 5.66691890e-16 4.31748175e-12 2.09487711e-14 6.46481889e-13
6.92422916e+00 4.80803596e-12 5.85688148e-13 4.60683752e-16 4.22188713e-12 1.79640431e-14 5.85688198e-13
7.15596261e+00 4.69474499e-12 5.30611363e-13 3.62528223e-16 4.16377110e-12 1.54214291e-14 5.30611407e-13
7.39545150e+00 4.66865703e-12 4.80713872e-13 2.77263967e-16 4.18766589e-12 1.31720037e-14 4.80713913e-13
7.64295536e+00 4.88224103e-12 4.35508624e-13 1.96983979e-16 4.44653542e-12 1.12365110e-14 4.35508666e-13
7.89874245e+00 5.43705021e-12 3.94554369e-13 1.27923694e-16 5.04236792e-12 9.41512387e-15 3.94554418e-13
8.16308998e+00 6.22122009e-12 3.57451354e-13 7.78879951e-17 5.86369085e-12 7.80333670e-15 3.57451415e-13
8.43628443e+00 7.21260777e-12 3.23837418e-13 4.45265024e-17 6.88872583e-12 6.19198445e-15 3.23837494e-13
8.71862190e+00 7.82353007e-12 2.93384465e-13 2.80942299e-17 7.53011751e-12 4.88410301e-15 2.93384550e-13
9.01040836e+00 8.45268345e-12 2.65795239e-13 1.60739536e-17 8.18687214e-12 3.56819749e-15 2.65795332e-13
9.31196005e+00 8.89251016e-12 2.40800444e-13 0.00000000e+00 8.65170972e-12 0.00000000e+00 2.40800541e-13
9.62360379e+00 8.76890544e-12 2.18156113e-13 0.00000000e+00 8.55074932e-12 0.00000000e+00 2.18156204e-13
9.94567731e+00 8.30587604e-12 1.97641212e-13 0.00000000e+00 8.10823483e-12 0.00000000e+00 1.97641289e-13
1.02785297e+01 7.77044986e-12 1.79055487e-13 0.00000000e+00 7.59139438e-12 0.00000000e+00 1.79055550e-13
1.06225216e+01 7.18505899e-12 1.62217521e-13 0.00000000e+00 7.02284147e-12 0.00000000e+00 1.62217572e-13
1.09780260e+01 6.58526595e-12 1.46962959e-13 0.00000000e+00 6.43830300e-12 0.00000000e+00 1.46962999e-13
1.13454280e+01 6.04992592e-12 1.33142900e-13 0.00000000e+00 5.91678302e-12 0.00000000e+00 1.33142932e-13
1.17251259e+01 5.63015633e-12 1.20622447e-13 0.00000000e+00 5.50953388e-12 0.00000000e+00 1.20622472e-13
1.21175312e+01 5.19242320e-12 1.09279389e-13 0.00000000e+00 5.08314381e-12 0.00000000e+00 1.09279408e-13
1.25230691e+01 4.80367666e-12 9.90030052e-14 0.00000000e+00 4.70467365e-12 0.00000000e+00 9.90030204e-14
1.29421791e+01 4.47895124e-12 8.96929887e-14 0.00000000e+00 4.38925825e-12 0.00000000e+00 8.96930008e-14
1.33753155e+01 4.20020241e-12 8.12584647e-14 0.00000000e+00 4.11894395e-12 0.00000000e+00 8.12584743e-14
1.38229477e+01 4.02222973e-12 7.36171035e-14 0.00000000e+00 3.94861263e-12 0.00000000e+00 7.36171115e-14
1.42855609e+01 3.94042177e-12 6.66943183e-14 0.00000000e+00 3.87372745e-12 0.00000000e+00 6.66943252e-14
1.47636563e+01 4.03759068e-12 6.04225354e-14 0.00000000e+00 3.97716814e-12 0.00000000e+00 6.04225420e-14
1.52577522e+01 4.15694128e-12 5.47405367e-14 0.00000000e+00 4.10220075e-12 0.00000000e+00 5.47405431e-14
1.57683840e+01 4.32809492e-12 4.95928603e-14 0.00000000e+00 4.27850206e-12 0.00000000e+00 4.95928665e-14
1.62961051e+01 4.49420608e-12 4.49292596e-14 0.00000000e+00 4.44927682e-12 0.00000000e+00 4.49292657e-14
1.68414875e+01 4.68227961e-12 4.07042135e-14 0.00000000e+00 4.64157540e-12 0.00000000e+00 4.07042194e-14
1.74051222e+01 4.81019293e-12 3.68764812e-14 0.00000000e+00 4.77331645e-12 0.00000000e+00 3.68764869e-14
1.79876201e+01 4.90353087e-12 3.34087004e-14 0.00000000e+00 4.87012217e-12 0.00000000e+00 3.34087056e-14
1.85896125e+01 4.92653915e-12 3.02670219e-14 0.00000000e+00 4.89627213e-12 0.00000000e+00 3.02670267e-14
1.92117518e+01 4.91547704e-12 2.74207799e-14 0.00000000e+00 4.88805626e-12 0.00000000e+00 2.74207841e-14
1.98547123e+01 4.83174337e-12 2.48421921e-14 0.00000000e+00 4.80690118e-12 0.00000000e+00 2.48421957e-14
2.05191907e+01 4.75755104e-12 2.25060888e-14 0.00000000e+00 4.73504495e-12 0.00000000e+00 2.25060919e-14
2.12059073e+01 4.66193771e-12 2.03896674e-14 0.00000000e+00 4.64154804e-12 0.00000000e+00 2.03896700e-14
2.19156062e+01 4.56842717e-12 1.84722694e-14 0.00000000e+00 4.54995490e-12 0.00000000e+00 1.84722717e-14
2.26490567e+01 4.48494650e-12 1.67351792e-14 0.00000000e+00 4.46821132e-12 0.00000000e+00 1.67351811e-14
2.34070535e+01 4.39878698e-12 1.51614409e-14 0.00000000e+00 4.38362554e-12 0.00000000e+00 1.51614426e-14
2.41904183e+01 4.30642700e-12 1.37356935e-14 0.00000000e+00 4.29269131e-12 0.00000000e+00 1.37356949e-14
2.50000000e+01 4.21945450e-12 1.24440201e-14 0.00000000e+00 4.20701048e-12 0.00000000e+00 1.24440213e-14
2.75422870e+01 3.89912200e-12 9.30637897e-15 0.00000000e+00 3.88981562e-12 0.00000000e+00 9.30637977e-15
3.16227766e+01 3.36149736e-12 6.14866370e-15 0.00000000e+00 3.35534869e-12 0.00000000e+00 6.14866414e-15
3.63078055e+01 2.71184677e-12 4.06238187e-15 0.00000000e+00 2.70778439e-12 0.00000000e+00 4.06238211e-15
4.16869383e+01 2.02610561e-12 2.68398912e-15 0.00000000e+00 2.02342162e-12 0.00000000e+00 2.68398924e-15
4.78630092e+01 1.40241096e-12 1.77329404e-15 0.00000000e+00 1.40063766e-12 0.00000000e+00 1.77329411e-15
5.49540874e+01 9.12877012e-13 1.17160377e-15 0.00000000e+00 9.11705409e-13 0.00000000e+00 1.17160380e-15
6.30957344e+01 5.65311988e-13 7.74070937e-16 0.00000000e+00 5.64537917e-13 0.00000000e+00 7.74070953e-16
7.24435960e+01 3.36284983e-13 5.11423599e-16 0.00000000e+00 3.35773560e-13 0.00000000e+00 5.11423607e-16
8.31763771e+01 1.94294825e-13 3.37894222e-16 0.00000000e+00 1.93956931e-13 0.00000000e+00 3.37894226e-16
9.54992586e+01 1.09866887e-13 2.23244500e-16 0.00000000e+00 1.09643642e-13 0.00000000e+00 2.23244502e-16
1.09647820e+02 6.11088787e-14 1.47496178e-16 0.00000000e+00 6.09613825e-14 0.00000000e+00 1.47496179e-16
1.25892541e+02 3.39525575e-14 9.74497589e-17 0.00000000e+00 3.38551078e-14 0.00000000e+00 9.74497594e-17
1.44543977e+02 1.87443171e-14 6.43844173e-17 0.00000000e+00 1.86799327e-14 0.00000000e+00 6.43844175e-17
1.65958691e+02 9.85240820e-15 4.25383627e-17 0.00000000e+00 9.80986984e-15 0.00000000e+00 4.25383628e-17
1.90546072e+02 5.18143691e-15 2.81048175e-17 0.00000000e+00 5.15333210e-15 0.00000000e+00 2.81048176e-17
2.18776162e+02 2.71988154e-15 1.85686688e-17 0.00000000e+00 2.70131287e-15 0.00000000e+00 1.85686688e-17
2.51188643e+02 1.42271772e-15 1.22681978e-17 0.00000000e+00 1.41044953e-15 0.00000000e+00 1.22681978e-17
2.88403150e+02 7.40777952e-16 8.10551793e-18 0.00000000e+00 7.32672434e-16 0.00000000e+00 8.10551794e-18
3.31131121e+02 3.84741318e-16 5.35526259e-18 0.00000000e+00 3.79386055e-16 0.00000000e+00 5.35526259e-18
3.80189396e+02 1.99171595e-16 3.53818691e-18 0.00000000e+00 1.95633409e-16 0.00000000e+00 3.53818691e-18
4.36515832e+02 1.02933671e-16 2.33765691e-18 0.00000000e+00 1.00596014e-16 0.00000000e+00 2.33765691e-18
5.01187234e+02 5.31154138e-17 1.54447460e-18 0.00000000e+00 5.15709392e-17 0.00000000e+00 1.54447460e-18
5.75439937e+02 2.73922699e-17 1.02042425e-18 0.00000000e+00 2.63718456e-17 0.00000000e+00 1.02042425e-18
6.60693448e+02 1.41307587e-17 6.74187616e-19 0.00000000e+00 1.34565710e-17 0.00000000e+00 6.74187617e-19
7.58577575e+02 7.29885866e-18 4.45431341e-19 0.00000000e+00 6.85342732e-18 0.00000000e+00 4.45431341e-19
8.70963590e+02 3.77815399e-18 2.94293568e-19 0.00000000e+00 3.48386042e-18 0.00000000e+00 2.94293569e-19
1.00000000e+03 1.76783208e-18 0.00000000e+00 0.00000000e+00 1.76783208e-18 0.00000000e+00 0.00000000e+00
