# column 1: lambda (micron)
# column 2: total flux; lambda*F_lambda (W/m2)
# column 3: direct stellar flux; lambda*F_lambda (W/m2)
# column 4: scattered stellar flux; lambda*F_lambda (W/m2)
# column 5: total dust emission flux; lambda*F_lambda (W/m2)
# column 6: dust emission scattered flux; lambda*F_lambda (W/m2)
# column 7: transparent flux; lambda*F_lambda (W/m2)
1.00000000e-03 1.07335634e-12 1.07335627e-12 6.57286752e-20 0.00000000e+00 0.00000000e+00 1.07335627e-12
1.14815362e-03 1.26690466e-12 1.26690456e-12 1.08923069e-19 0.00000000e+00 0.00000000e+00 1.26690456e-12
1.31825674e-03 1.49535375e-12 1.49535359e-12 1.56022234e-19 0.00000000e+00 0.00000000e+00 1.49535359e-12
1.51356125e-03 1.76499696e-12 1.76499670e-12 2.61034696e-19 0.00000000e+00 0.00000000e+00 1.76499670e-12
1.73780083e-03 2.08326249e-12 2.08326203e-12 4.60499088e-19 0.00000000e+00 0.00000000e+00 2.08326203e-12
1.99526231e-03 2.45891800e-12 2.45891716e-12 8.42191887e-19 0.00000000e+00 0.00000000e+00 2.45891716e-12
2.29086765e-03 2.90231200e-12 2.90231066e-12 1.33751245e-18 0.00000000e+00 0.00000000e+00 2.90231066e-12
2.63026799e-03 3.42565981e-12 3.42565717e-12 2.64554512e-18 0.00000000e+00 0.00000000e+00 3.42565717e-12
3.01995172e-03 4.04337841e-12 4.04337385e-12 4.56306514e-18 0.00000000e+00 0.00000000e+00 4.04337385e-12
3.46736850e-03 4.77248549e-12 4.77247759e-12 7.90149249e-18 0.00000000e+00 0.00000000e+00 4.77247759e-12
3.98107171e-03 5.63306602e-12 5.63305378e-12 1.22368309e-17 0.00000000e+00 0.00000000e+00 5.63305378e-12
4.57088190e-03 6.64883666e-12 6.64880962e-12 2.70351714e-17 0.00000000e+00 0.00000000e+00 6.64880962e-12
5.24807460e-03 7.84777543e-12 7.84772720e-12 4.82354447e-17 0.00000000e+00 0.00000000e+00 7.84772720e-12
6.02559586e-03 9.26292319e-12 9.26283435e-12 8.88350076e-17 0.00000000e+00 0.00000000e+00 9.26283435e-12
6.91830971e-03 1.09332534e-11 1.09331145e-11 1.38823344e-16 0.00000000e+00 0.00000000e+00 1.09331145e-11
7.94328235e-03 1.29105060e-11 1.29045807e-11 5.92532670e-15 0.00000000e+00 0.00000000e+00 1.29045807e-11
9.12010839e-03 1.52319755e-11 1.52315429e-11 4.32635250e-16 0.00000000e+00 0.00000000e+00 1.52315429e-11
1.04712855e-02 1.70121024e-11 1.70115517e-11 5.50679305e-16 0.00000000e+00 0.00000000e+00 1.70115517e-11
1.20226443e-02 1.70123162e-11 1.70115517e-11 7.64454460e-16 0.00000000e+00 0.00000000e+00 1.70115517e-11
1.38038426e-02 1.70127581e-11 1.70115517e-11 1.20642117e-15 3.61665273e-290 1.62678249e-292 1.70115517e-11
1.58489319e-02 1.70131274e-11 1.70115517e-11 1.57568585e-15 1.97824555e-253 1.08242002e-255 1.70115517e-11
1.81970086e-02 1.70136407e-11 1.70115517e-11 2.08896897e-15 1.88175986e-221 1.49757618e-223 1.70115517e-11
2.08929613e-02 1.70146477e-11 1.70115517e-11 3.09602132e-15 1.20339973e-193 1.08801975e-195 1.70115517e-11
2.39883292e-02 1.70155081e-11 1.70115517e-11 3.95639225e-15 1.93311105e-169 2.14221942e-171 1.70115517e-11
2.75422870e-02 1.70168217e-11 1.70115517e-11 5.26999086e-15 2.26085228e-148 3.15526628e-150 1.70115517e-11
3.16227766e-02 1.70183637e-11 1.70115517e-11 6.81199424e-15 4.74708483e-130 7.87407138e-132 1.70115517e-11
3.63078055e-02 1.70198995e-11 1.70115517e-11 8.34780377e-15 4.02765945e-114 7.47274073e-116 1.70115517e-11
4.16869383e-02 1.70237752e-11 1.70115517e-11 1.22235228e-14 2.82091997e-100 6.94938718e-102 1.70115517e-11
4.78630092e-02 1.70290422e-11 1.70115517e-11 1.74904409e-14 3.01538150e-88 9.94902714e-90 1.70115517e-11
5.49540874e-02 1.70343827e-11 1.70115517e-11 2.28309750e-14 8.41973976e-78 3.51139256e-79 1.70115517e-11
6.30957344e-02 1.70408683e-11 1.70115517e-11 2.93165697e-14 1.30829663e-68 6.93038023e-70 1.70115517e-11
7.24435960e-02 1.70436952e-11 1.70115517e-11 3.21434590e-14 1.21947008e-60 6.65657389e-62 1.70115517e-11
8.31763771e-02 1.70426218e-11 1.70115517e-11 3.10701170e-14 7.73199139e-54 4.18422590e-55 1.70115517e-11
9.54992586e-02 1.70457442e-11 1.70115517e-11 3.41925150e-14 5.88895339e-48 3.28831896e-49 1.70115517e-11
1.09647820e-01 1.62790489e-11 1.62459122e-11 3.31367495e-14 6.54016776e-43 3.72525988e-44 1.62459122e-11
1.25892541e-01 1.51901992e-11 1.51615674e-11 2.86318496e-14 1.47660803e-38 7.70219845e-40 1.51615674e-11
1.44543977e-01 1.41741089e-11 1.41495980e-11 2.45109371e-14 8.11440118e-35 3.88495503e-36 1.41495980e-11
1.65958691e-01 1.32300605e-11 1.32051732e-11 2.48873170e-14 1.03358326e-31 5.40858191e-33 1.32051732e-11
1.90546072e-01 1.23539246e-11 1.23237846e-11 3.01399262e-14 3.64755131e-29 2.38595641e-30 1.23237846e-11
2.18776162e-01 1.15333576e-11 1.15012250e-11 3.21325773e-14 5.11877354e-27 3.82818378e-28 1.15012250e-11
2.51188643e-01 1.07722708e-11 1.07335677e-11 3.87030711e-14 5.45137278e-25 4.82505620e-26 1.07335677e-11
2.88403150e-01 1.00513146e-11 1.00171482e-11 3.41663520e-14 3.15514739e-23 2.75493201e-24 1.00171482e-11
3.31131121e-01 9.37718315e-12 9.34854667e-12 2.86364735e-14 1.04478525e-21 8.90513457e-23 9.34854667e-12
3.80189396e-01 8.75075475e-12 8.72457139e-12 2.61833438e-14 2.17323057e-20 1.85964942e-21 8.72457139e-12
4.36515832e-01 8.16582834e-12 8.14224377e-12 2.35842696e-14 3.01603105e-19 2.63666165e-20 8.14224377e-12
5.01187234e-01 7.62234194e-12 7.59878402e-12 2.35550106e-14 2.91576862e-18 2.63538295e-19 7.59878402e-12
5.75439937e-01 7.11281703e-12 7.09159786e-12 2.11987011e-14 2.04664220e-17 1.92006568e-18 7.09159786e-12
6.60693448e-01 6.63824914e-12 6.61826421e-12 1.98765600e-14 1.08371478e-16 1.05990576e-17 6.61826421e-12
7.58577575e-01 6.19523111e-12 6.17652353e-12 1.82538753e-14 4.53702739e-16 4.56201317e-17 6.17652353e-12
8.70963590e-01 5.78259136e-12 5.76426715e-12 1.67702601e-14 1.55394253e-15 1.57741953e-16 5.76426715e-12
1.00000000e+00 5.39854975e-12 5.37952711e-12 1.45644638e-14 4.45817123e-15 4.51076679e-16 5.37952711e-12
1.14815362e+00 5.04404366e-12 5.02046681e-12 1.23644638e-14 1.12123816e-14 1.08784228e-15 5.02046681e-12
1.31825674e+00 4.72112609e-12 4.68537225e-12 1.06080035e-14 2.51458429e-14 2.22648965e-15 4.68537225e-12
1.51356125e+00 4.43069187e-12 4.37264380e-12 7.84104011e-15 5.02070295e-14 3.95488135e-15 4.37264380e-12
1.73780083e+00 4.17544242e-12 4.08078863e-12 6.03129542e-15 8.86224918e-14 5.87368908e-15 4.08078863e-12
1.99526231e+00 3.95221822e-12 3.80841354e-12 4.40917378e-15 1.39395510e-13 7.43017098e-15 3.80841354e-12
2.29086765e+00 3.75392709e-12 3.55421832e-12 3.14910887e-15 1.96559665e-13 7.98022753e-15 3.55421832e-12
2.63026799e+00 3.57171258e-12 3.31698953e-12 2.13199986e-15 2.52591054e-13 7.65177504e-15 3.31698953e-12
3.01995172e+00 3.39523819e-12 3.09559474e-12 1.43414898e-15 2.98209301e-13 6.50822531e-15 3.09559474e-12
3.46736850e+00 3.21747834e-12 2.88897711e-12 9.04426909e-16 3.27596809e-13 4.97263375e-15 2.88897711e-12
3.98107171e+00 3.03452003e-12 2.69615031e-12 6.03211724e-16 3.37766503e-13 3.58221412e-15 2.69615031e-12
4.57088190e+00 2.84623405e-12 2.51619387e-12 3.63621229e-16 3.29676551e-13 2.32165363e-15 2.51619387e-12
5.24807460e+00 2.38932902e-12 2.08050667e-12 1.98544518e-16 3.08623808e-13 1.42075912e-15 2.08050667e-12
6.02559586e+00 1.65633318e-12 1.37457712e-12 7.99895682e-17 2.81676067e-13 8.02072607e-16 1.37457712e-12
6.70000000e+00 1.25800791e-12 9.99872685e-13 4.01319824e-17 2.58095088e-13 4.91029413e-16 9.99872685e-13
6.92422916e+00 1.15630303e-12 9.05846924e-13 3.15313000e-17 2.50424574e-13 4.24422105e-16 9.05846924e-13
7.15596261e+00 1.06600352e-12 8.20663132e-13 2.45494872e-17 2.45315840e-13 3.57407897e-16 8.20663132e-13
7.39545150e+00 9.90325159e-13 7.43489831e-13 1.88958453e-17 2.46816432e-13 2.99422063e-16 7.43489831e-13
7.64295536e+00 9.40511333e-13 6.73573732e-13 1.40138128e-17 2.66923587e-13 2.58880386e-16 6.73573732e-13
7.89874245e+00 9.26493782e-13 6.10232385e-13 8.98069690e-18 3.16252416e-13 2.24026098e-16 6.10232385e-13
8.16308998e+00 9.43063584e-13 5.52847515e-13 5.58363314e-18 3.90210486e-13 1.92476806e-16 5.52847515e-13
8.43628443e+00 9.96108491e-13 5.00858987e-13 3.41157053e-18 4.95246092e-13 1.56748844e-16 5.00858987e-13
8.71862190e+00 1.02583052e-12 4.53759343e-13 2.13462640e-18 5.72069038e-13 1.24348225e-16 4.53759343e-13
9.01040836e+00 1.06402366e-12 4.11088843e-13 1.33942911e-18 6.52933473e-13 9.18436950e-17 4.11088843e-13
9.31196005e+00 1.09148505e-12 3.72430980e-13 0.00000000e+00 7.19054067e-13 0.00000000e+00 3.72430980e-13
9.62360379e+00 1.05559897e-12 3.37408415e-13 0.00000000e+00 7.18190560e-13 0.00000000e+00 3.37408415e-13
9.94567731e+00 9.74160119e-13 3.05679292e-13 0.00000000e+00 6.68480827e-13 0.00000000e+00 3.05679292e-13
1.02785297e+01 8.80130276e-13 2.76933904e-13 0.00000000e+00 6.03196372e-13 0.00000000e+00 2.76933904e-13
1.06225216e+01 7.90677463e-13 2.50891667e-13 0.00000000e+00 5.39785795e-13 0.00000000e+00 2.50891667e-13
1.09780260e+01 6.97653894e-13 2.27298384e-13 0.00000000e+00 4.70355510e-13 0.00000000e+00 2.27298384e-13
1.13454280e+01 6.17112442e-13 2.05923759e-13 0.00000000e+00 4.11188683e-13 0.00000000e+00 2.05923759e-13
1.17251259e+01 5.47357318e-13 1.86559155e-13 0.00000000e+00 3.60798163e-13 0.00000000e+00 1.86559155e-13
1.21175312e+01 4.86058187e-13 1.69015555e-13 0.00000000e+00 3.17042632e-13 0.00000000e+00 1.69015555e-13
1.25230691e+01 4.30789209e-13 1.53121715e-13 0.00000000e+00 2.77667493e-13 0.00000000e+00 1.53121715e-13
1.29421791e+01 3.84038011e-13 1.38722496e-13 0.00000000e+00 2.45315514e-13 0.00000000e+00 1.38722496e-13
1.33753155e+01 3.43749264e-13 1.25677347e-13 0.00000000e+00 2.18071917e-13 0.00000000e+00 1.25677347e-13
1.38229477e+01 3.14715766e-13 1.13858934e-13 0.00000000e+00 2.00856832e-13 0.00000000e+00 1.13858934e-13
1.42855609e+01 2.94658074e-13 1.03151898e-13 0.00000000e+00 1.91506176e-13 0.00000000e+00 1.03151898e-13
1.47636563e+01 2.88219797e-13 9.34517274e-14 0.00000000e+00 1.94768069e-13 0.00000000e+00 9.34517274e-14
1.52577522e+01 2.85514804e-13 8.46637387e-14 0.00000000e+00 2.00851065e-13 0.00000000e+00 8.46637387e-14
1.57683840e+01 2.86102181e-13 7.67021526e-14 0.00000000e+00 2.09400029e-13 0.00000000e+00 7.67021526e-14
1.62961051e+01 2.87624204e-13 6.94892560e-14 0.00000000e+00 2.18134948e-13 0.00000000e+00 6.94892560e-14
1.68414875e+01 2.90484520e-13 6.29546439e-14 0.00000000e+00 2.27529876e-13 0.00000000e+00 6.29546439e-14
1.74051222e+01 2.89304467e-13 5.70345319e-14 0.00000000e+00 2.32269936e-13 0.00000000e+00 5.70345319e-14
1.79876201e+01 2.86821210e-13 5.16711337e-14 0.00000000e+00 2.35150076e-13 0.00000000e+00 5.16711337e-14
1.85896125e+01 2.79419944e-13 4.68120974e-14 0.00000000e+00 2.32607846e-13 0.00000000e+00 4.68120974e-14
1.92117518e+01 2.67949402e-13 4.24099939e-14 0.00000000e+00 2.25539408e-13 0.00000000e+00 4.24099939e-14
1.98547123e+01 2.54105015e-13 3.84218542e-14 0.00000000e+00 2.15683161e-13 0.00000000e+00 3.84218542e-14
2.05191907e+01 2.40071526e-13 3.48087501e-14 0.00000000e+00 2.05262776e-13 0.00000000e+00 3.48087501e-14
2.12059073e+01 2.27193896e-13 3.15354141e-14 0.00000000e+00 1.95658482e-13 0.00000000e+00 3.15354141e-14
2.19156062e+01 2.15978060e-13 2.85698952e-14 0.00000000e+00 1.87408165e-13 0.00000000e+00 2.85698952e-14
2.26490567e+01 2.05673234e-13 2.58832470e-14 0.00000000e+00 1.79789987e-13 0.00000000e+00 2.58832470e-14
2.34070535e+01 1.96497155e-13 2.34492452e-14 0.00000000e+00 1.73047910e-13 0.00000000e+00 2.34492452e-14
2.41904183e+01 1.88291688e-13 2.12441313e-14 0.00000000e+00 1.67047557e-13 0.00000000e+00 2.12441313e-14
2.50000000e+01 1.80753002e-13 1.92463813e-14 0.00000000e+00 1.61506621e-13 0.00000000e+00 1.92463813e-14
2.75422870e+01 1.61225706e-13 1.43935895e-14 0.00000000e+00 1.46832117e-13 0.00000000e+00 1.43935895e-14
3.16227766e+01 1.37716846e-13 9.50975027e-15 0.00000000e+00 1.28207096e-13 0.00000000e+00 9.50975027e-15
3.63078055e+01 1.15363189e-13 6.28302969e-15 0.00000000e+00 1.09080160e-13 0.00000000e+00 6.28302969e-15
4.16869383e+01 9.26752998e-14 4.15115655e-15 0.00000000e+00 8.85241433e-14 0.00000000e+00 4.15115655e-15
4.78630092e+01 7.06427446e-14 2.74264194e-15 0.00000000e+00 6.79001027e-14 0.00000000e+00 2.74264194e-15
5.49540874e+01 5.13693015e-14 1.81204556e-15 0.00000000e+00 4.95572559e-14 0.00000000e+00 1.81204556e-15
6.30957344e+01 3.57689297e-14 1.19720663e-15 0.00000000e+00 3.45717230e-14 0.00000000e+00 1.19720663e-15
7.24435960e+01 2.39147842e-14 7.90986575e-16 0.00000000e+00 2.31237977e-14 0.00000000e+00 7.90986575e-16
8.31763771e+01 1.54489310e-14 5.22599647e-16 0.00000000e+00 1.49263314e-14 0.00000000e+00 5.22599647e-16
9.54992586e+01 9.68910685e-15 3.45278163e-16 0.00000000e+00 9.34382868e-15 0.00000000e+00 3.45278163e-16
1.09647820e+02 5.92298825e-15 2.28123020e-16 0.00000000e+00 5.69486523e-15 0.00000000e+00 2.28123020e-16
1.25892541e+02 3.57891286e-15 1.50719385e-16 0.00000000e+00 3.42819348e-15 0.00000000e+00 1.50719385e-16
1.44543977e+02 2.12888896e-15 9.95793099e-17 0.00000000e+00 2.02930965e-15 0.00000000e+00 9.95793099e-17
1.65958691e+02 1.20056456e-15 6.57913976e-17 0.00000000e+00 1.13477316e-15 0.00000000e+00 6.57913976e-17
1.90546072e+02 6.72679222e-16 4.34679453e-17 0.00000000e+00 6.29211277e-16 0.00000000e+00 4.34679453e-17
2.18776162e+02 3.74231761e-16 2.87189867e-17 0.00000000e+00 3.45512774e-16 0.00000000e+00 2.87189867e-17
2.51188643e+02 2.06717661e-16 1.89744463e-17 0.00000000e+00 1.87743214e-16 0.00000000e+00 1.89744463e-17
2.88403150e+02 1.13461234e-16 1.25362924e-17 0.00000000e+00 1.00924941e-16 0.00000000e+00 1.25362924e-17
3.31131121e+02 6.21061886e-17 8.28264623e-18 0.00000000e+00 5.38235424e-17 0.00000000e+00 8.28264623e-18
3.80189396e+02 3.39388516e-17 5.47229010e-18 0.00000000e+00 2.84665615e-17 0.00000000e+00 5.47229010e-18
4.36515832e+02 1.85754328e-17 3.61550621e-18 0.00000000e+00 1.49599266e-17 0.00000000e+00 3.61550621e-18
5.01187234e+02 1.02030431e-17 2.38874127e-18 0.00000000e+00 7.81430180e-18 0.00000000e+00 2.38874127e-18
5.75439937e+02 5.63924098e-18 1.57822570e-18 0.00000000e+00 4.06101528e-18 0.00000000e+00 1.57822570e-18
6.60693448e+02 3.14396631e-18 1.04272338e-18 0.00000000e+00 2.10124293e-18 0.00000000e+00 1.04272338e-18
7.58577575e+02 1.77200962e-18 6.88920507e-19 0.00000000e+00 1.08308911e-18 0.00000000e+00 6.88920507e-19
8.70963590e+02 1.01147472e-18 4.55165265e-19 0.00000000e+00 5.56309459e-19 0.00000000e+00 4.55165265e-19
1.00000000e+03 2.84832908e-19 0.00000000e+00 0.00000000e+00 2.84832908e-19 0.00000000e+00 0.00000000e+00
