# column 1: lambda (micron)
# column 2: total flux; lambda*F_lambda (W/m2)
# column 3: direct stellar flux; lambda*F_lambda (W/m2)
# column 4: scattered stellar flux; lambda*F_lambda (W/m2)
# column 5: total dust emission flux; lambda*F_lambda (W/m2)
# column 6: dust emission scattered flux; lambda*F_lambda (W/m2)
# column 7: transparent flux; lambda*F_lambda (W/m2)
1.00000000e-03 3.57785810e-13 3.57785423e-13 3.86805836e-19 0.00000000e+00 0.00000000e+00 3.57785423e-13
1.14815362e-03 4.22302125e-13 4.22301518e-13 6.06348821e-19 0.00000000e+00 0.00000000e+00 4.22301518e-13
1.31825674e-03 4.98452138e-13 4.98451197e-13 9.41802956e-19 0.00000000e+00 0.00000000e+00 4.98451197e-13
1.51356125e-03 5.88333923e-13 5.88332233e-13 1.69016401e-18 0.00000000e+00 0.00000000e+00 5.88332233e-13
1.73780083e-03 6.94423692e-13 6.94420676e-13 3.01651311e-18 0.00000000e+00 0.00000000e+00 6.94420676e-13
1.99526231e-03 8.19644424e-13 8.19639053e-13 5.37040581e-18 0.00000000e+00 0.00000000e+00 8.19639053e-13
2.29086765e-03 9.67445605e-13 9.67436888e-13 8.71678644e-18 0.00000000e+00 0.00000000e+00 9.67436888e-13
2.63026799e-03 1.14190256e-12 1.14188572e-12 1.68335535e-17 0.00000000e+00 0.00000000e+00 1.14188572e-12
3.01995172e-03 1.34781996e-12 1.34779128e-12 2.86737921e-17 0.00000000e+00 0.00000000e+00 1.34779128e-12
3.46736850e-03 1.59087391e-12 1.59082586e-12 4.80498947e-17 0.00000000e+00 0.00000000e+00 1.59082586e-12
3.98107171e-03 1.87776407e-12 1.87768459e-12 7.94751406e-17 0.00000000e+00 0.00000000e+00 1.87768459e-12
4.57088190e-03 2.21641979e-12 2.21626987e-12 1.49919821e-16 0.00000000e+00 0.00000000e+00 2.21626987e-12
5.24807460e-03 2.61618242e-12 2.61590907e-12 2.73355475e-16 0.00000000e+00 0.00000000e+00 2.61590907e-12
6.02559586e-03 3.08811037e-12 3.08761145e-12 4.98922014e-16 0.00000000e+00 0.00000000e+00 3.08761145e-12
6.91830971e-03 3.64520948e-12 3.64437151e-12 8.37972486e-16 0.00000000e+00 0.00000000e+00 3.64437151e-12
7.94328235e-03 4.30306695e-12 4.30152690e-12 1.54005039e-15 0.00000000e+00 0.00000000e+00 4.30152690e-12
9.12010839e-03 5.07972743e-12 5.07718096e-12 2.54646628e-15 0.00000000e+00 0.00000000e+00 5.07718096e-12
1.04712855e-02 5.67471330e-12 5.67051724e-12 4.19605951e-15 0.00000000e+00 0.00000000e+00 5.67051724e-12
1.20226443e-02 5.67597459e-12 5.67051724e-12 5.45735554e-15 0.00000000e+00 0.00000000e+00 5.67051724e-12
1.38038426e-02 5.67757315e-12 5.67051724e-12 7.05591249e-15 8.05215988e-289 2.88067482e-290 5.67051724e-12
1.58489319e-02 5.68104283e-12 5.67051724e-12 1.05255911e-14 3.59220908e-252 2.17814078e-253 5.67051724e-12
1.81970086e-02 5.68443455e-12 5.67051724e-12 1.39173083e-14 2.76749980e-220 1.62583235e-221 5.67051724e-12
2.08929613e-02 5.68920156e-12 5.67051724e-12 1.86843244e-14 1.46928646e-192 8.43293416e-194 5.67051724e-12
2.39883292e-02 5.69838259e-12 5.67051724e-12 2.78653545e-14 2.01070403e-168 1.30414954e-169 5.67051724e-12
2.75422870e-02 5.70296476e-12 5.67051724e-12 3.24475190e-14 2.03133522e-147 1.45900396e-148 5.67051724e-12
3.16227766e-02 5.70759751e-12 5.67051724e-12 3.70802737e-14 3.72848572e-129 2.59627967e-130 5.67051724e-12
3.63078055e-02 5.71395289e-12 5.67051724e-12 4.34356528e-14 2.81776063e-113 1.99797076e-114 5.67051724e-12
4.16869383e-02 5.72235762e-12 5.67051724e-12 5.18403834e-14 1.78244782e-99 1.38182917e-100 5.67051724e-12
4.78630092e-02 5.73078769e-12 5.67051724e-12 6.02704492e-14 1.72604788e-87 1.46214784e-88 5.67051724e-12
5.49540874e-02 5.73532482e-12 5.67051724e-12 6.48075845e-14 4.41504488e-77 3.92545938e-78 5.67051724e-12
6.30957344e-02 5.73238760e-12 5.67051724e-12 6.18703590e-14 6.16237130e-68 5.71412585e-69 5.67051724e-12
7.24435960e-02 5.72534339e-12 5.67051724e-12 5.48261538e-14 5.22975121e-60 4.44301048e-61 5.67051724e-12
8.31763771e-02 5.72344419e-12 5.67051724e-12 5.29269537e-14 3.15219154e-53 2.58894716e-54 5.67051724e-12
9.54992586e-02 5.72192692e-12 5.67051724e-12 5.14096820e-14 2.31037753e-47 1.96306989e-48 5.67051724e-12
1.09647820e-01 5.47170557e-12 5.41530405e-12 5.64015134e-14 2.53896047e-42 2.30417971e-43 5.41530405e-12
1.25892541e-01 5.10900929e-12 5.05385580e-12 5.51534949e-14 5.73263393e-38 5.24953439e-39 5.05385580e-12
1.44543977e-01 4.76806863e-12 4.71653266e-12 5.15359738e-14 3.14154886e-34 2.83724884e-35 4.71653266e-12
1.65958691e-01 4.45312424e-12 4.40172439e-12 5.13998491e-14 3.94645176e-31 3.69298849e-32 4.40172439e-12
1.90546072e-01 4.16054391e-12 4.10792822e-12 5.26156991e-14 1.34966190e-28 1.44501976e-29 4.10792822e-12
2.18776162e-01 3.88063495e-12 3.83374167e-12 4.68932710e-14 1.78948830e-26 1.95165597e-27 3.83374167e-12
2.51188643e-01 3.62939403e-12 3.57785591e-12 5.15381279e-14 1.89262426e-24 2.35684179e-25 3.57785591e-12
2.88403150e-01 3.38743652e-12 3.33904941e-12 4.83871104e-14 1.06460432e-22 1.32338972e-23 3.33904941e-12
3.31131121e-01 3.15931812e-12 3.11618222e-12 4.31358963e-14 3.37862366e-21 4.22070262e-22 3.11618222e-12
3.80189396e-01 2.94865480e-12 2.90819046e-12 4.04642678e-14 6.62486023e-20 8.28714823e-21 2.90819046e-12
4.36515832e-01 2.75108183e-12 2.71408126e-12 3.69997112e-14 8.64480663e-19 1.08519854e-19 2.71408126e-12
5.01187234e-01 2.56489776e-12 2.53292801e-12 3.19618082e-14 7.94201282e-18 9.99690240e-19 2.53292801e-12
5.75439937e-01 2.39453981e-12 2.36386595e-12 3.06206659e-14 5.31875432e-17 6.50226521e-18 2.36386595e-12
6.60693448e-01 2.23272501e-12 2.20608807e-12 2.63665205e-14 2.70418446e-16 3.23421918e-17 2.20608807e-12
7.58577575e-01 2.08257060e-12 2.05884118e-12 2.26465199e-14 1.08289899e-15 1.24093877e-16 2.05884118e-12
8.70963590e-01 1.94517199e-12 1.92142238e-12 2.01995682e-14 3.55003868e-15 3.83895206e-16 1.92142238e-12
1.00000000e+00 1.81899219e-12 1.79317570e-12 1.61290512e-14 9.68743493e-15 9.69983830e-16 1.79317570e-12
1.14815362e+00 1.71084522e-12 1.67348894e-12 1.42017038e-14 2.31545766e-14 2.13191966e-15 1.67348894e-12
1.31825674e+00 1.62205704e-12 1.56179075e-12 1.11907467e-14 4.90755402e-14 4.03380590e-15 1.56179075e-12
1.51356125e+00 1.55946253e-12 1.45754793e-12 8.86607272e-15 9.30485277e-14 6.72330144e-15 1.45754793e-12
1.73780083e+00 1.52299965e-12 1.36026288e-12 6.65342162e-15 1.56083353e-13 9.61528929e-15 1.36026288e-12
1.99526231e+00 1.50780015e-12 1.26947118e-12 4.96760275e-15 2.33361368e-13 1.17529022e-14 1.26947118e-12
2.29086765e+00 1.50216116e-12 1.18473944e-12 3.42958236e-15 3.13992140e-13 1.21626380e-14 1.18473944e-12
2.63026799e+00 1.49304773e-12 1.10566318e-12 2.33800213e-15 3.85046556e-13 1.10626663e-14 1.10566318e-12
3.01995172e+00 1.46814683e-12 1.03186491e-12 1.53207108e-15 4.34749849e-13 9.07719719e-15 1.03186491e-12
3.46736850e+00 1.42167736e-12 9.62992369e-13 9.86488916e-16 4.57698502e-13 6.66270139e-15 9.62992369e-13
3.98107171e+00 1.35112682e-12 8.98716770e-13 6.23480436e-16 4.51786568e-13 4.51175789e-15 8.98716770e-13
4.57088190e+00 1.26259471e-12 8.38731291e-13 3.74204877e-16 4.23489211e-13 2.79169423e-15 8.38731291e-13
5.24807460e+00 1.07473796e-12 6.93502223e-13 2.07182873e-16 3.81028552e-13 1.61998729e-15 6.93502223e-13
6.02559586e+00 7.94012568e-13 4.58192375e-13 8.12774805e-17 3.35738916e-13 8.78136208e-16 4.58192375e-13
6.70000000e+00 6.33861421e-13 3.33290895e-13 3.83605863e-17 3.00532165e-13 5.18624060e-16 3.33290895e-13
6.92422916e+00 5.91247142e-13 3.01948975e-13 3.12735365e-17 2.89266894e-13 4.38752207e-16 3.01948975e-13
7.15596261e+00 5.55677690e-13 2.73554377e-13 2.33879238e-17 2.82099925e-13 3.67350646e-16 2.73554377e-13
7.39545150e+00 5.31070340e-13 2.47829944e-13 1.87992364e-17 2.83221597e-13 3.11309050e-16 2.47829944e-13
7.64295536e+00 5.32500559e-13 2.24524577e-13 1.36143425e-17 3.07962368e-13 2.68824160e-16 2.24524577e-13
7.89874245e+00 5.72641123e-13 2.03410795e-13 9.39760398e-18 3.69220930e-13 2.36224500e-16 2.03410795e-13
8.16308998e+00 6.43792358e-13 1.84282505e-13 5.67984447e-18 4.59504173e-13 2.05458620e-16 1.84282505e-13
8.43628443e+00 7.51977376e-13 1.66952996e-13 3.32340397e-18 5.85021057e-13 1.70996264e-16 1.66952996e-13
8.71862190e+00 8.23895937e-13 1.51253114e-13 2.25866913e-18 6.72640564e-13 1.36181300e-16 1.51253114e-13
9.01040836e+00 8.99134961e-13 1.37029614e-13 1.43029451e-18 7.62103916e-13 1.04120832e-16 1.37029614e-13
9.31196005e+00 9.56519259e-13 1.24143660e-13 0.00000000e+00 8.32375599e-13 0.00000000e+00 1.24143660e-13
9.62360379e+00 9.35057005e-13 1.12469472e-13 0.00000000e+00 8.22587534e-13 0.00000000e+00 1.12469472e-13
9.94567731e+00 8.61947108e-13 1.01893097e-13 0.00000000e+00 7.60054011e-13 0.00000000e+00 1.01893097e-13
1.02785297e+01 7.70247348e-13 9.23113014e-14 0.00000000e+00 6.77936047e-13 0.00000000e+00 9.23113014e-14
1.06225216e+01 6.86260063e-13 8.36305558e-14 0.00000000e+00 6.02629507e-13 0.00000000e+00 8.36305558e-14
1.09780260e+01 5.96149856e-13 7.57661279e-14 0.00000000e+00 5.20383728e-13 0.00000000e+00 7.57661279e-14
1.13454280e+01 5.18849925e-13 6.86412529e-14 0.00000000e+00 4.50208672e-13 0.00000000e+00 6.86412529e-14
1.17251259e+01 4.53943171e-13 6.21863851e-14 0.00000000e+00 3.91756786e-13 0.00000000e+00 6.21863851e-14
1.21175312e+01 3.96615733e-13 5.63385184e-14 0.00000000e+00 3.40277215e-13 0.00000000e+00 5.63385184e-14
1.25230691e+01 3.46278061e-13 5.10405718e-14 0.00000000e+00 2.95237489e-13 0.00000000e+00 5.10405718e-14
1.29421791e+01 3.04041753e-13 4.62408321e-14 0.00000000e+00 2.57800921e-13 0.00000000e+00 4.62408321e-14
1.33753155e+01 2.68378465e-13 4.18924490e-14 0.00000000e+00 2.26486016e-13 0.00000000e+00 4.18924490e-14
1.38229477e+01 2.44644730e-13 3.79529781e-14 0.00000000e+00 2.06691752e-13 0.00000000e+00 3.79529781e-14
1.42855609e+01 2.29472476e-13 3.43839660e-14 0.00000000e+00 1.95088510e-13 0.00000000e+00 3.43839660e-14
1.47636563e+01 2.28135632e-13 3.11505758e-14 0.00000000e+00 1.96985056e-13 0.00000000e+00 3.11505758e-14
1.52577522e+01 2.29967306e-13 2.82212462e-14 0.00000000e+00 2.01746060e-13 0.00000000e+00 2.82212462e-14
1.57683840e+01 2.34216632e-13 2.55673842e-14 0.00000000e+00 2.08649248e-13 0.00000000e+00 2.55673842e-14
1.62961051e+01 2.38924431e-13 2.31630853e-14 0.00000000e+00 2.15761345e-13 0.00000000e+00 2.31630853e-14
1.68414875e+01 2.43951341e-13 2.09848813e-14 0.00000000e+00 2.22966459e-13 0.00000000e+00 2.09848813e-14
1.74051222e+01 2.45176257e-13 1.90115106e-14 0.00000000e+00 2.26164747e-13 0.00000000e+00 1.90115106e-14
1.79876201e+01 2.44009204e-13 1.72237112e-14 0.00000000e+00 2.26785493e-13 0.00000000e+00 1.72237112e-14
1.85896125e+01 2.37568302e-13 1.56040325e-14 0.00000000e+00 2.21964270e-13 0.00000000e+00 1.56040325e-14
1.92117518e+01 2.27715316e-13 1.41366646e-14 0.00000000e+00 2.13578651e-13 0.00000000e+00 1.41366646e-14
1.98547123e+01 2.15411301e-13 1.28072847e-14 0.00000000e+00 2.02604016e-13 0.00000000e+00 1.28072847e-14
2.05191907e+01 2.02609369e-13 1.16029167e-14 0.00000000e+00 1.91006452e-13 0.00000000e+00 1.16029167e-14
2.12059073e+01 1.91293636e-13 1.05118047e-14 0.00000000e+00 1.80781831e-13 0.00000000e+00 1.05118047e-14
2.19156062e+01 1.81418915e-13 9.52329842e-15 0.00000000e+00 1.71895617e-13 0.00000000e+00 9.52329842e-15
2.26490567e+01 1.72582206e-13 8.62774902e-15 0.00000000e+00 1.63954457e-13 0.00000000e+00 8.62774902e-15
2.34070535e+01 1.64534794e-13 7.81641505e-15 0.00000000e+00 1.56718379e-13 0.00000000e+00 7.81641505e-15
2.41904183e+01 1.57086825e-13 7.08137710e-15 0.00000000e+00 1.50005448e-13 0.00000000e+00 7.08137710e-15
2.50000000e+01 1.50629328e-13 6.41546044e-15 0.00000000e+00 1.44213867e-13 0.00000000e+00 6.41546044e-15
2.75422870e+01 1.33595346e-13 4.79786316e-15 0.00000000e+00 1.28797483e-13 0.00000000e+00 4.79786316e-15
3.16227766e+01 1.13229912e-13 3.16991676e-15 0.00000000e+00 1.10059996e-13 0.00000000e+00 3.16991676e-15
3.63078055e+01 9.37808165e-14 2.09434323e-15 0.00000000e+00 9.16864733e-14 0.00000000e+00 2.09434323e-15
4.16869383e+01 7.41138395e-14 1.38371885e-15 0.00000000e+00 7.27301207e-14 0.00000000e+00 1.38371885e-15
4.78630092e+01 5.54450647e-14 9.14213979e-16 0.00000000e+00 5.45308507e-14 0.00000000e+00 9.14213979e-16
5.49540874e+01 3.94325401e-14 6.04015186e-16 0.00000000e+00 3.88285249e-14 0.00000000e+00 6.04015186e-16
6.30957344e+01 2.68603836e-14 3.99068876e-16 0.00000000e+00 2.64613147e-14 0.00000000e+00 3.99068876e-16
7.24435960e+01 1.75895136e-14 2.63662192e-16 0.00000000e+00 1.73258514e-14 0.00000000e+00 2.63662192e-16
8.31763771e+01 1.11467389e-14 1.74199882e-16 0.00000000e+00 1.09725390e-14 0.00000000e+00 1.74199882e-16
9.54992586e+01 6.87070855e-15 1.15092721e-16 0.00000000e+00 6.75561583e-15 0.00000000e+00 1.15092721e-16
1.09647820e+02 4.13563495e-15 7.60410067e-17 0.00000000e+00 4.05959394e-15 0.00000000e+00 7.60410067e-17
1.25892541e+02 2.46559448e-15 5.02397949e-17 0.00000000e+00 2.41535469e-15 0.00000000e+00 5.02397949e-17
1.44543977e+02 1.44899981e-15 3.31931033e-17 0.00000000e+00 1.41580671e-15 0.00000000e+00 3.31931033e-17
1.65958691e+02 8.06598395e-16 2.19304659e-17 0.00000000e+00 7.84667929e-16 0.00000000e+00 2.19304659e-17
1.90546072e+02 4.46367750e-16 1.44893151e-17 0.00000000e+00 4.31878435e-16 0.00000000e+00 1.44893151e-17
2.18776162e+02 2.45269443e-16 9.57299556e-18 0.00000000e+00 2.35696448e-16 0.00000000e+00 9.57299556e-18
2.51188643e+02 1.33744867e-16 6.32481544e-18 0.00000000e+00 1.27420051e-16 0.00000000e+00 6.32481544e-18
2.88403150e+02 7.23821649e-17 4.17876412e-18 0.00000000e+00 6.82034007e-17 0.00000000e+00 4.17876412e-18
3.31131121e+02 3.90038213e-17 2.76088208e-18 0.00000000e+00 3.62429392e-17 0.00000000e+00 2.76088208e-18
3.80189396e+02 2.09339478e-17 1.82409670e-18 0.00000000e+00 1.91098511e-17 0.00000000e+00 1.82409670e-18
4.36515832e+02 1.12220497e-17 1.20516874e-18 0.00000000e+00 1.00168809e-17 0.00000000e+00 1.20516874e-18
5.01187234e+02 6.01720019e-18 7.96247089e-19 0.00000000e+00 5.22095310e-18 0.00000000e+00 7.96247089e-19
5.75439937e+02 3.23432920e-18 5.26075235e-19 0.00000000e+00 2.70825396e-18 0.00000000e+00 5.26075235e-19
6.60693448e+02 1.74665390e-18 3.47574461e-19 0.00000000e+00 1.39907944e-18 0.00000000e+00 3.47574461e-19
7.58577575e+02 9.49827578e-19 2.29640169e-19 0.00000000e+00 7.20187409e-19 0.00000000e+00 2.29640169e-19
8.70963590e+02 5.21207735e-19 1.51721755e-19 0.00000000e+00 3.69485980e-19 0.00000000e+00 1.51721755e-19
1.00000000e+03 1.88991527e-19 0.00000000e+00 0.00000000e+00 1.88991527e-19 0.00000000e+00 0.00000000e+00
