# column 1: lambda (micron)
# column 2: total flux; lambda*F_lambda (W/m2)
# column 3: direct stellar flux; lambda*F_lambda (W/m2)
# column 4: scattered stellar flux; lambda*F_lambda (W/m2)
# column 5: total dust emission flux; lambda*F_lambda (W/m2)
# column 6: dust emission scattered flux; lambda*F_lambda (W/m2)
# column 7: transparent flux; lambda*F_lambda (W/m2)
1.00000000e-03 5.25549196e-13 5.25547126e-13 2.07009672e-18 0.00000000e+00 0.00000000e+00 5.25636674e-13
1.14815362e-03 6.20282885e-13 6.20280177e-13 2.70810100e-18 0.00000000e+00 0.00000000e+00 6.20419813e-13
1.31825674e-03 7.32089437e-13 7.32084766e-13 4.67128863e-18 0.00000000e+00 0.00000000e+00 7.32294308e-13
1.51356125e-03 8.64057790e-13 8.64050500e-13 7.29036155e-18 0.00000000e+00 0.00000000e+00 8.64342083e-13
1.73780083e-03 1.01986567e-12 1.01985308e-12 1.25896679e-17 0.00000000e+00 0.00000000e+00 1.02020080e-12
1.99526231e-03 1.20364583e-12 1.20361994e-12 2.58896969e-17 0.00000000e+00 0.00000000e+00 1.20416405e-12
2.29086765e-03 1.42065810e-12 1.42061865e-12 3.94494579e-17 0.00000000e+00 0.00000000e+00 1.42129968e-12
2.63026799e-03 1.67670507e-12 1.67662611e-12 7.89555794e-17 0.00000000e+00 0.00000000e+00 1.67758934e-12
3.01995172e-03 1.97881957e-12 1.97868729e-12 1.32273511e-16 0.00000000e+00 0.00000000e+00 1.98009332e-12
3.46736850e-03 2.33541768e-12 2.33518905e-12 2.28625776e-16 0.00000000e+00 0.00000000e+00 2.33714500e-12
3.98107171e-03 2.75634202e-12 2.75593801e-12 4.04005118e-16 0.00000000e+00 0.00000000e+00 2.75858048e-12
4.57088190e-03 3.25467599e-12 3.25392864e-12 7.47350185e-16 0.00000000e+00 0.00000000e+00 3.25600946e-12
5.24807460e-03 3.84140274e-12 3.83999850e-12 1.40424191e-15 0.00000000e+00 0.00000000e+00 3.84313516e-12
6.02559586e-03 4.53441378e-12 4.53166810e-12 2.74567340e-15 0.00000000e+00 0.00000000e+00 4.53613173e-12
6.91830971e-03 5.35213372e-12 5.34800979e-12 4.12392971e-15 0.00000000e+00 0.00000000e+00 5.35408989e-12
7.94328235e-03 6.31893120e-12 6.31153679e-12 7.39440798e-15 9.72300809e-304 1.32797364e-305 6.31954278e-12
9.12010839e-03 7.46035289e-12 7.44860125e-12 1.17516388e-14 4.43013340e-265 3.53695554e-266 7.45908676e-12
1.04712855e-02 8.33502806e-12 8.31832229e-12 1.67057665e-14 1.74307529e-231 6.40635797e-233 8.33078048e-12
1.20226443e-02 8.34415574e-12 8.31758761e-12 2.65681257e-14 2.69794555e-202 1.28757330e-203 8.33078048e-12
1.38038426e-02 8.35239542e-12 8.31671629e-12 3.56791272e-14 7.14448583e-177 2.92896731e-178 8.33078048e-12
1.58489319e-02 8.38088693e-12 8.31564563e-12 6.52413045e-14 9.54867664e-155 4.64623831e-156 8.33078048e-12
1.81970086e-02 8.39281526e-12 8.31465826e-12 7.81570051e-14 1.67578509e-135 8.35403148e-137 8.33078048e-12
2.08929613e-02 8.40697026e-12 8.31383763e-12 9.31326301e-14 8.60394319e-119 4.18203768e-120 8.33078048e-12
2.39883292e-02 8.45133645e-12 8.31277449e-12 1.38561967e-13 2.99943881e-104 1.73275522e-105 8.33078048e-12
2.75422870e-02 8.46271927e-12 8.31153804e-12 1.51181233e-13 1.32685499e-91 8.07778154e-93 8.33078048e-12
3.16227766e-02 8.48045863e-12 8.31032624e-12 1.70132400e-13 1.28318289e-80 8.45394893e-82 8.33078048e-12
3.63078055e-02 8.49532765e-12 8.30937588e-12 1.85951773e-13 4.39343670e-71 2.83427529e-72 8.33078048e-12
4.16869383e-02 8.52179541e-12 8.30855398e-12 2.13241434e-13 8.27177029e-63 5.60697746e-64 8.33078048e-12
4.78630092e-02 8.53952452e-12 8.30628885e-12 2.33235667e-13 1.23628053e-55 9.12294009e-57 8.33078048e-12
5.49540874e-02 8.54521364e-12 8.30313979e-12 2.42073854e-13 2.01892040e-49 1.52174777e-50 8.33078048e-12
6.30957344e-02 8.52489021e-12 8.29524877e-12 2.29641440e-13 6.33947595e-44 4.86850581e-45 8.33078048e-12
7.24435960e-02 8.47902725e-12 8.28591146e-12 1.93115793e-13 3.56993759e-39 2.47067613e-40 8.33078048e-12
8.31763771e-02 8.47700603e-12 8.28674191e-12 1.90264112e-13 3.64611266e-35 2.46126795e-36 8.33078048e-12
9.54992586e-02 8.48003622e-12 8.28917808e-12 1.90858134e-13 1.02912290e-31 7.15847913e-33 8.33078048e-12
1.09647820e-01 8.13141480e-12 7.92281706e-12 2.08597741e-13 8.86215903e-29 6.63847204e-30 7.95583672e-12
1.25892541e-01 7.60409863e-12 7.39944343e-12 2.04655196e-13 2.91646525e-26 2.24776935e-27 7.42481883e-12
1.44543977e-01 7.08915388e-12 6.90960971e-12 1.79544167e-13 4.00944408e-24 2.96051317e-25 6.92924411e-12
1.65958691e-01 6.63040760e-12 6.45071886e-12 1.79688737e-13 2.04331910e-22 1.60189601e-23 6.46674687e-12
1.90546072e-01 6.20243168e-12 6.01916249e-12 1.83269185e-13 4.27542925e-21 3.76797800e-22 6.03511933e-12
2.18776162e-01 5.78425588e-12 5.61483656e-12 1.69419267e-13 4.98849388e-20 4.38945645e-21 5.63230107e-12
2.51188643e-01 5.42242504e-12 5.24333032e-12 1.79094102e-13 6.12478394e-19 6.22795706e-20 5.25636919e-12
2.88403150e-01 5.05953609e-12 4.89542419e-12 1.64106767e-13 5.13616477e-18 5.06097668e-19 4.90552916e-12
3.31131121e-01 4.72145423e-12 4.56988432e-12 1.51540285e-13 2.96287649e-17 2.83511452e-18 4.57810618e-12
3.80189396e-01 4.40430447e-12 4.26579840e-12 1.38382090e-13 1.23977044e-16 1.14963289e-17 4.27253728e-12
4.36515832e-01 4.10299218e-12 3.98188975e-12 1.20707309e-13 3.95118673e-16 3.60678421e-17 3.98736380e-12
5.01187234e-01 3.82705014e-12 3.71683798e-12 1.09207446e-13 1.00470982e-15 9.28528890e-17 3.72122441e-12
5.75439937e-01 3.57310027e-12 3.46937004e-12 1.01566853e-13 2.16337490e-15 2.10665800e-16 3.47284869e-12
6.60693448e-01 3.33148604e-12 3.23831612e-12 8.88515476e-14 4.31837556e-15 4.92484016e-16 3.24105097e-12
7.58577575e-01 3.11300755e-12 3.02260080e-12 8.16196922e-14 8.78705460e-15 1.23722819e-15 3.02472476e-12
8.70963590e-01 2.91120833e-12 2.82122442e-12 7.09928279e-14 1.89910885e-14 3.13749977e-15 2.82283739e-12
1.00000000e+00 2.73492552e-12 2.63322000e-12 5.99619282e-14 4.17435902e-14 7.25408003e-15 2.63442513e-12
1.14815362e+00 2.59968292e-12 2.45770418e-12 5.10860319e-14 9.08927149e-14 1.51677439e-14 2.45858859e-12
1.31825674e+00 2.52106851e-12 2.29385061e-12 4.14228885e-14 1.85795015e-13 2.80416127e-14 2.29448837e-12
1.51356125e+00 2.52578809e-12 2.14088589e-12 3.33958057e-14 3.51506393e-13 4.61396782e-14 2.14134114e-12
1.73780083e+00 2.62236891e-12 1.99809614e-12 2.65232999e-14 5.97749470e-13 6.56015463e-14 1.99841583e-12
1.99526231e+00 2.80155543e-12 1.86480920e-12 2.06169835e-14 9.16129246e-13 8.09071391e-14 1.86503017e-12
2.29086765e+00 3.03019900e-12 1.74039517e-12 1.46482483e-14 1.27515559e-12 8.81847635e-14 1.74054743e-12
2.63026799e+00 3.27568998e-12 1.62426747e-12 1.05960199e-14 1.64082649e-12 8.61143385e-14 1.62437337e-12
3.01995172e+00 3.47851128e-12 1.51587883e-12 7.38211503e-15 1.95525033e-12 7.65507592e-14 1.51595343e-12
3.46736850e+00 3.61869486e-12 1.41471665e-12 5.12030800e-15 2.19885790e-12 6.29733383e-14 1.41477006e-12
3.98107171e+00 3.67290674e-12 1.32030152e-12 3.43012525e-15 2.34917510e-12 4.78356601e-14 1.32034025e-12
4.57088190e+00 3.64287538e-12 1.23218475e-12 2.22914179e-15 2.40846149e-12 3.40176995e-14 1.23221321e-12
5.24807460e+00 3.39902210e-12 1.01883255e-12 1.22991481e-15 2.37895963e-12 2.26066814e-14 1.01885146e-12
6.02559586e+00 2.98826270e-12 6.73138105e-13 5.20022029e-16 2.31460457e-12 1.41127598e-14 6.73148485e-13
6.70000000e+00 2.71433656e-12 4.89644113e-13 2.59324362e-16 2.22443312e-12 9.32390903e-15 4.89650796e-13
6.92422916e+00 2.63799461e-12 4.43599302e-13 2.09235687e-16 2.19418608e-12 8.12037381e-15 4.43605145e-13
7.15596261e+00 2.57683659e-12 4.01884322e-13 1.62533791e-16 2.17478974e-12 7.02530384e-15 4.01889522e-13
7.39545150e+00 2.55201284e-12 3.64091918e-13 1.26060199e-16 2.18779486e-12 5.99584789e-15 3.64096743e-13
7.64295536e+00 2.63569312e-12 3.29852930e-13 8.96192605e-17 2.30575057e-12 5.04456447e-15 3.29857910e-13
7.89874245e+00 2.86967599e-12 2.98832991e-13 5.63779859e-17 2.57078662e-12 4.10659608e-15 2.98838820e-13
8.16308998e+00 3.21047147e-12 2.70729564e-13 3.35986438e-17 2.93970831e-12 3.29010029e-15 2.70736695e-13
8.43628443e+00 3.67037601e-12 2.45268254e-13 1.87314579e-17 3.42508902e-12 2.49754189e-15 2.45277229e-13
8.71862190e+00 3.98123759e-12 2.22201924e-13 1.12103535e-17 3.75902446e-12 1.91914052e-15 2.22211915e-13
9.01040836e+00 4.28619451e-12 2.01304645e-13 6.53823539e-18 4.08488332e-12 1.37211800e-15 2.01315610e-13
9.31196005e+00 4.53866341e-12 1.82372825e-13 0.00000000e+00 4.35629059e-12 0.00000000e+00 1.82384346e-13
9.62360379e+00 4.50388607e-12 1.65222623e-13 0.00000000e+00 4.33866345e-12 0.00000000e+00 1.65233336e-13
9.94567731e+00 4.27284708e-12 1.49686060e-13 0.00000000e+00 4.12316102e-12 0.00000000e+00 1.49695167e-13
1.02785297e+01 4.01716515e-12 1.35610709e-13 0.00000000e+00 3.88155444e-12 0.00000000e+00 1.35618173e-13
1.06225216e+01 3.72663436e-12 1.22858896e-13 0.00000000e+00 3.60377546e-12 0.00000000e+00 1.22864947e-13
1.09780260e+01 3.42877860e-12 1.11306276e-13 0.00000000e+00 3.31747233e-12 0.00000000e+00 1.11311006e-13
1.13454280e+01 3.16729041e-12 1.00839860e-13 0.00000000e+00 3.06645055e-12 0.00000000e+00 1.00843571e-13
1.17251259e+01 2.95020077e-12 9.13575395e-14 0.00000000e+00 2.85884323e-12 0.00000000e+00 9.13604705e-14
1.21175312e+01 2.72438699e-12 8.27668360e-14 0.00000000e+00 2.64162015e-12 0.00000000e+00 8.27691389e-14
1.25230691e+01 2.53680866e-12 7.49839122e-14 0.00000000e+00 2.46182475e-12 0.00000000e+00 7.49857166e-14
1.29421791e+01 2.36363241e-12 6.79328061e-14 0.00000000e+00 2.29569961e-12 0.00000000e+00 6.79342298e-14
1.33753155e+01 2.21139853e-12 6.15447174e-14 0.00000000e+00 2.14985382e-12 0.00000000e+00 6.15458488e-14
1.38229477e+01 2.10907662e-12 5.57572761e-14 0.00000000e+00 2.05331935e-12 0.00000000e+00 5.57582167e-14
1.42855609e+01 2.05285043e-12 5.05140229e-14 0.00000000e+00 2.00233641e-12 0.00000000e+00 5.05148403e-14
1.47636563e+01 2.08299725e-12 4.57637634e-14 0.00000000e+00 2.03723349e-12 0.00000000e+00 4.57645392e-14
1.52577522e+01 2.12209991e-12 4.14601960e-14 0.00000000e+00 2.08063972e-12 0.00000000e+00 4.14609457e-14
1.57683840e+01 2.18144358e-12 3.75613187e-14 0.00000000e+00 2.14388226e-12 0.00000000e+00 3.75620523e-14
1.62961051e+01 2.23050468e-12 3.40290850e-14 0.00000000e+00 2.19647559e-12 0.00000000e+00 3.40298020e-14
1.68414875e+01 2.28069026e-12 3.08290173e-14 0.00000000e+00 2.24986124e-12 0.00000000e+00 3.08297166e-14
1.74051222e+01 2.31294868e-12 2.79298958e-14 0.00000000e+00 2.28501878e-12 0.00000000e+00 2.79305599e-14
1.79876201e+01 2.32249910e-12 2.53034133e-14 0.00000000e+00 2.29719569e-12 0.00000000e+00 2.53040334e-14
1.85896125e+01 2.28950082e-12 2.29239384e-14 0.00000000e+00 2.26657688e-12 0.00000000e+00 2.29244994e-14
1.92117518e+01 2.24083199e-12 2.07682386e-14 0.00000000e+00 2.22006375e-12 0.00000000e+00 2.07687314e-14
1.98547123e+01 2.16608775e-12 1.88152626e-14 0.00000000e+00 2.14727249e-12 0.00000000e+00 1.88156870e-14
2.05191907e+01 2.08318931e-12 1.70459406e-14 0.00000000e+00 2.06614337e-12 0.00000000e+00 1.70463024e-14
2.12059073e+01 2.00716302e-12 1.54429984e-14 0.00000000e+00 1.99172002e-12 0.00000000e+00 1.54433068e-14
2.19156062e+01 1.92019433e-12 1.39907890e-14 0.00000000e+00 1.90620354e-12 0.00000000e+00 1.39910532e-14
2.26490567e+01 1.84251636e-12 1.26751396e-14 0.00000000e+00 1.82984122e-12 0.00000000e+00 1.26753663e-14
2.34070535e+01 1.76823724e-12 1.14832088e-14 0.00000000e+00 1.75675403e-12 0.00000000e+00 1.14834036e-14
2.41904183e+01 1.69000294e-12 1.04033625e-14 0.00000000e+00 1.67959957e-12 0.00000000e+00 1.04035303e-14
2.50000000e+01 1.61992586e-12 9.42506095e-15 0.00000000e+00 1.61050080e-12 0.00000000e+00 9.42520591e-15
2.75422870e+01 1.40330457e-12 7.04863543e-15 0.00000000e+00 1.39625593e-12 0.00000000e+00 7.04872996e-15
3.16227766e+01 1.09787309e-12 4.65699776e-15 0.00000000e+00 1.09321609e-12 0.00000000e+00 4.65704970e-15
3.63078055e+01 8.11755580e-13 3.07685384e-15 0.00000000e+00 8.08678726e-13 0.00000000e+00 3.07688223e-15
4.16869383e+01 5.61411867e-13 2.03286082e-15 0.00000000e+00 5.59379006e-13 0.00000000e+00 2.03287593e-15
4.78630092e+01 3.62490277e-13 1.34310002e-15 0.00000000e+00 3.61147177e-13 0.00000000e+00 1.34310781e-15
5.49540874e+01 2.21746392e-13 8.87378599e-16 0.00000000e+00 2.20859013e-13 0.00000000e+00 8.87382527e-16
6.30957344e+01 1.29971899e-13 5.86285865e-16 0.00000000e+00 1.29385613e-13 0.00000000e+00 5.86287821e-16
7.24435960e+01 7.37297785e-14 3.87355554e-16 0.00000000e+00 7.33424229e-14 0.00000000e+00 3.87356522e-16
8.31763771e+01 4.08759014e-14 2.55923438e-16 0.00000000e+00 4.06199779e-14 0.00000000e+00 2.55923916e-16
9.54992586e+01 2.22914767e-14 1.69087018e-16 0.00000000e+00 2.21223897e-14 0.00000000e+00 1.69087255e-16
1.09647820e+02 1.20360717e-14 1.11714724e-16 0.00000000e+00 1.19243570e-14 0.00000000e+00 1.11714841e-16
1.25892541e+02 6.51766253e-15 7.38092045e-17 0.00000000e+00 6.44385333e-15 0.00000000e+00 7.38092637e-17
1.44543977e+02 3.52339856e-15 4.87652669e-17 0.00000000e+00 3.47463329e-15 0.00000000e+00 4.87652969e-17
1.65958691e+02 1.81921304e-15 3.22188974e-17 0.00000000e+00 1.78699415e-15 0.00000000e+00 3.22189122e-17
1.90546072e+02 9.43431757e-16 2.12868169e-17 0.00000000e+00 9.22144940e-16 0.00000000e+00 2.12868242e-17
2.18776162e+02 4.90099903e-16 1.40640616e-17 0.00000000e+00 4.76035841e-16 0.00000000e+00 1.40640653e-17
2.51188643e+02 2.54582805e-16 9.29203395e-18 0.00000000e+00 2.45290771e-16 0.00000000e+00 9.29203577e-18
2.88403150e+02 1.32123305e-16 6.13918624e-18 0.00000000e+00 1.25984118e-16 0.00000000e+00 6.13918715e-18
3.31131121e+02 6.86603008e-17 4.05612027e-18 0.00000000e+00 6.46041805e-17 0.00000000e+00 4.05612073e-18
3.80189396e+02 3.57127208e-17 2.67985216e-18 0.00000000e+00 3.30328687e-17 0.00000000e+00 2.67985239e-18
4.36515832e+02 1.86331052e-17 1.77056080e-18 0.00000000e+00 1.68625444e-17 0.00000000e+00 1.77056092e-18
5.01187234e+02 9.76016931e-18 1.16979794e-18 0.00000000e+00 8.59037137e-18 0.00000000e+00 1.16979800e-18
5.75439937e+02 5.14200980e-18 7.72877842e-19 0.00000000e+00 4.36913196e-18 0.00000000e+00 7.72877871e-19
6.60693448e+02 2.72958316e-18 5.10635331e-19 0.00000000e+00 2.21894783e-18 0.00000000e+00 5.10635346e-19
7.58577575e+02 1.46289752e-18 3.37373420e-19 0.00000000e+00 1.12552410e-18 0.00000000e+00 3.37373427e-19
8.70963590e+02 7.93038141e-19 2.22900409e-19 0.00000000e+00 5.70137732e-19 0.00000000e+00 2.22900413e-19
1.00000000e+03 2.88427799e-19 0.00000000e+00 0.00000000e+00 2.88427799e-19 0.00000000e+00 0.00000000e+00
