# column 1: lambda (micron)
# column 2: total flux; lambda*F_lambda (W/m2)
# column 3: direct stellar flux; lambda*F_lambda (W/m2)
# column 4: scattered stellar flux; lambda*F_lambda (W/m2)
# column 5: total dust emission flux; lambda*F_lambda (W/m2)
# column 6: dust emission scattered flux; lambda*F_lambda (W/m2)
# column 7: transparent flux; lambda*F_lambda (W/m2)
1.00000000e-03 9.67719571e-13 9.67710870e-13 8.70068569e-18 0.00000000e+00 0.00000000e+00 9.68073281e-13
1.14815362e-03 1.14208488e-12 1.14207176e-12 1.31129930e-17 0.00000000e+00 0.00000000e+00 1.14263687e-12
1.31825674e-03 1.34784970e-12 1.34782989e-12 1.98046728e-17 0.00000000e+00 0.00000000e+00 1.34867788e-12
1.51356125e-03 1.59072350e-12 1.59069237e-12 3.11299500e-17 0.00000000e+00 0.00000000e+00 1.59187233e-12
1.73780083e-03 1.87756617e-12 1.87751264e-12 5.35280182e-17 0.00000000e+00 0.00000000e+00 1.87891976e-12
1.99526231e-03 2.21561597e-12 2.21552603e-12 8.99396164e-17 0.00000000e+00 0.00000000e+00 2.21772777e-12
2.29086765e-03 2.61501560e-12 2.61487414e-12 1.41460013e-16 0.00000000e+00 0.00000000e+00 2.61762985e-12
2.63026799e-03 3.08602943e-12 3.08574514e-12 2.84286225e-16 0.00000000e+00 0.00000000e+00 3.08964252e-12
3.01995172e-03 3.64153388e-12 3.64108028e-12 4.53600545e-16 0.00000000e+00 0.00000000e+00 3.64676883e-12
3.46736850e-03 4.29724222e-12 4.29644365e-12 7.98577753e-16 0.00000000e+00 0.00000000e+00 4.30435650e-12
3.98107171e-03 5.07109610e-12 5.06983142e-12 1.26468414e-15 0.00000000e+00 0.00000000e+00 5.08052080e-12
4.57088190e-03 5.99088258e-12 5.98822453e-12 2.65804951e-15 0.00000000e+00 0.00000000e+00 5.99664354e-12
5.24807460e-03 7.07042463e-12 7.06527251e-12 5.15211448e-15 0.00000000e+00 0.00000000e+00 7.07796211e-12
6.02559586e-03 8.35306999e-12 8.33620861e-12 1.68613741e-14 0.00000000e+00 0.00000000e+00 8.35426474e-12
6.91830971e-03 9.85964406e-12 9.83611826e-12 2.35257946e-14 0.00000000e+00 0.00000000e+00 9.86071107e-12
7.94328235e-03 1.16345288e-11 1.16064207e-11 2.81081185e-14 5.72273981e-304 2.01743303e-306 1.16388008e-11
9.12010839e-03 1.37628097e-11 1.36951118e-11 6.76978973e-14 2.49929798e-265 1.54856540e-267 1.37375167e-11
1.04712855e-02 1.53603311e-11 1.52925487e-11 6.77824868e-14 1.05091553e-231 7.09475651e-234 1.53429287e-11
1.20226443e-02 1.54100126e-11 1.52895805e-11 1.20432089e-13 1.64225104e-202 1.60446843e-204 1.53429287e-11
1.38038426e-02 1.54274121e-11 1.52860607e-11 1.41351419e-13 4.49580798e-177 8.68062720e-179 1.53429287e-11
1.58489319e-02 1.54700841e-11 1.52817362e-11 1.88347853e-13 6.04490915e-155 1.08123162e-156 1.53429287e-11
1.81970086e-02 1.55550239e-11 1.52777488e-11 2.77275135e-13 1.07799686e-135 2.34379692e-137 1.53429287e-11
2.08929613e-02 1.56150122e-11 1.52744351e-11 3.40577107e-13 5.64762838e-119 1.62139146e-120 1.53429287e-11
2.39883292e-02 1.57266060e-11 1.52701428e-11 4.56463148e-13 1.99101625e-104 7.45716879e-106 1.53429287e-11
2.75422870e-02 1.58142232e-11 1.52651516e-11 5.49071585e-13 8.95476691e-92 4.14045619e-93 1.53429287e-11
3.16227766e-02 1.58807305e-11 1.52602608e-11 6.20469676e-13 8.77347804e-81 4.81873275e-82 1.53429287e-11
3.63078055e-02 1.59348049e-11 1.52564257e-11 6.78379163e-13 3.04949849e-71 1.84776122e-72 1.53429287e-11
4.16869383e-02 1.60456853e-11 1.52531095e-11 7.92575869e-13 5.84792141e-63 4.34579027e-64 1.53429287e-11
4.78630092e-02 1.61021335e-11 1.52439720e-11 8.58161442e-13 8.89507152e-56 7.76764665e-57 1.53429287e-11
5.49540874e-02 1.60940942e-11 1.52312738e-11 8.62820424e-13 1.48427059e-49 1.44350533e-50 1.53429287e-11
6.30957344e-02 1.60162919e-11 1.51994795e-11 8.16812408e-13 4.76423360e-44 4.67833555e-45 1.53429287e-11
7.24435960e-02 1.58256421e-11 1.51619045e-11 6.63737565e-13 2.73499534e-39 2.47332115e-40 1.53429287e-11
8.31763771e-02 1.58116587e-11 1.51652444e-11 6.46414334e-13 2.79268548e-35 2.46235239e-36 1.53429287e-11
9.54992586e-02 1.58309562e-11 1.51750442e-11 6.55911946e-13 7.87153086e-32 7.13106540e-33 1.53429287e-11
1.09647820e-01 1.52257015e-11 1.45190722e-11 7.06629270e-13 6.71308217e-29 6.63837567e-30 1.46523889e-11
1.25892541e-01 1.42892549e-11 1.35719068e-11 7.17348018e-13 2.18249291e-26 2.21401390e-27 1.36744049e-11
1.44543977e-01 1.33671783e-11 1.26823608e-11 6.84817468e-13 2.96250988e-24 2.89461069e-25 1.27616972e-11
1.65958691e-01 1.25323350e-11 1.18451309e-11 6.87204053e-13 1.50898824e-22 1.63284730e-23 1.19099088e-11
1.90546072e-01 1.17327649e-11 1.10504898e-11 6.82275079e-13 3.18480689e-21 3.82994055e-22 1.11149736e-11
2.18776162e-01 1.08906302e-11 1.03025397e-11 5.88090488e-13 3.76306752e-20 4.58495968e-21 1.03730969e-11
2.51188643e-01 1.02775238e-11 9.62804022e-12 6.49483142e-13 4.60392418e-19 6.63283243e-20 9.68073733e-12
2.88403150e-01 9.61699946e-12 8.99373983e-12 6.23255804e-13 3.83356869e-18 5.50242963e-19 9.03458975e-12
3.31131121e-01 8.97853028e-12 8.39832711e-12 5.80181177e-13 2.19972843e-17 3.13084099e-18 8.43156974e-12
3.80189396e-01 8.38162695e-12 7.84154851e-12 5.39986589e-13 9.18522296e-17 1.27940548e-17 7.86879872e-12
4.36515832e-01 7.81434158e-12 7.32145197e-12 4.92589447e-13 3.00162200e-16 4.37788551e-17 7.34359025e-12
5.01187234e-01 7.27685527e-12 6.83569541e-12 4.40313685e-13 8.46174741e-16 1.42581043e-16 6.85343719e-12
5.75439937e-01 6.78374719e-12 6.38192818e-12 3.99366929e-13 2.45208407e-15 5.37260679e-16 6.39599973e-12
6.60693448e-01 6.32125748e-12 5.95803039e-12 3.55191979e-13 8.03510909e-15 2.17210907e-15 5.96909425e-12
7.58577575e-01 5.90234934e-12 5.56208968e-12 3.13181873e-13 2.70777901e-14 7.92217033e-15 5.57068288e-12
8.70963590e-01 5.55182736e-12 5.19233741e-12 2.75708294e-13 8.37816545e-14 2.43858287e-14 5.19886376e-12
1.00000000e+00 5.30278472e-12 4.84698547e-12 2.31349401e-13 2.24449852e-13 6.13835422e-14 4.85186196e-12
1.14815362e+00 5.24689517e-12 4.52444212e-12 1.92738611e-13 5.29714441e-13 1.31313918e-13 4.52802104e-12
1.31825674e+00 5.48510561e-12 4.22321416e-12 1.53568107e-13 1.10832334e-12 2.42742401e-13 4.22579511e-12
1.51356125e+00 6.13875412e-12 3.94189903e-12 1.21753203e-13 2.07510188e-12 3.94146119e-13 3.94374146e-12
1.73780083e+00 7.19472797e-12 3.67921985e-12 9.70241028e-14 3.41848402e-12 5.51024965e-13 3.68051368e-12
1.99526231e+00 8.59638960e-12 3.43396090e-12 7.51293419e-14 5.08729936e-12 6.67799142e-13 3.43485522e-12
2.29086765e+00 1.01057409e-11 3.20497716e-12 5.61348999e-14 6.84462887e-12 7.13169646e-13 3.20559341e-12
2.63026799e+00 1.15322263e-11 2.99120523e-12 4.11901121e-14 8.49983096e-12 6.76728706e-13 2.99163384e-12
3.01995172e+00 1.26272447e-11 2.79165320e-12 2.93183361e-14 9.80627313e-12 5.82793239e-13 2.79195514e-12
3.46736850e+00 1.33722816e-11 2.60538797e-12 2.02021726e-14 1.07466914e-11 4.61711441e-13 2.60560415e-12
3.98107171e+00 1.36565696e-11 2.43153453e-12 1.33972882e-14 1.12116378e-11 3.39368990e-13 2.43169128e-12
4.57088190e+00 1.35277248e-11 2.26927113e-12 8.62155794e-15 1.12498321e-11 2.28587136e-13 2.26938634e-12
5.24807460e+00 1.29140067e-11 1.87635814e-12 4.74209798e-15 1.10329065e-11 1.46497916e-13 1.87643467e-12
6.02559586e+00 1.19230225e-11 1.23970608e-12 1.99486425e-15 1.06813216e-11 8.83810186e-14 1.23974809e-12
6.70000000e+00 1.12033788e-11 9.01770476e-13 9.87758329e-16 1.03006206e-11 5.76607663e-14 9.01797527e-13
6.92422916e+00 1.09982949e-11 8.16970883e-13 7.89606463e-16 1.01805345e-11 4.99527513e-14 8.16994532e-13
7.15596261e+00 1.08534925e-11 7.40145167e-13 6.22481961e-16 1.01127248e-11 4.31854789e-14 7.40166218e-13
7.39545150e+00 1.08523697e-11 6.70543138e-13 4.79058169e-16 1.01813475e-11 3.68926695e-14 6.70562664e-13
7.64295536e+00 1.12801456e-11 6.07484315e-13 3.41034759e-16 1.06723202e-11 3.15176880e-14 6.07504471e-13
7.89874245e+00 1.23261888e-11 5.50352535e-13 2.17540238e-16 1.17756187e-11 2.60789441e-14 5.50376127e-13
8.16308998e+00 1.36775379e-11 4.98591143e-13 1.31572843e-16 1.31788152e-11 2.11140106e-14 4.98620004e-13
8.43628443e+00 1.52578670e-11 4.51694583e-13 7.34954190e-17 1.48060989e-11 1.61963554e-14 4.51730909e-13
8.71862190e+00 1.63001159e-11 4.09210721e-13 4.39389343e-17 1.58908612e-11 1.26543041e-14 4.09251158e-13
9.01040836e+00 1.71574497e-11 3.70721727e-13 2.36465304e-17 1.67867043e-11 8.90183308e-15 3.70766106e-13
9.31196005e+00 1.77188723e-11 3.35853470e-13 0.00000000e+00 1.73830188e-11 0.00000000e+00 3.35900102e-13
9.62360379e+00 1.75637875e-11 3.04269458e-13 0.00000000e+00 1.72595181e-11 0.00000000e+00 3.04312818e-13
9.94567731e+00 1.69317243e-11 2.75659071e-13 0.00000000e+00 1.66560653e-11 0.00000000e+00 2.75695930e-13
1.02785297e+01 1.62995187e-11 2.49739901e-13 0.00000000e+00 1.60497788e-11 0.00000000e+00 2.49770110e-13
1.06225216e+01 1.55697896e-11 2.26257801e-13 0.00000000e+00 1.53435318e-11 0.00000000e+00 2.26282295e-13
1.09780260e+01 1.46413200e-11 2.04984077e-13 0.00000000e+00 1.44363359e-11 0.00000000e+00 2.05003220e-13
1.13454280e+01 1.39686200e-11 1.85710161e-13 0.00000000e+00 1.37829098e-11 0.00000000e+00 1.85725182e-13
1.17251259e+01 1.32383228e-11 1.68248144e-13 0.00000000e+00 1.30700747e-11 0.00000000e+00 1.68260007e-13
1.21175312e+01 1.25501164e-11 1.52427896e-13 0.00000000e+00 1.23976885e-11 0.00000000e+00 1.52437217e-13
1.25230691e+01 1.19216082e-11 1.38095064e-13 0.00000000e+00 1.17835131e-11 0.00000000e+00 1.38102367e-13
1.29421791e+01 1.13439849e-11 1.25109771e-13 0.00000000e+00 1.12188752e-11 0.00000000e+00 1.25115533e-13
1.33753155e+01 1.07482785e-11 1.13345373e-13 0.00000000e+00 1.06349331e-11 0.00000000e+00 1.13349952e-13
1.38229477e+01 1.03909558e-11 1.02686973e-13 0.00000000e+00 1.02882688e-11 0.00000000e+00 1.02690779e-13
1.42855609e+01 1.02178025e-11 9.30306626e-14 0.00000000e+00 1.01247719e-11 0.00000000e+00 9.30339713e-14
1.47636563e+01 1.03920674e-11 8.42821273e-14 0.00000000e+00 1.03077853e-11 0.00000000e+00 8.42852675e-14
1.52577522e+01 1.06679648e-11 7.63562378e-14 0.00000000e+00 1.05916085e-11 0.00000000e+00 7.63592720e-14
1.57683840e+01 1.10094637e-11 6.91756497e-14 0.00000000e+00 1.09402880e-11 0.00000000e+00 6.91786191e-14
1.62961051e+01 1.13545906e-11 6.26703162e-14 0.00000000e+00 1.12919203e-11 0.00000000e+00 6.26732185e-14
1.68414875e+01 1.16073623e-11 5.67767405e-14 0.00000000e+00 1.15505855e-11 0.00000000e+00 5.67795711e-14
1.74051222e+01 1.18193792e-11 5.14374610e-14 0.00000000e+00 1.17679417e-11 0.00000000e+00 5.14401489e-14
1.79876201e+01 1.19084756e-11 4.66003242e-14 0.00000000e+00 1.18618753e-11 0.00000000e+00 4.66028339e-14
1.85896125e+01 1.18888559e-11 4.22181382e-14 0.00000000e+00 1.18466377e-11 0.00000000e+00 4.22204090e-14
1.92117518e+01 1.16588619e-11 3.82481028e-14 0.00000000e+00 1.16206138e-11 0.00000000e+00 3.82500974e-14
1.98547123e+01 1.14013586e-11 3.46514272e-14 0.00000000e+00 1.13667072e-11 0.00000000e+00 3.46531450e-14
2.05191907e+01 1.10481984e-11 3.13929773e-14 0.00000000e+00 1.10168055e-11 0.00000000e+00 3.13944418e-14
2.12059073e+01 1.07120183e-11 2.84409313e-14 0.00000000e+00 1.06835773e-11 0.00000000e+00 2.84421796e-14
2.19156062e+01 1.03657260e-11 2.57664722e-14 0.00000000e+00 1.03399596e-11 0.00000000e+00 2.57675415e-14
2.26490567e+01 9.99899144e-12 2.33435029e-14 0.00000000e+00 9.97564794e-12 0.00000000e+00 2.33444203e-14
2.34070535e+01 9.60988800e-12 2.11483754e-14 0.00000000e+00 9.58873963e-12 0.00000000e+00 2.11491639e-14
2.41904183e+01 9.24345621e-12 1.91596650e-14 0.00000000e+00 9.22429655e-12 0.00000000e+00 1.91603445e-14
2.50000000e+01 8.88826703e-12 1.73579624e-14 0.00000000e+00 8.87090907e-12 0.00000000e+00 1.73585491e-14
2.75422870e+01 7.75991306e-12 1.29813736e-14 0.00000000e+00 7.74693169e-12 0.00000000e+00 1.29817562e-14
3.16227766e+01 6.12519083e-12 8.57675103e-15 0.00000000e+00 6.11661408e-12 0.00000000e+00 8.57696126e-15
3.63078055e+01 4.54575472e-12 5.66662721e-15 0.00000000e+00 4.54008809e-12 0.00000000e+00 5.66674211e-15
4.16869383e+01 3.14456042e-12 3.74391825e-15 0.00000000e+00 3.14081651e-12 0.00000000e+00 3.74397938e-15
4.78630092e+01 2.02963959e-12 2.47359113e-15 0.00000000e+00 2.02716600e-12 0.00000000e+00 2.47362265e-15
5.49540874e+01 1.23836536e-12 1.63429037e-15 0.00000000e+00 1.23673107e-12 0.00000000e+00 1.63430628e-15
6.30957344e+01 7.23956958e-13 1.07976753e-15 0.00000000e+00 7.22877190e-13 0.00000000e+00 1.07977545e-15
7.24435960e+01 4.09571661e-13 7.13396647e-16 0.00000000e+00 4.08858264e-13 0.00000000e+00 7.13400564e-16
8.31763771e+01 2.26464580e-13 4.71337144e-16 0.00000000e+00 2.25993242e-13 0.00000000e+00 4.71339078e-16
9.54992586e+01 1.23252942e-13 3.11409683e-16 0.00000000e+00 1.22941532e-13 0.00000000e+00 3.11410641e-16
1.09647820e+02 6.63407900e-14 2.05746495e-16 0.00000000e+00 6.61350435e-14 0.00000000e+00 2.05746970e-16
1.25892541e+02 3.58409537e-14 1.35935435e-16 0.00000000e+00 3.57050182e-14 0.00000000e+00 1.35935675e-16
1.44543977e+02 1.93199404e-14 8.98116881e-17 0.00000000e+00 1.92301288e-14 0.00000000e+00 8.98118099e-17
1.65958691e+02 9.94314059e-15 5.93380146e-17 0.00000000e+00 9.88380258e-15 0.00000000e+00 5.93380743e-17
1.90546072e+02 5.13633934e-15 3.92042474e-17 0.00000000e+00 5.09713509e-15 0.00000000e+00 3.92042769e-17
2.18776162e+02 2.65578885e-15 2.59019942e-17 0.00000000e+00 2.62988685e-15 0.00000000e+00 2.59020089e-17
2.51188643e+02 1.37175812e-15 1.71132802e-17 0.00000000e+00 1.35464484e-15 0.00000000e+00 1.71132876e-17
2.88403150e+02 7.06832651e-16 1.13066333e-17 0.00000000e+00 6.95526018e-16 0.00000000e+00 1.13066370e-17
3.31131121e+02 3.64028080e-16 7.47021912e-18 0.00000000e+00 3.56557861e-16 0.00000000e+00 7.47022097e-18
3.80189396e+02 1.87215856e-16 4.93552512e-18 0.00000000e+00 1.82280330e-16 0.00000000e+00 4.93552605e-18
4.36515832e+02 9.62949375e-17 3.26086926e-18 0.00000000e+00 9.30340683e-17 0.00000000e+00 3.26086972e-18
5.01187234e+02 4.95428869e-17 2.15443503e-18 0.00000000e+00 4.73884518e-17 0.00000000e+00 2.15443526e-18
5.75439937e+02 2.55223202e-17 1.42342114e-18 0.00000000e+00 2.40988990e-17 0.00000000e+00 1.42342126e-18
6.60693448e+02 1.31785205e-17 9.40445042e-19 0.00000000e+00 1.22380754e-17 0.00000000e+00 9.40445101e-19
7.58577575e+02 6.82842338e-18 6.21345887e-19 0.00000000e+00 6.20707749e-18 0.00000000e+00 6.21345916e-19
8.70963590e+02 3.55450886e-18 4.10519161e-19 0.00000000e+00 3.14398970e-18 0.00000000e+00 4.10519176e-19
1.00000000e+03 1.59042455e-18 0.00000000e+00 0.00000000e+00 1.59042455e-18 0.00000000e+00 0.00000000e+00
