# column 1: lambda (micron)
# column 2: total flux; lambda*F_lambda (W/m2)
# column 3: direct stellar flux; lambda*F_lambda (W/m2)
# column 4: scattered stellar flux; lambda*F_lambda (W/m2)
# column 5: total dust emission flux; lambda*F_lambda (W/m2)
# column 6: dust emission scattered flux; lambda*F_lambda (W/m2)
# column 7: transparent flux; lambda*F_lambda (W/m2)
1.00000000e-03 1.07336264e-12 1.07335627e-12 6.36824881e-18 0.00000000e+00 0.00000000e+00 1.07335627e-12
1.14815362e-03 1.26691377e-12 1.26690456e-12 9.21590938e-18 0.00000000e+00 0.00000000e+00 1.26690456e-12
1.31825674e-03 1.49536629e-12 1.49535359e-12 1.27014910e-17 0.00000000e+00 0.00000000e+00 1.49535359e-12
1.51356125e-03 1.76693199e-12 1.76499670e-12 1.93529175e-15 0.00000000e+00 0.00000000e+00 1.76499670e-12
1.73780083e-03 2.08440852e-12 2.08326203e-12 1.14649330e-15 0.00000000e+00 0.00000000e+00 2.08326203e-12
1.99526231e-03 2.46386334e-12 2.45891716e-12 4.94618193e-15 0.00000000e+00 0.00000000e+00 2.45891716e-12
2.29086765e-03 2.90241269e-12 2.90231066e-12 1.02025172e-16 0.00000000e+00 0.00000000e+00 2.90231066e-12
2.63026799e-03 3.42589040e-12 3.42565717e-12 2.33234510e-16 0.00000000e+00 0.00000000e+00 3.42565717e-12
3.01995172e-03 4.04379163e-12 4.04337385e-12 4.17782333e-16 0.00000000e+00 0.00000000e+00 4.04337385e-12
3.46736850e-03 4.77303817e-12 4.77247759e-12 5.60585223e-16 0.00000000e+00 0.00000000e+00 4.77247759e-12
3.98107171e-03 5.63403488e-12 5.63305378e-12 9.81096535e-16 0.00000000e+00 0.00000000e+00 5.63305378e-12
4.57088190e-03 6.65143287e-12 6.64880962e-12 2.62325311e-15 0.00000000e+00 0.00000000e+00 6.64880962e-12
5.24807460e-03 7.93339842e-12 7.84772720e-12 8.56712182e-14 0.00000000e+00 0.00000000e+00 7.84772720e-12
6.02559586e-03 9.31950241e-12 9.26283435e-12 5.66680520e-14 0.00000000e+00 0.00000000e+00 9.26283435e-12
6.91830971e-03 1.09607446e-11 1.09331145e-11 2.76300759e-14 0.00000000e+00 0.00000000e+00 1.09331145e-11
7.94328235e-03 1.29322728e-11 1.29045807e-11 2.76921064e-14 4.52599565e-303 8.29036051e-305 1.29045807e-11
9.12010839e-03 1.52804877e-11 1.52315429e-11 4.89448205e-14 2.41942458e-264 3.14750938e-266 1.52315429e-11
1.04712855e-02 1.70491242e-11 1.70115517e-11 3.75725210e-14 1.22467165e-230 1.88242817e-232 1.70115517e-11
1.20226443e-02 1.70684636e-11 1.70115517e-11 5.69118506e-14 2.27652334e-201 7.34529408e-203 1.70115517e-11
1.38038426e-02 1.70916161e-11 1.70115517e-11 8.00644236e-14 6.99286629e-176 1.29360289e-177 1.70115517e-11
1.58489319e-02 1.71095662e-11 1.70115517e-11 9.80144351e-14 1.06888886e-153 2.65578991e-155 1.70115517e-11
1.81970086e-02 1.71440052e-11 1.70115517e-11 1.32453489e-13 2.11667002e-134 6.07741483e-136 1.70115517e-11
2.08929613e-02 1.71744831e-11 1.70115517e-11 1.62931335e-13 1.21663732e-117 4.47086161e-119 1.70115517e-11
2.39883292e-02 1.72145664e-11 1.70115517e-11 2.03014696e-13 4.63586175e-103 2.05649019e-104 1.70115517e-11
2.75422870e-02 1.72595330e-11 1.70115517e-11 2.47981302e-13 2.22585674e-90 1.11389192e-91 1.70115517e-11
3.16227766e-02 1.72962990e-11 1.70115517e-11 2.84747320e-13 2.31391449e-79 1.35334255e-80 1.70115517e-11
3.63078055e-02 1.73236692e-11 1.70115517e-11 3.12117503e-13 8.45260830e-70 5.24355672e-71 1.70115517e-11
4.16869383e-02 1.74065006e-11 1.70115517e-11 3.94948883e-13 1.69411260e-61 1.26692538e-62 1.70115517e-11
4.78630092e-02 1.74820170e-11 1.70115517e-11 4.70465306e-13 2.67279254e-54 2.32247465e-55 1.70115517e-11
5.49540874e-02 1.75127803e-11 1.70115517e-11 5.01228594e-13 4.58020441e-48 4.25203538e-49 1.70115517e-11
6.30957344e-02 1.75079469e-11 1.70115517e-11 4.96395212e-13 1.49761964e-42 1.38005537e-43 1.70115517e-11
7.24435960e-02 1.74348467e-11 1.70115517e-11 4.23294993e-13 8.69315967e-38 6.99799573e-39 1.70115517e-11
8.31763771e-02 1.74287334e-11 1.70115517e-11 4.17181720e-13 9.10491622e-34 7.20144761e-35 1.70115517e-11
9.54992586e-02 1.74384198e-11 1.70115517e-11 4.26868054e-13 2.62580749e-30 2.13815877e-31 1.70115517e-11
1.09647820e-01 1.67059443e-11 1.62459122e-11 4.60032185e-13 2.30301281e-27 2.10477607e-28 1.62459122e-11
1.25892541e-01 1.56278743e-11 1.51615674e-11 4.66306874e-13 7.69361090e-25 7.53734298e-26 1.51615674e-11
1.44543977e-01 1.45866405e-11 1.41495980e-11 4.37042546e-13 1.07162875e-22 1.06202766e-23 1.41495980e-11
1.65958691e-01 1.36584211e-11 1.32051732e-11 4.53247950e-13 5.54299321e-21 6.08180244e-22 1.32051732e-11
1.90546072e-01 1.27915696e-11 1.23237846e-11 4.67784855e-13 1.18087205e-19 1.44561748e-20 1.23237846e-11
2.18776162e-01 1.19078091e-11 1.15012250e-11 4.06582672e-13 1.39295288e-18 1.65746033e-19 1.15012250e-11
2.51188643e-01 1.12036404e-11 1.07335677e-11 4.70055327e-13 1.73795488e-17 2.53776011e-18 1.07335677e-11
2.88403150e-01 1.04769326e-11 1.00171482e-11 4.59637093e-13 1.47278786e-16 2.22174582e-17 1.00171482e-11
3.31131121e-01 9.78907730e-12 9.34854667e-12 4.39677928e-13 8.52701397e-16 1.28253125e-16 9.34854667e-12
3.80189396e-01 9.13941497e-12 8.72457139e-12 4.11252767e-13 3.59081887e-15 5.43460223e-16 8.72457139e-12
4.36515832e-01 8.54115433e-12 8.14224377e-12 3.87496704e-13 1.14138542e-14 1.70206356e-15 8.14224377e-12
5.01187234e-01 7.99036452e-12 7.59878402e-12 3.62866253e-13 2.87142481e-14 4.30423037e-15 7.59878402e-12
5.75439937e-01 7.48633503e-12 7.09159786e-12 3.35353479e-13 5.93836887e-14 8.78768176e-15 7.09159786e-12
6.60693448e-01 7.02913338e-12 6.61826421e-12 3.05072523e-13 1.05796655e-13 1.58475254e-14 6.61826421e-12
7.58577575e-01 6.62446280e-12 6.17652353e-12 2.76349246e-13 1.71590020e-13 2.70131340e-14 6.17652353e-12
8.70963590e-01 6.27723256e-12 5.76426715e-12 2.43051374e-13 2.69914033e-13 4.77175285e-14 5.76426715e-12
1.00000000e+00 6.02146298e-12 5.37952711e-12 2.07913450e-13 4.34022419e-13 8.75372449e-14 5.37952711e-12
1.14815362e+00 5.93018525e-12 5.02046681e-12 1.74737909e-13 7.34980526e-13 1.59467814e-13 5.02046681e-12
1.31825674e+00 6.11873081e-12 4.68537225e-12 1.40348581e-13 1.29300999e-12 2.73783571e-13 4.68537225e-12
1.51356125e+00 6.75873985e-12 4.37264380e-12 1.11865918e-13 2.27423013e-12 4.38393006e-13 4.37264380e-12
1.73780083e+00 7.95470217e-12 4.08078863e-12 9.02595952e-14 3.78365395e-12 6.23354604e-13 4.08078863e-12
1.99526231e+00 9.61700656e-12 3.80841354e-12 7.22645367e-14 5.73632848e-12 7.83966692e-13 3.80841354e-12
2.29086765e+00 1.16261558e-11 3.55421832e-12 5.65053507e-14 8.01543212e-12 8.80223203e-13 3.55421832e-12
2.63026799e+00 1.36145265e-11 3.31698953e-12 4.28430116e-14 1.02546940e-11 8.99617567e-13 3.31698953e-12
3.01995172e+00 1.53871408e-11 3.09559474e-12 3.16992596e-14 1.22598468e-11 8.41241715e-13 3.09559474e-12
3.46736850e+00 1.66943797e-11 2.88897711e-12 2.26961219e-14 1.37827065e-11 7.17014112e-13 2.88897711e-12
3.98107171e+00 1.75051529e-11 2.69615031e-12 1.54921061e-14 1.47935105e-11 5.55892787e-13 2.69615031e-12
4.57088190e+00 1.78086376e-11 2.51619387e-12 1.01474773e-14 1.52822962e-11 3.90996067e-13 2.51619387e-12
5.24807460e+00 1.73163817e-11 2.08050667e-12 5.67154263e-15 1.52302035e-11 2.52967629e-13 2.08050667e-12
6.02559586e+00 1.61545026e-11 1.37457712e-12 2.41622060e-15 1.47775093e-11 1.51928905e-13 1.37457712e-12
6.70000000e+00 1.51521443e-11 9.99872685e-13 1.22354107e-15 1.41510480e-11 9.70029017e-14 9.99872685e-13
6.92422916e+00 1.48404118e-11 9.05846924e-13 9.69961562e-16 1.39335950e-11 8.35513330e-14 9.05846924e-13
7.15596261e+00 1.46018109e-11 8.20663132e-13 7.70949932e-16 1.37803768e-11 7.16395654e-14 8.20663132e-13
7.39545150e+00 1.45415909e-11 7.43489831e-13 5.95894850e-16 1.37975052e-11 6.09876181e-14 7.43489831e-13
7.64295536e+00 1.50400445e-11 6.73573732e-13 4.22137108e-16 1.43660486e-11 5.15857398e-14 6.73573732e-13
7.89874245e+00 1.61981437e-11 6.10232385e-13 2.70708607e-16 1.55876406e-11 4.23615157e-14 6.10232385e-13
8.16308998e+00 1.75841684e-11 5.52847515e-13 1.61326125e-16 1.70311595e-11 3.38499692e-14 5.52847515e-13
8.43628443e+00 1.90815158e-11 5.00858987e-13 8.87036415e-17 1.85805681e-11 2.53914714e-14 5.00858987e-13
8.71862190e+00 1.97521752e-11 4.53759343e-13 5.37561152e-17 1.92983621e-11 1.93210429e-14 4.53759343e-13
9.01040836e+00 2.04449809e-11 4.11088843e-13 2.87854776e-17 2.00338633e-11 1.35523252e-14 4.11088843e-13
9.31196005e+00 2.07801648e-11 3.72430980e-13 0.00000000e+00 2.04077338e-11 0.00000000e+00 3.72430980e-13
9.62360379e+00 2.05913395e-11 3.37408415e-13 0.00000000e+00 2.02539311e-11 0.00000000e+00 3.37408415e-13
9.94567731e+00 2.00883169e-11 3.05679292e-13 0.00000000e+00 1.97826376e-11 0.00000000e+00 3.05679292e-13
1.02785297e+01 1.95095961e-11 2.76933904e-13 0.00000000e+00 1.92326622e-11 0.00000000e+00 2.76933904e-13
1.06225216e+01 1.87250751e-11 2.50891667e-13 0.00000000e+00 1.84741835e-11 0.00000000e+00 2.50891667e-13
1.09780260e+01 1.80472907e-11 2.27298384e-13 0.00000000e+00 1.78199923e-11 0.00000000e+00 2.27298384e-13
1.13454280e+01 1.71480307e-11 2.05923759e-13 0.00000000e+00 1.69421070e-11 0.00000000e+00 2.05923759e-13
1.17251259e+01 1.62924772e-11 1.86559155e-13 0.00000000e+00 1.61059181e-11 0.00000000e+00 1.86559155e-13
1.21175312e+01 1.54480676e-11 1.69015555e-13 0.00000000e+00 1.52790520e-11 0.00000000e+00 1.69015555e-13
1.25230691e+01 1.45271495e-11 1.53121715e-13 0.00000000e+00 1.43740277e-11 0.00000000e+00 1.53121715e-13
1.29421791e+01 1.36127527e-11 1.38722496e-13 0.00000000e+00 1.34740302e-11 0.00000000e+00 1.38722496e-13
1.33753155e+01 1.27367964e-11 1.25677347e-13 0.00000000e+00 1.26111190e-11 0.00000000e+00 1.25677347e-13
1.38229477e+01 1.21388654e-11 1.13858934e-13 0.00000000e+00 1.20250065e-11 0.00000000e+00 1.13858934e-13
1.42855609e+01 1.17222519e-11 1.03151898e-13 0.00000000e+00 1.16191000e-11 0.00000000e+00 1.03151898e-13
1.47636563e+01 1.17963220e-11 9.34517274e-14 0.00000000e+00 1.17028703e-11 0.00000000e+00 9.34517274e-14
1.52577522e+01 1.19687604e-11 8.46637387e-14 0.00000000e+00 1.18840966e-11 0.00000000e+00 8.46637387e-14
1.57683840e+01 1.22416533e-11 7.67021526e-14 0.00000000e+00 1.21649511e-11 0.00000000e+00 7.67021526e-14
1.62961051e+01 1.24599763e-11 6.94892560e-14 0.00000000e+00 1.23904871e-11 0.00000000e+00 6.94892560e-14
1.68414875e+01 1.26813126e-11 6.29546439e-14 0.00000000e+00 1.26183580e-11 0.00000000e+00 6.29546439e-14
1.74051222e+01 1.27267942e-11 5.70345319e-14 0.00000000e+00 1.26697596e-11 0.00000000e+00 5.70345319e-14
1.79876201e+01 1.27412917e-11 5.16711337e-14 0.00000000e+00 1.26896206e-11 0.00000000e+00 5.16711337e-14
1.85896125e+01 1.24978441e-11 4.68120974e-14 0.00000000e+00 1.24510320e-11 0.00000000e+00 4.68120974e-14
1.92117518e+01 1.21429540e-11 4.24099939e-14 0.00000000e+00 1.21005440e-11 0.00000000e+00 4.24099939e-14
1.98547123e+01 1.16477094e-11 3.84218542e-14 0.00000000e+00 1.16092875e-11 0.00000000e+00 3.84218542e-14
2.05191907e+01 1.10969345e-11 3.48087501e-14 0.00000000e+00 1.10621258e-11 0.00000000e+00 3.48087501e-14
2.12059073e+01 1.05461106e-11 3.15354141e-14 0.00000000e+00 1.05145752e-11 0.00000000e+00 3.15354141e-14
2.19156062e+01 1.00088646e-11 2.85698952e-14 0.00000000e+00 9.98029471e-12 0.00000000e+00 2.85698952e-14
2.26490567e+01 9.50894291e-12 2.58832470e-14 0.00000000e+00 9.48305966e-12 0.00000000e+00 2.58832470e-14
2.34070535e+01 9.00967330e-12 2.34492452e-14 0.00000000e+00 8.98622406e-12 0.00000000e+00 2.34492452e-14
2.41904183e+01 8.53200742e-12 2.12441313e-14 0.00000000e+00 8.51076329e-12 0.00000000e+00 2.12441313e-14
2.50000000e+01 8.05375310e-12 1.92463813e-14 0.00000000e+00 8.03450672e-12 0.00000000e+00 1.92463813e-14
2.75422870e+01 6.74404404e-12 1.43935895e-14 0.00000000e+00 6.72965045e-12 0.00000000e+00 1.43935895e-14
3.16227766e+01 5.04317444e-12 9.50975027e-15 0.00000000e+00 5.03366469e-12 0.00000000e+00 9.50975027e-15
3.63078055e+01 3.57195996e-12 6.28302969e-15 0.00000000e+00 3.56567693e-12 0.00000000e+00 6.28302969e-15
4.16869383e+01 2.36901976e-12 4.15115655e-15 0.00000000e+00 2.36486860e-12 0.00000000e+00 4.15115655e-15
4.78630092e+01 1.47231207e-12 2.74264194e-15 0.00000000e+00 1.46956943e-12 0.00000000e+00 2.74264194e-15
5.49540874e+01 8.70935174e-13 1.81204556e-15 0.00000000e+00 8.69123129e-13 0.00000000e+00 1.81204556e-15
6.30957344e+01 4.95583444e-13 1.19720663e-15 0.00000000e+00 4.94386237e-13 0.00000000e+00 1.19720663e-15
7.24435960e+01 2.74336133e-13 7.90986575e-16 0.00000000e+00 2.73545146e-13 0.00000000e+00 7.90986575e-16
8.31763771e+01 1.48945142e-13 5.22599647e-16 0.00000000e+00 1.48422542e-13 0.00000000e+00 5.22599647e-16
9.54992586e+01 7.98958614e-14 3.45278163e-16 0.00000000e+00 7.95505832e-14 0.00000000e+00 3.45278163e-16
1.09647820e+02 4.25144205e-14 2.28123020e-16 0.00000000e+00 4.22862975e-14 0.00000000e+00 2.28123020e-16
1.25892541e+02 2.27623725e-14 1.50719385e-16 0.00000000e+00 2.26116531e-14 0.00000000e+00 1.50719385e-16
1.44543977e+02 1.21820579e-14 9.95793099e-17 0.00000000e+00 1.20824786e-14 0.00000000e+00 9.95793099e-17
1.65958691e+02 6.23359609e-15 6.57913976e-17 0.00000000e+00 6.16780469e-15 0.00000000e+00 6.57913976e-17
1.90546072e+02 3.20666780e-15 4.34679453e-17 0.00000000e+00 3.16319986e-15 0.00000000e+00 4.34679453e-17
2.18776162e+02 1.65340424e-15 2.87189867e-17 0.00000000e+00 1.62468525e-15 0.00000000e+00 2.87189867e-17
2.51188643e+02 8.52702699e-16 1.89744463e-17 0.00000000e+00 8.33728253e-16 0.00000000e+00 1.89744463e-17
2.88403150e+02 4.39256621e-16 1.25362924e-17 0.00000000e+00 4.26720328e-16 0.00000000e+00 1.25362924e-17
3.31131121e+02 2.26470401e-16 8.28264623e-18 0.00000000e+00 2.18187755e-16 0.00000000e+00 8.28264623e-18
3.80189396e+02 1.16766220e-16 5.47229010e-18 0.00000000e+00 1.11293929e-16 0.00000000e+00 5.47229010e-18
4.36515832e+02 6.03134917e-17 3.61550621e-18 0.00000000e+00 5.66979855e-17 0.00000000e+00 3.61550621e-18
5.01187234e+02 3.12231007e-17 2.38874127e-18 0.00000000e+00 2.88343595e-17 0.00000000e+00 2.38874127e-18
5.75439937e+02 1.62221924e-17 1.57822570e-18 0.00000000e+00 1.46439667e-17 0.00000000e+00 1.57822570e-18
6.60693448e+02 8.47081825e-18 1.04272338e-18 0.00000000e+00 7.42809487e-18 0.00000000e+00 1.04272338e-18
7.58577575e+02 4.45275593e-18 6.88920507e-19 0.00000000e+00 3.76383542e-18 0.00000000e+00 6.88920507e-19
8.70963590e+02 2.36003411e-18 4.55165265e-19 0.00000000e+00 1.90486885e-18 0.00000000e+00 4.55165265e-19
1.00000000e+03 9.62919375e-19 0.00000000e+00 0.00000000e+00 9.62919375e-19 0.00000000e+00 0.00000000e+00
