# column 1: lambda (micron)
# column 2: total flux; lambda*F_lambda (W/m2)
# column 3: direct stellar flux; lambda*F_lambda (W/m2)
# column 4: scattered stellar flux; lambda*F_lambda (W/m2)
# column 5: total dust emission flux; lambda*F_lambda (W/m2)
# column 6: dust emission scattered flux; lambda*F_lambda (W/m2)
# column 7: transparent flux; lambda*F_lambda (W/m2)
1.00000000e-03 8.46529716e-13 8.46529401e-13 3.15023400e-19 0.00000000e+00 0.00000000e+00 8.46529401e-13
1.14815362e-03 9.99176589e-13 9.99176121e-13 4.68136163e-19 0.00000000e+00 0.00000000e+00 9.99176121e-13
1.31825674e-03 1.17934894e-12 1.17934819e-12 7.43029562e-19 0.00000000e+00 0.00000000e+00 1.17934819e-12
1.51356125e-03 1.39201018e-12 1.39200901e-12 1.16831274e-18 0.00000000e+00 0.00000000e+00 1.39200901e-12
1.73780083e-03 1.64301900e-12 1.64301696e-12 2.03605016e-18 0.00000000e+00 0.00000000e+00 1.64301696e-12
1.99526231e-03 1.93929037e-12 1.93928682e-12 3.55005942e-18 0.00000000e+00 0.00000000e+00 1.93928682e-12
2.29086765e-03 2.28898589e-12 2.28898025e-12 5.63658208e-18 0.00000000e+00 0.00000000e+00 2.28898025e-12
2.63026799e-03 2.70174149e-12 2.70173063e-12 1.08569592e-17 0.00000000e+00 0.00000000e+00 2.70173063e-12
3.01995172e-03 3.18892800e-12 3.18890841e-12 1.95888837e-17 0.00000000e+00 0.00000000e+00 3.18890841e-12
3.46736850e-03 3.76396592e-12 3.76393440e-12 3.15159991e-17 0.00000000e+00 0.00000000e+00 3.76393440e-12
3.98107171e-03 4.44270203e-12 4.44264945e-12 5.25758409e-17 0.00000000e+00 0.00000000e+00 4.44264945e-12
4.57088190e-03 5.24386032e-12 5.24375082e-12 1.09499757e-16 0.00000000e+00 0.00000000e+00 5.24375082e-12
5.24807460e-03 6.18950908e-12 6.18930730e-12 2.01776044e-16 0.00000000e+00 0.00000000e+00 6.18930730e-12
6.02559586e-03 7.30573836e-12 7.30536713e-12 3.71232513e-16 0.00000000e+00 0.00000000e+00 7.30536713e-12
6.91830971e-03 8.62325693e-12 8.62267558e-12 5.81350913e-16 0.00000000e+00 0.00000000e+00 8.62267558e-12
7.94328235e-03 1.01792533e-11 1.01775219e-11 1.73136560e-15 3.23187360e-303 5.47525970e-305 1.01775219e-11
9.12010839e-03 1.20143706e-11 1.20127391e-11 1.63147573e-15 1.53761784e-264 2.48287777e-266 1.20127391e-11
1.04712855e-02 1.34187554e-11 1.34165878e-11 2.16752089e-15 7.08286393e-231 1.89848164e-232 1.34165878e-11
1.20226443e-02 1.34198617e-11 1.34165878e-11 3.27382316e-15 1.17620507e-201 2.59574145e-203 1.34165878e-11
1.38038426e-02 1.34212297e-11 1.34165878e-11 4.64182305e-15 3.40237756e-176 9.16129400e-178 1.34165878e-11
1.58489319e-02 1.34229860e-11 1.34165878e-11 6.39812758e-15 4.86272548e-154 1.72089136e-155 1.34165878e-11
1.81970086e-02 1.34253256e-11 1.34165878e-11 8.73780621e-15 9.03052515e-135 3.33676987e-136 1.34165878e-11
2.08929613e-02 1.34287766e-11 1.34165878e-11 1.21887572e-14 4.90105596e-118 1.93719471e-119 1.34165878e-11
2.39883292e-02 1.34400864e-11 1.34165878e-11 2.34985815e-14 1.79546564e-103 9.53027289e-105 1.34165878e-11
2.75422870e-02 1.34396009e-11 1.34165878e-11 2.30130104e-14 8.22081910e-91 4.41175791e-92 1.34165878e-11
3.16227766e-02 1.34463145e-11 1.34165878e-11 2.97266552e-14 8.21520340e-80 4.82914186e-81 1.34165878e-11
3.63078055e-02 1.34508298e-11 1.34165878e-11 3.42419529e-14 2.90329766e-70 1.73254889e-71 1.34165878e-11
4.16869383e-02 1.34634680e-11 1.34165878e-11 4.68801489e-14 5.65349200e-62 4.00047941e-63 1.34165878e-11
4.78630092e-02 1.34829521e-11 1.34165878e-11 6.63643047e-14 8.65267278e-55 6.73743681e-56 1.34165878e-11
5.49540874e-02 1.34973852e-11 1.34165878e-11 8.07973214e-14 1.44471902e-48 1.18930581e-49 1.34165878e-11
6.30957344e-02 1.35146051e-11 1.34165878e-11 9.80172255e-14 4.61698596e-43 3.70836319e-44 1.34165878e-11
7.24435960e-02 1.35102434e-11 1.34165878e-11 9.36556029e-14 2.62629991e-38 1.78021344e-39 1.34165878e-11
8.31763771e-02 1.35121221e-11 1.34165878e-11 9.55342959e-14 2.71580028e-34 1.77943051e-35 1.34165878e-11
9.54992586e-02 1.35188342e-11 1.34165878e-11 1.02246401e-13 7.75380305e-31 5.37665089e-32 1.34165878e-11
1.09647820e-01 1.29141498e-11 1.28127470e-11 1.01402857e-13 6.75976691e-28 5.40711937e-29 1.28127470e-11
1.25892541e-01 1.20492193e-11 1.19575512e-11 9.16680789e-14 2.25025071e-25 1.92895558e-26 1.19575512e-11
1.44543977e-01 1.12402391e-11 1.11594361e-11 8.08030298e-14 3.12451962e-23 2.72411798e-24 1.11594361e-11
1.65958691e-01 1.05011391e-11 1.04145917e-11 8.65473780e-14 1.61524255e-21 1.56807949e-22 1.04145917e-11
1.90546072e-01 9.81946290e-12 9.71946251e-12 1.00000347e-13 3.39531704e-20 3.59943088e-21 9.71946251e-12
2.18776162e-01 9.17111468e-12 9.07073019e-12 1.00384090e-13 3.97574057e-19 4.20775906e-20 9.07073019e-12
2.51188643e-01 8.58048629e-12 8.46529796e-12 1.15183364e-13 4.96499760e-18 6.44420108e-19 8.46529796e-12
2.88403150e-01 8.00211948e-12 7.90027573e-12 1.01801818e-13 4.19335919e-17 5.47124567e-18 7.90027573e-12
3.31131121e-01 7.46785660e-12 7.37296631e-12 9.46478751e-14 2.42416336e-16 3.07800676e-17 7.37296631e-12
3.80189396e-01 6.96522173e-12 6.88085251e-12 8.33519833e-14 1.01723755e-15 1.25719746e-16 6.88085251e-12
4.36515832e-01 6.50184394e-12 6.42158520e-12 7.70215709e-14 3.23716661e-15 3.91021733e-16 6.42158520e-12
5.01187234e-01 6.07346951e-12 5.99297201e-12 7.23855389e-14 8.11196261e-15 9.54634736e-16 5.99297201e-12
5.75439937e-01 5.67577395e-12 5.59296690e-12 6.60496355e-14 1.67574097e-14 1.91251899e-15 5.59296690e-12
6.60693448e-01 5.30975866e-12 5.21966041e-12 6.04416265e-14 2.96566214e-14 3.26636011e-15 5.21966041e-12
7.58577575e-01 4.97369625e-12 4.87127053e-12 5.52255038e-14 4.72002208e-14 5.02081335e-15 4.87127053e-12
8.70963590e-01 4.66694259e-12 4.54613417e-12 5.05343087e-14 7.02741077e-14 7.26762182e-15 4.54613417e-12
1.00000000e+00 4.38725057e-12 4.24269927e-12 4.30445277e-14 1.01506774e-13 1.03795777e-14 4.24269927e-12
1.14815362e+00 4.14441189e-12 3.95951734e-12 3.54240915e-14 1.49470462e-13 1.48333504e-14 3.95951734e-12
1.31825674e+00 3.95281489e-12 3.69523659e-12 2.93026068e-14 2.28275698e-13 2.16085034e-14 3.69523659e-12
1.51356125e+00 3.82236683e-12 3.44859544e-12 2.33859343e-14 3.50385461e-13 3.05972832e-14 3.44859544e-12
1.73780083e+00 3.75623578e-12 3.21841652e-12 1.81234882e-14 5.19695770e-13 4.05539646e-14 3.21841652e-12
1.99526231e+00 3.73827943e-12 3.00360106e-12 1.33326751e-14 7.21345690e-13 4.76970200e-14 3.00360106e-12
2.29086765e+00 3.73860670e-12 2.80312361e-12 9.92825999e-15 9.25554833e-13 4.97230621e-14 2.80312361e-12
2.63026799e+00 3.72828865e-12 2.61602716e-12 6.94788687e-15 1.10531360e-12 4.72330522e-14 2.61602716e-12
3.01995172e+00 3.67661035e-12 2.44141860e-12 4.81532127e-15 1.23037643e-12 4.05672610e-14 2.44141860e-12
3.46736850e+00 3.57858138e-12 2.27846441e-12 3.23997231e-15 1.29687700e-12 3.23073897e-14 2.27846441e-12
3.98107171e+00 3.43244827e-12 2.12638671e-12 2.15800403e-15 1.30390356e-12 2.35704470e-14 2.12638671e-12
4.57088190e+00 3.24306991e-12 1.98445954e-12 1.38136225e-15 1.25722901e-12 1.59263036e-14 1.98445954e-12
5.24807460e+00 2.82053696e-12 1.64084388e-12 7.58341239e-16 1.17893474e-12 1.00864754e-14 1.64084388e-12
6.02559586e+00 2.17147600e-12 1.08409480e-12 3.27675934e-16 1.08705353e-12 5.97043241e-15 1.08409480e-12
6.70000000e+00 1.79966070e-12 7.88574724e-13 1.57371307e-16 1.01092860e-12 3.80691487e-15 7.88574724e-13
6.92422916e+00 1.70005004e-12 7.14418944e-13 1.27705254e-16 9.85503389e-13 3.28847394e-15 7.14418944e-13
7.15596261e+00 1.61566410e-12 6.47236606e-13 1.00911195e-16 9.68326587e-13 2.82821869e-15 6.47236606e-13
7.39545150e+00 1.56055874e-12 5.86371942e-13 7.76195555e-17 9.74109183e-13 2.40050184e-15 5.86371942e-13
7.64295536e+00 1.57405783e-12 5.31230854e-13 5.49814009e-17 1.04277200e-12 2.04570983e-15 5.31230854e-13
7.89874245e+00 1.68842594e-12 4.81275108e-13 3.58521827e-17 1.20711497e-12 1.74280378e-15 4.81275108e-13
8.16308998e+00 1.87629213e-12 4.36017088e-13 2.20642077e-17 1.44025298e-12 1.44220890e-15 4.36017088e-13
8.43628443e+00 2.15045754e-12 3.95015029e-13 1.27114345e-17 1.75542980e-12 1.16195529e-15 3.95015029e-13
8.71862190e+00 2.32834708e-12 3.57868711e-13 8.08516060e-18 1.97047029e-12 9.20849284e-16 3.57868711e-13
9.01040836e+00 2.49707000e-12 3.24215549e-13 4.94254756e-18 2.17284950e-12 6.66373019e-16 3.24215549e-13
9.31196005e+00 2.62874704e-12 2.93727053e-13 0.00000000e+00 2.33501999e-12 0.00000000e+00 2.93727053e-13
9.62360379e+00 2.58007213e-12 2.66105627e-13 0.00000000e+00 2.31396650e-12 0.00000000e+00 2.66105627e-13
9.94567731e+00 2.41114349e-12 2.41081657e-13 0.00000000e+00 2.17006183e-12 0.00000000e+00 2.41081657e-13
1.02785297e+01 2.20063214e-12 2.18410884e-13 0.00000000e+00 1.98222125e-12 0.00000000e+00 2.18410884e-13
1.06225216e+01 2.00463023e-12 1.97872020e-13 0.00000000e+00 1.80675821e-12 0.00000000e+00 1.97872020e-13
1.09780260e+01 1.79511396e-12 1.79264583e-13 0.00000000e+00 1.61584937e-12 0.00000000e+00 1.79264583e-13
1.13454280e+01 1.60473240e-12 1.62406948e-13 0.00000000e+00 1.44232545e-12 0.00000000e+00 1.62406948e-13
1.17251259e+01 1.44566921e-12 1.47134567e-13 0.00000000e+00 1.29853465e-12 0.00000000e+00 1.47134567e-13
1.21175312e+01 1.29965126e-12 1.33298366e-13 0.00000000e+00 1.16635290e-12 0.00000000e+00 1.33298366e-13
1.25230691e+01 1.16764490e-12 1.20763289e-13 0.00000000e+00 1.04688161e-12 0.00000000e+00 1.20763289e-13
1.29421791e+01 1.05442159e-12 1.09406983e-13 0.00000000e+00 9.45014604e-13 0.00000000e+00 1.09406983e-13
1.33753155e+01 9.56360043e-13 9.91185987e-14 0.00000000e+00 8.57241444e-13 0.00000000e+00 9.91185987e-14
1.38229477e+01 8.87366218e-13 8.97977103e-14 0.00000000e+00 7.97568508e-13 0.00000000e+00 8.97977103e-14
1.42855609e+01 8.45935448e-13 8.13533371e-14 0.00000000e+00 7.64582111e-13 0.00000000e+00 8.13533371e-14
1.47636563e+01 8.47826715e-13 7.37030537e-14 0.00000000e+00 7.74123662e-13 0.00000000e+00 7.37030537e-14
1.52577522e+01 8.57026835e-13 6.67721855e-14 0.00000000e+00 7.90254650e-13 0.00000000e+00 6.67721855e-14
1.57683840e+01 8.72861591e-13 6.04930805e-14 0.00000000e+00 8.12368510e-13 0.00000000e+00 6.04930805e-14
1.62961051e+01 8.93023557e-13 5.48044484e-14 0.00000000e+00 8.38219108e-13 0.00000000e+00 5.48044484e-14
1.68414875e+01 9.10175286e-13 4.96507622e-14 0.00000000e+00 8.60524523e-13 0.00000000e+00 4.96507622e-14
1.74051222e+01 9.14653634e-13 4.49817171e-14 0.00000000e+00 8.69671917e-13 0.00000000e+00 4.49817171e-14
1.79876201e+01 9.11884063e-13 4.07517384e-14 0.00000000e+00 8.71132325e-13 0.00000000e+00 4.07517384e-14
1.85896125e+01 8.94442717e-13 3.69195372e-14 0.00000000e+00 8.57523180e-13 0.00000000e+00 3.69195372e-14
1.92117518e+01 8.60232151e-13 3.34477076e-14 0.00000000e+00 8.26784443e-13 0.00000000e+00 3.34477076e-14
1.98547123e+01 8.21266646e-13 3.03023610e-14 0.00000000e+00 7.90964285e-13 0.00000000e+00 3.03023610e-14
2.05191907e+01 7.79141782e-13 2.74527957e-14 0.00000000e+00 7.51688986e-13 0.00000000e+00 2.74527957e-14
2.12059073e+01 7.39031325e-13 2.48711970e-14 0.00000000e+00 7.14160128e-13 0.00000000e+00 2.48711970e-14
2.19156062e+01 7.02187712e-13 2.25323660e-14 0.00000000e+00 6.79655346e-13 0.00000000e+00 2.25323660e-14
2.26490567e+01 6.66629256e-13 2.04134733e-14 0.00000000e+00 6.46215782e-13 0.00000000e+00 2.04134733e-14
2.34070535e+01 6.34323279e-13 1.84938366e-14 0.00000000e+00 6.15829442e-13 0.00000000e+00 1.84938366e-14
2.41904183e+01 6.03724603e-13 1.67547181e-14 0.00000000e+00 5.86969885e-13 0.00000000e+00 1.67547181e-14
2.50000000e+01 5.73053758e-13 1.51791424e-14 0.00000000e+00 5.57874616e-13 0.00000000e+00 1.51791424e-14
2.75422870e+01 4.90374815e-13 1.13518661e-14 0.00000000e+00 4.79022949e-13 0.00000000e+00 1.13518661e-14
3.16227766e+01 3.83434253e-13 7.50010357e-15 0.00000000e+00 3.75934150e-13 0.00000000e+00 7.50010357e-15
3.63078055e+01 2.84304978e-13 4.95526929e-15 0.00000000e+00 2.79349709e-13 0.00000000e+00 4.95526929e-15
4.16869383e+01 1.97541067e-13 3.27391395e-15 0.00000000e+00 1.94267153e-13 0.00000000e+00 3.27391395e-15
4.78630092e+01 1.28636926e-13 2.16305350e-15 0.00000000e+00 1.26473873e-13 0.00000000e+00 2.16305350e-15
5.49540874e+01 7.94059887e-14 1.42911527e-15 0.00000000e+00 7.79768734e-14 0.00000000e+00 1.42911527e-15
6.30957344e+01 4.70760639e-14 9.44207098e-16 0.00000000e+00 4.61318568e-14 0.00000000e+00 9.44207098e-16
7.24435960e+01 2.70625857e-14 6.23831443e-16 0.00000000e+00 2.64387542e-14 0.00000000e+00 6.23831443e-16
8.31763771e+01 1.52152274e-14 4.12161347e-16 0.00000000e+00 1.48030660e-14 0.00000000e+00 4.12161347e-16
9.54992586e+01 8.43242799e-15 2.72312302e-16 0.00000000e+00 8.16011568e-15 0.00000000e+00 2.72312302e-16
1.09647820e+02 4.62417093e-15 1.79914953e-16 0.00000000e+00 4.44425598e-15 0.00000000e+00 1.79914953e-16
1.25892541e+02 2.54614266e-15 1.18868631e-16 0.00000000e+00 2.42727403e-15 0.00000000e+00 1.18868631e-16
1.44543977e+02 1.39954857e-15 7.85357256e-17 0.00000000e+00 1.32101284e-15 0.00000000e+00 7.85357256e-17
1.65958691e+02 7.37081688e-16 5.18880394e-17 0.00000000e+00 6.85193649e-16 0.00000000e+00 5.18880394e-17
1.90546072e+02 3.90549679e-16 3.42820876e-17 0.00000000e+00 3.56267591e-16 0.00000000e+00 3.42820876e-17
2.18776162e+02 2.07830206e-16 2.26499507e-17 0.00000000e+00 1.85180256e-16 0.00000000e+00 2.26499507e-17
2.51188643e+02 1.10971830e-16 1.49646740e-17 0.00000000e+00 9.60071561e-17 0.00000000e+00 1.49646740e-17
2.88403150e+02 5.94643009e-17 9.88706207e-18 0.00000000e+00 4.95772388e-17 0.00000000e+00 9.88706207e-18
3.31131121e+02 3.20763798e-17 6.53231713e-18 0.00000000e+00 2.55440626e-17 0.00000000e+00 6.53231713e-18
3.80189396e+02 1.74320403e-17 4.31585913e-18 0.00000000e+00 1.31161811e-17 0.00000000e+00 4.31585913e-18
4.36515832e+02 9.57169153e-18 2.85145985e-18 0.00000000e+00 6.72023168e-18 0.00000000e+00 2.85145985e-18
5.01187234e+02 5.31856298e-18 1.88394084e-18 0.00000000e+00 3.43462214e-18 0.00000000e+00 1.88394084e-18
5.75439937e+02 2.99650244e-18 1.24470737e-18 0.00000000e+00 1.75179507e-18 0.00000000e+00 1.24470737e-18
6.60693448e+02 1.71426406e-18 8.22370004e-19 0.00000000e+00 8.91894054e-19 0.00000000e+00 8.22370004e-19
7.58577575e+02 9.96710181e-19 5.43334473e-19 0.00000000e+00 4.53375708e-19 0.00000000e+00 5.43334473e-19
8.70963590e+02 5.89068706e-19 3.58977527e-19 0.00000000e+00 2.30091179e-19 0.00000000e+00 3.58977527e-19
1.00000000e+03 1.16592799e-19 0.00000000e+00 0.00000000e+00 1.16592799e-19 0.00000000e+00 0.00000000e+00
