# column 1: lambda (micron)
# column 2: total flux; lambda*F_lambda (W/m2)
# column 3: direct stellar flux; lambda*F_lambda (W/m2)
# column 4: scattered stellar flux; lambda*F_lambda (W/m2)
# column 5: total dust emission flux; lambda*F_lambda (W/m2)
# column 6: dust emission scattered flux; lambda*F_lambda (W/m2)
# column 7: transparent flux; lambda*F_lambda (W/m2)
1.00000000e-03 3.57786647e-13 3.57785423e-13 1.22331253e-18 0.00000000e+00 0.00000000e+00 3.57785423e-13
1.14815362e-03 4.22303635e-13 4.22301518e-13 2.11681377e-18 0.00000000e+00 0.00000000e+00 4.22301518e-13
1.31825674e-03 4.98454303e-13 4.98451197e-13 3.10621061e-18 0.00000000e+00 0.00000000e+00 4.98451197e-13
1.51356125e-03 5.88337024e-13 5.88332233e-13 4.79053993e-18 0.00000000e+00 0.00000000e+00 5.88332233e-13
1.73780083e-03 6.94429484e-13 6.94420676e-13 8.80851289e-18 0.00000000e+00 0.00000000e+00 6.94420676e-13
1.99526231e-03 8.19655799e-13 8.19639053e-13 1.67461504e-17 0.00000000e+00 0.00000000e+00 8.19639053e-13
2.29086765e-03 9.67460515e-13 9.67436888e-13 2.36264768e-17 0.00000000e+00 0.00000000e+00 9.67436888e-13
2.63026799e-03 1.14193426e-12 1.14188572e-12 4.85368954e-17 0.00000000e+00 0.00000000e+00 1.14188572e-12
3.01995172e-03 1.34787391e-12 1.34779128e-12 8.26232386e-17 0.00000000e+00 0.00000000e+00 1.34779128e-12
3.46736850e-03 1.59097266e-12 1.59082586e-12 1.46800086e-16 0.00000000e+00 0.00000000e+00 1.59082586e-12
3.98107171e-03 1.87790282e-12 1.87768459e-12 2.18221836e-16 0.00000000e+00 0.00000000e+00 1.87768459e-12
4.57088190e-03 2.21675858e-12 2.21626987e-12 4.88704537e-16 0.00000000e+00 0.00000000e+00 2.21626987e-12
5.24807460e-03 2.61676122e-12 2.61590907e-12 8.52155665e-16 0.00000000e+00 0.00000000e+00 2.61590907e-12
6.02559586e-03 3.08922976e-12 3.08761145e-12 1.61830735e-15 0.00000000e+00 0.00000000e+00 3.08761145e-12
6.91830971e-03 3.64715365e-12 3.64437151e-12 2.78213466e-15 0.00000000e+00 0.00000000e+00 3.64437151e-12
7.94328235e-03 4.30689555e-12 4.30152690e-12 5.36865200e-15 9.50503833e-305 3.72376653e-306 4.30152690e-12
9.12010839e-03 5.08379845e-12 5.07718096e-12 6.61749082e-15 3.90090707e-266 2.17410114e-267 5.07718096e-12
1.04712855e-02 5.68077745e-12 5.67051724e-12 1.02602137e-14 1.62321820e-232 1.66602036e-233 5.67051724e-12
1.20226443e-02 5.68609539e-12 5.67051724e-12 1.55781514e-14 2.47681272e-203 3.33059551e-204 5.67051724e-12
1.38038426e-02 5.69657760e-12 5.67051724e-12 2.60603563e-14 6.31461517e-178 8.06011924e-179 5.67051724e-12
1.58489319e-02 5.70558745e-12 5.67051724e-12 3.50702079e-14 8.03934173e-156 9.90999159e-157 5.67051724e-12
1.81970086e-02 5.70874945e-12 5.67051724e-12 3.82322089e-14 1.38179969e-136 1.83600974e-137 5.67051724e-12
2.08929613e-02 5.72930404e-12 5.67051724e-12 5.87867967e-14 6.90624278e-120 9.11610994e-121 5.67051724e-12
2.39883292e-02 5.74564188e-12 5.67051724e-12 7.51246388e-14 2.30410564e-105 2.82099356e-106 5.67051724e-12
2.75422870e-02 5.75604016e-12 5.67051724e-12 8.55229208e-14 9.88814366e-93 1.21997554e-93 5.67051724e-12
3.16227766e-02 5.77355076e-12 5.67051724e-12 1.03033522e-13 9.21494308e-82 1.08133172e-82 5.67051724e-12
3.63078055e-02 5.77627571e-12 5.67051724e-12 1.05758473e-13 3.07586703e-72 3.46035459e-73 5.67051724e-12
4.16869383e-02 5.80648645e-12 5.67051724e-12 1.35969213e-13 5.63999086e-64 6.11220410e-65 5.67051724e-12
4.78630092e-02 5.79253789e-12 5.67051724e-12 1.22020655e-13 8.07256670e-57 8.47640044e-58 5.67051724e-12
5.49540874e-02 5.79231535e-12 5.67051724e-12 1.21798109e-13 1.26457485e-50 1.29690107e-51 5.67051724e-12
6.30957344e-02 5.78915109e-12 5.67051724e-12 1.18633850e-13 3.65456188e-45 3.71527750e-46 5.67051724e-12
7.24435960e-02 5.77665408e-12 5.67051724e-12 1.06136838e-13 1.88504510e-40 1.78841704e-41 5.67051724e-12
8.31763771e-02 5.77125862e-12 5.67051724e-12 1.00741384e-13 1.93456511e-36 1.77614746e-37 5.67051724e-12
9.54992586e-02 5.77534942e-12 5.67051724e-12 1.04832183e-13 5.55090407e-33 5.02359065e-34 5.67051724e-12
1.09647820e-01 5.52002167e-12 5.41530405e-12 1.04717618e-13 5.04564712e-30 4.77131702e-31 5.41530405e-12
1.25892541e-01 5.16525709e-12 5.05385580e-12 1.11401289e-13 1.75003626e-27 1.66498770e-28 5.05385580e-12
1.44543977e-01 4.81351606e-12 4.71653266e-12 9.69833995e-14 2.52012551e-25 2.23657875e-26 4.71653266e-12
1.65958691e-01 4.49856996e-12 4.40172439e-12 9.68455765e-14 1.32141980e-23 1.18454806e-24 4.40172439e-12
1.90546072e-01 4.19985222e-12 4.10792822e-12 9.19240001e-14 2.70994509e-22 2.62003370e-23 4.10792822e-12
2.18776162e-01 3.91836628e-12 3.83374167e-12 8.46246054e-14 3.03189138e-21 2.97190985e-22 3.83374167e-12
2.51188643e-01 3.67108406e-12 3.57785591e-12 9.32281176e-14 3.91196978e-20 4.18230743e-21 3.57785591e-12
2.88403150e-01 3.42557681e-12 3.33904941e-12 8.65270614e-14 3.39678377e-19 3.43453198e-20 3.33904941e-12
3.31131121e-01 3.19732066e-12 3.11618222e-12 8.11364210e-14 2.01663287e-18 1.97075393e-19 3.11618222e-12
3.80189396e-01 2.97803446e-12 2.90819046e-12 6.98353367e-14 8.65596975e-18 8.05810650e-19 2.90819046e-12
4.36515832e-01 2.78105266e-12 2.71408126e-12 6.69424444e-14 2.89626140e-17 2.70585316e-18 2.71408126e-12
5.01187234e-01 2.59409052e-12 2.53292801e-12 6.10794974e-14 8.30175207e-17 8.35296753e-18 2.53292801e-12
5.75439937e-01 2.41785039e-12 2.36386595e-12 5.37492591e-14 2.35180474e-16 2.95017806e-17 2.36386595e-12
6.60693448e-01 2.25365276e-12 2.20608807e-12 4.68507822e-14 7.13911731e-16 1.09141920e-16 2.20608807e-12
7.58577575e-01 2.10360439e-12 2.05884118e-12 4.25397199e-14 2.22349274e-15 3.77818053e-16 2.05884118e-12
8.70963590e-01 1.96507206e-12 1.92142238e-12 3.71950777e-14 6.45459930e-15 1.11309237e-15 1.92142238e-12
1.00000000e+00 1.84081597e-12 1.79317570e-12 3.11417936e-14 1.64984694e-14 2.69777172e-15 1.79317570e-12
1.14815362e+00 1.73707835e-12 1.67348894e-12 2.58601707e-14 3.77292416e-14 5.61684567e-15 1.67348894e-12
1.31825674e+00 1.66170856e-12 1.56179075e-12 2.19495263e-14 7.79682865e-14 1.01952088e-14 1.56179075e-12
1.51356125e+00 1.62016504e-12 1.45754793e-12 1.75450365e-14 1.45072067e-13 1.61428371e-14 1.45754793e-12
1.73780083e+00 1.61551500e-12 1.36026288e-12 1.35905841e-14 2.41661534e-13 2.20192223e-14 1.36026288e-12
1.99526231e+00 1.64173284e-12 1.26947118e-12 1.01705340e-14 3.62091129e-13 2.59170567e-14 1.26947118e-12
2.29086765e+00 1.68684883e-12 1.18473944e-12 7.37154144e-15 4.94737851e-13 2.66137130e-14 1.18473944e-12
2.63026799e+00 1.73555577e-12 1.10566318e-12 5.36678703e-15 6.24525803e-13 2.48976028e-14 1.10566318e-12
3.01995172e+00 1.77378171e-12 1.03186491e-12 3.83549457e-15 7.38081300e-13 2.15608578e-14 1.03186491e-12
3.46736850e+00 1.78805344e-12 9.62992369e-13 2.55632839e-15 8.22504739e-13 1.73164436e-14 9.62992369e-13
3.98107171e+00 1.77272189e-12 8.98716770e-13 1.72198890e-15 8.72283126e-13 1.32058707e-14 8.98716770e-13
4.57088190e+00 1.72615824e-12 8.38731291e-13 1.12497439e-15 8.86301978e-13 9.24830604e-15 8.38731291e-13
5.24807460e+00 1.56469162e-12 6.93502223e-13 6.49083240e-16 8.70540315e-13 6.17330106e-15 6.93502223e-13
6.02559586e+00 1.29561809e-12 4.58192375e-13 2.75868517e-16 8.37149851e-13 3.87924867e-15 4.58192375e-13
6.70000000e+00 1.13754923e-12 3.33290895e-13 1.39996027e-16 8.04118341e-13 2.58465519e-15 3.33290895e-13
6.92422916e+00 1.09211050e-12 3.01948975e-13 1.11055213e-16 7.90050474e-13 2.25769332e-15 3.01948975e-13
7.15596261e+00 1.05826377e-12 2.73554377e-13 8.86530141e-17 7.84620735e-13 1.93844463e-15 2.73554377e-13
7.39545150e+00 1.03834683e-12 2.47829944e-13 7.02207701e-17 7.90446666e-13 1.67317167e-15 2.47829944e-13
7.64295536e+00 1.06412781e-12 2.24524577e-13 4.90695734e-17 8.39554161e-13 1.39317359e-15 2.24524577e-13
7.89874245e+00 1.15457048e-12 2.03410795e-13 3.02856602e-17 9.51129397e-13 1.12800809e-15 2.03410795e-13
8.16308998e+00 1.29994877e-12 1.84282505e-13 1.77298828e-17 1.11564854e-12 9.00650262e-16 1.84282505e-13
8.43628443e+00 1.51030577e-12 1.66952996e-13 9.98943108e-18 1.34334279e-12 6.86563625e-16 1.66952996e-13
8.71862190e+00 1.66915757e-12 1.51253114e-13 6.29791257e-18 1.51789816e-12 5.39388512e-16 1.51253114e-13
9.01040836e+00 1.82839475e-12 1.37029614e-13 3.77207754e-18 1.69136136e-12 3.93890459e-16 1.37029614e-13
9.31196005e+00 1.95569906e-12 1.24143660e-13 0.00000000e+00 1.83155540e-12 0.00000000e+00 1.24143660e-13
9.62360379e+00 1.94703658e-12 1.12469472e-13 0.00000000e+00 1.83456710e-12 0.00000000e+00 1.12469472e-13
9.94567731e+00 1.83800092e-12 1.01893097e-13 0.00000000e+00 1.73610782e-12 0.00000000e+00 1.01893097e-13
1.02785297e+01 1.69401145e-12 9.23113014e-14 0.00000000e+00 1.60170015e-12 0.00000000e+00 9.23113014e-14
1.06225216e+01 1.56051215e-12 8.36305558e-14 0.00000000e+00 1.47688159e-12 0.00000000e+00 8.36305558e-14
1.09780260e+01 1.40788156e-12 7.57661279e-14 0.00000000e+00 1.33211543e-12 0.00000000e+00 7.57661279e-14
1.13454280e+01 1.28036131e-12 6.86412529e-14 0.00000000e+00 1.21172006e-12 0.00000000e+00 6.86412529e-14
1.17251259e+01 1.17333951e-12 6.21863851e-14 0.00000000e+00 1.11115312e-12 0.00000000e+00 6.21863851e-14
1.21175312e+01 1.07559117e-12 5.63385184e-14 0.00000000e+00 1.01925265e-12 0.00000000e+00 5.63385184e-14
1.25230691e+01 9.83488883e-13 5.10405718e-14 0.00000000e+00 9.32448311e-13 0.00000000e+00 5.10405718e-14
1.29421791e+01 9.10314821e-13 4.62408321e-14 0.00000000e+00 8.64073989e-13 0.00000000e+00 4.62408321e-14
1.33753155e+01 8.43330376e-13 4.18924490e-14 0.00000000e+00 8.01437927e-13 0.00000000e+00 4.18924490e-14
1.38229477e+01 8.04870671e-13 3.79529781e-14 0.00000000e+00 7.66917693e-13 0.00000000e+00 3.79529781e-14
1.42855609e+01 7.82577427e-13 3.43839660e-14 0.00000000e+00 7.48193461e-13 0.00000000e+00 3.43839660e-14
1.47636563e+01 7.96056041e-13 3.11505758e-14 0.00000000e+00 7.64905466e-13 0.00000000e+00 3.11505758e-14
1.52577522e+01 8.17038020e-13 2.82212462e-14 0.00000000e+00 7.88816774e-13 0.00000000e+00 2.82212462e-14
1.57683840e+01 8.43769744e-13 2.55673842e-14 0.00000000e+00 8.18202360e-13 0.00000000e+00 2.55673842e-14
1.62961051e+01 8.75483117e-13 2.31630853e-14 0.00000000e+00 8.52320032e-13 0.00000000e+00 2.31630853e-14
1.68414875e+01 9.02837043e-13 2.09848813e-14 0.00000000e+00 8.81852161e-13 0.00000000e+00 2.09848813e-14
1.74051222e+01 9.22919188e-13 1.90115106e-14 0.00000000e+00 9.03907678e-13 0.00000000e+00 1.90115106e-14
1.79876201e+01 9.38959830e-13 1.72237112e-14 0.00000000e+00 9.21736119e-13 0.00000000e+00 1.72237112e-14
1.85896125e+01 9.38114417e-13 1.56040325e-14 0.00000000e+00 9.22510385e-13 0.00000000e+00 1.56040325e-14
1.92117518e+01 9.26773937e-13 1.41366646e-14 0.00000000e+00 9.12637273e-13 0.00000000e+00 1.41366646e-14
1.98547123e+01 9.09231118e-13 1.28072847e-14 0.00000000e+00 8.96423833e-13 0.00000000e+00 1.28072847e-14
2.05191907e+01 8.90521134e-13 1.16029167e-14 0.00000000e+00 8.78918218e-13 0.00000000e+00 1.16029167e-14
2.12059073e+01 8.62507908e-13 1.05118047e-14 0.00000000e+00 8.51996104e-13 0.00000000e+00 1.05118047e-14
2.19156062e+01 8.49278913e-13 9.52329842e-15 0.00000000e+00 8.39755615e-13 0.00000000e+00 9.52329842e-15
2.26490567e+01 8.29639634e-13 8.62774902e-15 0.00000000e+00 8.21011885e-13 0.00000000e+00 8.62774902e-15
2.34070535e+01 8.13111038e-13 7.81641505e-15 0.00000000e+00 8.05294623e-13 0.00000000e+00 7.81641505e-15
2.41904183e+01 7.99420095e-13 7.08137710e-15 0.00000000e+00 7.92338718e-13 0.00000000e+00 7.08137710e-15
2.50000000e+01 7.82780773e-13 6.41546044e-15 0.00000000e+00 7.76365312e-13 0.00000000e+00 6.41546044e-15
2.75422870e+01 7.32723796e-13 4.79786316e-15 0.00000000e+00 7.27925933e-13 0.00000000e+00 4.79786316e-15
3.16227766e+01 6.49497858e-13 3.16991676e-15 0.00000000e+00 6.46327941e-13 0.00000000e+00 3.16991676e-15
3.63078055e+01 5.44490045e-13 2.09434323e-15 0.00000000e+00 5.42395702e-13 0.00000000e+00 2.09434323e-15
4.16869383e+01 4.25039284e-13 1.38371885e-15 0.00000000e+00 4.23655565e-13 0.00000000e+00 1.38371885e-15
4.78630092e+01 3.09451546e-13 9.14213979e-16 0.00000000e+00 3.08537332e-13 0.00000000e+00 9.14213979e-16
5.49540874e+01 2.11357472e-13 6.04015186e-16 0.00000000e+00 2.10753457e-13 0.00000000e+00 6.04015186e-16
6.30957344e+01 1.36875704e-13 3.99068876e-16 0.00000000e+00 1.36476635e-13 0.00000000e+00 3.99068876e-16
7.24435960e+01 8.47522627e-14 2.63662192e-16 0.00000000e+00 8.44886005e-14 0.00000000e+00 2.63662192e-16
8.31763771e+01 5.07428331e-14 1.74199882e-16 0.00000000e+00 5.05686332e-14 0.00000000e+00 1.74199882e-16
9.54992586e+01 2.95938627e-14 1.15092721e-16 0.00000000e+00 2.94787700e-14 0.00000000e+00 1.15092721e-16
1.09647820e+02 1.69063037e-14 7.60410067e-17 0.00000000e+00 1.68302627e-14 0.00000000e+00 7.60410067e-17
1.25892541e+02 9.60080398e-15 5.02397949e-17 0.00000000e+00 9.55056419e-15 0.00000000e+00 5.02397949e-17
1.44543977e+02 5.40142366e-15 3.31931033e-17 0.00000000e+00 5.36823055e-15 0.00000000e+00 3.31931033e-17
1.65958691e+02 2.88891340e-15 2.19304659e-17 0.00000000e+00 2.86698294e-15 0.00000000e+00 2.19304659e-17
1.90546072e+02 1.54215690e-15 1.44893151e-17 0.00000000e+00 1.52766758e-15 0.00000000e+00 1.44893151e-17
2.18776162e+02 8.19841352e-16 9.57299556e-18 0.00000000e+00 8.10268357e-16 0.00000000e+00 9.57299556e-18
2.51188643e+02 4.33615091e-16 6.32481544e-18 0.00000000e+00 4.27290276e-16 0.00000000e+00 6.32481544e-18
2.88403150e+02 2.28028564e-16 4.17876412e-18 0.00000000e+00 2.23849799e-16 0.00000000e+00 4.17876412e-18
3.31131121e+02 1.19509595e-16 2.76088208e-18 0.00000000e+00 1.16748713e-16 0.00000000e+00 2.76088208e-18
3.80189396e+02 6.23997184e-17 1.82409670e-18 0.00000000e+00 6.05756217e-17 0.00000000e+00 1.82409670e-18
4.36515832e+02 3.25173854e-17 1.20516874e-18 0.00000000e+00 3.13122167e-17 0.00000000e+00 1.20516874e-18
5.01187234e+02 1.69205721e-17 7.96247089e-19 0.00000000e+00 1.61243250e-17 0.00000000e+00 7.96247089e-19
5.75439937e+02 8.80345522e-18 5.26075235e-19 0.00000000e+00 8.27737999e-18 0.00000000e+00 5.26075235e-19
6.60693448e+02 4.58520389e-18 3.47574461e-19 0.00000000e+00 4.23762943e-18 0.00000000e+00 3.47574461e-19
7.58577575e+02 2.39400602e-18 2.29640169e-19 0.00000000e+00 2.16436585e-18 0.00000000e+00 2.29640169e-19
8.70963590e+02 1.25463388e-18 1.51721755e-19 0.00000000e+00 1.10291212e-18 0.00000000e+00 1.51721755e-19
1.00000000e+03 5.60835185e-19 0.00000000e+00 0.00000000e+00 5.60835185e-19 0.00000000e+00 0.00000000e+00
