# column 1: lambda (micron)
# column 2: total flux; lambda*F_lambda (W/m2)
# column 3: direct stellar flux; lambda*F_lambda (W/m2)
# column 4: scattered stellar flux; lambda*F_lambda (W/m2)
# column 5: total dust emission flux; lambda*F_lambda (W/m2)
# column 6: dust emission scattered flux; lambda*F_lambda (W/m2)
# column 7: transparent flux; lambda*F_lambda (W/m2)
1.00000000e-03 5.25637245e-13 5.25636674e-13 5.70859651e-19 0.00000000e+00 0.00000000e+00 5.25636674e-13
1.14815362e-03 6.20420682e-13 6.20419813e-13 8.69547558e-19 0.00000000e+00 0.00000000e+00 6.20419813e-13
1.31825674e-03 7.32295632e-13 7.32294308e-13 1.32380102e-18 0.00000000e+00 0.00000000e+00 7.32294308e-13
1.51356125e-03 8.64344084e-13 8.64342083e-13 2.00135888e-18 0.00000000e+00 0.00000000e+00 8.64342083e-13
1.73780083e-03 1.02020458e-12 1.02020080e-12 3.78510052e-18 0.00000000e+00 0.00000000e+00 1.02020080e-12
1.99526231e-03 1.20417120e-12 1.20416405e-12 7.15167224e-18 0.00000000e+00 0.00000000e+00 1.20416405e-12
2.29086765e-03 1.42130990e-12 1.42129968e-12 1.02201051e-17 0.00000000e+00 0.00000000e+00 1.42129968e-12
2.63026799e-03 1.67761084e-12 1.67758934e-12 2.14973965e-17 0.00000000e+00 0.00000000e+00 1.67758934e-12
3.01995172e-03 1.98012804e-12 1.98009332e-12 3.47195353e-17 0.00000000e+00 0.00000000e+00 1.98009332e-12
3.46736850e-03 2.33720652e-12 2.33714500e-12 6.15110658e-17 0.00000000e+00 0.00000000e+00 2.33714500e-12
3.98107171e-03 2.75867355e-12 2.75858048e-12 9.30715094e-17 0.00000000e+00 0.00000000e+00 2.75858048e-12
4.57088190e-03 3.25621168e-12 3.25600946e-12 2.02218033e-16 0.00000000e+00 0.00000000e+00 3.25600946e-12
5.24807460e-03 3.84349710e-12 3.84313516e-12 3.61942028e-16 0.00000000e+00 0.00000000e+00 3.84313516e-12
6.02559586e-03 4.53681813e-12 4.53613173e-12 6.86399217e-16 0.00000000e+00 0.00000000e+00 4.53613173e-12
6.91830971e-03 5.35517982e-12 5.35408989e-12 1.08992372e-15 0.00000000e+00 0.00000000e+00 5.35408989e-12
7.94328235e-03 6.32134561e-12 6.31954278e-12 1.80282539e-15 1.05897100e-303 4.89457372e-306 6.31954278e-12
9.12010839e-03 7.46241960e-12 7.45908676e-12 3.33284241e-15 5.03726225e-265 4.86996857e-267 7.45908676e-12
1.04712855e-02 8.33470776e-12 8.33078048e-12 3.92728230e-15 2.26701013e-231 1.43639521e-233 8.33078048e-12
1.20226443e-02 8.33722477e-12 8.33078048e-12 6.44429465e-15 3.76787264e-202 3.09962429e-204 8.33078048e-12
1.38038426e-02 8.33895015e-12 8.33078048e-12 8.16967728e-15 1.08292201e-176 1.28686017e-178 8.33078048e-12
1.58489319e-02 8.34286991e-12 8.33078048e-12 1.20894348e-14 1.53558052e-154 2.47233266e-156 8.33078048e-12
1.81970086e-02 8.34898414e-12 8.33078048e-12 1.82036662e-14 2.85006241e-135 5.28215254e-137 8.33078048e-12
2.08929613e-02 8.35871030e-12 8.33078048e-12 2.79298276e-14 1.54532000e-118 3.70684747e-120 8.33078048e-12
2.39883292e-02 8.36520055e-12 8.33078048e-12 3.44200772e-14 5.61205950e-104 1.75189364e-105 8.33078048e-12
2.75422870e-02 8.37348611e-12 8.33078048e-12 4.27056325e-14 2.58131780e-91 9.23289223e-93 8.33078048e-12
3.16227766e-02 8.38169135e-12 8.33078048e-12 5.09108793e-14 2.58614692e-80 1.11466042e-81 8.33078048e-12
3.63078055e-02 8.38915545e-12 8.33078048e-12 5.83749702e-14 9.14354122e-71 4.16779079e-72 8.33078048e-12
4.16869383e-02 8.40975371e-12 8.33078048e-12 7.89732372e-14 1.77472389e-62 9.55678490e-64 8.33078048e-12
4.78630092e-02 8.42425430e-12 8.33078048e-12 9.34738240e-14 2.72227089e-55 1.66572954e-56 8.33078048e-12
5.49540874e-02 8.43704596e-12 8.33078048e-12 1.06265487e-13 4.57355324e-49 3.00870268e-50 8.33078048e-12
6.30957344e-02 8.44133411e-12 8.33078048e-12 1.10553635e-13 1.48164040e-43 9.81758335e-45 8.33078048e-12
7.24435960e-02 8.42717231e-12 8.33078048e-12 9.63918338e-14 8.58305006e-39 4.99062052e-40 8.33078048e-12
8.31763771e-02 8.42562565e-12 8.33078048e-12 9.48451768e-14 8.85091121e-35 5.04778954e-36 8.33078048e-12
9.54992586e-02 8.42841894e-12 8.33078048e-12 9.76384669e-14 2.51587063e-31 1.49172000e-32 8.33078048e-12
1.09647820e-01 8.05991130e-12 7.95583672e-12 1.04074584e-13 2.16109571e-28 1.43866864e-29 7.95583672e-12
1.25892541e-01 7.52001092e-12 7.42481883e-12 9.51920872e-14 7.08356712e-26 4.94059700e-27 7.42481883e-12
1.44543977e-01 7.02219821e-12 6.92924411e-12 9.29541022e-14 9.69796599e-24 6.55916770e-25 6.92924411e-12
1.65958691e-01 6.56437233e-12 6.46674687e-12 9.76254639e-14 4.93735003e-22 3.61316517e-23 6.46674687e-12
1.90546072e-01 6.13281881e-12 6.03511933e-12 9.76994786e-14 1.04389879e-20 8.74116693e-22 6.03511933e-12
2.18776162e-01 5.72366154e-12 5.63230107e-12 9.13603499e-14 1.23048850e-19 9.97579147e-21 5.63230107e-12
2.51188643e-01 5.35824756e-12 5.25636919e-12 1.01876869e-13 1.50124932e-18 1.47066386e-19 5.25636919e-12
2.88403150e-01 4.99924252e-12 4.90552916e-12 9.37008173e-14 1.25476696e-17 1.21884444e-18 4.90552916e-12
3.31131121e-01 4.66504723e-12 4.57810618e-12 8.68689129e-14 7.21327964e-17 6.89908180e-18 4.57810618e-12
3.80189396e-01 4.35097176e-12 4.27253728e-12 7.81338008e-14 3.00672826e-16 2.76399727e-17 4.27253728e-12
4.36515832e-01 4.05985752e-12 3.98736380e-12 7.15425530e-14 9.51167476e-16 8.46384731e-17 3.98736380e-12
5.01187234e-01 3.79047409e-12 3.72122441e-12 6.68726990e-14 2.37697908e-15 2.06549561e-16 3.72122441e-12
5.75439937e-01 3.53617594e-12 3.47284869e-12 5.84108630e-14 4.91639073e-15 4.17880113e-16 3.47284869e-12
6.60693448e-01 3.30184513e-12 3.24105097e-12 5.19747904e-14 8.81936333e-15 7.53294799e-16 3.24105097e-12
7.58577575e-01 3.08483791e-12 3.02472476e-12 4.55565565e-14 1.45565916e-14 1.25358657e-15 3.02472476e-12
8.70963590e-01 2.88749828e-12 2.82283739e-12 4.11523761e-14 2.35085123e-14 2.12631331e-15 2.82283739e-12
1.00000000e+00 2.70833843e-12 2.63442513e-12 3.52702491e-14 3.86430502e-14 3.72029901e-15 2.63442513e-12
1.14815362e+00 2.55596024e-12 2.45858859e-12 3.01464991e-14 6.72251552e-14 6.64074093e-15 2.45858859e-12
1.31825674e+00 2.43862718e-12 2.29448837e-12 2.38053000e-14 1.20333506e-13 1.15451009e-14 2.29448837e-12
1.51356125e+00 2.37095414e-12 2.14134114e-12 1.87341888e-14 2.10878808e-13 1.87780310e-14 2.14134114e-12
1.73780083e+00 2.35742278e-12 1.99841583e-12 1.45385149e-14 3.44468430e-13 2.67544384e-14 1.99841583e-12
1.99526231e+00 2.38964936e-12 1.86503017e-12 1.08255390e-14 5.13793650e-13 3.35742697e-14 1.86503017e-12
2.29086765e+00 2.44627960e-12 1.74054743e-12 7.99519787e-15 6.97736972e-13 3.66273502e-14 1.74054743e-12
2.63026799e+00 2.49958328e-12 1.62437337e-12 5.72713677e-15 8.69482776e-13 3.57398940e-14 1.62437337e-12
3.01995172e+00 2.52425991e-12 1.51595343e-12 4.10034996e-15 1.00420613e-12 3.12498542e-14 1.51595343e-12
3.46736850e+00 2.50871537e-12 1.41477006e-12 2.82525921e-15 1.09112005e-12 2.56931048e-14 1.41477006e-12
3.98107171e+00 2.44057195e-12 1.32034025e-12 1.90240054e-15 1.11832931e-12 1.91004235e-14 1.32034025e-12
4.57088190e+00 2.33249277e-12 1.23221321e-12 1.23101843e-15 1.09904854e-12 1.33446835e-14 1.23221321e-12
5.24807460e+00 2.06563703e-12 1.01885146e-12 6.89881077e-16 1.04609569e-12 8.69350124e-15 1.01885146e-12
6.02559586e+00 1.65285610e-12 6.73148485e-13 3.03043160e-16 9.79404573e-13 5.27799756e-15 6.73148485e-13
6.70000000e+00 1.40765378e-12 4.89650796e-13 1.50986295e-16 9.17852001e-13 3.44741137e-15 4.89650796e-13
6.92422916e+00 1.34092440e-12 4.43605145e-13 1.18855208e-16 8.97200403e-13 2.97912704e-15 4.43605145e-13
7.15596261e+00 1.28633213e-12 4.01889522e-13 9.40487768e-17 8.84348554e-13 2.54871777e-15 4.01889522e-13
7.39545150e+00 1.25327327e-12 3.64096743e-13 7.09410898e-17 8.89105589e-13 2.19159441e-15 3.64096743e-13
7.64295536e+00 1.27691396e-12 3.29857910e-13 5.18311168e-17 9.47004222e-13 1.85304406e-15 3.29857910e-13
7.89874245e+00 1.38401568e-12 2.98838820e-13 3.24334828e-17 1.08514443e-12 1.52354329e-15 2.98838820e-13
8.16308998e+00 1.55668244e-12 2.70736695e-13 1.91098736e-17 1.28592663e-12 1.23232662e-15 2.70736695e-13
8.43628443e+00 1.78954262e-12 2.45277229e-13 1.08364327e-17 1.54425456e-12 9.61991570e-16 2.45277229e-13
8.71862190e+00 1.94802537e-12 2.22211915e-13 6.85785519e-18 1.72580660e-12 7.41947427e-16 2.22211915e-13
9.01040836e+00 2.10702206e-12 2.01315610e-13 4.19894909e-18 1.90570225e-12 5.45075059e-16 2.01315610e-13
9.31196005e+00 2.21490605e-12 1.82384346e-13 0.00000000e+00 2.03252171e-12 0.00000000e+00 1.82384346e-13
9.62360379e+00 2.19854122e-12 1.65233336e-13 0.00000000e+00 2.03330789e-12 0.00000000e+00 1.65233336e-13
9.94567731e+00 2.04905898e-12 1.49695167e-13 0.00000000e+00 1.89936381e-12 0.00000000e+00 1.49695167e-13
1.02785297e+01 1.87901702e-12 1.35618173e-13 0.00000000e+00 1.74339885e-12 0.00000000e+00 1.35618173e-13
1.06225216e+01 1.71592428e-12 1.22864947e-13 0.00000000e+00 1.59305934e-12 0.00000000e+00 1.22864947e-13
1.09780260e+01 1.54303110e-12 1.11311006e-13 0.00000000e+00 1.43172010e-12 0.00000000e+00 1.11311006e-13
1.13454280e+01 1.39041605e-12 1.00843571e-13 0.00000000e+00 1.28957248e-12 0.00000000e+00 1.00843571e-13
1.17251259e+01 1.26347157e-12 9.13604705e-14 0.00000000e+00 1.17211110e-12 0.00000000e+00 9.13604705e-14
1.21175312e+01 1.14606557e-12 8.27691389e-14 0.00000000e+00 1.06329643e-12 0.00000000e+00 8.27691389e-14
1.25230691e+01 1.03974813e-12 7.49857166e-14 0.00000000e+00 9.64762413e-13 0.00000000e+00 7.49857166e-14
1.29421791e+01 9.51887360e-13 6.79342298e-14 0.00000000e+00 8.83953130e-13 0.00000000e+00 6.79342298e-14
1.33753155e+01 8.72952559e-13 6.15458488e-14 0.00000000e+00 8.11406710e-13 0.00000000e+00 6.15458488e-14
1.38229477e+01 8.18809736e-13 5.57582167e-14 0.00000000e+00 7.63051520e-13 0.00000000e+00 5.57582167e-14
1.42855609e+01 7.87434331e-13 5.05148403e-14 0.00000000e+00 7.36919491e-13 0.00000000e+00 5.05148403e-14
1.47636563e+01 7.93391309e-13 4.57645392e-14 0.00000000e+00 7.47626770e-13 0.00000000e+00 4.57645392e-14
1.52577522e+01 8.06653180e-13 4.14609457e-14 0.00000000e+00 7.65192234e-13 0.00000000e+00 4.14609457e-14
1.57683840e+01 8.24312998e-13 3.75620523e-14 0.00000000e+00 7.86750946e-13 0.00000000e+00 3.75620523e-14
1.62961051e+01 8.45570327e-13 3.40298020e-14 0.00000000e+00 8.11540525e-13 0.00000000e+00 3.40298020e-14
1.68414875e+01 8.63979271e-13 3.08297166e-14 0.00000000e+00 8.33149554e-13 0.00000000e+00 3.08297166e-14
1.74051222e+01 8.74411590e-13 2.79305599e-14 0.00000000e+00 8.46481030e-13 0.00000000e+00 2.79305599e-14
1.79876201e+01 8.74609315e-13 2.53040334e-14 0.00000000e+00 8.49305281e-13 0.00000000e+00 2.53040334e-14
1.85896125e+01 8.62333469e-13 2.29244994e-14 0.00000000e+00 8.39408969e-13 0.00000000e+00 2.29244994e-14
1.92117518e+01 8.42453718e-13 2.07687314e-14 0.00000000e+00 8.21684987e-13 0.00000000e+00 2.07687314e-14
1.98547123e+01 8.12497905e-13 1.88156870e-14 0.00000000e+00 7.93682218e-13 0.00000000e+00 1.88156870e-14
2.05191907e+01 7.80459023e-13 1.70463024e-14 0.00000000e+00 7.63412720e-13 0.00000000e+00 1.70463024e-14
2.12059073e+01 7.48109155e-13 1.54433068e-14 0.00000000e+00 7.32665848e-13 0.00000000e+00 1.54433068e-14
2.19156062e+01 7.17942642e-13 1.39910532e-14 0.00000000e+00 7.03951589e-13 0.00000000e+00 1.39910532e-14
2.26490567e+01 6.90310938e-13 1.26753663e-14 0.00000000e+00 6.77635572e-13 0.00000000e+00 1.26753663e-14
2.34070535e+01 6.63995194e-13 1.14834036e-14 0.00000000e+00 6.52511791e-13 0.00000000e+00 1.14834036e-14
2.41904183e+01 6.38226753e-13 1.04035303e-14 0.00000000e+00 6.27823223e-13 0.00000000e+00 1.04035303e-14
2.50000000e+01 6.12264882e-13 9.42520591e-15 0.00000000e+00 6.02839677e-13 0.00000000e+00 9.42520591e-15
2.75422870e+01 5.39528564e-13 7.04872996e-15 0.00000000e+00 5.32479834e-13 0.00000000e+00 7.04872996e-15
3.16227766e+01 4.37582294e-13 4.65704970e-15 0.00000000e+00 4.32925245e-13 0.00000000e+00 4.65704970e-15
3.63078055e+01 3.35323295e-13 3.07688223e-15 0.00000000e+00 3.32246412e-13 0.00000000e+00 3.07688223e-15
4.16869383e+01 2.39906189e-13 2.03287593e-15 0.00000000e+00 2.37873313e-13 0.00000000e+00 2.03287593e-15
4.78630092e+01 1.60345530e-13 1.34310781e-15 0.00000000e+00 1.59002422e-13 0.00000000e+00 1.34310781e-15
5.49540874e+01 1.01310110e-13 8.87382527e-16 0.00000000e+00 1.00422728e-13 0.00000000e+00 8.87382527e-16
6.30957344e+01 6.12033536e-14 5.86287821e-16 0.00000000e+00 6.06170658e-14 0.00000000e+00 5.86287821e-16
7.24435960e+01 3.56995684e-14 3.87356522e-16 0.00000000e+00 3.53122119e-14 0.00000000e+00 3.87356522e-16
8.31763771e+01 2.02801618e-14 2.55923916e-16 0.00000000e+00 2.00242379e-14 0.00000000e+00 2.55923916e-16
9.54992586e+01 1.13164957e-14 1.69087255e-16 0.00000000e+00 1.11474084e-14 0.00000000e+00 1.69087255e-16
1.09647820e+02 6.23208574e-15 1.11714841e-16 0.00000000e+00 6.12037090e-15 0.00000000e+00 1.11714841e-16
1.25892541e+02 3.43715756e-15 7.38092637e-17 0.00000000e+00 3.36334830e-15 0.00000000e+00 7.38092637e-17
1.44543977e+02 1.88782384e-15 4.87652969e-17 0.00000000e+00 1.83905854e-15 0.00000000e+00 4.87652969e-17
1.65958691e+02 9.90400366e-16 3.22189122e-17 0.00000000e+00 9.58181453e-16 0.00000000e+00 3.22189122e-17
1.90546072e+02 5.21159596e-16 2.12868242e-17 0.00000000e+00 4.99872771e-16 0.00000000e+00 2.12868242e-17
2.18776162e+02 2.74593972e-16 1.40640653e-17 0.00000000e+00 2.60529907e-16 0.00000000e+00 1.40640653e-17
2.51188643e+02 1.44659605e-16 9.29203577e-18 0.00000000e+00 1.35367569e-16 0.00000000e+00 9.29203577e-18
2.88403150e+02 7.61603857e-17 6.13918715e-18 0.00000000e+00 7.00211986e-17 0.00000000e+00 6.13918715e-18
3.31131121e+02 4.01847743e-17 4.05612073e-18 0.00000000e+00 3.61286536e-17 0.00000000e+00 4.05612073e-18
3.80189396e+02 2.12524226e-17 2.67985239e-18 0.00000000e+00 1.85725702e-17 0.00000000e+00 2.67985239e-18
4.36515832e+02 1.12954423e-17 1.77056092e-18 0.00000000e+00 9.52488140e-18 0.00000000e+00 1.77056092e-18
5.01187234e+02 6.04164940e-18 1.16979800e-18 0.00000000e+00 4.87185140e-18 0.00000000e+00 1.16979800e-18
5.75439937e+02 3.25928795e-18 7.72877871e-19 0.00000000e+00 2.48641008e-18 0.00000000e+00 7.72877871e-19
6.60693448e+02 1.77722341e-18 5.10635346e-19 0.00000000e+00 1.26658807e-18 0.00000000e+00 5.10635346e-19
7.58577575e+02 9.81508713e-19 3.37373427e-19 0.00000000e+00 6.44135286e-19 0.00000000e+00 3.37373427e-19
8.70963590e+02 5.49924779e-19 2.22900413e-19 0.00000000e+00 3.27024366e-19 0.00000000e+00 2.22900413e-19
1.00000000e+03 1.65763293e-19 0.00000000e+00 0.00000000e+00 1.65763293e-19 0.00000000e+00 0.00000000e+00
