# column 1: lambda (micron)
# column 2: total flux; lambda*F_lambda (W/m2)
# column 3: direct stellar flux; lambda*F_lambda (W/m2)
# column 4: scattered stellar flux; lambda*F_lambda (W/m2)
# column 5: total dust emission flux; lambda*F_lambda (W/m2)
# column 6: dust emission scattered flux; lambda*F_lambda (W/m2)
# column 7: transparent flux; lambda*F_lambda (W/m2)
1.00000000e-03 1.04634393e-12 1.04634360e-12 3.29410600e-19 0.00000000e+00 0.00000000e+00 1.04634360e-12
1.14815362e-03 1.23502146e-12 1.23502095e-12 5.10373755e-19 0.00000000e+00 0.00000000e+00 1.23502095e-12
1.31825674e-03 1.45772148e-12 1.45772071e-12 7.64264229e-19 0.00000000e+00 0.00000000e+00 1.45772071e-12
1.51356125e-03 1.72057901e-12 1.72057784e-12 1.17821120e-18 0.00000000e+00 0.00000000e+00 1.72057784e-12
1.73780083e-03 2.03083569e-12 2.03083353e-12 2.16825841e-18 0.00000000e+00 0.00000000e+00 2.03083353e-12
1.99526231e-03 2.39703841e-12 2.39703472e-12 3.69752905e-18 0.00000000e+00 0.00000000e+00 2.39703472e-12
2.29086765e-03 2.82927533e-12 2.82926954e-12 5.78995689e-18 0.00000000e+00 0.00000000e+00 2.82926954e-12
2.63026799e-03 3.33945696e-12 3.33944522e-12 1.17323975e-17 0.00000000e+00 0.00000000e+00 3.33944522e-12
3.01995172e-03 3.94163520e-12 3.94161611e-12 1.90889244e-17 0.00000000e+00 0.00000000e+00 3.94161611e-12
3.46736850e-03 4.65240234e-12 4.65237083e-12 3.15087842e-17 0.00000000e+00 0.00000000e+00 4.65237083e-12
3.98107171e-03 5.49133846e-12 5.49128930e-12 4.91677441e-17 0.00000000e+00 0.00000000e+00 5.49128930e-12
4.57088190e-03 6.48159985e-12 6.48148207e-12 1.17775856e-16 0.00000000e+00 0.00000000e+00 6.48148207e-12
5.24807460e-03 7.65043146e-12 7.65022704e-12 2.04419919e-16 0.00000000e+00 0.00000000e+00 7.65022704e-12
6.02559586e-03 9.03008555e-12 9.02972084e-12 3.64705044e-16 0.00000000e+00 0.00000000e+00 9.02972084e-12
6.91830971e-03 1.06585376e-11 1.06579658e-11 5.71802024e-16 0.00000000e+00 0.00000000e+00 1.06579658e-11
7.94328235e-03 1.25807707e-11 1.25798170e-11 9.53689719e-16 0.00000000e+00 0.00000000e+00 1.25798170e-11
9.12010839e-03 1.48498078e-11 1.48482176e-11 1.59014623e-15 0.00000000e+00 0.00000000e+00 1.48482176e-11
1.04712855e-02 1.65855581e-11 1.65834298e-11 2.12835809e-15 0.00000000e+00 0.00000000e+00 1.65834298e-11
1.20226443e-02 1.65864901e-11 1.65834298e-11 3.06033895e-15 0.00000000e+00 0.00000000e+00 1.65834298e-11
1.38038426e-02 1.65877810e-11 1.65834298e-11 4.35124266e-15 1.42231176e-277 2.51077502e-278 1.65834298e-11
1.58489319e-02 1.65899357e-11 1.65834298e-11 6.50587384e-15 1.37256301e-242 2.43841979e-243 1.65834298e-11
1.81970086e-02 1.65926090e-11 1.65834298e-11 9.17925716e-15 3.81143083e-212 6.54824271e-213 1.65834298e-11
2.08929613e-02 1.65959188e-11 1.65834298e-11 1.24889822e-14 1.11486920e-185 1.85349155e-186 1.65834298e-11
2.39883292e-02 1.66001603e-11 1.65834298e-11 1.67305213e-14 1.20310605e-162 1.99883860e-163 1.65834298e-11
2.75422870e-02 1.66063623e-11 1.65834298e-11 2.29325166e-14 1.33428772e-142 2.27473996e-143 1.65834298e-11
3.16227766e-02 1.66107978e-11 1.65834298e-11 2.73680181e-14 3.53888939e-125 6.03016137e-126 1.65834298e-11
3.63078055e-02 1.66162655e-11 1.65834298e-11 3.28357469e-14 4.96100467e-110 8.27974867e-111 1.65834298e-11
4.16869383e-02 1.66273125e-11 1.65834298e-11 4.38827502e-14 7.25931491e-97 1.27311080e-97 1.65834298e-11
4.78630092e-02 1.66455556e-11 1.65834298e-11 6.21258277e-14 1.93678032e-85 3.47639388e-86 1.65834298e-11
5.49540874e-02 1.66606555e-11 1.65834298e-11 7.72257002e-14 1.57808651e-75 2.83699507e-76 1.65834298e-11
6.30957344e-02 1.66800481e-11 1.65834298e-11 9.66183425e-14 7.99281774e-67 1.37911087e-67 1.65834298e-11
7.24435960e-02 1.66778236e-11 1.65834298e-11 9.43938031e-14 2.89149468e-59 4.19508373e-60 1.65834298e-11
8.31763771e-02 1.66762902e-11 1.65834298e-11 9.28603828e-14 9.59114075e-53 1.34206740e-53 1.65834298e-11
9.54992586e-02 1.66844793e-11 1.65834298e-11 1.01049551e-13 4.69163554e-47 6.73346928e-48 1.65834298e-11
1.09647820e-01 1.59390831e-11 1.58370587e-11 1.02024341e-13 4.23321390e-42 6.78358580e-43 1.58370587e-11
1.25892541e-01 1.48723717e-11 1.47800032e-11 9.23684964e-14 8.86279735e-38 1.47777783e-38 1.47800032e-11
1.44543977e-01 1.38761753e-11 1.37935015e-11 8.26737404e-14 4.92926553e-34 8.16048766e-35 1.37935015e-11
1.65958691e-01 1.29628430e-11 1.28728446e-11 8.99983988e-14 6.81539524e-31 1.24694153e-31 1.28728446e-11
1.90546072e-01 1.21164120e-11 1.20136376e-11 1.02774423e-13 2.60618273e-28 5.47621528e-29 1.20136376e-11
2.18776162e-01 1.13155745e-11 1.12117790e-11 1.03795537e-13 3.88770831e-26 8.26092701e-27 1.12117790e-11
2.51188643e-01 1.05869322e-11 1.04634409e-11 1.23491312e-13 5.11717728e-24 1.32455120e-24 1.04634409e-11
2.88403150e-01 9.88233601e-12 9.76505125e-12 1.17284754e-13 3.44050302e-22 8.90058286e-23 9.76505125e-12
3.31131121e-01 9.21591118e-12 9.11327608e-12 1.02635092e-13 1.26451348e-20 3.21731928e-21 9.11327608e-12
3.80189396e-01 8.60070763e-12 8.50500410e-12 9.57032541e-14 2.79321986e-19 6.95295334e-20 8.50500410e-12
4.36515832e-01 8.02503759e-12 7.93733165e-12 8.77019738e-14 3.96224518e-18 9.70078721e-19 7.93733165e-12
5.01187234e-01 7.49062247e-12 7.40754890e-12 8.30355944e-14 3.79769397e-17 9.08932319e-18 7.40754890e-12
5.75439937e-01 6.99327120e-12 6.91312687e-12 7.98852859e-14 2.59047521e-16 6.01719258e-17 6.91312687e-12
6.60693448e-01 6.52817739e-12 6.45170538e-12 7.51510556e-14 1.32094918e-15 2.99113822e-16 6.45170538e-12
7.58577575e-01 6.09543353e-12 6.02108180e-12 6.90888879e-14 5.26284522e-15 1.13085218e-15 6.02108180e-12
8.70963590e-01 5.69779939e-12 5.61920048e-12 6.15494895e-14 1.70494225e-14 3.44120126e-15 5.61920048e-12
1.00000000e+00 5.34437499e-12 5.24414302e-12 5.43157115e-14 4.59162613e-14 8.50406937e-15 5.24414302e-12
1.14815362e+00 5.04853098e-12 4.89411902e-12 4.74665754e-14 1.06945380e-13 1.76489387e-14 4.89411902e-12
1.31825674e+00 4.82735741e-12 4.56745763e-12 3.87679021e-14 2.21131878e-13 3.18973495e-14 4.56745763e-12
1.51356125e+00 4.69756030e-12 4.26259947e-12 3.09746453e-14 4.03986183e-13 4.90830209e-14 4.26259947e-12
1.73780083e+00 4.65521651e-12 3.97808929e-12 2.41898345e-14 6.52937387e-13 6.70815177e-14 3.97808929e-12
1.99526231e+00 4.66635937e-12 3.71256894e-12 1.81504441e-14 9.35639987e-13 7.70756983e-14 3.71256894e-12
2.29086765e+00 4.68607111e-12 3.46477093e-12 1.29703518e-14 1.20832983e-12 7.75234867e-14 3.46477093e-12
2.63026799e+00 4.66720195e-12 3.23351237e-12 8.94065876e-15 1.42474892e-12 6.99535980e-14 3.23351237e-12
3.01995172e+00 4.58073472e-12 3.01768933e-12 6.27050846e-15 1.55677488e-12 5.64453629e-14 3.01768933e-12
3.46736850e+00 4.42509450e-12 2.81627154e-12 4.04922217e-15 1.60477373e-12 4.19232102e-14 2.81627154e-12
3.98107171e+00 4.19918653e-12 2.62829753e-12 2.54803473e-15 1.56834097e-12 2.88369609e-14 2.62829753e-12
4.57088190e+00 3.92438970e-12 2.45286997e-12 1.59654560e-15 1.46992318e-12 1.81410904e-14 2.45286997e-12
5.24807460e+00 3.36743492e-12 2.02814751e-12 8.37721931e-16 1.33844969e-12 1.07881731e-14 2.02814751e-12
6.02559586e+00 2.54323493e-12 1.33998377e-12 3.42798165e-16 1.20290836e-12 6.10878872e-15 1.33998377e-12
6.70000000e+00 2.07390282e-12 9.74709347e-13 1.63593301e-16 1.09902988e-12 3.77165304e-15 9.74709347e-13
6.92422916e+00 1.94823031e-12 8.83049889e-13 1.30352597e-16 1.06505007e-12 3.19855768e-15 8.83049889e-13
7.15596261e+00 1.84450709e-12 8.00009879e-13 1.03950763e-16 1.04439326e-12 2.71296302e-15 8.00009879e-13
7.39545150e+00 1.77503784e-12 7.24778763e-13 7.81081477e-17 1.05018097e-12 2.31181309e-15 7.24778763e-13
7.64295536e+00 1.79052544e-12 6.56622211e-13 5.69160208e-17 1.13384632e-12 2.01752328e-15 6.56622211e-13
7.89874245e+00 1.93165327e-12 5.94874946e-13 3.93562369e-17 1.33673897e-12 1.76479826e-15 5.94874946e-13
8.16308998e+00 2.16844691e-12 5.38934254e-13 2.55146248e-17 1.62948714e-12 1.56242159e-15 5.38934254e-13
8.43628443e+00 2.51718486e-12 4.88254098e-13 1.58117132e-17 2.02891495e-12 1.30551989e-15 4.88254098e-13
8.71862190e+00 2.74403937e-12 4.42339790e-13 1.03148128e-17 2.30168926e-12 1.05503381e-15 4.42339790e-13
9.01040836e+00 2.97549170e-12 4.00743158e-13 6.07961821e-18 2.57474246e-12 7.71286594e-16 4.00743158e-13
9.31196005e+00 3.14172771e-12 3.63058180e-13 0.00000000e+00 2.77866953e-12 0.00000000e+00 3.63058180e-13
9.62360379e+00 3.08584582e-12 3.28917012e-13 0.00000000e+00 2.75692881e-12 0.00000000e+00 3.28917012e-13
9.94567731e+00 2.86403657e-12 2.97986401e-13 0.00000000e+00 2.56605017e-12 0.00000000e+00 2.97986401e-13
1.02785297e+01 2.60227671e-12 2.69964435e-13 0.00000000e+00 2.33231228e-12 0.00000000e+00 2.69964435e-13
1.06225216e+01 2.35705655e-12 2.44577592e-13 0.00000000e+00 2.11247896e-12 0.00000000e+00 2.44577592e-13
1.09780260e+01 2.08584663e-12 2.21578069e-13 0.00000000e+00 1.86426856e-12 0.00000000e+00 2.21578069e-13
1.13454280e+01 1.85266305e-12 2.00741370e-13 0.00000000e+00 1.65192168e-12 0.00000000e+00 2.00741370e-13
1.17251259e+01 1.65449399e-12 1.81864106e-13 0.00000000e+00 1.47262988e-12 0.00000000e+00 1.81864106e-13
1.21175312e+01 1.47258200e-12 1.64762018e-13 0.00000000e+00 1.30781999e-12 0.00000000e+00 1.64762018e-13
1.25230691e+01 1.30964925e-12 1.49268171e-13 0.00000000e+00 1.16038108e-12 0.00000000e+00 1.49268171e-13
1.29421791e+01 1.17139958e-12 1.35231331e-13 0.00000000e+00 1.03616825e-12 0.00000000e+00 1.35231331e-13
1.33753155e+01 1.05299379e-12 1.22514483e-13 0.00000000e+00 9.30479304e-13 0.00000000e+00 1.22514483e-13
1.38229477e+01 9.71890283e-13 1.10993499e-13 0.00000000e+00 8.60896784e-13 0.00000000e+00 1.10993499e-13
1.42855609e+01 9.23006289e-13 1.00555922e-13 0.00000000e+00 8.22450367e-13 0.00000000e+00 1.00555922e-13
1.47636563e+01 9.25887087e-13 9.10998706e-14 0.00000000e+00 8.34787217e-13 0.00000000e+00 9.10998706e-14
1.52577522e+01 9.39493767e-13 8.25330452e-14 0.00000000e+00 8.56960722e-13 0.00000000e+00 8.25330452e-14
1.57683840e+01 9.62210373e-13 7.47718247e-14 0.00000000e+00 8.87438548e-13 0.00000000e+00 7.47718247e-14
1.62961051e+01 9.87587289e-13 6.77404517e-14 0.00000000e+00 9.19846837e-13 0.00000000e+00 6.77404517e-14
1.68414875e+01 1.01204429e-12 6.13702932e-14 0.00000000e+00 9.50673993e-13 0.00000000e+00 6.13702932e-14
1.74051222e+01 1.02123690e-12 5.55991699e-14 0.00000000e+00 9.65637730e-13 0.00000000e+00 5.55991699e-14
1.79876201e+01 1.02097585e-12 5.03707500e-14 0.00000000e+00 9.70605099e-13 0.00000000e+00 5.03707500e-14
1.85896125e+01 1.00160061e-12 4.56339988e-14 0.00000000e+00 9.55966616e-13 0.00000000e+00 4.56339988e-14
1.92117518e+01 9.64753367e-13 4.13426810e-14 0.00000000e+00 9.23410686e-13 0.00000000e+00 4.13426810e-14
1.98547123e+01 9.17048916e-13 3.74549090e-14 0.00000000e+00 8.79594007e-13 0.00000000e+00 3.74549090e-14
2.05191907e+01 8.67787085e-13 3.39327342e-14 0.00000000e+00 8.33854351e-13 0.00000000e+00 3.39327342e-14
2.12059073e+01 8.19280675e-13 3.07417768e-14 0.00000000e+00 7.88538898e-13 0.00000000e+00 3.07417768e-14
2.19156062e+01 7.76622086e-13 2.78508898e-14 0.00000000e+00 7.48771196e-13 0.00000000e+00 2.78508898e-14
2.26490567e+01 7.37107649e-13 2.52318552e-14 0.00000000e+00 7.11875794e-13 0.00000000e+00 2.52318552e-14
2.34070535e+01 6.98690336e-13 2.28591087e-14 0.00000000e+00 6.75831227e-13 0.00000000e+00 2.28591087e-14
2.41904183e+01 6.64444213e-13 2.07094900e-14 0.00000000e+00 6.43734723e-13 0.00000000e+00 2.07094900e-14
2.50000000e+01 6.31684081e-13 1.87620165e-14 0.00000000e+00 6.12922065e-13 0.00000000e+00 1.87620165e-14
2.75422870e+01 5.41353166e-13 1.40313526e-14 0.00000000e+00 5.27321814e-13 0.00000000e+00 1.40313526e-14
3.16227766e+01 4.25669536e-13 9.27042274e-15 0.00000000e+00 4.16399114e-13 0.00000000e+00 9.27042274e-15
3.63078055e+01 3.19360958e-13 6.12490756e-15 0.00000000e+00 3.13236051e-13 0.00000000e+00 6.12490756e-15
4.16869383e+01 2.24858333e-13 4.04668630e-15 0.00000000e+00 2.20811646e-13 0.00000000e+00 4.04668630e-15
4.78630092e+01 1.48560986e-13 2.67361912e-15 0.00000000e+00 1.45887366e-13 0.00000000e+00 2.67361912e-15
5.49540874e+01 9.32711190e-14 1.76644264e-15 0.00000000e+00 9.15046764e-14 0.00000000e+00 1.76644264e-15
6.30957344e+01 5.62883911e-14 1.16707708e-15 0.00000000e+00 5.51213140e-14 0.00000000e+00 1.16707708e-15
7.24435960e+01 3.29428988e-14 7.71080178e-16 0.00000000e+00 3.21718186e-14 0.00000000e+00 7.71080178e-16
8.31763771e+01 1.88541925e-14 5.09447621e-16 0.00000000e+00 1.83447449e-14 0.00000000e+00 5.09447621e-16
9.54992586e+01 1.06240284e-14 3.36588705e-16 0.00000000e+00 1.02874397e-14 0.00000000e+00 3.36588705e-16
1.09647820e+02 5.91671604e-15 2.22381952e-16 0.00000000e+00 5.69433409e-15 0.00000000e+00 2.22381952e-16
1.25892541e+02 3.30317891e-15 1.46926299e-16 0.00000000e+00 3.15625261e-15 0.00000000e+00 1.46926299e-16
1.44543977e+02 1.83779992e-15 9.70732430e-17 0.00000000e+00 1.74072667e-15 0.00000000e+00 9.70732430e-17
1.65958691e+02 9.77746791e-16 6.41356556e-17 0.00000000e+00 9.13611136e-16 0.00000000e+00 6.41356556e-17
1.90546072e+02 5.22442399e-16 4.23740075e-17 0.00000000e+00 4.80068391e-16 0.00000000e+00 4.23740075e-17
2.18776162e+02 2.79849062e-16 2.79962291e-17 0.00000000e+00 2.51852833e-16 0.00000000e+00 2.79962291e-17
2.51188643e+02 1.50133605e-16 1.84969251e-17 0.00000000e+00 1.31636680e-16 0.00000000e+00 1.84969251e-17
2.88403150e+02 8.06798011e-17 1.22207972e-17 0.00000000e+00 6.84590038e-17 0.00000000e+00 1.22207972e-17
3.31131121e+02 4.35660716e-17 8.07420067e-18 0.00000000e+00 3.54918710e-17 0.00000000e+00 8.07420067e-18
3.80189396e+02 2.36571997e-17 5.33457148e-18 0.00000000e+00 1.83226282e-17 0.00000000e+00 5.33457148e-18
4.36515832e+02 1.29565332e-17 3.52451642e-18 0.00000000e+00 9.43201679e-18 0.00000000e+00 3.52451642e-18
5.01187234e+02 7.16887816e-18 2.32862491e-18 0.00000000e+00 4.84025326e-18 0.00000000e+00 2.32862491e-18
5.75439937e+02 4.01600991e-18 1.53850722e-18 0.00000000e+00 2.47750269e-18 0.00000000e+00 1.53850722e-18
6.60693448e+02 2.28174889e-18 1.01648164e-18 0.00000000e+00 1.26526725e-18 0.00000000e+00 1.01648164e-18
7.58577575e+02 1.31648277e-18 6.71582760e-19 0.00000000e+00 6.44900013e-19 0.00000000e+00 6.71582760e-19
8.70963590e+02 7.71764839e-19 4.43710329e-19 0.00000000e+00 3.28054510e-19 0.00000000e+00 4.43710329e-19
1.00000000e+03 1.66570231e-19 0.00000000e+00 0.00000000e+00 1.66570231e-19 0.00000000e+00 0.00000000e+00
