# column 1: lambda (micron)
# column 2: total flux; lambda*F_lambda (W/m2)
# column 3: direct stellar flux; lambda*F_lambda (W/m2)
# column 4: scattered stellar flux; lambda*F_lambda (W/m2)
# column 5: total dust emission flux; lambda*F_lambda (W/m2)
# column 6: dust emission scattered flux; lambda*F_lambda (W/m2)
# column 7: transparent flux; lambda*F_lambda (W/m2)
1.00000000e-03 1.07336056e-12 1.07335627e-12 4.29242683e-18 0.00000000e+00 0.00000000e+00 1.07335627e-12
1.14815362e-03 1.26691189e-12 1.26690456e-12 7.33273019e-18 0.00000000e+00 0.00000000e+00 1.26690456e-12
1.31825674e-03 1.49536339e-12 1.49535359e-12 9.80229249e-18 0.00000000e+00 0.00000000e+00 1.49535359e-12
1.51356125e-03 1.76501167e-12 1.76499670e-12 1.49661260e-17 0.00000000e+00 0.00000000e+00 1.76499670e-12
1.73780083e-03 2.08328911e-12 2.08326203e-12 2.70823559e-17 0.00000000e+00 0.00000000e+00 2.08326203e-12
1.99526231e-03 2.45896447e-12 2.45891716e-12 4.73125470e-17 0.00000000e+00 0.00000000e+00 2.45891716e-12
2.29086765e-03 2.90238906e-12 2.90231066e-12 7.83907689e-17 0.00000000e+00 0.00000000e+00 2.90231066e-12
2.63026799e-03 3.42580916e-12 3.42565717e-12 1.51992446e-16 0.00000000e+00 0.00000000e+00 3.42565717e-12
3.01995172e-03 4.04362186e-12 4.04337385e-12 2.48009023e-16 0.00000000e+00 0.00000000e+00 4.04337385e-12
3.46736850e-03 4.77289001e-12 4.77247759e-12 4.12416043e-16 0.00000000e+00 0.00000000e+00 4.77247759e-12
3.98107171e-03 5.63372338e-12 5.63305378e-12 6.69597170e-16 0.00000000e+00 0.00000000e+00 5.63305378e-12
4.57088190e-03 6.65027868e-12 6.64880962e-12 1.46905827e-15 0.00000000e+00 0.00000000e+00 6.64880962e-12
5.24807460e-03 7.85060688e-12 7.84772720e-12 2.87968494e-15 0.00000000e+00 0.00000000e+00 7.84772720e-12
6.02559586e-03 9.26795709e-12 9.26283435e-12 5.12273657e-15 0.00000000e+00 0.00000000e+00 9.26283435e-12
6.91830971e-03 1.09407216e-11 1.09331145e-11 7.60703881e-15 0.00000000e+00 0.00000000e+00 1.09331145e-11
7.94328235e-03 1.29173825e-11 1.29045807e-11 1.28018525e-14 0.00000000e+00 0.00000000e+00 1.29045807e-11
9.12010839e-03 1.52533607e-11 1.52315429e-11 2.18178474e-14 0.00000000e+00 0.00000000e+00 1.52315429e-11
1.04712855e-02 1.70409644e-11 1.70115517e-11 2.94127327e-14 0.00000000e+00 0.00000000e+00 1.70115517e-11
1.20226443e-02 1.70586206e-11 1.70115517e-11 4.70688884e-14 0.00000000e+00 0.00000000e+00 1.70115517e-11
1.38038426e-02 1.70743315e-11 1.70115517e-11 6.27797615e-14 1.76422589e-278 2.10227218e-280 1.70115517e-11
1.58489319e-02 1.71033072e-11 1.70115517e-11 9.17555291e-14 1.41635633e-243 2.52135586e-245 1.70115517e-11
1.81970086e-02 1.71475170e-11 1.70115517e-11 1.35965272e-13 3.35360916e-213 6.12190180e-215 1.70115517e-11
2.08929613e-02 1.71869741e-11 1.70115517e-11 1.75422397e-13 8.61559996e-187 2.43991735e-188 1.70115517e-11
2.39883292e-02 1.72490856e-11 1.70115517e-11 2.37533894e-13 8.31098972e-164 2.76420019e-165 1.70115517e-11
2.75422870e-02 1.73268878e-11 1.70115517e-11 3.15336090e-13 8.36774666e-144 3.53135795e-145 1.70115517e-11
3.16227766e-02 1.74071180e-11 1.70115517e-11 3.95566276e-13 2.06677523e-126 1.05407974e-127 1.70115517e-11
3.63078055e-02 1.74590164e-11 1.70115517e-11 4.47464701e-13 2.70596002e-111 1.56087239e-112 1.70115517e-11
4.16869383e-02 1.76148081e-11 1.70115517e-11 6.03256400e-13 3.74276760e-98 2.82741570e-99 1.70115517e-11
4.78630092e-02 1.77803769e-11 1.70115517e-11 7.68825207e-13 9.72254095e-87 9.16322295e-88 1.70115517e-11
5.49540874e-02 1.79023901e-11 1.70115517e-11 8.90838426e-13 7.89479588e-77 8.61428641e-78 1.70115517e-11
6.30957344e-02 1.79560644e-11 1.70115517e-11 9.44512656e-13 4.16582532e-68 4.98762322e-69 1.70115517e-11
7.24435960e-02 1.78774506e-11 1.70115517e-11 8.65898923e-13 1.52267826e-60 1.74944834e-61 1.70115517e-11
8.31763771e-02 1.78544104e-11 1.70115517e-11 8.42858650e-13 4.50978452e-54 5.44939725e-55 1.70115517e-11
9.54992586e-02 1.78698312e-11 1.70115517e-11 8.58279532e-13 2.04883941e-48 3.05006520e-49 1.70115517e-11
1.09647820e-01 1.71445666e-11 1.62459122e-11 8.98654488e-13 2.09413431e-43 4.64415663e-44 1.62459122e-11
1.25892541e-01 1.60343339e-11 1.51615674e-11 8.72766503e-13 6.80166944e-39 1.87152115e-39 1.51615674e-11
1.44543977e-01 1.49281283e-11 1.41495980e-11 7.78530285e-13 6.52357579e-35 1.90959689e-35 1.41495980e-11
1.65958691e-01 1.40010916e-11 1.32051732e-11 7.95918415e-13 1.54491017e-31 4.86205282e-32 1.32051732e-11
1.90546072e-01 1.31484270e-11 1.23237846e-11 8.24642349e-13 9.28298756e-29 3.19431767e-29 1.23237846e-11
2.18776162e-01 1.22559387e-11 1.15012250e-11 7.54713725e-13 1.98721109e-26 6.78998109e-27 1.15012250e-11
2.51188643e-01 1.15564018e-11 1.07335677e-11 8.22834088e-13 4.08135399e-24 1.56986589e-24 1.07335677e-11
2.88403150e-01 1.07756483e-11 1.00171482e-11 7.58500080e-13 3.93777305e-22 1.48703417e-22 1.00171482e-11
3.31131121e-01 1.00485619e-11 9.34854667e-12 7.00015190e-13 1.93010602e-20 7.09751666e-21 9.34854667e-12
3.80189396e-01 9.34161533e-12 8.72457139e-12 6.17043407e-13 5.30954413e-19 1.90316447e-19 8.72457139e-12
4.36515832e-01 8.71029926e-12 8.14224377e-12 5.68046477e-13 9.01334222e-18 3.13150010e-18 8.14224377e-12
5.01187234e-01 8.11169214e-12 7.59878402e-12 5.12809618e-13 9.85089003e-17 3.33239938e-17 7.59878402e-12
5.75439937e-01 7.54879800e-12 7.09159786e-12 4.56456451e-13 7.43680184e-16 2.41110133e-16 7.09159786e-12
6.60693448e-01 7.01643038e-12 6.61826421e-12 3.94109404e-13 4.05676870e-15 1.25438283e-15 6.61826421e-12
7.58577575e-01 6.54159736e-12 6.17652353e-12 3.48102144e-13 1.69716778e-14 4.97655487e-15 6.17652353e-12
8.70963590e-01 6.11544092e-12 5.76426715e-12 2.93938942e-13 5.72348299e-14 1.55961587e-14 5.76426715e-12
1.00000000e+00 5.78179833e-12 5.37952711e-12 2.44388220e-13 1.57883001e-13 3.94185724e-14 5.37952711e-12
1.14815362e+00 5.60275489e-12 5.02046681e-12 2.02151572e-13 3.80136508e-13 8.55308902e-14 5.02046681e-12
1.31825674e+00 5.64932812e-12 4.68537225e-12 1.57039143e-13 8.06916733e-13 1.57808605e-13 4.68537225e-12
1.51356125e+00 6.02343731e-12 4.37264380e-12 1.22414616e-13 1.52837889e-12 2.55891048e-13 4.37264380e-12
1.73780083e+00 6.75398709e-12 4.08078863e-12 9.46403989e-14 2.57855806e-12 3.61349800e-13 4.08078863e-12
1.99526231e+00 7.78804331e-12 3.80841354e-12 7.24033535e-14 3.90722641e-12 4.42444558e-13 3.80841354e-12
2.29086765e+00 9.00948932e-12 3.55421832e-12 5.37856590e-14 5.40148534e-12 4.76584140e-13 3.55421832e-12
2.63026799e+00 1.02593659e-11 3.31698953e-12 3.87554216e-14 6.90362095e-12 4.68476185e-13 3.31698953e-12
3.01995172e+00 1.13743875e-11 3.09559474e-12 2.78069421e-14 8.25098586e-12 4.16260436e-13 3.09559474e-12
3.46736850e+00 1.22399578e-11 2.88897711e-12 1.94475378e-14 9.33153320e-12 3.47528243e-13 2.88897711e-12
3.98107171e+00 1.27505361e-11 2.69615031e-12 1.31800977e-14 1.00412057e-11 2.69065539e-13 2.69615031e-12
4.57088190e+00 1.29275514e-11 2.51619387e-12 8.65060165e-15 1.04027070e-11 1.94698607e-13 2.51619387e-12
5.24807460e+00 1.25934917e-11 2.08050667e-12 4.85038827e-15 1.05081346e-11 1.32674867e-13 2.08050667e-12
6.02559586e+00 1.18302174e-11 1.37457712e-12 2.08893263e-15 1.04535513e-11 8.60033625e-14 1.37457712e-12
6.70000000e+00 1.12765202e-11 9.99872685e-13 1.06918409e-15 1.02755784e-11 5.92475449e-14 9.99872685e-13
6.92422916e+00 1.11021881e-11 9.05846924e-13 8.59632751e-16 1.01954815e-11 5.22601018e-14 9.05846924e-13
7.15596261e+00 1.10347426e-11 8.20663132e-13 6.83098095e-16 1.02133963e-11 4.58122013e-14 8.20663132e-13
7.39545150e+00 1.10707435e-11 7.43489831e-13 5.17257224e-16 1.03267364e-11 3.92158772e-14 7.43489831e-13
7.64295536e+00 1.14863637e-11 6.73573732e-13 3.64933052e-16 1.08124251e-11 3.27576850e-14 6.73573732e-13
7.89874245e+00 1.24817211e-11 6.10232385e-13 2.26103137e-16 1.18712626e-11 2.59703462e-14 6.10232385e-13
8.16308998e+00 1.38570056e-11 5.52847515e-13 1.33084846e-16 1.33040250e-11 2.01564308e-14 5.52847515e-13
8.43628443e+00 1.56336937e-11 5.00858987e-13 7.29581943e-17 1.51327617e-11 1.51483847e-14 5.00858987e-13
8.71862190e+00 1.68030324e-11 4.53759343e-13 4.48036152e-17 1.63492283e-11 1.18881448e-14 4.53759343e-13
9.01040836e+00 1.79639948e-11 4.11088843e-13 2.62740808e-17 1.75528797e-11 9.03430872e-15 4.11088843e-13
9.31196005e+00 1.89134305e-11 3.72430980e-13 0.00000000e+00 1.85409995e-11 0.00000000e+00 3.72430980e-13
9.62360379e+00 1.88001247e-11 3.37408415e-13 0.00000000e+00 1.84627163e-11 0.00000000e+00 3.37408415e-13
9.94567731e+00 1.82248114e-11 3.05679292e-13 0.00000000e+00 1.79191321e-11 0.00000000e+00 3.05679292e-13
1.02785297e+01 1.75274721e-11 2.76933904e-13 0.00000000e+00 1.72505382e-11 0.00000000e+00 2.76933904e-13
1.06225216e+01 1.64839188e-11 2.50891667e-13 0.00000000e+00 1.62330272e-11 0.00000000e+00 2.50891667e-13
1.09780260e+01 1.56527859e-11 2.27298384e-13 0.00000000e+00 1.54254875e-11 0.00000000e+00 2.27298384e-13
1.13454280e+01 1.49195704e-11 2.05923759e-13 0.00000000e+00 1.47136467e-11 0.00000000e+00 2.05923759e-13
1.17251259e+01 1.42185575e-11 1.86559155e-13 0.00000000e+00 1.40319983e-11 0.00000000e+00 1.86559155e-13
1.21175312e+01 1.36265830e-11 1.69015555e-13 0.00000000e+00 1.34575674e-11 0.00000000e+00 1.69015555e-13
1.25230691e+01 1.30478089e-11 1.53121715e-13 0.00000000e+00 1.28946872e-11 0.00000000e+00 1.53121715e-13
1.29421791e+01 1.25689375e-11 1.38722496e-13 0.00000000e+00 1.24302150e-11 0.00000000e+00 1.38722496e-13
1.33753155e+01 1.20605487e-11 1.25677347e-13 0.00000000e+00 1.19348714e-11 0.00000000e+00 1.25677347e-13
1.38229477e+01 1.18243501e-11 1.13858934e-13 0.00000000e+00 1.17104911e-11 0.00000000e+00 1.13858934e-13
1.42855609e+01 1.17321703e-11 1.03151898e-13 0.00000000e+00 1.16290184e-11 0.00000000e+00 1.03151898e-13
1.47636563e+01 1.19737281e-11 9.34517274e-14 0.00000000e+00 1.18802764e-11 0.00000000e+00 9.34517274e-14
1.52577522e+01 1.23449406e-11 8.46637387e-14 0.00000000e+00 1.22602768e-11 0.00000000e+00 8.46637387e-14
1.57683840e+01 1.27115275e-11 7.67021526e-14 0.00000000e+00 1.26348254e-11 0.00000000e+00 7.67021526e-14
1.62961051e+01 1.30759059e-11 6.94892560e-14 0.00000000e+00 1.30064166e-11 0.00000000e+00 6.94892560e-14
1.68414875e+01 1.34507530e-11 6.29546439e-14 0.00000000e+00 1.33877983e-11 0.00000000e+00 6.29546439e-14
1.74051222e+01 1.36614522e-11 5.70345319e-14 0.00000000e+00 1.36044177e-11 0.00000000e+00 5.70345319e-14
1.79876201e+01 1.38280047e-11 5.16711337e-14 0.00000000e+00 1.37763336e-11 0.00000000e+00 5.16711337e-14
1.85896125e+01 1.38192975e-11 4.68120974e-14 0.00000000e+00 1.37724854e-11 0.00000000e+00 4.68120974e-14
1.92117518e+01 1.36304961e-11 4.24099939e-14 0.00000000e+00 1.35880861e-11 0.00000000e+00 4.24099939e-14
1.98547123e+01 1.34218685e-11 3.84218542e-14 0.00000000e+00 1.33834467e-11 0.00000000e+00 3.84218542e-14
2.05191907e+01 1.31635493e-11 3.48087501e-14 0.00000000e+00 1.31287406e-11 0.00000000e+00 3.48087501e-14
2.12059073e+01 1.28440483e-11 3.15354141e-14 0.00000000e+00 1.28125129e-11 0.00000000e+00 3.15354141e-14
2.19156062e+01 1.25018322e-11 2.85698952e-14 0.00000000e+00 1.24732623e-11 0.00000000e+00 2.85698952e-14
2.26490567e+01 1.22093958e-11 2.58832470e-14 0.00000000e+00 1.21835126e-11 0.00000000e+00 2.58832470e-14
2.34070535e+01 1.18627329e-11 2.34492452e-14 0.00000000e+00 1.18392837e-11 0.00000000e+00 2.34492452e-14
2.41904183e+01 1.14794862e-11 2.12441313e-14 0.00000000e+00 1.14582420e-11 0.00000000e+00 2.12441313e-14
2.50000000e+01 1.11183414e-11 1.92463813e-14 0.00000000e+00 1.10990950e-11 0.00000000e+00 1.92463813e-14
2.75422870e+01 9.93527266e-12 1.43935895e-14 0.00000000e+00 9.92087907e-12 0.00000000e+00 1.43935895e-14
3.16227766e+01 8.06723656e-12 9.50975027e-15 0.00000000e+00 8.05772681e-12 0.00000000e+00 9.50975027e-15
3.63078055e+01 6.17606910e-12 6.28302969e-15 0.00000000e+00 6.16978607e-12 0.00000000e+00 6.28302969e-15
4.16869383e+01 4.39821112e-12 4.15115655e-15 0.00000000e+00 4.39405997e-12 0.00000000e+00 4.15115655e-15
4.78630092e+01 2.92738388e-12 2.74264194e-15 0.00000000e+00 2.92464124e-12 0.00000000e+00 2.74264194e-15
5.49540874e+01 1.83763777e-12 1.81204556e-15 0.00000000e+00 1.83582573e-12 0.00000000e+00 1.81204556e-15
6.30957344e+01 1.09945001e-12 1.19720663e-15 0.00000000e+00 1.09825280e-12 0.00000000e+00 1.19720663e-15
7.24435960e+01 6.34573820e-13 7.90986575e-16 0.00000000e+00 6.33782833e-13 0.00000000e+00 7.90986575e-16
8.31763771e+01 3.56306328e-13 5.22599647e-16 0.00000000e+00 3.55783728e-13 0.00000000e+00 5.22599647e-16
9.54992586e+01 1.96301170e-13 3.45278163e-16 0.00000000e+00 1.95955892e-13 0.00000000e+00 3.45278163e-16
1.09647820e+02 1.06589158e-13 2.28123020e-16 0.00000000e+00 1.06361035e-13 0.00000000e+00 2.28123020e-16
1.25892541e+02 5.79999360e-14 1.50719385e-16 0.00000000e+00 5.78492166e-14 0.00000000e+00 1.50719385e-16
1.44543977e+02 3.14183574e-14 9.95793099e-17 0.00000000e+00 3.13187781e-14 0.00000000e+00 9.95793099e-17
1.65958691e+02 1.62480261e-14 6.57913976e-17 0.00000000e+00 1.61822347e-14 0.00000000e+00 6.57913976e-17
1.90546072e+02 8.42003653e-15 4.34679453e-17 0.00000000e+00 8.37656859e-15 0.00000000e+00 4.34679453e-17
2.18776162e+02 4.36395547e-15 2.87189867e-17 0.00000000e+00 4.33523648e-15 0.00000000e+00 2.87189867e-17
2.51188643e+02 2.25699625e-15 1.89744463e-17 0.00000000e+00 2.23802181e-15 0.00000000e+00 1.89744463e-17
2.88403150e+02 1.16371374e-15 1.25362924e-17 0.00000000e+00 1.15117745e-15 0.00000000e+00 1.25362924e-17
3.31131121e+02 5.99293140e-16 8.28264623e-18 0.00000000e+00 5.91010494e-16 0.00000000e+00 8.28264623e-18
3.80189396e+02 3.07941065e-16 5.47229010e-18 0.00000000e+00 3.02468774e-16 0.00000000e+00 5.47229010e-18
4.36515832e+02 1.58133278e-16 3.61550621e-18 0.00000000e+00 1.54517772e-16 0.00000000e+00 3.61550621e-18
5.01187234e+02 8.11516578e-17 2.38874127e-18 0.00000000e+00 7.87629166e-17 0.00000000e+00 2.38874127e-18
5.75439937e+02 4.16558984e-17 1.57822570e-18 0.00000000e+00 4.00776727e-17 0.00000000e+00 1.57822570e-18
6.60693448e+02 2.14047574e-17 1.04272338e-18 0.00000000e+00 2.03620340e-17 0.00000000e+00 1.04272338e-18
7.58577575e+02 1.10203756e-17 6.88920507e-19 0.00000000e+00 1.03314551e-17 0.00000000e+00 6.88920507e-19
8.70963590e+02 5.68983632e-18 4.55165265e-19 0.00000000e+00 5.23467106e-18 0.00000000e+00 4.55165265e-19
1.00000000e+03 2.64868150e-18 0.00000000e+00 0.00000000e+00 2.64868150e-18 0.00000000e+00 0.00000000e+00
