# column 1: lambda (micron)
# column 2: total flux; lambda*F_lambda (W/m2)
# column 3: direct stellar flux; lambda*F_lambda (W/m2)
# column 4: scattered stellar flux; lambda*F_lambda (W/m2)
# column 5: total dust emission flux; lambda*F_lambda (W/m2)
# column 6: dust emission scattered flux; lambda*F_lambda (W/m2)
# column 7: transparent flux; lambda*F_lambda (W/m2)
1.00000000e-03 9.68073352e-13 9.68073281e-13 7.07285257e-20 0.00000000e+00 0.00000000e+00 9.68073281e-13
1.14815362e-03 1.14263699e-12 1.14263687e-12 1.15616607e-19 0.00000000e+00 0.00000000e+00 1.14263687e-12
1.31825674e-03 1.34867806e-12 1.34867788e-12 1.80266906e-19 0.00000000e+00 0.00000000e+00 1.34867788e-12
1.51356125e-03 1.59187262e-12 1.59187233e-12 2.86953096e-19 0.00000000e+00 0.00000000e+00 1.59187233e-12
1.73780083e-03 1.87892024e-12 1.87891976e-12 4.84419050e-19 0.00000000e+00 0.00000000e+00 1.87891976e-12
1.99526231e-03 2.21772866e-12 2.21772777e-12 8.98033185e-19 0.00000000e+00 0.00000000e+00 2.21772777e-12
2.29086765e-03 2.61763131e-12 2.61762985e-12 1.46111642e-18 0.00000000e+00 0.00000000e+00 2.61762985e-12
2.63026799e-03 3.08964549e-12 3.08964252e-12 2.96668774e-18 0.00000000e+00 0.00000000e+00 3.08964252e-12
3.01995172e-03 3.64677387e-12 3.64676883e-12 5.04414326e-18 0.00000000e+00 0.00000000e+00 3.64676883e-12
3.46736850e-03 4.30436471e-12 4.30435650e-12 8.20838409e-18 0.00000000e+00 0.00000000e+00 4.30435650e-12
3.98107171e-03 5.08053489e-12 5.08052080e-12 1.40935818e-17 0.00000000e+00 0.00000000e+00 5.08052080e-12
4.57088190e-03 5.99667283e-12 5.99664354e-12 2.92937893e-17 0.00000000e+00 0.00000000e+00 5.99664354e-12
5.24807460e-03 7.07801592e-12 7.07796211e-12 5.38020361e-17 0.00000000e+00 0.00000000e+00 7.07796211e-12
6.02559586e-03 8.35436105e-12 8.35426474e-12 9.63029972e-17 0.00000000e+00 0.00000000e+00 8.35426474e-12
6.91830971e-03 9.86086817e-12 9.86071107e-12 1.57099396e-16 0.00000000e+00 0.00000000e+00 9.86071107e-12
7.94328235e-03 1.16390671e-11 1.16388008e-11 2.66372795e-16 7.45628726e-304 4.29648991e-306 1.16388008e-11
9.12010839e-03 1.37379246e-11 1.37375167e-11 4.07886801e-16 4.02272916e-265 1.70984410e-267 1.37375167e-11
1.04712855e-02 1.53436888e-11 1.53429287e-11 7.60163728e-16 2.03845566e-231 6.90899954e-234 1.53429287e-11
1.20226443e-02 1.53440370e-11 1.53429287e-11 1.10838261e-15 3.75518886e-202 2.72072618e-204 1.53429287e-11
1.38038426e-02 1.53440567e-11 1.53429287e-11 1.12807039e-15 1.17528385e-176 9.74362311e-179 1.53429287e-11
1.58489319e-02 1.53445006e-11 1.53429287e-11 1.57194626e-15 1.79576322e-154 1.91859903e-156 1.53429287e-11
1.81970086e-02 1.53449893e-11 1.53429287e-11 2.06061533e-15 3.55752552e-135 4.18597463e-137 1.53429287e-11
2.08929613e-02 1.53456729e-11 1.53429287e-11 2.74427829e-15 2.03904545e-118 2.96834241e-120 1.53429287e-11
2.39883292e-02 1.53474444e-11 1.53429287e-11 4.51577691e-15 7.75199645e-104 1.35635483e-105 1.53429287e-11
2.75422870e-02 1.53484004e-11 1.53429287e-11 5.47174375e-15 3.72388119e-91 7.87302095e-93 1.53429287e-11
3.16227766e-02 1.53496594e-11 1.53429287e-11 6.73069684e-15 3.86745654e-80 1.02814041e-81 1.53429287e-11
3.63078055e-02 1.53510828e-11 1.53429287e-11 8.15411782e-15 1.41092773e-70 3.78373852e-72 1.53429287e-11
4.16869383e-02 1.53550722e-11 1.53429287e-11 1.21434875e-14 2.81866749e-62 9.94013826e-64 1.53429287e-11
4.78630092e-02 1.53584806e-11 1.53429287e-11 1.55519325e-14 4.43340755e-55 1.86860614e-56 1.53429287e-11
5.49540874e-02 1.53632738e-11 1.53429287e-11 2.03451026e-14 7.61459196e-49 3.55956075e-50 1.53429287e-11
6.30957344e-02 1.53672426e-11 1.53429287e-11 2.43139640e-14 2.51159915e-43 1.15644567e-44 1.53429287e-11
7.24435960e-02 1.53666231e-11 1.53429287e-11 2.36944819e-14 1.47778537e-38 5.59781853e-40 1.53429287e-11
8.31763771e-02 1.53669251e-11 1.53429287e-11 2.39963928e-14 1.54824047e-34 5.74814404e-36 1.53429287e-11
9.54992586e-02 1.53691023e-11 1.53429287e-11 2.61736244e-14 4.45623511e-31 1.76402998e-32 1.53429287e-11
1.09647820e-01 1.46793820e-11 1.46523889e-11 2.69931620e-14 3.87315974e-28 1.83180395e-29 1.46523889e-11
1.25892541e-01 1.36975202e-11 1.36744049e-11 2.31152206e-14 1.28319692e-25 6.58227198e-27 1.36744049e-11
1.44543977e-01 1.27843314e-11 1.27616972e-11 2.26341870e-14 1.78277373e-23 9.85802508e-25 1.27616972e-11
1.65958691e-01 1.19330978e-11 1.19099088e-11 2.31889810e-14 9.17492508e-22 5.86834796e-23 1.19099088e-11
1.90546072e-01 1.11442979e-11 1.11149736e-11 2.93242676e-14 1.94839087e-20 1.42725796e-21 1.11149736e-11
2.18776162e-01 1.04014368e-11 1.03730969e-11 2.83396101e-14 2.30847528e-19 1.61494849e-20 1.03730969e-11
2.51188643e-01 9.71543803e-12 9.68073733e-12 3.46978425e-14 2.85702997e-18 2.72704931e-19 9.68073733e-12
2.88403150e-01 9.06538610e-12 9.03458975e-12 3.07722557e-14 2.40890361e-17 2.39055876e-18 9.03458975e-12
3.31131121e-01 8.46109642e-12 8.43156974e-12 2.93871490e-14 1.39525670e-16 1.41031462e-17 8.43156974e-12
3.80189396e-01 7.89548146e-12 7.86879872e-12 2.60974800e-14 5.85259610e-16 5.88106989e-17 7.86879872e-12
4.36515832e-01 7.37031029e-12 7.34359025e-12 2.48585265e-14 1.86150946e-15 1.86796554e-16 7.34359025e-12
5.01187234e-01 6.88048173e-12 6.85343719e-12 2.23767330e-14 4.66780895e-15 4.70676074e-16 6.85343719e-12
5.75439937e-01 6.42648758e-12 6.39599973e-12 2.08783432e-14 9.60950991e-15 9.52893287e-16 6.39599973e-12
6.60693448e-01 6.00701511e-12 5.96909425e-12 2.10169497e-14 1.69039058e-14 1.67004428e-15 5.96909425e-12
7.58577575e-01 5.61583820e-12 5.57068288e-12 1.86728433e-14 2.64824703e-14 2.55666949e-15 5.57068288e-12
8.70963590e-01 5.25276191e-12 5.19886376e-12 1.57407583e-14 3.81573890e-14 3.59171637e-15 5.19886376e-12
1.00000000e+00 4.91861071e-12 4.85186196e-12 1.48344295e-14 5.19143175e-14 4.74008813e-15 4.85186196e-12
1.14815362e+00 4.61121581e-12 4.52802104e-12 1.30603645e-14 7.01343976e-14 6.03232402e-15 4.52802104e-12
1.31825674e+00 4.33233709e-12 4.22579511e-12 9.91814480e-15 9.66238267e-14 7.66653447e-15 4.22579511e-12
1.51356125e+00 4.08574980e-12 3.94374146e-12 7.97358778e-15 1.34034743e-13 9.16629098e-15 3.94374146e-12
1.73780083e+00 3.86900026e-12 3.68051368e-12 6.13909904e-15 1.82347474e-13 1.02991760e-14 3.68051368e-12
1.99526231e+00 3.67496186e-12 3.43485522e-12 4.40445223e-15 2.35702189e-13 1.03495375e-14 3.43485522e-12
2.29086765e+00 3.49341977e-12 3.20559341e-12 2.86316454e-15 2.84963198e-13 9.43375989e-15 3.20559341e-12
2.63026799e+00 3.31434750e-12 2.99163384e-12 2.07735950e-15 3.20636304e-13 7.81846822e-15 2.99163384e-12
3.01995172e+00 3.13178395e-12 2.79195514e-12 1.39538099e-15 3.38433420e-13 6.11663181e-15 2.79195514e-12
3.46736850e+00 2.94472028e-12 2.60560415e-12 9.15239401e-16 3.38200896e-13 4.48055213e-15 2.60560415e-12
3.98107171e+00 2.75381782e-12 2.43169128e-12 6.12429783e-16 3.21514116e-13 3.09372788e-15 2.43169128e-12
4.57088190e+00 2.56555160e-12 2.26938634e-12 3.79858083e-16 2.95785398e-13 2.02810614e-15 2.26938634e-12
5.24807460e+00 2.14360844e-12 1.87643467e-12 2.06966422e-16 2.66966808e-13 1.28054085e-15 1.87643467e-12
6.02559586e+00 1.47939838e-12 1.23974809e-12 8.75907147e-17 2.39562703e-13 7.66582318e-16 1.23974809e-12
6.70000000e+00 1.12103516e-12 9.01797527e-13 4.32785513e-17 2.19194356e-13 5.01353914e-16 9.01797527e-13
6.92422916e+00 1.02964747e-12 8.16994532e-13 3.48487645e-17 2.12618094e-13 4.28951043e-16 8.16994532e-13
7.15596261e+00 9.49210117e-13 7.40166218e-13 2.71227977e-17 2.09016776e-13 3.70088231e-16 7.40166218e-13
7.39545150e+00 8.81042173e-13 6.70562664e-13 1.97266710e-17 2.10459782e-13 3.16810283e-16 6.70562664e-13
7.64295536e+00 8.36036733e-13 6.07504471e-13 1.59270058e-17 2.28516336e-13 2.73842015e-16 6.07504471e-13
7.89874245e+00 8.22047572e-13 5.50376127e-13 9.70150610e-18 2.71661743e-13 2.32648800e-16 5.50376127e-13
8.16308998e+00 8.34173190e-13 4.98620004e-13 6.44353062e-18 3.35546742e-13 1.96983631e-16 4.98620004e-13
8.43628443e+00 8.77086523e-13 4.51730909e-13 3.62647279e-18 4.25351988e-13 1.60400759e-16 4.51730909e-13
8.71862190e+00 8.99865955e-13 4.09251158e-13 2.51280293e-18 4.90612285e-13 1.29369588e-16 4.09251158e-13
9.01040836e+00 9.29316858e-13 3.70766106e-13 1.54237293e-18 5.58549210e-13 9.61910323e-17 3.70766106e-13
9.31196005e+00 9.50138104e-13 3.35900102e-13 0.00000000e+00 6.14238002e-13 0.00000000e+00 3.35900102e-13
9.62360379e+00 9.13680059e-13 3.04312818e-13 0.00000000e+00 6.09367241e-13 0.00000000e+00 3.04312818e-13
9.94567731e+00 8.40396692e-13 2.75695930e-13 0.00000000e+00 5.64700762e-13 0.00000000e+00 2.75695930e-13
1.02785297e+01 7.58235393e-13 2.49770110e-13 0.00000000e+00 5.08465283e-13 0.00000000e+00 2.49770110e-13
1.06225216e+01 6.80440431e-13 2.26282295e-13 0.00000000e+00 4.54158137e-13 0.00000000e+00 2.26282295e-13
1.09780260e+01 6.01549773e-13 2.05003220e-13 0.00000000e+00 3.96546552e-13 0.00000000e+00 2.05003220e-13
1.13454280e+01 5.32519033e-13 1.85725182e-13 0.00000000e+00 3.46793851e-13 0.00000000e+00 1.85725182e-13
1.17251259e+01 4.73710605e-13 1.68260007e-13 0.00000000e+00 3.05450598e-13 0.00000000e+00 1.68260007e-13
1.21175312e+01 4.22005475e-13 1.52437217e-13 0.00000000e+00 2.69568258e-13 0.00000000e+00 1.52437217e-13
1.25230691e+01 3.75684920e-13 1.38102367e-13 0.00000000e+00 2.37582554e-13 0.00000000e+00 1.38102367e-13
1.29421791e+01 3.35981845e-13 1.25115533e-13 0.00000000e+00 2.10866311e-13 0.00000000e+00 1.25115533e-13
1.33753155e+01 3.01853242e-13 1.13349952e-13 0.00000000e+00 1.88503290e-13 0.00000000e+00 1.13349952e-13
1.38229477e+01 2.76932143e-13 1.02690779e-13 0.00000000e+00 1.74241364e-13 0.00000000e+00 1.02690779e-13
1.42855609e+01 2.59018264e-13 9.30339713e-14 0.00000000e+00 1.65984292e-13 0.00000000e+00 9.30339713e-14
1.47636563e+01 2.52257910e-13 8.42852675e-14 0.00000000e+00 1.67972642e-13 0.00000000e+00 8.42852675e-14
1.52577522e+01 2.48656376e-13 7.63592720e-14 0.00000000e+00 1.72297104e-13 0.00000000e+00 7.63592720e-14
1.57683840e+01 2.46986313e-13 6.91786191e-14 0.00000000e+00 1.77807694e-13 0.00000000e+00 6.91786191e-14
1.62961051e+01 2.46827180e-13 6.26732185e-14 0.00000000e+00 1.84153962e-13 0.00000000e+00 6.26732185e-14
1.68414875e+01 2.46665448e-13 5.67795711e-14 0.00000000e+00 1.89885877e-13 0.00000000e+00 5.67795711e-14
1.74051222e+01 2.43595584e-13 5.14401489e-14 0.00000000e+00 1.92155435e-13 0.00000000e+00 5.14401489e-14
1.79876201e+01 2.38812089e-13 4.66028339e-14 0.00000000e+00 1.92209255e-13 0.00000000e+00 4.66028339e-14
1.85896125e+01 2.30726923e-13 4.22204090e-14 0.00000000e+00 1.88506514e-13 0.00000000e+00 4.22204090e-14
1.92117518e+01 2.19382202e-13 3.82500974e-14 0.00000000e+00 1.81132105e-13 0.00000000e+00 3.82500974e-14
1.98547123e+01 2.06426126e-13 3.46531450e-14 0.00000000e+00 1.71772981e-13 0.00000000e+00 3.46531450e-14
2.05191907e+01 1.93404821e-13 3.13944418e-14 0.00000000e+00 1.62010379e-13 0.00000000e+00 3.13944418e-14
2.12059073e+01 1.80974861e-13 2.84421796e-14 0.00000000e+00 1.52532682e-13 0.00000000e+00 2.84421796e-14
2.19156062e+01 1.69975377e-13 2.57675415e-14 0.00000000e+00 1.44207836e-13 0.00000000e+00 2.57675415e-14
2.26490567e+01 1.59742347e-13 2.33444203e-14 0.00000000e+00 1.36397927e-13 0.00000000e+00 2.33444203e-14
2.34070535e+01 1.50172560e-13 2.11491639e-14 0.00000000e+00 1.29023396e-13 0.00000000e+00 2.11491639e-14
2.41904183e+01 1.41657133e-13 1.91603445e-14 0.00000000e+00 1.22496788e-13 0.00000000e+00 1.91603445e-14
2.50000000e+01 1.33531670e-13 1.73585491e-14 0.00000000e+00 1.16173120e-13 0.00000000e+00 1.73585491e-14
2.75422870e+01 1.12112783e-13 1.29817562e-14 0.00000000e+00 9.91310265e-14 0.00000000e+00 1.29817562e-14
3.16227766e+01 8.62089650e-14 8.57696126e-15 0.00000000e+00 7.76320037e-14 0.00000000e+00 8.57696126e-15
3.63078055e+01 6.37283607e-14 5.66674211e-15 0.00000000e+00 5.80616186e-14 0.00000000e+00 5.66674211e-15
4.16869383e+01 4.45900744e-14 3.74397938e-15 0.00000000e+00 4.08460950e-14 0.00000000e+00 3.74397938e-15
4.78630092e+01 2.94801371e-14 2.47362265e-15 0.00000000e+00 2.70065144e-14 0.00000000e+00 2.47362265e-15
5.49540874e+01 1.86222938e-14 1.63430628e-15 0.00000000e+00 1.69879876e-14 0.00000000e+00 1.63430628e-15
6.30957344e+01 1.13600216e-14 1.07977545e-15 0.00000000e+00 1.02802461e-14 0.00000000e+00 1.07977545e-15
7.24435960e+01 6.74307148e-15 7.13400564e-16 0.00000000e+00 6.02967092e-15 0.00000000e+00 7.13400564e-16
8.31763771e+01 3.92716049e-15 4.71339078e-16 0.00000000e+00 3.45582141e-15 0.00000000e+00 4.71339078e-16
9.54992586e+01 2.25915382e-15 3.11410641e-16 0.00000000e+00 1.94774317e-15 0.00000000e+00 3.11410641e-16
1.09647820e+02 1.28926493e-15 2.05746970e-16 0.00000000e+00 1.08351796e-15 0.00000000e+00 2.05746970e-16
1.25892541e+02 7.39339456e-16 1.35935675e-16 0.00000000e+00 6.03403781e-16 0.00000000e+00 1.35935675e-16
1.44543977e+02 4.23996117e-16 8.98118099e-17 0.00000000e+00 3.34184307e-16 0.00000000e+00 8.98118099e-17
1.65958691e+02 2.35355444e-16 5.93380743e-17 0.00000000e+00 1.76017369e-16 0.00000000e+00 5.93380743e-17
1.90546072e+02 1.31994262e-16 3.92042769e-17 0.00000000e+00 9.27899854e-17 0.00000000e+00 3.92042769e-17
2.18776162e+02 7.47193310e-17 2.59020089e-17 0.00000000e+00 4.88173221e-17 0.00000000e+00 2.59020089e-17
2.51188643e+02 4.26930460e-17 1.71132876e-17 0.00000000e+00 2.55797585e-17 0.00000000e+00 1.71132876e-17
2.88403150e+02 2.46385372e-17 1.13066370e-17 0.00000000e+00 1.33319002e-17 0.00000000e+00 1.13066370e-17
3.31131121e+02 1.43951851e-17 7.47022097e-18 0.00000000e+00 6.92496413e-18 0.00000000e+00 7.47022097e-18
3.80189396e+02 8.51646024e-18 4.93552605e-18 0.00000000e+00 3.58093419e-18 0.00000000e+00 4.93552605e-18
4.36515832e+02 5.10689101e-18 3.26086972e-18 0.00000000e+00 1.84602129e-18 0.00000000e+00 3.26086972e-18
5.01187234e+02 3.10294862e-18 2.15443526e-18 0.00000000e+00 9.48513355e-19 0.00000000e+00 2.15443526e-18
5.75439937e+02 1.90944803e-18 1.42342126e-18 0.00000000e+00 4.86026767e-19 0.00000000e+00 1.42342126e-18
6.60693448e+02 1.18889416e-18 9.40445101e-19 0.00000000e+00 2.48449061e-19 0.00000000e+00 9.40445101e-19
7.58577575e+02 7.48083027e-19 6.21345916e-19 0.00000000e+00 1.26737111e-19 0.00000000e+00 6.21345916e-19
8.70963590e+02 4.75034831e-19 4.10519176e-19 0.00000000e+00 6.45156553e-20 0.00000000e+00 4.10519176e-19
1.00000000e+03 3.27780712e-20 0.00000000e+00 0.00000000e+00 3.27780712e-20 0.00000000e+00 0.00000000e+00
