# column 1: lambda (micron)
# column 2: total flux; lambda*F_lambda (W/m2)
# column 3: direct stellar flux; lambda*F_lambda (W/m2)
# column 4: scattered stellar flux; lambda*F_lambda (W/m2)
# column 5: total dust emission flux; lambda*F_lambda (W/m2)
# column 6: dust emission scattered flux; lambda*F_lambda (W/m2)
# column 7: transparent flux; lambda*F_lambda (W/m2)
1.00000000e-03 8.46529639e-13 8.46529401e-13 2.38262246e-19 0.00000000e+00 0.00000000e+00 8.46529401e-13
1.14815362e-03 9.99176490e-13 9.99176121e-13 3.69657147e-19 0.00000000e+00 0.00000000e+00 9.99176121e-13
1.31825674e-03 1.17934878e-12 1.17934819e-12 5.84098196e-19 0.00000000e+00 0.00000000e+00 1.17934819e-12
1.51356125e-03 1.39200990e-12 1.39200901e-12 8.93836139e-19 0.00000000e+00 0.00000000e+00 1.39200901e-12
1.73780083e-03 1.64301860e-12 1.64301696e-12 1.63613721e-18 0.00000000e+00 0.00000000e+00 1.64301696e-12
1.99526231e-03 1.93928974e-12 1.93928682e-12 2.91818390e-18 0.00000000e+00 0.00000000e+00 1.93928682e-12
2.29086765e-03 2.28898468e-12 2.28898025e-12 4.42144453e-18 0.00000000e+00 0.00000000e+00 2.28898025e-12
2.63026799e-03 2.70173968e-12 2.70173063e-12 9.04891640e-18 0.00000000e+00 0.00000000e+00 2.70173063e-12
3.01995172e-03 3.18892414e-12 3.18890841e-12 1.57264458e-17 0.00000000e+00 0.00000000e+00 3.18890841e-12
3.46736850e-03 3.76396048e-12 3.76393440e-12 2.60717519e-17 0.00000000e+00 0.00000000e+00 3.76393440e-12
3.98107171e-03 4.44269106e-12 4.44264945e-12 4.16101208e-17 0.00000000e+00 0.00000000e+00 4.44264945e-12
4.57088190e-03 5.24384313e-12 5.24375082e-12 9.23120771e-17 0.00000000e+00 0.00000000e+00 5.24375082e-12
5.24807460e-03 6.18947797e-12 6.18930730e-12 1.70670397e-16 0.00000000e+00 0.00000000e+00 6.18930730e-12
6.02559586e-03 7.30565968e-12 7.30536713e-12 2.92550875e-16 0.00000000e+00 0.00000000e+00 7.30536713e-12
6.91830971e-03 8.62314741e-12 8.62267558e-12 4.71839781e-16 0.00000000e+00 0.00000000e+00 8.62267558e-12
7.94328235e-03 1.01783212e-11 1.01775219e-11 7.99307110e-16 3.26258706e-304 2.09988444e-307 1.01775219e-11
9.12010839e-03 1.20140629e-11 1.20127391e-11 1.32379948e-15 1.41188858e-265 1.28281042e-268 1.20127391e-11
1.04712855e-02 1.34184293e-11 1.34165878e-11 1.84145131e-15 5.89962932e-232 6.64328743e-235 1.34165878e-11
1.20226443e-02 1.34193307e-11 1.34165878e-11 2.74285118e-15 9.14911435e-203 1.53809665e-205 1.34165878e-11
1.38038426e-02 1.34202386e-11 1.34165878e-11 3.65071655e-15 2.47146718e-177 6.00994956e-180 1.34165878e-11
1.58489319e-02 1.34220157e-11 1.34165878e-11 5.42788092e-15 3.31990166e-155 1.24966399e-157 1.34165878e-11
1.81970086e-02 1.34237154e-11 1.34165878e-11 7.12753517e-15 5.88569126e-136 2.97271275e-138 1.34165878e-11
2.08929613e-02 1.34278108e-11 1.34165878e-11 1.12230087e-14 3.06240989e-119 2.49474541e-121 1.34165878e-11
2.39883292e-02 1.34326921e-11 1.34165878e-11 1.61042830e-14 1.06940022e-104 1.07130509e-106 1.34165878e-11
2.75422870e-02 1.34353682e-11 1.34165878e-11 1.87803946e-14 4.77146663e-92 6.26061013e-94 1.34165878e-11
3.16227766e-02 1.34405322e-11 1.34165878e-11 2.39443770e-14 4.63794209e-81 7.39571852e-83 1.34165878e-11
3.63078055e-02 1.34457066e-11 1.34165878e-11 2.91187665e-14 1.60534392e-71 3.08274203e-73 1.34165878e-11
4.16869383e-02 1.34574993e-11 1.34165878e-11 4.09114880e-14 3.05351981e-63 8.20600220e-65 1.34165878e-11
4.78630092e-02 1.34718536e-11 1.34165878e-11 5.52657125e-14 4.62239355e-56 1.68968175e-57 1.34165878e-11
5.49540874e-02 1.34888572e-11 1.34165878e-11 7.22693465e-14 7.70794060e-50 3.58748280e-51 1.34165878e-11
6.30957344e-02 1.35037831e-11 1.34165878e-11 8.71952520e-14 2.50492457e-44 1.44827455e-45 1.34165878e-11
7.24435960e-02 1.35034196e-11 1.34165878e-11 8.68317792e-14 1.45498681e-39 8.55272272e-41 1.34165878e-11
8.31763771e-02 1.35003566e-11 1.34165878e-11 8.37687674e-14 1.48579715e-35 8.54644483e-37 1.34165878e-11
9.54992586e-02 1.35056902e-11 1.34165878e-11 8.91023578e-14 4.18508513e-32 2.54318084e-33 1.34165878e-11
1.09647820e-01 1.29058466e-11 1.28127470e-11 9.30996711e-14 3.53761340e-29 2.25450200e-30 1.28127470e-11
1.25892541e-01 1.20352251e-11 1.19575512e-11 7.76738741e-14 1.13934020e-26 6.82431141e-28 1.19575512e-11
1.44543977e-01 1.12314539e-11 1.11594361e-11 7.20178206e-14 1.54411085e-24 8.71087544e-26 1.11594361e-11
1.65958691e-01 1.04859582e-11 1.04145917e-11 7.13664787e-14 7.80453744e-23 4.79324317e-24 1.04145917e-11
1.90546072e-01 9.80441270e-12 9.71946251e-12 8.49501800e-14 1.64982706e-21 1.24515494e-22 9.71946251e-12
2.18776162e-01 9.15871479e-12 9.07073019e-12 8.79845775e-14 1.96349156e-20 1.62799210e-21 9.07073019e-12
2.51188643e-01 8.56560504e-12 8.46529796e-12 1.00306838e-13 2.38046987e-19 2.37288899e-20 8.46529796e-12
2.88403150e-01 7.98847493e-12 7.90027573e-12 8.81972244e-14 1.97070653e-18 1.87674258e-19 7.90027573e-12
3.31131121e-01 7.45416092e-12 7.37296631e-12 8.11833829e-14 1.12366950e-17 1.00707219e-18 7.37296631e-12
3.80189396e-01 6.95224209e-12 6.88085251e-12 7.13428107e-14 4.67645894e-17 4.08810611e-18 6.88085251e-12
4.36515832e-01 6.48932787e-12 6.42158520e-12 6.75948057e-14 1.47866077e-16 1.26309815e-17 6.42158520e-12
5.01187234e-01 6.05395891e-12 5.99297201e-12 6.06147893e-14 3.72110027e-16 3.18443072e-17 5.99297201e-12
5.75439937e-01 5.64889296e-12 5.59296690e-12 5.51353877e-14 7.90666723e-16 6.86494577e-17 5.59296690e-12
6.60693448e-01 5.27398960e-12 5.21966041e-12 5.27924379e-14 1.53675199e-15 1.43836608e-16 5.21966041e-12
7.58577575e-01 4.92055133e-12 4.87127053e-12 4.62498991e-14 3.03089818e-15 3.14950788e-16 4.87127053e-12
8.70963590e-01 4.59375852e-12 4.54613417e-12 4.11706025e-14 6.45374128e-15 7.53861883e-16 4.54613417e-12
1.00000000e+00 4.29175404e-12 4.24269927e-12 3.46498387e-14 1.44049289e-14 1.76896591e-15 4.24269927e-12
1.14815362e+00 4.02179982e-12 3.95951734e-12 3.01201963e-14 3.21622794e-14 3.88499435e-15 3.95951734e-12
1.31825674e+00 3.78817130e-12 3.69523659e-12 2.45306526e-14 6.84040617e-14 7.69586490e-15 3.69523659e-12
1.51356125e+00 3.60168104e-12 3.44859544e-12 2.00323816e-14 1.33053226e-13 1.31967959e-14 3.44859544e-12
1.73780083e+00 3.46704502e-12 3.21841652e-12 1.47861070e-14 2.33842387e-13 1.96360762e-14 3.21841652e-12
1.99526231e+00 3.38249223e-12 3.00360106e-12 1.11614712e-14 3.67729698e-13 2.53263826e-14 3.00360106e-12
2.29086765e+00 3.33301962e-12 2.80312361e-12 7.94096793e-15 5.21955043e-13 2.79410168e-14 2.80312361e-12
2.63026799e+00 3.30073459e-12 2.61602716e-12 5.49662547e-15 6.79210804e-13 2.79745970e-14 2.61602716e-12
3.01995172e+00 3.26543610e-12 2.44141860e-12 4.00278146e-15 8.20014719e-13 2.55131239e-14 2.44141860e-12
3.46736850e+00 3.20896718e-12 2.27846441e-12 2.79048753e-15 9.27712278e-13 2.14147914e-14 2.27846441e-12
3.98107171e+00 3.12090527e-12 2.12638671e-12 1.75905748e-15 9.92759501e-13 1.64301289e-14 2.12638671e-12
4.57088190e+00 2.99649920e-12 1.98445954e-12 1.17080847e-15 1.01086885e-12 1.18939598e-14 1.98445954e-12
5.24807460e+00 2.63912732e-12 1.64084388e-12 6.71654335e-16 9.97611792e-13 8.01042691e-15 1.64084388e-12
6.02559586e+00 2.04461016e-12 1.08409480e-12 2.87927527e-16 9.60227437e-13 5.08223878e-15 1.08409480e-12
6.70000000e+00 1.70632285e-12 7.88574724e-13 1.42082210e-16 9.17606046e-13 3.37153900e-15 7.88574724e-13
6.92422916e+00 1.61714859e-12 7.14418944e-13 1.13171477e-16 9.02616478e-13 2.93960792e-15 7.14418944e-13
7.15596261e+00 1.54057624e-12 6.47236606e-13 8.98651630e-17 8.93249765e-13 2.53571514e-15 6.47236606e-13
7.39545150e+00 1.48690967e-12 5.86371942e-13 6.89862402e-17 9.00468738e-13 2.17632707e-15 5.86371942e-13
7.64295536e+00 1.48860942e-12 5.31230854e-13 5.01764379e-17 9.57328388e-13 1.83623412e-15 5.31230854e-13
7.89874245e+00 1.57488027e-12 4.81275108e-13 3.07548296e-17 1.09357441e-12 1.49135173e-15 4.81275108e-13
8.16308998e+00 1.72396568e-12 4.36017088e-13 1.81258051e-17 1.28793046e-12 1.20216438e-15 4.36017088e-13
8.43628443e+00 1.94994846e-12 3.95015029e-13 1.05973086e-17 1.55492283e-12 9.21005224e-16 3.95015029e-13
8.71862190e+00 2.11367256e-12 3.57868711e-13 6.54518394e-18 1.75579730e-12 7.17937993e-16 3.57868711e-13
9.01040836e+00 2.27560844e-12 3.24215549e-13 4.14269795e-18 1.95138875e-12 5.30990789e-16 3.24215549e-13
9.31196005e+00 2.40703030e-12 2.93727053e-13 0.00000000e+00 2.11330325e-12 0.00000000e+00 2.93727053e-13
9.62360379e+00 2.38657020e-12 2.66105627e-13 0.00000000e+00 2.12046457e-12 0.00000000e+00 2.66105627e-13
9.94567731e+00 2.24120305e-12 2.41081657e-13 0.00000000e+00 2.00012139e-12 0.00000000e+00 2.41081657e-13
1.02785297e+01 2.06903393e-12 2.18410884e-13 0.00000000e+00 1.85062304e-12 0.00000000e+00 2.18410884e-13
1.06225216e+01 1.90292324e-12 1.97872020e-13 0.00000000e+00 1.70505122e-12 0.00000000e+00 1.97872020e-13
1.09780260e+01 1.72426020e-12 1.79264583e-13 0.00000000e+00 1.54499562e-12 0.00000000e+00 1.79264583e-13
1.13454280e+01 1.55954799e-12 1.62406948e-13 0.00000000e+00 1.39714104e-12 0.00000000e+00 1.62406948e-13
1.17251259e+01 1.42149542e-12 1.47134567e-13 0.00000000e+00 1.27436085e-12 0.00000000e+00 1.47134567e-13
1.21175312e+01 1.29623307e-12 1.33298366e-13 0.00000000e+00 1.16293470e-12 0.00000000e+00 1.33298366e-13
1.25230691e+01 1.18055577e-12 1.20763289e-13 0.00000000e+00 1.05979248e-12 0.00000000e+00 1.20763289e-13
1.29421791e+01 1.08304227e-12 1.09406983e-13 0.00000000e+00 9.73635287e-13 0.00000000e+00 1.09406983e-13
1.33753155e+01 9.97746589e-13 9.91185987e-14 0.00000000e+00 8.98627990e-13 0.00000000e+00 9.91185987e-14
1.38229477e+01 9.42421514e-13 8.97977103e-14 0.00000000e+00 8.52623804e-13 0.00000000e+00 8.97977103e-14
1.42855609e+01 9.08388115e-13 8.13533371e-14 0.00000000e+00 8.27034778e-13 0.00000000e+00 8.13533371e-14
1.47636563e+01 9.16703811e-13 7.37030537e-14 0.00000000e+00 8.43000757e-13 0.00000000e+00 7.37030537e-14
1.52577522e+01 9.35156233e-13 6.67721855e-14 0.00000000e+00 8.68384048e-13 0.00000000e+00 6.67721855e-14
1.57683840e+01 9.60794479e-13 6.04930805e-14 0.00000000e+00 9.00301399e-13 0.00000000e+00 6.04930805e-14
1.62961051e+01 9.89378036e-13 5.48044484e-14 0.00000000e+00 9.34573587e-13 0.00000000e+00 5.48044484e-14
1.68414875e+01 1.01155551e-12 4.96507622e-14 0.00000000e+00 9.61904744e-13 0.00000000e+00 4.96507622e-14
1.74051222e+01 1.03004039e-12 4.49817171e-14 0.00000000e+00 9.85058672e-13 0.00000000e+00 4.49817171e-14
1.79876201e+01 1.03367074e-12 4.07517384e-14 0.00000000e+00 9.92918998e-13 0.00000000e+00 4.07517384e-14
1.85896125e+01 1.02538633e-12 3.69195372e-14 0.00000000e+00 9.88466790e-13 0.00000000e+00 3.69195372e-14
1.92117518e+01 9.99895236e-13 3.34477076e-14 0.00000000e+00 9.66447528e-13 0.00000000e+00 3.34477076e-14
1.98547123e+01 9.64721956e-13 3.03023610e-14 0.00000000e+00 9.34419595e-13 0.00000000e+00 3.03023610e-14
2.05191907e+01 9.28470010e-13 2.74527957e-14 0.00000000e+00 9.01017214e-13 0.00000000e+00 2.74527957e-14
2.12059073e+01 8.91123305e-13 2.48711970e-14 0.00000000e+00 8.66252108e-13 0.00000000e+00 2.48711970e-14
2.19156062e+01 8.61382130e-13 2.25323660e-14 0.00000000e+00 8.38849764e-13 0.00000000e+00 2.25323660e-14
2.26490567e+01 8.27338958e-13 2.04134733e-14 0.00000000e+00 8.06925485e-13 0.00000000e+00 2.04134733e-14
2.34070535e+01 7.94671688e-13 1.84938366e-14 0.00000000e+00 7.76177851e-13 0.00000000e+00 1.84938366e-14
2.41904183e+01 7.64144497e-13 1.67547181e-14 0.00000000e+00 7.47389779e-13 0.00000000e+00 1.67547181e-14
2.50000000e+01 7.36322713e-13 1.51791424e-14 0.00000000e+00 7.21143571e-13 0.00000000e+00 1.51791424e-14
2.75422870e+01 6.51778403e-13 1.13518661e-14 0.00000000e+00 6.40426537e-13 0.00000000e+00 1.13518661e-14
3.16227766e+01 5.28626971e-13 7.50010357e-15 0.00000000e+00 5.21126868e-13 0.00000000e+00 7.50010357e-15
3.63078055e+01 4.06076005e-13 4.95526929e-15 0.00000000e+00 4.01120736e-13 0.00000000e+00 4.95526929e-15
4.16869383e+01 2.92013420e-13 3.27391395e-15 0.00000000e+00 2.88739506e-13 0.00000000e+00 3.27391395e-15
4.78630092e+01 1.95876533e-13 2.16305350e-15 0.00000000e+00 1.93713480e-13 0.00000000e+00 2.16305350e-15
5.49540874e+01 1.24211874e-13 1.42911527e-15 0.00000000e+00 1.22782758e-13 0.00000000e+00 1.42911527e-15
6.30957344e+01 7.53236147e-14 9.44207098e-16 0.00000000e+00 7.43794076e-14 0.00000000e+00 9.44207098e-16
7.24435960e+01 4.40439001e-14 6.23831443e-16 0.00000000e+00 4.34200687e-14 0.00000000e+00 6.23831443e-16
8.31763771e+01 2.50892584e-14 4.12161347e-16 0.00000000e+00 2.46770971e-14 0.00000000e+00 4.12161347e-16
9.54992586e+01 1.40327916e-14 2.72312302e-16 0.00000000e+00 1.37604793e-14 0.00000000e+00 2.72312302e-16
1.09647820e+02 7.74129288e-15 1.79914953e-16 0.00000000e+00 7.56137793e-15 0.00000000e+00 1.79914953e-16
1.25892541e+02 4.27668470e-15 1.18868631e-16 0.00000000e+00 4.15781607e-15 0.00000000e+00 1.18868631e-16
1.44543977e+02 2.35254872e-15 7.85357256e-17 0.00000000e+00 2.27401299e-15 0.00000000e+00 7.85357256e-17
1.65958691e+02 1.23705308e-15 5.18880394e-17 0.00000000e+00 1.18516504e-15 0.00000000e+00 5.18880394e-17
1.90546072e+02 6.52851744e-16 3.42820876e-17 0.00000000e+00 6.18569656e-16 0.00000000e+00 3.42820876e-17
2.18776162e+02 3.45091466e-16 2.26499507e-17 0.00000000e+00 3.22441515e-16 0.00000000e+00 2.26499507e-17
2.51188643e+02 1.82488744e-16 1.49646740e-17 0.00000000e+00 1.67524070e-16 0.00000000e+00 1.49646740e-17
2.88403150e+02 9.65480828e-17 9.88706207e-18 0.00000000e+00 8.66610207e-17 0.00000000e+00 9.88706207e-18
3.31131121e+02 5.12447810e-17 6.53231713e-18 0.00000000e+00 4.47124639e-17 0.00000000e+00 6.53231713e-18
3.80189396e+02 2.72996985e-17 4.31585913e-18 0.00000000e+00 2.29838394e-17 0.00000000e+00 4.31585913e-18
4.36515832e+02 1.46378764e-17 2.85145985e-18 0.00000000e+00 1.17864166e-17 0.00000000e+00 2.85145985e-18
5.01187234e+02 7.91208954e-18 1.88394084e-18 0.00000000e+00 6.02814870e-18 0.00000000e+00 1.88394084e-18
5.75439937e+02 4.32106714e-18 1.24470737e-18 0.00000000e+00 3.07635977e-18 0.00000000e+00 1.24470737e-18
6.60693448e+02 2.38935839e-18 8.22370004e-19 0.00000000e+00 1.56698838e-18 0.00000000e+00 8.22370004e-19
7.58577575e+02 1.34018287e-18 5.43334473e-19 0.00000000e+00 7.96848396e-19 0.00000000e+00 5.43334473e-19
8.70963590e+02 7.63507806e-19 3.58977527e-19 0.00000000e+00 4.04530279e-19 0.00000000e+00 3.58977527e-19
1.00000000e+03 2.05035675e-19 0.00000000e+00 0.00000000e+00 2.05035675e-19 0.00000000e+00 0.00000000e+00
