# column 1: lambda (micron)
# column 2: total flux; lambda*F_lambda (W/m2)
# column 3: direct stellar flux; lambda*F_lambda (W/m2)
# column 4: scattered stellar flux; lambda*F_lambda (W/m2)
# column 5: total dust emission flux; lambda*F_lambda (W/m2)
# column 6: dust emission scattered flux; lambda*F_lambda (W/m2)
# column 7: transparent flux; lambda*F_lambda (W/m2)
1.00000000e-03 8.46529460e-13 8.46529401e-13 5.86526495e-20 0.00000000e+00 0.00000000e+00 8.46529401e-13
1.14815362e-03 9.99176206e-13 9.99176121e-13 8.58364288e-20 0.00000000e+00 0.00000000e+00 9.99176121e-13
1.31825674e-03 1.17934834e-12 1.17934819e-12 1.50988227e-19 0.00000000e+00 0.00000000e+00 1.17934819e-12
1.51356125e-03 1.39200923e-12 1.39200901e-12 2.21250323e-19 0.00000000e+00 0.00000000e+00 1.39200901e-12
1.73780083e-03 1.64301737e-12 1.64301696e-12 4.15129347e-19 0.00000000e+00 0.00000000e+00 1.64301696e-12
1.99526231e-03 1.93928762e-12 1.93928682e-12 8.00081120e-19 0.00000000e+00 0.00000000e+00 1.93928682e-12
2.29086765e-03 2.28898142e-12 2.28898025e-12 1.16562548e-18 0.00000000e+00 0.00000000e+00 2.28898025e-12
2.63026799e-03 2.70173318e-12 2.70173063e-12 2.55606860e-18 0.00000000e+00 0.00000000e+00 2.70173063e-12
3.01995172e-03 3.18891253e-12 3.18890841e-12 4.12215128e-18 0.00000000e+00 0.00000000e+00 3.18890841e-12
3.46736850e-03 3.76394174e-12 3.76393440e-12 7.33665596e-18 0.00000000e+00 0.00000000e+00 3.76393440e-12
3.98107171e-03 4.44266218e-12 4.44264945e-12 1.27305568e-17 0.00000000e+00 0.00000000e+00 4.44264945e-12
4.57088190e-03 5.24377829e-12 5.24375082e-12 2.74712114e-17 0.00000000e+00 0.00000000e+00 5.24375082e-12
5.24807460e-03 6.18935427e-12 6.18930730e-12 4.69691819e-17 0.00000000e+00 0.00000000e+00 6.18930730e-12
6.02559586e-03 7.30545950e-12 7.30536713e-12 9.23648700e-17 0.00000000e+00 0.00000000e+00 7.30536713e-12
6.91830971e-03 8.62281600e-12 8.62267558e-12 1.40427167e-16 0.00000000e+00 0.00000000e+00 8.62267558e-12
7.94328235e-03 1.01777594e-11 1.01775219e-11 2.37522749e-16 1.97892899e-303 2.61889874e-305 1.01775219e-11
9.12010839e-03 1.20131423e-11 1.20127391e-11 4.03174957e-16 8.86706175e-265 5.63563467e-267 1.20127391e-11
1.04712855e-02 1.34171352e-11 1.34165878e-11 5.47395299e-16 3.84245519e-231 2.45358629e-233 1.34165878e-11
1.20226443e-02 1.34174107e-11 1.34165878e-11 8.22878417e-16 6.16058131e-202 4.91795542e-204 1.34165878e-11
1.38038426e-02 1.34178343e-11 1.34165878e-11 1.24648993e-15 1.72078653e-176 2.52591912e-178 1.34165878e-11
1.58489319e-02 1.34182154e-11 1.34165878e-11 1.62758918e-15 2.36297016e-154 3.50069033e-156 1.34165878e-11
1.81970086e-02 1.34189160e-11 1.34165878e-11 2.32817197e-15 4.26397082e-135 5.53196602e-137 1.34165878e-11
2.08929613e-02 1.34200822e-11 1.34165878e-11 3.49431346e-15 2.25741885e-118 3.48054352e-120 1.34165878e-11
2.39883292e-02 1.34218512e-11 1.34165878e-11 5.26333197e-15 8.01653027e-104 1.52149423e-105 1.34165878e-11
2.75422870e-02 1.34225709e-11 1.34165878e-11 5.98306707e-15 3.62058135e-91 7.62410900e-93 1.34165878e-11
3.16227766e-02 1.34247798e-11 1.34165878e-11 8.19197377e-15 3.55932268e-80 8.61529244e-82 1.34165878e-11
3.63078055e-02 1.34261749e-11 1.34165878e-11 9.58702941e-15 1.24322701e-70 3.28543837e-72 1.34165878e-11
4.16869383e-02 1.34295667e-11 1.34165878e-11 1.29789096e-14 2.38502637e-62 8.04901530e-64 1.34165878e-11
4.78630092e-02 1.34348865e-11 1.34165878e-11 1.82987041e-14 3.62798749e-55 1.55151059e-56 1.34165878e-11
5.49540874e-02 1.34410421e-11 1.34165878e-11 2.44542782e-14 6.05400638e-49 3.02988590e-50 1.34165878e-11
6.30957344e-02 1.34497783e-11 1.34165878e-11 3.31904507e-14 1.96187258e-43 1.18178725e-44 1.34165878e-11
7.24435960e-02 1.34513663e-11 1.34165878e-11 3.47785000e-14 1.13513725e-38 6.79941404e-40 1.34165878e-11
8.31763771e-02 1.34518208e-11 1.34165878e-11 3.52329983e-14 1.16559853e-34 6.82305232e-36 1.34165878e-11
9.54992586e-02 1.34531082e-11 1.34165878e-11 3.65203751e-14 3.29803955e-31 1.99522132e-32 1.34165878e-11
1.09647820e-01 1.28482324e-11 1.28127470e-11 3.54854109e-14 2.81507302e-28 1.76668644e-29 1.28127470e-11
1.25892541e-01 1.19866686e-11 1.19575512e-11 2.91173994e-14 9.14823363e-26 5.40072641e-27 1.19575512e-11
1.44543977e-01 1.11840338e-11 1.11594361e-11 2.45977229e-14 1.24993151e-23 6.95480129e-25 1.11594361e-11
1.65958691e-01 1.04394946e-11 1.04145917e-11 2.49029043e-14 6.34385927e-22 3.75542135e-23 1.04145917e-11
1.90546072e-01 9.74880794e-12 9.71946251e-12 2.93454154e-14 1.33918347e-20 9.55261995e-22 9.71946251e-12
2.18776162e-01 9.10273153e-12 9.07073019e-12 3.20011825e-14 1.58897753e-19 1.24955776e-20 9.07073019e-12
2.51188643e-01 8.50052632e-12 8.46529796e-12 3.52264237e-14 1.93161923e-18 1.77151831e-19 8.46529796e-12
2.88403150e-01 7.93146752e-12 7.90027573e-12 3.11757340e-14 1.60542742e-17 1.37659986e-18 7.90027573e-12
3.31131121e-01 7.39909189e-12 7.37296631e-12 2.60335269e-14 9.20609602e-17 7.52158261e-18 7.37296631e-12
3.80189396e-01 6.90475478e-12 6.88085251e-12 2.35190475e-14 3.83216047e-16 2.95389147e-17 6.88085251e-12
4.36515832e-01 6.44247645e-12 6.42158520e-12 1.96806542e-14 1.21059371e-15 8.88411966e-17 6.42158520e-12
5.01187234e-01 6.01489414e-12 5.99297201e-12 1.88987220e-14 3.02340955e-15 2.19390642e-16 5.99297201e-12
5.75439937e-01 5.61651541e-12 5.59296690e-12 1.73497904e-14 6.19871684e-15 4.33329125e-16 5.59296690e-12
6.60693448e-01 5.24643523e-12 5.21966041e-12 1.59524218e-14 1.08223945e-14 7.37651788e-16 5.21966041e-12
7.58577575e-01 4.90236745e-12 4.87127053e-12 1.43207273e-14 1.67761907e-14 1.13141947e-15 4.87127053e-12
8.70963590e-01 4.58228095e-12 4.54613417e-12 1.26298104e-14 2.35169675e-14 1.47949071e-15 4.54613417e-12
1.00000000e+00 4.28428049e-12 4.24269927e-12 1.10945855e-14 3.04866380e-14 1.79998197e-15 4.24269927e-12
1.14815362e+00 4.00699010e-12 3.95951734e-12 9.17779311e-15 3.82949667e-14 2.07699122e-15 3.95951734e-12
1.31825674e+00 3.75082935e-12 3.69523659e-12 7.33367035e-15 4.82590940e-14 2.39127811e-15 3.69523659e-12
1.51356125e+00 3.51699547e-12 3.44859544e-12 5.98067949e-15 6.24193584e-14 2.81751418e-15 3.44859544e-12
1.73780083e+00 3.30550407e-12 3.21841652e-12 4.54574729e-15 8.25417970e-14 3.32535082e-15 3.21841652e-12
1.99526231e+00 3.11668607e-12 3.00360106e-12 3.44055930e-15 1.09644447e-13 3.83465646e-15 3.00360106e-12
2.29086765e+00 2.94766667e-12 2.80312361e-12 2.45397928e-15 1.42089086e-13 4.20388108e-15 2.80312361e-12
2.63026799e+00 2.79383336e-12 2.61602716e-12 1.75325764e-15 1.76052935e-13 4.19923482e-15 2.61602716e-12
3.01995172e+00 2.64944321e-12 2.44141860e-12 1.17175422e-15 2.06852856e-13 3.89533578e-15 2.44141860e-12
3.46736850e+00 2.50936973e-12 2.27846441e-12 7.96726143e-16 2.30108591e-13 3.30705780e-15 2.27846441e-12
3.98107171e+00 2.36927869e-12 2.12638671e-12 4.91456140e-16 2.42400526e-13 2.56311276e-15 2.12638671e-12
4.57088190e+00 2.22717097e-12 1.98445954e-12 3.34929646e-16 2.42376500e-13 1.81672865e-15 1.98445954e-12
5.24807460e+00 1.87429641e-12 1.64084388e-12 1.76401923e-16 2.33276130e-13 1.21152782e-15 1.64084388e-12
6.02559586e+00 1.30269219e-12 1.08409480e-12 7.54233701e-17 2.18521966e-13 7.41468478e-16 1.08409480e-12
6.70000000e+00 9.93094050e-13 7.88574724e-13 3.75436185e-17 2.04481783e-13 4.84126863e-16 7.88574724e-13
6.92422916e+00 9.13907552e-13 7.14418944e-13 3.15550425e-17 1.99457053e-13 4.14368157e-16 7.14418944e-13
7.15596261e+00 8.43666805e-13 6.47236606e-13 2.49685570e-17 1.96405231e-13 3.59027581e-16 6.47236606e-13
7.39545150e+00 7.84396017e-13 5.86371942e-13 1.77772409e-17 1.98006298e-13 3.04911515e-16 5.86371942e-13
7.64295536e+00 7.44227930e-13 5.31230854e-13 1.31765198e-17 2.12983900e-13 2.57066947e-16 5.31230854e-13
7.89874245e+00 7.30547860e-13 4.81275108e-13 8.40081116e-18 2.49264351e-13 2.14174499e-16 4.81275108e-13
8.16308998e+00 7.39379472e-13 4.36017088e-13 5.27334343e-18 3.03357111e-13 1.79793517e-16 4.36017088e-13
8.43628443e+00 7.74871324e-13 3.95015029e-13 2.84137653e-18 3.79853454e-13 1.41367325e-16 3.95015029e-13
8.71862190e+00 7.95393463e-13 3.57868711e-13 1.98134800e-18 4.37522770e-13 1.12895007e-16 3.57868711e-13
9.01040836e+00 8.19910151e-13 3.24215549e-13 1.27885094e-18 4.95693323e-13 8.06615790e-17 3.24215549e-13
9.31196005e+00 8.38344029e-13 2.93727053e-13 0.00000000e+00 5.44616976e-13 0.00000000e+00 2.93727053e-13
9.62360379e+00 8.11888113e-13 2.66105627e-13 0.00000000e+00 5.45782486e-13 0.00000000e+00 2.66105627e-13
9.94567731e+00 7.49182498e-13 2.41081657e-13 0.00000000e+00 5.08100841e-13 0.00000000e+00 2.41081657e-13
1.02785297e+01 6.81671853e-13 2.18410884e-13 0.00000000e+00 4.63260969e-13 0.00000000e+00 2.18410884e-13
1.06225216e+01 6.16090269e-13 1.97872020e-13 0.00000000e+00 4.18218249e-13 0.00000000e+00 1.97872020e-13
1.09780260e+01 5.47259734e-13 1.79264583e-13 0.00000000e+00 3.67995151e-13 0.00000000e+00 1.79264583e-13
1.13454280e+01 4.87424170e-13 1.62406948e-13 0.00000000e+00 3.25017222e-13 0.00000000e+00 1.62406948e-13
1.17251259e+01 4.36138319e-13 1.47134567e-13 0.00000000e+00 2.89003752e-13 0.00000000e+00 1.47134567e-13
1.21175312e+01 3.89441719e-13 1.33298366e-13 0.00000000e+00 2.56143354e-13 0.00000000e+00 1.33298366e-13
1.25230691e+01 3.48058513e-13 1.20763289e-13 0.00000000e+00 2.27295224e-13 0.00000000e+00 1.20763289e-13
1.29421791e+01 3.12323790e-13 1.09406983e-13 0.00000000e+00 2.02916807e-13 0.00000000e+00 1.09406983e-13
1.33753155e+01 2.81439972e-13 9.91185987e-14 0.00000000e+00 1.82321373e-13 0.00000000e+00 9.91185987e-14
1.38229477e+01 2.58813024e-13 8.97977103e-14 0.00000000e+00 1.69015313e-13 0.00000000e+00 8.97977103e-14
1.42855609e+01 2.43173355e-13 8.13533371e-14 0.00000000e+00 1.61820017e-13 0.00000000e+00 8.13533371e-14
1.47636563e+01 2.37804340e-13 7.37030537e-14 0.00000000e+00 1.64101286e-13 0.00000000e+00 7.37030537e-14
1.52577522e+01 2.35139249e-13 6.67721855e-14 0.00000000e+00 1.68367063e-13 0.00000000e+00 6.67721855e-14
1.57683840e+01 2.35199674e-13 6.04930805e-14 0.00000000e+00 1.74706593e-13 0.00000000e+00 6.04930805e-14
1.62961051e+01 2.35482786e-13 5.48044484e-14 0.00000000e+00 1.80678337e-13 0.00000000e+00 5.48044484e-14
1.68414875e+01 2.36768422e-13 4.96507622e-14 0.00000000e+00 1.87117659e-13 0.00000000e+00 4.96507622e-14
1.74051222e+01 2.35028050e-13 4.49817171e-14 0.00000000e+00 1.90046333e-13 0.00000000e+00 4.49817171e-14
1.79876201e+01 2.31987780e-13 4.07517384e-14 0.00000000e+00 1.91236042e-13 0.00000000e+00 4.07517384e-14
1.85896125e+01 2.24468959e-13 3.69195372e-14 0.00000000e+00 1.87549421e-13 0.00000000e+00 3.69195372e-14
1.92117518e+01 2.15467463e-13 3.34477076e-14 0.00000000e+00 1.82019755e-13 0.00000000e+00 3.34477076e-14
1.98547123e+01 2.04079238e-13 3.03023610e-14 0.00000000e+00 1.73776877e-13 0.00000000e+00 3.03023610e-14
2.05191907e+01 1.92347951e-13 2.74527957e-14 0.00000000e+00 1.64895155e-13 0.00000000e+00 2.74527957e-14
2.12059073e+01 1.81856631e-13 2.48711970e-14 0.00000000e+00 1.56985434e-13 0.00000000e+00 2.48711970e-14
2.19156062e+01 1.72120935e-13 2.25323660e-14 0.00000000e+00 1.49588569e-13 0.00000000e+00 2.25323660e-14
2.26490567e+01 1.63105666e-13 2.04134733e-14 0.00000000e+00 1.42692192e-13 0.00000000e+00 2.04134733e-14
2.34070535e+01 1.54995593e-13 1.84938366e-14 0.00000000e+00 1.36501756e-13 0.00000000e+00 1.84938366e-14
2.41904183e+01 1.47504943e-13 1.67547181e-14 0.00000000e+00 1.30750225e-13 0.00000000e+00 1.67547181e-14
2.50000000e+01 1.40762052e-13 1.51791424e-14 0.00000000e+00 1.25582909e-13 0.00000000e+00 1.51791424e-14
2.75422870e+01 1.21883422e-13 1.13518661e-14 0.00000000e+00 1.10531556e-13 0.00000000e+00 1.13518661e-14
3.16227766e+01 9.83698567e-14 7.50010357e-15 0.00000000e+00 9.08697531e-14 0.00000000e+00 7.50010357e-15
3.63078055e+01 7.65397291e-14 4.95526929e-15 0.00000000e+00 7.15844598e-14 0.00000000e+00 4.95526929e-15
4.16869383e+01 5.62869949e-14 3.27391395e-15 0.00000000e+00 5.30130810e-14 0.00000000e+00 3.27391395e-15
4.78630092e+01 3.90293604e-14 2.16305350e-15 0.00000000e+00 3.68663069e-14 0.00000000e+00 2.16305350e-15
5.49540874e+01 2.56996198e-14 1.42911527e-15 0.00000000e+00 2.42705045e-14 0.00000000e+00 1.42911527e-15
6.30957344e+01 1.62174367e-14 9.44207098e-16 0.00000000e+00 1.52732296e-14 0.00000000e+00 9.44207098e-16
7.24435960e+01 9.88283176e-15 6.23831443e-16 0.00000000e+00 9.25900032e-15 0.00000000e+00 6.23831443e-16
8.31763771e+01 5.86869645e-15 4.12161347e-16 0.00000000e+00 5.45653511e-15 0.00000000e+00 4.12161347e-16
9.54992586e+01 3.41799802e-15 2.72312302e-16 0.00000000e+00 3.14568572e-15 0.00000000e+00 2.72312302e-16
1.09647820e+02 1.96196272e-15 1.79914953e-16 0.00000000e+00 1.78204776e-15 0.00000000e+00 1.79914953e-16
1.25892541e+02 1.12572897e-15 1.18868631e-16 0.00000000e+00 1.00686033e-15 0.00000000e+00 1.18868631e-16
1.44543977e+02 6.42512587e-16 7.85357256e-17 0.00000000e+00 5.63976861e-16 0.00000000e+00 7.85357256e-17
1.65958691e+02 3.52154533e-16 5.18880394e-17 0.00000000e+00 3.00266493e-16 0.00000000e+00 5.18880394e-17
1.90546072e+02 1.93920718e-16 3.42820876e-17 0.00000000e+00 1.59638631e-16 0.00000000e+00 3.42820876e-17
2.18776162e+02 1.07221364e-16 2.26499507e-17 0.00000000e+00 8.45714136e-17 0.00000000e+00 2.26499507e-17
2.51188643e+02 5.95274205e-17 1.49646740e-17 0.00000000e+00 4.45627464e-17 0.00000000e+00 1.49646740e-17
2.88403150e+02 3.32218181e-17 9.88706207e-18 0.00000000e+00 2.33347560e-17 0.00000000e+00 9.88706207e-18
3.31131121e+02 1.87001089e-17 6.53231713e-18 0.00000000e+00 1.21677917e-17 0.00000000e+00 6.53231713e-18
3.80189396e+02 1.06282466e-17 4.31585913e-18 0.00000000e+00 6.31238750e-18 0.00000000e+00 4.31585913e-18
4.36515832e+02 6.11433851e-18 2.85145985e-18 0.00000000e+00 3.26287866e-18 0.00000000e+00 2.85145985e-18
5.01187234e+02 3.56426723e-18 1.88394084e-18 0.00000000e+00 1.68032639e-18 0.00000000e+00 1.88394084e-18
5.75439937e+02 2.10736685e-18 1.24470737e-18 0.00000000e+00 8.62659479e-19 0.00000000e+00 1.24470737e-18
6.60693448e+02 1.26406316e-18 8.22370004e-19 0.00000000e+00 4.41693152e-19 0.00000000e+00 8.22370004e-19
7.58577575e+02 7.68956031e-19 5.43334473e-19 0.00000000e+00 2.25621558e-19 0.00000000e+00 5.43334473e-19
8.70963590e+02 4.73964192e-19 3.58977527e-19 0.00000000e+00 1.14986666e-19 0.00000000e+00 3.58977527e-19
1.00000000e+03 5.84785052e-20 0.00000000e+00 0.00000000e+00 5.84785052e-20 0.00000000e+00 0.00000000e+00
