# column 1: lambda (micron)
# column 2: total flux; lambda*F_lambda (W/m2)
# column 3: direct stellar flux; lambda*F_lambda (W/m2)
# column 4: scattered stellar flux; lambda*F_lambda (W/m2)
# column 5: total dust emission flux; lambda*F_lambda (W/m2)
# column 6: dust emission scattered flux; lambda*F_lambda (W/m2)
# column 7: transparent flux; lambda*F_lambda (W/m2)
1.00000000e-03 9.68074964e-13 9.68073281e-13 1.68304282e-18 0.00000000e+00 0.00000000e+00 9.68073281e-13
1.14815362e-03 1.14263949e-12 1.14263687e-12 2.61770215e-18 0.00000000e+00 0.00000000e+00 1.14263687e-12
1.31825674e-03 1.34868189e-12 1.34867788e-12 4.00836496e-18 0.00000000e+00 0.00000000e+00 1.34867788e-12
1.51356125e-03 1.59187853e-12 1.59187233e-12 6.20337565e-18 0.00000000e+00 0.00000000e+00 1.59187233e-12
1.73780083e-03 1.87893031e-12 1.87891976e-12 1.05460707e-17 0.00000000e+00 0.00000000e+00 1.87891976e-12
1.99526231e-03 2.21774704e-12 2.21772777e-12 1.92792643e-17 0.00000000e+00 0.00000000e+00 2.21772777e-12
2.29086765e-03 2.61765918e-12 2.61762985e-12 2.93345174e-17 0.00000000e+00 0.00000000e+00 2.61762985e-12
2.63026799e-03 3.08970059e-12 3.08964252e-12 5.80653121e-17 0.00000000e+00 0.00000000e+00 3.08964252e-12
3.01995172e-03 3.64686755e-12 3.64676883e-12 9.87265494e-17 0.00000000e+00 0.00000000e+00 3.64676883e-12
3.46736850e-03 4.30452370e-12 4.30435650e-12 1.67198283e-16 0.00000000e+00 0.00000000e+00 4.30435650e-12
3.98107171e-03 5.08077512e-12 5.08052080e-12 2.54322295e-16 0.00000000e+00 0.00000000e+00 5.08052080e-12
4.57088190e-03 5.99722155e-12 5.99664354e-12 5.78014867e-16 0.00000000e+00 0.00000000e+00 5.99664354e-12
5.24807460e-03 7.07900020e-12 7.07796211e-12 1.03808628e-15 0.00000000e+00 0.00000000e+00 7.07796211e-12
6.02559586e-03 8.35617188e-12 8.35426474e-12 1.90713795e-15 0.00000000e+00 0.00000000e+00 8.35426474e-12
6.91830971e-03 9.86414560e-12 9.86071107e-12 3.43452681e-15 0.00000000e+00 0.00000000e+00 9.86071107e-12
7.94328235e-03 1.16438355e-11 1.16388008e-11 5.03472323e-15 7.57060478e-304 1.44350231e-306 1.16388008e-11
9.12010839e-03 1.37455862e-11 1.37375167e-11 8.06945872e-15 3.24645397e-265 2.13710251e-267 1.37375167e-11
1.04712855e-02 1.53538995e-11 1.53429287e-11 1.09708635e-14 1.33685679e-231 5.28558958e-234 1.53429287e-11
1.20226443e-02 1.53608981e-11 1.53429287e-11 1.79694458e-14 2.06279801e-202 1.98374546e-204 1.53429287e-11
1.38038426e-02 1.53679160e-11 1.53429287e-11 2.49873140e-14 5.53232181e-177 6.68968868e-179 1.53429287e-11
1.58489319e-02 1.53814842e-11 1.53429287e-11 3.85555441e-14 7.41235469e-155 1.39883923e-156 1.53429287e-11
1.81970086e-02 1.53894200e-11 1.53429287e-11 4.64913232e-14 1.29843211e-135 1.96473008e-137 1.53429287e-11
2.08929613e-02 1.54087802e-11 1.53429287e-11 6.58515568e-14 6.72034484e-119 1.27569595e-120 1.53429287e-11
2.39883292e-02 1.54349765e-11 1.53429287e-11 9.20478714e-14 2.34530356e-104 5.97556906e-106 1.53429287e-11
2.75422870e-02 1.54541634e-11 1.53429287e-11 1.11234691e-13 1.04334112e-91 3.18875294e-93 1.53429287e-11
3.16227766e-02 1.54844090e-11 1.53429287e-11 1.41480318e-13 1.01264707e-80 3.65392831e-82 1.53429287e-11
3.63078055e-02 1.55061584e-11 1.53429287e-11 1.63229694e-13 3.49900024e-71 1.43650472e-72 1.53429287e-11
4.16869383e-02 1.55665897e-11 1.53429287e-11 2.23661025e-13 6.67506312e-63 3.63813813e-64 1.53429287e-11
4.78630092e-02 1.56334814e-11 1.53429287e-11 2.90552774e-13 1.00983238e-55 6.71081585e-57 1.53429287e-11
5.49540874e-02 1.56913205e-11 1.53429287e-11 3.48391787e-13 1.68171194e-49 1.31488183e-50 1.53429287e-11
6.30957344e-02 1.57232896e-11 1.53429287e-11 3.80360887e-13 5.42457630e-44 4.73706105e-45 1.53429287e-11
7.24435960e-02 1.56936805e-11 1.53429287e-11 3.50751791e-13 3.11136865e-39 2.52862938e-40 1.53429287e-11
8.31763771e-02 1.56878745e-11 1.53429287e-11 3.44945866e-13 3.17719780e-35 2.57437427e-36 1.53429287e-11
9.54992586e-02 1.57010060e-11 1.53429287e-11 3.58077361e-13 8.93589696e-32 7.43368498e-33 1.53429287e-11
1.09647820e-01 1.50356466e-11 1.46523889e-11 3.83257705e-13 7.60682720e-29 6.90317126e-30 1.46523889e-11
1.25892541e-01 1.40293940e-11 1.36744049e-11 3.54989055e-13 2.45921921e-26 2.19132762e-27 1.36744049e-11
1.44543977e-01 1.30828727e-11 1.27616972e-11 3.21175467e-13 3.34422689e-24 2.93209657e-25 1.27616972e-11
1.65958691e-01 1.22434478e-11 1.19099088e-11 3.33539029e-13 1.69576198e-22 1.60823773e-23 1.19099088e-11
1.90546072e-01 1.14833198e-11 1.11149736e-11 3.68346136e-13 3.58766330e-21 3.96071522e-22 1.11149736e-11
2.18776162e-01 1.07193228e-11 1.03730969e-11 3.46225845e-13 4.24042946e-20 4.80483648e-21 1.03730969e-11
2.51188643e-01 1.00830052e-11 9.68073733e-12 4.02267328e-13 5.19074508e-19 7.08179253e-20 9.68073733e-12
2.88403150e-01 9.40647928e-12 9.03458975e-12 3.71885211e-13 4.32077357e-18 5.86661595e-19 9.03458975e-12
3.31131121e-01 8.78063252e-12 8.43156974e-12 3.49038069e-13 2.47141332e-17 3.26414760e-18 8.43156974e-12
3.80189396e-01 8.18007460e-12 7.86879872e-12 3.11172523e-13 1.03348724e-16 1.35615848e-17 7.86879872e-12
4.36515832e-01 7.63134339e-12 7.34359025e-12 2.87419561e-13 3.33575978e-16 4.48736769e-17 7.34359025e-12
5.01187234e-01 7.11961082e-12 6.85343719e-12 2.65266974e-13 9.06660285e-16 1.35175310e-16 6.85343719e-12
5.75439937e-01 6.64485578e-12 6.39599973e-12 2.46480889e-13 2.37516608e-15 4.41188358e-16 6.39599973e-12
6.60693448e-01 6.20289945e-12 5.96909425e-12 2.27050101e-13 6.75509744e-15 1.57466898e-15 5.96909425e-12
7.58577575e-01 5.79511517e-12 5.57068288e-12 2.04034828e-13 2.03974557e-14 5.31029480e-15 5.57068288e-12
8.70963590e-01 5.43697543e-12 5.19886376e-12 1.78862368e-13 5.92493055e-14 1.58046689e-14 5.19886376e-12
1.00000000e+00 5.15455733e-12 4.85186196e-12 1.51638726e-13 1.51056638e-13 3.84737799e-14 4.85186196e-12
1.14815362e+00 5.00331588e-12 4.52802104e-12 1.28579391e-13 3.46715440e-13 8.05412089e-14 4.52802104e-12
1.31825674e+00 5.03325022e-12 4.22579511e-12 1.01314091e-13 7.06141018e-13 1.44259433e-13 4.22579511e-12
1.51356125e+00 5.30457589e-12 3.94374146e-12 7.99229780e-14 1.28091145e-12 2.24973549e-13 3.94374146e-12
1.73780083e+00 5.81401690e-12 3.68051368e-12 6.22852575e-14 2.07121796e-12 3.03813436e-13 3.68051368e-12
1.99526231e+00 6.49345553e-12 3.43485522e-12 4.70193223e-14 3.01158098e-12 3.58000518e-13 3.43485522e-12
2.29086765e+00 7.22416540e-12 3.20559341e-12 3.49044420e-14 3.98366755e-12 3.68575469e-13 3.20559341e-12
2.63026799e+00 7.85907860e-12 2.99163384e-12 2.55669333e-14 4.84187783e-12 3.42876464e-13 2.99163384e-12
3.01995172e+00 8.31194519e-12 2.79195514e-12 1.80928523e-14 5.50189719e-12 2.92789953e-13 2.79195514e-12
3.46736850e+00 8.49267474e-12 2.60560415e-12 1.26849680e-14 5.87438563e-12 2.29592157e-13 2.60560415e-12
3.98107171e+00 8.42262503e-12 2.43169128e-12 8.71888422e-15 5.98221487e-12 1.67698661e-13 2.43169128e-12
4.57088190e+00 8.14638298e-12 2.26938634e-12 5.69929978e-15 5.87129733e-12 1.13692653e-13 2.26938634e-12
5.24807460e+00 7.47772570e-12 1.87643467e-12 3.20575934e-15 5.59808527e-12 7.26572664e-14 1.87643467e-12
6.02559586e+00 6.50125199e-12 1.23974809e-12 1.38521614e-15 5.26011868e-12 4.41574598e-14 1.23974809e-12
6.70000000e+00 5.88638087e-12 9.01797527e-13 6.99448582e-16 4.98388389e-12 2.87390907e-14 9.01797527e-13
6.92422916e+00 5.70196303e-12 8.16994532e-13 5.63386321e-16 4.88440511e-12 2.48686201e-14 8.16994532e-13
7.15596261e+00 5.56674015e-12 7.40166218e-13 4.50583787e-16 4.82612335e-12 2.14691602e-14 7.40166218e-13
7.39545150e+00 5.53699192e-12 6.70562664e-13 3.40094962e-16 4.86608916e-12 1.83934390e-14 6.70562664e-13
7.64295536e+00 5.77081703e-12 6.07504471e-13 2.41061004e-16 5.16307150e-12 1.55453697e-14 6.07504471e-13
7.89874245e+00 6.34156888e-12 5.50376127e-13 1.52609878e-16 5.79104014e-12 1.27443374e-14 5.50376127e-13
8.16308998e+00 7.16656902e-12 4.98620004e-13 9.06502646e-17 6.66785837e-12 1.01987453e-14 4.98620004e-13
8.43628443e+00 8.17469826e-12 4.51730909e-13 5.04525477e-17 7.72291690e-12 7.81978564e-15 4.51730909e-13
8.71862190e+00 8.84378369e-12 4.09251158e-13 3.18729421e-17 8.43450066e-12 6.21991138e-15 4.09251158e-13
9.01040836e+00 9.43694154e-12 3.70766106e-13 1.97958936e-17 9.06615564e-12 4.72714957e-15 3.70766106e-13
9.31196005e+00 9.90008758e-12 3.35900102e-13 0.00000000e+00 9.56418748e-12 0.00000000e+00 3.35900102e-13
9.62360379e+00 9.82367652e-12 3.04312818e-13 0.00000000e+00 9.51936370e-12 0.00000000e+00 3.04312818e-13
9.94567731e+00 9.33515506e-12 2.75695930e-13 0.00000000e+00 9.05945913e-12 0.00000000e+00 2.75695930e-13
1.02785297e+01 8.72599012e-12 2.49770110e-13 0.00000000e+00 8.47622001e-12 0.00000000e+00 2.49770110e-13
1.06225216e+01 8.19021623e-12 2.26282295e-13 0.00000000e+00 7.96393393e-12 0.00000000e+00 2.26282295e-13
1.09780260e+01 7.60421110e-12 2.05003220e-13 0.00000000e+00 7.39920788e-12 0.00000000e+00 2.05003220e-13
1.13454280e+01 7.03889414e-12 1.85725182e-13 0.00000000e+00 6.85316896e-12 0.00000000e+00 1.85725182e-13
1.17251259e+01 6.52953389e-12 1.68260007e-13 0.00000000e+00 6.36127388e-12 0.00000000e+00 1.68260007e-13
1.21175312e+01 6.12246939e-12 1.52437217e-13 0.00000000e+00 5.97003217e-12 0.00000000e+00 1.52437217e-13
1.25230691e+01 5.73131369e-12 1.38102367e-13 0.00000000e+00 5.59321132e-12 0.00000000e+00 1.38102367e-13
1.29421791e+01 5.36772079e-12 1.25115533e-13 0.00000000e+00 5.24260526e-12 0.00000000e+00 1.25115533e-13
1.33753155e+01 5.07243495e-12 1.13349952e-13 0.00000000e+00 4.95908500e-12 0.00000000e+00 1.13349952e-13
1.38229477e+01 4.86801045e-12 1.02690779e-13 0.00000000e+00 4.76531967e-12 0.00000000e+00 1.02690779e-13
1.42855609e+01 4.76627305e-12 9.30339713e-14 0.00000000e+00 4.67323907e-12 0.00000000e+00 9.30339713e-14
1.47636563e+01 4.86942746e-12 8.42852675e-14 0.00000000e+00 4.78514220e-12 0.00000000e+00 8.42852675e-14
1.52577522e+01 5.01190306e-12 7.63592720e-14 0.00000000e+00 4.93554379e-12 0.00000000e+00 7.63592720e-14
1.57683840e+01 5.19781396e-12 6.91786191e-14 0.00000000e+00 5.12863534e-12 0.00000000e+00 6.91786191e-14
1.62961051e+01 5.36346710e-12 6.26732185e-14 0.00000000e+00 5.30079388e-12 0.00000000e+00 6.26732185e-14
1.68414875e+01 5.56759011e-12 5.67795711e-14 0.00000000e+00 5.51081054e-12 0.00000000e+00 5.67795711e-14
1.74051222e+01 5.70223027e-12 5.14401489e-14 0.00000000e+00 5.65079013e-12 0.00000000e+00 5.14401489e-14
1.79876201e+01 5.77786341e-12 4.66028339e-14 0.00000000e+00 5.73126058e-12 0.00000000e+00 4.66028339e-14
1.85896125e+01 5.77596086e-12 4.22204090e-14 0.00000000e+00 5.73374045e-12 0.00000000e+00 4.22204090e-14
1.92117518e+01 5.73076181e-12 3.82500974e-14 0.00000000e+00 5.69251171e-12 0.00000000e+00 3.82500974e-14
1.98547123e+01 5.62386536e-12 3.46531450e-14 0.00000000e+00 5.58921222e-12 0.00000000e+00 3.46531450e-14
2.05191907e+01 5.50137537e-12 3.13944418e-14 0.00000000e+00 5.46998092e-12 0.00000000e+00 3.13944418e-14
2.12059073e+01 5.37713651e-12 2.84421796e-14 0.00000000e+00 5.34869433e-12 0.00000000e+00 2.84421796e-14
2.19156062e+01 5.23822541e-12 2.57675415e-14 0.00000000e+00 5.21245787e-12 0.00000000e+00 2.57675415e-14
2.26490567e+01 5.11200549e-12 2.33444203e-14 0.00000000e+00 5.08866107e-12 0.00000000e+00 2.33444203e-14
2.34070535e+01 4.98664227e-12 2.11491639e-14 0.00000000e+00 4.96549311e-12 0.00000000e+00 2.11491639e-14
2.41904183e+01 4.85865918e-12 1.91603445e-14 0.00000000e+00 4.83949884e-12 0.00000000e+00 1.91603445e-14
2.50000000e+01 4.71393325e-12 1.73585491e-14 0.00000000e+00 4.69657470e-12 0.00000000e+00 1.73585491e-14
2.75422870e+01 4.26491256e-12 1.29817562e-14 0.00000000e+00 4.25193080e-12 0.00000000e+00 1.29817562e-14
3.16227766e+01 3.56180662e-12 8.57696126e-15 0.00000000e+00 3.55322966e-12 0.00000000e+00 8.57696126e-15
3.63078055e+01 2.78739637e-12 5.66674211e-15 0.00000000e+00 2.78172962e-12 0.00000000e+00 5.66674211e-15
4.16869383e+01 2.02790223e-12 3.74397938e-15 0.00000000e+00 2.02415825e-12 0.00000000e+00 3.74397938e-15
4.78630092e+01 1.36964096e-12 2.47362265e-15 0.00000000e+00 1.36716734e-12 0.00000000e+00 2.47362265e-15
5.49540874e+01 8.72522879e-13 1.63430628e-15 0.00000000e+00 8.70888573e-13 0.00000000e+00 1.63430628e-15
6.30957344e+01 5.29885599e-13 1.07977545e-15 0.00000000e+00 5.28805824e-13 0.00000000e+00 1.07977545e-15
7.24435960e+01 3.10140362e-13 7.13400564e-16 0.00000000e+00 3.09426962e-13 0.00000000e+00 7.13400564e-16
8.31763771e+01 1.76407134e-13 4.71339078e-16 0.00000000e+00 1.75935795e-13 0.00000000e+00 4.71339078e-16
9.54992586e+01 9.83583942e-14 3.11410641e-16 0.00000000e+00 9.80469835e-14 0.00000000e+00 3.11410641e-16
1.09647820e+02 5.40631480e-14 2.05746970e-16 0.00000000e+00 5.38574011e-14 0.00000000e+00 2.05746970e-16
1.25892541e+02 2.97142725e-14 1.35935675e-16 0.00000000e+00 2.95783368e-14 0.00000000e+00 1.35935675e-16
1.44543977e+02 1.62538445e-14 8.98118099e-17 0.00000000e+00 1.61640327e-14 0.00000000e+00 8.98118099e-17
1.65958691e+02 8.47645766e-15 5.93380743e-17 0.00000000e+00 8.41711958e-15 0.00000000e+00 5.93380743e-17
1.90546072e+02 4.42865717e-15 3.92042769e-17 0.00000000e+00 4.38945289e-15 0.00000000e+00 3.92042769e-17
2.18776162e+02 2.31185331e-15 2.59020089e-17 0.00000000e+00 2.28595130e-15 0.00000000e+00 2.59020089e-17
2.51188643e+02 1.20398988e-15 1.71132876e-17 0.00000000e+00 1.18687659e-15 0.00000000e+00 1.71132876e-17
2.88403150e+02 6.24827662e-16 1.13066370e-17 0.00000000e+00 6.13521025e-16 0.00000000e+00 1.13066370e-17
3.31131121e+02 3.23825327e-16 7.47022097e-18 0.00000000e+00 3.16355106e-16 0.00000000e+00 7.47022097e-18
3.80189396e+02 1.67466575e-16 4.93552605e-18 0.00000000e+00 1.62531049e-16 0.00000000e+00 4.93552605e-18
4.36515832e+02 8.65671181e-17 3.26086972e-18 0.00000000e+00 8.33062483e-17 0.00000000e+00 3.26086972e-18
5.01187234e+02 4.47438331e-17 2.15443526e-18 0.00000000e+00 4.25893978e-17 0.00000000e+00 2.15443526e-18
5.75439937e+02 2.31498172e-17 1.42342126e-18 0.00000000e+00 2.17263960e-17 0.00000000e+00 1.42342126e-18
6.60693448e+02 1.20034524e-17 9.40445101e-19 0.00000000e+00 1.10630073e-17 0.00000000e+00 9.40445101e-19
7.58577575e+02 6.24548767e-18 6.21345916e-19 0.00000000e+00 5.62414175e-18 0.00000000e+00 6.21345916e-19
8.70963590e+02 3.26496120e-18 4.10519176e-19 0.00000000e+00 2.85444202e-18 0.00000000e+00 4.10519176e-19
1.00000000e+03 1.44645844e-18 0.00000000e+00 0.00000000e+00 1.44645844e-18 0.00000000e+00 0.00000000e+00
