# column 1: lambda (micron)
# column 2: total flux; lambda*F_lambda (W/m2)
# column 3: direct stellar flux; lambda*F_lambda (W/m2)
# column 4: scattered stellar flux; lambda*F_lambda (W/m2)
# column 5: total dust emission flux; lambda*F_lambda (W/m2)
# column 6: dust emission scattered flux; lambda*F_lambda (W/m2)
# column 7: transparent flux; lambda*F_lambda (W/m2)
1.00000000e-03 1.04590045e-12 1.04589391e-12 6.54592657e-18 0.00000000e+00 0.00000000e+00 1.04634360e-12
1.14815362e-03 1.23432982e-12 1.23431974e-12 1.00728137e-17 0.00000000e+00 0.00000000e+00 1.23502095e-12
1.31825674e-03 1.45668296e-12 1.45666851e-12 1.44546687e-17 0.00000000e+00 0.00000000e+00 1.45772071e-12
1.51356125e-03 1.71913570e-12 1.71911373e-12 2.19689125e-17 0.00000000e+00 0.00000000e+00 1.72057784e-12
1.73780083e-03 2.02912685e-12 2.02908755e-12 3.92949132e-17 0.00000000e+00 0.00000000e+00 2.03083353e-12
1.99526231e-03 2.39440200e-12 2.39430282e-12 9.91824266e-17 0.00000000e+00 0.00000000e+00 2.39703472e-12
2.29086765e-03 2.82602037e-12 2.82585031e-12 1.70059419e-16 0.00000000e+00 0.00000000e+00 2.82926954e-12
2.63026799e-03 3.33494626e-12 3.33460949e-12 3.36771195e-16 0.00000000e+00 0.00000000e+00 3.33944522e-12
3.01995172e-03 3.93502206e-12 3.93455811e-12 4.63954893e-16 0.00000000e+00 0.00000000e+00 3.94161611e-12
3.46736850e-03 4.64470209e-12 4.64255325e-12 2.14883935e-15 0.00000000e+00 0.00000000e+00 4.65237083e-12
3.98107171e-03 5.50335791e-12 5.47802711e-12 2.53308065e-14 0.00000000e+00 0.00000000e+00 5.49128930e-12
4.57088190e-03 6.47460917e-12 6.47103617e-12 3.57300201e-15 0.00000000e+00 0.00000000e+00 6.48148207e-12
5.24807460e-03 7.66575910e-12 7.63448283e-12 3.12762629e-14 0.00000000e+00 0.00000000e+00 7.65022704e-12
6.02559586e-03 9.03489534e-12 9.00731891e-12 2.75764276e-14 0.00000000e+00 0.00000000e+00 9.02972084e-12
6.91830971e-03 1.06555624e-11 1.06274547e-11 2.81076933e-14 0.00000000e+00 0.00000000e+00 1.06579658e-11
7.94328235e-03 1.25841385e-11 1.25396455e-11 4.44930539e-14 4.42235911e-303 3.21496276e-305 1.25798170e-11
9.12010839e-03 1.48456666e-11 1.47956102e-11 5.00564357e-14 1.96535996e-264 7.89802952e-267 1.48482176e-11
1.04712855e-02 1.65991001e-11 1.65209294e-11 7.81707152e-14 8.44004787e-231 4.47269504e-233 1.65834298e-11
1.20226443e-02 1.66306420e-11 1.65172481e-11 1.13393947e-13 1.35285519e-201 2.15079817e-203 1.65834298e-11
1.38038426e-02 1.66477182e-11 1.65128827e-11 1.34835484e-13 3.70962438e-176 4.37922504e-178 1.65834298e-11
1.58489319e-02 1.66669127e-11 1.65075197e-11 1.59393095e-13 5.08246120e-154 7.92338979e-156 1.65834298e-11
1.81970086e-02 1.67054947e-11 1.65025747e-11 2.02919953e-13 9.15179778e-135 1.59257096e-136 1.65834298e-11
2.08929613e-02 1.67447325e-11 1.64984655e-11 2.46266991e-13 4.84450998e-118 1.18851640e-119 1.65834298e-11
2.39883292e-02 1.68058403e-11 1.64931429e-11 3.12697347e-13 1.72138290e-103 5.56080726e-105 1.65834298e-11
2.75422870e-02 1.68664911e-11 1.64869540e-11 3.79537159e-13 7.77856364e-91 2.96705414e-92 1.65834298e-11
3.16227766e-02 1.69184989e-11 1.64808897e-11 4.37609188e-13 7.68387709e-80 3.70690459e-81 1.65834298e-11
3.63078055e-02 1.69542584e-11 1.64761347e-11 4.78123686e-13 2.68133890e-70 1.39642070e-71 1.65834298e-11
4.16869383e-02 1.70800873e-11 1.64720232e-11 6.08064152e-13 5.17230865e-62 3.44546329e-63 1.65834298e-11
4.78630092e-02 1.71782949e-11 1.64606951e-11 7.17599851e-13 7.92913930e-55 6.55654474e-56 1.65834298e-11
5.49540874e-02 1.72260826e-11 1.64449541e-11 7.81128471e-13 1.33089171e-48 1.25469397e-49 1.65834298e-11
6.30957344e-02 1.71955073e-11 1.64055498e-11 7.89957431e-13 4.31698876e-43 4.36715367e-44 1.65834298e-11
7.24435960e-02 1.70484684e-11 1.63589971e-11 6.89471242e-13 2.48692051e-38 2.32118909e-39 1.65834298e-11
8.31763771e-02 1.70189935e-11 1.63631343e-11 6.55859212e-13 2.54823202e-34 2.34402670e-35 1.65834298e-11
9.54992586e-02 1.70441674e-11 1.63752743e-11 6.68893071e-13 7.19726212e-31 6.79352934e-32 1.65834298e-11
1.09647820e-01 1.63860011e-11 1.56717402e-11 7.14260927e-13 6.15870685e-28 6.42495793e-29 1.58370587e-11
1.25892541e-01 1.53542761e-11 1.46528859e-11 7.01390191e-13 1.99816159e-25 2.07675943e-26 1.47800032e-11
1.44543977e-01 1.43502518e-11 1.36950998e-11 6.55152022e-13 2.72090759e-23 2.77641120e-24 1.37935015e-11
1.65958691e-01 1.34556494e-11 1.27924953e-11 6.63154105e-13 1.38565366e-21 1.54294158e-22 1.28728446e-11
1.90546072e-01 1.26235610e-11 1.19336552e-11 6.89905770e-13 2.94284878e-20 3.76055790e-21 1.20136376e-11
2.18776162e-01 1.17298492e-11 1.11242699e-11 6.05578880e-13 3.48543943e-19 4.54235226e-20 1.12117790e-11
2.51188643e-01 1.10621953e-11 1.03980764e-11 6.64114585e-13 4.27664105e-18 6.60151291e-19 1.04634409e-11
2.88403150e-01 1.03608130e-11 9.71437831e-12 6.46399102e-13 3.56249367e-17 5.48124423e-18 9.76505125e-12
3.31131121e-01 9.67249992e-12 9.07203796e-12 6.00257893e-13 2.04065770e-16 3.08736498e-17 9.11327608e-12
3.80189396e-01 9.02625771e-12 8.47119847e-12 5.54209364e-13 8.49875471e-16 1.26479860e-16 8.50500410e-12
4.36515832e-01 8.42746813e-12 7.90986680e-12 5.14908794e-13 2.69254096e-15 3.97815427e-16 7.93733165e-12
5.01187234e-01 7.86517060e-12 7.38553768e-12 4.72823365e-13 6.80955326e-15 1.02665479e-15 7.40754890e-12
5.75439937e-01 7.33785740e-12 6.89566859e-12 4.27498536e-13 1.46902768e-14 2.38040200e-15 6.91312687e-12
6.60693448e-01 6.85484055e-12 6.43797832e-12 3.87361898e-13 2.95003347e-14 5.54983686e-15 6.45170538e-12
7.58577575e-01 6.42400019e-12 6.01041986e-12 3.52041114e-13 6.15392234e-14 1.41709523e-14 6.02108180e-12
8.70963590e-01 6.05663129e-12 5.61110280e-12 3.08330980e-13 1.37197511e-13 3.63174145e-14 5.61920048e-12
1.00000000e+00 5.81245873e-12 5.23809232e-12 2.64068812e-13 3.10297605e-13 8.49807956e-14 5.24414302e-12
1.14815362e+00 5.78364688e-12 4.88967826e-12 2.17018159e-13 6.76950463e-13 1.77976848e-13 4.89411902e-12
1.31825674e+00 6.11109515e-12 4.56425512e-12 1.75476046e-13 1.37136399e-12 3.22603858e-13 4.56745763e-12
1.51356125e+00 6.90609858e-12 4.26031331e-12 1.39881376e-13 2.50590389e-12 5.18446114e-13 4.26259947e-12
1.73780083e+00 8.20575714e-12 3.97648384e-12 1.12274514e-13 4.11699879e-12 7.26066764e-13 3.97808929e-12
1.99526231e+00 9.89716395e-12 3.71145922e-12 8.65343978e-14 6.09917034e-12 8.83399369e-13 3.71256894e-12
2.29086765e+00 1.16709095e-11 3.46400625e-12 6.41568192e-14 8.14274638e-12 9.41868815e-13 3.46477093e-12
2.63026799e+00 1.32755672e-11 3.23298052e-12 4.62779074e-14 9.99630877e-12 8.85642386e-13 3.23351237e-12
3.01995172e+00 1.45205288e-11 3.01731466e-12 3.19464282e-14 1.14712677e-11 7.53034923e-13 3.01768933e-12
3.46736850e+00 1.53246444e-11 2.81600330e-12 2.10939945e-14 1.24875471e-11 5.81908382e-13 2.81627154e-12
3.98107171e+00 1.55337832e-11 2.62810302e-12 1.34978561e-14 1.28921823e-11 4.06293766e-13 2.62829753e-12
4.57088190e+00 1.52339682e-11 2.45272701e-12 8.31582419e-15 1.27729253e-11 2.60647790e-13 2.45286997e-12
5.24807460e+00 1.43582547e-11 2.02805255e-12 4.45558351e-15 1.23257465e-11 1.58066304e-13 2.02814751e-12
6.02559586e+00 1.29771111e-11 1.33993164e-12 1.82247432e-15 1.16353570e-11 8.99787494e-14 1.33998377e-12
6.70000000e+00 1.19731969e-11 9.74675779e-13 8.89242000e-16 1.09976318e-11 5.55902336e-14 9.74709347e-13
6.92422916e+00 1.16522294e-11 8.83020544e-13 7.07566312e-16 1.07685012e-11 4.75175167e-14 8.83049889e-13
7.15596261e+00 1.14249321e-11 7.99983757e-13 5.54041405e-16 1.06243943e-11 4.04512688e-14 8.00009879e-13
7.39545150e+00 1.13899197e-11 7.24754533e-13 4.21563318e-16 1.06647436e-11 3.44425127e-14 7.24778763e-13
7.64295536e+00 1.19158293e-11 6.56597200e-13 3.06647154e-16 1.12589254e-11 2.98885485e-14 6.56622211e-13
7.89874245e+00 1.32025758e-11 5.94845670e-13 2.00788484e-16 1.26075293e-11 2.58816439e-14 5.94874946e-13
8.16308998e+00 1.48868337e-11 5.38898442e-13 1.25805998e-16 1.43478095e-11 2.19935693e-14 5.38934254e-13
8.43628443e+00 1.69101841e-11 4.88209023e-13 7.05977138e-17 1.64219045e-11 1.76758541e-14 4.88254098e-13
8.71862190e+00 1.81052676e-11 4.42289612e-13 4.00874537e-17 1.76629379e-11 1.36093554e-14 4.42339790e-13
9.01040836e+00 1.91091832e-11 4.00688090e-13 1.83046263e-17 1.87084768e-11 9.00999004e-15 4.00743158e-13
9.31196005e+00 1.97798733e-11 3.63000316e-13 0.00000000e+00 1.94168729e-11 0.00000000e+00 3.63058180e-13
9.62360379e+00 1.95572585e-11 3.28863208e-13 0.00000000e+00 1.92283953e-11 0.00000000e+00 3.28917012e-13
9.94567731e+00 1.88223094e-11 2.97940665e-13 0.00000000e+00 1.85243687e-11 0.00000000e+00 2.97986401e-13
1.02785297e+01 1.79587252e-11 2.69926950e-13 0.00000000e+00 1.76887982e-11 0.00000000e+00 2.69964435e-13
1.06225216e+01 1.69289483e-11 2.44547199e-13 0.00000000e+00 1.66844011e-11 0.00000000e+00 2.44577592e-13
1.09780260e+01 1.57919140e-11 2.21554315e-13 0.00000000e+00 1.55703596e-11 0.00000000e+00 2.21578069e-13
1.13454280e+01 1.46856159e-11 2.00722730e-13 0.00000000e+00 1.44848932e-11 0.00000000e+00 2.00741370e-13
1.17251259e+01 1.36608779e-11 1.81849386e-13 0.00000000e+00 1.34790285e-11 0.00000000e+00 1.81864106e-13
1.21175312e+01 1.26651361e-11 1.64750452e-13 0.00000000e+00 1.25003856e-11 0.00000000e+00 1.64762018e-13
1.25230691e+01 1.17115880e-11 1.49259109e-13 0.00000000e+00 1.15623289e-11 0.00000000e+00 1.49268171e-13
1.29421791e+01 1.08404554e-11 1.35224180e-13 0.00000000e+00 1.07052312e-11 0.00000000e+00 1.35231331e-13
1.33753155e+01 1.00320103e-11 1.22508801e-13 0.00000000e+00 9.90950153e-12 0.00000000e+00 1.22514483e-13
1.38229477e+01 9.50035811e-12 1.10988775e-13 0.00000000e+00 9.38936933e-12 0.00000000e+00 1.10993499e-13
1.42855609e+01 9.18504110e-12 1.00551816e-13 0.00000000e+00 9.08448928e-12 0.00000000e+00 1.00555922e-13
1.47636563e+01 9.29780417e-12 9.10959739e-14 0.00000000e+00 9.20670819e-12 0.00000000e+00 9.10998706e-14
1.52577522e+01 9.49571982e-12 8.25292801e-14 0.00000000e+00 9.41319054e-12 0.00000000e+00 8.25330452e-14
1.57683840e+01 9.75912080e-12 7.47681401e-14 0.00000000e+00 9.68435266e-12 0.00000000e+00 7.47718247e-14
1.62961051e+01 1.00339261e-11 6.77368503e-14 0.00000000e+00 9.96618926e-12 0.00000000e+00 6.77404517e-14
1.68414875e+01 1.02885249e-11 6.13667808e-14 0.00000000e+00 1.02271581e-11 0.00000000e+00 6.13702932e-14
1.74051222e+01 1.04046682e-11 5.55958345e-14 0.00000000e+00 1.03490724e-11 0.00000000e+00 5.55991699e-14
1.79876201e+01 1.04445461e-11 5.03676357e-14 0.00000000e+00 1.03941784e-11 0.00000000e+00 5.03707500e-14
1.85896125e+01 1.02745434e-11 4.56311810e-14 0.00000000e+00 1.02289123e-11 0.00000000e+00 4.56339988e-14
1.92117518e+01 9.99393527e-12 4.13402059e-14 0.00000000e+00 9.95259507e-12 0.00000000e+00 4.13426810e-14
1.98547123e+01 9.59195919e-12 3.74527774e-14 0.00000000e+00 9.55450642e-12 0.00000000e+00 3.74549090e-14
2.05191907e+01 9.15881296e-12 3.39309170e-14 0.00000000e+00 9.12488204e-12 0.00000000e+00 3.39327342e-14
2.12059073e+01 8.69660231e-12 3.07402278e-14 0.00000000e+00 8.66586208e-12 0.00000000e+00 3.07417768e-14
2.19156062e+01 8.28883142e-12 2.78495629e-14 0.00000000e+00 8.26098185e-12 0.00000000e+00 2.78508898e-14
2.26490567e+01 7.88381049e-12 2.52307169e-14 0.00000000e+00 7.85857977e-12 0.00000000e+00 2.52318552e-14
2.34070535e+01 7.48499781e-12 2.28581303e-14 0.00000000e+00 7.46213968e-12 0.00000000e+00 2.28591087e-14
2.41904183e+01 7.11018160e-12 2.07086469e-14 0.00000000e+00 7.08947296e-12 0.00000000e+00 2.07094900e-14
2.50000000e+01 6.73724422e-12 1.87612884e-14 0.00000000e+00 6.71848293e-12 0.00000000e+00 1.87620165e-14
2.75422870e+01 5.68635940e-12 1.40308778e-14 0.00000000e+00 5.67232852e-12 0.00000000e+00 1.40313526e-14
3.16227766e+01 4.30821225e-12 9.27016188e-15 0.00000000e+00 4.29894209e-12 0.00000000e+00 9.27042274e-15
3.63078055e+01 3.08632617e-12 6.12476500e-15 0.00000000e+00 3.08020140e-12 0.00000000e+00 6.12490756e-15
4.16869383e+01 2.06462010e-12 4.04661044e-15 0.00000000e+00 2.06057349e-12 0.00000000e+00 4.04668630e-15
4.78630092e+01 1.29272841e-12 2.67358002e-15 0.00000000e+00 1.29005483e-12 0.00000000e+00 2.67361912e-15
5.49540874e+01 7.68749858e-13 1.76642291e-15 0.00000000e+00 7.66983436e-13 0.00000000e+00 1.76644264e-15
6.30957344e+01 4.39784225e-13 1.16706725e-15 0.00000000e+00 4.38617158e-13 0.00000000e+00 1.16707708e-15
7.24435960e+01 2.44499155e-13 7.71075317e-16 0.00000000e+00 2.43728080e-13 0.00000000e+00 7.71080178e-16
8.31763771e+01 1.33304599e-13 5.09445221e-16 0.00000000e+00 1.32795154e-13 0.00000000e+00 5.09447621e-16
9.54992586e+01 7.17674340e-14 3.36587517e-16 0.00000000e+00 7.14308465e-14 0.00000000e+00 3.36588705e-16
1.09647820e+02 3.83175350e-14 2.22381362e-16 0.00000000e+00 3.80951537e-14 0.00000000e+00 2.22381952e-16
1.25892541e+02 2.05771633e-14 1.46926001e-16 0.00000000e+00 2.04302373e-14 0.00000000e+00 1.46926299e-16
1.44543977e+02 1.10445979e-14 9.70730920e-17 0.00000000e+00 1.09475248e-14 0.00000000e+00 9.70732430e-17
1.65958691e+02 5.66338371e-15 6.41355816e-17 0.00000000e+00 5.59924813e-15 0.00000000e+00 6.41356556e-17
1.90546072e+02 2.91892464e-15 4.23739708e-17 0.00000000e+00 2.87655067e-15 0.00000000e+00 4.23740075e-17
2.18776162e+02 1.50781655e-15 2.79962108e-17 0.00000000e+00 1.47982033e-15 0.00000000e+00 2.79962291e-17
2.51188643e+02 7.78934833e-16 1.84969160e-17 0.00000000e+00 7.60437917e-16 0.00000000e+00 1.84969251e-17
2.88403150e+02 4.01912509e-16 1.22207927e-17 0.00000000e+00 3.89691717e-16 0.00000000e+00 1.22207972e-17
3.31131121e+02 2.07540164e-16 8.07419838e-18 0.00000000e+00 1.99465965e-16 0.00000000e+00 8.07420067e-18
3.80189396e+02 1.07174000e-16 5.33457033e-18 0.00000000e+00 1.01839430e-16 0.00000000e+00 5.33457148e-18
4.36515832e+02 5.54479504e-17 3.52451585e-18 0.00000000e+00 5.19234345e-17 0.00000000e+00 3.52451642e-18
5.01187234e+02 2.87536739e-17 2.32862462e-18 0.00000000e+00 2.64250493e-17 0.00000000e+00 2.32862491e-18
5.75439937e+02 1.49672036e-17 1.53850707e-18 0.00000000e+00 1.34286965e-17 0.00000000e+00 1.53850722e-18
6.60693448e+02 7.83183170e-18 1.01648157e-18 0.00000000e+00 6.81535013e-18 0.00000000e+00 1.01648164e-18
7.58577575e+02 4.12657526e-18 6.71582723e-19 0.00000000e+00 3.45499254e-18 0.00000000e+00 6.71582760e-19
8.70963590e+02 2.19299756e-18 4.43710311e-19 0.00000000e+00 1.74928725e-18 0.00000000e+00 4.43710329e-19
1.00000000e+03 8.84589936e-19 0.00000000e+00 0.00000000e+00 8.84589936e-19 0.00000000e+00 0.00000000e+00
