# column 1: lambda (micron)
# column 2: total flux; lambda*F_lambda (W/m2)
# column 3: direct stellar flux; lambda*F_lambda (W/m2)
# column 4: scattered stellar flux; lambda*F_lambda (W/m2)
# column 5: total dust emission flux; lambda*F_lambda (W/m2)
# column 6: dust emission scattered flux; lambda*F_lambda (W/m2)
# column 7: transparent flux; lambda*F_lambda (W/m2)
1.00000000e-03 1.04634366e-12 1.04634360e-12 5.74048735e-20 0.00000000e+00 0.00000000e+00 1.04634360e-12
1.14815362e-03 1.23502104e-12 1.23502095e-12 9.46340897e-20 0.00000000e+00 0.00000000e+00 1.23502095e-12
1.31825674e-03 1.45772085e-12 1.45772071e-12 1.41439160e-19 0.00000000e+00 0.00000000e+00 1.45772071e-12
1.51356125e-03 1.72057805e-12 1.72057784e-12 2.18387165e-19 0.00000000e+00 0.00000000e+00 1.72057784e-12
1.73780083e-03 2.03083391e-12 2.03083353e-12 3.80725996e-19 0.00000000e+00 0.00000000e+00 2.03083353e-12
1.99526231e-03 2.39703547e-12 2.39703472e-12 7.54820697e-19 0.00000000e+00 0.00000000e+00 2.39703472e-12
2.29086765e-03 2.82927064e-12 2.82926954e-12 1.10017967e-18 0.00000000e+00 0.00000000e+00 2.82926954e-12
2.63026799e-03 3.33944737e-12 3.33944522e-12 2.15076970e-18 0.00000000e+00 0.00000000e+00 3.33944522e-12
3.01995172e-03 3.94161993e-12 3.94161611e-12 3.81671933e-18 0.00000000e+00 0.00000000e+00 3.94161611e-12
3.46736850e-03 4.65237706e-12 4.65237083e-12 6.23035639e-18 0.00000000e+00 0.00000000e+00 4.65237083e-12
3.98107171e-03 5.49129938e-12 5.49128930e-12 1.00797483e-17 0.00000000e+00 0.00000000e+00 5.49128930e-12
4.57088190e-03 6.48150406e-12 6.48148207e-12 2.19834603e-17 0.00000000e+00 0.00000000e+00 6.48148207e-12
5.24807460e-03 7.65026820e-12 7.65022704e-12 4.11581115e-17 0.00000000e+00 0.00000000e+00 7.65022704e-12
6.02559586e-03 9.02979570e-12 9.02972084e-12 7.48575332e-17 0.00000000e+00 0.00000000e+00 9.02972084e-12
6.91830971e-03 1.06580833e-11 1.06579658e-11 1.17424433e-16 0.00000000e+00 0.00000000e+00 1.06579658e-11
7.94328235e-03 1.25800127e-11 1.25798170e-11 1.95672674e-16 0.00000000e+00 0.00000000e+00 1.25798170e-11
9.12010839e-03 1.48485323e-11 1.48482176e-11 3.14666510e-16 0.00000000e+00 0.00000000e+00 1.48482176e-11
1.04712855e-02 1.65838742e-11 1.65834298e-11 4.44417040e-16 0.00000000e+00 0.00000000e+00 1.65834298e-11
1.20226443e-02 1.65840946e-11 1.65834298e-11 6.64786006e-16 0.00000000e+00 0.00000000e+00 1.65834298e-11
1.38038426e-02 1.65843140e-11 1.65834298e-11 8.84240561e-16 1.33869714e-291 3.35579151e-293 1.65834298e-11
1.58489319e-02 1.65855689e-11 1.65834298e-11 2.13913914e-15 8.92826281e-255 2.61295278e-256 1.65834298e-11
1.81970086e-02 1.65862534e-11 1.65834298e-11 2.82365626e-15 9.91547025e-223 2.65478302e-224 1.65834298e-11
2.08929613e-02 1.65860256e-11 1.65834298e-11 2.59586141e-15 7.25508878e-195 2.28597823e-196 1.65834298e-11
2.39883292e-02 1.65870455e-11 1.65834298e-11 3.61570283e-15 1.29619951e-170 4.43217679e-172 1.65834298e-11
2.75422870e-02 1.65891426e-11 1.65834298e-11 5.71278191e-15 1.64962966e-149 5.71563305e-151 1.65834298e-11
3.16227766e-02 1.65887048e-11 1.65834298e-11 5.27501001e-15 3.73037402e-131 1.45373500e-132 1.65834298e-11
3.63078055e-02 1.65909909e-11 1.65834298e-11 7.56109760e-15 3.38316628e-115 1.38845199e-116 1.65834298e-11
4.16869383e-02 1.65928966e-11 1.65834298e-11 9.46684887e-15 2.52482064e-101 1.20351819e-102 1.65834298e-11
4.78630092e-02 1.65972939e-11 1.65834298e-11 1.38640720e-14 2.87087108e-89 1.59209816e-90 1.65834298e-11
5.49540874e-02 1.66021120e-11 1.65834298e-11 1.86822427e-14 8.57929574e-79 5.70163484e-80 1.65834298e-11
6.30957344e-02 1.66095508e-11 1.65834298e-11 2.61210407e-14 1.42218416e-69 1.15419170e-70 1.65834298e-11
7.24435960e-02 1.66090214e-11 1.65834298e-11 2.55916602e-14 1.42311251e-61 1.23115552e-62 1.65834298e-11
8.31763771e-02 1.66094916e-11 1.65834298e-11 2.60618193e-14 1.00643366e-54 8.54806410e-56 1.65834298e-11
9.54992586e-02 1.66105371e-11 1.65834298e-11 2.71072886e-14 8.67229186e-49 7.47374520e-50 1.65834298e-11
1.09647820e-01 1.58644493e-11 1.58370587e-11 2.73905437e-14 1.11295451e-43 9.57451667e-45 1.58370587e-11
1.25892541e-01 1.48024476e-11 1.47800032e-11 2.24444714e-14 2.90479683e-39 2.28952159e-40 1.47800032e-11
1.44543977e-01 1.38131667e-11 1.37935015e-11 1.96651680e-14 1.84698697e-35 1.31777634e-36 1.37935015e-11
1.65958691e-01 1.28938197e-11 1.28728446e-11 2.09750968e-14 2.71286819e-32 1.98262291e-33 1.28728446e-11
1.90546072e-01 1.20377829e-11 1.20136376e-11 2.41453216e-14 1.09349728e-29 9.65246983e-31 1.20136376e-11
2.18776162e-01 1.12380905e-11 1.12117790e-11 2.63115652e-14 1.73542494e-27 1.72023156e-28 1.12117790e-11
2.51188643e-01 1.04947437e-11 1.04634409e-11 3.13027247e-14 2.12855354e-25 2.33839035e-26 1.04634409e-11
2.88403150e-01 9.79229158e-12 9.76505125e-12 2.72403265e-14 1.37762523e-23 1.40749303e-24 9.76505125e-12
3.31131121e-01 9.13610980e-12 9.11327608e-12 2.28337209e-14 4.93759263e-22 4.70645434e-23 9.11327608e-12
3.80189396e-01 8.52742731e-12 8.50500410e-12 2.24232073e-14 1.07120287e-20 9.69744016e-22 8.50500410e-12
4.36515832e-01 7.95723248e-12 7.93733165e-12 1.99006743e-14 1.50611145e-19 1.31925599e-20 7.93733165e-12
5.01187234e-01 7.42609183e-12 7.40754890e-12 1.85414806e-14 1.45213181e-18 1.24730241e-19 7.40754890e-12
5.75439937e-01 6.93042693e-12 6.91312687e-12 1.72899236e-14 1.01421653e-17 8.53197717e-19 6.91312687e-12
6.60693448e-01 6.46715991e-12 6.45170538e-12 1.54007672e-14 5.37571919e-17 4.50774034e-18 6.45170538e-12
7.58577575e-01 6.03562806e-12 6.02108180e-12 1.43187813e-14 2.27480527e-16 1.90958943e-17 6.02108180e-12
8.70963590e-01 5.63370951e-12 5.61920048e-12 1.37139911e-14 7.95036960e-16 6.60678467e-17 5.61920048e-12
1.00000000e+00 5.25901790e-12 5.24414302e-12 1.25286912e-14 2.34619052e-15 1.90452583e-16 5.24414302e-12
1.14815362e+00 4.91090832e-12 4.89411902e-12 1.06544793e-14 6.13482096e-15 4.81741955e-16 4.89411902e-12
1.31825674e+00 4.59048616e-12 4.56745763e-12 8.62371669e-15 1.44048121e-14 1.06298099e-15 4.56745763e-12
1.51356125e+00 4.29953495e-12 4.26259947e-12 6.69554905e-15 3.02399307e-14 2.04078864e-15 4.26259947e-12
1.73780083e+00 4.03960742e-12 3.97808929e-12 5.20980420e-15 5.63083279e-14 3.33672710e-15 3.97808929e-12
1.99526231e+00 3.80973647e-12 3.71256894e-12 3.87782939e-15 9.32897010e-14 4.59137572e-15 3.71256894e-12
2.29086765e+00 3.60616211e-12 3.46477093e-12 2.87857881e-15 1.38512602e-13 5.35178328e-15 3.46477093e-12
2.63026799e+00 3.42193252e-12 3.23351237e-12 1.95542184e-15 1.86464730e-13 5.47781879e-15 3.23351237e-12
3.01995172e+00 3.24844906e-12 3.01768933e-12 1.23739065e-15 2.29522343e-13 4.93574964e-15 3.01768933e-12
3.46736850e+00 3.07846046e-12 2.81627154e-12 8.71855555e-16 2.61317061e-13 4.04031433e-15 2.81627154e-12
3.98107171e+00 2.90622160e-12 2.62829753e-12 5.38595864e-16 2.77385475e-13 2.94565316e-15 2.62829753e-12
4.57088190e+00 2.73065034e-12 2.45286997e-12 3.41092620e-16 2.77439271e-13 1.98524882e-15 2.45286997e-12
5.24807460e+00 2.29287669e-12 2.02814751e-12 1.80012976e-16 2.64549163e-13 1.23554424e-15 2.02814751e-12
6.02559586e+00 1.58459608e-12 1.33998377e-12 7.78369411e-17 2.44534473e-13 7.16894968e-16 1.33998377e-12
6.70000000e+00 1.20094512e-12 9.74709347e-13 3.64115465e-17 2.26199359e-13 4.45983170e-16 9.74709347e-13
6.92422916e+00 1.10295068e-12 8.83049889e-13 2.93838232e-17 2.19871408e-13 3.84030990e-16 8.83049889e-13
7.15596261e+00 1.01582223e-12 8.00009879e-13 2.32153168e-17 2.15789141e-13 3.22652884e-16 8.00009879e-13
7.39545150e+00 9.42187937e-13 7.24778763e-13 1.85601855e-17 2.17390614e-13 2.73452869e-16 7.24778763e-13
7.64295536e+00 8.91346610e-13 6.56622211e-13 1.30621644e-17 2.34711338e-13 2.36554158e-16 6.56622211e-13
7.89874245e+00 8.72325766e-13 5.94874946e-13 7.99752861e-18 2.77442823e-13 2.03593970e-16 5.94874946e-13
8.16308998e+00 8.79876202e-13 5.38934254e-13 5.82194847e-18 3.40936126e-13 1.75525386e-16 5.38934254e-13
8.43628443e+00 9.19224843e-13 4.88254098e-13 3.17049620e-18 4.30967574e-13 1.42243822e-16 4.88254098e-13
8.71862190e+00 9.40400603e-13 4.42339790e-13 2.09211272e-18 4.98058721e-13 1.13195115e-16 4.42339790e-13
9.01040836e+00 9.69113792e-13 4.00743158e-13 1.35702722e-18 5.68369277e-13 8.13171177e-17 4.00743158e-13
9.31196005e+00 9.88715871e-13 3.63058180e-13 0.00000000e+00 6.25657691e-13 0.00000000e+00 3.63058180e-13
9.62360379e+00 9.54409735e-13 3.28917012e-13 0.00000000e+00 6.25492723e-13 0.00000000e+00 3.28917012e-13
9.94567731e+00 8.80602354e-13 2.97986401e-13 0.00000000e+00 5.82615953e-13 0.00000000e+00 2.97986401e-13
1.02785297e+01 7.98940178e-13 2.69964435e-13 0.00000000e+00 5.28975743e-13 0.00000000e+00 2.69964435e-13
1.06225216e+01 7.20211607e-13 2.44577592e-13 0.00000000e+00 4.75634015e-13 0.00000000e+00 2.44577592e-13
1.09780260e+01 6.37459385e-13 2.21578069e-13 0.00000000e+00 4.15881315e-13 0.00000000e+00 2.21578069e-13
1.13454280e+01 5.66497213e-13 2.00741370e-13 0.00000000e+00 3.65755843e-13 0.00000000e+00 2.00741370e-13
1.17251259e+01 5.03832883e-13 1.81864106e-13 0.00000000e+00 3.21968777e-13 0.00000000e+00 1.81864106e-13
1.21175312e+01 4.48350319e-13 1.64762018e-13 0.00000000e+00 2.83588301e-13 0.00000000e+00 1.64762018e-13
1.25230691e+01 3.98901969e-13 1.49268171e-13 0.00000000e+00 2.49633797e-13 0.00000000e+00 1.49268171e-13
1.29421791e+01 3.56625060e-13 1.35231331e-13 0.00000000e+00 2.21393729e-13 0.00000000e+00 1.35231331e-13
1.33753155e+01 3.20008894e-13 1.22514483e-13 0.00000000e+00 1.97494411e-13 0.00000000e+00 1.22514483e-13
1.38229477e+01 2.93494680e-13 1.10993499e-13 0.00000000e+00 1.82501181e-13 0.00000000e+00 1.10993499e-13
1.42855609e+01 2.74637582e-13 1.00555922e-13 0.00000000e+00 1.74081660e-13 0.00000000e+00 1.00555922e-13
1.47636563e+01 2.68158170e-13 9.10998706e-14 0.00000000e+00 1.77058299e-13 0.00000000e+00 9.10998706e-14
1.52577522e+01 2.65212062e-13 8.25330452e-14 0.00000000e+00 1.82679017e-13 0.00000000e+00 8.25330452e-14
1.57683840e+01 2.65083220e-13 7.47718247e-14 0.00000000e+00 1.90311395e-13 0.00000000e+00 7.47718247e-14
1.62961051e+01 2.65960116e-13 6.77404517e-14 0.00000000e+00 1.98219664e-13 0.00000000e+00 6.77404517e-14
1.68414875e+01 2.67557472e-13 6.13702932e-14 0.00000000e+00 2.06187179e-13 0.00000000e+00 6.13702932e-14
1.74051222e+01 2.66610135e-13 5.55991699e-14 0.00000000e+00 2.11010965e-13 0.00000000e+00 5.55991699e-14
1.79876201e+01 2.63104033e-13 5.03707500e-14 0.00000000e+00 2.12733283e-13 0.00000000e+00 5.03707500e-14
1.85896125e+01 2.56066765e-13 4.56339988e-14 0.00000000e+00 2.10432767e-13 0.00000000e+00 4.56339988e-14
1.92117518e+01 2.45261144e-13 4.13426810e-14 0.00000000e+00 2.03918463e-13 0.00000000e+00 4.13426810e-14
1.98547123e+01 2.32630630e-13 3.74549090e-14 0.00000000e+00 1.95175721e-13 0.00000000e+00 3.74549090e-14
2.05191907e+01 2.19213841e-13 3.39327342e-14 0.00000000e+00 1.85281107e-13 0.00000000e+00 3.39327342e-14
2.12059073e+01 2.06909600e-13 3.07417768e-14 0.00000000e+00 1.76167823e-13 0.00000000e+00 3.07417768e-14
2.19156062e+01 1.96379199e-13 2.78508898e-14 0.00000000e+00 1.68528309e-13 0.00000000e+00 2.78508898e-14
2.26490567e+01 1.86664778e-13 2.52318552e-14 0.00000000e+00 1.61432922e-13 0.00000000e+00 2.52318552e-14
2.34070535e+01 1.77751925e-13 2.28591087e-14 0.00000000e+00 1.54892816e-13 0.00000000e+00 2.28591087e-14
2.41904183e+01 1.69796344e-13 2.07094900e-14 0.00000000e+00 1.49086854e-13 0.00000000e+00 2.07094900e-14
2.50000000e+01 1.62206633e-13 1.87620165e-14 0.00000000e+00 1.43444616e-13 0.00000000e+00 1.87620165e-14
2.75422870e+01 1.42628170e-13 1.40313526e-14 0.00000000e+00 1.28596817e-13 0.00000000e+00 1.40313526e-14
3.16227766e+01 1.18829082e-13 9.27042274e-15 0.00000000e+00 1.09558660e-13 0.00000000e+00 9.27042274e-15
3.63078055e+01 9.64311939e-14 6.12490756e-15 0.00000000e+00 9.03062863e-14 0.00000000e+00 6.12490756e-15
4.16869383e+01 7.45732053e-14 4.04668630e-15 0.00000000e+00 7.05265190e-14 0.00000000e+00 4.04668630e-15
4.78630092e+01 5.46653854e-14 2.67361912e-15 0.00000000e+00 5.19917662e-14 0.00000000e+00 2.67361912e-15
5.49540874e+01 3.81359264e-14 1.76644264e-15 0.00000000e+00 3.63694838e-14 0.00000000e+00 1.76644264e-15
6.30957344e+01 2.54714044e-14 1.16707708e-15 0.00000000e+00 2.43043273e-14 0.00000000e+00 1.16707708e-15
7.24435960e+01 1.63841865e-14 7.71080178e-16 0.00000000e+00 1.56131063e-14 0.00000000e+00 7.71080178e-16
8.31763771e+01 1.02131865e-14 5.09447621e-16 0.00000000e+00 9.70373883e-15 0.00000000e+00 5.09447621e-16
9.54992586e+01 6.20760631e-15 3.36588705e-16 0.00000000e+00 5.87101760e-15 0.00000000e+00 3.36588705e-16
1.09647820e+02 3.69342838e-15 2.22381952e-16 0.00000000e+00 3.47104643e-15 0.00000000e+00 2.22381952e-16
1.25892541e+02 2.18163875e-15 1.46926299e-16 0.00000000e+00 2.03471245e-15 0.00000000e+00 1.46926299e-16
1.44543977e+02 1.27411872e-15 9.70732430e-17 0.00000000e+00 1.17704547e-15 0.00000000e+00 9.70732430e-17
1.65958691e+02 7.09221538e-16 6.41356556e-17 0.00000000e+00 6.45085882e-16 0.00000000e+00 6.41356556e-17
1.90546072e+02 3.93914240e-16 4.23740075e-17 0.00000000e+00 3.51540232e-16 0.00000000e+00 4.23740075e-17
2.18776162e+02 2.18197928e-16 2.79962291e-17 0.00000000e+00 1.90201699e-16 0.00000000e+00 2.79962291e-17
2.51188643e+02 1.20553584e-16 1.84969251e-17 0.00000000e+00 1.02056659e-16 0.00000000e+00 1.84969251e-17
2.88403150e+02 6.64953809e-17 1.22207972e-17 0.00000000e+00 5.42745837e-17 0.00000000e+00 1.22207972e-17
3.31131121e+02 3.67539993e-17 8.07420067e-18 0.00000000e+00 2.86797986e-17 0.00000000e+00 8.07420067e-18
3.80189396e+02 2.03837785e-17 5.33457148e-18 0.00000000e+00 1.50492070e-17 0.00000000e+00 5.33457148e-18
4.36515832e+02 1.13800709e-17 3.52451642e-18 0.00000000e+00 7.85555443e-18 0.00000000e+00 3.52451642e-18
5.01187234e+02 6.40832129e-18 2.32862491e-18 0.00000000e+00 4.07969639e-18 0.00000000e+00 2.32862491e-18
5.75439937e+02 3.64820546e-18 1.53850722e-18 0.00000000e+00 2.10969824e-18 0.00000000e+00 1.53850722e-18
6.60693448e+02 2.10342738e-18 1.01648164e-18 0.00000000e+00 1.08694574e-18 0.00000000e+00 1.01648164e-18
7.58577575e+02 1.22980090e-18 6.71582760e-19 0.00000000e+00 5.58218139e-19 0.00000000e+00 6.71582760e-19
8.70963590e+02 7.29525262e-19 4.43710329e-19 0.00000000e+00 2.85814933e-19 0.00000000e+00 4.43710329e-19
1.00000000e+03 1.45940236e-19 0.00000000e+00 0.00000000e+00 1.45940236e-19 0.00000000e+00 0.00000000e+00
