# column 1: lambda (micron)
# column 2: total flux; lambda*F_lambda (W/m2)
# column 3: direct stellar flux; lambda*F_lambda (W/m2)
# column 4: scattered stellar flux; lambda*F_lambda (W/m2)
# column 5: total dust emission flux; lambda*F_lambda (W/m2)
# column 6: dust emission scattered flux; lambda*F_lambda (W/m2)
# column 7: transparent flux; lambda*F_lambda (W/m2)
1.00000000e-03 5.25637654e-13 5.25636674e-13 9.80139217e-19 0.00000000e+00 0.00000000e+00 5.25636674e-13
1.14815362e-03 6.20421293e-13 6.20419813e-13 1.48046990e-18 0.00000000e+00 0.00000000e+00 6.20419813e-13
1.31825674e-03 7.32296558e-13 7.32294308e-13 2.25012068e-18 0.00000000e+00 0.00000000e+00 7.32294308e-13
1.51356125e-03 8.64345322e-13 8.64342083e-13 3.23882536e-18 0.00000000e+00 0.00000000e+00 8.64342083e-13
1.73780083e-03 1.02020698e-12 1.02020080e-12 6.18469292e-18 0.00000000e+00 0.00000000e+00 1.02020080e-12
1.99526231e-03 1.20417455e-12 1.20416405e-12 1.04970857e-17 0.00000000e+00 0.00000000e+00 1.20416405e-12
2.29086765e-03 1.42131626e-12 1.42129968e-12 1.65812933e-17 0.00000000e+00 0.00000000e+00 1.42129968e-12
2.63026799e-03 1.67762177e-12 1.67758934e-12 3.24319561e-17 0.00000000e+00 0.00000000e+00 1.67758934e-12
3.01995172e-03 1.98014877e-12 1.98009332e-12 5.54543612e-17 0.00000000e+00 0.00000000e+00 1.98009332e-12
3.46736850e-03 2.33723346e-12 2.33714500e-12 8.84554937e-17 0.00000000e+00 0.00000000e+00 2.33714500e-12
3.98107171e-03 2.75872797e-12 2.75858048e-12 1.47494577e-16 0.00000000e+00 0.00000000e+00 2.75858048e-12
4.57088190e-03 3.25634988e-12 3.25600946e-12 3.40418706e-16 0.00000000e+00 0.00000000e+00 3.25600946e-12
5.24807460e-03 3.84371605e-12 3.84313516e-12 5.80887321e-16 0.00000000e+00 0.00000000e+00 3.84313516e-12
6.02559586e-03 4.53717480e-12 4.53613173e-12 1.04306518e-15 0.00000000e+00 0.00000000e+00 4.53613173e-12
6.91830971e-03 5.35564016e-12 5.35408989e-12 1.55026636e-15 0.00000000e+00 0.00000000e+00 5.35408989e-12
7.94328235e-03 6.32215781e-12 6.31954278e-12 2.61502429e-15 2.44318781e-303 1.92406121e-305 6.31954278e-12
9.12010839e-03 7.46333227e-12 7.45908676e-12 4.24551195e-15 1.22423579e-264 2.31912486e-266 7.45908676e-12
1.04712855e-02 8.33725647e-12 8.33078048e-12 6.47599579e-15 5.96325086e-231 3.17426922e-232 8.33078048e-12
1.20226443e-02 8.33930878e-12 8.33078048e-12 8.52830865e-15 9.81001628e-202 1.11212432e-203 8.33078048e-12
1.38038426e-02 8.34715752e-12 8.33078048e-12 1.63770474e-14 2.91050875e-176 4.60507385e-178 8.33078048e-12
1.58489319e-02 8.35905043e-12 8.33078048e-12 2.82699531e-14 4.25288250e-154 1.01305153e-155 8.33078048e-12
1.81970086e-02 8.35508165e-12 8.33078048e-12 2.43011736e-14 8.07691017e-135 2.14470197e-136 8.33078048e-12
2.08929613e-02 8.36651094e-12 8.33078048e-12 3.57304649e-14 4.45490873e-118 1.28419022e-119 8.33078048e-12
2.39883292e-02 8.37588834e-12 8.33078048e-12 4.51078606e-14 1.64353271e-103 5.69683625e-105 8.33078048e-12
2.75422870e-02 8.38811190e-12 8.33078048e-12 5.73314231e-14 7.67882725e-91 3.08372377e-92 8.33078048e-12
3.16227766e-02 8.39734342e-12 8.33078048e-12 6.65629444e-14 7.73807587e-80 3.17419693e-81 8.33078048e-12
3.63078055e-02 8.40984398e-12 8.33078048e-12 7.90635034e-14 2.76411802e-70 1.16098933e-71 8.33078048e-12
4.16869383e-02 8.43111177e-12 8.33078048e-12 1.00331297e-13 5.42112342e-62 2.79507794e-63 8.33078048e-12
4.78630092e-02 8.44560693e-12 8.33078048e-12 1.14826453e-13 8.38389055e-55 4.98738632e-56 8.33078048e-12
5.49540874e-02 8.45656614e-12 8.33078048e-12 1.25785666e-13 1.41838383e-48 9.02599273e-50 8.33078048e-12
6.30957344e-02 8.46308178e-12 8.33078048e-12 1.32301306e-13 4.61745994e-43 3.05713581e-44 8.33078048e-12
7.24435960e-02 8.44945394e-12 8.33078048e-12 1.18673467e-13 2.68626590e-38 1.61318268e-39 8.33078048e-12
8.31763771e-02 8.44911972e-12 8.33078048e-12 1.18339241e-13 2.79031442e-34 1.64748361e-35 8.33078048e-12
9.54992586e-02 8.45316267e-12 8.33078048e-12 1.22382192e-13 7.95471778e-31 4.80212377e-32 8.33078048e-12
1.09647820e-01 8.07658247e-12 7.95583672e-12 1.20745750e-13 6.86809173e-28 4.56781902e-29 7.95583672e-12
1.25892541e-01 7.54341619e-12 7.42481883e-12 1.18597357e-13 2.26033709e-25 1.54087010e-26 7.42481883e-12
1.44543977e-01 7.03804656e-12 6.92924411e-12 1.08802451e-13 3.12065863e-23 2.10290951e-24 6.92924411e-12
1.65958691e-01 6.58022169e-12 6.46674687e-12 1.13474824e-13 1.60046690e-21 1.22168869e-22 6.46674687e-12
1.90546072e-01 6.15274035e-12 6.03511933e-12 1.17620987e-13 3.39004488e-20 2.97535953e-21 6.03511933e-12
2.18776162e-01 5.74394787e-12 5.63230107e-12 1.11646404e-13 4.00236543e-19 3.44985687e-20 5.63230107e-12
2.51188643e-01 5.38154669e-12 5.25636919e-12 1.25172560e-13 4.94104635e-18 5.39957326e-19 5.25636919e-12
2.88403150e-01 5.02220089e-12 4.90552916e-12 1.16630297e-13 4.14371202e-17 4.50334065e-18 4.90552916e-12
3.31131121e-01 4.68523089e-12 4.57810618e-12 1.06885581e-13 2.39121678e-16 2.56420891e-17 4.57810618e-12
3.80189396e-01 4.37177347e-12 4.27253728e-12 9.82331289e-14 1.00306034e-15 1.07473427e-16 4.27253728e-12
4.36515832e-01 4.08128924e-12 3.98736380e-12 9.07347213e-14 3.19072285e-15 3.41454388e-16 3.98736380e-12
5.01187234e-01 3.81275121e-12 3.72122441e-12 8.35253157e-14 8.00147952e-15 8.46551811e-16 3.72122441e-12
5.75439937e-01 3.56571516e-12 3.47284869e-12 7.62311940e-14 1.66352818e-14 1.78242672e-15 3.47284869e-12
6.60693448e-01 3.34019623e-12 3.24105097e-12 6.93998780e-14 2.97453812e-14 3.22457242e-15 3.24105097e-12
7.58577575e-01 3.13628869e-12 3.02472476e-12 6.30651705e-14 4.84987566e-14 5.45833555e-15 3.02472476e-12
8.70963590e-01 2.95227093e-12 2.82283739e-12 5.44914485e-14 7.49420870e-14 8.73888379e-15 2.82283739e-12
1.00000000e+00 2.79678090e-12 2.63442513e-12 4.82647040e-14 1.14091065e-13 1.40589159e-14 2.63442513e-12
1.14815362e+00 2.67671388e-12 2.45858859e-12 3.96895922e-14 1.78435697e-13 2.20558422e-14 2.45858859e-12
1.31825674e+00 2.61260984e-12 2.29448837e-12 3.29232715e-14 2.85198195e-13 3.37398986e-14 2.29448837e-12
1.51356125e+00 2.61627368e-12 2.14134114e-12 2.56944428e-14 4.49238099e-13 4.83825128e-14 2.14134114e-12
1.73780083e+00 2.68883050e-12 1.99841583e-12 2.00559467e-14 6.70358726e-13 6.25146898e-14 1.99841583e-12
1.99526231e+00 2.80661586e-12 1.86503017e-12 1.52996446e-14 9.26286047e-13 7.06839392e-14 1.86503017e-12
2.29086765e+00 2.92654371e-12 1.74054743e-12 1.11478036e-14 1.17484848e-12 7.08933572e-14 1.74054743e-12
2.63026799e+00 3.01663165e-12 1.62437337e-12 8.09307375e-15 1.38416520e-12 6.46696227e-14 1.62437337e-12
3.01995172e+00 3.04006723e-12 1.51595343e-12 5.59335593e-15 1.51852044e-12 5.33266207e-14 1.51595343e-12
3.46736850e+00 2.99393186e-12 1.41477006e-12 3.75742496e-15 1.57540438e-12 4.05485448e-14 1.41477006e-12
3.98107171e+00 2.87240476e-12 1.32034025e-12 2.47961359e-15 1.54958490e-12 2.83682393e-14 1.32034025e-12
4.57088190e+00 2.69859421e-12 1.23221321e-12 1.50666756e-15 1.46487433e-12 1.83685941e-14 1.23221321e-12
5.24807460e+00 2.36754160e-12 1.01885146e-12 8.24558175e-16 1.34786558e-12 1.11595074e-14 1.01885146e-12
6.02559586e+00 1.89429315e-12 6.73148485e-13 3.45564719e-16 1.22079910e-12 6.39154905e-15 6.73148485e-13
6.70000000e+00 1.61005255e-12 4.89650796e-13 1.66090733e-16 1.12023567e-12 3.95699323e-15 4.89650796e-13
6.92422916e+00 1.53230023e-12 4.43605145e-13 1.34129609e-16 1.08856096e-12 3.40494548e-15 4.43605145e-13
7.15596261e+00 1.46998630e-12 4.01889522e-13 1.05608507e-16 1.06799117e-12 2.90811686e-15 4.01889522e-13
7.39545150e+00 1.43591611e-12 3.64096743e-13 8.05073696e-17 1.07173886e-12 2.47103723e-15 3.64096743e-13
7.64295536e+00 1.47858663e-12 3.29857910e-13 5.78106856e-17 1.14867091e-12 2.11649249e-15 3.29857910e-13
7.89874245e+00 1.63193921e-12 2.98838820e-13 3.89670749e-17 1.33306142e-12 1.82919007e-15 2.98838820e-13
8.16308998e+00 1.86664769e-12 2.70736695e-13 2.50063925e-17 1.59588599e-12 1.56363153e-15 2.70736695e-13
8.43628443e+00 2.18524025e-12 2.45277229e-13 1.48119048e-17 1.93994820e-12 1.26268076e-15 2.45277229e-13
8.71862190e+00 2.38633303e-12 2.22211915e-13 9.57316375e-18 2.16411154e-12 1.00795542e-15 2.22211915e-13
9.01040836e+00 2.58917424e-12 2.01315610e-13 5.71129041e-18 2.38785292e-12 7.27686289e-16 2.01315610e-13
9.31196005e+00 2.73100371e-12 1.82384346e-13 0.00000000e+00 2.54861936e-12 0.00000000e+00 1.82384346e-13
9.62360379e+00 2.67650694e-12 1.65233336e-13 0.00000000e+00 2.51127360e-12 0.00000000e+00 1.65233336e-13
9.94567731e+00 2.50724156e-12 1.49695167e-13 0.00000000e+00 2.35754639e-12 0.00000000e+00 1.49695167e-13
1.02785297e+01 2.29363623e-12 1.35618173e-13 0.00000000e+00 2.15801805e-12 0.00000000e+00 1.35618173e-13
1.06225216e+01 2.08801447e-12 1.22864947e-13 0.00000000e+00 1.96514952e-12 0.00000000e+00 1.22864947e-13
1.09780260e+01 1.86114477e-12 1.11311006e-13 0.00000000e+00 1.74983376e-12 0.00000000e+00 1.11311006e-13
1.13454280e+01 1.67204812e-12 1.00843571e-13 0.00000000e+00 1.57120455e-12 0.00000000e+00 1.00843571e-13
1.17251259e+01 1.50418386e-12 9.13604705e-14 0.00000000e+00 1.41282339e-12 0.00000000e+00 9.13604705e-14
1.21175312e+01 1.35075223e-12 8.27691389e-14 0.00000000e+00 1.26798309e-12 0.00000000e+00 8.27691389e-14
1.25230691e+01 1.21334850e-12 7.49857166e-14 0.00000000e+00 1.13836278e-12 0.00000000e+00 7.49857166e-14
1.29421791e+01 1.09506108e-12 6.79342298e-14 0.00000000e+00 1.02712685e-12 0.00000000e+00 6.79342298e-14
1.33753155e+01 9.92871130e-13 6.15458488e-14 0.00000000e+00 9.31325281e-13 0.00000000e+00 6.15458488e-14
1.38229477e+01 9.24403132e-13 5.57582167e-14 0.00000000e+00 8.68644915e-13 0.00000000e+00 5.57582167e-14
1.42855609e+01 8.82311348e-13 5.05148403e-14 0.00000000e+00 8.31796508e-13 0.00000000e+00 5.05148403e-14
1.47636563e+01 8.87977889e-13 4.57645392e-14 0.00000000e+00 8.42213350e-13 0.00000000e+00 4.57645392e-14
1.52577522e+01 9.00960688e-13 4.14609457e-14 0.00000000e+00 8.59499742e-13 0.00000000e+00 4.14609457e-14
1.57683840e+01 9.23673764e-13 3.75620523e-14 0.00000000e+00 8.86111712e-13 0.00000000e+00 3.75620523e-14
1.62961051e+01 9.47959877e-13 3.40298020e-14 0.00000000e+00 9.13930075e-13 0.00000000e+00 3.40298020e-14
1.68414875e+01 9.70687894e-13 3.08297166e-14 0.00000000e+00 9.39858177e-13 0.00000000e+00 3.08297166e-14
1.74051222e+01 9.78460028e-13 2.79305599e-14 0.00000000e+00 9.50529468e-13 0.00000000e+00 2.79305599e-14
1.79876201e+01 9.79167562e-13 2.53040334e-14 0.00000000e+00 9.53863528e-13 0.00000000e+00 2.53040334e-14
1.85896125e+01 9.61265066e-13 2.29244994e-14 0.00000000e+00 9.38340567e-13 0.00000000e+00 2.29244994e-14
1.92117518e+01 9.31535444e-13 2.07687314e-14 0.00000000e+00 9.10766713e-13 0.00000000e+00 2.07687314e-14
1.98547123e+01 8.91901101e-13 1.88156870e-14 0.00000000e+00 8.73085414e-13 0.00000000e+00 1.88156870e-14
2.05191907e+01 8.49305271e-13 1.70463024e-14 0.00000000e+00 8.32258968e-13 0.00000000e+00 1.70463024e-14
2.12059073e+01 8.05284004e-13 1.54433068e-14 0.00000000e+00 7.89840698e-13 0.00000000e+00 1.54433068e-14
2.19156062e+01 7.68993259e-13 1.39910532e-14 0.00000000e+00 7.55002206e-13 0.00000000e+00 1.39910532e-14
2.26490567e+01 7.32837211e-13 1.26753663e-14 0.00000000e+00 7.20161845e-13 0.00000000e+00 1.26753663e-14
2.34070535e+01 6.99561936e-13 1.14834036e-14 0.00000000e+00 6.88078532e-13 0.00000000e+00 1.14834036e-14
2.41904183e+01 6.67077272e-13 1.04035303e-14 0.00000000e+00 6.56673742e-13 0.00000000e+00 1.04035303e-14
2.50000000e+01 6.36801548e-13 9.42520591e-15 0.00000000e+00 6.27376342e-13 0.00000000e+00 9.42520591e-15
2.75422870e+01 5.52273004e-13 7.04872996e-15 0.00000000e+00 5.45224274e-13 0.00000000e+00 7.04872996e-15
3.16227766e+01 4.39213937e-13 4.65704970e-15 0.00000000e+00 4.34556887e-13 0.00000000e+00 4.65704970e-15
3.63078055e+01 3.32788810e-13 3.07688223e-15 0.00000000e+00 3.29711928e-13 0.00000000e+00 3.07688223e-15
4.16869383e+01 2.35795475e-13 2.03287593e-15 0.00000000e+00 2.33762599e-13 0.00000000e+00 2.03287593e-15
4.78630092e+01 1.56491936e-13 1.34310781e-15 0.00000000e+00 1.55148829e-13 0.00000000e+00 1.34310781e-15
5.49540874e+01 9.84749514e-14 8.87382527e-16 0.00000000e+00 9.75875688e-14 0.00000000e+00 8.87382527e-16
6.30957344e+01 5.95151527e-14 5.86287821e-16 0.00000000e+00 5.89288648e-14 0.00000000e+00 5.86287821e-16
7.24435960e+01 3.48023129e-14 3.87356522e-16 0.00000000e+00 3.44149563e-14 0.00000000e+00 3.87356522e-16
8.31763771e+01 1.98878489e-14 2.55923916e-16 0.00000000e+00 1.96319250e-14 0.00000000e+00 2.55923916e-16
9.54992586e+01 1.11762831e-14 1.69087255e-16 0.00000000e+00 1.10071958e-14 0.00000000e+00 1.69087255e-16
1.09647820e+02 6.20253400e-15 1.11714841e-16 0.00000000e+00 6.09081916e-15 0.00000000e+00 1.11714841e-16
1.25892541e+02 3.44795533e-15 7.38092637e-17 0.00000000e+00 3.37414606e-15 0.00000000e+00 7.38092637e-17
1.44543977e+02 1.90866584e-15 4.87652969e-17 0.00000000e+00 1.85990054e-15 0.00000000e+00 4.87652969e-17
1.65958691e+02 1.00779286e-15 3.22189122e-17 0.00000000e+00 9.75573943e-16 0.00000000e+00 3.22189122e-17
1.90546072e+02 5.33643832e-16 2.12868242e-17 0.00000000e+00 5.12357007e-16 0.00000000e+00 2.12868242e-17
2.18776162e+02 2.82709052e-16 1.40640653e-17 0.00000000e+00 2.68644987e-16 0.00000000e+00 1.40640653e-17
2.51188643e+02 1.49636766e-16 9.29203577e-18 0.00000000e+00 1.40344730e-16 0.00000000e+00 9.29203577e-18
2.88403150e+02 7.90962633e-17 6.13918715e-18 0.00000000e+00 7.29570762e-17 0.00000000e+00 6.13918715e-18
3.31131121e+02 4.18655084e-17 4.05612073e-18 0.00000000e+00 3.78093876e-17 0.00000000e+00 4.05612073e-18
3.80189396e+02 2.21922754e-17 2.67985239e-18 0.00000000e+00 1.95124230e-17 0.00000000e+00 2.67985239e-18
4.36515832e+02 1.18119681e-17 1.77056092e-18 0.00000000e+00 1.00414072e-17 0.00000000e+00 1.77056092e-18
5.01187234e+02 6.32142043e-18 1.16979800e-18 0.00000000e+00 5.15162244e-18 0.00000000e+00 1.16979800e-18
5.75439937e+02 3.40913377e-18 7.72877871e-19 0.00000000e+00 2.63625590e-18 0.00000000e+00 7.72877871e-19
6.60693448e+02 1.85670779e-18 5.10635346e-19 0.00000000e+00 1.34607244e-18 0.00000000e+00 5.10635346e-19
7.58577575e+02 1.02333805e-18 3.37373427e-19 0.00000000e+00 6.85964625e-19 0.00000000e+00 3.37373427e-19
8.70963590e+02 5.71789191e-19 2.22900413e-19 0.00000000e+00 3.48888778e-19 0.00000000e+00 2.22900413e-19
1.00000000e+03 1.77124755e-19 0.00000000e+00 0.00000000e+00 1.77124755e-19 0.00000000e+00 0.00000000e+00
