# column 1: lambda (micron)
# column 2: total flux; lambda*F_lambda (W/m2)
# column 3: direct stellar flux; lambda*F_lambda (W/m2)
# column 4: scattered stellar flux; lambda*F_lambda (W/m2)
# column 5: total dust emission flux; lambda*F_lambda (W/m2)
# column 6: dust emission scattered flux; lambda*F_lambda (W/m2)
# column 7: transparent flux; lambda*F_lambda (W/m2)
1.00000000e-03 1.04634498e-12 1.04634360e-12 1.37997572e-18 0.00000000e+00 0.00000000e+00 1.04634360e-12
1.14815362e-03 1.23502252e-12 1.23502095e-12 1.56778400e-18 0.00000000e+00 0.00000000e+00 1.23502095e-12
1.31825674e-03 1.45772473e-12 1.45772071e-12 4.02260142e-18 0.00000000e+00 0.00000000e+00 1.45772071e-12
1.51356125e-03 1.72060067e-12 1.72057784e-12 2.28382062e-17 0.00000000e+00 0.00000000e+00 1.72057784e-12
1.73780083e-03 2.03084012e-12 2.03083353e-12 6.59260009e-18 0.00000000e+00 0.00000000e+00 2.03083353e-12
1.99526231e-03 2.39705258e-12 2.39703472e-12 1.78636642e-17 0.00000000e+00 0.00000000e+00 2.39703472e-12
2.29086765e-03 2.83002319e-12 2.82926954e-12 7.53649472e-16 0.00000000e+00 0.00000000e+00 2.82926954e-12
2.63026799e-03 3.36171998e-12 3.33944522e-12 2.22747576e-14 0.00000000e+00 0.00000000e+00 3.33944522e-12
3.01995172e-03 3.94316860e-12 3.94161611e-12 1.55249089e-15 0.00000000e+00 0.00000000e+00 3.94161611e-12
3.46736850e-03 4.65288805e-12 4.65237083e-12 5.17216881e-16 0.00000000e+00 0.00000000e+00 4.65237083e-12
3.98107171e-03 5.49387112e-12 5.49128930e-12 2.58182339e-15 0.00000000e+00 0.00000000e+00 5.49128930e-12
4.57088190e-03 6.48329490e-12 6.48148207e-12 1.81283022e-15 0.00000000e+00 0.00000000e+00 6.48148207e-12
5.24807460e-03 7.65315500e-12 7.65022704e-12 2.92796459e-15 0.00000000e+00 0.00000000e+00 7.65022704e-12
6.02559586e-03 9.03287961e-12 9.02972084e-12 3.15876961e-15 0.00000000e+00 0.00000000e+00 9.02972084e-12
6.91830971e-03 1.06659164e-11 1.06579658e-11 7.95053474e-15 0.00000000e+00 0.00000000e+00 1.06579658e-11
7.94328235e-03 1.26017179e-11 1.25798170e-11 2.19009027e-14 1.65181397e-303 2.55326594e-306 1.25798170e-11
9.12010839e-03 1.48744541e-11 1.48482176e-11 2.62364286e-14 7.62004615e-265 2.47556724e-267 1.48482176e-11
1.04712855e-02 1.66177574e-11 1.65834298e-11 3.43275710e-14 3.36114880e-231 1.05051028e-233 1.65834298e-11
1.20226443e-02 1.66037539e-11 1.65834298e-11 2.03241226e-14 5.48705533e-202 4.13528962e-204 1.65834298e-11
1.38038426e-02 1.66105925e-11 1.65834298e-11 2.71627077e-14 1.54043013e-176 8.61199693e-179 1.65834298e-11
1.58489319e-02 1.66148023e-11 1.65834298e-11 3.13724898e-14 2.15006951e-154 2.01488914e-156 1.65834298e-11
1.81970086e-02 1.66183787e-11 1.65834298e-11 3.49488777e-14 3.92706865e-135 3.61710154e-137 1.65834298e-11
2.08929613e-02 1.66224022e-11 1.65834298e-11 3.89724283e-14 2.09620183e-118 2.24002686e-120 1.65834298e-11
2.39883292e-02 1.66260117e-11 1.65834298e-11 4.25819088e-14 7.51138843e-104 1.11000066e-105 1.65834298e-11
2.75422870e-02 1.66296283e-11 1.65834298e-11 4.61985242e-14 3.42464424e-91 6.45301589e-93 1.65834298e-11
3.16227766e-02 1.66355361e-11 1.65834298e-11 5.21063204e-14 3.39185762e-80 7.67376140e-82 1.65834298e-11
3.63078055e-02 1.66381247e-11 1.65834298e-11 5.46949167e-14 1.19215741e-70 3.06840031e-72 1.65834298e-11
4.16869383e-02 1.66510964e-11 1.65834298e-11 6.76665780e-14 2.30612976e-62 8.41131728e-64 1.65834298e-11
4.78630092e-02 1.66677168e-11 1.65834298e-11 8.42870035e-14 3.53951655e-55 1.71283464e-56 1.65834298e-11
5.49540874e-02 1.66831992e-11 1.65834298e-11 9.97694040e-14 5.96656420e-49 3.53103974e-50 1.65834298e-11
6.30957344e-02 1.67038243e-11 1.65834298e-11 1.20394526e-13 1.94918878e-43 1.33440493e-44 1.65834298e-11
7.24435960e-02 1.67012662e-11 1.65834298e-11 1.17836446e-13 1.13246563e-38 7.28347876e-40 1.65834298e-11
8.31763771e-02 1.67024001e-11 1.65834298e-11 1.18970304e-13 1.16556789e-34 7.45092356e-36 1.65834298e-11
9.54992586e-02 1.67010672e-11 1.65834298e-11 1.17637432e-13 3.30773368e-31 2.24322871e-32 1.65834298e-11
1.09647820e-01 1.59583082e-11 1.58370587e-11 1.21249467e-13 2.82807116e-28 2.12068924e-29 1.58370587e-11
1.25892541e-01 1.48900626e-11 1.47800032e-11 1.10059407e-13 9.17752968e-26 6.68954730e-27 1.47800032e-11
1.44543977e-01 1.38904797e-11 1.37935015e-11 9.69782021e-14 1.25273635e-23 8.93603218e-25 1.37935015e-11
1.65958691e-01 1.29739651e-11 1.28728446e-11 1.01120452e-13 6.39095027e-22 5.17540504e-23 1.28728446e-11
1.90546072e-01 1.21310489e-11 1.20136376e-11 1.17411334e-13 1.36110223e-20 1.34846411e-21 1.20136376e-11
2.18776162e-01 1.13303063e-11 1.12117790e-11 1.18527140e-13 1.62046737e-19 1.70327575e-20 1.12117790e-11
2.51188643e-01 1.06013793e-11 1.04634409e-11 1.37936339e-13 1.99728025e-18 2.65355597e-19 1.04634409e-11
2.88403150e-01 9.89285683e-12 9.76505125e-12 1.27788971e-13 1.66019756e-17 2.15010454e-18 9.76505125e-12
3.31131121e-01 9.22289243e-12 9.11327608e-12 1.09521304e-13 9.50496505e-17 1.19488454e-17 9.11327608e-12
3.80189396e-01 8.60684026e-12 8.50500410e-12 1.01439991e-13 3.96170993e-16 4.88167620e-17 8.50500410e-12
4.36515832e-01 8.03344200e-12 7.93733165e-12 9.48545441e-14 1.25580654e-15 1.53522361e-16 7.93733165e-12
5.01187234e-01 7.49996508e-12 7.40754890e-12 8.92572693e-14 3.15890845e-15 3.88660756e-16 7.40754890e-12
5.75439937e-01 7.00057586e-12 6.91312687e-12 8.08130540e-14 6.63593914e-15 8.30619222e-16 6.91312687e-12
6.60693448e-01 6.54061927e-12 6.45170538e-12 7.66033839e-14 1.23105046e-14 1.61056912e-15 6.45170538e-12
7.58577575e-01 6.11328542e-12 6.02108180e-12 7.04985000e-14 2.17051199e-14 3.04807604e-15 6.02108180e-12
8.70963590e-01 5.72117242e-12 5.61920048e-12 6.36699820e-14 3.83019586e-14 5.71686802e-15 5.61920048e-12
1.00000000e+00 5.36822265e-12 5.24414302e-12 5.56136948e-14 6.84659359e-14 1.05496062e-14 5.24414302e-12
1.14815362e+00 5.06709589e-12 4.89411902e-12 4.82042926e-14 1.24772577e-13 1.85625391e-14 4.89411902e-12
1.31825674e+00 4.82970263e-12 4.56745763e-12 3.87078653e-14 2.23537135e-13 3.00775580e-14 4.56745763e-12
1.51356125e+00 4.67179080e-12 4.26259947e-12 3.00001317e-14 3.79191190e-13 4.41334762e-14 4.26259947e-12
1.73780083e+00 4.58943628e-12 3.97808929e-12 2.28382319e-14 5.88508757e-13 5.63327536e-14 3.97808929e-12
1.99526231e+00 4.55706562e-12 3.71256894e-12 1.63931484e-14 8.28103530e-13 6.20940726e-14 3.71256894e-12
2.29086765e+00 4.53829733e-12 3.46477093e-12 1.15004563e-14 1.06202594e-12 6.12340698e-14 3.46477093e-12
2.63026799e+00 4.49358034e-12 3.23351237e-12 7.85562030e-15 1.25221235e-12 5.33746840e-14 3.23351237e-12
3.01995172e+00 4.39519767e-12 3.01768933e-12 5.43899010e-15 1.37206935e-12 4.38951894e-14 3.01768933e-12
3.46736850e+00 4.24390047e-12 2.81627154e-12 3.60887933e-15 1.42402005e-12 3.34526780e-14 2.81627154e-12
3.98107171e+00 4.03526191e-12 2.62829753e-12 2.32492630e-15 1.40463946e-12 2.39861783e-14 2.62829753e-12
4.57088190e+00 3.78653332e-12 2.45286997e-12 1.51019532e-15 1.33215315e-12 1.61523150e-14 2.45286997e-12
5.24807460e+00 3.26061927e-12 2.02814751e-12 8.24369227e-16 1.23164739e-12 1.02395818e-14 2.02814751e-12
6.02559586e+00 2.46785083e-12 1.33998377e-12 3.57792293e-16 1.12750926e-12 6.08876872e-15 1.33998377e-12
6.70000000e+00 2.01596651e-12 9.74709347e-13 1.74972992e-16 1.04108219e-12 3.90804416e-15 9.74709347e-13
6.92422916e+00 1.89581403e-12 8.83049889e-13 1.44113767e-16 1.01262002e-12 3.38530959e-15 8.83049889e-13
7.15596261e+00 1.79601287e-12 8.00009879e-13 1.10851570e-16 9.95892140e-13 2.91227294e-15 8.00009879e-13
7.39545150e+00 1.72762585e-12 7.24778763e-13 8.62830090e-17 1.00276081e-12 2.50725855e-15 7.24778763e-13
7.64295536e+00 1.73409933e-12 6.56622211e-13 6.13560229e-17 1.07741577e-12 2.16537080e-15 6.56622211e-13
7.89874245e+00 1.85459618e-12 5.94874946e-13 3.97036815e-17 1.25968153e-12 1.85060415e-15 5.94874946e-13
8.16308998e+00 2.06337116e-12 5.38934254e-13 2.51310612e-17 1.52441177e-12 1.59208135e-15 5.38934254e-13
8.43628443e+00 2.37183014e-12 4.88254098e-13 1.49024395e-17 1.88356113e-12 1.36492045e-15 4.88254098e-13
8.71862190e+00 2.58065009e-12 4.42339790e-13 1.03661769e-17 2.13829993e-12 1.19536583e-15 4.42339790e-13
9.01040836e+00 2.79963065e-12 4.00743158e-13 7.28310412e-18 2.39888021e-12 1.08093797e-15 4.00743158e-13
9.31196005e+00 2.96669319e-12 3.63058180e-13 5.54882944e-18 2.60362946e-12 1.00434914e-15 3.63058180e-13
9.62360379e+00 2.90969330e-12 3.28917012e-13 4.54235686e-18 2.58077175e-12 9.41828928e-16 3.28917012e-13
9.94567731e+00 2.72127499e-12 2.97986401e-13 4.19648740e-18 2.42328439e-12 8.72674238e-16 2.97986401e-13
1.02785297e+01 2.46627050e-12 2.69964435e-13 3.69449747e-18 2.19630237e-12 7.97385334e-16 2.69964435e-13
1.06225216e+01 2.23639015e-12 2.44577592e-13 3.35557468e-18 1.99180920e-12 7.24919859e-16 2.44577592e-13
1.09780260e+01 1.98575906e-12 2.21578069e-13 3.08097623e-18 1.76417791e-12 6.40677889e-16 2.21578069e-13
1.13454280e+01 1.77249884e-12 2.00741370e-13 2.78778175e-18 1.57175468e-12 5.70309068e-16 2.00741370e-13
1.17251259e+01 1.58766693e-12 1.81864106e-13 2.48831571e-18 1.40580034e-12 4.97115813e-16 1.81864106e-13
1.21175312e+01 1.41904837e-12 1.64762018e-13 2.19885065e-18 1.25428415e-12 4.34663100e-16 1.64762018e-13
1.25230691e+01 1.27427761e-12 1.49268171e-13 1.99669677e-18 1.12500745e-12 3.71824337e-16 1.49268171e-13
1.29421791e+01 1.14712071e-12 1.35231331e-13 1.74716105e-18 1.01188763e-12 3.14607003e-16 1.35231331e-13
1.33753155e+01 1.04048856e-12 1.22514483e-13 1.45384428e-18 9.17972627e-13 2.66686503e-16 1.22514483e-13
1.38229477e+01 9.69063891e-13 1.10993499e-13 1.18939621e-18 8.58069203e-13 2.19845620e-16 1.10993499e-13
1.42855609e+01 9.25417069e-13 1.00555922e-13 9.37102206e-19 8.24860211e-13 1.83784285e-16 1.00555922e-13
1.47636563e+01 9.28813506e-13 9.10998706e-14 6.94416006e-19 8.37712941e-13 1.53115259e-16 9.10998706e-14
1.52577522e+01 9.45171140e-13 8.25330452e-14 5.14516222e-19 8.62637580e-13 1.31090219e-16 8.25330452e-14
1.57683840e+01 9.67640850e-13 7.47718247e-14 3.85773862e-19 8.92868639e-13 1.11607118e-16 7.47718247e-14
1.62961051e+01 9.93050501e-13 6.77404517e-14 2.96008892e-19 9.25309753e-13 9.60203094e-17 6.77404517e-14
1.68414875e+01 1.02120574e-12 6.13702932e-14 2.18919131e-19 9.59835230e-13 8.27470948e-17 6.13702932e-14
1.74051222e+01 1.03331390e-12 5.55991699e-14 1.68410783e-19 9.77714563e-13 7.10088922e-17 5.55991699e-14
1.79876201e+01 1.03627879e-12 5.03707500e-14 1.31712676e-19 9.85907906e-13 6.13805655e-17 5.03707500e-14
1.85896125e+01 1.02432186e-12 4.56339988e-14 1.04891636e-19 9.78687759e-13 5.24120473e-17 4.56339988e-14
1.92117518e+01 9.91554117e-13 4.13426810e-14 8.59208799e-20 9.50211350e-13 4.37620105e-17 4.13426810e-14
1.98547123e+01 9.51402030e-13 3.74549090e-14 7.08749003e-20 9.13947050e-13 3.58150952e-17 3.74549090e-14
2.05191907e+01 9.10056237e-13 3.39327342e-14 5.56395055e-20 8.76123447e-13 2.71799201e-17 3.39327342e-14
2.12059073e+01 8.69666971e-13 3.07417768e-14 4.20485412e-20 8.38925152e-13 2.02826390e-17 3.07417768e-14
2.19156062e+01 8.33675958e-13 2.78508898e-14 2.91011137e-20 8.05825039e-13 1.35965662e-17 2.78508898e-14
2.26490567e+01 8.00415547e-13 2.52318552e-14 1.97654371e-20 7.75183672e-13 8.13870008e-18 2.52318552e-14
2.34070535e+01 7.68738755e-13 2.28591087e-14 9.02536764e-21 7.45879638e-13 3.87938258e-18 2.28591087e-14
2.41904183e+01 7.39164843e-13 2.07094900e-14 2.08936206e-21 7.18455351e-13 1.03805574e-18 2.07094900e-14
2.50000000e+01 7.11193618e-13 1.87620165e-14 0.00000000e+00 6.92431602e-13 1.66554792e-21 1.87620165e-14
2.75422870e+01 6.30048048e-13 1.40313526e-14 0.00000000e+00 6.16016695e-13 0.00000000e+00 1.40313526e-14
3.16227766e+01 5.20512784e-13 9.27042274e-15 0.00000000e+00 5.11242361e-13 0.00000000e+00 9.27042274e-15
3.63078055e+01 4.09009553e-13 6.12490756e-15 0.00000000e+00 4.02884645e-13 0.00000000e+00 6.12490756e-15
4.16869383e+01 3.00525414e-13 4.04668630e-15 0.00000000e+00 2.96478728e-13 0.00000000e+00 4.04668630e-15
4.78630092e+01 2.06997567e-13 2.67361912e-15 0.00000000e+00 2.04323948e-13 0.00000000e+00 2.67361912e-15
5.49540874e+01 1.34677632e-13 1.76644264e-15 0.00000000e+00 1.32911189e-13 0.00000000e+00 1.76644264e-15
6.30957344e+01 8.38293886e-14 1.16707708e-15 0.00000000e+00 8.26623115e-14 0.00000000e+00 1.16707708e-15
7.24435960e+01 5.03193937e-14 7.71080178e-16 0.00000000e+00 4.95483135e-14 0.00000000e+00 7.71080178e-16
8.31763771e+01 2.93957468e-14 5.09447621e-16 0.00000000e+00 2.88862992e-14 0.00000000e+00 5.09447621e-16
9.54992586e+01 1.68306096e-14 3.36588705e-16 0.00000000e+00 1.64940209e-14 0.00000000e+00 3.36588705e-16
1.09647820e+02 9.48639525e-15 2.22381952e-16 0.00000000e+00 9.26401330e-15 0.00000000e+00 2.22381952e-16
1.25892541e+02 5.34354072e-15 1.46926299e-16 0.00000000e+00 5.19661442e-15 0.00000000e+00 1.46926299e-16
1.44543977e+02 2.99059510e-15 9.70732430e-17 0.00000000e+00 2.89352185e-15 0.00000000e+00 9.70732430e-17
1.65958691e+02 1.59579552e-15 6.41356556e-17 0.00000000e+00 1.53165986e-15 0.00000000e+00 6.41356556e-17
1.90546072e+02 8.52891534e-16 4.23740075e-17 0.00000000e+00 8.10517527e-16 0.00000000e+00 4.23740075e-17
2.18776162e+02 4.55635114e-16 2.79962291e-17 0.00000000e+00 4.27638885e-16 0.00000000e+00 2.79962291e-17
2.51188643e+02 2.43068162e-16 1.84969251e-17 0.00000000e+00 2.24571237e-16 0.00000000e+00 1.84969251e-17
2.88403150e+02 1.29471026e-16 1.22207972e-17 0.00000000e+00 1.17250229e-16 0.00000000e+00 1.22207972e-17
3.31131121e+02 6.90618593e-17 8.07420067e-18 0.00000000e+00 6.09876586e-17 0.00000000e+00 8.07420067e-18
3.80189396e+02 3.69066067e-17 5.33457148e-18 0.00000000e+00 3.15720352e-17 0.00000000e+00 5.33457148e-18
4.36515832e+02 1.98146297e-17 3.52451642e-18 0.00000000e+00 1.62901133e-17 0.00000000e+00 3.52451642e-18
5.01187234e+02 1.07047374e-17 2.32862491e-18 0.00000000e+00 8.37611244e-18 0.00000000e+00 2.32862491e-18
5.75439937e+02 5.83299023e-18 1.53850722e-18 0.00000000e+00 4.29448301e-18 0.00000000e+00 1.53850722e-18
6.60693448e+02 3.21278794e-18 1.01648164e-18 0.00000000e+00 2.19630630e-18 0.00000000e+00 1.01648164e-18
7.58577575e+02 1.79237929e-18 6.71582760e-19 0.00000000e+00 1.12079653e-18 0.00000000e+00 6.71582760e-19
8.70963590e+02 1.01443408e-18 4.43710329e-19 0.00000000e+00 5.70723748e-19 0.00000000e+00 4.43710329e-19
1.00000000e+03 2.90040835e-19 0.00000000e+00 0.00000000e+00 2.90040835e-19 0.00000000e+00 0.00000000e+00
