# column 1: lambda (micron)
# column 2: total flux; lambda*F_lambda (W/m2)
# column 3: direct stellar flux; lambda*F_lambda (W/m2)
# column 4: scattered stellar flux; lambda*F_lambda (W/m2)
# column 5: total dust emission flux; lambda*F_lambda (W/m2)
# column 6: dust emission scattered flux; lambda*F_lambda (W/m2)
# column 7: transparent flux; lambda*F_lambda (W/m2)
1.00000000e-03 3.57698555e-13 3.57698393e-13 1.61779448e-19 0.00000000e+00 0.00000000e+00 3.57785423e-13
1.14815362e-03 4.22166078e-13 4.22165809e-13 2.68817563e-19 0.00000000e+00 0.00000000e+00 4.22301518e-13
1.31825674e-03 4.98247972e-13 4.98247550e-13 4.22042147e-19 0.00000000e+00 0.00000000e+00 4.98451197e-13
1.51356125e-03 5.88049483e-13 5.88048857e-13 6.26874021e-19 0.00000000e+00 0.00000000e+00 5.88332233e-13
1.73780083e-03 6.94083970e-13 6.94082744e-13 1.22561678e-18 0.00000000e+00 0.00000000e+00 6.94420676e-13
1.99526231e-03 8.19112489e-13 8.19110265e-13 2.22442354e-18 0.00000000e+00 0.00000000e+00 8.19639053e-13
2.29086765e-03 9.66778415e-13 9.66775048e-13 3.36703885e-18 0.00000000e+00 0.00000000e+00 9.67436888e-13
2.63026799e-03 1.14095619e-12 1.14094965e-12 6.53912376e-18 0.00000000e+00 0.00000000e+00 1.14188572e-12
3.01995172e-03 1.34643687e-12 1.34642494e-12 1.19298516e-17 0.00000000e+00 0.00000000e+00 1.34779128e-12
3.46736850e-03 1.58894525e-12 1.58892516e-12 2.00861123e-17 0.00000000e+00 0.00000000e+00 1.59082586e-12
3.98107171e-03 1.87514859e-12 1.87511684e-12 3.17520550e-17 0.00000000e+00 0.00000000e+00 1.87768459e-12
4.57088190e-03 2.21431203e-12 2.21424775e-12 6.42802959e-17 0.00000000e+00 0.00000000e+00 2.21626987e-12
5.24807460e-03 2.61298242e-12 2.61286099e-12 1.21424575e-16 0.00000000e+00 0.00000000e+00 2.61590907e-12
6.02559586e-03 3.08351794e-12 3.08327405e-12 2.43889447e-16 0.00000000e+00 0.00000000e+00 3.08761145e-12
6.91830971e-03 3.63881913e-12 3.63846354e-12 3.55596594e-16 0.00000000e+00 0.00000000e+00 3.64437151e-12
7.94328235e-03 4.29496494e-12 4.29374778e-12 1.21715561e-15 4.18656706e-304 4.95216700e-307 4.30152690e-12
9.12010839e-03 5.06904608e-12 5.06699290e-12 2.05318667e-15 1.86760143e-265 7.22461015e-268 5.07718096e-12
1.04712855e-02 5.66461302e-12 5.65841268e-12 6.20033348e-15 7.97873088e-232 1.53766266e-234 5.67051724e-12
1.20226443e-02 5.66380145e-12 5.65769911e-12 6.10234106e-15 1.26589174e-202 5.13795102e-205 5.67051724e-12
1.38038426e-02 5.66285696e-12 5.65685284e-12 6.00412597e-15 3.48209335e-177 1.56401900e-179 5.67051724e-12
1.58489319e-02 5.66297110e-12 5.65581301e-12 7.15808284e-15 4.76916814e-155 4.37849497e-157 5.67051724e-12
1.81970086e-02 5.66415404e-12 5.65485413e-12 9.29990950e-15 8.55673709e-136 7.23000447e-138 5.67051724e-12
2.08929613e-02 5.66869865e-12 5.65405722e-12 1.46414310e-14 4.50629463e-119 5.23013323e-121 5.67051724e-12
2.39883292e-02 5.66853483e-12 5.65302486e-12 1.55099780e-14 1.59443761e-104 2.55014063e-106 5.67051724e-12
2.75422870e-02 5.67148783e-12 5.65182427e-12 1.96635564e-14 7.18687118e-92 1.44577501e-93 5.67051724e-12
3.16227766e-02 5.67074538e-12 5.65064769e-12 2.00976889e-14 7.06052005e-81 1.80174391e-82 5.67051724e-12
3.63078055e-02 5.67329287e-12 5.64972501e-12 2.35678667e-14 2.45960400e-71 6.97654128e-73 5.67051724e-12
4.16869383e-02 5.68098274e-12 5.64892708e-12 3.20556616e-14 4.71749918e-63 1.80093857e-64 5.67051724e-12
4.78630092e-02 5.68288798e-12 5.64672819e-12 3.61597898e-14 7.17911791e-56 3.43896343e-57 5.67051724e-12
5.49540874e-02 5.68552116e-12 5.64367163e-12 4.18495243e-14 1.19978926e-49 6.70608241e-51 5.67051724e-12
6.30957344e-02 5.67819939e-12 5.63601461e-12 4.21847814e-14 3.89882348e-44 2.49921045e-45 5.67051724e-12
7.24435960e-02 5.66793067e-12 5.62695820e-12 4.09724744e-14 2.26101691e-39 1.38682973e-40 5.67051724e-12
8.31763771e-02 5.66627107e-12 5.62776350e-12 3.85075766e-14 2.31521325e-35 1.38738125e-36 5.67051724e-12
9.54992586e-02 5.66730467e-12 5.63012605e-12 3.71786171e-14 6.52945652e-32 4.00885975e-33 5.67051724e-12
1.09647820e-01 5.42141728e-12 5.38323992e-12 3.81773548e-14 5.53387511e-29 3.52862852e-30 5.41530405e-12
1.25892541e-01 5.06954314e-12 5.02921084e-12 4.03322984e-14 1.79309957e-26 1.12898828e-27 5.05385580e-12
1.44543977e-01 4.73141170e-12 4.69746106e-12 3.39506439e-14 2.44281622e-24 1.51323866e-25 4.71653266e-12
1.65958691e-01 4.41818438e-12 4.38615463e-12 3.20297512e-14 1.23510757e-22 8.09331639e-24 4.40172439e-12
1.90546072e-01 4.12697501e-12 4.09242814e-12 3.45468612e-14 2.59945789e-21 1.93321983e-22 4.10792822e-12
2.18776162e-01 3.84915714e-12 3.81677875e-12 3.23783682e-14 3.08756833e-20 2.45165219e-21 3.83374167e-12
2.51188643e-01 3.59983331e-12 3.56518983e-12 3.46431122e-14 3.73374500e-19 3.44868176e-20 3.57785591e-12
2.88403150e-01 3.35955464e-12 3.32923247e-12 3.03190753e-14 3.09492710e-18 2.71660972e-19 3.33904941e-12
3.31131121e-01 3.13475382e-12 3.10819426e-12 2.65418553e-14 1.77090996e-17 1.49438928e-18 3.11618222e-12
3.80189396e-01 2.92720544e-12 2.90164298e-12 2.54888652e-14 7.35972304e-17 5.90327785e-18 2.90819046e-12
4.36515832e-01 2.73119304e-12 2.70876245e-12 2.21982113e-14 2.32373870e-16 1.80861990e-17 2.71408126e-12
5.01187234e-01 2.54934105e-12 2.52866580e-12 2.00966186e-14 5.78637711e-16 4.33181340e-17 2.53292801e-12
5.75439937e-01 2.37896921e-12 2.36048570e-12 1.72930656e-14 1.19044430e-15 8.62489444e-17 2.36386595e-12
6.60693448e-01 2.22054268e-12 2.20343048e-12 1.50084025e-14 2.10380291e-15 1.45541375e-16 2.20608807e-12
7.58577575e-01 2.07377988e-12 2.05677716e-12 1.36240117e-14 3.37871093e-15 2.26766588e-16 2.05884118e-12
8.70963590e-01 1.93663940e-12 1.91985489e-12 1.16441385e-14 5.14037079e-15 3.22554348e-16 1.92142238e-12
1.00000000e+00 1.80922942e-12 1.79200452e-12 9.48124688e-15 7.74365309e-15 4.55699103e-16 1.79317570e-12
1.14815362e+00 1.69308134e-12 1.67262942e-12 8.22566215e-15 1.22262509e-14 6.65027414e-16 1.67348894e-12
1.31825674e+00 1.58828354e-12 1.56117093e-12 6.72524199e-15 2.03873725e-14 1.00939715e-15 1.56179075e-12
1.51356125e+00 1.49680778e-12 1.45710548e-12 5.14228463e-15 3.45600152e-14 1.54828799e-15 1.45754793e-12
1.73780083e+00 1.42063041e-12 1.35995217e-12 4.13321696e-15 5.65450175e-14 2.28643022e-15 1.36026288e-12
1.99526231e+00 1.35883175e-12 1.26925642e-12 3.00638531e-15 8.65689493e-14 3.01225264e-15 1.26947118e-12
2.29086765e+00 1.30880307e-12 1.18459146e-12 2.01338606e-15 1.22198229e-13 3.51360358e-15 1.18473944e-12
2.63026799e+00 1.26588239e-12 1.10556025e-12 1.48799420e-15 1.58834140e-13 3.70021344e-15 1.10566318e-12
3.01995172e+00 1.22483026e-12 1.03179241e-12 9.84655418e-16 1.92053195e-13 3.43068913e-15 1.03186491e-12
3.46736850e+00 1.18055657e-12 9.62940459e-13 6.86644442e-16 2.16929461e-13 3.02049044e-15 9.62992369e-13
3.98107171e+00 1.12942076e-12 8.98679130e-13 4.59410702e-16 2.30282219e-13 2.36084962e-15 8.98716770e-13
4.57088190e+00 1.07113974e-12 8.38703626e-13 2.93631090e-16 2.32142487e-13 1.68679167e-15 8.38731291e-13
5.24807460e+00 9.17825545e-13 6.93483847e-13 1.72610899e-16 2.24169087e-13 1.11939340e-15 6.93502223e-13
6.02559586e+00 6.68737831e-13 4.58182286e-13 6.84531037e-17 2.10487092e-13 6.90422596e-16 4.58192375e-13
6.70000000e+00 5.30028564e-13 3.33284399e-13 3.60067850e-17 1.96708158e-13 4.46054276e-16 3.33290895e-13
6.92422916e+00 4.93871897e-13 3.01943296e-13 2.85947535e-17 1.91900006e-13 3.84893339e-16 3.01948975e-13
7.15596261e+00 4.62657983e-13 2.73549322e-13 2.16327329e-17 1.89087027e-13 3.34119652e-16 2.73554377e-13
7.39545150e+00 4.37990080e-13 2.47825255e-13 1.77122746e-17 1.90147113e-13 2.80468143e-16 2.47829944e-13
7.64295536e+00 4.28901799e-13 2.24519737e-13 1.20505195e-17 2.04370012e-13 2.38959485e-16 2.24524577e-13
7.89874245e+00 4.41160099e-13 2.03405130e-13 7.63685245e-18 2.37747332e-13 1.97894185e-16 2.03410795e-13
8.16308998e+00 4.71833007e-13 1.84275575e-13 4.75170457e-18 2.87552681e-13 1.62974469e-16 1.84282505e-13
8.43628443e+00 5.25042259e-13 1.66944273e-13 2.67783488e-18 3.58095308e-13 1.26192269e-16 1.66952996e-13
8.71862190e+00 5.59448134e-13 1.51243404e-13 1.68829103e-18 4.08203041e-13 9.92837265e-17 1.51253114e-13
9.01040836e+00 5.98454680e-13 1.37018958e-13 9.85726849e-19 4.61434737e-13 7.10446301e-17 1.37029614e-13
9.31196005e+00 6.29824777e-13 1.24132462e-13 0.00000000e+00 5.05692315e-13 0.00000000e+00 1.24143660e-13
9.62360379e+00 6.16484795e-13 1.12459060e-13 0.00000000e+00 5.04025735e-13 0.00000000e+00 1.12469472e-13
9.94567731e+00 5.72131156e-13 1.01884246e-13 0.00000000e+00 4.70246910e-13 0.00000000e+00 1.01893097e-13
1.02785297e+01 5.20926364e-13 9.23040473e-14 0.00000000e+00 4.28622317e-13 0.00000000e+00 9.23113014e-14
1.06225216e+01 4.70144836e-13 8.36246742e-14 0.00000000e+00 3.86520162e-13 0.00000000e+00 8.36305558e-14
1.09780260e+01 4.17203777e-13 7.57615310e-14 0.00000000e+00 3.41442245e-13 0.00000000e+00 7.57661279e-14
1.13454280e+01 3.70416261e-13 6.86376458e-14 0.00000000e+00 3.01778615e-13 0.00000000e+00 6.86412529e-14
1.17251259e+01 3.31863814e-13 6.21835364e-14 0.00000000e+00 2.69680277e-13 0.00000000e+00 6.21863851e-14
1.21175312e+01 2.95596737e-13 5.63362802e-14 0.00000000e+00 2.39260456e-13 0.00000000e+00 5.63385184e-14
1.25230691e+01 2.63916838e-13 5.10388181e-14 0.00000000e+00 2.12878020e-13 0.00000000e+00 5.10405718e-14
1.29421791e+01 2.36627553e-13 4.62394483e-14 0.00000000e+00 1.90388104e-13 0.00000000e+00 4.62408321e-14
1.33753155e+01 2.13717919e-13 4.18913494e-14 0.00000000e+00 1.71826570e-13 0.00000000e+00 4.18924490e-14
1.38229477e+01 1.97568298e-13 3.79520639e-14 0.00000000e+00 1.59616234e-13 0.00000000e+00 3.79529781e-14
1.42855609e+01 1.86890984e-13 3.43831715e-14 0.00000000e+00 1.52507813e-13 0.00000000e+00 3.43839660e-14
1.47636563e+01 1.85288912e-13 3.11498217e-14 0.00000000e+00 1.54139091e-13 0.00000000e+00 3.11505758e-14
1.52577522e+01 1.86149234e-13 2.82205177e-14 0.00000000e+00 1.57928716e-13 0.00000000e+00 2.82212462e-14
1.57683840e+01 1.88520474e-13 2.55666712e-14 0.00000000e+00 1.62953803e-13 0.00000000e+00 2.55673842e-14
1.62961051e+01 1.91627712e-13 2.31623884e-14 0.00000000e+00 1.68465324e-13 0.00000000e+00 2.31630853e-14
1.68414875e+01 1.94349151e-13 2.09842016e-14 0.00000000e+00 1.73364949e-13 0.00000000e+00 2.09848813e-14
1.74051222e+01 1.95446824e-13 1.90108652e-14 0.00000000e+00 1.76435959e-13 0.00000000e+00 1.90115106e-14
1.79876201e+01 1.93832768e-13 1.72231086e-14 0.00000000e+00 1.76609660e-13 0.00000000e+00 1.72237112e-14
1.85896125e+01 1.89389210e-13 1.56034872e-14 0.00000000e+00 1.73785723e-13 0.00000000e+00 1.56040325e-14
1.92117518e+01 1.81849736e-13 1.41361857e-14 0.00000000e+00 1.67713550e-13 0.00000000e+00 1.41366646e-14
1.98547123e+01 1.73287643e-13 1.28068722e-14 0.00000000e+00 1.60480770e-13 0.00000000e+00 1.28072847e-14
2.05191907e+01 1.63845088e-13 1.16025650e-14 0.00000000e+00 1.52242523e-13 0.00000000e+00 1.16029167e-14
2.12059073e+01 1.55614267e-13 1.05115049e-14 0.00000000e+00 1.45102762e-13 0.00000000e+00 1.05118047e-14
2.19156062e+01 1.47788247e-13 9.52304165e-15 0.00000000e+00 1.38265206e-13 0.00000000e+00 9.52329842e-15
2.26490567e+01 1.40832910e-13 8.62752873e-15 0.00000000e+00 1.32205382e-13 0.00000000e+00 8.62774902e-15
2.34070535e+01 1.34211550e-13 7.81622571e-15 0.00000000e+00 1.26395324e-13 0.00000000e+00 7.81641505e-15
2.41904183e+01 1.28288838e-13 7.08121394e-15 0.00000000e+00 1.21207624e-13 0.00000000e+00 7.08137710e-15
2.50000000e+01 1.22599774e-13 6.41531955e-15 0.00000000e+00 1.16184455e-13 0.00000000e+00 6.41546044e-15
2.75422870e+01 1.07223269e-13 4.79777128e-15 0.00000000e+00 1.02425498e-13 0.00000000e+00 4.79786316e-15
3.16227766e+01 8.76623059e-14 3.16986628e-15 0.00000000e+00 8.44924396e-14 0.00000000e+00 3.16991676e-15
3.63078055e+01 6.89057197e-14 2.09431564e-15 0.00000000e+00 6.68114041e-14 0.00000000e+00 2.09434323e-15
4.16869383e+01 5.11017567e-14 1.38370417e-15 0.00000000e+00 4.97180525e-14 0.00000000e+00 1.38371885e-15
4.78630092e+01 3.56187141e-14 9.14206411e-16 0.00000000e+00 3.47045077e-14 0.00000000e+00 9.14213979e-16
5.49540874e+01 2.35972075e-14 6.04011368e-16 0.00000000e+00 2.29931962e-14 0.00000000e+00 6.04015186e-16
6.30957344e+01 1.49282083e-14 3.99066974e-16 0.00000000e+00 1.45291413e-14 0.00000000e+00 3.99068876e-16
7.24435960e+01 9.11324638e-15 2.63661251e-16 0.00000000e+00 8.84958513e-15 0.00000000e+00 2.63662192e-16
8.31763771e+01 5.40601614e-15 1.74199418e-16 0.00000000e+00 5.23181672e-15 0.00000000e+00 1.74199882e-16
9.54992586e+01 3.13908190e-15 1.15092491e-16 0.00000000e+00 3.02398941e-15 0.00000000e+00 1.15092721e-16
1.09647820e+02 1.79276933e-15 7.60408925e-17 0.00000000e+00 1.71672844e-15 0.00000000e+00 7.60410067e-17
1.25892541e+02 1.02167890e-15 5.02397373e-17 0.00000000e+00 9.71439160e-16 0.00000000e+00 5.02397949e-17
1.44543977e+02 5.78097768e-16 3.31930741e-17 0.00000000e+00 5.44904694e-16 0.00000000e+00 3.31931033e-17
1.65958691e+02 3.12439706e-16 2.19304515e-17 0.00000000e+00 2.90509255e-16 0.00000000e+00 2.19304659e-17
1.90546072e+02 1.69091342e-16 1.44893080e-17 0.00000000e+00 1.54602034e-16 0.00000000e+00 1.44893151e-17
2.18776162e+02 9.15417997e-17 9.57299203e-18 0.00000000e+00 8.19688076e-17 0.00000000e+00 9.57299556e-18
2.51188643e+02 4.95448927e-17 6.32481368e-18 0.00000000e+00 4.32200790e-17 0.00000000e+00 6.32481544e-18
2.88403150e+02 2.68214093e-17 4.17876324e-18 0.00000000e+00 2.26426461e-17 0.00000000e+00 4.17876412e-18
3.31131121e+02 1.45729500e-17 2.76088163e-18 0.00000000e+00 1.18120684e-17 0.00000000e+00 2.76088208e-18
3.80189396e+02 7.95399054e-18 1.82409648e-18 0.00000000e+00 6.12989406e-18 0.00000000e+00 1.82409670e-18
4.36515832e+02 4.37460718e-18 1.20516863e-18 0.00000000e+00 3.16943856e-18 0.00000000e+00 1.20516874e-18
5.01187234e+02 2.42881529e-18 7.96247033e-19 0.00000000e+00 1.63256826e-18 0.00000000e+00 7.96247089e-19
5.75439937e+02 1.36437898e-18 5.26075206e-19 0.00000000e+00 8.38303773e-19 0.00000000e+00 5.26075235e-19
6.60693448e+02 7.76861222e-19 3.47574447e-19 0.00000000e+00 4.29286775e-19 0.00000000e+00 3.47574461e-19
7.58577575e+02 4.48952623e-19 2.29640162e-19 0.00000000e+00 2.19312461e-19 0.00000000e+00 2.29640169e-19
8.70963590e+02 2.63504892e-19 1.51721751e-19 0.00000000e+00 1.11783140e-19 0.00000000e+00 1.51721755e-19
1.00000000e+03 5.68544598e-20 0.00000000e+00 0.00000000e+00 5.68544598e-20 0.00000000e+00 0.00000000e+00
