# column 1: lambda (micron)
# column 2: total flux; lambda*F_lambda (W/m2)
# column 3: direct stellar flux; lambda*F_lambda (W/m2)
# column 4: scattered stellar flux; lambda*F_lambda (W/m2)
# column 5: total dust emission flux; lambda*F_lambda (W/m2)
# column 6: dust emission scattered flux; lambda*F_lambda (W/m2)
# column 7: transparent flux; lambda*F_lambda (W/m2)
1.00000000e-03 9.68076976e-13 9.68073281e-13 3.69482884e-18 0.00000000e+00 0.00000000e+00 9.68073281e-13
1.14815362e-03 1.14264270e-12 1.14263687e-12 5.83433934e-18 0.00000000e+00 0.00000000e+00 1.14263687e-12
1.31825674e-03 1.34868670e-12 1.34867788e-12 8.81827218e-18 0.00000000e+00 0.00000000e+00 1.34867788e-12
1.51356125e-03 1.59188548e-12 1.59187233e-12 1.31551644e-17 0.00000000e+00 0.00000000e+00 1.59187233e-12
1.73780083e-03 1.87894357e-12 1.87891976e-12 2.38055647e-17 0.00000000e+00 0.00000000e+00 1.87891976e-12
1.99526231e-03 2.21776957e-12 2.21772777e-12 4.18088289e-17 0.00000000e+00 0.00000000e+00 2.21772777e-12
2.29086765e-03 2.61769351e-12 2.61762985e-12 6.36636170e-17 0.00000000e+00 0.00000000e+00 2.61762985e-12
2.63026799e-03 3.08976986e-12 3.08964252e-12 1.27341068e-16 0.00000000e+00 0.00000000e+00 3.08964252e-12
3.01995172e-03 3.64697841e-12 3.64676883e-12 2.09586932e-16 0.00000000e+00 0.00000000e+00 3.64676883e-12
3.46736850e-03 4.30470697e-12 4.30435650e-12 3.50472459e-16 0.00000000e+00 0.00000000e+00 4.30435650e-12
3.98107171e-03 5.08107958e-12 5.08052080e-12 5.58779740e-16 0.00000000e+00 0.00000000e+00 5.08052080e-12
4.57088190e-03 5.99790210e-12 5.99664354e-12 1.25856281e-15 0.00000000e+00 0.00000000e+00 5.99664354e-12
5.24807460e-03 7.08020697e-12 7.07796211e-12 2.24485780e-15 0.00000000e+00 0.00000000e+00 7.07796211e-12
6.02559586e-03 8.35836557e-12 8.35426474e-12 4.10082325e-15 0.00000000e+00 0.00000000e+00 8.35426474e-12
6.91830971e-03 9.91676475e-12 9.86071107e-12 5.60536780e-14 0.00000000e+00 0.00000000e+00 9.86071107e-12
7.94328235e-03 1.16579322e-11 1.16388008e-11 1.91314149e-14 0.00000000e+00 0.00000000e+00 1.16388008e-11
9.12010839e-03 1.37561136e-11 1.37375167e-11 1.85968761e-14 0.00000000e+00 0.00000000e+00 1.37375167e-11
1.04712855e-02 1.53716911e-11 1.53429287e-11 2.87624689e-14 0.00000000e+00 0.00000000e+00 1.53429287e-11
1.20226443e-02 1.53800297e-11 1.53429287e-11 3.71010357e-14 7.37321937e-311 5.58393330e-312 1.53429287e-11
1.38038426e-02 1.53961036e-11 1.53429287e-11 5.31749083e-14 1.08926550e-271 7.49969288e-273 1.53429287e-11
1.58489319e-02 1.54186378e-11 1.53429287e-11 7.57091489e-14 1.35784170e-237 9.61305370e-239 1.53429287e-11
1.81970086e-02 1.54537388e-11 1.53429287e-11 1.10810169e-13 6.40132865e-208 4.87443127e-209 1.53429287e-11
2.08929613e-02 1.54945224e-11 1.53429287e-11 1.51593698e-13 4.02750660e-182 3.56627827e-183 1.53429287e-11
2.39883292e-02 1.55307946e-11 1.53429287e-11 1.87865940e-13 1.14012148e-159 1.11139567e-160 1.53429287e-11
2.75422870e-02 1.55873864e-11 1.53429287e-11 2.44457750e-13 3.93884521e-140 4.33143124e-141 1.53429287e-11
3.16227766e-02 1.56459482e-11 1.53429287e-11 3.03019551e-13 3.80307351e-123 4.40755791e-124 1.53429287e-11
3.63078055e-02 1.56885583e-11 1.53429287e-11 3.45629637e-13 2.21104007e-108 2.76466846e-109 1.53429287e-11
4.16869383e-02 1.58013624e-11 1.53429287e-11 4.58433698e-13 1.50237946e-95 2.11734339e-96 1.53429287e-11
4.78630092e-02 1.59079762e-11 1.53429287e-11 5.65047514e-13 2.07106359e-84 3.23070941e-85 1.53429287e-11
5.49540874e-02 1.59864801e-11 1.53429287e-11 6.43551417e-13 9.57935216e-75 1.60005184e-75 1.53429287e-11
6.30957344e-02 1.60371993e-11 1.53429287e-11 6.94270660e-13 3.00343098e-66 5.43312401e-67 1.53429287e-11
7.24435960e-02 1.59671365e-11 1.53429287e-11 6.24207798e-13 6.88538186e-59 1.18912691e-59 1.53429287e-11
8.31763771e-02 1.59458258e-11 1.53429287e-11 6.02897170e-13 1.51929217e-52 2.56787791e-53 1.53429287e-11
9.54992586e-02 1.59640554e-11 1.53429287e-11 6.21126759e-13 5.71294062e-47 9.81348936e-48 1.53429287e-11
1.09647820e-01 1.53081096e-11 1.46523889e-11 6.55720711e-13 4.71219032e-42 8.87895164e-43 1.46523889e-11
1.25892541e-01 1.42997892e-11 1.36744049e-11 6.25384272e-13 1.02337635e-37 1.95982603e-38 1.36744049e-11
1.44543977e-01 1.33361335e-11 1.27616972e-11 5.74436301e-13 6.19472738e-34 1.17657263e-34 1.27616972e-11
1.65958691e-01 1.24967385e-11 1.19099088e-11 5.86829700e-13 9.47075249e-31 2.00422611e-31 1.19099088e-11
1.90546072e-01 1.17308036e-11 1.11149736e-11 6.15829991e-13 4.13652726e-28 1.03452799e-28 1.11149736e-11
2.18776162e-01 1.09331758e-11 1.03730969e-11 5.60078871e-13 7.05782475e-26 1.88980511e-26 1.03730969e-11
2.51188643e-01 1.03214308e-11 9.68073733e-12 6.40693432e-13 1.04205001e-23 3.35018863e-24 9.68073733e-12
2.88403150e-01 9.64065875e-12 9.03458975e-12 6.06069000e-13 7.91690593e-22 2.60136999e-22 9.03458975e-12
3.31131121e-01 8.97843046e-12 8.43156974e-12 5.46860685e-13 3.29333273e-20 1.09301673e-20 8.43156974e-12
3.80189396e-01 8.37009012e-12 7.86879872e-12 5.01290591e-13 8.08231579e-19 2.69489852e-19 7.86879872e-12
4.36515832e-01 7.81344880e-12 7.34359025e-12 4.69845994e-13 1.25518950e-17 4.18943559e-18 7.34359025e-12
5.01187234e-01 7.28519908e-12 6.85343719e-12 4.31631364e-13 1.30533416e-16 4.35302874e-17 6.85343719e-12
5.75439937e-01 6.78782934e-12 6.39599973e-12 3.90888590e-13 9.41019847e-16 3.08606722e-16 6.39599973e-12
6.60693448e-01 6.33363826e-12 5.96909425e-12 3.59545628e-13 4.99837560e-15 1.61281598e-15 5.96909425e-12
7.58577575e-01 5.91277455e-12 5.57068288e-12 3.21399760e-13 2.06919019e-14 6.49218201e-15 5.57068288e-12
8.70963590e-01 5.54641395e-12 5.19886376e-12 2.78791562e-13 6.87586307e-14 2.04781786e-14 5.19886376e-12
1.00000000e+00 5.27742381e-12 4.85186196e-12 2.39021903e-13 1.86539942e-13 5.17726347e-14 4.85186196e-12
1.14815362e+00 5.16983415e-12 4.52802104e-12 1.99856401e-13 4.41956704e-13 1.11776731e-13 4.52802104e-12
1.31825674e+00 5.30719255e-12 4.22579511e-12 1.58937659e-13 9.22459774e-13 2.04727213e-13 4.22579511e-12
1.51356125e+00 5.78204765e-12 3.94374146e-12 1.24589101e-13 1.71371709e-12 3.28097632e-13 3.94374146e-12
1.73780083e+00 6.59595666e-12 3.68051368e-12 9.71304267e-14 2.81831255e-12 4.54803857e-13 3.68051368e-12
1.99526231e+00 7.66096277e-12 3.43485522e-12 7.32908027e-14 4.15281675e-12 5.36839313e-13 3.43485522e-12
2.29086765e+00 8.76582974e-12 3.20559341e-12 5.30223661e-14 5.50721396e-12 5.57141171e-13 3.20559341e-12
2.63026799e+00 9.72495949e-12 2.99163384e-12 3.73128824e-14 6.69601277e-12 5.02073794e-13 2.99163384e-12
3.01995172e+00 1.03801736e-11 2.79195514e-12 2.51874488e-14 7.56303096e-12 4.14605081e-13 2.79195514e-12
3.46736850e+00 1.06844229e-11 2.60560415e-12 1.66741329e-14 8.06214460e-12 3.12005215e-13 2.60560415e-12
3.98107171e+00 1.05909574e-11 2.43169128e-12 1.05633752e-14 8.14870274e-12 2.15670857e-13 2.43169128e-12
4.57088190e+00 1.02420850e-11 2.26938634e-12 6.58004729e-15 7.96611857e-12 1.38872041e-13 2.26938634e-12
5.24807460e+00 9.45844808e-12 1.87643467e-12 3.53597328e-15 7.57847743e-12 8.51602118e-14 1.87643467e-12
6.02559586e+00 8.35873448e-12 1.23974809e-12 1.45195366e-15 7.11753444e-12 4.91486269e-14 1.23974809e-12
6.70000000e+00 7.64253994e-12 9.01797527e-13 7.09022045e-16 6.74003339e-12 3.12556590e-14 9.01797527e-13
6.92422916e+00 7.43326702e-12 8.16994532e-13 5.63339845e-16 6.61570915e-12 2.68871626e-14 8.16994532e-13
7.15596261e+00 7.27004977e-12 7.40166218e-13 4.43361211e-16 6.52944019e-12 2.30541015e-14 7.40166218e-13
7.39545150e+00 7.26763554e-12 6.70562664e-13 3.38631236e-16 6.59673424e-12 1.97481775e-14 6.70562664e-13
7.64295536e+00 7.62252460e-12 6.07504471e-13 2.45047782e-16 7.01477508e-12 1.70443238e-14 6.07504471e-13
7.89874245e+00 8.53291510e-12 5.50376127e-13 1.60950743e-16 7.98237803e-12 1.45493375e-14 5.50376127e-13
8.16308998e+00 9.78367766e-12 4.98620004e-13 1.01954523e-16 9.28495570e-12 1.24439580e-14 4.98620004e-13
8.43628443e+00 1.14383702e-11 4.51730909e-13 5.90802609e-17 1.09865802e-11 9.98349287e-15 4.51730909e-13
8.71862190e+00 1.24947135e-11 4.09251158e-13 3.56246600e-17 1.20854268e-11 7.94074226e-15 4.09251158e-13
9.01040836e+00 1.35541989e-11 3.70766106e-13 1.84663226e-17 1.31834143e-11 5.63718544e-15 3.70766106e-13
9.31196005e+00 1.43072418e-11 3.35900102e-13 0.00000000e+00 1.39713417e-11 0.00000000e+00 3.35900102e-13
9.62360379e+00 1.42021667e-11 3.04312818e-13 0.00000000e+00 1.38978539e-11 0.00000000e+00 3.04312818e-13
9.94567731e+00 1.34971981e-11 2.75695930e-13 0.00000000e+00 1.32215022e-11 0.00000000e+00 2.75695930e-13
1.02785297e+01 1.26658911e-11 2.49770110e-13 0.00000000e+00 1.24161210e-11 0.00000000e+00 2.49770110e-13
1.06225216e+01 1.18303887e-11 2.26282295e-13 0.00000000e+00 1.16041064e-11 0.00000000e+00 2.26282295e-13
1.09780260e+01 1.08602334e-11 2.05003220e-13 0.00000000e+00 1.06552302e-11 0.00000000e+00 2.05003220e-13
1.13454280e+01 1.00317134e-11 1.85725182e-13 0.00000000e+00 9.84598821e-12 0.00000000e+00 1.85725182e-13
1.17251259e+01 9.30749784e-12 1.68260007e-13 0.00000000e+00 9.13923783e-12 0.00000000e+00 1.68260007e-13
1.21175312e+01 8.60320809e-12 1.52437217e-13 0.00000000e+00 8.45077087e-12 0.00000000e+00 1.52437217e-13
1.25230691e+01 7.95542844e-12 1.38102367e-13 0.00000000e+00 7.81732607e-12 0.00000000e+00 1.38102367e-13
1.29421791e+01 7.41724278e-12 1.25115533e-13 0.00000000e+00 7.29212725e-12 0.00000000e+00 1.25115533e-13
1.33753155e+01 6.93405870e-12 1.13349952e-13 0.00000000e+00 6.82070875e-12 0.00000000e+00 1.13349952e-13
1.38229477e+01 6.63135607e-12 1.02690779e-13 0.00000000e+00 6.52866529e-12 0.00000000e+00 1.02690779e-13
1.42855609e+01 6.49225687e-12 9.30339713e-14 0.00000000e+00 6.39922290e-12 0.00000000e+00 9.30339713e-14
1.47636563e+01 6.65560824e-12 8.42852675e-14 0.00000000e+00 6.57132297e-12 0.00000000e+00 8.42852675e-14
1.52577522e+01 6.88221128e-12 7.63592720e-14 0.00000000e+00 6.80585201e-12 0.00000000e+00 7.63592720e-14
1.57683840e+01 7.15342453e-12 6.91786191e-14 0.00000000e+00 7.08424592e-12 0.00000000e+00 6.91786191e-14
1.62961051e+01 7.44809543e-12 6.26732185e-14 0.00000000e+00 7.38542221e-12 0.00000000e+00 6.26732185e-14
1.68414875e+01 7.74510618e-12 5.67795711e-14 0.00000000e+00 7.68832661e-12 0.00000000e+00 5.67795711e-14
1.74051222e+01 7.96172968e-12 5.14401489e-14 0.00000000e+00 7.91028953e-12 0.00000000e+00 5.14401489e-14
1.79876201e+01 8.10819388e-12 4.66028339e-14 0.00000000e+00 8.06159105e-12 0.00000000e+00 4.66028339e-14
1.85896125e+01 8.11067286e-12 4.22204090e-14 0.00000000e+00 8.06845245e-12 0.00000000e+00 4.22204090e-14
1.92117518e+01 8.05165240e-12 3.82500974e-14 0.00000000e+00 8.01340230e-12 0.00000000e+00 3.82500974e-14
1.98547123e+01 7.87291792e-12 3.46531450e-14 0.00000000e+00 7.83826478e-12 0.00000000e+00 3.46531450e-14
2.05191907e+01 7.66847251e-12 3.13944418e-14 0.00000000e+00 7.63707807e-12 0.00000000e+00 3.13944418e-14
2.12059073e+01 7.44027112e-12 2.84421796e-14 0.00000000e+00 7.41182894e-12 0.00000000e+00 2.84421796e-14
2.19156062e+01 7.23712858e-12 2.57675415e-14 0.00000000e+00 7.21136104e-12 0.00000000e+00 2.57675415e-14
2.26490567e+01 7.04420000e-12 2.33444203e-14 0.00000000e+00 7.02085558e-12 0.00000000e+00 2.33444203e-14
2.34070535e+01 6.83654882e-12 2.11491639e-14 0.00000000e+00 6.81539966e-12 0.00000000e+00 2.11491639e-14
2.41904183e+01 6.63648174e-12 1.91603445e-14 0.00000000e+00 6.61732139e-12 0.00000000e+00 1.91603445e-14
2.50000000e+01 6.43191853e-12 1.73585491e-14 0.00000000e+00 6.41455998e-12 0.00000000e+00 1.73585491e-14
2.75422870e+01 5.79437686e-12 1.29817562e-14 0.00000000e+00 5.78139511e-12 0.00000000e+00 1.29817562e-14
3.16227766e+01 4.78622454e-12 8.57696126e-15 0.00000000e+00 4.77764758e-12 0.00000000e+00 8.57696126e-15
3.63078055e+01 3.71231308e-12 5.66674211e-15 0.00000000e+00 3.70664634e-12 0.00000000e+00 5.66674211e-15
4.16869383e+01 2.67234581e-12 3.74397938e-15 0.00000000e+00 2.66860183e-12 0.00000000e+00 3.74397938e-15
4.78630092e+01 1.78896539e-12 2.47362265e-15 0.00000000e+00 1.78649177e-12 0.00000000e+00 2.47362265e-15
5.49540874e+01 1.12947952e-12 1.63430628e-15 0.00000000e+00 1.12784521e-12 0.00000000e+00 1.63430628e-15
6.30957344e+01 6.81027241e-13 1.07977545e-15 0.00000000e+00 6.79947465e-13 0.00000000e+00 1.07977545e-15
7.24435960e+01 3.95801597e-13 7.13400564e-16 0.00000000e+00 3.95088196e-13 0.00000000e+00 7.13400564e-16
8.31763771e+01 2.24240282e-13 4.71339078e-16 0.00000000e+00 2.23768943e-13 0.00000000e+00 4.71339078e-16
9.54992586e+01 1.24690852e-13 3.11410641e-16 0.00000000e+00 1.24379442e-13 0.00000000e+00 3.11410641e-16
1.09647820e+02 6.83994542e-14 2.05746970e-16 0.00000000e+00 6.81937072e-14 0.00000000e+00 2.05746970e-16
1.25892541e+02 3.75668258e-14 1.35935675e-16 0.00000000e+00 3.74308901e-14 0.00000000e+00 1.35935675e-16
1.44543977e+02 2.05406231e-14 8.98118099e-17 0.00000000e+00 2.04508113e-14 0.00000000e+00 8.98118099e-17
1.65958691e+02 1.07043667e-14 5.93380743e-17 0.00000000e+00 1.06450286e-14 0.00000000e+00 5.93380743e-17
1.90546072e+02 5.59004917e-15 3.92042769e-17 0.00000000e+00 5.55084489e-15 0.00000000e+00 3.92042769e-17
2.18776162e+02 2.91739332e-15 2.59020089e-17 0.00000000e+00 2.89149132e-15 0.00000000e+00 2.59020089e-17
2.51188643e+02 1.51885060e-15 1.71132876e-17 0.00000000e+00 1.50173731e-15 0.00000000e+00 1.71132876e-17
2.88403150e+02 7.87874515e-16 1.13066370e-17 0.00000000e+00 7.76567878e-16 0.00000000e+00 1.13066370e-17
3.31131121e+02 4.08046382e-16 7.47022097e-18 0.00000000e+00 4.00576161e-16 0.00000000e+00 7.47022097e-18
3.80189396e+02 2.10816956e-16 4.93552605e-18 0.00000000e+00 2.05881430e-16 0.00000000e+00 4.93552605e-18
4.36515832e+02 1.08827367e-16 3.26086972e-18 0.00000000e+00 1.05566498e-16 0.00000000e+00 3.26086972e-18
5.01187234e+02 5.61427639e-17 2.15443526e-18 0.00000000e+00 5.39883287e-17 0.00000000e+00 2.15443526e-18
5.75439937e+02 2.89743964e-17 1.42342126e-18 0.00000000e+00 2.75509751e-17 0.00000000e+00 1.42342126e-18
6.60693448e+02 1.49736318e-17 9.40445101e-19 0.00000000e+00 1.40331867e-17 0.00000000e+00 9.40445101e-19
7.58577575e+02 7.75748365e-18 6.21345916e-19 0.00000000e+00 7.13613773e-18 0.00000000e+00 6.21345916e-19
8.70963590e+02 4.03328275e-18 4.10519176e-19 0.00000000e+00 3.62276357e-18 0.00000000e+00 4.10519176e-19
1.00000000e+03 1.83622111e-18 0.00000000e+00 0.00000000e+00 1.83622111e-18 0.00000000e+00 0.00000000e+00
