# column 1: lambda (micron)
# column 2: total flux; lambda*F_lambda (W/m2)
# column 3: direct stellar flux; lambda*F_lambda (W/m2)
# column 4: scattered stellar flux; lambda*F_lambda (W/m2)
# column 5: total dust emission flux; lambda*F_lambda (W/m2)
# column 6: dust emission scattered flux; lambda*F_lambda (W/m2)
# column 7: transparent flux; lambda*F_lambda (W/m2)
1.00000000e-03 1.07335680e-12 1.07335627e-12 5.30187166e-19 0.00000000e+00 0.00000000e+00 1.07335627e-12
1.14815362e-03 1.26690536e-12 1.26690456e-12 8.06404262e-19 0.00000000e+00 0.00000000e+00 1.26690456e-12
1.31825674e-03 1.49535480e-12 1.49535359e-12 1.20566601e-18 0.00000000e+00 0.00000000e+00 1.49535359e-12
1.51356125e-03 1.76499856e-12 1.76499670e-12 1.86443255e-18 0.00000000e+00 0.00000000e+00 1.76499670e-12
1.73780083e-03 2.08326537e-12 2.08326203e-12 3.34800887e-18 0.00000000e+00 0.00000000e+00 2.08326203e-12
1.99526231e-03 2.45892310e-12 2.45891716e-12 5.93967771e-18 0.00000000e+00 0.00000000e+00 2.45891716e-12
2.29086765e-03 2.90231976e-12 2.90231066e-12 9.09058174e-18 0.00000000e+00 0.00000000e+00 2.90231066e-12
2.63026799e-03 3.42567544e-12 3.42565717e-12 1.82730737e-17 0.00000000e+00 0.00000000e+00 3.42565717e-12
3.01995172e-03 4.04340418e-12 4.04337385e-12 3.03355477e-17 0.00000000e+00 0.00000000e+00 4.04337385e-12
3.46736850e-03 4.77252787e-12 4.77247759e-12 5.02772527e-17 0.00000000e+00 0.00000000e+00 4.77247759e-12
3.98107171e-03 5.63313391e-12 5.63305378e-12 8.01272103e-17 0.00000000e+00 0.00000000e+00 5.63305378e-12
4.57088190e-03 6.64899300e-12 6.64880962e-12 1.83384899e-16 0.00000000e+00 0.00000000e+00 6.64880962e-12
5.24807460e-03 7.84805146e-12 7.84772720e-12 3.24266309e-16 0.00000000e+00 0.00000000e+00 7.84772720e-12
6.02559586e-03 9.26344078e-12 9.26283435e-12 6.06428494e-16 0.00000000e+00 0.00000000e+00 9.26283435e-12
6.91830971e-03 1.09340152e-11 1.09331145e-11 9.00639151e-16 0.00000000e+00 0.00000000e+00 1.09331145e-11
7.94328235e-03 1.29061304e-11 1.29045807e-11 1.54973786e-15 1.29226506e-303 1.30350711e-306 1.29045807e-11
9.12010839e-03 1.52340106e-11 1.52315429e-11 2.46767180e-15 5.75341446e-265 8.82607480e-268 1.52315429e-11
1.04712855e-02 1.70150723e-11 1.70115517e-11 3.52063070e-15 2.46714044e-231 7.65639655e-234 1.70115517e-11
1.20226443e-02 1.70196689e-11 1.70115517e-11 8.11714007e-15 3.92525669e-202 3.09176300e-204 1.70115517e-11
1.38038426e-02 1.70233919e-11 1.70115517e-11 1.18402058e-14 1.07544950e-176 4.53451481e-179 1.70115517e-11
1.58489319e-02 1.70264099e-11 1.70115517e-11 1.48581476e-14 1.46833877e-154 8.29972788e-157 1.70115517e-11
1.81970086e-02 1.70411465e-11 1.70115517e-11 2.95947740e-14 2.64032155e-135 1.86049912e-137 1.70115517e-11
2.08929613e-02 1.70363189e-11 1.70115517e-11 2.47672135e-14 1.39097178e-118 1.43396660e-120 1.70115517e-11
2.39883292e-02 1.70459669e-11 1.70115517e-11 3.44151368e-14 4.92083271e-104 7.13467966e-106 1.70115517e-11
2.75422870e-02 1.70553297e-11 1.70115517e-11 4.37779387e-14 2.21787011e-91 4.09006917e-93 1.70115517e-11
3.16227766e-02 1.70627468e-11 1.70115517e-11 5.11951161e-14 2.17568425e-80 4.86420788e-82 1.70115517e-11
3.63078055e-02 1.70713002e-11 1.70115517e-11 5.97484781e-14 7.58591037e-71 1.96331253e-72 1.70115517e-11
4.16869383e-02 1.70952122e-11 1.70115517e-11 8.36605108e-14 1.45556330e-62 5.24552603e-64 1.70115517e-11
4.78630092e-02 1.71250036e-11 1.70115517e-11 1.13451882e-13 2.22445882e-55 1.10683871e-56 1.70115517e-11
5.49540874e-02 1.71545528e-11 1.70115517e-11 1.43001108e-13 3.73196370e-49 2.28371684e-50 1.70115517e-11
6.30957344e-02 1.71911873e-11 1.70115517e-11 1.79635572e-13 1.21977198e-43 9.08701605e-45 1.70115517e-11
7.24435960e-02 1.71902214e-11 1.70115517e-11 1.78669728e-13 7.08755031e-39 5.19558686e-40 1.70115517e-11
8.31763771e-02 1.71888040e-11 1.70115517e-11 1.77252248e-13 7.25972918e-35 5.22406757e-36 1.70115517e-11
9.54992586e-02 1.71942412e-11 1.70115517e-11 1.82689444e-13 2.05193639e-31 1.55180422e-32 1.70115517e-11
1.09647820e-01 1.64286222e-11 1.62459122e-11 1.82710059e-13 1.74469436e-28 1.41615755e-29 1.62459122e-11
1.25892541e-01 1.53258679e-11 1.51615674e-11 1.64300551e-13 5.62899630e-26 4.31306078e-27 1.51615674e-11
1.44543977e-01 1.42922254e-11 1.41495980e-11 1.42627400e-13 7.64582539e-24 5.59572053e-25 1.41495980e-11
1.65958691e-01 1.33556179e-11 1.32051732e-11 1.50444730e-13 3.88139051e-22 3.12131150e-23 1.32051732e-11
1.90546072e-01 1.25022358e-11 1.23237846e-11 1.78451162e-13 8.25049711e-21 8.09301034e-22 1.23237846e-11
2.18776162e-01 1.16808881e-11 1.15012250e-11 1.79662995e-13 9.82844569e-20 1.03661671e-20 1.15012250e-11
2.51188643e-01 1.09421911e-11 1.07335677e-11 2.08622187e-13 1.20187275e-18 1.53878072e-19 1.07335677e-11
2.88403150e-01 1.02051113e-11 1.00171482e-11 1.87953163e-13 9.94581185e-18 1.21631044e-18 1.00171482e-11
3.31131121e-01 9.51715686e-12 9.34854667e-12 1.68553371e-13 5.68189144e-17 6.68659156e-18 9.34854667e-12
3.80189396e-01 8.87671663e-12 8.72457139e-12 1.51909066e-13 2.36171503e-16 2.68180281e-17 8.72457139e-12
4.36515832e-01 8.28517035e-12 8.14224377e-12 1.42178024e-13 7.48550794e-16 8.42226228e-17 8.14224377e-12
5.01187234e-01 7.73212700e-12 7.59878402e-12 1.31450138e-13 1.89284480e-15 2.15712857e-16 7.59878402e-12
5.75439937e-01 7.21714124e-12 7.09159786e-12 1.21477043e-13 4.06633068e-15 4.79931838e-16 7.09159786e-12
6.60693448e-01 6.74017590e-12 6.61826421e-12 1.13765039e-13 8.14665540e-15 1.08667365e-15 6.61826421e-12
7.58577575e-01 6.29885883e-12 6.17652353e-12 1.05656520e-13 1.66787712e-14 2.60101104e-15 6.17652353e-12
8.70963590e-01 5.89331772e-12 5.76426715e-12 9.27656029e-14 3.62849675e-14 6.30784675e-15 5.76426715e-12
1.00000000e+00 5.54143203e-12 5.37952711e-12 8.19577483e-14 7.99471746e-14 1.43214638e-14 5.37952711e-12
1.14815362e+00 5.26013943e-12 5.02046681e-12 6.88761867e-14 1.70796435e-13 2.90274053e-14 5.02046681e-12
1.31825674e+00 5.08394490e-12 4.68537225e-12 5.71522649e-14 3.41420391e-13 5.22931439e-14 4.68537225e-12
1.51356125e+00 5.04208159e-12 4.37264380e-12 4.58249400e-14 6.23612847e-13 8.42488700e-14 4.37264380e-12
1.73780083e+00 5.13753250e-12 4.08078863e-12 3.55224901e-14 1.02122137e-12 1.17263203e-13 4.08078863e-12
1.99526231e+00 5.33232922e-12 3.80841354e-12 2.68294866e-14 1.49708619e-12 1.41210493e-13 3.80841354e-12
2.29086765e+00 5.57099273e-12 3.55421832e-12 1.98914593e-14 1.99688296e-12 1.49539743e-13 3.55421832e-12
2.63026799e+00 5.78371831e-12 3.31698953e-12 1.39857355e-14 2.45274305e-12 1.42839600e-13 3.31698953e-12
3.01995172e+00 5.90953495e-12 3.09559474e-12 9.83308192e-15 2.80410712e-12 1.24007549e-13 3.09559474e-12
3.46736850e+00 5.92705784e-12 2.88897711e-12 6.69542518e-15 3.03138531e-12 9.89520311e-14 2.88897711e-12
3.98107171e+00 5.80658460e-12 2.69615031e-12 4.59996028e-15 3.10583433e-12 7.36834447e-14 2.69615031e-12
4.57088190e+00 5.57494249e-12 2.51619387e-12 2.95765587e-15 3.05579096e-12 5.00745858e-14 2.51619387e-12
5.24807460e+00 5.01091114e-12 2.08050667e-12 1.66989638e-15 2.92873458e-12 3.23996721e-14 2.08050667e-12
6.02559586e+00 4.13924473e-12 1.37457712e-12 7.14707842e-16 2.76395290e-12 1.95367861e-14 1.37457712e-12
6.70000000e+00 3.61006742e-12 9.99872685e-13 3.60740137e-16 2.60983400e-12 1.27779553e-14 9.99872685e-13
6.92422916e+00 3.46195886e-12 9.05846924e-13 2.86069340e-16 2.55582587e-12 1.10370892e-14 9.05846924e-13
7.15596261e+00 3.34750767e-12 8.20663132e-13 2.27046924e-16 2.52661749e-12 9.48749474e-15 8.20663132e-13
7.39545150e+00 3.28951868e-12 7.43489831e-13 1.70158483e-16 2.54585869e-12 8.11254109e-15 7.43489831e-13
7.64295536e+00 3.37721920e-12 6.73573732e-13 1.22227648e-16 2.70352324e-12 6.89310699e-15 6.73573732e-13
7.89874245e+00 3.67779520e-12 6.10232385e-13 7.74353030e-17 3.06748538e-12 5.72636724e-15 6.10232385e-13
8.16308998e+00 4.11502132e-12 5.52847515e-13 4.70421362e-17 3.56212676e-12 4.67134689e-15 5.52847515e-13
8.43628443e+00 4.72501504e-12 5.00858987e-13 2.61232522e-17 4.22412993e-12 3.62757441e-15 5.00858987e-13
8.71862190e+00 5.11965953e-12 4.53759343e-13 1.65933967e-17 4.66588359e-12 2.85609591e-15 4.53759343e-13
9.01040836e+00 5.46584674e-12 4.11088843e-13 1.00851760e-17 5.05474781e-12 2.09821736e-15 4.11088843e-13
9.31196005e+00 5.75501425e-12 3.72430980e-13 0.00000000e+00 5.38258327e-12 0.00000000e+00 3.72430980e-13
9.62360379e+00 5.70219654e-12 3.37408415e-13 0.00000000e+00 5.36478813e-12 0.00000000e+00 3.37408415e-13
9.94567731e+00 5.38086315e-12 3.05679292e-13 0.00000000e+00 5.07518385e-12 0.00000000e+00 3.05679292e-13
1.02785297e+01 5.00374034e-12 2.76933904e-13 0.00000000e+00 4.72680644e-12 0.00000000e+00 2.76933904e-13
1.06225216e+01 4.62912744e-12 2.50891667e-13 0.00000000e+00 4.37823577e-12 0.00000000e+00 2.50891667e-13
1.09780260e+01 4.23389981e-12 2.27298384e-13 0.00000000e+00 4.00660142e-12 0.00000000e+00 2.27298384e-13
1.13454280e+01 3.88034190e-12 2.05923759e-13 0.00000000e+00 3.67441814e-12 0.00000000e+00 2.05923759e-13
1.17251259e+01 3.55979509e-12 1.86559155e-13 0.00000000e+00 3.37323594e-12 0.00000000e+00 1.86559155e-13
1.21175312e+01 3.27776279e-12 1.69015555e-13 0.00000000e+00 3.10874724e-12 0.00000000e+00 1.69015555e-13
1.25230691e+01 3.00143356e-12 1.53121715e-13 0.00000000e+00 2.84831184e-12 0.00000000e+00 1.53121715e-13
1.29421791e+01 2.77164476e-12 1.38722496e-13 0.00000000e+00 2.63292227e-12 0.00000000e+00 1.38722496e-13
1.33753155e+01 2.56434967e-12 1.25677347e-13 0.00000000e+00 2.43867232e-12 0.00000000e+00 1.25677347e-13
1.38229477e+01 2.42200725e-12 1.13858934e-13 0.00000000e+00 2.30814832e-12 0.00000000e+00 1.13858934e-13
1.42855609e+01 2.34987208e-12 1.03151898e-13 0.00000000e+00 2.24672018e-12 0.00000000e+00 1.03151898e-13
1.47636563e+01 2.36971835e-12 9.34517274e-14 0.00000000e+00 2.27626662e-12 0.00000000e+00 9.34517274e-14
1.52577522e+01 2.41484482e-12 8.46637387e-14 0.00000000e+00 2.33018108e-12 0.00000000e+00 8.46637387e-14
1.57683840e+01 2.48330321e-12 7.67021526e-14 0.00000000e+00 2.40660105e-12 0.00000000e+00 7.67021526e-14
1.62961051e+01 2.54289826e-12 6.94892560e-14 0.00000000e+00 2.47340900e-12 0.00000000e+00 6.94892560e-14
1.68414875e+01 2.59488053e-12 6.29546439e-14 0.00000000e+00 2.53192589e-12 0.00000000e+00 6.29546439e-14
1.74051222e+01 2.62679711e-12 5.70345319e-14 0.00000000e+00 2.56976258e-12 0.00000000e+00 5.70345319e-14
1.79876201e+01 2.63084464e-12 5.16711337e-14 0.00000000e+00 2.57917350e-12 0.00000000e+00 5.16711337e-14
1.85896125e+01 2.59976434e-12 4.68120974e-14 0.00000000e+00 2.55295225e-12 0.00000000e+00 4.68120974e-14
1.92117518e+01 2.51586924e-12 4.24099939e-14 0.00000000e+00 2.47345925e-12 0.00000000e+00 4.24099939e-14
1.98547123e+01 2.42909016e-12 3.84218542e-14 0.00000000e+00 2.39066831e-12 0.00000000e+00 3.84218542e-14
2.05191907e+01 2.32047858e-12 3.48087501e-14 0.00000000e+00 2.28566983e-12 0.00000000e+00 3.48087501e-14
2.12059073e+01 2.22540121e-12 3.15354141e-14 0.00000000e+00 2.19386579e-12 0.00000000e+00 3.15354141e-14
2.19156062e+01 2.12458011e-12 2.85698952e-14 0.00000000e+00 2.09601021e-12 0.00000000e+00 2.85698952e-14
2.26490567e+01 2.03876124e-12 2.58832470e-14 0.00000000e+00 2.01287799e-12 0.00000000e+00 2.58832470e-14
2.34070535e+01 1.94667653e-12 2.34492452e-14 0.00000000e+00 1.92322729e-12 0.00000000e+00 2.34492452e-14
2.41904183e+01 1.85560440e-12 2.12441313e-14 0.00000000e+00 1.83436026e-12 0.00000000e+00 2.12441313e-14
2.50000000e+01 1.76749785e-12 1.92463813e-14 0.00000000e+00 1.74825147e-12 0.00000000e+00 1.92463813e-14
2.75422870e+01 1.52270434e-12 1.43935895e-14 0.00000000e+00 1.50831075e-12 0.00000000e+00 1.43935895e-14
3.16227766e+01 1.18518116e-12 9.50975027e-15 0.00000000e+00 1.17567141e-12 0.00000000e+00 9.50975027e-15
3.63078055e+01 8.74422348e-13 6.28302969e-15 0.00000000e+00 8.68139319e-13 0.00000000e+00 6.28302969e-15
4.16869383e+01 6.01460890e-13 4.15115655e-15 0.00000000e+00 5.97309733e-13 0.00000000e+00 4.15115655e-15
4.78630092e+01 3.87647366e-13 2.74264194e-15 0.00000000e+00 3.84904724e-13 0.00000000e+00 2.74264194e-15
5.49540874e+01 2.36958553e-13 1.81204556e-15 0.00000000e+00 2.35146507e-13 0.00000000e+00 1.81204556e-15
6.30957344e+01 1.38935732e-13 1.19720663e-15 0.00000000e+00 1.37738525e-13 0.00000000e+00 1.19720663e-15
7.24435960e+01 7.88442101e-14 7.90986575e-16 0.00000000e+00 7.80532235e-14 0.00000000e+00 7.90986575e-16
8.31763771e+01 4.37700871e-14 5.22599647e-16 0.00000000e+00 4.32474875e-14 0.00000000e+00 5.22599647e-16
9.54992586e+01 2.39202997e-14 3.45278163e-16 0.00000000e+00 2.35750216e-14 0.00000000e+00 3.45278163e-16
1.09647820e+02 1.29389250e-14 2.28123020e-16 0.00000000e+00 1.27108020e-14 0.00000000e+00 2.28123020e-16
1.25892541e+02 7.02657164e-15 1.50719385e-16 0.00000000e+00 6.87585225e-15 0.00000000e+00 1.50719385e-16
1.44543977e+02 3.80969243e-15 9.95793099e-17 0.00000000e+00 3.71011312e-15 0.00000000e+00 9.95793099e-17
1.65958691e+02 1.97551875e-15 6.57913976e-17 0.00000000e+00 1.90972736e-15 0.00000000e+00 6.57913976e-17
1.90546072e+02 1.02972226e-15 4.34679453e-17 0.00000000e+00 9.86254317e-16 0.00000000e+00 4.34679453e-17
2.18776162e+02 5.38179294e-16 2.87189867e-17 0.00000000e+00 5.09460307e-16 0.00000000e+00 2.87189867e-17
2.51188643e+02 2.81670759e-16 1.89744463e-17 0.00000000e+00 2.62696312e-16 0.00000000e+00 1.89744463e-17
2.88403150e+02 1.47539078e-16 1.25362924e-17 0.00000000e+00 1.35002785e-16 0.00000000e+00 1.25362924e-17
3.31131121e+02 7.75459747e-17 8.28264623e-18 0.00000000e+00 6.92633285e-17 0.00000000e+00 8.28264623e-18
3.80189396e+02 4.09049695e-17 5.47229010e-18 0.00000000e+00 3.54326794e-17 0.00000000e+00 5.47229010e-18
4.36515832e+02 2.17108316e-17 3.61550621e-18 0.00000000e+00 1.80953254e-17 0.00000000e+00 3.61550621e-18
5.01187234e+02 1.16107712e-17 2.38874127e-18 0.00000000e+00 9.22202990e-18 0.00000000e+00 2.38874127e-18
5.75439937e+02 6.27010426e-18 1.57822570e-18 0.00000000e+00 4.69187856e-18 0.00000000e+00 1.57822570e-18
6.60693448e+02 3.42631824e-18 1.04272338e-18 0.00000000e+00 2.38359486e-18 0.00000000e+00 1.04272338e-18
7.58577575e+02 1.89826968e-18 6.88920507e-19 0.00000000e+00 1.20934917e-18 0.00000000e+00 6.88920507e-19
8.70963590e+02 1.06789896e-18 4.55165265e-19 0.00000000e+00 6.12733698e-19 0.00000000e+00 4.55165265e-19
1.00000000e+03 3.10038802e-19 0.00000000e+00 0.00000000e+00 3.10038802e-19 0.00000000e+00 0.00000000e+00
