# column 1: lambda (micron)
# column 2: total flux; lambda*F_lambda (W/m2)
# column 3: direct stellar flux; lambda*F_lambda (W/m2)
# column 4: scattered stellar flux; lambda*F_lambda (W/m2)
# column 5: total dust emission flux; lambda*F_lambda (W/m2)
# column 6: dust emission scattered flux; lambda*F_lambda (W/m2)
# column 7: transparent flux; lambda*F_lambda (W/m2)
1.00000000e-03 9.68082405e-13 9.68073281e-13 9.12343070e-18 0.00000000e+00 0.00000000e+00 9.68073281e-13
1.14815362e-03 1.14265071e-12 1.14263687e-12 1.38404186e-17 0.00000000e+00 0.00000000e+00 1.14263687e-12
1.31825674e-03 1.34869870e-12 1.34867788e-12 2.08258748e-17 0.00000000e+00 0.00000000e+00 1.34867788e-12
1.51356125e-03 1.59190345e-12 1.59187233e-12 3.11158029e-17 0.00000000e+00 0.00000000e+00 1.59187233e-12
1.73780083e-03 1.87897727e-12 1.87891976e-12 5.75083281e-17 0.00000000e+00 0.00000000e+00 1.87891976e-12
1.99526231e-03 2.21783054e-12 2.21772777e-12 1.02772073e-16 0.00000000e+00 0.00000000e+00 2.21772777e-12
2.29086765e-03 2.61778121e-12 2.61762985e-12 1.51367208e-16 0.00000000e+00 0.00000000e+00 2.61762985e-12
2.63026799e-03 3.08996237e-12 3.08964252e-12 3.19847828e-16 0.00000000e+00 0.00000000e+00 3.08964252e-12
3.01995172e-03 3.64728966e-12 3.64676883e-12 5.20828212e-16 0.00000000e+00 0.00000000e+00 3.64676883e-12
3.46736850e-03 4.30524232e-12 4.30435650e-12 8.85820031e-16 0.00000000e+00 0.00000000e+00 4.30435650e-12
3.98107171e-03 5.08193824e-12 5.08052080e-12 1.41743746e-15 0.00000000e+00 0.00000000e+00 5.08052080e-12
4.57088190e-03 6.00379416e-12 5.99664354e-12 7.15062498e-15 0.00000000e+00 0.00000000e+00 5.99664354e-12
5.24807460e-03 7.08374647e-12 7.07796211e-12 5.78435822e-15 0.00000000e+00 0.00000000e+00 7.07796211e-12
6.02559586e-03 8.36428354e-12 8.35426474e-12 1.00187955e-14 0.00000000e+00 0.00000000e+00 8.35426474e-12
6.91830971e-03 9.87791926e-12 9.86071107e-12 1.72081885e-14 0.00000000e+00 0.00000000e+00 9.86071107e-12
7.94328235e-03 1.16686338e-11 1.16388008e-11 2.98330062e-14 0.00000000e+00 0.00000000e+00 1.16388008e-11
9.12010839e-03 1.37836255e-11 1.37375167e-11 4.61087566e-14 0.00000000e+00 0.00000000e+00 1.37375167e-11
1.04712855e-02 1.54065255e-11 1.53429287e-11 6.35968264e-14 0.00000000e+00 0.00000000e+00 1.53429287e-11
1.20226443e-02 1.54371808e-11 1.53429287e-11 9.42521006e-14 3.41225959e-298 9.14774394e-299 1.53429287e-11
1.38038426e-02 1.54986553e-11 1.53429287e-11 1.55726611e-13 1.35209966e-260 2.81329628e-261 1.53429287e-11
1.58489319e-02 1.55532406e-11 1.53429287e-11 2.10311888e-13 8.20802918e-228 2.18184717e-228 1.53429287e-11
1.81970086e-02 1.56254635e-11 1.53429287e-11 2.82534787e-13 2.51416165e-199 6.09748671e-200 1.53429287e-11
2.08929613e-02 1.57432063e-11 1.53429287e-11 4.00277682e-13 1.52301322e-174 3.94728588e-175 1.53429287e-11
2.39883292e-02 1.58360397e-11 1.53429287e-11 4.93111081e-13 5.39146037e-153 1.34162081e-153 1.53429287e-11
2.75422870e-02 1.59610091e-11 1.53429287e-11 6.18080472e-13 3.04497143e-134 7.54760311e-135 1.53429287e-11
3.16227766e-02 1.60353480e-11 1.53429287e-11 6.92419352e-13 5.98126791e-118 1.40415457e-118 1.53429287e-11
3.63078055e-02 1.60985484e-11 1.53429287e-11 7.55619698e-13 8.74327941e-104 2.00117223e-104 1.53429287e-11
4.16869383e-02 1.62480097e-11 1.53429287e-11 9.05081045e-13 1.78078128e-91 4.06967564e-92 1.53429287e-11
4.78630092e-02 1.63077580e-11 1.53429287e-11 9.64829293e-13 8.21841601e-81 1.84115533e-81 1.53429287e-11
5.49540874e-02 1.63359063e-11 1.53429287e-11 9.92977611e-13 1.43827585e-71 3.26040842e-72 1.53429287e-11
6.30957344e-02 1.62590208e-11 1.53429287e-11 9.16092150e-13 1.71546159e-63 3.99678139e-64 1.53429287e-11
7.24435960e-02 1.60990779e-11 1.53429287e-11 7.56149215e-13 1.58805770e-56 3.69480485e-57 1.53429287e-11
8.31763771e-02 1.60859580e-11 1.53429287e-11 7.43029337e-13 1.75043563e-50 3.89572758e-51 1.53429287e-11
9.54992586e-02 1.61028290e-11 1.53429287e-11 7.59900385e-13 3.09277916e-45 6.69663765e-46 1.53429287e-11
1.09647820e-01 1.54741999e-11 1.46523889e-11 8.21811032e-13 1.14616885e-40 2.45264575e-41 1.46523889e-11
1.25892541e-01 1.45012037e-11 1.36744049e-11 8.26798756e-13 1.05120146e-36 2.12676111e-37 1.36744049e-11
1.44543977e-01 1.35521004e-11 1.27616972e-11 7.90403158e-13 2.93982827e-33 5.57881059e-34 1.27616972e-11
1.65958691e-01 1.26937008e-11 1.19099088e-11 7.83791996e-13 2.46740182e-30 4.87023065e-31 1.19099088e-11
1.90546072e-01 1.19144249e-11 1.11149736e-11 7.99451270e-13 7.20209882e-28 1.62797080e-28 1.11149736e-11
2.18776162e-01 1.10579091e-11 1.03730969e-11 6.84812204e-13 9.95251163e-26 2.41308769e-26 1.03730969e-11
2.51188643e-01 1.04416291e-11 9.68073733e-12 7.60891785e-13 1.33463455e-23 4.03099031e-24 9.68073733e-12
2.88403150e-01 9.75479042e-12 9.03458975e-12 7.20200668e-13 9.71848782e-22 3.12858615e-22 9.03458975e-12
3.31131121e-01 9.12059926e-12 8.43156974e-12 6.89029482e-13 3.95414165e-20 1.31754458e-20 8.43156974e-12
3.80189396e-01 8.49666927e-12 7.86879872e-12 6.27869581e-13 9.61034668e-19 3.25282846e-19 7.86879872e-12
4.36515832e-01 7.92030080e-12 7.34359025e-12 5.76695368e-13 1.51793039e-17 5.23252958e-18 7.34359025e-12
5.01187234e-01 7.37983776e-12 6.85343719e-12 5.26242559e-13 1.58013909e-16 5.45332089e-17 6.85343719e-12
5.75439937e-01 6.87182039e-12 6.39599973e-12 4.74661086e-13 1.15957291e-15 3.94244732e-16 6.39599973e-12
6.60693448e-01 6.39342198e-12 5.96909425e-12 4.18116577e-13 6.21115234e-15 2.05839670e-15 5.96909425e-12
7.58577575e-01 5.96806065e-12 5.57068288e-12 3.71642414e-13 2.57353492e-14 8.27580378e-15 5.57068288e-12
8.70963590e-01 5.60724150e-12 5.19886376e-12 3.22433819e-13 8.59439236e-14 2.60399772e-14 5.19886376e-12
1.00000000e+00 5.35880042e-12 4.85186196e-12 2.70890397e-13 2.36048060e-13 6.64001880e-14 4.85186196e-12
1.14815362e+00 5.30998407e-12 4.52802104e-12 2.23274856e-13 5.58688166e-13 1.41948420e-13 4.52802104e-12
1.31825674e+00 5.57784403e-12 4.22579511e-12 1.73476515e-13 1.17857240e-12 2.61306250e-13 4.22579511e-12
1.51356125e+00 6.26946655e-12 3.94374146e-12 1.38495286e-13 2.18722980e-12 4.19153894e-13 3.94374146e-12
1.73780083e+00 7.39435589e-12 3.68051368e-12 1.08702412e-13 3.60513979e-12 5.81911266e-13 3.68051368e-12
1.99526231e+00 8.86267870e-12 3.43485522e-12 8.24875233e-14 5.34533595e-12 6.99913108e-13 3.43485522e-12
2.29086765e+00 1.03918127e-11 3.20559341e-12 6.11352705e-14 7.12508403e-12 7.30968577e-13 3.20559341e-12
2.63026799e+00 1.17891474e-11 2.99163384e-12 4.43931882e-14 8.75312039e-12 6.85933529e-13 2.99163384e-12
3.01995172e+00 1.28288473e-11 2.79195514e-12 3.10469179e-14 1.00058452e-11 5.83229666e-13 2.79195514e-12
3.46736850e+00 1.34040111e-11 2.60560415e-12 2.12766985e-14 1.07771302e-11 4.54384931e-13 2.60560415e-12
3.98107171e+00 1.35284091e-11 2.43169128e-12 1.40455073e-14 1.10826723e-11 3.28597791e-13 2.43169128e-12
4.57088190e+00 1.32630293e-11 2.26938634e-12 8.89699701e-15 1.09847460e-11 2.18601948e-13 2.26938634e-12
5.24807460e+00 1.25178446e-11 1.87643467e-12 4.88734881e-15 1.06365226e-11 1.38056939e-13 1.87643467e-12
6.02559586e+00 1.14151486e-11 1.23974809e-12 2.04368460e-15 1.01733568e-11 8.21683293e-14 1.23974809e-12
6.70000000e+00 1.06516761e-11 9.01797527e-13 1.01674340e-15 9.74886186e-12 5.32591496e-14 9.01797527e-13
6.92422916e+00 1.03949817e-11 8.16994532e-13 8.11986778e-16 9.57717519e-12 4.62120634e-14 8.16994532e-13
7.15596261e+00 1.02461194e-11 7.40166218e-13 6.36022817e-16 9.50531711e-12 4.00352940e-14 7.40166218e-13
7.39545150e+00 1.02497192e-11 6.70562664e-13 4.90759554e-16 9.57866580e-12 3.41651677e-14 6.70562664e-13
7.64295536e+00 1.07124778e-11 6.07504471e-13 3.50176312e-16 1.01046232e-11 2.91542934e-14 6.07504471e-13
7.89874245e+00 1.17773122e-11 5.50376127e-13 2.26462258e-16 1.12267096e-11 2.43064554e-14 5.50376127e-13
8.16308998e+00 1.32433145e-11 4.98620004e-13 1.38312937e-16 1.27445562e-11 1.99462501e-14 4.98620004e-13
8.43628443e+00 1.51106122e-11 4.51730909e-13 7.75222990e-17 1.46588037e-11 1.55736380e-14 4.51730909e-13
8.71862190e+00 1.61425529e-11 4.09251158e-13 4.75677373e-17 1.57332542e-11 1.22077638e-14 4.09251158e-13
9.01040836e+00 1.72241423e-11 3.70766106e-13 2.53193792e-17 1.68533509e-11 8.78028217e-15 3.70766106e-13
9.31196005e+00 1.79645814e-11 3.35900102e-13 0.00000000e+00 1.76286813e-11 0.00000000e+00 3.35900102e-13
9.62360379e+00 1.78782199e-11 3.04312818e-13 0.00000000e+00 1.75739071e-11 0.00000000e+00 3.04312818e-13
9.94567731e+00 1.71738098e-11 2.75695930e-13 0.00000000e+00 1.68981138e-11 0.00000000e+00 2.75695930e-13
1.02785297e+01 1.62097958e-11 2.49770110e-13 0.00000000e+00 1.59600257e-11 0.00000000e+00 2.49770110e-13
1.06225216e+01 1.53747331e-11 2.26282295e-13 0.00000000e+00 1.51484508e-11 0.00000000e+00 2.26282295e-13
1.09780260e+01 1.43927450e-11 2.05003220e-13 0.00000000e+00 1.41877418e-11 0.00000000e+00 2.05003220e-13
1.13454280e+01 1.35942570e-11 1.85725182e-13 0.00000000e+00 1.34085318e-11 0.00000000e+00 1.85725182e-13
1.17251259e+01 1.28147950e-11 1.68260007e-13 0.00000000e+00 1.26465350e-11 0.00000000e+00 1.68260007e-13
1.21175312e+01 1.20724525e-11 1.52437217e-13 0.00000000e+00 1.19200153e-11 0.00000000e+00 1.52437217e-13
1.25230691e+01 1.14314201e-11 1.38102367e-13 0.00000000e+00 1.12933177e-11 0.00000000e+00 1.38102367e-13
1.29421791e+01 1.08489684e-11 1.25115533e-13 0.00000000e+00 1.07238529e-11 0.00000000e+00 1.25115533e-13
1.33753155e+01 1.02930005e-11 1.13349952e-13 0.00000000e+00 1.01796505e-11 0.00000000e+00 1.13349952e-13
1.38229477e+01 9.95919662e-12 1.02690779e-13 0.00000000e+00 9.85650584e-12 0.00000000e+00 1.02690779e-13
1.42855609e+01 9.84860605e-12 9.30339713e-14 0.00000000e+00 9.75557208e-12 0.00000000e+00 9.30339713e-14
1.47636563e+01 1.00956877e-11 8.42852675e-14 0.00000000e+00 1.00114024e-11 0.00000000e+00 8.42852675e-14
1.52577522e+01 1.04352127e-11 7.63592720e-14 0.00000000e+00 1.03588535e-11 0.00000000e+00 7.63592720e-14
1.57683840e+01 1.08255977e-11 6.91786191e-14 0.00000000e+00 1.07564191e-11 0.00000000e+00 6.91786191e-14
1.62961051e+01 1.12565125e-11 6.26732185e-14 0.00000000e+00 1.11938393e-11 0.00000000e+00 6.26732185e-14
1.68414875e+01 1.16637430e-11 5.67795711e-14 0.00000000e+00 1.16069634e-11 0.00000000e+00 5.67795711e-14
1.74051222e+01 1.19796569e-11 5.14401489e-14 0.00000000e+00 1.19282168e-11 0.00000000e+00 5.14401489e-14
1.79876201e+01 1.21598754e-11 4.66028339e-14 0.00000000e+00 1.21132726e-11 0.00000000e+00 4.66028339e-14
1.85896125e+01 1.22627749e-11 4.22204090e-14 0.00000000e+00 1.22205545e-11 0.00000000e+00 4.22204090e-14
1.92117518e+01 1.22086132e-11 3.82500974e-14 0.00000000e+00 1.21703631e-11 0.00000000e+00 3.82500974e-14
1.98547123e+01 1.20062235e-11 3.46531450e-14 0.00000000e+00 1.19715703e-11 0.00000000e+00 3.46531450e-14
2.05191907e+01 1.17954367e-11 3.13944418e-14 0.00000000e+00 1.17640423e-11 0.00000000e+00 3.13944418e-14
2.12059073e+01 1.15434630e-11 2.84421796e-14 0.00000000e+00 1.15150208e-11 0.00000000e+00 2.84421796e-14
2.19156062e+01 1.12890086e-11 2.57675415e-14 0.00000000e+00 1.12632411e-11 0.00000000e+00 2.57675415e-14
2.26490567e+01 1.10114525e-11 2.33444203e-14 0.00000000e+00 1.09881081e-11 0.00000000e+00 2.33444203e-14
2.34070535e+01 1.07451189e-11 2.11491639e-14 0.00000000e+00 1.07239698e-11 0.00000000e+00 2.11491639e-14
2.41904183e+01 1.04622655e-11 1.91603445e-14 0.00000000e+00 1.04431052e-11 0.00000000e+00 1.91603445e-14
2.50000000e+01 1.01562246e-11 1.73585491e-14 0.00000000e+00 1.01388661e-11 0.00000000e+00 1.73585491e-14
2.75422870e+01 9.17183014e-12 1.29817562e-14 0.00000000e+00 9.15884839e-12 0.00000000e+00 1.29817562e-14
3.16227766e+01 7.60668845e-12 8.57696126e-15 0.00000000e+00 7.59811149e-12 0.00000000e+00 8.57696126e-15
3.63078055e+01 5.88923234e-12 5.66674211e-15 0.00000000e+00 5.88356559e-12 0.00000000e+00 5.66674211e-15
4.16869383e+01 4.23342014e-12 3.74397938e-15 0.00000000e+00 4.22967616e-12 0.00000000e+00 3.74397938e-15
4.78630092e+01 2.82807973e-12 2.47362265e-15 0.00000000e+00 2.82560611e-12 0.00000000e+00 2.47362265e-15
5.49540874e+01 1.78114454e-12 1.63430628e-15 0.00000000e+00 1.77951023e-12 0.00000000e+00 1.63430628e-15
6.30957344e+01 1.07079252e-12 1.07977545e-15 0.00000000e+00 1.06971274e-12 0.00000000e+00 1.07977545e-15
7.24435960e+01 6.19952745e-13 7.13400564e-16 0.00000000e+00 6.19239344e-13 0.00000000e+00 7.13400564e-16
8.31763771e+01 3.49690931e-13 4.71339078e-16 0.00000000e+00 3.49219592e-13 0.00000000e+00 4.71339078e-16
9.54992586e+01 1.93691738e-13 3.11410641e-16 0.00000000e+00 1.93380327e-13 0.00000000e+00 3.11410641e-16
1.09647820e+02 1.05848320e-13 2.05746970e-16 0.00000000e+00 1.05642573e-13 0.00000000e+00 2.05746970e-16
1.25892541e+02 5.79044679e-14 1.35935675e-16 0.00000000e+00 5.77685323e-14 0.00000000e+00 1.35935675e-16
1.44543977e+02 3.15422414e-14 8.98118099e-17 0.00000000e+00 3.14524296e-14 0.00000000e+00 8.98118099e-17
1.65958691e+02 1.63864567e-14 5.93380743e-17 0.00000000e+00 1.63271186e-14 0.00000000e+00 5.93380743e-17
1.90546072e+02 8.53080903e-15 3.92042769e-17 0.00000000e+00 8.49160475e-15 0.00000000e+00 3.92042769e-17
2.18776162e+02 4.43871774e-15 2.59020089e-17 0.00000000e+00 4.41281573e-15 0.00000000e+00 2.59020089e-17
2.51188643e+02 2.30416101e-15 1.71132876e-17 0.00000000e+00 2.28704772e-15 0.00000000e+00 1.71132876e-17
2.88403150e+02 1.19178380e-15 1.13066370e-17 0.00000000e+00 1.18047717e-15 0.00000000e+00 1.13066370e-17
3.31131121e+02 6.15408541e-16 7.47022097e-18 0.00000000e+00 6.07938320e-16 0.00000000e+00 7.47022097e-18
3.80189396e+02 3.16942037e-16 4.93552605e-18 0.00000000e+00 3.12006511e-16 0.00000000e+00 4.93552605e-18
4.36515832e+02 1.63043742e-16 3.26086972e-18 0.00000000e+00 1.59782872e-16 0.00000000e+00 3.26086972e-18
5.01187234e+02 8.37799697e-17 2.15443526e-18 0.00000000e+00 8.16255344e-17 0.00000000e+00 2.15443526e-18
5.75439937e+02 4.30379616e-17 1.42342126e-18 0.00000000e+00 4.16145403e-17 0.00000000e+00 1.42342126e-18
6.60693448e+02 2.21193097e-17 9.40445101e-19 0.00000000e+00 2.11788646e-17 0.00000000e+00 9.40445101e-19
7.58577575e+02 1.13832576e-17 6.21345916e-19 0.00000000e+00 1.07619117e-17 0.00000000e+00 6.21345916e-19
8.70963590e+02 5.87046056e-18 4.10519176e-19 0.00000000e+00 5.45994138e-18 0.00000000e+00 4.10519176e-19
1.00000000e+03 2.76586588e-18 0.00000000e+00 0.00000000e+00 2.76586588e-18 0.00000000e+00 0.00000000e+00
