# column 1: lambda (micron)
# column 2: total flux; lambda*F_lambda (W/m2)
# column 3: direct stellar flux; lambda*F_lambda (W/m2)
# column 4: scattered stellar flux; lambda*F_lambda (W/m2)
# column 5: total dust emission flux; lambda*F_lambda (W/m2)
# column 6: dust emission scattered flux; lambda*F_lambda (W/m2)
# column 7: transparent flux; lambda*F_lambda (W/m2)
1.00000000e-03 1.07336688e-12 1.07335627e-12 1.06096584e-17 0.00000000e+00 0.00000000e+00 1.07335627e-12
1.14815362e-03 1.26691918e-12 1.26690456e-12 1.46226853e-17 0.00000000e+00 0.00000000e+00 1.26690456e-12
1.31825674e-03 1.49537553e-12 1.49535359e-12 2.19438139e-17 0.00000000e+00 0.00000000e+00 1.49535359e-12
1.51356125e-03 1.76502980e-12 1.76499670e-12 3.30963526e-17 0.00000000e+00 0.00000000e+00 1.76499670e-12
1.73780083e-03 2.08331951e-12 2.08326203e-12 5.74829333e-17 0.00000000e+00 0.00000000e+00 2.08326203e-12
1.99526231e-03 2.45901481e-12 2.45891716e-12 9.76524313e-17 0.00000000e+00 0.00000000e+00 2.45891716e-12
2.29086765e-03 2.90250882e-12 2.90231066e-12 1.98158654e-16 0.00000000e+00 0.00000000e+00 2.90231066e-12
2.63026799e-03 3.42595283e-12 3.42565717e-12 2.95664006e-16 0.00000000e+00 0.00000000e+00 3.42565717e-12
3.01995172e-03 4.04388311e-12 4.04337385e-12 5.09266616e-16 0.00000000e+00 0.00000000e+00 4.04337385e-12
3.46736850e-03 4.77328180e-12 4.77247759e-12 8.04214252e-16 0.00000000e+00 0.00000000e+00 4.77247759e-12
3.98107171e-03 5.63434067e-12 5.63305378e-12 1.28688668e-15 0.00000000e+00 0.00000000e+00 5.63305378e-12
4.57088190e-03 6.65173773e-12 6.64880962e-12 2.92811489e-15 0.00000000e+00 0.00000000e+00 6.64880962e-12
5.24807460e-03 7.85289801e-12 7.84772720e-12 5.17081721e-15 0.00000000e+00 0.00000000e+00 7.84772720e-12
6.02559586e-03 9.27197380e-12 9.26283435e-12 9.13944237e-15 0.00000000e+00 0.00000000e+00 9.26283435e-12
6.91830971e-03 1.09482360e-11 1.09331145e-11 1.51215045e-14 0.00000000e+00 0.00000000e+00 1.09331145e-11
7.94328235e-03 1.29420278e-11 1.29045807e-11 3.74470801e-14 1.41483326e-303 4.14000276e-306 1.29045807e-11
9.12010839e-03 1.53035560e-11 1.52315429e-11 7.20130734e-14 5.88965689e-265 3.25176818e-267 1.52315429e-11
1.04712855e-02 1.70827027e-11 1.70115517e-11 7.11509749e-14 2.37476117e-231 1.39698945e-233 1.70115517e-11
1.20226443e-02 1.71056540e-11 1.70115517e-11 9.41023081e-14 3.58328093e-202 3.66299146e-204 1.70115517e-11
1.38038426e-02 1.71635670e-11 1.70115517e-11 1.52015309e-13 9.42330368e-177 1.06798460e-178 1.70115517e-11
1.58489319e-02 1.72127476e-11 1.70115517e-11 2.01195890e-13 1.23992900e-154 1.94306979e-156 1.70115517e-11
1.81970086e-02 1.72662237e-11 1.70115517e-11 2.54672004e-13 2.16106792e-135 4.43261892e-137 1.70115517e-11
2.08929613e-02 1.73431931e-11 1.70115517e-11 3.31641415e-13 1.10779140e-118 2.94367328e-120 1.70115517e-11
2.39883292e-02 1.74446310e-11 1.70115517e-11 4.33079242e-13 3.83472219e-104 1.34777312e-105 1.70115517e-11
2.75422870e-02 1.75455512e-11 1.70115517e-11 5.33999444e-13 1.69419955e-91 7.09687649e-93 1.70115517e-11
3.16227766e-02 1.76515861e-11 1.70115517e-11 6.40034364e-13 1.63710373e-80 8.25530681e-82 1.70115517e-11
3.63078055e-02 1.77121600e-11 1.70115517e-11 7.00608318e-13 5.60644585e-71 2.98907917e-72 1.70115517e-11
4.16869383e-02 1.78764127e-11 1.70115517e-11 8.64860980e-13 1.06412255e-62 7.15229631e-64 1.70115517e-11
4.78630092e-02 1.80048934e-11 1.70115517e-11 9.93341717e-13 1.59498353e-55 1.19309644e-56 1.70115517e-11
5.49540874e-02 1.80040314e-11 1.70115517e-11 9.92479679e-13 2.62425486e-49 2.06445692e-50 1.70115517e-11
6.30957344e-02 1.78994136e-11 1.70115517e-11 8.87861843e-13 8.35426393e-44 6.42563254e-45 1.70115517e-11
7.24435960e-02 1.77085326e-11 1.70115517e-11 6.96980855e-13 4.77175229e-39 3.24806094e-40 1.70115517e-11
8.31763771e-02 1.76617436e-11 1.70115517e-11 6.50191836e-13 4.84699897e-35 3.19739441e-36 1.70115517e-11
9.54992586e-02 1.76628685e-11 1.70115517e-11 6.51316796e-13 1.35862209e-31 9.24337672e-33 1.70115517e-11
1.09647820e-01 1.69781132e-11 1.62459122e-11 7.32201010e-13 1.15064237e-28 8.65035354e-30 1.62459122e-11
1.25892541e-01 1.59425718e-11 1.51615674e-11 7.81004394e-13 3.72839402e-26 2.94940778e-27 1.51615674e-11
1.44543977e-01 1.49039336e-11 1.41495980e-11 7.54335676e-13 5.06121432e-24 4.00228573e-25 1.41495980e-11
1.65958691e-01 1.39619192e-11 1.32051732e-11 7.56746039e-13 2.55102859e-22 2.12190270e-23 1.32051732e-11
1.90546072e-01 1.30522282e-11 1.23237846e-11 7.28443513e-13 5.35105461e-21 4.91255787e-22 1.23237846e-11
2.18776162e-01 1.20831790e-11 1.15012250e-11 5.81953942e-13 6.27725075e-20 5.52372203e-21 1.15012250e-11
2.51188643e-01 1.13686462e-11 1.07335677e-11 6.35077696e-13 7.58423859e-19 7.76684069e-20 1.07335677e-11
2.88403150e-01 1.06523909e-11 1.00171482e-11 6.35236299e-13 6.31924588e-18 6.60906151e-19 1.00171482e-11
3.31131121e-01 9.94072992e-12 9.34854667e-12 5.92147110e-13 3.61404636e-17 3.70242433e-18 9.34854667e-12
3.80189396e-01 9.27544514e-12 8.72457139e-12 5.50722697e-13 1.51052468e-16 1.56673518e-17 8.72457139e-12
4.36515832e-01 8.64551303e-12 8.14224377e-12 5.02786993e-13 4.82262992e-16 5.10187305e-17 8.14224377e-12
5.01187234e-01 8.05466165e-12 7.59878402e-12 4.54604186e-13 1.27345001e-15 1.54824301e-16 7.59878402e-12
5.75439937e-01 7.49106500e-12 7.09159786e-12 3.96313322e-13 3.15380851e-15 5.17508444e-16 7.09159786e-12
6.60693448e-01 6.97535328e-12 6.61826421e-12 3.48621015e-13 8.46805484e-15 1.99985974e-15 6.61826421e-12
7.58577575e-01 6.50707164e-12 6.17652353e-12 3.05617608e-13 2.49304980e-14 7.11993490e-15 6.17652353e-12
8.70963590e-01 6.09419857e-12 5.76426715e-12 2.55872922e-13 7.40584970e-14 2.20981414e-14 5.76426715e-12
1.00000000e+00 5.79108644e-12 5.37952711e-12 2.13743541e-13 1.97815790e-13 5.66341740e-14 5.37952711e-12
1.14815362e+00 5.66813886e-12 5.02046681e-12 1.75397484e-13 4.72274560e-13 1.22855041e-13 5.02046681e-12
1.31825674e+00 5.83326753e-12 4.68537225e-12 1.38364742e-13 1.00953055e-12 2.31540890e-13 4.68537225e-12
1.51356125e+00 6.40936865e-12 4.37264380e-12 1.11866613e-13 1.92485823e-12 3.81327335e-13 4.37264380e-12
1.73780083e+00 7.51299825e-12 4.08078863e-12 9.01116076e-14 3.34209802e-12 5.56267906e-13 4.08078863e-12
1.99526231e+00 9.01528102e-12 3.80841354e-12 7.25648258e-14 5.13430265e-12 6.95668937e-13 3.80841354e-12
2.29086765e+00 1.08438635e-11 3.55421832e-12 5.67670108e-14 7.23287815e-12 7.77212127e-13 3.55421832e-12
2.63026799e+00 1.27131685e-11 3.31698953e-12 4.35403321e-14 9.35263865e-12 7.75948472e-13 3.31698953e-12
3.01995172e+00 1.44103060e-11 3.09559474e-12 3.25510511e-14 1.12821602e-11 7.02949851e-13 3.09559474e-12
3.46736850e+00 1.57426062e-11 2.88897711e-12 2.31557257e-14 1.28304734e-11 5.87234801e-13 2.88897711e-12
3.98107171e+00 1.64320613e-11 2.69615031e-12 1.60691545e-14 1.37198419e-11 4.52570480e-13 2.69615031e-12
4.57088190e+00 1.67004012e-11 2.51619387e-12 1.06681222e-14 1.41735392e-11 3.21296357e-13 2.51619387e-12
5.24807460e+00 1.63060377e-11 2.08050667e-12 6.05602523e-15 1.42194750e-11 2.13267764e-13 2.08050667e-12
6.02559586e+00 1.54065474e-11 1.37457712e-12 2.60811297e-15 1.40293622e-11 1.34196450e-13 1.37457712e-12
6.70000000e+00 1.47306687e-11 9.99872685e-13 1.33019278e-15 1.37294658e-11 9.03111626e-14 9.99872685e-13
6.92422916e+00 1.45127402e-11 9.05846924e-13 1.06571573e-15 1.36058276e-11 7.89026746e-14 9.05846924e-13
7.15596261e+00 1.43704361e-11 8.20663132e-13 8.49945899e-16 1.35489230e-11 6.83095800e-14 8.20663132e-13
7.39545150e+00 1.44079043e-11 7.43489831e-13 6.44859940e-16 1.36637696e-11 5.84512800e-14 7.43489831e-13
7.64295536e+00 1.48700364e-11 6.73573732e-13 4.55014798e-16 1.41960077e-11 4.90608543e-14 6.73573732e-13
7.89874245e+00 1.59742094e-11 6.10232385e-13 2.82429063e-16 1.53636946e-11 3.91208086e-14 6.10232385e-13
8.16308998e+00 1.72899208e-11 5.52847515e-13 1.64165900e-16 1.67369091e-11 3.04753251e-14 5.52847515e-13
8.43628443e+00 1.87215864e-11 5.00858987e-13 8.81972069e-17 1.82206392e-11 2.23174689e-14 5.00858987e-13
8.71862190e+00 1.94209470e-11 4.53759343e-13 5.33439878e-17 1.89671343e-11 1.71879836e-14 4.53759343e-13
9.01040836e+00 2.01000086e-11 4.11088843e-13 2.99716713e-17 1.96888898e-11 1.23998206e-14 4.11088843e-13
9.31196005e+00 2.04603967e-11 3.72430980e-13 0.00000000e+00 2.00879657e-11 0.00000000e+00 3.72430980e-13
9.62360379e+00 2.03513806e-11 3.37408415e-13 0.00000000e+00 2.00139722e-11 0.00000000e+00 3.37408415e-13
9.94567731e+00 1.98760429e-11 3.05679292e-13 0.00000000e+00 1.95703636e-11 0.00000000e+00 3.05679292e-13
1.02785297e+01 1.93434800e-11 2.76933904e-13 0.00000000e+00 1.90665461e-11 0.00000000e+00 2.76933904e-13
1.06225216e+01 1.88420016e-11 2.50891667e-13 0.00000000e+00 1.85911099e-11 0.00000000e+00 2.50891667e-13
1.09780260e+01 1.82612369e-11 2.27298384e-13 0.00000000e+00 1.80339385e-11 0.00000000e+00 2.27298384e-13
1.13454280e+01 1.77118106e-11 2.05923759e-13 0.00000000e+00 1.75058868e-11 0.00000000e+00 2.05923759e-13
1.17251259e+01 1.72318206e-11 1.86559155e-13 0.00000000e+00 1.70452615e-11 0.00000000e+00 1.86559155e-13
1.21175312e+01 1.66693055e-11 1.69015555e-13 0.00000000e+00 1.65002900e-11 0.00000000e+00 1.69015555e-13
1.25230691e+01 1.60907785e-11 1.53121715e-13 0.00000000e+00 1.59376567e-11 0.00000000e+00 1.53121715e-13
1.29421791e+01 1.56345484e-11 1.38722496e-13 0.00000000e+00 1.54958259e-11 0.00000000e+00 1.38722496e-13
1.33753155e+01 1.51093801e-11 1.25677347e-13 0.00000000e+00 1.49837027e-11 0.00000000e+00 1.25677347e-13
1.38229477e+01 1.47730503e-11 1.13858934e-13 0.00000000e+00 1.46591914e-11 0.00000000e+00 1.13858934e-13
1.42855609e+01 1.46185950e-11 1.03151898e-13 0.00000000e+00 1.45154431e-11 0.00000000e+00 1.03151898e-13
1.47636563e+01 1.49163337e-11 9.34517274e-14 0.00000000e+00 1.48228820e-11 0.00000000e+00 9.34517274e-14
1.52577522e+01 1.52915241e-11 8.46637387e-14 0.00000000e+00 1.52068604e-11 0.00000000e+00 8.46637387e-14
1.57683840e+01 1.56839713e-11 7.67021526e-14 0.00000000e+00 1.56072691e-11 0.00000000e+00 7.67021526e-14
1.62961051e+01 1.60602921e-11 6.94892560e-14 0.00000000e+00 1.59908028e-11 0.00000000e+00 6.94892560e-14
1.68414875e+01 1.64186449e-11 6.29546439e-14 0.00000000e+00 1.63556903e-11 0.00000000e+00 6.29546439e-14
1.74051222e+01 1.67013871e-11 5.70345319e-14 0.00000000e+00 1.66443526e-11 0.00000000e+00 5.70345319e-14
1.79876201e+01 1.67933891e-11 5.16711337e-14 0.00000000e+00 1.67417180e-11 0.00000000e+00 5.16711337e-14
1.85896125e+01 1.67185988e-11 4.68120974e-14 0.00000000e+00 1.66717867e-11 0.00000000e+00 4.68120974e-14
1.92117518e+01 1.65206362e-11 4.24099939e-14 0.00000000e+00 1.64782262e-11 0.00000000e+00 4.24099939e-14
1.98547123e+01 1.62530474e-11 3.84218542e-14 0.00000000e+00 1.62146255e-11 0.00000000e+00 3.84218542e-14
2.05191907e+01 1.58560899e-11 3.48087501e-14 0.00000000e+00 1.58212812e-11 0.00000000e+00 3.48087501e-14
2.12059073e+01 1.54322928e-11 3.15354141e-14 0.00000000e+00 1.54007574e-11 0.00000000e+00 3.15354141e-14
2.19156062e+01 1.49625056e-11 2.85698952e-14 0.00000000e+00 1.49339357e-11 0.00000000e+00 2.85698952e-14
2.26490567e+01 1.45291349e-11 2.58832470e-14 0.00000000e+00 1.45032516e-11 0.00000000e+00 2.58832470e-14
2.34070535e+01 1.40373020e-11 2.34492452e-14 0.00000000e+00 1.40138527e-11 0.00000000e+00 2.34492452e-14
2.41904183e+01 1.35667775e-11 2.12441313e-14 0.00000000e+00 1.35455333e-11 0.00000000e+00 2.12441313e-14
2.50000000e+01 1.30232474e-11 1.92463813e-14 0.00000000e+00 1.30040010e-11 0.00000000e+00 1.92463813e-14
2.75422870e+01 1.14575848e-11 1.43935895e-14 0.00000000e+00 1.14431912e-11 0.00000000e+00 1.43935895e-14
3.16227766e+01 9.09255651e-12 9.50975027e-15 0.00000000e+00 9.08304676e-12 0.00000000e+00 9.50975027e-15
3.63078055e+01 6.80603676e-12 6.28302969e-15 0.00000000e+00 6.79975373e-12 0.00000000e+00 6.28302969e-15
4.16869383e+01 4.73597948e-12 4.15115655e-15 0.00000000e+00 4.73182833e-12 0.00000000e+00 4.15115655e-15
4.78630092e+01 3.08492937e-12 2.74264194e-15 0.00000000e+00 3.08218673e-12 0.00000000e+00 2.74264194e-15
5.49540874e+01 1.89893912e-12 1.81204556e-15 0.00000000e+00 1.89712707e-12 0.00000000e+00 1.81204556e-15
6.30957344e+01 1.11720439e-12 1.19720663e-15 0.00000000e+00 1.11600718e-12 0.00000000e+00 1.19720663e-15
7.24435960e+01 6.34858816e-13 7.90986575e-16 0.00000000e+00 6.34067829e-13 0.00000000e+00 7.90986575e-16
8.31763771e+01 3.52062634e-13 5.22599647e-16 0.00000000e+00 3.51540035e-13 0.00000000e+00 5.22599647e-16
9.54992586e+01 1.91927763e-13 3.45278163e-16 0.00000000e+00 1.91582485e-13 0.00000000e+00 3.45278163e-16
1.09647820e+02 1.03409287e-13 2.28123020e-16 0.00000000e+00 1.03181164e-13 0.00000000e+00 2.28123020e-16
1.25892541e+02 5.58730925e-14 1.50719385e-16 0.00000000e+00 5.57223731e-14 0.00000000e+00 1.50719385e-16
1.44543977e+02 3.01077248e-14 9.95793099e-17 0.00000000e+00 3.00081455e-14 0.00000000e+00 9.95793099e-17
1.65958691e+02 1.54921170e-14 6.57913976e-17 0.00000000e+00 1.54263256e-14 0.00000000e+00 6.57913976e-17
1.90546072e+02 7.99878162e-15 4.34679453e-17 0.00000000e+00 7.95531368e-15 0.00000000e+00 4.34679453e-17
2.18776162e+02 4.13264581e-15 2.87189867e-17 0.00000000e+00 4.10392682e-15 0.00000000e+00 2.87189867e-17
2.51188643e+02 2.13203946e-15 1.89744463e-17 0.00000000e+00 2.11306501e-15 0.00000000e+00 1.89744463e-17
2.88403150e+02 1.09702075e-15 1.25362924e-17 0.00000000e+00 1.08448446e-15 0.00000000e+00 1.25362924e-17
3.31131121e+02 5.64027472e-16 8.28264623e-18 0.00000000e+00 5.55744826e-16 0.00000000e+00 8.28264623e-18
3.80189396e+02 2.89453900e-16 5.47229010e-18 0.00000000e+00 2.83981610e-16 0.00000000e+00 5.47229010e-18
4.36515832e+02 1.48504629e-16 3.61550621e-18 0.00000000e+00 1.44889123e-16 0.00000000e+00 3.61550621e-18
5.01187234e+02 7.61620881e-17 2.38874127e-18 0.00000000e+00 7.37733468e-17 0.00000000e+00 2.38874127e-18
5.75439937e+02 3.90820182e-17 1.57822570e-18 0.00000000e+00 3.75037925e-17 0.00000000e+00 1.57822570e-18
6.60693448e+02 2.00821199e-17 1.04272338e-18 0.00000000e+00 1.90393966e-17 0.00000000e+00 1.04272338e-18
7.58577575e+02 1.03428446e-17 6.88920507e-19 0.00000000e+00 9.65392410e-18 0.00000000e+00 6.88920507e-19
8.70963590e+02 5.34376040e-18 4.55165265e-19 0.00000000e+00 4.88859514e-18 0.00000000e+00 4.55165265e-19
1.00000000e+03 2.47238422e-18 0.00000000e+00 0.00000000e+00 2.47238422e-18 0.00000000e+00 0.00000000e+00
