# column 1: lambda (micron)
# column 2: total flux; lambda*F_lambda (W/m2)
# column 3: direct stellar flux; lambda*F_lambda (W/m2)
# column 4: scattered stellar flux; lambda*F_lambda (W/m2)
# column 5: total dust emission flux; lambda*F_lambda (W/m2)
# column 6: dust emission scattered flux; lambda*F_lambda (W/m2)
# column 7: transparent flux; lambda*F_lambda (W/m2)
1.00000000e-03 6.93997369e-13 6.93993746e-13 3.62376034e-18 0.00000000e+00 0.00000000e+00 6.93993746e-13
1.14815362e-03 8.19140406e-13 8.19135139e-13 5.26709340e-18 0.00000000e+00 0.00000000e+00 8.19135139e-13
1.31825674e-03 9.66849526e-13 9.66842108e-13 7.41825774e-18 0.00000000e+00 0.00000000e+00 9.66842108e-13
1.51356125e-03 1.14119658e-12 1.14118369e-12 1.28924262e-17 0.00000000e+00 0.00000000e+00 1.14118369e-12
1.73780083e-03 1.34698454e-12 1.34696266e-12 2.18832833e-17 0.00000000e+00 0.00000000e+00 1.34696266e-12
1.99526231e-03 1.58988711e-12 1.58984782e-12 3.92839411e-17 0.00000000e+00 0.00000000e+00 1.58984782e-12
2.29086765e-03 1.87659247e-12 1.87653019e-12 6.22750302e-17 0.00000000e+00 0.00000000e+00 1.87653019e-12
2.63026799e-03 2.21503418e-12 2.21490731e-12 1.26867463e-16 0.00000000e+00 0.00000000e+00 2.21490731e-12
3.01995172e-03 2.61451035e-12 2.61430080e-12 2.09541401e-16 0.00000000e+00 0.00000000e+00 2.61430080e-12
3.46736850e-03 3.08607379e-12 3.08571319e-12 3.60605418e-16 0.00000000e+00 0.00000000e+00 3.08571319e-12
3.98107171e-03 3.64274561e-12 3.64213095e-12 6.14655241e-16 0.00000000e+00 0.00000000e+00 3.64213095e-12
4.57088190e-03 4.30011919e-12 4.29888232e-12 1.23687600e-15 0.00000000e+00 0.00000000e+00 4.29888232e-12
5.24807460e-03 5.07627677e-12 5.07405951e-12 2.21725793e-15 0.00000000e+00 0.00000000e+00 5.07405951e-12
6.02559586e-03 5.99306995e-12 5.98901715e-12 4.05280200e-15 0.00000000e+00 0.00000000e+00 5.98901715e-12
6.91830971e-03 7.07585895e-12 7.06896053e-12 6.89842770e-15 0.00000000e+00 0.00000000e+00 7.06896053e-12
7.94328235e-03 8.35567087e-12 8.34363998e-12 1.20308838e-14 0.00000000e+00 0.00000000e+00 8.34363998e-12
9.12010839e-03 9.86805563e-12 9.84817045e-12 1.98851861e-14 0.00000000e+00 0.00000000e+00 9.84817045e-12
1.04712855e-02 1.10269456e-11 1.09990604e-11 2.78851600e-14 0.00000000e+00 0.00000000e+00 1.09990604e-11
1.20226443e-02 1.10418676e-11 1.09990604e-11 4.28071068e-14 1.80100463e-309 1.82147825e-311 1.09990604e-11
1.38038426e-02 1.10594114e-11 1.09990604e-11 6.03509400e-14 2.36155436e-270 2.32984021e-272 1.09990604e-11
1.58489319e-02 1.10906210e-11 1.09990604e-11 9.15605700e-14 2.65919666e-236 4.72909109e-238 1.09990604e-11
1.81970086e-02 1.11254377e-11 1.09990604e-11 1.26377254e-13 1.13805520e-206 2.28118570e-208 1.09990604e-11
2.08929613e-02 1.11673027e-11 1.09990604e-11 1.68242247e-13 6.55361102e-181 1.72655632e-182 1.09990604e-11
2.39883292e-02 1.12093735e-11 1.09990604e-11 2.10313009e-13 1.72942448e-158 5.86580757e-160 1.09990604e-11
2.75422870e-02 1.12748330e-11 1.09990604e-11 2.75772555e-13 5.61680566e-139 2.39434120e-140 1.09990604e-11
3.16227766e-02 1.13314563e-11 1.09990604e-11 3.32395887e-13 5.18732908e-122 2.73975779e-123 1.09990604e-11
3.63078055e-02 1.13440153e-11 1.09990604e-11 3.44954877e-13 2.87702442e-107 1.69029329e-108 1.09990604e-11
4.16869383e-02 1.14116349e-11 1.09990604e-11 4.12574435e-13 1.88456542e-94 1.44739109e-95 1.09990604e-11
4.78630092e-02 1.14842348e-11 1.09990604e-11 4.85174402e-13 2.55064225e-83 2.41565843e-84 1.09990604e-11
5.49540874e-02 1.15336468e-11 1.09990604e-11 5.34586377e-13 1.17092080e-73 1.26526186e-74 1.09990604e-11
6.30957344e-02 1.15408229e-11 1.09990604e-11 5.41762439e-13 3.77104748e-65 4.60818179e-66 1.09990604e-11
7.24435960e-02 1.14995148e-11 1.09990604e-11 5.00454328e-13 8.85622180e-58 1.05949308e-58 1.09990604e-11
8.31763771e-02 1.14936025e-11 1.09990604e-11 4.94542026e-13 1.69729981e-51 1.98108629e-52 1.09990604e-11
9.54992586e-02 1.14852313e-11 1.09990604e-11 4.86170880e-13 4.67462807e-46 5.74507477e-47 1.09990604e-11
1.09647820e-01 1.10088406e-11 1.05040253e-11 5.04815262e-13 2.27483721e-41 3.08922143e-42 1.05040253e-11
1.25892541e-01 1.02745817e-11 9.80292679e-12 4.71654886e-13 2.83671778e-37 4.19146097e-38 9.80292679e-12
1.44543977e-01 9.56999815e-12 9.14862359e-12 4.21374559e-13 1.11996999e-33 1.79419621e-34 9.14862359e-12
1.65958691e-01 8.95551224e-12 8.53799231e-12 4.17519928e-13 1.33221837e-30 2.57916514e-31 8.53799231e-12
1.90546072e-01 8.40101193e-12 7.96811805e-12 4.32893884e-13 5.00911581e-28 1.19074903e-28 7.96811805e-12
2.18776162e-01 7.85043752e-12 7.43628044e-12 4.14157084e-13 7.79206345e-26 2.06439280e-26 7.43628044e-12
2.51188643e-01 7.38021077e-12 6.93994070e-12 4.40270069e-13 1.09161000e-23 3.44917715e-24 6.93994070e-12
2.88403150e-01 6.87755664e-12 6.47672950e-12 4.00827133e-13 7.89781578e-22 2.54713891e-22 6.47672950e-12
3.31131121e-01 6.40013134e-12 6.04443567e-12 3.55695640e-13 3.10944138e-20 1.00519464e-20 6.04443567e-12
3.80189396e-01 5.95937318e-12 5.64099558e-12 3.18376863e-13 7.37804589e-19 2.37346962e-19 5.64099558e-12
4.36515832e-01 5.55081271e-12 5.26448339e-12 2.86318307e-13 1.10134721e-17 3.48273932e-18 5.26448339e-12
5.01187234e-01 5.16876679e-12 4.91310176e-12 2.55554338e-13 1.10694011e-16 3.47351587e-17 4.91310176e-12
5.75439937e-01 4.82013271e-12 4.58517335e-12 2.34186329e-13 7.73028053e-16 2.36757799e-16 4.58517335e-12
6.60693448e-01 4.48728147e-12 4.27913275e-12 2.04156405e-13 3.99232170e-15 1.17702773e-15 4.27913275e-12
7.58577575e-01 4.18941786e-12 3.99351904e-12 1.80066989e-13 1.58318309e-14 4.47747800e-15 3.99351904e-12
8.70963590e-01 3.93493059e-12 3.72696882e-12 1.57764315e-13 5.01974585e-14 1.33139252e-14 3.72696882e-12
1.00000000e+00 3.74482466e-12 3.47820968e-12 1.35888491e-13 1.30726488e-13 3.20501354e-14 3.47820968e-12
1.14815362e+00 3.65122377e-12 3.24605414e-12 1.11862993e-13 2.93306637e-13 6.43756121e-14 3.24605414e-12
1.31825674e+00 3.70018210e-12 3.02939399e-12 8.96392519e-14 5.81148857e-13 1.10572363e-13 3.02939399e-12
1.51356125e+00 3.91796728e-12 2.82719497e-12 7.23627772e-14 1.01840953e-12 1.65768593e-13 2.82719497e-12
1.73780083e+00 4.28743016e-12 2.63849186e-12 5.50185754e-14 1.59391972e-12 2.12472157e-13 2.63849186e-12
1.99526231e+00 4.72724589e-12 2.46238388e-12 4.16931670e-14 2.22316884e-12 2.34755931e-13 2.46238388e-12
2.29086765e+00 5.17028525e-12 2.29803035e-12 3.04681667e-14 2.84178674e-12 2.27518772e-13 2.29803035e-12
2.63026799e+00 5.53224979e-12 2.14464670e-12 2.13937788e-14 3.36620931e-12 2.00493708e-13 2.14464670e-12
3.01995172e+00 5.78219448e-12 2.00150076e-12 1.48126949e-14 3.76588102e-12 1.62931508e-13 2.00150076e-12
3.46736850e+00 5.90380322e-12 1.86790919e-12 9.92219402e-15 4.02597183e-12 1.24427672e-13 1.86790919e-12
3.98107171e+00 5.88704674e-12 1.74323429e-12 6.50479160e-15 4.13730766e-12 8.92946961e-14 1.74323429e-12
4.57088190e+00 5.78983468e-12 1.62688090e-12 4.16219709e-15 4.15879159e-12 6.08820287e-14 1.62688090e-12
5.24807460e+00 5.44193351e-12 1.34518114e-12 2.22868141e-15 4.09452369e-12 3.98254518e-14 1.34518114e-12
6.02559586e+00 4.87628150e-12 8.88752369e-13 9.54315908e-16 3.98657482e-12 2.44389161e-14 8.88752369e-13
6.70000000e+00 4.52498130e-12 6.46481889e-13 4.72995085e-16 3.87802642e-12 1.62538809e-14 6.46481889e-13
6.92422916e+00 4.42592490e-12 5.85688198e-13 3.75283707e-16 3.83986141e-12 1.41978434e-14 5.85688198e-13
7.15596261e+00 4.34933842e-12 5.30611407e-13 2.96580130e-16 3.81843044e-12 1.23512543e-14 5.30611407e-13
7.39545150e+00 4.34755135e-12 4.80713913e-13 2.27837706e-16 3.86660960e-12 1.05916330e-14 4.80713913e-13
7.64295536e+00 4.51786469e-12 4.35508666e-13 1.61254858e-16 4.08219477e-12 8.99996638e-15 4.35508666e-13
7.89874245e+00 4.97037272e-12 3.94554418e-13 1.03877063e-16 4.57571442e-12 7.35971022e-15 3.94554418e-13
8.16308998e+00 5.62585923e-12 3.57451415e-13 6.26581300e-17 5.26834516e-12 5.97446585e-15 3.57451415e-13
8.43628443e+00 6.55554608e-12 3.23837494e-13 3.55409947e-17 6.23167305e-12 4.61786335e-15 3.23837494e-13
8.71862190e+00 7.20856875e-12 2.93384550e-13 2.20303754e-17 6.91516217e-12 3.60566250e-15 2.93384550e-13
9.01040836e+00 7.89798007e-12 2.65795332e-13 1.25238365e-17 7.63217221e-12 2.62091102e-15 2.65795332e-13
9.31196005e+00 8.45313229e-12 2.40800541e-13 0.00000000e+00 8.21233175e-12 0.00000000e+00 2.40800541e-13
9.62360379e+00 8.44628293e-12 2.18156204e-13 0.00000000e+00 8.22812673e-12 0.00000000e+00 2.18156204e-13
9.94567731e+00 8.05965817e-12 1.97641289e-13 0.00000000e+00 7.86201689e-12 0.00000000e+00 1.97641289e-13
1.02785297e+01 7.57076641e-12 1.79055550e-13 0.00000000e+00 7.39171086e-12 0.00000000e+00 1.79055550e-13
1.06225216e+01 7.09237729e-12 1.62217572e-13 0.00000000e+00 6.93015972e-12 0.00000000e+00 1.62217572e-13
1.09780260e+01 6.54972566e-12 1.46962999e-13 0.00000000e+00 6.40276266e-12 0.00000000e+00 1.46962999e-13
1.13454280e+01 6.06208080e-12 1.33142932e-13 0.00000000e+00 5.92893786e-12 0.00000000e+00 1.33142932e-13
1.17251259e+01 5.66959987e-12 1.20622472e-13 0.00000000e+00 5.54897740e-12 0.00000000e+00 1.20622472e-13
1.21175312e+01 5.30086134e-12 1.09279408e-13 0.00000000e+00 5.19158193e-12 0.00000000e+00 1.09279408e-13
1.25230691e+01 4.96991849e-12 9.90030204e-14 0.00000000e+00 4.87091547e-12 0.00000000e+00 9.90030204e-14
1.29421791e+01 4.68775476e-12 8.96930008e-14 0.00000000e+00 4.59806176e-12 0.00000000e+00 8.96930008e-14
1.33753155e+01 4.43231381e-12 8.12584743e-14 0.00000000e+00 4.35105534e-12 0.00000000e+00 8.12584743e-14
1.38229477e+01 4.29002572e-12 7.36171115e-14 0.00000000e+00 4.21640860e-12 0.00000000e+00 7.36171115e-14
1.42855609e+01 4.23712125e-12 6.66943252e-14 0.00000000e+00 4.17042693e-12 0.00000000e+00 6.66943252e-14
1.47636563e+01 4.34970909e-12 6.04225420e-14 0.00000000e+00 4.28928655e-12 0.00000000e+00 6.04225420e-14
1.52577522e+01 4.51924844e-12 5.47405431e-14 0.00000000e+00 4.46450789e-12 0.00000000e+00 5.47405431e-14
1.57683840e+01 4.71891054e-12 4.95928665e-14 0.00000000e+00 4.66931768e-12 0.00000000e+00 4.95928665e-14
1.62961051e+01 4.92060176e-12 4.49292657e-14 0.00000000e+00 4.87567249e-12 0.00000000e+00 4.49292657e-14
1.68414875e+01 5.13668426e-12 4.07042194e-14 0.00000000e+00 5.09598004e-12 0.00000000e+00 4.07042194e-14
1.74051222e+01 5.32240823e-12 3.68764869e-14 0.00000000e+00 5.28553174e-12 0.00000000e+00 3.68764869e-14
1.79876201e+01 5.42494361e-12 3.34087056e-14 0.00000000e+00 5.39153490e-12 0.00000000e+00 3.34087056e-14
1.85896125e+01 5.48446774e-12 3.02670267e-14 0.00000000e+00 5.45420071e-12 0.00000000e+00 3.02670267e-14
1.92117518e+01 5.46237845e-12 2.74207841e-14 0.00000000e+00 5.43495767e-12 0.00000000e+00 2.74207841e-14
1.98547123e+01 5.42346252e-12 2.48421957e-14 0.00000000e+00 5.39862033e-12 0.00000000e+00 2.48421957e-14
2.05191907e+01 5.33402515e-12 2.25060919e-14 0.00000000e+00 5.31151906e-12 0.00000000e+00 2.25060919e-14
2.12059073e+01 5.23086216e-12 2.03896700e-14 0.00000000e+00 5.21047249e-12 0.00000000e+00 2.03896700e-14
2.19156062e+01 5.14933095e-12 1.84722717e-14 0.00000000e+00 5.13085868e-12 0.00000000e+00 1.84722717e-14
2.26490567e+01 5.07532106e-12 1.67351811e-14 0.00000000e+00 5.05858588e-12 0.00000000e+00 1.67351811e-14
2.34070535e+01 4.96454051e-12 1.51614426e-14 0.00000000e+00 4.94937906e-12 0.00000000e+00 1.51614426e-14
2.41904183e+01 4.86676156e-12 1.37356949e-14 0.00000000e+00 4.85302587e-12 0.00000000e+00 1.37356949e-14
2.50000000e+01 4.76856597e-12 1.24440213e-14 0.00000000e+00 4.75612195e-12 0.00000000e+00 1.24440213e-14
2.75422870e+01 4.41290638e-12 9.30637977e-15 0.00000000e+00 4.40360000e-12 0.00000000e+00 9.30637977e-15
3.16227766e+01 3.80189560e-12 6.14866414e-15 0.00000000e+00 3.79574693e-12 0.00000000e+00 6.14866414e-15
3.63078055e+01 3.05717154e-12 4.06238211e-15 0.00000000e+00 3.05310915e-12 0.00000000e+00 4.06238211e-15
4.16869383e+01 2.27939148e-12 2.68398924e-15 0.00000000e+00 2.27670749e-12 0.00000000e+00 2.68398924e-15
4.78630092e+01 1.57928065e-12 1.77329411e-15 0.00000000e+00 1.57750736e-12 0.00000000e+00 1.77329411e-15
5.49540874e+01 1.02720156e-12 1.17160380e-15 0.00000000e+00 1.02602995e-12 0.00000000e+00 1.17160380e-15
6.30957344e+01 6.35784542e-13 7.74070953e-16 0.00000000e+00 6.35010471e-13 0.00000000e+00 7.74070953e-16
7.24435960e+01 3.77910760e-13 5.11423607e-16 0.00000000e+00 3.77399337e-13 0.00000000e+00 5.11423607e-16
8.31763771e+01 2.18086644e-13 3.37894226e-16 0.00000000e+00 2.17748750e-13 0.00000000e+00 3.37894226e-16
9.54992586e+01 1.23183523e-13 2.23244502e-16 0.00000000e+00 1.22960279e-13 0.00000000e+00 2.23244502e-16
1.09647820e+02 6.84264991e-14 1.47496179e-16 0.00000000e+00 6.82790029e-14 0.00000000e+00 1.47496179e-16
1.25892541e+02 3.79685343e-14 9.74497594e-17 0.00000000e+00 3.78710845e-14 0.00000000e+00 9.74497594e-17
1.44543977e+02 2.09363914e-14 6.43844175e-17 0.00000000e+00 2.08720069e-14 0.00000000e+00 6.43844175e-17
1.65958691e+02 1.09926024e-14 4.25383628e-17 0.00000000e+00 1.09500641e-14 0.00000000e+00 4.25383628e-17
1.90546072e+02 5.77483524e-15 2.81048176e-17 0.00000000e+00 5.74673042e-15 0.00000000e+00 2.81048176e-17
2.18776162e+02 3.02819298e-15 1.85686688e-17 0.00000000e+00 3.00962431e-15 0.00000000e+00 1.85686688e-17
2.51188643e+02 1.58235027e-15 1.22681978e-17 0.00000000e+00 1.57008208e-15 0.00000000e+00 1.22681978e-17
2.88403150e+02 8.23061412e-16 8.10551794e-18 0.00000000e+00 8.14955894e-16 0.00000000e+00 8.10551794e-18
3.31131121e+02 4.27077259e-16 5.35526259e-18 0.00000000e+00 4.21721996e-16 0.00000000e+00 5.35526259e-18
3.80189396e+02 2.20869925e-16 3.53818691e-18 0.00000000e+00 2.17331738e-16 0.00000000e+00 3.53818691e-18
4.36515832e+02 1.14030500e-16 2.33765691e-18 0.00000000e+00 1.11692843e-16 0.00000000e+00 2.33765691e-18
5.01187234e+02 5.87762295e-17 1.54447460e-18 0.00000000e+00 5.72317549e-17 0.00000000e+00 1.54447460e-18
5.75439937e+02 3.02746416e-17 1.02042425e-18 0.00000000e+00 2.92542173e-17 0.00000000e+00 1.02042425e-18
6.60693448e+02 1.55960226e-17 6.74187617e-19 0.00000000e+00 1.49218350e-17 0.00000000e+00 6.74187617e-19
7.58577575e+02 8.04266567e-18 4.45431341e-19 0.00000000e+00 7.59723433e-18 0.00000000e+00 4.45431341e-19
8.70963590e+02 4.15514767e-18 2.94293569e-19 0.00000000e+00 3.86085410e-18 0.00000000e+00 2.94293569e-19
1.00000000e+03 1.95863295e-18 0.00000000e+00 0.00000000e+00 1.95863295e-18 0.00000000e+00 0.00000000e+00
