# column 1: lambda (micron)
# column 2: total flux; lambda*F_lambda (W/m2)
# column 3: direct stellar flux; lambda*F_lambda (W/m2)
# column 4: scattered stellar flux; lambda*F_lambda (W/m2)
# column 5: total dust emission flux; lambda*F_lambda (W/m2)
# column 6: dust emission scattered flux; lambda*F_lambda (W/m2)
# column 7: transparent flux; lambda*F_lambda (W/m2)
1.00000000e-03 1.07336716e-12 1.07335627e-12 1.08944728e-17 0.00000000e+00 0.00000000e+00 1.07335627e-12
1.14815362e-03 1.26692069e-12 1.26690456e-12 1.61354934e-17 0.00000000e+00 0.00000000e+00 1.26690456e-12
1.31825674e-03 1.49537703e-12 1.49535359e-12 2.34438106e-17 0.00000000e+00 0.00000000e+00 1.49535359e-12
1.51356125e-03 1.76503254e-12 1.76499670e-12 3.58369316e-17 0.00000000e+00 0.00000000e+00 1.76499670e-12
1.73780083e-03 2.08332644e-12 2.08326203e-12 6.44090742e-17 0.00000000e+00 0.00000000e+00 2.08326203e-12
1.99526231e-03 2.45902559e-12 2.45891716e-12 1.08434631e-16 0.00000000e+00 0.00000000e+00 2.45891716e-12
2.29086765e-03 2.90247843e-12 2.90231066e-12 1.67760409e-16 0.00000000e+00 0.00000000e+00 2.90231066e-12
2.63026799e-03 3.42598948e-12 3.42565717e-12 3.32314813e-16 0.00000000e+00 0.00000000e+00 3.42565717e-12
3.01995172e-03 4.04391362e-12 4.04337385e-12 5.39773947e-16 0.00000000e+00 0.00000000e+00 4.04337385e-12
3.46736850e-03 4.77335814e-12 4.77247759e-12 8.80555816e-16 0.00000000e+00 0.00000000e+00 4.77247759e-12
3.98107171e-03 5.63449142e-12 5.63305378e-12 1.43764255e-15 0.00000000e+00 0.00000000e+00 5.63305378e-12
4.57088190e-03 6.65212902e-12 6.64880962e-12 3.31939716e-15 0.00000000e+00 0.00000000e+00 6.64880962e-12
5.24807460e-03 7.85372287e-12 7.84772720e-12 5.99567498e-15 0.00000000e+00 0.00000000e+00 7.84772720e-12
6.02559586e-03 9.28756051e-12 9.26283435e-12 2.47261581e-14 0.00000000e+00 0.00000000e+00 9.26283435e-12
6.91830971e-03 1.09489074e-11 1.09331145e-11 1.57928764e-14 0.00000000e+00 0.00000000e+00 1.09331145e-11
7.94328235e-03 1.29322507e-11 1.29045807e-11 2.76700216e-14 0.00000000e+00 0.00000000e+00 1.29045807e-11
9.12010839e-03 1.52860863e-11 1.52315429e-11 5.45433700e-14 0.00000000e+00 0.00000000e+00 1.52315429e-11
1.04712855e-02 1.71064659e-11 1.70115517e-11 9.49141498e-14 0.00000000e+00 0.00000000e+00 1.70115517e-11
1.20226443e-02 1.71219295e-11 1.70115517e-11 1.10377789e-13 4.02461777e-312 2.09848450e-313 1.70115517e-11
1.38038426e-02 1.71442783e-11 1.70115517e-11 1.32726555e-13 8.92191357e-273 5.32382003e-274 1.70115517e-11
1.58489319e-02 1.72062433e-11 1.70115517e-11 1.94691606e-13 1.57328983e-238 1.06341082e-239 1.70115517e-11
1.81970086e-02 1.72870230e-11 1.70115517e-11 2.75471317e-13 1.00870384e-208 8.36516331e-210 1.70115517e-11
2.08929613e-02 1.73780199e-11 1.70115517e-11 3.66468171e-13 8.18388136e-183 7.48791258e-184 1.70115517e-11
2.39883292e-02 1.74856113e-11 1.70115517e-11 4.74059617e-13 2.91624206e-160 3.04871580e-161 1.70115517e-11
2.75422870e-02 1.76236016e-11 1.70115517e-11 6.12049870e-13 1.22605526e-140 1.42831587e-141 1.70115517e-11
3.16227766e-02 1.77428321e-11 1.70115517e-11 7.31280358e-13 1.41872858e-123 1.85306111e-124 1.70115517e-11
3.63078055e-02 1.78217601e-11 1.70115517e-11 8.10208430e-13 9.54485674e-109 1.30461740e-109 1.70115517e-11
4.16869383e-02 1.80453872e-11 1.70115517e-11 1.03383546e-12 7.41838886e-96 1.15818843e-96 1.70115517e-11
4.78630092e-02 1.81837567e-11 1.70115517e-11 1.17220502e-12 1.14362192e-84 1.91754201e-85 1.70115517e-11
5.49540874e-02 1.82457993e-11 1.70115517e-11 1.23424756e-12 5.86021143e-75 1.04295541e-75 1.70115517e-11
6.30957344e-02 1.81861244e-11 1.70115517e-11 1.17457270e-12 2.00967613e-66 3.66589802e-67 1.70115517e-11
7.24435960e-02 1.79644130e-11 1.70115517e-11 9.52861262e-13 5.09701002e-59 8.70016423e-60 1.70115517e-11
8.31763771e-02 1.79291621e-11 1.70115517e-11 9.17610364e-13 1.25975561e-52 2.07210290e-53 1.70115517e-11
9.54992586e-02 1.79464710e-11 1.70115517e-11 9.34919248e-13 5.50048539e-47 8.99903942e-48 1.70115517e-11
1.09647820e-01 1.72570522e-11 1.62459122e-11 1.01114005e-12 5.27950027e-42 9.27280711e-43 1.62459122e-11
1.25892541e-01 1.62044437e-11 1.51615674e-11 1.04287634e-12 1.28665885e-37 2.36711081e-38 1.51615674e-11
1.44543977e-01 1.51279820e-11 1.41495980e-11 9.78384003e-13 8.29245649e-34 1.50618911e-34 1.41495980e-11
1.65958691e-01 1.41772356e-11 1.32051732e-11 9.72062439e-13 1.28731019e-30 2.54886791e-31 1.32051732e-11
1.90546072e-01 1.32885802e-11 1.23237846e-11 9.64795597e-13 5.41686175e-28 1.23818082e-28 1.23237846e-11
2.18776162e-01 1.23099729e-11 1.15012250e-11 8.08747913e-13 8.55565309e-26 2.04722314e-26 1.15012250e-11
2.51188643e-01 1.15932587e-11 1.07335677e-11 8.59691031e-13 1.22824611e-23 3.58932019e-24 1.07335677e-11
2.88403150e-01 1.08435287e-11 1.00171482e-11 8.26380424e-13 9.11005006e-22 2.78153739e-22 1.00171482e-11
3.31131121e-01 1.01251039e-11 9.34854667e-12 7.76557229e-13 3.73568878e-20 1.20306234e-20 9.34854667e-12
3.80189396e-01 9.43759972e-12 8.72457139e-12 7.13027416e-13 9.14882693e-19 3.01172143e-19 8.72457139e-12
4.36515832e-01 8.80444340e-12 8.14224377e-12 6.62185283e-13 1.43412134e-17 4.84498901e-18 8.14224377e-12
5.01187234e-01 8.18993105e-12 7.59878402e-12 5.90995915e-13 1.51118667e-16 5.08615351e-17 7.59878402e-12
5.75439937e-01 7.61664154e-12 7.09159786e-12 5.23916346e-13 1.12732817e-15 3.75233209e-16 7.09159786e-12
6.60693448e-01 7.08493270e-12 6.61826421e-12 4.60560800e-13 6.10769181e-15 1.97606330e-15 6.61826421e-12
7.58577575e-01 6.60932407e-12 6.17652353e-12 4.06978546e-13 2.58219868e-14 8.00199773e-15 6.17652353e-12
8.70963590e-01 6.19634623e-12 5.76426715e-12 3.44695803e-13 8.73832696e-14 2.55070189e-14 5.76426715e-12
1.00000000e+00 5.91391565e-12 5.37952711e-12 2.89395043e-13 2.44993495e-13 6.60353540e-14 5.37952711e-12
1.14815362e+00 5.84707267e-12 5.02046681e-12 2.36282060e-13 5.90323796e-13 1.43316029e-13 5.02046681e-12
1.31825674e+00 6.12803918e-12 4.68537225e-12 1.87127725e-13 1.25553921e-12 2.66728560e-13 4.68537225e-12
1.51356125e+00 6.89110013e-12 4.37264380e-12 1.49226317e-13 2.36923001e-12 4.32596857e-13 4.37264380e-12
1.73780083e+00 8.16292997e-12 4.08078863e-12 1.17887316e-13 3.96425402e-12 6.15498839e-13 4.08078863e-12
1.99526231e+00 9.84630018e-12 3.80841354e-12 9.21731340e-14 5.94571351e-12 7.57283004e-13 3.80841354e-12
2.29086765e+00 1.16782504e-11 3.55421832e-12 7.01176650e-14 8.05391442e-12 8.20291817e-13 3.55421832e-12
2.63026799e+00 1.34033570e-11 3.31698953e-12 5.14758742e-14 1.00348916e-11 7.85720197e-13 3.31698953e-12
3.01995172e+00 1.47638629e-11 3.09559474e-12 3.63335276e-14 1.16319347e-11 6.82426608e-13 3.09559474e-12
3.46736850e+00 1.56729837e-11 2.88897711e-12 2.48865072e-14 1.27591201e-11 5.47106120e-13 2.88897711e-12
3.98107171e+00 1.61232494e-11 2.69615031e-12 1.63843767e-14 1.34107147e-11 4.03455950e-13 2.69615031e-12
4.57088190e+00 1.60057972e-11 2.51619387e-12 1.04163238e-14 1.34791870e-11 2.74053222e-13 2.51619387e-12
5.24807460e+00 1.53675858e-11 2.08050667e-12 5.72192770e-15 1.32813572e-11 1.76101329e-13 2.08050667e-12
6.02559586e+00 1.42543533e-11 1.37457712e-12 2.39991761e-15 1.28773763e-11 1.06954376e-13 1.37457712e-12
6.70000000e+00 1.34305985e-11 9.99872685e-13 1.18838368e-15 1.24295374e-11 6.99437355e-14 9.99872685e-13
6.92422916e+00 1.31948371e-11 9.05846924e-13 9.45641017e-16 1.22880446e-11 6.09439545e-14 9.05846924e-13
7.15596261e+00 1.30052477e-11 8.20663132e-13 7.47521173e-16 1.21838370e-11 5.23602913e-14 8.20663132e-13
7.39545150e+00 1.30476913e-11 7.43489831e-13 5.73041415e-16 1.23036284e-11 4.50719443e-14 7.43489831e-13
7.64295536e+00 1.35905657e-11 6.73573732e-13 4.07683505e-16 1.29165843e-11 3.83988397e-14 6.73573732e-13
7.89874245e+00 1.49205261e-11 6.10232385e-13 2.62842446e-16 1.43100309e-11 3.17821625e-14 6.10232385e-13
8.16308998e+00 1.66730950e-11 5.52847515e-13 1.60848218e-16 1.61200867e-11 2.59109368e-14 5.52847515e-13
8.43628443e+00 1.87575141e-11 5.00858987e-13 8.95128611e-17 1.82565656e-11 1.99648005e-14 5.00858987e-13
8.71862190e+00 1.99623598e-11 4.53759343e-13 5.36575158e-17 1.95085468e-11 1.56121363e-14 4.53759343e-13
9.01040836e+00 2.13026982e-11 4.11088843e-13 2.79428461e-17 2.08915814e-11 1.11512414e-14 4.11088843e-13
9.31196005e+00 2.22507516e-11 3.72430980e-13 0.00000000e+00 2.18783207e-11 0.00000000e+00 3.72430980e-13
9.62360379e+00 2.19833339e-11 3.37408415e-13 0.00000000e+00 2.16459255e-11 0.00000000e+00 3.37408415e-13
9.94567731e+00 2.11328597e-11 3.05679292e-13 0.00000000e+00 2.08271804e-11 0.00000000e+00 3.05679292e-13
1.02785297e+01 2.02691041e-11 2.76933904e-13 0.00000000e+00 1.99921702e-11 0.00000000e+00 2.76933904e-13
1.06225216e+01 1.94205169e-11 2.50891667e-13 0.00000000e+00 1.91696252e-11 0.00000000e+00 2.50891667e-13
1.09780260e+01 1.84337386e-11 2.27298384e-13 0.00000000e+00 1.82064402e-11 0.00000000e+00 2.27298384e-13
1.13454280e+01 1.74174229e-11 2.05923759e-13 0.00000000e+00 1.72114991e-11 0.00000000e+00 2.05923759e-13
1.17251259e+01 1.65749634e-11 1.86559155e-13 0.00000000e+00 1.63884042e-11 0.00000000e+00 1.86559155e-13
1.21175312e+01 1.57740004e-11 1.69015555e-13 0.00000000e+00 1.56049849e-11 0.00000000e+00 1.69015555e-13
1.25230691e+01 1.50561008e-11 1.53121715e-13 0.00000000e+00 1.49029791e-11 0.00000000e+00 1.53121715e-13
1.29421791e+01 1.42727835e-11 1.38722496e-13 0.00000000e+00 1.41340610e-11 0.00000000e+00 1.38722496e-13
1.33753155e+01 1.36159941e-11 1.25677347e-13 0.00000000e+00 1.34903167e-11 0.00000000e+00 1.25677347e-13
1.38229477e+01 1.32377650e-11 1.13858934e-13 0.00000000e+00 1.31239061e-11 0.00000000e+00 1.13858934e-13
1.42855609e+01 1.30846881e-11 1.03151898e-13 0.00000000e+00 1.29815362e-11 0.00000000e+00 1.03151898e-13
1.47636563e+01 1.34017416e-11 9.34517274e-14 0.00000000e+00 1.33082899e-11 0.00000000e+00 9.34517274e-14
1.52577522e+01 1.38648854e-11 8.46637387e-14 0.00000000e+00 1.37802217e-11 0.00000000e+00 8.46637387e-14
1.57683840e+01 1.44221781e-11 7.67021526e-14 0.00000000e+00 1.43454760e-11 0.00000000e+00 7.67021526e-14
1.62961051e+01 1.49403273e-11 6.94892560e-14 0.00000000e+00 1.48708380e-11 0.00000000e+00 6.94892560e-14
1.68414875e+01 1.54934527e-11 6.29546439e-14 0.00000000e+00 1.54304981e-11 0.00000000e+00 6.29546439e-14
1.74051222e+01 1.58790043e-11 5.70345319e-14 0.00000000e+00 1.58219697e-11 0.00000000e+00 5.70345319e-14
1.79876201e+01 1.61519265e-11 5.16711337e-14 0.00000000e+00 1.61002554e-11 0.00000000e+00 5.16711337e-14
1.85896125e+01 1.62160936e-11 4.68120974e-14 0.00000000e+00 1.61692815e-11 0.00000000e+00 4.68120974e-14
1.92117518e+01 1.61574756e-11 4.24099939e-14 0.00000000e+00 1.61150656e-11 0.00000000e+00 4.24099939e-14
1.98547123e+01 1.59107604e-11 3.84218542e-14 0.00000000e+00 1.58723385e-11 0.00000000e+00 3.84218542e-14
2.05191907e+01 1.55531912e-11 3.48087501e-14 0.00000000e+00 1.55183824e-11 0.00000000e+00 3.48087501e-14
2.12059073e+01 1.51781331e-11 3.15354141e-14 0.00000000e+00 1.51465977e-11 0.00000000e+00 3.15354141e-14
2.19156062e+01 1.48132165e-11 2.85698952e-14 0.00000000e+00 1.47846466e-11 0.00000000e+00 2.85698952e-14
2.26490567e+01 1.44533603e-11 2.58832470e-14 0.00000000e+00 1.44274771e-11 0.00000000e+00 2.58832470e-14
2.34070535e+01 1.40631612e-11 2.34492452e-14 0.00000000e+00 1.40397119e-11 0.00000000e+00 2.34492452e-14
2.41904183e+01 1.36512680e-11 2.12441313e-14 0.00000000e+00 1.36300239e-11 0.00000000e+00 2.12441313e-14
2.50000000e+01 1.32317514e-11 1.92463813e-14 0.00000000e+00 1.32125050e-11 0.00000000e+00 1.92463813e-14
2.75422870e+01 1.18861334e-11 1.43935895e-14 0.00000000e+00 1.18717398e-11 0.00000000e+00 1.43935895e-14
3.16227766e+01 9.73016971e-12 9.50975027e-15 0.00000000e+00 9.72065996e-12 0.00000000e+00 9.50975027e-15
3.63078055e+01 7.45641668e-12 6.28302969e-15 0.00000000e+00 7.45013365e-12 0.00000000e+00 6.28302969e-15
4.16869383e+01 5.31265286e-12 4.15115655e-15 0.00000000e+00 5.30850170e-12 0.00000000e+00 4.15115655e-15
4.78630092e+01 3.51976734e-12 2.74264194e-15 0.00000000e+00 3.51702470e-12 0.00000000e+00 2.74264194e-15
5.49540874e+01 2.19951559e-12 1.81204556e-15 0.00000000e+00 2.19770355e-12 0.00000000e+00 1.81204556e-15
6.30957344e+01 1.31361699e-12 1.19720663e-15 0.00000000e+00 1.31241978e-12 0.00000000e+00 1.19720663e-15
7.24435960e+01 7.55921492e-13 7.90986575e-16 0.00000000e+00 7.55130506e-13 0.00000000e+00 7.90986575e-16
8.31763771e+01 4.24223181e-13 5.22599647e-16 0.00000000e+00 4.23700581e-13 0.00000000e+00 5.22599647e-16
9.54992586e+01 2.33841498e-13 3.45278163e-16 0.00000000e+00 2.33496220e-13 0.00000000e+00 3.45278163e-16
1.09647820e+02 1.27239215e-13 2.28123020e-16 0.00000000e+00 1.27011092e-13 0.00000000e+00 2.28123020e-16
1.25892541e+02 6.93449993e-14 1.50719385e-16 0.00000000e+00 6.91942800e-14 0.00000000e+00 1.50719385e-16
1.44543977e+02 3.76535613e-14 9.95793099e-17 0.00000000e+00 3.75539820e-14 0.00000000e+00 9.95793099e-17
1.65958691e+02 1.95053916e-14 6.57913976e-17 0.00000000e+00 1.94396002e-14 0.00000000e+00 6.57913976e-17
1.90546072e+02 1.01288825e-14 4.34679453e-17 0.00000000e+00 1.00854146e-14 0.00000000e+00 4.34679453e-17
2.18776162e+02 5.25935502e-15 2.87189867e-17 0.00000000e+00 5.23063604e-15 0.00000000e+00 2.87189867e-17
2.51188643e+02 2.72498344e-15 1.89744463e-17 0.00000000e+00 2.70600899e-15 0.00000000e+00 1.89744463e-17
2.88403150e+02 1.40708593e-15 1.25362924e-17 0.00000000e+00 1.39454964e-15 0.00000000e+00 1.25362924e-17
3.31131121e+02 7.25487567e-16 8.28264623e-18 0.00000000e+00 7.17204921e-16 0.00000000e+00 8.28264623e-18
3.80189396e+02 3.73126080e-16 5.47229010e-18 0.00000000e+00 3.67653790e-16 0.00000000e+00 5.47229010e-18
4.36515832e+02 1.91704798e-16 3.61550621e-18 0.00000000e+00 1.88089291e-16 0.00000000e+00 3.61550621e-18
5.01187234e+02 9.83902295e-17 2.38874127e-18 0.00000000e+00 9.60014882e-17 0.00000000e+00 2.38874127e-18
5.75439937e+02 5.04844178e-17 1.57822570e-18 0.00000000e+00 4.89061921e-17 0.00000000e+00 1.57822570e-18
6.60693448e+02 2.59159778e-17 1.04272338e-18 0.00000000e+00 2.48732544e-17 0.00000000e+00 1.04272338e-18
7.58577575e+02 1.33208694e-17 6.88920507e-19 0.00000000e+00 1.26319489e-17 0.00000000e+00 6.88920507e-19
8.70963590e+02 6.86063979e-18 4.55165265e-19 0.00000000e+00 6.40547452e-18 0.00000000e+00 4.55165265e-19
1.00000000e+03 3.24344604e-18 0.00000000e+00 0.00000000e+00 3.24344604e-18 0.00000000e+00 0.00000000e+00
