# column 1: lambda (micron)
# column 2: total flux; lambda*F_lambda (W/m2)
# column 3: direct stellar flux; lambda*F_lambda (W/m2)
# column 4: scattered stellar flux; lambda*F_lambda (W/m2)
# column 5: total dust emission flux; lambda*F_lambda (W/m2)
# column 6: dust emission scattered flux; lambda*F_lambda (W/m2)
# column 7: transparent flux; lambda*F_lambda (W/m2)
1.00000000e-03 3.57785585e-13 3.57785423e-13 1.61578054e-19 0.00000000e+00 0.00000000e+00 3.57785423e-13
1.14815362e-03 4.22301754e-13 4.22301518e-13 2.35181389e-19 0.00000000e+00 0.00000000e+00 4.22301518e-13
1.31825674e-03 4.98451634e-13 4.98451197e-13 4.37227155e-19 0.00000000e+00 0.00000000e+00 4.98451197e-13
1.51356125e-03 5.88332911e-13 5.88332233e-13 6.77388707e-19 0.00000000e+00 0.00000000e+00 5.88332233e-13
1.73780083e-03 6.94421940e-13 6.94420676e-13 1.26401540e-18 0.00000000e+00 0.00000000e+00 6.94420676e-13
1.99526231e-03 8.19641424e-13 8.19639053e-13 2.37098084e-18 0.00000000e+00 0.00000000e+00 8.19639053e-13
2.29086765e-03 9.67440147e-13 9.67436888e-13 3.25842519e-18 0.00000000e+00 0.00000000e+00 9.67436888e-13
2.63026799e-03 1.14189287e-12 1.14188572e-12 7.15099323e-18 0.00000000e+00 0.00000000e+00 1.14188572e-12
3.01995172e-03 1.34780156e-12 1.34779128e-12 1.02786417e-17 0.00000000e+00 0.00000000e+00 1.34779128e-12
3.46736850e-03 1.59084471e-12 1.59082586e-12 1.88455416e-17 0.00000000e+00 0.00000000e+00 1.59082586e-12
3.98107171e-03 1.87772008e-12 1.87768459e-12 3.54856792e-17 0.00000000e+00 0.00000000e+00 1.87768459e-12
4.57088190e-03 2.21635295e-12 2.21626987e-12 8.30797699e-17 0.00000000e+00 0.00000000e+00 2.21626987e-12
5.24807460e-03 2.61603945e-12 2.61590907e-12 1.30381793e-16 0.00000000e+00 0.00000000e+00 2.61590907e-12
6.02559586e-03 3.08786458e-12 3.08761145e-12 2.53126843e-16 0.00000000e+00 0.00000000e+00 3.08761145e-12
6.91830971e-03 3.64473569e-12 3.64437151e-12 3.64182414e-16 0.00000000e+00 0.00000000e+00 3.64437151e-12
7.94328235e-03 4.30222357e-12 4.30152690e-12 6.96670611e-16 1.83926805e-303 8.43390150e-305 4.30152690e-12
9.12010839e-03 5.07825010e-12 5.07718096e-12 1.06913281e-15 8.44043003e-265 5.69952790e-266 5.07718096e-12
1.04712855e-02 5.67189165e-12 5.67051724e-12 1.37441459e-15 3.52605996e-231 1.24217463e-232 5.67051724e-12
1.20226443e-02 5.67278541e-12 5.67051724e-12 2.26817442e-15 5.72641319e-202 3.05873665e-203 5.67051724e-12
1.38038426e-02 5.67366917e-12 5.67051724e-12 3.15193422e-15 1.61047032e-176 1.14148490e-177 5.67051724e-12
1.58489319e-02 5.67464761e-12 5.67051724e-12 4.13037104e-15 2.16464460e-154 1.24775491e-155 5.67051724e-12
1.81970086e-02 5.67646028e-12 5.67051724e-12 5.94304008e-15 3.90913074e-135 2.39464556e-136 5.67051724e-12
2.08929613e-02 5.67904218e-12 5.67051724e-12 8.52493893e-15 2.03923764e-118 1.06511815e-119 5.67051724e-12
2.39883292e-02 5.68041694e-12 5.67051724e-12 9.89970179e-15 7.21539478e-104 4.10728900e-105 5.67051724e-12
2.75422870e-02 5.68559744e-12 5.67051724e-12 1.50801993e-14 3.24725992e-91 1.95671401e-92 5.67051724e-12
3.16227766e-02 5.68825672e-12 5.67051724e-12 1.77394829e-14 3.17170461e-80 1.96142792e-81 5.67051724e-12
3.63078055e-02 5.69098907e-12 5.67051724e-12 2.04718292e-14 1.10158770e-70 6.71945216e-72 5.67051724e-12
4.16869383e-02 5.69650229e-12 5.67051724e-12 2.59850481e-14 2.10711978e-62 1.43497252e-63 5.67051724e-12
4.78630092e-02 5.70163720e-12 5.67051724e-12 3.11199585e-14 3.17055020e-55 2.42515550e-56 5.67051724e-12
5.49540874e-02 5.70617576e-12 5.67051724e-12 3.56585235e-14 5.20069385e-49 4.05403422e-50 5.67051724e-12
6.30957344e-02 5.71004955e-12 5.67051724e-12 3.95323090e-14 1.63483852e-43 1.33296091e-44 5.67051724e-12
7.24435960e-02 5.70805074e-12 5.67051724e-12 3.75334961e-14 9.22914104e-39 6.92065012e-40 5.67051724e-12
8.31763771e-02 5.70796649e-12 5.67051724e-12 3.74492517e-14 9.47624669e-35 6.88365611e-36 5.67051724e-12
9.54992586e-02 5.70923866e-12 5.67051724e-12 3.87214184e-14 2.69517989e-31 1.98928739e-32 5.67051724e-12
1.09647820e-01 5.45440647e-12 5.41530405e-12 3.91024145e-14 2.34240878e-28 1.82949812e-29 5.41530405e-12
1.25892541e-01 5.09082778e-12 5.05385580e-12 3.69719795e-14 7.78756516e-26 6.20419607e-27 5.05385580e-12
1.44543977e-01 4.74890182e-12 4.71653266e-12 3.23691608e-14 1.08262956e-23 8.36190867e-25 4.71653266e-12
1.65958691e-01 4.43413162e-12 4.40172439e-12 3.24072295e-14 5.55583613e-22 4.47124393e-23 4.40172439e-12
1.90546072e-01 4.14245746e-12 4.10792822e-12 3.45292323e-14 1.16450554e-20 1.04653940e-21 4.10792822e-12
2.18776162e-01 3.86736170e-12 3.83374167e-12 3.36198912e-14 1.35430644e-19 1.25012340e-20 3.83374167e-12
2.51188643e-01 3.61312908e-12 3.57785591e-12 3.52714952e-14 1.67443776e-18 1.73359570e-19 3.57785591e-12
2.88403150e-01 3.37245271e-12 3.33904941e-12 3.33891394e-14 1.41610994e-17 1.40420386e-18 3.33904941e-12
3.31131121e-01 3.14478773e-12 3.11618222e-12 2.85233000e-14 8.22022667e-17 7.94158071e-18 3.11618222e-12
3.80189396e-01 2.93426489e-12 2.90819046e-12 2.57298056e-14 3.44618767e-16 3.12632541e-17 2.90819046e-12
4.36515832e-01 2.73673568e-12 2.71408126e-12 2.15564817e-14 1.09794361e-15 9.26716397e-17 2.71408126e-12
5.01187234e-01 2.55601413e-12 2.53292801e-12 2.03245677e-14 2.76155260e-15 2.25802085e-16 2.53292801e-12
5.75439937e-01 2.38738793e-12 2.36386595e-12 1.78204613e-14 5.70151314e-15 4.36538353e-16 2.36386595e-12
6.60693448e-01 2.23178297e-12 2.20608807e-12 1.56771604e-14 1.00177424e-14 7.23027947e-16 2.20608807e-12
7.58577575e-01 2.08831679e-12 2.05884118e-12 1.38596991e-14 1.56159160e-14 1.06950527e-15 2.05884118e-12
8.70963590e-01 1.95540616e-12 1.92142238e-12 1.18908432e-14 2.20929335e-14 1.37296688e-15 1.92142238e-12
1.00000000e+00 1.83200987e-12 1.79317570e-12 1.00042800e-14 2.88298898e-14 1.61649451e-15 1.79317570e-12
1.14815362e+00 1.71811141e-12 1.67348894e-12 8.12633922e-15 3.64961282e-14 1.82119199e-15 1.67348894e-12
1.31825674e+00 1.61458197e-12 1.56179075e-12 6.41396825e-15 4.63772499e-14 2.07252793e-15 1.56179075e-12
1.51356125e+00 1.52306589e-12 1.45754793e-12 5.10237575e-15 6.04155821e-14 2.46884516e-15 1.45754793e-12
1.73780083e+00 1.44451402e-12 1.36026288e-12 4.01863950e-15 8.02325060e-14 2.94717211e-15 1.36026288e-12
1.99526231e+00 1.37931128e-12 1.26947118e-12 2.97014056e-15 1.06869955e-13 3.44284569e-15 1.26947118e-12
2.29086765e+00 1.32537034e-12 1.18473944e-12 2.13095913e-15 1.38499942e-13 3.79761082e-15 1.18473944e-12
2.63026799e+00 1.27880921e-12 1.10566318e-12 1.56709553e-15 1.71578933e-13 3.82950945e-15 1.10566318e-12
3.01995172e+00 1.23418796e-12 1.03186491e-12 1.06900904e-15 2.01254041e-13 3.57755852e-15 1.03186491e-12
3.46736850e+00 1.18760857e-12 9.62992369e-13 7.22701597e-16 2.23893496e-13 3.06845617e-15 9.62992369e-13
3.98107171e+00 1.13447065e-12 8.98716770e-13 4.50639633e-16 2.35303237e-13 2.38760466e-15 8.98716770e-13
4.57088190e+00 1.07450858e-12 8.38731291e-13 3.12499727e-16 2.35464786e-13 1.71060626e-15 8.38731291e-13
5.24807460e+00 9.20099372e-13 6.93502223e-13 1.63095106e-16 2.26434054e-13 1.14532610e-15 6.93502223e-13
6.02559586e+00 6.70422238e-13 4.58192375e-13 7.11125582e-17 2.12158751e-13 7.05902448e-16 4.58192375e-13
6.70000000e+00 5.31729469e-13 3.33290895e-13 3.52499898e-17 1.98403324e-13 4.60822842e-16 3.33290895e-13
6.92422916e+00 4.95545875e-13 3.01948975e-13 2.98751627e-17 1.93567025e-13 3.94544294e-16 3.01948975e-13
7.15596261e+00 4.64119829e-13 2.73554377e-13 2.37925178e-17 1.90541660e-13 3.42570505e-16 2.73554377e-13
7.39545150e+00 4.39884529e-13 2.47829944e-13 1.68937539e-17 1.92037691e-13 2.91155871e-16 2.47829944e-13
7.64295536e+00 4.30386769e-13 2.24524577e-13 1.23877908e-17 2.05849804e-13 2.43681270e-16 2.24524577e-13
7.89874245e+00 4.43355678e-13 2.03410795e-13 7.88030890e-18 2.39937003e-13 2.00782949e-16 2.03410795e-13
8.16308998e+00 4.73958900e-13 1.84282505e-13 4.84790328e-18 2.89671547e-13 1.65946072e-16 1.84282505e-13
8.43628443e+00 5.27409255e-13 1.66952996e-13 2.56533347e-18 3.60453694e-13 1.28684848e-16 1.66952996e-13
8.71862190e+00 5.64621715e-13 1.51253114e-13 1.76416869e-18 4.13366837e-13 1.01972726e-16 1.51253114e-13
9.01040836e+00 6.03138365e-13 1.37029614e-13 1.12972364e-18 4.66107621e-13 7.24149986e-17 1.37029614e-13
9.31196005e+00 6.33643276e-13 1.24143660e-13 0.00000000e+00 5.09499616e-13 0.00000000e+00 1.24143660e-13
9.62360379e+00 6.21533267e-13 1.12469472e-13 0.00000000e+00 5.09063796e-13 0.00000000e+00 1.12469472e-13
9.94567731e+00 5.76604687e-13 1.01893097e-13 0.00000000e+00 4.74711590e-13 0.00000000e+00 1.01893097e-13
1.02785297e+01 5.24863462e-13 9.23113014e-14 0.00000000e+00 4.32552160e-13 0.00000000e+00 9.23113014e-14
1.06225216e+01 4.73790663e-13 8.36305558e-14 0.00000000e+00 3.90160107e-13 0.00000000e+00 8.36305558e-14
1.09780260e+01 4.20088221e-13 7.57661279e-14 0.00000000e+00 3.44322093e-13 0.00000000e+00 7.57661279e-14
1.13454280e+01 3.73239337e-13 6.86412529e-14 0.00000000e+00 3.04598084e-13 0.00000000e+00 6.86412529e-14
1.17251259e+01 3.33650249e-13 6.21863851e-14 0.00000000e+00 2.71463864e-13 0.00000000e+00 6.21863851e-14
1.21175312e+01 2.97515723e-13 5.63385184e-14 0.00000000e+00 2.41177204e-13 0.00000000e+00 5.63385184e-14
1.25230691e+01 2.65650686e-13 5.10405718e-14 0.00000000e+00 2.14610114e-13 0.00000000e+00 5.10405718e-14
1.29421791e+01 2.38192229e-13 4.62408321e-14 0.00000000e+00 1.91951396e-13 0.00000000e+00 4.62408321e-14
1.33753155e+01 2.15296582e-13 4.18924490e-14 0.00000000e+00 1.73404133e-13 0.00000000e+00 4.18924490e-14
1.38229477e+01 1.98969891e-13 3.79529781e-14 0.00000000e+00 1.61016913e-13 0.00000000e+00 3.79529781e-14
1.42855609e+01 1.88414898e-13 3.43839660e-14 0.00000000e+00 1.54030932e-13 0.00000000e+00 3.43839660e-14
1.47636563e+01 1.86975412e-13 3.11505758e-14 0.00000000e+00 1.55824836e-13 0.00000000e+00 3.11505758e-14
1.52577522e+01 1.87740072e-13 2.82212462e-14 0.00000000e+00 1.59518826e-13 0.00000000e+00 2.82212462e-14
1.57683840e+01 1.90552132e-13 2.55673842e-14 0.00000000e+00 1.64984748e-13 0.00000000e+00 2.55673842e-14
1.62961051e+01 1.93124165e-13 2.31630853e-14 0.00000000e+00 1.69961080e-13 0.00000000e+00 2.31630853e-14
1.68414875e+01 1.96583857e-13 2.09848813e-14 0.00000000e+00 1.75598976e-13 0.00000000e+00 2.09848813e-14
1.74051222e+01 1.96682422e-13 1.90115106e-14 0.00000000e+00 1.77670912e-13 0.00000000e+00 1.90115106e-14
1.79876201e+01 1.95655666e-13 1.72237112e-14 0.00000000e+00 1.78431955e-13 0.00000000e+00 1.72237112e-14
1.85896125e+01 1.90623457e-13 1.56040325e-14 0.00000000e+00 1.75019425e-13 0.00000000e+00 1.56040325e-14
1.92117518e+01 1.83952455e-13 1.41366646e-14 0.00000000e+00 1.69815790e-13 0.00000000e+00 1.41366646e-14
1.98547123e+01 1.74803362e-13 1.28072847e-14 0.00000000e+00 1.61996077e-13 0.00000000e+00 1.28072847e-14
2.05191907e+01 1.66060598e-13 1.16029167e-14 0.00000000e+00 1.54457681e-13 0.00000000e+00 1.16029167e-14
2.12059073e+01 1.57614705e-13 1.05118047e-14 0.00000000e+00 1.47102901e-13 0.00000000e+00 1.05118047e-14
2.19156062e+01 1.50105255e-13 9.52329842e-15 0.00000000e+00 1.40581957e-13 0.00000000e+00 9.52329842e-15
2.26490567e+01 1.42662583e-13 8.62774902e-15 0.00000000e+00 1.34034834e-13 0.00000000e+00 8.62774902e-15
2.34070535e+01 1.36645360e-13 7.81641505e-15 0.00000000e+00 1.28828945e-13 0.00000000e+00 7.81641505e-15
2.41904183e+01 1.30478383e-13 7.08137710e-15 0.00000000e+00 1.23397006e-13 0.00000000e+00 7.08137710e-15
2.50000000e+01 1.24991910e-13 6.41546044e-15 0.00000000e+00 1.18576450e-13 0.00000000e+00 6.41546044e-15
2.75422870e+01 1.09849887e-13 4.79786316e-15 0.00000000e+00 1.05052024e-13 0.00000000e+00 4.79786316e-15
3.16227766e+01 9.00061290e-14 3.16991676e-15 0.00000000e+00 8.68362123e-14 0.00000000e+00 3.16991676e-15
3.63078055e+01 7.09021724e-14 2.09434323e-15 0.00000000e+00 6.88078292e-14 0.00000000e+00 2.09434323e-15
4.16869383e+01 5.27303581e-14 1.38371885e-15 0.00000000e+00 5.13466392e-14 0.00000000e+00 1.38371885e-15
4.78630092e+01 3.68442670e-14 9.14213979e-16 0.00000000e+00 3.59300530e-14 0.00000000e+00 9.14213979e-16
5.49540874e+01 2.43859780e-14 6.04015186e-16 0.00000000e+00 2.37819628e-14 0.00000000e+00 6.04015186e-16
6.30957344e+01 1.54377651e-14 3.99068876e-16 0.00000000e+00 1.50386963e-14 0.00000000e+00 3.99068876e-16
7.24435960e+01 9.41756432e-15 2.63662192e-16 0.00000000e+00 9.15390213e-15 0.00000000e+00 2.63662192e-16
8.31763771e+01 5.58313351e-15 1.74199882e-16 0.00000000e+00 5.40893363e-15 0.00000000e+00 1.74199882e-16
9.54992586e+01 3.24004360e-15 1.15092721e-16 0.00000000e+00 3.12495088e-15 0.00000000e+00 1.15092721e-16
1.09647820e+02 1.84918721e-15 7.60410067e-17 0.00000000e+00 1.77314620e-15 0.00000000e+00 7.60410067e-17
1.25892541e+02 1.05323340e-15 5.02397949e-17 0.00000000e+00 1.00299361e-15 0.00000000e+00 5.02397949e-17
1.44543977e+02 5.95529796e-16 3.31931033e-17 0.00000000e+00 5.62336693e-16 0.00000000e+00 3.31931033e-17
1.65958691e+02 3.21556454e-16 2.19304659e-17 0.00000000e+00 2.99625988e-16 0.00000000e+00 2.19304659e-17
1.90546072e+02 1.73863788e-16 1.44893151e-17 0.00000000e+00 1.59374473e-16 0.00000000e+00 1.44893151e-17
2.18776162e+02 9.40393540e-17 9.57299556e-18 0.00000000e+00 8.44663584e-17 0.00000000e+00 9.57299556e-18
2.51188643e+02 5.08463691e-17 6.32481544e-18 0.00000000e+00 4.45215537e-17 0.00000000e+00 6.32481544e-18
2.88403150e+02 2.74971466e-17 4.17876412e-18 0.00000000e+00 2.33183824e-17 0.00000000e+00 4.17876412e-18
3.31131121e+02 1.49220810e-17 2.76088208e-18 0.00000000e+00 1.21611989e-17 0.00000000e+00 2.76088208e-18
3.80189396e+02 8.13392452e-18 1.82409670e-18 0.00000000e+00 6.30982782e-18 0.00000000e+00 1.82409670e-18
4.36515832e+02 4.46705237e-18 1.20516874e-18 0.00000000e+00 3.26188363e-18 0.00000000e+00 1.20516874e-18
5.01187234e+02 2.47618155e-18 7.96247089e-19 0.00000000e+00 1.67993446e-18 0.00000000e+00 7.96247089e-19
5.75439937e+02 1.38857834e-18 5.26075235e-19 0.00000000e+00 8.62503109e-19 0.00000000e+00 5.26075235e-19
6.60693448e+02 7.89206389e-19 3.47574461e-19 0.00000000e+00 4.41631929e-19 0.00000000e+00 3.47574461e-19
7.58577575e+02 4.55238748e-19 2.29640169e-19 0.00000000e+00 2.25598579e-19 0.00000000e+00 2.29640169e-19
8.70963590e+02 2.66699473e-19 1.51721755e-19 0.00000000e+00 1.14977719e-19 0.00000000e+00 1.51721755e-19
1.00000000e+03 5.84749527e-20 0.00000000e+00 0.00000000e+00 5.84749527e-20 0.00000000e+00 0.00000000e+00
