# column 1: lambda (micron)
# column 2: total flux; lambda*F_lambda (W/m2)
# column 3: direct stellar flux; lambda*F_lambda (W/m2)
# column 4: scattered stellar flux; lambda*F_lambda (W/m2)
# column 5: total dust emission flux; lambda*F_lambda (W/m2)
# column 6: dust emission scattered flux; lambda*F_lambda (W/m2)
# column 7: transparent flux; lambda*F_lambda (W/m2)
1.00000000e-03 9.68073398e-13 9.68073281e-13 1.17370859e-19 0.00000000e+00 0.00000000e+00 9.68073281e-13
1.14815362e-03 1.14263706e-12 1.14263687e-12 1.89196191e-19 0.00000000e+00 0.00000000e+00 1.14263687e-12
1.31825674e-03 1.34867817e-12 1.34867788e-12 2.93535864e-19 0.00000000e+00 0.00000000e+00 1.34867788e-12
1.51356125e-03 1.59187281e-12 1.59187233e-12 4.80633473e-19 0.00000000e+00 0.00000000e+00 1.59187233e-12
1.73780083e-03 1.87892063e-12 1.87891976e-12 8.70599613e-19 0.00000000e+00 0.00000000e+00 1.87891976e-12
1.99526231e-03 2.21772935e-12 2.21772777e-12 1.58385927e-18 0.00000000e+00 0.00000000e+00 2.21772777e-12
2.29086765e-03 2.61763223e-12 2.61762985e-12 2.38630655e-18 0.00000000e+00 0.00000000e+00 2.61762985e-12
2.63026799e-03 3.08964745e-12 3.08964252e-12 4.92306830e-18 0.00000000e+00 0.00000000e+00 3.08964252e-12
3.01995172e-03 3.64677702e-12 3.64676883e-12 8.19165932e-18 0.00000000e+00 0.00000000e+00 3.64676883e-12
3.46736850e-03 4.30437033e-12 4.30435650e-12 1.38279596e-17 0.00000000e+00 0.00000000e+00 4.30435650e-12
3.98107171e-03 5.08054283e-12 5.08052080e-12 2.20338170e-17 0.00000000e+00 0.00000000e+00 5.08052080e-12
4.57088190e-03 5.99669257e-12 5.99664354e-12 4.90307119e-17 0.00000000e+00 0.00000000e+00 5.99664354e-12
5.24807460e-03 7.07805559e-12 7.07796211e-12 9.34782079e-17 0.00000000e+00 0.00000000e+00 7.07796211e-12
6.02559586e-03 8.35443143e-12 8.35426474e-12 1.66684055e-16 0.00000000e+00 0.00000000e+00 8.35426474e-12
6.91830971e-03 9.86097988e-12 9.86071107e-12 2.68809401e-16 0.00000000e+00 0.00000000e+00 9.86071107e-12
7.94328235e-03 1.16392494e-11 1.16388008e-11 4.48596607e-16 0.00000000e+00 0.00000000e+00 1.16388008e-11
9.12010839e-03 1.37382037e-11 1.37375167e-11 6.86953721e-16 0.00000000e+00 0.00000000e+00 1.37375167e-11
1.04712855e-02 1.53438350e-11 1.53429287e-11 9.06371719e-16 0.00000000e+00 0.00000000e+00 1.53429287e-11
1.20226443e-02 1.53443058e-11 1.53429287e-11 1.37710493e-15 0.00000000e+00 0.00000000e+00 1.53429287e-11
1.38038426e-02 1.53449004e-11 1.53429287e-11 1.97177019e-15 5.58739613e-289 2.61166406e-290 1.53429287e-11
1.58489319e-02 1.53456454e-11 1.53429287e-11 2.71674793e-15 2.97707738e-252 1.30775889e-253 1.53429287e-11
1.81970086e-02 1.53468243e-11 1.53429287e-11 3.89567126e-15 2.78684763e-220 1.67342587e-221 1.53429287e-11
2.08929613e-02 1.53479110e-11 1.53429287e-11 4.98236761e-15 1.70920306e-192 8.99613189e-194 1.53429287e-11
2.39883292e-02 1.53526603e-11 1.53429287e-11 9.73161237e-15 2.65681354e-168 1.63820234e-169 1.53429287e-11
2.75422870e-02 1.53534751e-11 1.53429287e-11 1.05464826e-14 2.98784148e-147 1.97368251e-148 1.53429287e-11
3.16227766e-02 1.53551685e-11 1.53429287e-11 1.22398416e-14 6.01040898e-129 4.11169444e-130 1.53429287e-11
3.63078055e-02 1.53587753e-11 1.53429287e-11 1.58466315e-14 4.90491841e-113 3.49424944e-114 1.53429287e-11
4.16869383e-02 1.53637894e-11 1.53429287e-11 2.08607078e-14 3.32063802e-99 2.74189726e-100 1.53429287e-11
4.78630092e-02 1.53726588e-11 1.53429287e-11 2.97300883e-14 3.41360414e-87 3.16994368e-88 1.53429287e-11
5.49540874e-02 1.53796605e-11 1.53429287e-11 3.67317976e-14 9.13575104e-77 9.30096854e-78 1.53429287e-11
6.30957344e-02 1.53882947e-11 1.53429287e-11 4.53660367e-14 1.33396135e-67 1.42523753e-68 1.53429287e-11
7.24435960e-02 1.53866809e-11 1.53429287e-11 4.37522555e-14 1.15653974e-59 1.09351462e-60 1.53429287e-11
8.31763771e-02 1.53874319e-11 1.53429287e-11 4.45032176e-14 7.17407871e-53 6.63476734e-54 1.53429287e-11
9.54992586e-02 1.53884369e-11 1.53429287e-11 4.55082101e-14 5.39364082e-47 5.13436209e-48 1.53429287e-11
1.09647820e-01 1.47004226e-11 1.46523889e-11 4.80336701e-14 6.09286151e-42 6.49445697e-43 1.46523889e-11
1.25892541e-01 1.37186161e-11 1.36744049e-11 4.42111111e-14 1.39426277e-37 1.50414013e-38 1.36744049e-11
1.44543977e-01 1.27999619e-11 1.27616972e-11 3.82646642e-14 7.72205012e-34 8.24965176e-35 1.27616972e-11
1.65958691e-01 1.19517846e-11 1.19099088e-11 4.18758122e-14 9.84257481e-31 1.13106801e-31 1.19099088e-11
1.90546072e-01 1.11637521e-11 1.11149736e-11 4.87784443e-14 3.40498666e-28 4.50980737e-29 1.11149736e-11
2.18776162e-01 1.04233695e-11 1.03730969e-11 5.02725850e-14 4.54817654e-26 6.15123758e-27 1.03730969e-11
2.51188643e-01 9.74142600e-12 9.68073733e-12 6.06886643e-14 4.82438693e-24 7.91027614e-25 9.68073733e-12
2.88403150e-01 9.08892679e-12 9.03458975e-12 5.43370346e-14 2.65018744e-22 4.36156407e-23 9.03458975e-12
3.31131121e-01 8.48144409e-12 8.43156974e-12 4.98743362e-14 8.08776983e-21 1.33600436e-21 8.43156974e-12
3.80189396e-01 7.91448467e-12 7.86879872e-12 4.56857953e-14 1.52130936e-19 2.57001031e-20 7.86879872e-12
4.36515832e-01 7.38423124e-12 7.34359025e-12 4.06390743e-14 1.91193273e-18 3.35185449e-19 7.34359025e-12
5.01187234e-01 6.89272331e-12 6.85343719e-12 3.92689756e-14 1.71474032e-17 3.12370128e-18 6.85343719e-12
5.75439937e-01 6.43278727e-12 6.39599973e-12 3.66731527e-14 1.14383962e-16 2.11005132e-17 6.39599973e-12
6.60693448e-01 6.00378787e-12 5.96909425e-12 3.41111477e-14 5.82467530e-16 1.06516263e-16 5.96909425e-12
7.58577575e-01 5.60430837e-12 5.57068288e-12 3.12709067e-14 2.35457621e-15 4.16627584e-16 5.57068288e-12
8.70963590e-01 5.23416096e-12 5.19886376e-12 2.75773351e-14 7.71986651e-15 1.27752137e-15 5.19886376e-12
1.00000000e+00 4.89632446e-12 4.85186196e-12 2.35955330e-14 2.08669646e-14 3.14121493e-15 4.85186196e-12
1.14815362e+00 4.59683529e-12 4.52802104e-12 2.02151532e-14 4.85990960e-14 6.46441015e-15 4.52802104e-12
1.31825674e+00 4.34168025e-12 4.22579511e-12 1.65827992e-14 9.93023320e-14 1.12967383e-14 4.22579511e-12
1.51356125e+00 4.13511431e-12 3.94374146e-12 1.30369028e-14 1.78335946e-13 1.68830182e-14 3.94374146e-12
1.73780083e+00 3.97125890e-12 3.68051368e-12 9.58219647e-15 2.81163016e-13 2.14073915e-14 3.68051368e-12
1.99526231e+00 3.83499575e-12 3.43485522e-12 6.85831937e-15 3.93282208e-13 2.31988318e-14 3.43485522e-12
2.29086765e+00 3.70402598e-12 3.20559341e-12 4.67755620e-15 4.93755011e-13 2.16817850e-14 3.20559341e-12
2.63026799e+00 3.56036167e-12 2.99163384e-12 3.02478708e-15 5.65703047e-13 1.78657072e-14 2.99163384e-12
3.01995172e+00 3.39445052e-12 2.79195514e-12 1.99909303e-15 6.00496280e-13 1.34054708e-14 2.79195514e-12
3.46736850e+00 3.20660130e-12 2.60560415e-12 1.25826443e-15 5.99738885e-13 9.32168471e-15 2.60560415e-12
3.98107171e+00 2.99915501e-12 2.43169128e-12 7.56487387e-16 5.66707250e-13 5.81484134e-15 2.43169128e-12
4.57088190e+00 2.78280998e-12 2.26938634e-12 4.39918778e-16 5.12983723e-13 3.47528334e-15 2.26938634e-12
5.24807460e+00 2.32803795e-12 1.87643467e-12 2.27950672e-16 4.51375328e-13 1.93649101e-15 1.87643467e-12
6.02559586e+00 1.63263818e-12 1.23974809e-12 8.88448871e-17 3.92801246e-13 1.05580663e-15 1.23974809e-12
6.70000000e+00 1.25139685e-12 9.01797527e-13 4.31949927e-17 3.49556126e-13 6.16232825e-16 9.01797527e-13
6.92422916e+00 1.15323861e-12 8.16994532e-13 3.42293831e-17 3.36209850e-13 5.11760650e-16 8.16994532e-13
7.15596261e+00 1.06770901e-12 7.40166218e-13 2.64473566e-17 3.27516345e-13 4.33322243e-16 7.40166218e-13
7.39545150e+00 9.99591841e-13 6.70562664e-13 2.00482087e-17 3.29009129e-13 3.59411892e-16 6.70562664e-13
7.64295536e+00 9.66552854e-13 6.07504471e-13 1.52968413e-17 3.59033086e-13 3.19110894e-16 6.07504471e-13
7.89874245e+00 9.83892821e-13 5.50376127e-13 9.84897271e-18 4.33506845e-13 2.81911963e-16 5.50376127e-13
8.16308998e+00 1.04336814e-12 4.98620004e-13 6.58095740e-18 5.44741553e-13 2.53131030e-16 4.98620004e-13
8.43628443e+00 1.15438422e-12 4.51730909e-13 4.17963377e-18 7.02649135e-13 2.25111575e-16 4.51730909e-13
8.71862190e+00 1.22537945e-12 4.09251158e-13 2.76485495e-18 8.16125523e-13 1.85262849e-16 4.09251158e-13
9.01040836e+00 1.30475124e-12 3.70766106e-13 1.71900724e-18 9.33983412e-13 1.43166765e-16 3.70766106e-13
9.31196005e+00 1.36360942e-12 3.35900102e-13 0.00000000e+00 1.02770932e-12 0.00000000e+00 3.35900102e-13
9.62360379e+00 1.32213496e-12 3.04312818e-13 0.00000000e+00 1.01782215e-12 0.00000000e+00 3.04312818e-13
9.94567731e+00 1.21136001e-12 2.75695930e-13 0.00000000e+00 9.35664079e-13 0.00000000e+00 2.75695930e-13
1.02785297e+01 1.08399303e-12 2.49770110e-13 0.00000000e+00 8.34222916e-13 0.00000000e+00 2.49770110e-13
1.06225216e+01 9.62195518e-13 2.26282295e-13 0.00000000e+00 7.35913223e-13 0.00000000e+00 2.26282295e-13
1.09780260e+01 8.36419243e-13 2.05003220e-13 0.00000000e+00 6.31416022e-13 0.00000000e+00 2.05003220e-13
1.13454280e+01 7.29697339e-13 1.85725182e-13 0.00000000e+00 5.43972157e-13 0.00000000e+00 1.85725182e-13
1.17251259e+01 6.39656130e-13 1.68260007e-13 0.00000000e+00 4.71396123e-13 0.00000000e+00 1.68260007e-13
1.21175312e+01 5.59587375e-13 1.52437217e-13 0.00000000e+00 4.07150158e-13 0.00000000e+00 1.52437217e-13
1.25230691e+01 4.89706199e-13 1.38102367e-13 0.00000000e+00 3.51603832e-13 0.00000000e+00 1.38102367e-13
1.29421791e+01 4.31256104e-13 1.25115533e-13 0.00000000e+00 3.06140570e-13 0.00000000e+00 1.25115533e-13
1.33753155e+01 3.82146796e-13 1.13349952e-13 0.00000000e+00 2.68796844e-13 0.00000000e+00 1.13349952e-13
1.38229477e+01 3.47544682e-13 1.02690779e-13 0.00000000e+00 2.44853903e-13 0.00000000e+00 1.02690779e-13
1.42855609e+01 3.24113255e-13 9.30339713e-14 0.00000000e+00 2.31079283e-13 0.00000000e+00 9.30339713e-14
1.47636563e+01 3.17950888e-13 8.42852675e-14 0.00000000e+00 2.33665620e-13 0.00000000e+00 8.42852675e-14
1.52577522e+01 3.16202016e-13 7.63592720e-14 0.00000000e+00 2.39842744e-13 0.00000000e+00 7.63592720e-14
1.57683840e+01 3.17869978e-13 6.91786191e-14 0.00000000e+00 2.48691359e-13 0.00000000e+00 6.91786191e-14
1.62961051e+01 3.20635915e-13 6.26732185e-14 0.00000000e+00 2.57962696e-13 0.00000000e+00 6.26732185e-14
1.68414875e+01 3.24039237e-13 5.67795711e-14 0.00000000e+00 2.67259666e-13 0.00000000e+00 5.67795711e-14
1.74051222e+01 3.22778780e-13 5.14401489e-14 0.00000000e+00 2.71338631e-13 0.00000000e+00 5.14401489e-14
1.79876201e+01 3.18926174e-13 4.66028339e-14 0.00000000e+00 2.72323340e-13 0.00000000e+00 4.66028339e-14
1.85896125e+01 3.08882928e-13 4.22204090e-14 0.00000000e+00 2.66662519e-13 0.00000000e+00 4.22204090e-14
1.92117518e+01 2.93670334e-13 3.82500974e-14 0.00000000e+00 2.55420236e-13 0.00000000e+00 3.82500974e-14
1.98547123e+01 2.75952385e-13 3.46531450e-14 0.00000000e+00 2.41299240e-13 0.00000000e+00 3.46531450e-14
2.05191907e+01 2.58015424e-13 3.13944418e-14 0.00000000e+00 2.26620983e-13 0.00000000e+00 3.13944418e-14
2.12059073e+01 2.41441765e-13 2.84421796e-14 0.00000000e+00 2.12999586e-13 0.00000000e+00 2.84421796e-14
2.19156062e+01 2.26976559e-13 2.57675415e-14 0.00000000e+00 2.01209017e-13 0.00000000e+00 2.57675415e-14
2.26490567e+01 2.13914912e-13 2.33444203e-14 0.00000000e+00 1.90570492e-13 0.00000000e+00 2.33444203e-14
2.34070535e+01 2.01849614e-13 2.11491639e-14 0.00000000e+00 1.80700450e-13 0.00000000e+00 2.11491639e-14
2.41904183e+01 1.91090877e-13 1.91603445e-14 0.00000000e+00 1.71930533e-13 0.00000000e+00 1.91603445e-14
2.50000000e+01 1.81124964e-13 1.73585491e-14 0.00000000e+00 1.63766415e-13 0.00000000e+00 1.73585491e-14
2.75422870e+01 1.55377968e-13 1.29817562e-14 0.00000000e+00 1.42396212e-13 0.00000000e+00 1.29817562e-14
3.16227766e+01 1.24739666e-13 8.57696126e-15 0.00000000e+00 1.16162705e-13 0.00000000e+00 8.57696126e-15
3.63078055e+01 9.73679619e-14 5.66674211e-15 0.00000000e+00 9.17012198e-14 0.00000000e+00 5.66674211e-15
4.16869383e+01 7.23310387e-14 3.74397938e-15 0.00000000e+00 6.85870594e-14 0.00000000e+00 3.74397938e-15
4.78630092e+01 5.09213949e-14 2.47362265e-15 0.00000000e+00 4.84477723e-14 0.00000000e+00 2.47362265e-15
5.49540874e+01 3.42510950e-14 1.63430628e-15 0.00000000e+00 3.26167887e-14 0.00000000e+00 1.63430628e-15
6.30957344e+01 2.21948897e-14 1.07977545e-15 0.00000000e+00 2.11151142e-14 0.00000000e+00 1.07977545e-15
7.24435960e+01 1.39312660e-14 7.13400564e-16 0.00000000e+00 1.32178654e-14 0.00000000e+00 7.13400564e-16
8.31763771e+01 8.52366173e-15 4.71339078e-16 0.00000000e+00 8.05232265e-15 0.00000000e+00 4.71339078e-16
9.54992586e+01 5.11035212e-15 3.11410641e-16 0.00000000e+00 4.79894148e-15 0.00000000e+00 3.11410641e-16
1.09647820e+02 3.01222232e-15 2.05746970e-16 0.00000000e+00 2.80647535e-15 0.00000000e+00 2.05746970e-16
1.25892541e+02 1.76898909e-15 1.35935675e-16 0.00000000e+00 1.63305341e-15 0.00000000e+00 1.35935675e-16
1.44543977e+02 1.02967548e-15 8.98118099e-17 0.00000000e+00 9.39863671e-16 0.00000000e+00 8.98118099e-17
1.65958691e+02 5.71772129e-16 5.93380743e-17 0.00000000e+00 5.12434055e-16 0.00000000e+00 5.93380743e-17
1.90546072e+02 3.17494583e-16 3.92042769e-17 0.00000000e+00 2.78290306e-16 0.00000000e+00 3.92042769e-17
2.18776162e+02 1.76107662e-16 2.59020089e-17 0.00000000e+00 1.50205653e-16 0.00000000e+00 2.59020089e-17
2.51188643e+02 9.75728063e-17 1.71132876e-17 0.00000000e+00 8.04595187e-17 0.00000000e+00 1.71132876e-17
2.88403150e+02 5.40441500e-17 1.13066370e-17 0.00000000e+00 4.27375130e-17 0.00000000e+00 1.13066370e-17
3.31131121e+02 3.00342559e-17 7.47022097e-18 0.00000000e+00 2.25640349e-17 0.00000000e+00 7.47022097e-18
3.80189396e+02 1.67684214e-17 4.93552605e-18 0.00000000e+00 1.18328953e-17 0.00000000e+00 4.93552605e-18
4.36515832e+02 9.43498005e-18 3.26086972e-18 0.00000000e+00 6.17411033e-18 0.00000000e+00 3.26086972e-18
5.01187234e+02 5.35995532e-18 2.15443526e-18 0.00000000e+00 3.20552006e-18 0.00000000e+00 2.15443526e-18
5.75439937e+02 3.08073557e-18 1.42342126e-18 0.00000000e+00 1.65731431e-18 0.00000000e+00 1.42342126e-18
6.60693448e+02 1.79420760e-18 9.40445101e-19 0.00000000e+00 8.53762501e-19 0.00000000e+00 9.40445101e-19
7.58577575e+02 1.05977325e-18 6.21345916e-19 0.00000000e+00 4.38427329e-19 0.00000000e+00 6.21345916e-19
8.70963590e+02 6.34989605e-19 4.10519176e-19 0.00000000e+00 2.24470429e-19 0.00000000e+00 4.10519176e-19
1.00000000e+03 1.14614554e-19 0.00000000e+00 0.00000000e+00 1.14614554e-19 0.00000000e+00 0.00000000e+00
