# column 1: lambda (micron)
# column 2: total flux; lambda*F_lambda (W/m2)
# column 3: direct stellar flux; lambda*F_lambda (W/m2)
# column 4: scattered stellar flux; lambda*F_lambda (W/m2)
# column 5: total dust emission flux; lambda*F_lambda (W/m2)
# column 6: dust emission scattered flux; lambda*F_lambda (W/m2)
# column 7: transparent flux; lambda*F_lambda (W/m2)
1.00000000e-03 9.68073955e-13 9.68073281e-13 6.74022769e-19 0.00000000e+00 0.00000000e+00 9.68073281e-13
1.14815362e-03 1.14263787e-12 1.14263687e-12 9.96652262e-19 0.00000000e+00 0.00000000e+00 1.14263687e-12
1.31825674e-03 1.34867945e-12 1.34867788e-12 1.56836282e-18 0.00000000e+00 0.00000000e+00 1.34867788e-12
1.51356125e-03 1.59187478e-12 1.59187233e-12 2.45222828e-18 0.00000000e+00 0.00000000e+00 1.59187233e-12
1.73780083e-03 1.87892408e-12 1.87891976e-12 4.31636874e-18 0.00000000e+00 0.00000000e+00 1.87891976e-12
1.99526231e-03 2.21773536e-12 2.21772777e-12 7.59972260e-18 0.00000000e+00 0.00000000e+00 2.21772777e-12
2.29086765e-03 2.61764143e-12 2.61762985e-12 1.15807603e-17 0.00000000e+00 0.00000000e+00 2.61762985e-12
2.63026799e-03 3.08966638e-12 3.08964252e-12 2.38585886e-17 0.00000000e+00 0.00000000e+00 3.08964252e-12
3.01995172e-03 3.64680932e-12 3.64676883e-12 4.04895394e-17 0.00000000e+00 0.00000000e+00 3.64676883e-12
3.46736850e-03 4.30442416e-12 4.30435650e-12 6.76626245e-17 0.00000000e+00 0.00000000e+00 4.30435650e-12
3.98107171e-03 5.08062971e-12 5.08052080e-12 1.08905625e-16 0.00000000e+00 0.00000000e+00 5.08052080e-12
4.57088190e-03 5.99687640e-12 5.99664354e-12 2.32861154e-16 0.00000000e+00 0.00000000e+00 5.99664354e-12
5.24807460e-03 7.07839710e-12 7.07796211e-12 4.34985610e-16 0.00000000e+00 0.00000000e+00 7.07796211e-12
6.02559586e-03 8.35505464e-12 8.35426474e-12 7.89899426e-16 0.00000000e+00 0.00000000e+00 8.35426474e-12
6.91830971e-03 9.86238316e-12 9.86071107e-12 1.67209137e-15 0.00000000e+00 0.00000000e+00 9.86071107e-12
7.94328235e-03 1.16408920e-11 1.16388008e-11 2.09126416e-15 0.00000000e+00 0.00000000e+00 1.16388008e-11
9.12010839e-03 1.37409633e-11 1.37375167e-11 3.44657429e-15 0.00000000e+00 0.00000000e+00 1.37375167e-11
1.04712855e-02 1.53475611e-11 1.53429287e-11 4.63247165e-15 0.00000000e+00 0.00000000e+00 1.53429287e-11
1.20226443e-02 1.53502004e-11 1.53429287e-11 7.27174484e-15 0.00000000e+00 0.00000000e+00 1.53429287e-11
1.38038426e-02 1.53542904e-11 1.53429287e-11 1.13616877e-14 2.11996701e-290 1.04276492e-292 1.53429287e-11
1.58489319e-02 1.53601002e-11 1.53429287e-11 1.71715551e-14 1.08278334e-253 1.08408465e-255 1.53429287e-11
1.81970086e-02 1.53635871e-11 1.53429287e-11 2.06584713e-14 1.00283884e-221 1.46992627e-223 1.53429287e-11
2.08929613e-02 1.53756424e-11 1.53429287e-11 3.27137777e-14 6.57856217e-194 1.35835370e-195 1.53429287e-11
2.39883292e-02 1.53798177e-11 1.53429287e-11 3.68890652e-14 1.13618180e-169 3.03697773e-171 1.53429287e-11
2.75422870e-02 1.53932343e-11 1.53429287e-11 5.03056246e-14 1.49232554e-148 5.60222997e-150 1.53429287e-11
3.16227766e-02 1.54046635e-11 1.53429287e-11 6.17348525e-14 3.61482721e-130 1.69176160e-131 1.53429287e-11
3.63078055e-02 1.54208530e-11 1.53429287e-11 7.79243411e-14 3.60899726e-114 2.01590678e-115 1.53429287e-11
4.16869383e-02 1.54477837e-11 1.53429287e-11 1.04855012e-13 3.02394739e-100 2.24495633e-101 1.53429287e-11
4.78630092e-02 1.54887755e-11 1.53429287e-11 1.45846869e-13 3.87889946e-88 3.75246534e-89 1.53429287e-11
5.49540874e-02 1.55273640e-11 1.53429287e-11 1.84435340e-13 1.30015934e-77 1.54437327e-78 1.53429287e-11
6.30957344e-02 1.55705394e-11 1.53429287e-11 2.27610744e-13 2.40183603e-68 3.50362806e-69 1.53429287e-11
7.24435960e-02 1.55696010e-11 1.53429287e-11 2.26672334e-13 2.60729908e-60 3.96193927e-61 1.53429287e-11
8.31763771e-02 1.55636204e-11 1.53429287e-11 2.20691693e-13 1.99368154e-53 3.06625685e-54 1.53429287e-11
9.54992586e-02 1.55742421e-11 1.53429287e-11 2.31313481e-13 1.86559018e-47 3.02581320e-48 1.53429287e-11
1.09647820e-01 1.48885537e-11 1.46523889e-11 2.36164801e-13 2.64141658e-42 4.63384181e-43 1.46523889e-11
1.25892541e-01 1.38799953e-11 1.36744049e-11 2.05590357e-13 7.58320167e-38 1.30919953e-38 1.36744049e-11
1.44543977e-01 1.29477116e-11 1.27616972e-11 1.86014400e-13 5.33626671e-34 9.09718537e-35 1.27616972e-11
1.65958691e-01 1.20981178e-11 1.19099088e-11 1.88208952e-13 8.78922512e-31 1.65330147e-31 1.19099088e-11
1.90546072e-01 1.13324624e-11 1.11149736e-11 2.17488742e-13 3.94509418e-28 8.94071722e-29 1.11149736e-11
2.18776162e-01 1.05944918e-11 1.03730969e-11 2.21394838e-13 6.63811623e-26 1.64850520e-26 1.03730969e-11
2.51188643e-01 9.93317712e-12 9.68073733e-12 2.52439787e-13 9.39361724e-24 2.74800505e-24 9.68073733e-12
2.88403150e-01 9.26669782e-12 9.03458975e-12 2.32108067e-13 6.55081963e-22 1.91490395e-22 9.03458975e-12
3.31131121e-01 8.63934148e-12 8.43156974e-12 2.07771718e-13 2.44838107e-20 7.04459245e-21 8.43156974e-12
3.80189396e-01 8.05585152e-12 7.86879872e-12 1.87052253e-13 5.40644277e-19 1.54944341e-19 7.86879872e-12
4.36515832e-01 7.51338552e-12 7.34359025e-12 1.69787761e-13 7.51181943e-18 2.15875865e-18 7.34359025e-12
5.01187234e-01 7.01479299e-12 6.85343719e-12 1.61285672e-13 7.01335864e-17 2.00185968e-17 6.85343719e-12
5.75439937e-01 6.54310139e-12 6.39599973e-12 1.46640690e-13 4.60968668e-16 1.29630923e-16 6.39599973e-12
6.60693448e-01 6.10887690e-12 5.96909425e-12 1.37533670e-13 2.24897030e-15 6.26342450e-16 5.96909425e-12
7.58577575e-01 5.70158269e-12 5.57068288e-12 1.22343929e-13 8.55587639e-15 2.30590009e-15 5.57068288e-12
8.70963590e-01 5.33486072e-12 5.19886376e-12 1.09547697e-13 2.64492649e-14 6.78176916e-15 5.19886376e-12
1.00000000e+00 5.01558713e-12 4.85186196e-12 9.61218471e-14 6.76033236e-14 1.60230184e-14 4.85186196e-12
1.14815362e+00 4.75807185e-12 4.52802104e-12 7.92068480e-14 1.50843955e-13 3.21101901e-14 4.52802104e-12
1.31825674e+00 4.59085445e-12 4.22579511e-12 6.47874312e-14 3.00271901e-13 5.54349445e-14 4.22579511e-12
1.51356125e+00 4.52890561e-12 3.94374146e-12 5.08167045e-14 5.34347445e-13 8.29700037e-14 3.94374146e-12
1.73780083e+00 4.56698179e-12 3.68051368e-12 3.88543772e-14 8.47613731e-13 1.07609549e-13 3.68051368e-12
1.99526231e+00 4.67784444e-12 3.43485522e-12 2.90220994e-14 1.21396711e-12 1.19479771e-13 3.43485522e-12
2.29086765e+00 4.80633774e-12 3.20559341e-12 2.05092387e-14 1.58023509e-12 1.16812335e-13 3.20559341e-12
2.63026799e+00 4.90702090e-12 2.99163384e-12 1.44956507e-14 1.90089141e-12 1.04475557e-13 2.99163384e-12
3.01995172e+00 4.95261927e-12 2.79195514e-12 1.01457554e-14 2.15051837e-12 8.52455057e-14 2.79195514e-12
3.46736850e+00 4.92572957e-12 2.60560415e-12 7.04119684e-15 2.31308422e-12 6.62795345e-14 2.60560415e-12
3.98107171e+00 4.82331819e-12 2.43169128e-12 4.50961140e-15 2.38711730e-12 4.82140421e-14 2.43169128e-12
4.57088190e+00 4.65050317e-12 2.26938634e-12 3.00455669e-15 2.37811227e-12 3.29304832e-14 2.26938634e-12
5.24807460e+00 4.20374023e-12 1.87643467e-12 1.66049537e-15 2.32564506e-12 2.15213074e-14 1.87643467e-12
6.02559586e+00 3.47486755e-12 1.23974809e-12 7.07460322e-16 2.23441199e-12 1.33282071e-14 1.23974809e-12
6.70000000e+00 3.04768557e-12 9.01797527e-13 3.53589466e-16 2.14553445e-12 8.83774573e-15 9.01797527e-13
6.92422916e+00 2.93287913e-12 8.16994532e-13 2.89725971e-16 2.11559487e-12 7.70343403e-15 8.16994532e-13
7.15596261e+00 2.84178842e-12 7.40166218e-13 2.26171870e-16 2.10139603e-12 6.71633328e-15 7.40166218e-13
7.39545150e+00 2.79636276e-12 6.70562664e-13 1.74218651e-16 2.12562587e-12 5.72189547e-15 6.70562664e-13
7.64295536e+00 2.87209758e-12 6.07504471e-13 1.22114130e-16 2.26447099e-12 4.84072174e-15 6.07504471e-13
7.89874245e+00 3.13054115e-12 5.50376127e-13 7.67048484e-17 2.58008831e-12 3.97031419e-15 5.50376127e-13
8.16308998e+00 3.53114941e-12 4.98620004e-13 4.68294615e-17 3.03248258e-12 3.21011328e-15 4.98620004e-13
8.43628443e+00 4.12388083e-12 4.51730909e-13 2.63912414e-17 3.67212353e-12 2.49729671e-15 4.51730909e-13
8.71862190e+00 4.54559970e-12 4.09251158e-13 1.64459901e-17 4.13633209e-12 2.01608711e-15 4.09251158e-13
9.01040836e+00 4.98607088e-12 3.70766106e-13 1.04083798e-17 4.61529436e-12 1.51152534e-15 3.70766106e-13
9.31196005e+00 5.36084857e-12 3.35900102e-13 0.00000000e+00 5.02494846e-12 0.00000000e+00 3.35900102e-13
9.62360379e+00 5.36636937e-12 3.04312818e-13 0.00000000e+00 5.06205655e-12 0.00000000e+00 3.04312818e-13
9.94567731e+00 5.09062992e-12 2.75695930e-13 0.00000000e+00 4.81493399e-12 0.00000000e+00 2.75695930e-13
1.02785297e+01 4.73207666e-12 2.49770110e-13 0.00000000e+00 4.48230655e-12 0.00000000e+00 2.49770110e-13
1.06225216e+01 4.37672987e-12 2.26282295e-13 0.00000000e+00 4.15044757e-12 0.00000000e+00 2.26282295e-13
1.09780260e+01 3.99081477e-12 2.05003220e-13 0.00000000e+00 3.78581154e-12 0.00000000e+00 2.05003220e-13
1.13454280e+01 3.64915700e-12 1.85725182e-13 0.00000000e+00 3.46343181e-12 0.00000000e+00 1.85725182e-13
1.17251259e+01 3.36935664e-12 1.68260007e-13 0.00000000e+00 3.20109663e-12 0.00000000e+00 1.68260007e-13
1.21175312e+01 3.10519357e-12 1.52437217e-13 0.00000000e+00 2.95275635e-12 0.00000000e+00 1.52437217e-13
1.25230691e+01 2.86139661e-12 1.38102367e-13 0.00000000e+00 2.72329424e-12 0.00000000e+00 1.38102367e-13
1.29421791e+01 2.65983651e-12 1.25115533e-13 0.00000000e+00 2.53472098e-12 0.00000000e+00 1.25115533e-13
1.33753155e+01 2.48605418e-12 1.13349952e-13 0.00000000e+00 2.37270423e-12 0.00000000e+00 1.13349952e-13
1.38229477e+01 2.38039205e-12 1.02690779e-13 0.00000000e+00 2.27770127e-12 0.00000000e+00 1.02690779e-13
1.42855609e+01 2.33740207e-12 9.30339713e-14 0.00000000e+00 2.24436810e-12 0.00000000e+00 9.30339713e-14
1.47636563e+01 2.40297739e-12 8.42852675e-14 0.00000000e+00 2.31869212e-12 0.00000000e+00 8.42852675e-14
1.52577522e+01 2.49275396e-12 7.63592720e-14 0.00000000e+00 2.41639469e-12 0.00000000e+00 7.63592720e-14
1.57683840e+01 2.60400941e-12 6.91786191e-14 0.00000000e+00 2.53483079e-12 0.00000000e+00 6.91786191e-14
1.62961051e+01 2.73217126e-12 6.26732185e-14 0.00000000e+00 2.66949804e-12 0.00000000e+00 6.26732185e-14
1.68414875e+01 2.86384639e-12 5.67795711e-14 0.00000000e+00 2.80706682e-12 0.00000000e+00 5.67795711e-14
1.74051222e+01 2.95804871e-12 5.14401489e-14 0.00000000e+00 2.90660856e-12 0.00000000e+00 5.14401489e-14
1.79876201e+01 3.03177651e-12 4.66028339e-14 0.00000000e+00 2.98517368e-12 0.00000000e+00 4.66028339e-14
1.85896125e+01 3.05498398e-12 4.22204090e-14 0.00000000e+00 3.01276357e-12 0.00000000e+00 4.22204090e-14
1.92117518e+01 3.05301519e-12 3.82500974e-14 0.00000000e+00 3.01476509e-12 0.00000000e+00 3.82500974e-14
1.98547123e+01 3.01532040e-12 3.46531450e-14 0.00000000e+00 2.98066726e-12 0.00000000e+00 3.46531450e-14
2.05191907e+01 2.96542630e-12 3.13944418e-14 0.00000000e+00 2.93403186e-12 0.00000000e+00 3.13944418e-14
2.12059073e+01 2.90927939e-12 2.84421796e-14 0.00000000e+00 2.88083721e-12 0.00000000e+00 2.84421796e-14
2.19156062e+01 2.86016097e-12 2.57675415e-14 0.00000000e+00 2.83439343e-12 0.00000000e+00 2.57675415e-14
2.26490567e+01 2.81013178e-12 2.33444203e-14 0.00000000e+00 2.78678736e-12 0.00000000e+00 2.33444203e-14
2.34070535e+01 2.77195032e-12 2.11491639e-14 0.00000000e+00 2.75080116e-12 0.00000000e+00 2.11491639e-14
2.41904183e+01 2.72819531e-12 1.91603445e-14 0.00000000e+00 2.70903497e-12 0.00000000e+00 1.91603445e-14
2.50000000e+01 2.68563645e-12 1.73585491e-14 0.00000000e+00 2.66827790e-12 0.00000000e+00 1.73585491e-14
2.75422870e+01 2.54001534e-12 1.29817562e-14 0.00000000e+00 2.52703358e-12 0.00000000e+00 1.29817562e-14
3.16227766e+01 2.25832393e-12 8.57696126e-15 0.00000000e+00 2.24974697e-12 0.00000000e+00 8.57696126e-15
3.63078055e+01 1.89630013e-12 5.66674211e-15 0.00000000e+00 1.89063339e-12 0.00000000e+00 5.66674211e-15
4.16869383e+01 1.48041122e-12 3.74397938e-15 0.00000000e+00 1.47666724e-12 0.00000000e+00 3.74397938e-15
4.78630092e+01 1.07246881e-12 2.47362265e-15 0.00000000e+00 1.06999519e-12 0.00000000e+00 2.47362265e-15
5.49540874e+01 7.28626982e-13 1.63430628e-15 0.00000000e+00 7.26992676e-13 0.00000000e+00 1.63430628e-15
6.30957344e+01 4.69740589e-13 1.07977545e-15 0.00000000e+00 4.68660814e-13 0.00000000e+00 1.07977545e-15
7.24435960e+01 2.89668730e-13 7.13400564e-16 0.00000000e+00 2.88955329e-13 0.00000000e+00 7.13400564e-16
8.31763771e+01 1.72624211e-13 4.71339078e-16 0.00000000e+00 1.72152872e-13 0.00000000e+00 4.71339078e-16
9.54992586e+01 1.00311501e-13 3.11410641e-16 0.00000000e+00 1.00000091e-13 0.00000000e+00 3.11410641e-16
1.09647820e+02 5.70986570e-14 2.05746970e-16 0.00000000e+00 5.68929100e-14 0.00000000e+00 2.05746970e-16
1.25892541e+02 3.23275399e-14 1.35935675e-16 0.00000000e+00 3.21916043e-14 0.00000000e+00 1.35935675e-16
1.44543977e+02 1.81368674e-14 8.98118099e-17 0.00000000e+00 1.80470556e-14 0.00000000e+00 8.98118099e-17
1.65958691e+02 9.67664221e-15 5.93380743e-17 0.00000000e+00 9.61730414e-15 0.00000000e+00 5.93380743e-17
1.90546072e+02 5.15270078e-15 3.92042769e-17 0.00000000e+00 5.11349650e-15 0.00000000e+00 3.92042769e-17
2.18776162e+02 2.73344070e-15 2.59020089e-17 0.00000000e+00 2.70753870e-15 0.00000000e+00 2.59020089e-17
2.51188643e+02 1.44284881e-15 1.71132876e-17 0.00000000e+00 1.42573553e-15 0.00000000e+00 1.71132876e-17
2.88403150e+02 7.57278998e-16 1.13066370e-17 0.00000000e+00 7.45972361e-16 0.00000000e+00 1.13066370e-17
3.31131121e+02 3.96113307e-16 7.47022097e-18 0.00000000e+00 3.88643086e-16 0.00000000e+00 7.47022097e-18
3.80189396e+02 2.06394695e-16 4.93552605e-18 0.00000000e+00 2.01459168e-16 0.00000000e+00 4.93552605e-18
4.36515832e+02 1.07315035e-16 3.26086972e-18 0.00000000e+00 1.04054165e-16 0.00000000e+00 3.26086972e-18
5.01187234e+02 5.57004597e-17 2.15443526e-18 0.00000000e+00 5.35460245e-17 0.00000000e+00 2.15443526e-18
5.75439937e+02 2.88944021e-17 1.42342126e-18 0.00000000e+00 2.74709809e-17 0.00000000e+00 1.42342126e-18
6.60693448e+02 1.49969851e-17 9.40445101e-19 0.00000000e+00 1.40565400e-17 0.00000000e+00 9.40445101e-19
7.58577575e+02 7.79748009e-18 6.21345916e-19 0.00000000e+00 7.17613417e-18 0.00000000e+00 6.21345916e-19
8.70963590e+02 4.06590486e-18 4.10519176e-19 0.00000000e+00 3.65538568e-18 0.00000000e+00 4.10519176e-19
1.00000000e+03 1.85815945e-18 0.00000000e+00 0.00000000e+00 1.85815945e-18 0.00000000e+00 0.00000000e+00
