# column 1: lambda (micron)
# column 2: total flux; lambda*F_lambda (W/m2)
# column 3: direct stellar flux; lambda*F_lambda (W/m2)
# column 4: scattered stellar flux; lambda*F_lambda (W/m2)
# column 5: total dust emission flux; lambda*F_lambda (W/m2)
# column 6: dust emission scattered flux; lambda*F_lambda (W/m2)
# column 7: transparent flux; lambda*F_lambda (W/m2)
1.00000000e-03 6.93994237e-13 6.93993746e-13 4.91563659e-19 0.00000000e+00 0.00000000e+00 6.93993746e-13
1.14815362e-03 8.19135922e-13 8.19135139e-13 7.83050309e-19 0.00000000e+00 0.00000000e+00 8.19135139e-13
1.31825674e-03 9.66843278e-13 9.66842108e-13 1.17050106e-18 0.00000000e+00 0.00000000e+00 9.66842108e-13
1.51356125e-03 1.14118552e-12 1.14118369e-12 1.82475251e-18 0.00000000e+00 0.00000000e+00 1.14118369e-12
1.73780083e-03 1.34696602e-12 1.34696266e-12 3.35628065e-18 0.00000000e+00 0.00000000e+00 1.34696266e-12
1.99526231e-03 1.58985371e-12 1.58984782e-12 5.88543050e-18 0.00000000e+00 0.00000000e+00 1.58984782e-12
2.29086765e-03 1.87653927e-12 1.87653019e-12 9.07996513e-18 0.00000000e+00 0.00000000e+00 1.87653019e-12
2.63026799e-03 2.21492521e-12 2.21490731e-12 1.78982997e-17 0.00000000e+00 0.00000000e+00 2.21490731e-12
3.01995172e-03 2.61433123e-12 2.61430080e-12 3.04268538e-17 0.00000000e+00 0.00000000e+00 2.61430080e-12
3.46736850e-03 3.08576236e-12 3.08571319e-12 4.91727134e-17 0.00000000e+00 0.00000000e+00 3.08571319e-12
3.98107171e-03 3.64221329e-12 3.64213095e-12 8.23345294e-17 0.00000000e+00 0.00000000e+00 3.64213095e-12
4.57088190e-03 4.29906513e-12 4.29888232e-12 1.82812678e-16 0.00000000e+00 0.00000000e+00 4.29888232e-12
5.24807460e-03 5.07438009e-12 5.07405951e-12 3.20582789e-16 0.00000000e+00 0.00000000e+00 5.07405951e-12
6.02559586e-03 5.98961879e-12 5.98901715e-12 6.01644175e-16 0.00000000e+00 0.00000000e+00 5.98901715e-12
6.91830971e-03 7.06982862e-12 7.06896053e-12 8.68094578e-16 0.00000000e+00 0.00000000e+00 7.06896053e-12
7.94328235e-03 8.34516033e-12 8.34363998e-12 1.52034557e-15 0.00000000e+00 0.00000000e+00 8.34363998e-12
9.12010839e-03 9.85067188e-12 9.84817045e-12 2.50143483e-15 0.00000000e+00 0.00000000e+00 9.84817045e-12
1.04712855e-02 1.10024266e-11 1.09990604e-11 3.36613057e-15 0.00000000e+00 0.00000000e+00 1.09990604e-11
1.20226443e-02 1.10044122e-11 1.09990604e-11 5.35172582e-15 0.00000000e+00 0.00000000e+00 1.09990604e-11
1.38038426e-02 1.10058011e-11 1.09990604e-11 6.74066812e-15 1.25290000e-290 3.90875247e-292 1.09990604e-11
1.58489319e-02 1.10156872e-11 1.09990604e-11 1.66268021e-14 9.15156680e-254 5.22419533e-255 1.09990604e-11
1.81970086e-02 1.10166522e-11 1.09990604e-11 1.75917716e-14 1.09748950e-221 5.49038312e-223 1.09990604e-11
2.08929613e-02 1.10178429e-11 1.09990604e-11 1.87824174e-14 8.82618548e-194 5.15381136e-195 1.09990604e-11
2.39883292e-02 1.10273306e-11 1.09990604e-11 2.82701486e-14 1.74211953e-169 1.12757638e-170 1.09990604e-11
2.75422870e-02 1.10341561e-11 1.09990604e-11 3.50956684e-14 2.47353795e-148 1.76077576e-149 1.09990604e-11
3.16227766e-02 1.10422683e-11 1.09990604e-11 4.32078428e-14 6.23249360e-130 4.78107002e-131 1.09990604e-11
3.63078055e-02 1.10476267e-11 1.09990604e-11 4.85662661e-14 6.27406041e-114 5.05353685e-115 1.09990604e-11
4.16869383e-02 1.10672192e-11 1.09990604e-11 6.81587583e-14 5.21096788e-100 4.89823364e-101 1.09990604e-11
4.78630092e-02 1.10885429e-11 1.09990604e-11 8.94824619e-14 6.49430685e-88 6.96164281e-89 1.09990604e-11
5.49540874e-02 1.11080244e-11 1.09990604e-11 1.08963977e-13 2.09309085e-77 2.53321607e-78 1.09990604e-11
6.30957344e-02 1.11245632e-11 1.09990604e-11 1.25502717e-13 3.66236744e-68 5.05017704e-69 1.09990604e-11
7.24435960e-02 1.11208670e-11 1.09990604e-11 1.21806552e-13 3.76247847e-60 5.12055954e-61 1.09990604e-11
8.31763771e-02 1.11174859e-11 1.09990604e-11 1.18425418e-13 2.75662543e-53 3.73121063e-54 1.09990604e-11
9.54992586e-02 1.11200723e-11 1.09990604e-11 1.21011836e-13 2.45001705e-47 3.51073068e-48 1.09990604e-11
1.09647820e-01 1.06279421e-11 1.05040253e-11 1.23916769e-13 3.26882353e-42 5.00092558e-43 1.05040253e-11
1.25892541e-01 9.91888396e-12 9.80292679e-12 1.15957168e-13 8.84878095e-38 1.35291550e-38 9.80292679e-12
1.44543977e-01 9.25082666e-12 9.14862359e-12 1.02203069e-13 5.79138503e-34 8.65558934e-35 9.14862359e-12
1.65958691e-01 8.64161857e-12 8.53799231e-12 1.03626261e-13 8.89736296e-31 1.46969402e-31 8.53799231e-12
1.90546072e-01 8.08570654e-12 7.96811805e-12 1.17588493e-13 3.70402275e-28 7.26783438e-29 7.96811805e-12
2.18776162e-01 7.54924108e-12 7.43628044e-12 1.12960645e-13 5.87594131e-26 1.24342853e-26 7.43628044e-12
2.51188643e-01 7.07233658e-12 6.93994070e-12 1.32395876e-13 7.78856578e-24 1.95772080e-24 6.93994070e-12
2.88403150e-01 6.59466977e-12 6.47672950e-12 1.17940268e-13 5.16645649e-22 1.27669916e-22 6.47672950e-12
3.31131121e-01 6.15313998e-12 6.04443567e-12 1.08704298e-13 1.85036546e-20 4.47008556e-21 6.04443567e-12
3.80189396e-01 5.74067901e-12 5.64099558e-12 9.96830363e-14 3.92715357e-19 9.31510083e-20 5.64099558e-12
4.36515832e-01 5.35092346e-12 5.26448339e-12 8.64348006e-14 5.27220221e-18 1.22566318e-18 5.26448339e-12
5.01187234e-01 4.99523447e-12 4.91310176e-12 8.20852065e-14 4.75037449e-17 1.08394915e-17 4.91310176e-12
5.75439937e-01 4.66218689e-12 4.58517335e-12 7.67096989e-14 3.03842832e-16 6.79470513e-17 4.58517335e-12
6.60693448e-01 4.35181772e-12 4.27913275e-12 7.12398395e-14 1.44513420e-15 3.17409143e-16 4.27913275e-12
7.58577575e-01 4.06300425e-12 3.99351904e-12 6.40695068e-14 5.41570412e-15 1.15160276e-15 3.99351904e-12
8.70963590e-01 3.80052930e-12 3.72696882e-12 5.70193688e-14 1.65411108e-14 3.34161945e-15 3.72696882e-12
1.00000000e+00 3.57051254e-12 3.47820968e-12 5.01440169e-14 4.21588379e-14 7.93125095e-15 3.47820968e-12
1.14815362e+00 3.38195737e-12 3.24605414e-12 4.15287666e-14 9.43744617e-14 1.61223352e-14 3.24605414e-12
1.31825674e+00 3.25214126e-12 3.02939399e-12 3.42261667e-14 1.88521101e-13 2.80226629e-14 3.02939399e-12
1.51356125e+00 3.19057282e-12 2.82719497e-12 2.68632656e-14 3.36514582e-13 4.27066199e-14 2.82719497e-12
1.73780083e+00 3.19348438e-12 2.63849186e-12 2.08103621e-14 5.34182151e-13 5.60595906e-14 2.63849186e-12
1.99526231e+00 3.23971049e-12 2.46238388e-12 1.56233025e-14 7.61703304e-13 6.29145231e-14 2.46238388e-12
2.29086765e+00 3.29508351e-12 2.29803035e-12 1.11524208e-14 9.85900744e-13 6.18242031e-14 2.29803035e-12
2.63026799e+00 3.31889393e-12 2.14464670e-12 7.68342503e-15 1.16656380e-12 5.41508940e-14 2.14464670e-12
3.01995172e+00 3.29537313e-12 2.00150076e-12 5.23699087e-15 1.28863537e-12 4.38985351e-14 2.00150076e-12
3.46736850e+00 3.21141917e-12 1.86790919e-12 3.52369185e-15 1.33998628e-12 3.25819986e-14 1.86790919e-12
3.98107171e+00 3.06649517e-12 1.74323429e-12 2.30645199e-15 1.32095443e-12 2.26135717e-14 1.74323429e-12
4.57088190e+00 2.87575119e-12 1.62688090e-12 1.50565397e-15 1.24736464e-12 1.46076804e-14 1.62688090e-12
5.24807460e+00 2.48967879e-12 1.34518114e-12 8.55924669e-16 1.14364172e-12 8.82696799e-15 1.34518114e-12
6.02559586e+00 1.92333696e-12 8.88752369e-13 3.66752146e-16 1.03421784e-12 5.07833565e-15 8.88752369e-13
6.70000000e+00 1.59513607e-12 6.46481889e-13 1.74813281e-16 9.48479365e-13 3.19195682e-15 6.46481889e-13
6.92422916e+00 1.50611035e-12 5.85688198e-13 1.42392205e-16 9.20279763e-13 2.73304654e-15 5.85688198e-13
7.15596261e+00 1.43475252e-12 5.30611407e-13 1.10602765e-16 9.04030511e-13 2.33662821e-15 5.30611407e-13
7.39545150e+00 1.39147011e-12 4.80713913e-13 8.52172442e-17 9.10670983e-13 1.99388406e-15 4.80713913e-13
7.64295536e+00 1.41742800e-12 4.35508666e-13 6.17589585e-17 9.81857572e-13 1.69462990e-15 4.35508666e-13
7.89874245e+00 1.54423981e-12 3.94554418e-13 3.91799275e-17 1.14964621e-12 1.45338412e-15 3.94554418e-13
8.16308998e+00 1.75078178e-12 3.57451415e-13 2.40324168e-17 1.39330634e-12 1.21428443e-15 3.57451415e-13
8.43628443e+00 2.04986038e-12 3.23837494e-13 1.35919545e-17 1.72600929e-12 9.67781278e-16 3.23837494e-13
8.71862190e+00 2.25076148e-12 2.93384550e-13 8.88898844e-18 1.95736805e-12 7.80871708e-16 2.93384550e-13
9.01040836e+00 2.46203449e-12 2.65795332e-13 5.53986377e-18 2.19623362e-12 5.87170726e-16 2.65795332e-13
9.31196005e+00 2.60927271e-12 2.40800541e-13 0.00000000e+00 2.36847216e-12 0.00000000e+00 2.40800541e-13
9.62360379e+00 2.57948748e-12 2.18156204e-13 0.00000000e+00 2.36133128e-12 0.00000000e+00 2.18156204e-13
9.94567731e+00 2.39371101e-12 1.97641289e-13 0.00000000e+00 2.19606972e-12 0.00000000e+00 1.97641289e-13
1.02785297e+01 2.18547243e-12 1.79055550e-13 0.00000000e+00 2.00641688e-12 0.00000000e+00 1.79055550e-13
1.06225216e+01 1.98169701e-12 1.62217572e-13 0.00000000e+00 1.81947944e-12 0.00000000e+00 1.62217572e-13
1.09780260e+01 1.75735519e-12 1.46962999e-13 0.00000000e+00 1.61039219e-12 0.00000000e+00 1.46962999e-13
1.13454280e+01 1.56797472e-12 1.33142932e-13 0.00000000e+00 1.43483179e-12 0.00000000e+00 1.33142932e-13
1.17251259e+01 1.40659796e-12 1.20622472e-13 0.00000000e+00 1.28597549e-12 0.00000000e+00 1.20622472e-13
1.21175312e+01 1.26302118e-12 1.09279408e-13 0.00000000e+00 1.15374178e-12 0.00000000e+00 1.09279408e-13
1.25230691e+01 1.13182993e-12 9.90030204e-14 0.00000000e+00 1.03282691e-12 0.00000000e+00 9.90030204e-14
1.29421791e+01 1.02448494e-12 8.96930008e-14 0.00000000e+00 9.34791944e-13 0.00000000e+00 8.96930008e-14
1.33753155e+01 9.31962871e-13 8.12584743e-14 0.00000000e+00 8.50704397e-13 0.00000000e+00 8.12584743e-14
1.38229477e+01 8.73829948e-13 7.36171115e-14 0.00000000e+00 8.00212836e-13 0.00000000e+00 7.36171115e-14
1.42855609e+01 8.39645882e-13 6.66943252e-14 0.00000000e+00 7.72951557e-13 0.00000000e+00 6.66943252e-14
1.47636563e+01 8.49813639e-13 6.04225420e-14 0.00000000e+00 7.89391097e-13 0.00000000e+00 6.04225420e-14
1.52577522e+01 8.73885864e-13 5.47405431e-14 0.00000000e+00 8.19145321e-13 0.00000000e+00 5.47405431e-14
1.57683840e+01 9.04901868e-13 4.95928665e-14 0.00000000e+00 8.55309002e-13 0.00000000e+00 4.95928665e-14
1.62961051e+01 9.36453275e-13 4.49292657e-14 0.00000000e+00 8.91524010e-13 0.00000000e+00 4.49292657e-14
1.68414875e+01 9.70306506e-13 4.07042194e-14 0.00000000e+00 9.29602287e-13 0.00000000e+00 4.07042194e-14
1.74051222e+01 9.93166567e-13 3.68764869e-14 0.00000000e+00 9.56290080e-13 0.00000000e+00 3.68764869e-14
1.79876201e+01 1.00833386e-12 3.34087056e-14 0.00000000e+00 9.74925155e-13 0.00000000e+00 3.34087056e-14
1.85896125e+01 1.00972559e-12 3.02670267e-14 0.00000000e+00 9.79458566e-13 0.00000000e+00 3.02670267e-14
1.92117518e+01 9.93008118e-13 2.74207841e-14 0.00000000e+00 9.65587334e-13 0.00000000e+00 2.74207841e-14
1.98547123e+01 9.66310208e-13 2.48421957e-14 0.00000000e+00 9.41468012e-13 0.00000000e+00 2.48421957e-14
2.05191907e+01 9.35652028e-13 2.25060919e-14 0.00000000e+00 9.13145937e-13 0.00000000e+00 2.25060919e-14
2.12059073e+01 9.08594662e-13 2.03896700e-14 0.00000000e+00 8.88204992e-13 0.00000000e+00 2.03896700e-14
2.19156062e+01 8.87310812e-13 1.84722717e-14 0.00000000e+00 8.68838540e-13 0.00000000e+00 1.84722717e-14
2.26490567e+01 8.66107347e-13 1.67351811e-14 0.00000000e+00 8.49372166e-13 0.00000000e+00 1.67351811e-14
2.34070535e+01 8.44887842e-13 1.51614426e-14 0.00000000e+00 8.29726399e-13 0.00000000e+00 1.51614426e-14
2.41904183e+01 8.27940124e-13 1.37356949e-14 0.00000000e+00 8.14204429e-13 0.00000000e+00 1.37356949e-14
2.50000000e+01 8.11958285e-13 1.24440213e-14 0.00000000e+00 7.99514264e-13 0.00000000e+00 1.24440213e-14
2.75422870e+01 7.61410052e-13 9.30637977e-15 0.00000000e+00 7.52103672e-13 0.00000000e+00 9.30637977e-15
3.16227766e+01 6.84973293e-13 6.14866414e-15 0.00000000e+00 6.78824629e-13 0.00000000e+00 6.14866414e-15
3.63078055e+01 5.86172243e-13 4.06238211e-15 0.00000000e+00 5.82109861e-13 0.00000000e+00 4.06238211e-15
4.16869383e+01 4.70309169e-13 2.68398924e-15 0.00000000e+00 4.67625180e-13 0.00000000e+00 2.68398924e-15
4.78630092e+01 3.51538164e-13 1.77329411e-15 0.00000000e+00 3.49764870e-13 0.00000000e+00 1.77329411e-15
5.49540874e+01 2.46725115e-13 1.17160380e-15 0.00000000e+00 2.45553511e-13 0.00000000e+00 1.17160380e-15
6.30957344e+01 1.64490627e-13 7.74070953e-16 0.00000000e+00 1.63716557e-13 0.00000000e+00 7.74070953e-16
7.24435960e+01 1.04798654e-13 5.11423607e-16 0.00000000e+00 1.04287230e-13 0.00000000e+00 5.11423607e-16
8.31763771e+01 6.44381772e-14 3.37894226e-16 0.00000000e+00 6.41002830e-14 0.00000000e+00 3.37894226e-16
9.54992586e+01 3.85157429e-14 2.23244502e-16 0.00000000e+00 3.82924984e-14 0.00000000e+00 2.23244502e-16
1.09647820e+02 2.25022642e-14 1.47496179e-16 0.00000000e+00 2.23547680e-14 0.00000000e+00 1.47496179e-16
1.25892541e+02 1.30466869e-14 9.74497594e-17 0.00000000e+00 1.29492371e-14 0.00000000e+00 9.74497594e-17
1.44543977e+02 7.47199951e-15 6.43844175e-17 0.00000000e+00 7.40761509e-15 0.00000000e+00 6.43844175e-17
1.65958691e+02 4.05952019e-15 4.25383628e-17 0.00000000e+00 4.01698182e-15 0.00000000e+00 4.25383628e-17
1.90546072e+02 2.19722136e-15 2.81048176e-17 0.00000000e+00 2.16911654e-15 0.00000000e+00 2.81048176e-17
2.18776162e+02 1.18260534e-15 1.85686688e-17 0.00000000e+00 1.16403667e-15 0.00000000e+00 1.85686688e-17
2.51188643e+02 6.32368267e-16 1.22681978e-17 0.00000000e+00 6.20100069e-16 0.00000000e+00 1.22681978e-17
2.88403150e+02 3.35832488e-16 8.10551794e-18 0.00000000e+00 3.27726970e-16 0.00000000e+00 8.10551794e-18
3.31131121e+02 1.77589482e-16 5.35526259e-18 0.00000000e+00 1.72234219e-16 0.00000000e+00 5.35526259e-18
3.80189396e+02 9.34897338e-17 3.53818691e-18 0.00000000e+00 8.99515469e-17 0.00000000e+00 3.53818691e-18
4.36515832e+02 4.90997661e-17 2.33765691e-18 0.00000000e+00 4.67621092e-17 0.00000000e+00 2.33765691e-18
5.01187234e+02 2.57438893e-17 1.54447460e-18 0.00000000e+00 2.41994147e-17 0.00000000e+00 1.54447460e-18
5.75439937e+02 1.34959804e-17 1.02042425e-18 0.00000000e+00 1.24755562e-17 0.00000000e+00 1.02042425e-18
6.60693448e+02 7.08467107e-18 6.74187617e-19 0.00000000e+00 6.41048345e-18 0.00000000e+00 6.74187617e-19
7.58577575e+02 3.73004159e-18 4.45431341e-19 0.00000000e+00 3.28461025e-18 0.00000000e+00 4.45431341e-19
8.70963590e+02 1.97268921e-18 2.94293569e-19 0.00000000e+00 1.67839564e-18 0.00000000e+00 2.94293569e-19
1.00000000e+03 8.55519813e-19 0.00000000e+00 0.00000000e+00 8.55519813e-19 0.00000000e+00 0.00000000e+00
