# column 1: lambda (micron)
# column 2: total flux; lambda*F_lambda (W/m2)
# column 3: direct stellar flux; lambda*F_lambda (W/m2)
# column 4: scattered stellar flux; lambda*F_lambda (W/m2)
# column 5: total dust emission flux; lambda*F_lambda (W/m2)
# column 6: dust emission scattered flux; lambda*F_lambda (W/m2)
# column 7: transparent flux; lambda*F_lambda (W/m2)
1.00000000e-03 2.06069782e-13 2.06069126e-13 6.56211571e-19 0.00000000e+00 0.00000000e+00 2.06075710e-13
1.14815362e-03 2.43226456e-13 2.43225146e-13 1.31028521e-18 0.00000000e+00 0.00000000e+00 2.43235413e-13
1.31825674e-03 2.87082226e-13 2.87080370e-13 1.85665705e-18 0.00000000e+00 0.00000000e+00 2.87095777e-13
1.51356125e-03 3.38846323e-13 3.38843630e-13 2.69324817e-18 0.00000000e+00 0.00000000e+00 3.38865070e-13
1.73780083e-03 3.99948090e-13 3.99943867e-13 4.22334177e-18 0.00000000e+00 0.00000000e+00 3.99969435e-13
1.99526231e-03 4.72060688e-13 4.72052167e-13 8.52107002e-18 0.00000000e+00 0.00000000e+00 4.72092178e-13
2.29086765e-03 5.57180802e-13 5.57170060e-13 1.07422718e-17 0.00000000e+00 0.00000000e+00 5.57220139e-13
2.63026799e-03 6.57656706e-13 6.57627595e-13 2.91109089e-17 0.00000000e+00 0.00000000e+00 6.57698429e-13
3.01995172e-03 7.76234815e-13 7.76191626e-13 4.31891216e-17 0.00000000e+00 0.00000000e+00 7.76295028e-13
3.46736850e-03 9.16212824e-13 9.16133189e-13 7.96349326e-17 0.00000000e+00 0.00000000e+00 9.16277040e-13
3.98107171e-03 1.08144243e-12 1.08130635e-12 1.36083045e-16 0.00000000e+00 0.00000000e+00 1.08150070e-12
4.57088190e-03 1.27659300e-12 1.27636457e-12 2.28433637e-16 0.00000000e+00 0.00000000e+00 1.27651759e-12
5.24807460e-03 1.50691795e-12 1.50646937e-12 4.48577973e-16 0.00000000e+00 0.00000000e+00 1.50670006e-12
6.02559586e-03 1.77902034e-12 1.77806087e-12 9.59471934e-16 0.00000000e+00 0.00000000e+00 1.77838917e-12
6.91830971e-03 2.09972166e-12 2.09862221e-12 1.09944104e-15 0.00000000e+00 0.00000000e+00 2.09906943e-12
7.94328235e-03 2.47932323e-12 2.47698606e-12 2.33716690e-15 0.00000000e+00 0.00000000e+00 2.47757497e-12
9.12010839e-03 2.92853140e-12 2.92356152e-12 4.96988376e-15 0.00000000e+00 0.00000000e+00 2.92433286e-12
1.04712855e-02 3.27071616e-12 3.26516365e-12 5.55250552e-15 0.00000000e+00 0.00000000e+00 3.26608014e-12
1.20226443e-02 3.27377090e-12 3.26510957e-12 8.66133610e-15 0.00000000e+00 0.00000000e+00 3.26608014e-12
1.38038426e-02 3.27590687e-12 3.26504542e-12 1.08614438e-14 4.01090310e-291 1.78565109e-292 3.26608014e-12
1.58489319e-02 3.28215655e-12 3.26496660e-12 1.71899514e-14 2.35595920e-254 1.67816750e-255 3.26608014e-12
1.81970086e-02 3.29339068e-12 3.26489389e-12 2.84967867e-14 2.29376339e-222 1.55754913e-223 3.26608014e-12
2.08929613e-02 3.29378714e-12 3.26483346e-12 2.89536730e-14 1.48213382e-194 9.36808757e-196 3.26608014e-12
2.39883292e-02 3.29497077e-12 3.26475517e-12 3.02156002e-14 2.40635212e-170 1.66575296e-171 3.26608014e-12
2.75422870e-02 3.29830825e-12 3.26466410e-12 3.36441551e-14 2.82044649e-149 2.09192395e-150 3.26608014e-12
3.16227766e-02 3.29842481e-12 3.26457483e-12 3.38499797e-14 5.86340462e-131 4.32948760e-132 3.26608014e-12
3.63078055e-02 3.30506042e-12 3.26450482e-12 4.05556016e-14 4.94147263e-115 3.59308709e-116 3.26608014e-12
4.16869383e-02 3.30462473e-12 3.26444426e-12 4.01804701e-14 3.46307251e-101 2.60986405e-102 3.26608014e-12
4.78630092e-02 3.30006897e-12 3.26427735e-12 3.57916237e-14 3.68411953e-89 2.82847035e-90 3.26608014e-12
5.49540874e-02 3.30438056e-12 3.26404524e-12 4.03353196e-14 1.03297395e-78 7.92217005e-80 3.26608014e-12
6.30957344e-02 3.30315479e-12 3.26346330e-12 3.96914900e-14 1.61810601e-69 1.31081858e-70 3.26608014e-12
7.24435960e-02 3.29522477e-12 3.26277411e-12 3.24506614e-14 1.54715874e-61 1.15439411e-62 3.26608014e-12
8.31763771e-02 3.29538747e-12 3.26283543e-12 3.25520339e-14 1.05947300e-54 7.55007716e-56 3.26608014e-12
9.54992586e-02 3.29281049e-12 3.26301529e-12 2.97951953e-14 8.96907420e-49 6.70586792e-50 3.26608014e-12
1.09647820e-01 3.14951101e-12 3.11665182e-12 3.28591826e-14 1.13296667e-43 8.84971634e-45 3.11908354e-12
1.25892541e-01 2.94050839e-12 2.90902993e-12 3.14784600e-14 2.94794604e-39 2.33944912e-40 2.91089813e-12
1.44543977e-01 2.74393053e-12 2.71516301e-12 2.87675223e-14 1.86450873e-35 1.43331311e-36 2.71660820e-12
1.65958691e-01 2.56504373e-12 2.53410671e-12 3.09370163e-14 2.74332371e-32 2.24890120e-33 2.53528629e-12
1.90546072e-01 2.39482993e-12 2.36489242e-12 2.99375127e-14 1.08676575e-29 9.65572240e-31 2.36606683e-12
2.18776162e-01 2.23499909e-12 2.20685643e-12 2.81426567e-14 1.70060755e-27 1.56265104e-28 2.20814205e-12
2.51188643e-01 2.08970055e-12 2.05979847e-12 2.99020836e-14 2.09888583e-25 2.20273539e-26 2.06075806e-12
2.88403150e-01 1.94914572e-12 1.92246778e-12 2.66779384e-14 1.36778917e-23 1.36561340e-24 1.92321132e-12
3.31131121e-01 1.81978325e-12 1.79424032e-12 2.55429302e-14 4.93610970e-22 4.88209613e-23 1.79484524e-12
3.80189396e-01 1.69725291e-12 1.67455128e-12 2.27016245e-14 1.07313304e-20 1.01336033e-21 1.67504704e-12
4.36515832e-01 1.58245493e-12 1.56284217e-12 1.96126089e-14 1.51143290e-19 1.38602402e-20 1.56324485e-12
5.01187234e-01 1.47619985e-12 1.45858234e-12 1.76160504e-14 1.46227547e-18 1.31397214e-19 1.45890498e-12
5.75439937e-01 1.37741231e-12 1.36127349e-12 1.61286021e-14 1.02111554e-17 8.98886010e-19 1.36152935e-12
6.60693448e-01 1.28642808e-12 1.27045198e-12 1.59219036e-14 5.41961464e-17 4.59506706e-18 1.27065312e-12
7.58577575e-01 1.19991755e-12 1.18568629e-12 1.40012771e-14 2.29984773e-16 1.90892596e-17 1.18584249e-12
8.70963590e-01 1.11916485e-12 1.10657399e-12 1.17839647e-14 8.06890959e-16 6.40132134e-17 1.10669260e-12
1.00000000e+00 1.04490424e-12 1.03273701e-12 9.77864878e-15 2.38857347e-15 1.80209984e-16 1.03282563e-12
1.14815362e+00 9.78404478e-13 9.63823931e-13 8.32381506e-15 6.25673178e-15 4.49532175e-16 9.63888963e-13
1.31825674e+00 9.21073133e-13 8.99506626e-13 6.84566703e-15 1.47208404e-14 9.84590836e-16 8.99553520e-13
1.51356125e+00 8.76158614e-13 8.39478718e-13 5.89919125e-15 3.07807054e-14 1.86990606e-15 8.39512191e-13
1.73780083e+00 8.44920052e-13 7.83454858e-13 4.32883171e-15 5.71363621e-14 3.01422730e-15 7.83478363e-13
1.99526231e+00 8.28424991e-13 7.31168305e-13 3.22000424e-15 9.40366811e-14 4.08968275e-15 7.31184552e-13
2.29086765e+00 8.23102744e-13 6.82369933e-13 2.27589466e-15 1.38456916e-13 4.80274685e-15 6.82381128e-13
2.63026799e+00 8.23521338e-13 6.36827336e-13 1.61158209e-15 1.85082419e-13 4.90655627e-15 6.36835122e-13
3.01995172e+00 8.22343379e-13 5.94323632e-13 1.12816527e-15 2.26891582e-13 4.48182819e-15 5.94329117e-13
3.46736850e+00 8.12921364e-13 5.54656277e-13 7.51685799e-16 2.57513401e-13 3.71780385e-15 5.54660204e-13
3.98107171e+00 7.90809512e-13 5.17636174e-13 4.89934034e-16 2.72683404e-13 2.78825271e-15 5.17639021e-13
4.57088190e+00 7.55934407e-13 4.83086750e-13 3.18282349e-16 2.72529375e-13 1.90334226e-15 4.83088843e-13
5.24807460e+00 6.59277025e-13 3.99439038e-13 1.75856100e-16 2.59662130e-13 1.18685104e-15 3.99440428e-13
6.02559586e+00 5.04098163e-13 2.63906911e-13 7.29501783e-17 2.40118302e-13 7.01239195e-16 2.63907674e-13
6.70000000e+00 4.13792033e-13 1.91966965e-13 3.54172067e-17 2.21789651e-13 4.44030920e-16 1.91967457e-13
6.92422916e+00 3.89793705e-13 1.73914842e-13 2.88541381e-17 2.15850008e-13 3.73496365e-16 1.73915272e-13
7.15596261e+00 3.69387649e-13 1.57560292e-13 2.39365383e-17 2.11803421e-13 3.18704907e-16 1.57560674e-13
7.39545150e+00 3.55506251e-13 1.42743671e-13 1.74157631e-17 2.12745165e-13 2.71166898e-16 1.42744025e-13
7.64295536e+00 3.58107422e-13 1.29320335e-13 1.24659943e-17 2.28774621e-13 2.29956905e-16 1.29320701e-13
7.89874245e+00 3.85045485e-13 1.17159247e-13 8.12948098e-18 2.67878109e-13 1.92947139e-16 1.17159675e-13
8.16308998e+00 4.31021649e-13 1.06141721e-13 4.90144966e-18 3.24875027e-13 1.60513577e-16 1.06142245e-13
8.43628443e+00 5.01569724e-13 9.61602088e-14 2.95389649e-18 4.05406562e-13 1.28042066e-16 9.61608686e-14
8.71862190e+00 5.49018096e-13 8.71173839e-14 1.81490893e-18 4.61898898e-13 9.87780866e-17 8.71181185e-14
9.01040836e+00 6.00387457e-13 7.89249219e-14 1.13795301e-18 5.21461398e-13 7.06999022e-17 7.89257281e-14
9.31196005e+00 6.39559744e-13 7.15028844e-14 0.00000000e+00 5.68056859e-13 0.00000000e+00 7.15037315e-14
9.62360379e+00 6.31210258e-13 6.47788950e-14 0.00000000e+00 5.66431363e-13 0.00000000e+00 6.47796826e-14
9.94567731e+00 5.86040597e-13 5.86872785e-14 0.00000000e+00 5.27353318e-13 0.00000000e+00 5.86879481e-14
1.02785297e+01 5.31247455e-13 5.31685177e-14 0.00000000e+00 4.78078937e-13 0.00000000e+00 5.31690665e-14
1.06225216e+01 4.79824715e-13 4.81687230e-14 0.00000000e+00 4.31655991e-13 0.00000000e+00 4.81691679e-14
1.09780260e+01 4.23519498e-13 4.36391008e-14 0.00000000e+00 3.79880397e-13 0.00000000e+00 4.36394486e-14
1.13454280e+01 3.74359247e-13 3.95354209e-14 0.00000000e+00 3.34823826e-13 0.00000000e+00 3.95356937e-14
1.17251259e+01 3.32852999e-13 3.58176312e-14 0.00000000e+00 2.97035368e-13 0.00000000e+00 3.58178467e-14
1.21175312e+01 2.95885115e-13 3.24494483e-14 0.00000000e+00 2.63435667e-13 0.00000000e+00 3.24496176e-14
1.25230691e+01 2.62290598e-13 2.93979964e-14 0.00000000e+00 2.32892601e-13 0.00000000e+00 2.93981291e-14
1.29421791e+01 2.33771385e-13 2.66334910e-14 0.00000000e+00 2.07137894e-13 0.00000000e+00 2.66335956e-14
1.33753155e+01 2.10024828e-13 2.41289495e-14 0.00000000e+00 1.85895878e-13 0.00000000e+00 2.41290327e-14
1.38229477e+01 1.93799857e-13 2.18599240e-14 0.00000000e+00 1.71939933e-13 0.00000000e+00 2.18599931e-14
1.42855609e+01 1.84061569e-13 1.98042688e-14 0.00000000e+00 1.64257301e-13 0.00000000e+00 1.98043289e-14
1.47636563e+01 1.84352940e-13 1.79419177e-14 0.00000000e+00 1.66411022e-13 0.00000000e+00 1.79419747e-14
1.52577522e+01 1.86796477e-13 1.62546970e-14 0.00000000e+00 1.70541780e-13 0.00000000e+00 1.62547521e-14
1.57683840e+01 1.90851744e-13 1.47261381e-14 0.00000000e+00 1.76125606e-13 0.00000000e+00 1.47261920e-14
1.62961051e+01 1.96051098e-13 1.33413216e-14 0.00000000e+00 1.82709776e-13 0.00000000e+00 1.33413743e-14
1.68414875e+01 2.00836243e-13 1.20867303e-14 0.00000000e+00 1.88749512e-13 0.00000000e+00 1.20867817e-14
1.74051222e+01 2.02693607e-13 1.09501193e-14 0.00000000e+00 1.91743488e-13 0.00000000e+00 1.09501681e-14
1.79876201e+01 2.02208905e-13 9.92039356e-15 0.00000000e+00 1.92288512e-13 0.00000000e+00 9.92043915e-15
1.85896125e+01 1.98811061e-13 8.98750228e-15 0.00000000e+00 1.89823558e-13 0.00000000e+00 8.98754353e-15
1.92117518e+01 1.91801867e-13 8.14233908e-15 0.00000000e+00 1.83659528e-13 0.00000000e+00 8.14237531e-15
1.98547123e+01 1.83529148e-13 7.37665358e-15 0.00000000e+00 1.76152495e-13 0.00000000e+00 7.37668479e-15
2.05191907e+01 1.74568169e-13 6.68297147e-15 0.00000000e+00 1.67885198e-13 0.00000000e+00 6.68299807e-15
2.12059073e+01 1.66407259e-13 6.05452140e-15 0.00000000e+00 1.60352737e-13 0.00000000e+00 6.05454408e-15
2.19156062e+01 1.58922910e-13 5.48516905e-15 0.00000000e+00 1.53437741e-13 0.00000000e+00 5.48518847e-15
2.26490567e+01 1.52822099e-13 4.96935712e-15 0.00000000e+00 1.47852742e-13 0.00000000e+00 4.96937378e-15
2.34070535e+01 1.46425648e-13 4.50205081e-15 0.00000000e+00 1.41923597e-13 0.00000000e+00 4.50206513e-15
2.41904183e+01 1.41303853e-13 4.07868879e-15 0.00000000e+00 1.37225164e-13 0.00000000e+00 4.07870113e-15
2.50000000e+01 1.36364857e-13 3.69513866e-15 0.00000000e+00 1.32669719e-13 0.00000000e+00 3.69514932e-15
2.75422870e+01 1.23092133e-13 2.76344564e-15 0.00000000e+00 1.20328688e-13 0.00000000e+00 2.76345259e-15
3.16227766e+01 1.05941171e-13 1.82579120e-15 0.00000000e+00 1.04115380e-13 0.00000000e+00 1.82579502e-15
3.63078055e+01 8.85651655e-14 1.20628872e-15 0.00000000e+00 8.73588768e-14 0.00000000e+00 1.20629081e-15
4.16869383e+01 7.02993993e-14 7.96987324e-16 0.00000000e+00 6.95024120e-14 0.00000000e+00 7.96988434e-16
4.78630092e+01 5.26949167e-14 5.26564464e-16 0.00000000e+00 5.21683523e-14 0.00000000e+00 5.26565037e-16
5.49540874e+01 3.74142631e-14 3.47897781e-16 0.00000000e+00 3.70663653e-14 0.00000000e+00 3.47898070e-16
6.30957344e+01 2.53499022e-14 2.29853831e-16 0.00000000e+00 2.51200484e-14 0.00000000e+00 2.29853975e-16
7.24435960e+01 1.64641318e-14 1.51862944e-16 0.00000000e+00 1.63122688e-14 0.00000000e+00 1.51863015e-16
8.31763771e+01 1.03280549e-14 1.00334864e-16 0.00000000e+00 1.02277201e-14 0.00000000e+00 1.00334899e-16
9.54992586e+01 6.29826940e-15 6.62905932e-17 0.00000000e+00 6.23197880e-15 0.00000000e+00 6.62906105e-17
1.09647820e+02 3.74898997e-15 4.37977634e-17 0.00000000e+00 3.70519221e-15 0.00000000e+00 4.37977720e-17
1.25892541e+02 2.21009250e-15 2.89368967e-17 0.00000000e+00 2.18115560e-15 0.00000000e+00 2.89369010e-17
1.44543977e+02 1.28523017e-15 1.91184187e-17 0.00000000e+00 1.26611175e-15 0.00000000e+00 1.91184209e-17
1.65958691e+02 7.08455733e-16 1.26314144e-17 0.00000000e+00 6.95824319e-16 0.00000000e+00 1.26314154e-17
1.90546072e+02 3.88396246e-16 8.34549288e-18 0.00000000e+00 3.80050753e-16 0.00000000e+00 8.34549342e-18
2.18776162e+02 2.11514422e-16 5.51381255e-18 0.00000000e+00 2.06000610e-16 0.00000000e+00 5.51381282e-18
2.51188643e+02 1.14333410e-16 3.64293987e-18 0.00000000e+00 1.10690471e-16 0.00000000e+00 3.64294000e-18
2.88403150e+02 6.13404026e-17 2.40686653e-18 0.00000000e+00 5.89335361e-17 0.00000000e+00 2.40686659e-18
3.31131121e+02 3.27606393e-17 1.59020095e-18 0.00000000e+00 3.11704383e-17 0.00000000e+00 1.59020099e-18
3.80189396e+02 1.74191448e-17 1.05063536e-18 0.00000000e+00 1.63685094e-17 0.00000000e+00 1.05063537e-18
4.36515832e+02 9.24380855e-18 6.94147899e-19 0.00000000e+00 8.54966066e-18 0.00000000e+00 6.94147908e-19
5.01187234e+02 4.90106338e-18 4.58618970e-19 0.00000000e+00 4.44244441e-18 0.00000000e+00 4.58618975e-19
5.75439937e+02 2.60128430e-18 3.03006549e-19 0.00000000e+00 2.29827775e-18 0.00000000e+00 3.03006552e-19
6.60693448e+02 1.38472339e-18 2.00194442e-19 0.00000000e+00 1.18452895e-18 0.00000000e+00 2.00194443e-19
7.58577575e+02 7.40782538e-19 1.32267157e-19 0.00000000e+00 6.08515382e-19 0.00000000e+00 1.32267157e-19
8.70963590e+02 3.99034433e-19 8.73880438e-20 0.00000000e+00 3.11646389e-19 0.00000000e+00 8.73880441e-20
1.00000000e+03 1.59163837e-19 0.00000000e+00 0.00000000e+00 1.59163837e-19 0.00000000e+00 0.00000000e+00
