# column 1: lambda (micron)
# column 2: total flux; lambda*F_lambda (W/m2)
# column 3: direct stellar flux; lambda*F_lambda (W/m2)
# column 4: scattered stellar flux; lambda*F_lambda (W/m2)
# column 5: total dust emission flux; lambda*F_lambda (W/m2)
# column 6: dust emission scattered flux; lambda*F_lambda (W/m2)
# column 7: transparent flux; lambda*F_lambda (W/m2)
1.00000000e-03 1.04633412e-12 1.04632145e-12 1.26672833e-17 0.00000000e+00 0.00000000e+00 1.04634360e-12
1.14815362e-03 1.23500556e-12 1.23498640e-12 1.91533877e-17 0.00000000e+00 0.00000000e+00 1.23502095e-12
1.31825674e-03 1.45769832e-12 1.45766887e-12 2.94456437e-17 0.00000000e+00 0.00000000e+00 1.45772071e-12
1.51356125e-03 1.72054843e-12 1.72050570e-12 4.27338098e-17 0.00000000e+00 0.00000000e+00 1.72057784e-12
1.73780083e-03 2.03082452e-12 2.03074750e-12 7.70207379e-17 0.00000000e+00 0.00000000e+00 2.03083353e-12
1.99526231e-03 2.39703428e-12 2.39690010e-12 1.34182274e-16 0.00000000e+00 0.00000000e+00 2.39703472e-12
2.29086765e-03 2.82930069e-12 2.82910105e-12 1.99638359e-16 0.00000000e+00 0.00000000e+00 2.82926954e-12
2.63026799e-03 3.33960882e-12 3.33920690e-12 4.01922946e-16 0.00000000e+00 0.00000000e+00 3.33944522e-12
3.01995172e-03 3.94195545e-12 3.94126821e-12 6.87241770e-16 0.00000000e+00 0.00000000e+00 3.94161611e-12
3.46736850e-03 4.65300412e-12 4.65188683e-12 1.11728522e-15 0.00000000e+00 0.00000000e+00 4.65237083e-12
3.98107171e-03 5.49245459e-12 5.49063539e-12 1.81920873e-15 0.00000000e+00 0.00000000e+00 5.49128930e-12
4.57088190e-03 6.48496261e-12 6.48096722e-12 3.99539189e-15 0.00000000e+00 0.00000000e+00 6.48148207e-12
5.24807460e-03 7.65683499e-12 7.64945088e-12 7.38410373e-15 0.00000000e+00 0.00000000e+00 7.65022704e-12
6.02559586e-03 9.04149777e-12 9.02861625e-12 1.28815148e-14 0.00000000e+00 0.00000000e+00 9.02972084e-12
6.91830971e-03 1.06771342e-11 1.06564611e-11 2.06730817e-14 0.00000000e+00 0.00000000e+00 1.06579658e-11
7.94328235e-03 1.26390816e-11 1.25778356e-11 6.12460575e-14 0.00000000e+00 0.00000000e+00 1.25798170e-11
9.12010839e-03 1.49322620e-11 1.48456223e-11 8.66397033e-14 0.00000000e+00 0.00000000e+00 1.48482176e-11
1.04712855e-02 1.66746545e-11 1.65803461e-11 9.43084070e-14 0.00000000e+00 0.00000000e+00 1.65834298e-11
1.20226443e-02 1.67294306e-11 1.65801642e-11 1.49266412e-13 1.26088881e-312 6.98013140e-314 1.65834298e-11
1.38038426e-02 1.67476287e-11 1.65799483e-11 1.67680363e-13 3.18050601e-273 1.63136455e-274 1.65834298e-11
1.58489319e-02 1.68201341e-11 1.65796831e-11 2.40450994e-13 6.37244588e-239 3.99967596e-240 1.65834298e-11
1.81970086e-02 1.69260712e-11 1.65794384e-11 3.46632746e-13 4.50245296e-209 3.06884038e-210 1.65834298e-11
2.08929613e-02 1.70303370e-11 1.65792351e-11 4.51101932e-13 4.01675084e-183 3.12635955e-184 1.65834298e-11
2.39883292e-02 1.71768992e-11 1.65789716e-11 5.97927551e-13 1.55545870e-160 1.42476707e-161 1.65834298e-11
2.75422870e-02 1.73267885e-11 1.65786652e-11 7.48123344e-13 7.01559274e-141 7.14195048e-142 1.65834298e-11
3.16227766e-02 1.74372054e-11 1.65783648e-11 8.58840562e-13 8.59357170e-124 9.49257356e-125 1.65834298e-11
3.63078055e-02 1.75099578e-11 1.65781292e-11 9.31828562e-13 6.07280503e-109 6.77146852e-110 1.65834298e-11
4.16869383e-02 1.76849326e-11 1.65779254e-11 1.10700715e-12 4.92731841e-96 6.26879230e-97 1.65834298e-11
4.78630092e-02 1.78303494e-11 1.65773638e-11 1.25298561e-12 7.89938405e-85 1.05853939e-85 1.65834298e-11
5.49540874e-02 1.78419497e-11 1.65765827e-11 1.26536701e-12 4.19576511e-75 5.78796128e-76 1.65834298e-11
6.30957344e-02 1.77754303e-11 1.65746243e-11 1.20080603e-12 1.51668491e-66 2.14258599e-67 1.65834298e-11
7.24435960e-02 1.75755220e-11 1.65723048e-11 1.00321720e-12 4.15203449e-59 5.68766837e-60 1.65834298e-11
8.31763771e-02 1.75317714e-11 1.65725112e-11 9.59260251e-13 1.11187131e-52 1.65723182e-53 1.65834298e-11
9.54992586e-02 1.75269035e-11 1.65731165e-11 9.53786971e-13 5.25855851e-47 9.27990219e-48 1.65834298e-11
1.09647820e-01 1.68788114e-11 1.58288761e-11 1.04993523e-12 5.17239022e-42 1.10059332e-42 1.58370587e-11
1.25892541e-01 1.58514772e-11 1.47737169e-11 1.07776030e-12 1.24086461e-37 2.85841316e-38 1.47800032e-11
1.44543977e-01 1.47827196e-11 1.37886387e-11 9.94080846e-13 7.70997508e-34 1.77136701e-34 1.37935015e-11
1.65958691e-01 1.38590159e-11 1.28688756e-11 9.90140294e-13 1.16600077e-30 2.84435177e-31 1.28728446e-11
1.90546072e-01 1.29883120e-11 1.20096860e-11 9.78626045e-13 4.86397026e-28 1.35121701e-28 1.20136376e-11
2.18776162e-01 1.20359660e-11 1.12074531e-11 8.28512889e-13 7.72299097e-26 2.18072806e-26 1.12117790e-11
2.51188643e-01 1.13500159e-11 1.04602122e-11 8.89803791e-13 1.13668369e-23 3.78538866e-24 1.04634409e-11
2.88403150e-01 1.06116932e-11 9.76254945e-12 8.49143802e-13 8.76914530e-22 2.98843737e-22 9.76505125e-12
3.31131121e-01 9.91331685e-12 9.11124073e-12 8.02076084e-13 3.67131475e-20 1.25918636e-20 9.11327608e-12
3.80189396e-01 9.23495569e-12 8.50333602e-12 7.31618747e-13 9.23792106e-19 3.20305471e-19 8.50500410e-12
4.36515832e-01 8.61008601e-12 7.93597678e-12 6.74094558e-13 1.46647157e-17 5.00791277e-18 7.93733165e-12
5.01187234e-01 8.00577566e-12 7.40646332e-12 5.99157099e-13 1.55242392e-16 5.25699369e-17 7.40754890e-12
5.75439937e-01 7.45181599e-12 6.91226602e-12 5.38408101e-13 1.14186708e-15 3.78233056e-16 6.91312687e-12
6.60693448e-01 6.92590546e-12 6.45102864e-12 4.68722302e-13 6.15451264e-15 1.97193130e-15 6.45170538e-12
7.58577575e-01 6.45914976e-12 6.02055626e-12 4.12903014e-13 2.56904893e-14 7.90306497e-15 6.02108180e-12
8.70963590e-01 6.06663048e-12 5.61880140e-12 3.62828802e-13 8.50002798e-14 2.46210945e-14 5.61920048e-12
1.00000000e+00 5.77761905e-12 5.24384486e-12 2.99856860e-13 2.33917333e-13 6.28867017e-14 5.24414302e-12
1.14815362e+00 5.69703190e-12 4.89390022e-12 2.44915124e-13 5.58216556e-13 1.35040285e-13 4.89411902e-12
1.31825674e+00 5.93820789e-12 4.56729985e-12 1.93949985e-13 1.17695805e-12 2.52056772e-13 4.56745763e-12
1.51356125e+00 6.60213812e-12 4.26248685e-12 1.52592146e-13 2.18705912e-12 4.05340868e-13 4.26259947e-12
1.73780083e+00 7.75726667e-12 3.97801021e-12 1.20453562e-13 3.65880290e-12 5.75792405e-13 3.97808929e-12
1.99526231e+00 9.24744919e-12 3.71251428e-12 9.35588715e-14 5.44137604e-12 7.05537019e-13 3.71256894e-12
2.29086765e+00 1.08526683e-11 3.46473327e-12 6.97914888e-14 7.31814356e-12 7.45646079e-13 3.46477093e-12
2.63026799e+00 1.23920677e-11 3.23348618e-12 4.96229070e-14 9.10895862e-12 7.08741353e-13 3.23351237e-12
3.01995172e+00 1.36198835e-11 3.01767088e-12 3.40103437e-14 1.05682023e-11 6.08829197e-13 3.01768933e-12
3.46736850e+00 1.44134890e-11 2.81625833e-12 2.26727941e-14 1.15745579e-11 4.76837035e-13 2.81627154e-12
3.98107171e+00 1.47849926e-11 2.62828795e-12 1.45890022e-14 1.21421156e-11 3.46632246e-13 2.62829753e-12
4.57088190e+00 1.47830749e-11 2.45286293e-12 9.04647653e-15 1.23211655e-11 2.31300561e-13 2.45286997e-12
5.24807460e+00 1.42390278e-11 2.02814283e-12 4.84042081e-15 1.22060445e-11 1.47412089e-13 2.02814751e-12
6.02559586e+00 1.32206674e-11 1.33998120e-12 1.99610335e-15 1.18786900e-11 8.82261582e-14 1.33998377e-12
6.70000000e+00 1.24942776e-11 9.74707693e-13 9.68056824e-16 1.15186019e-11 5.71867865e-14 9.74709347e-13
6.92422916e+00 1.22600734e-11 8.83048444e-13 7.72883947e-16 1.13762521e-11 4.93884922e-14 8.83049889e-13
7.15596261e+00 1.21123554e-11 8.00008592e-13 6.04711383e-16 1.13117421e-11 4.25272340e-14 8.00009879e-13
7.39545150e+00 1.21454530e-11 7.24777569e-13 4.62436919e-16 1.14202130e-11 3.65793090e-14 7.24778763e-13
7.64295536e+00 1.26928291e-11 6.56620979e-13 3.30015404e-16 1.20358781e-11 3.14756217e-14 6.56622211e-13
7.89874245e+00 1.39746482e-11 5.94873504e-13 2.17260041e-16 1.33795574e-11 2.64106551e-14 5.94874946e-13
8.16308998e+00 1.56760411e-11 5.38932490e-13 1.34208424e-16 1.51369744e-11 2.20598176e-14 5.38934254e-13
8.43628443e+00 1.77823329e-11 4.88251878e-13 7.43919990e-17 1.72940067e-11 1.71454664e-14 4.88254098e-13
8.71862190e+00 1.92704187e-11 4.42337318e-13 4.24676128e-17 1.88280389e-11 1.32842570e-14 4.42339790e-13
9.01040836e+00 2.04728616e-11 4.00740446e-13 2.00667720e-17 2.00721011e-11 9.04037503e-15 4.00743158e-13
9.31196005e+00 2.13804622e-11 3.63055330e-13 0.00000000e+00 2.10174068e-11 0.00000000e+00 3.63058180e-13
9.62360379e+00 2.12970555e-11 3.28914362e-13 0.00000000e+00 2.09681412e-11 0.00000000e+00 3.28917012e-13
9.94567731e+00 2.05122489e-11 2.97984149e-13 0.00000000e+00 2.02142647e-11 0.00000000e+00 2.97986401e-13
1.02785297e+01 1.96385103e-11 2.69962589e-13 0.00000000e+00 1.93685477e-11 0.00000000e+00 2.69964435e-13
1.06225216e+01 1.87193934e-11 2.44576095e-13 0.00000000e+00 1.84748173e-11 0.00000000e+00 2.44577592e-13
1.09780260e+01 1.77013541e-11 2.21576899e-13 0.00000000e+00 1.74797772e-11 0.00000000e+00 2.21578069e-13
1.13454280e+01 1.66911792e-11 2.00740452e-13 0.00000000e+00 1.64904387e-11 0.00000000e+00 2.00741370e-13
1.17251259e+01 1.57686888e-11 1.81863381e-13 0.00000000e+00 1.55868254e-11 0.00000000e+00 1.81864106e-13
1.21175312e+01 1.48910365e-11 1.64761448e-13 0.00000000e+00 1.47262751e-11 0.00000000e+00 1.64762018e-13
1.25230691e+01 1.40590680e-11 1.49267725e-13 0.00000000e+00 1.39098003e-11 0.00000000e+00 1.49268171e-13
1.29421791e+01 1.32951153e-11 1.35230979e-13 0.00000000e+00 1.31598843e-11 0.00000000e+00 1.35231331e-13
1.33753155e+01 1.26205679e-11 1.22514203e-13 0.00000000e+00 1.24980537e-11 0.00000000e+00 1.22514483e-13
1.38229477e+01 1.21433496e-11 1.10993266e-13 0.00000000e+00 1.20323563e-11 0.00000000e+00 1.10993499e-13
1.42855609e+01 1.19710306e-11 1.00555719e-13 0.00000000e+00 1.18704749e-11 0.00000000e+00 1.00555922e-13
1.47636563e+01 1.22674694e-11 9.10996786e-14 0.00000000e+00 1.21763697e-11 0.00000000e+00 9.10998706e-14
1.52577522e+01 1.26744924e-11 8.25328598e-14 0.00000000e+00 1.25919596e-11 0.00000000e+00 8.25330452e-14
1.57683840e+01 1.31652444e-11 7.47716432e-14 0.00000000e+00 1.30904728e-11 0.00000000e+00 7.47718247e-14
1.62961051e+01 1.36816523e-11 6.77402744e-14 0.00000000e+00 1.36139120e-11 0.00000000e+00 6.77404517e-14
1.68414875e+01 1.41685507e-11 6.13701202e-14 0.00000000e+00 1.41071805e-11 0.00000000e+00 6.13702932e-14
1.74051222e+01 1.45212609e-11 5.55990056e-14 0.00000000e+00 1.44656619e-11 0.00000000e+00 5.55991699e-14
1.79876201e+01 1.47773286e-11 5.03705966e-14 0.00000000e+00 1.47269580e-11 0.00000000e+00 5.03707500e-14
1.85896125e+01 1.48207264e-11 4.56338600e-14 0.00000000e+00 1.47750925e-11 0.00000000e+00 4.56339988e-14
1.92117518e+01 1.46026638e-11 4.13425591e-14 0.00000000e+00 1.45613212e-11 0.00000000e+00 4.13426810e-14
1.98547123e+01 1.42871707e-11 3.74548040e-14 0.00000000e+00 1.42497159e-11 0.00000000e+00 3.74549090e-14
2.05191907e+01 1.39385804e-11 3.39326447e-14 0.00000000e+00 1.39046478e-11 0.00000000e+00 3.39327342e-14
2.12059073e+01 1.35049154e-11 3.07417005e-14 0.00000000e+00 1.34741737e-11 0.00000000e+00 3.07417768e-14
2.19156062e+01 1.31282671e-11 2.78508244e-14 0.00000000e+00 1.31004162e-11 0.00000000e+00 2.78508898e-14
2.26490567e+01 1.27047424e-11 2.52317992e-14 0.00000000e+00 1.26795106e-11 0.00000000e+00 2.52318552e-14
2.34070535e+01 1.23025843e-11 2.28590606e-14 0.00000000e+00 1.22797252e-11 0.00000000e+00 2.28591087e-14
2.41904183e+01 1.18966869e-11 2.07094484e-14 0.00000000e+00 1.18759774e-11 0.00000000e+00 2.07094900e-14
2.50000000e+01 1.14505304e-11 1.87619806e-14 0.00000000e+00 1.14317685e-11 0.00000000e+00 1.87620165e-14
2.75422870e+01 1.01455816e-11 1.40313292e-14 0.00000000e+00 1.01315502e-11 0.00000000e+00 1.40313526e-14
3.16227766e+01 8.16292908e-12 9.27040989e-15 0.00000000e+00 8.15365867e-12 0.00000000e+00 9.27042274e-15
3.63078055e+01 6.16672798e-12 6.12490054e-15 0.00000000e+00 6.16060308e-12 0.00000000e+00 6.12490756e-15
4.16869383e+01 4.32643397e-12 4.04668256e-15 0.00000000e+00 4.32238729e-12 0.00000000e+00 4.04668630e-15
4.78630092e+01 2.82940401e-12 2.67361720e-15 0.00000000e+00 2.82673039e-12 0.00000000e+00 2.67361912e-15
5.49540874e+01 1.74541584e-12 1.76644166e-15 0.00000000e+00 1.74364940e-12 0.00000000e+00 1.76644264e-15
6.30957344e+01 1.03136146e-12 1.16707659e-15 0.00000000e+00 1.03019438e-12 0.00000000e+00 1.16707708e-15
7.24435960e+01 5.89033035e-13 7.71079938e-16 0.00000000e+00 5.88261955e-13 0.00000000e+00 7.71080178e-16
8.31763771e+01 3.28383196e-13 5.09447503e-16 0.00000000e+00 3.27873749e-13 0.00000000e+00 5.09447621e-16
9.54992586e+01 1.80064259e-13 3.36588647e-16 0.00000000e+00 1.79727670e-13 0.00000000e+00 3.36588705e-16
1.09647820e+02 9.76002381e-14 2.22381923e-16 0.00000000e+00 9.73778561e-14 0.00000000e+00 2.22381952e-16
1.25892541e+02 5.30397509e-14 1.46926284e-16 0.00000000e+00 5.28928246e-14 0.00000000e+00 1.46926299e-16
1.44543977e+02 2.87410630e-14 9.70732356e-17 0.00000000e+00 2.86439897e-14 0.00000000e+00 9.70732430e-17
1.65958691e+02 1.48577167e-14 6.41356520e-17 0.00000000e+00 1.47935810e-14 0.00000000e+00 6.41356556e-17
1.90546072e+02 7.70340719e-15 4.23740057e-17 0.00000000e+00 7.66103318e-15 0.00000000e+00 4.23740075e-17
2.18776162e+02 3.99574512e-15 2.79962282e-17 0.00000000e+00 3.96774889e-15 0.00000000e+00 2.79962291e-17
2.51188643e+02 2.06893800e-15 1.84969247e-17 0.00000000e+00 2.05044108e-15 0.00000000e+00 1.84969251e-17
2.88403150e+02 1.06799699e-15 1.22207970e-17 0.00000000e+00 1.05577619e-15 0.00000000e+00 1.22207972e-17
3.31131121e+02 5.50644520e-16 8.07420056e-18 0.00000000e+00 5.42570319e-16 0.00000000e+00 8.07420067e-18
3.80189396e+02 2.83310297e-16 5.33457142e-18 0.00000000e+00 2.77975726e-16 0.00000000e+00 5.33457148e-18
4.36515832e+02 1.45668043e-16 3.52451640e-18 0.00000000e+00 1.42143527e-16 0.00000000e+00 3.52451642e-18
5.01187234e+02 7.48496699e-17 2.32862489e-18 0.00000000e+00 7.25210450e-17 0.00000000e+00 2.32862491e-18
5.75439937e+02 3.84709138e-17 1.53850721e-18 0.00000000e+00 3.69324066e-17 0.00000000e+00 1.53850722e-18
6.60693448e+02 1.97948916e-17 1.01648164e-18 0.00000000e+00 1.87784099e-17 0.00000000e+00 1.01648164e-18
7.58577575e+02 1.02061143e-17 6.71582758e-19 0.00000000e+00 9.53453150e-18 0.00000000e+00 6.71582760e-19
8.70963590e+02 5.27761680e-18 4.43710328e-19 0.00000000e+00 4.83390647e-18 0.00000000e+00 4.43710329e-19
1.00000000e+03 2.44728173e-18 0.00000000e+00 0.00000000e+00 2.44728173e-18 0.00000000e+00 0.00000000e+00
