# column 1: lambda (micron)
# column 2: total flux; lambda*F_lambda (W/m2)
# column 3: direct stellar flux; lambda*F_lambda (W/m2)
# column 4: scattered stellar flux; lambda*F_lambda (W/m2)
# column 5: total dust emission flux; lambda*F_lambda (W/m2)
# column 6: dust emission scattered flux; lambda*F_lambda (W/m2)
# column 7: transparent flux; lambda*F_lambda (W/m2)
1.00000000e-03 9.65779254e-13 9.65718513e-13 6.07403237e-17 0.00000000e+00 0.00000000e+00 9.68073281e-13
1.14815362e-03 1.14255259e-12 1.13896630e-12 3.58628555e-15 0.00000000e+00 0.00000000e+00 1.14263687e-12
1.31825674e-03 1.34329318e-12 1.34317193e-12 1.21250094e-16 0.00000000e+00 0.00000000e+00 1.34867788e-12
1.51356125e-03 1.58427618e-12 1.58421327e-12 6.29039791e-17 0.00000000e+00 0.00000000e+00 1.59187233e-12
1.73780083e-03 1.87232259e-12 1.86978641e-12 2.53617737e-15 0.00000000e+00 0.00000000e+00 1.87891976e-12
1.99526231e-03 2.20402446e-12 2.20344629e-12 5.78169933e-16 0.00000000e+00 0.00000000e+00 2.21772777e-12
2.29086765e-03 2.60004421e-12 2.59975805e-12 2.86165969e-16 0.00000000e+00 0.00000000e+00 2.61762985e-12
2.63026799e-03 3.06772275e-12 3.06438101e-12 3.34174377e-15 0.00000000e+00 0.00000000e+00 3.08964252e-12
3.01995172e-03 3.61128478e-12 3.60992782e-12 1.35695924e-15 0.00000000e+00 0.00000000e+00 3.64676883e-12
3.46736850e-03 4.27970838e-12 4.25314936e-12 2.65590155e-14 0.00000000e+00 0.00000000e+00 4.30435650e-12
3.98107171e-03 5.02814861e-12 5.01139621e-12 1.67524019e-14 0.00000000e+00 0.00000000e+00 5.08052080e-12
4.57088190e-03 5.94710880e-12 5.94209574e-12 5.01306400e-15 0.00000000e+00 0.00000000e+00 5.99664354e-12
5.24807460e-03 7.05891720e-12 6.99583250e-12 6.30847023e-14 0.00000000e+00 0.00000000e+00 7.07796211e-12
6.02559586e-03 8.26594735e-12 8.23752031e-12 2.84270348e-14 0.00000000e+00 0.00000000e+00 8.35426474e-12
6.91830971e-03 9.85305007e-12 9.70184827e-12 1.51201804e-13 0.00000000e+00 0.00000000e+00 9.86071107e-12
7.94328235e-03 1.15768647e-11 1.14298000e-11 1.47064742e-13 3.85093681e-303 1.52903094e-304 1.16388008e-11
9.12010839e-03 1.36241656e-11 1.34640388e-11 1.60126825e-13 2.08001582e-264 5.17556891e-266 1.37375167e-11
1.04712855e-02 1.52038628e-11 1.50181935e-11 1.85669254e-13 1.06877364e-230 2.58000250e-232 1.53429287e-11
1.20226443e-02 1.52414649e-11 1.49992445e-11 2.42220410e-13 1.97241885e-201 3.73009091e-203 1.53429287e-11
1.38038426e-02 1.51776235e-11 1.49767999e-11 2.00823607e-13 6.36637426e-176 2.56843787e-177 1.53429287e-11
1.58489319e-02 1.51798570e-11 1.49492632e-11 2.30593802e-13 9.67102486e-154 2.87541421e-155 1.53429287e-11
1.81970086e-02 1.51768295e-11 1.49239104e-11 2.52919135e-13 1.94137294e-134 7.34359909e-136 1.53429287e-11
2.08929613e-02 1.51741006e-11 1.49028695e-11 2.71231079e-13 1.11873013e-117 4.44589383e-119 1.53429287e-11
2.39883292e-02 1.51872878e-11 1.48756517e-11 3.11636093e-13 4.29395029e-103 2.00766846e-104 1.53429287e-11
2.75422870e-02 1.51783942e-11 1.48440551e-11 3.34339053e-13 2.06954456e-90 1.05892114e-91 1.53429287e-11
3.16227766e-02 1.51583412e-11 1.48131488e-11 3.45192390e-13 2.16365639e-79 1.30234842e-80 1.53429287e-11
3.63078055e-02 1.51476667e-11 1.47889524e-11 3.58714259e-13 7.93906432e-70 4.99525917e-71 1.53429287e-11
4.16869383e-02 1.51813597e-11 1.47680563e-11 4.13303458e-13 1.59462946e-61 1.19193658e-62 1.53429287e-11
4.78630092e-02 1.51764395e-11 1.47106093e-11 4.65830253e-13 2.52577999e-54 2.21741905e-55 1.53429287e-11
5.49540874e-02 1.51510381e-11 1.46310896e-11 5.19948451e-13 4.34068874e-48 4.19087271e-49 1.53429287e-11
6.30957344e-02 1.49892725e-11 1.44335792e-11 5.55693261e-13 1.42567892e-42 1.44757918e-43 1.53429287e-11
7.24435960e-02 1.47253181e-11 1.42030724e-11 5.22245728e-13 8.27423278e-38 7.72851153e-39 1.53429287e-11
8.31763771e-02 1.47255595e-11 1.42234340e-11 5.02125519e-13 8.67882475e-34 7.87181792e-35 1.53429287e-11
9.54992586e-02 1.47886598e-11 1.42833221e-11 5.05337672e-13 2.51228828e-30 2.34426067e-31 1.53429287e-11
1.09647820e-01 1.43142057e-11 1.38066887e-11 5.07516982e-13 2.21648734e-27 2.26105676e-28 1.46523889e-11
1.25892541e-01 1.34901354e-11 1.30213352e-11 4.68800187e-13 7.42301683e-25 7.81978825e-26 1.36744049e-11
1.44543977e-01 1.26704823e-11 1.22544237e-11 4.16058541e-13 1.03651833e-22 1.07726550e-23 1.27616972e-11
1.65958691e-01 1.19154750e-11 1.14948356e-11 4.20639387e-13 5.38780159e-21 6.20516448e-22 1.19099088e-11
1.90546072e-01 1.11504009e-11 1.07021961e-11 4.48204726e-13 1.15213348e-19 1.51481687e-20 1.11149736e-11
2.18776162e-01 1.03388164e-11 9.92268186e-12 4.16133218e-13 1.35697921e-18 1.75378904e-19 1.03730969e-11
2.51188643e-01 9.79980454e-12 9.34307767e-12 4.56709787e-13 1.70865788e-17 2.70398699e-18 9.68073733e-12
2.88403150e-01 9.20203298e-12 8.77217740e-12 4.29710762e-13 1.44818330e-16 2.31815445e-17 9.03458975e-12
3.31131121e-01 8.61005669e-12 8.21768514e-12 3.91532713e-13 8.38839176e-16 1.31908536e-16 8.43156974e-12
3.80189396e-01 8.05372721e-12 7.69323825e-12 3.56954985e-13 3.53397895e-15 5.51011016e-16 7.86879872e-12
4.36515832e-01 7.53677234e-12 7.20078762e-12 3.24733374e-13 1.12513362e-14 1.71515617e-15 7.34359025e-12
5.01187234e-01 7.07051758e-12 6.73886005e-12 3.03225194e-13 2.84323420e-14 4.32410823e-15 6.85343719e-12
5.75439937e-01 6.63370579e-12 6.30502784e-12 2.69287744e-13 5.93902053e-14 9.00261791e-15 6.39599973e-12
6.60693448e-01 6.25622787e-12 5.89749869e-12 2.51102367e-13 1.07626821e-13 1.65559995e-14 5.96909425e-12
7.58577575e-01 5.92013953e-12 5.51502764e-12 2.25546698e-13 1.79565197e-13 2.87575979e-14 5.57068288e-12
8.70963590e-01 5.64361256e-12 5.15656141e-12 1.96378113e-13 2.90673037e-13 4.99572644e-14 5.19886376e-12
1.00000000e+00 5.45821284e-12 4.82023187e-12 1.70561476e-13 4.67419496e-13 8.60445859e-14 4.85186196e-12
1.14815362e+00 5.41866367e-12 4.50479356e-12 1.41674398e-13 7.72195716e-13 1.45917256e-13 4.52802104e-12
1.31825674e+00 5.60750417e-12 4.20903628e-12 1.12928985e-13 1.28553890e-12 2.33503356e-13 4.22579511e-12
1.51356125e+00 6.07861814e-12 3.93177332e-12 8.85813593e-14 2.05826346e-12 3.39232873e-13 3.94374146e-12
1.73780083e+00 6.80424862e-12 3.67210647e-12 6.88653150e-14 3.06327683e-12 4.36866987e-13 3.68051368e-12
1.99526231e+00 7.70259111e-12 3.42904255e-12 5.29460449e-14 4.22060251e-12 4.98805621e-13 3.43485522e-12
2.29086765e+00 8.56038325e-12 3.20158734e-12 3.86387742e-14 5.32015714e-12 5.09316814e-13 3.20559341e-12
2.63026799e+00 9.29433487e-12 2.98884717e-12 2.80497045e-14 6.27743800e-12 4.68900145e-13 2.99163384e-12
3.01995172e+00 9.75321698e-12 2.78999185e-12 1.97597636e-14 6.94346536e-12 3.99732557e-13 2.79195514e-12
3.46736850e+00 9.93166542e-12 2.60419842e-12 1.35577577e-14 7.31390924e-12 3.13884381e-13 2.60560415e-12
3.98107171e+00 9.83527489e-12 2.43067193e-12 8.85058953e-15 7.39575238e-12 2.25345376e-13 2.43169128e-12
4.57088190e+00 9.46510576e-12 2.26863710e-12 5.57299739e-15 7.19089567e-12 1.47867504e-13 2.26938634e-12
5.24807460e+00 8.69229532e-12 1.87593698e-12 3.00745350e-15 6.81335089e-12 9.10208589e-14 1.87643467e-12
6.02559586e+00 7.57807632e-12 1.23947484e-12 1.25728490e-15 6.33734420e-12 5.22440150e-14 1.23974809e-12
6.70000000e+00 6.81974959e-12 9.01621592e-13 6.17475930e-16 5.91751052e-12 3.25689120e-14 9.01797527e-13
6.92422916e+00 6.59368772e-12 8.16840728e-13 4.88982865e-16 5.77635801e-12 2.78447616e-14 8.16994532e-13
7.15596261e+00 6.41520600e-12 7.40029311e-13 3.85504298e-16 5.67479119e-12 2.36702914e-14 7.40166218e-13
7.39545150e+00 6.36868563e-12 6.70435670e-13 2.98046820e-16 5.69795191e-12 2.01506644e-14 6.70562664e-13
7.64295536e+00 6.62165639e-12 6.07373386e-13 2.16856740e-16 6.01406614e-12 1.73656246e-14 6.07504471e-13
7.89874245e+00 7.32338400e-12 5.50222694e-13 1.42404990e-16 6.77301890e-12 1.48162580e-14 5.50376127e-13
8.16308998e+00 8.27068667e-12 4.98432317e-13 8.90713984e-17 7.77216528e-12 1.24551194e-14 4.98620004e-13
8.43628443e+00 9.44983116e-12 4.51494691e-13 5.21689125e-17 8.99828430e-12 9.87974096e-15 4.51730909e-13
8.71862190e+00 1.01297782e-11 4.08988218e-13 3.19870172e-17 9.72075797e-12 7.74784434e-15 4.09251158e-13
9.01040836e+00 1.07369533e-11 3.70477551e-13 1.78508922e-17 1.03664579e-11 5.51113731e-15 3.70766106e-13
9.31196005e+00 1.11553205e-11 3.35596916e-13 0.00000000e+00 1.08197235e-11 0.00000000e+00 3.35900102e-13
9.62360379e+00 1.09482778e-11 3.04030910e-13 0.00000000e+00 1.06442469e-11 0.00000000e+00 3.04312818e-13
9.94567731e+00 1.05145200e-11 2.75456283e-13 0.00000000e+00 1.02390637e-11 0.00000000e+00 2.75695930e-13
1.02785297e+01 9.82790746e-12 2.49573691e-13 0.00000000e+00 9.57833377e-12 0.00000000e+00 2.49770110e-13
1.06225216e+01 9.21032965e-12 2.26123033e-13 0.00000000e+00 8.98420661e-12 0.00000000e+00 2.26282295e-13
1.09780260e+01 8.50281005e-12 2.04878742e-13 0.00000000e+00 8.29793131e-12 0.00000000e+00 2.05003220e-13
1.13454280e+01 7.84691344e-12 1.85627501e-13 0.00000000e+00 7.66128594e-12 0.00000000e+00 1.85725182e-13
1.17251259e+01 7.21157852e-12 1.68182862e-13 0.00000000e+00 7.04339566e-12 0.00000000e+00 1.68260007e-13
1.21175312e+01 6.62629457e-12 1.52376603e-13 0.00000000e+00 6.47391797e-12 0.00000000e+00 1.52437217e-13
1.25230691e+01 6.05414963e-12 1.38054872e-13 0.00000000e+00 5.91609476e-12 0.00000000e+00 1.38102367e-13
1.29421791e+01 5.54447017e-12 1.25078058e-13 0.00000000e+00 5.41939211e-12 0.00000000e+00 1.25115533e-13
1.33753155e+01 5.09502104e-12 1.13320171e-13 0.00000000e+00 4.98170087e-12 0.00000000e+00 1.13349952e-13
1.38229477e+01 4.77254956e-12 1.02666021e-13 0.00000000e+00 4.66988354e-12 0.00000000e+00 1.02690779e-13
1.42855609e+01 4.59139224e-12 9.30124529e-14 0.00000000e+00 4.49837978e-12 0.00000000e+00 9.30339713e-14
1.47636563e+01 4.61671779e-12 8.42648449e-14 0.00000000e+00 4.53245295e-12 0.00000000e+00 8.42852675e-14
1.52577522e+01 4.70391559e-12 7.63395392e-14 0.00000000e+00 4.62757605e-12 0.00000000e+00 7.63592720e-14
1.57683840e+01 4.82254951e-12 6.91593082e-14 0.00000000e+00 4.75339020e-12 0.00000000e+00 6.91786191e-14
1.62961051e+01 4.94670117e-12 6.26543434e-14 0.00000000e+00 4.88404682e-12 0.00000000e+00 6.26732185e-14
1.68414875e+01 5.05340812e-12 5.67611631e-14 0.00000000e+00 4.99664696e-12 0.00000000e+00 5.67795711e-14
1.74051222e+01 5.11174838e-12 5.14226683e-14 0.00000000e+00 5.06032572e-12 0.00000000e+00 5.14401489e-14
1.79876201e+01 5.10327761e-12 4.65865125e-14 0.00000000e+00 5.05669110e-12 0.00000000e+00 4.66028339e-14
1.85896125e+01 5.02336116e-12 4.22056415e-14 0.00000000e+00 4.98115552e-12 0.00000000e+00 4.22204090e-14
1.92117518e+01 4.85695166e-12 3.82371260e-14 0.00000000e+00 4.81871453e-12 0.00000000e+00 3.82500974e-14
1.98547123e+01 4.64536557e-12 3.46419736e-14 0.00000000e+00 4.61072359e-12 0.00000000e+00 3.46531450e-14
2.05191907e+01 4.40313269e-12 3.13849177e-14 0.00000000e+00 4.37174778e-12 0.00000000e+00 3.13944418e-14
2.12059073e+01 4.17648599e-12 2.84340611e-14 0.00000000e+00 4.14805193e-12 0.00000000e+00 2.84421796e-14
2.19156062e+01 3.97304981e-12 2.57605875e-14 0.00000000e+00 3.94728923e-12 0.00000000e+00 2.57675415e-14
2.26490567e+01 3.76433425e-12 2.33384542e-14 0.00000000e+00 3.74099580e-12 0.00000000e+00 2.33444203e-14
2.34070535e+01 3.56807217e-12 2.11440359e-14 0.00000000e+00 3.54692813e-12 0.00000000e+00 2.11491639e-14
2.41904183e+01 3.38262325e-12 1.91559257e-14 0.00000000e+00 3.36346732e-12 0.00000000e+00 1.91603445e-14
2.50000000e+01 3.20427966e-12 1.73547333e-14 0.00000000e+00 3.18692493e-12 0.00000000e+00 1.73585491e-14
2.75422870e+01 2.70161626e-12 1.29792677e-14 0.00000000e+00 2.68863699e-12 0.00000000e+00 1.29817562e-14
3.16227766e+01 2.05425728e-12 8.57559401e-15 0.00000000e+00 2.04568169e-12 0.00000000e+00 8.57696126e-15
3.63078055e+01 1.47801953e-12 5.66599487e-15 0.00000000e+00 1.47235354e-12 0.00000000e+00 5.66674211e-15
4.16869383e+01 9.94012953e-13 3.74358181e-15 0.00000000e+00 9.90269371e-13 0.00000000e+00 3.74397938e-15
4.78630092e+01 6.26603536e-13 2.47341768e-15 0.00000000e+00 6.24130119e-13 0.00000000e+00 2.47362265e-15
5.49540874e+01 3.75151631e-13 1.63420286e-15 0.00000000e+00 3.73517428e-13 0.00000000e+00 1.63430628e-15
6.30957344e+01 2.16190083e-13 1.07972393e-15 0.00000000e+00 2.15110359e-13 0.00000000e+00 1.07977545e-15
7.24435960e+01 1.21068091e-13 7.13375085e-16 0.00000000e+00 1.20354716e-13 0.00000000e+00 7.13400564e-16
8.31763771e+01 6.64862402e-14 4.71326497e-16 0.00000000e+00 6.60149137e-14 0.00000000e+00 4.71339078e-16
9.54992586e+01 3.60538199e-14 3.11404414e-16 0.00000000e+00 3.57424155e-14 0.00000000e+00 3.11410641e-16
1.09647820e+02 1.93807950e-14 2.05743877e-16 0.00000000e+00 1.91750511e-14 0.00000000e+00 2.05746970e-16
1.25892541e+02 1.04769144e-14 1.35934116e-16 0.00000000e+00 1.03409802e-14 0.00000000e+00 1.35935675e-16
1.44543977e+02 5.65869035e-15 8.98110181e-17 0.00000000e+00 5.56887933e-15 0.00000000e+00 8.98118099e-17
1.65958691e+02 2.92000835e-15 5.93376861e-17 0.00000000e+00 2.86067066e-15 0.00000000e+00 5.93380743e-17
1.90546072e+02 1.51472361e-15 3.92040847e-17 0.00000000e+00 1.47551953e-15 0.00000000e+00 3.92042769e-17
2.18776162e+02 7.87643874e-16 2.59019131e-17 0.00000000e+00 7.61741961e-16 0.00000000e+00 2.59020089e-17
2.51188643e+02 4.09763750e-16 1.71132397e-17 0.00000000e+00 3.92650510e-16 0.00000000e+00 1.71132876e-17
2.88403150e+02 2.13075200e-16 1.13066130e-17 0.00000000e+00 2.01768587e-16 0.00000000e+00 1.13066370e-17
3.31131121e+02 1.10993344e-16 7.47020897e-18 0.00000000e+00 1.03523135e-16 0.00000000e+00 7.47022097e-18
3.80189396e+02 5.79016647e-17 4.93552003e-18 0.00000000e+00 5.29661447e-17 0.00000000e+00 4.93552605e-18
4.36515832e+02 3.03154315e-17 3.26086670e-18 0.00000000e+00 2.70545648e-17 0.00000000e+00 3.26086972e-18
5.01187234e+02 1.59452344e-17 2.15443374e-18 0.00000000e+00 1.37908007e-17 0.00000000e+00 2.15443526e-18
5.75439937e+02 8.44143251e-18 1.42342050e-18 0.00000000e+00 7.01801201e-18 0.00000000e+00 1.42342126e-18
6.60693448e+02 4.50658408e-18 9.40444718e-19 0.00000000e+00 3.56613937e-18 0.00000000e+00 9.40445101e-19
7.58577575e+02 2.43109925e-18 6.21345724e-19 0.00000000e+00 1.80975352e-18 0.00000000e+00 6.21345916e-19
8.70963590e+02 1.32765818e-18 4.10519079e-19 0.00000000e+00 9.17139105e-19 0.00000000e+00 4.10519176e-19
1.00000000e+03 4.64160167e-19 0.00000000e+00 0.00000000e+00 4.64160167e-19 0.00000000e+00 0.00000000e+00
