# column 1: lambda (micron)
# column 2: total flux; lambda*F_lambda (W/m2)
# column 3: direct stellar flux; lambda*F_lambda (W/m2)
# column 4: scattered stellar flux; lambda*F_lambda (W/m2)
# column 5: total dust emission flux; lambda*F_lambda (W/m2)
# column 6: dust emission scattered flux; lambda*F_lambda (W/m2)
# column 7: transparent flux; lambda*F_lambda (W/m2)
1.00000000e-03 8.43476973e-13 8.43474422e-13 2.55138543e-18 0.00000000e+00 0.00000000e+00 8.46529401e-13
1.14815362e-03 9.94576531e-13 9.94414976e-13 1.61554811e-16 0.00000000e+00 0.00000000e+00 9.99176121e-13
1.31825674e-03 1.17243643e-12 1.17220787e-12 2.28559366e-16 0.00000000e+00 0.00000000e+00 1.17934819e-12
1.51356125e-03 1.38212534e-12 1.38207820e-12 4.71440227e-17 0.00000000e+00 0.00000000e+00 1.39200901e-12
1.73780083e-03 1.63119997e-12 1.63117472e-12 2.52543565e-17 0.00000000e+00 0.00000000e+00 1.64301696e-12
1.99526231e-03 1.92110846e-12 1.92077664e-12 3.31820136e-16 0.00000000e+00 0.00000000e+00 1.93928682e-12
2.29086765e-03 2.26760167e-12 2.26581886e-12 1.78280925e-15 0.00000000e+00 0.00000000e+00 2.28898025e-12
2.63026799e-03 2.66930511e-12 2.66900310e-12 3.02016161e-16 0.00000000e+00 0.00000000e+00 2.70173063e-12
3.01995172e-03 3.18455924e-12 3.14120147e-12 4.33577736e-14 0.00000000e+00 0.00000000e+00 3.18890841e-12
3.46736850e-03 3.74152398e-12 3.69765316e-12 4.38708221e-14 0.00000000e+00 0.00000000e+00 3.76393440e-12
3.98107171e-03 4.35649240e-12 4.35321361e-12 3.27878655e-15 0.00000000e+00 0.00000000e+00 4.44264945e-12
4.57088190e-03 5.17765542e-12 5.17309729e-12 4.55812944e-15 0.00000000e+00 0.00000000e+00 5.24375082e-12
5.24807460e-03 6.08778002e-12 6.08299317e-12 4.78684976e-15 0.00000000e+00 0.00000000e+00 6.18930730e-12
6.02559586e-03 7.24996404e-12 7.15433265e-12 9.56313901e-14 0.00000000e+00 0.00000000e+00 7.30536713e-12
6.91830971e-03 8.46944182e-12 8.41725905e-12 5.21827675e-14 0.00000000e+00 0.00000000e+00 8.62267558e-12
7.94328235e-03 9.96087159e-12 9.90739688e-12 5.34747119e-14 1.46911781e-303 4.92489138e-305 1.01775219e-11
9.12010839e-03 1.17519473e-11 1.16594488e-11 9.24985356e-14 8.21944337e-265 2.75036007e-266 1.20127391e-11
1.04712855e-02 1.31015218e-11 1.29972107e-11 1.04311122e-13 4.21318689e-231 6.28522508e-233 1.34165878e-11
1.20226443e-02 1.30891083e-11 1.29728736e-11 1.16234724e-13 7.99596710e-202 1.81471004e-203 1.34165878e-11
1.38038426e-02 1.30440841e-11 1.29440662e-11 1.00017860e-13 2.57852339e-176 7.79265141e-178 1.34165878e-11
1.58489319e-02 1.30273326e-11 1.29087517e-11 1.18580832e-13 3.97832608e-154 9.48600857e-156 1.34165878e-11
1.81970086e-02 1.30088404e-11 1.28762659e-11 1.32574476e-13 8.04342683e-135 2.30912114e-136 1.34165878e-11
2.08929613e-02 1.29708774e-11 1.28493254e-11 1.21552030e-13 4.65807494e-118 1.32428558e-119 1.34165878e-11
2.39883292e-02 1.29460803e-11 1.28145034e-11 1.31576928e-13 1.80390962e-103 6.59352002e-105 1.34165878e-11
2.75422870e-02 1.29141167e-11 1.27741180e-11 1.39998693e-13 8.73317606e-91 3.37643369e-92 1.34165878e-11
3.16227766e-02 1.28678339e-11 1.27346551e-11 1.33178835e-13 9.13503688e-80 3.89028658e-81 1.34165878e-11
3.63078055e-02 1.28305008e-11 1.27037877e-11 1.26713137e-13 3.35191740e-70 1.37066935e-71 1.34165878e-11
4.16869383e-02 1.28114916e-11 1.26771500e-11 1.34341563e-13 6.74328984e-62 3.32674436e-63 1.34165878e-11
4.78630092e-02 1.27412253e-11 1.26040128e-11 1.37212497e-13 1.06306946e-54 5.98519638e-56 1.34165878e-11
5.49540874e-02 1.26445327e-11 1.25030026e-11 1.41530184e-13 1.83070843e-48 1.10972902e-49 1.34165878e-11
6.30957344e-02 1.24029167e-11 1.22532649e-11 1.49651799e-13 6.04974340e-43 3.90954080e-44 1.34165878e-11
7.24435960e-02 1.21141433e-11 1.19638933e-11 1.50249948e-13 3.55326238e-38 2.09956390e-39 1.34165878e-11
8.31763771e-02 1.21272827e-11 1.19893637e-11 1.37918973e-13 3.73687089e-34 2.18401655e-35 1.34165878e-11
9.54992586e-02 1.21986681e-11 1.20643803e-11 1.34287825e-13 1.08254232e-30 6.65450821e-32 1.34165878e-11
1.09647820e-01 1.18566643e-11 1.17304290e-11 1.26235266e-13 9.49143840e-28 6.45949228e-29 1.28127470e-11
1.25892541e-01 1.12320374e-11 1.11196760e-11 1.12361386e-13 3.16306658e-25 2.14701816e-26 1.19575512e-11
1.44543977e-01 1.06024269e-11 1.05073172e-11 9.51096617e-14 4.41783634e-23 3.02729690e-24 1.11594361e-11
1.65958691e-01 9.96732470e-12 9.88035197e-12 8.69727303e-14 2.29054915e-21 1.75803830e-22 1.04145917e-11
1.90546072e-01 9.27643453e-12 9.18847793e-12 8.79565586e-14 4.88075798e-20 4.37816318e-21 9.71946251e-12
2.18776162e-01 8.57451707e-12 8.49223260e-12 8.22838865e-14 5.79321695e-19 5.32331161e-20 9.07073019e-12
2.51188643e-01 8.11109844e-12 8.03070003e-12 8.03911834e-14 7.23242666e-18 8.41221455e-19 8.46529796e-12
2.88403150e-01 7.63169563e-12 7.56204093e-12 6.95934817e-14 6.12171167e-17 7.07571119e-18 7.90027573e-12
3.31131121e-01 7.15906019e-12 7.09703129e-12 6.16744750e-14 3.54423976e-16 3.98846521e-17 7.37296631e-12
3.80189396e-01 6.70814947e-12 6.65418977e-12 5.24685237e-14 1.49117848e-15 1.63945269e-16 6.88085251e-12
4.36515832e-01 6.28788925e-12 6.23708589e-12 4.60365459e-14 4.76681435e-15 5.17491007e-16 6.42158520e-12
5.01187234e-01 5.89527165e-12 5.84484080e-12 3.84418322e-14 1.19890176e-14 1.28435413e-15 5.99297201e-12
5.75439937e-01 5.53380578e-12 5.47528201e-12 3.37652861e-14 2.47584861e-14 2.60600408e-15 5.59296690e-12
6.60693448e-01 5.19932326e-12 5.12699110e-12 2.89371045e-14 4.33950604e-14 4.41642675e-15 5.21966041e-12
7.58577575e-01 4.89084554e-12 4.79919828e-12 2.42585870e-14 6.73886797e-14 6.66104046e-15 4.87127053e-12
8.70963590e-01 4.60541849e-12 4.49132886e-12 1.95661109e-14 9.45235173e-14 8.89162610e-15 4.54613417e-12
1.00000000e+00 4.33925197e-12 4.20170440e-12 1.61850919e-14 1.21362475e-13 1.06466809e-14 4.24269927e-12
1.14815362e+00 4.09141750e-12 3.92940268e-12 1.32814555e-14 1.48733362e-13 1.20069420e-14 3.95951734e-12
1.31825674e+00 3.86193459e-12 3.67350246e-12 1.03769708e-14 1.78055156e-13 1.28260983e-14 3.69523659e-12
1.51356125e+00 3.65175941e-12 3.43307072e-12 7.87147593e-15 2.10817210e-13 1.31357561e-14 3.44859544e-12
1.73780083e+00 3.46097388e-12 3.20750896e-12 5.96712758e-15 2.47497793e-13 1.28630892e-14 3.21841652e-12
1.99526231e+00 3.28556526e-12 2.99605858e-12 4.03057102e-15 2.85476107e-13 1.18852244e-14 3.00360106e-12
2.29086765e+00 3.12017079e-12 2.79792481e-12 3.01752409e-15 3.19228454e-13 1.01109229e-14 2.80312361e-12
2.63026799e+00 2.95716983e-12 2.61241054e-12 1.97216924e-15 3.42787128e-13 8.17306907e-15 2.61602716e-12
3.01995172e+00 2.79261743e-12 2.43887044e-12 1.41146611e-15 3.52335528e-13 6.25971463e-15 2.44141860e-12
3.46736850e+00 2.62521484e-12 2.27663984e-12 8.78117888e-16 3.47696882e-13 4.59560896e-15 2.27846441e-12
3.98107171e+00 2.45600046e-12 2.12506361e-12 6.03099384e-16 3.30333755e-13 3.17602542e-15 2.12638671e-12
4.57088190e+00 2.28881004e-12 1.98348701e-12 3.72329033e-16 3.04950708e-13 2.07371113e-15 1.98445954e-12
5.24807460e+00 1.91708766e-12 1.64019786e-12 1.93368992e-16 2.76696430e-13 1.29163573e-15 1.64084388e-12
6.02559586e+00 1.33317019e-12 1.08374010e-12 8.05112465e-17 2.49349577e-13 7.80760845e-16 1.08409480e-12
6.70000000e+00 1.01707235e-12 7.88346349e-13 4.00630420e-17 2.28685936e-13 4.98786234e-16 7.88574724e-13
6.92422916e+00 9.36352320e-13 7.14219297e-13 3.01663903e-17 2.22102857e-13 4.27561753e-16 7.14418944e-13
7.15596261e+00 8.65178827e-13 6.47058892e-13 2.49396512e-17 2.18094996e-13 3.68814236e-16 6.47236606e-13
7.39545150e+00 8.05931218e-13 5.86207096e-13 1.81202727e-17 2.19706002e-13 3.14329247e-16 5.86371942e-13
7.64295536e+00 7.68229562e-13 5.31060698e-13 1.34561965e-17 2.37155407e-13 2.70539826e-16 5.31230854e-13
7.89874245e+00 7.61490084e-13 4.81075946e-13 8.76974134e-18 2.80405368e-13 2.30676463e-16 4.81275108e-13
8.16308998e+00 7.80271615e-13 4.35773470e-13 5.77823782e-18 3.44492367e-13 1.97285562e-16 4.36017088e-13
8.43628443e+00 8.30484031e-13 3.94708428e-13 3.40546802e-18 4.35772197e-13 1.60131935e-16 3.95015029e-13
8.71862190e+00 8.58415827e-13 3.57527436e-13 2.33906294e-18 5.00886052e-13 1.27695157e-16 3.57868711e-13
9.01040836e+00 8.92886691e-13 3.23841039e-13 1.33091260e-18 5.69044321e-13 9.46486840e-17 3.24215549e-13
9.31196005e+00 9.16025787e-13 2.93333566e-13 0.00000000e+00 6.22692220e-13 0.00000000e+00 2.93727053e-13
9.62360379e+00 8.86098791e-13 2.65739758e-13 0.00000000e+00 6.20359033e-13 0.00000000e+00 2.66105627e-13
9.94567731e+00 8.14045978e-13 2.40770631e-13 0.00000000e+00 5.73275347e-13 0.00000000e+00 2.41081657e-13
1.02785297e+01 7.36736035e-13 2.18155957e-13 0.00000000e+00 5.18580078e-13 0.00000000e+00 2.18410884e-13
1.06225216e+01 6.61239905e-13 1.97665313e-13 0.00000000e+00 4.63574592e-13 0.00000000e+00 1.97872020e-13
1.09780260e+01 5.83528224e-13 1.79103018e-13 0.00000000e+00 4.04425206e-13 0.00000000e+00 1.79264583e-13
1.13454280e+01 5.17698209e-13 1.62280162e-13 0.00000000e+00 3.55418047e-13 0.00000000e+00 1.62406948e-13
1.17251259e+01 4.60771504e-13 1.47034434e-13 0.00000000e+00 3.13737070e-13 0.00000000e+00 1.47134567e-13
1.21175312e+01 4.09242478e-13 1.33219689e-13 0.00000000e+00 2.76022790e-13 0.00000000e+00 1.33298366e-13
1.25230691e+01 3.64350811e-13 1.20701640e-13 0.00000000e+00 2.43649170e-13 0.00000000e+00 1.20763289e-13
1.29421791e+01 3.25531473e-13 1.09358339e-13 0.00000000e+00 2.16173134e-13 0.00000000e+00 1.09406983e-13
1.33753155e+01 2.92412738e-13 9.90799413e-14 0.00000000e+00 1.93332797e-13 0.00000000e+00 9.91185987e-14
1.38229477e+01 2.68255565e-13 8.97655725e-14 0.00000000e+00 1.78489992e-13 0.00000000e+00 8.97977103e-14
1.42855609e+01 2.51197641e-13 8.13254051e-14 0.00000000e+00 1.69872236e-13 0.00000000e+00 8.13533371e-14
1.47636563e+01 2.45416385e-13 7.36765442e-14 0.00000000e+00 1.71739841e-13 0.00000000e+00 7.37030537e-14
1.52577522e+01 2.42573929e-13 6.67465716e-14 0.00000000e+00 1.75827357e-13 0.00000000e+00 6.67721855e-14
1.57683840e+01 2.42015745e-13 6.04680143e-14 0.00000000e+00 1.81547731e-13 0.00000000e+00 6.04930805e-14
1.62961051e+01 2.41950662e-13 5.47799478e-14 0.00000000e+00 1.87170714e-13 0.00000000e+00 5.48044484e-14
1.68414875e+01 2.42251618e-13 4.96268683e-14 0.00000000e+00 1.92624750e-13 0.00000000e+00 4.96507622e-14
1.74051222e+01 2.40027163e-13 4.49590270e-14 0.00000000e+00 1.95068136e-13 0.00000000e+00 4.49817171e-14
1.79876201e+01 2.35630003e-13 4.07305530e-14 0.00000000e+00 1.94899450e-13 0.00000000e+00 4.07517384e-14
1.85896125e+01 2.27717313e-13 3.69003688e-14 0.00000000e+00 1.90816945e-13 0.00000000e+00 3.69195372e-14
1.92117518e+01 2.16199433e-13 3.34308705e-14 0.00000000e+00 1.82768563e-13 0.00000000e+00 3.34477076e-14
1.98547123e+01 2.03567672e-13 3.02878603e-14 0.00000000e+00 1.73279811e-13 0.00000000e+00 3.03023610e-14
2.05191907e+01 1.90194013e-13 2.74404331e-14 0.00000000e+00 1.62753580e-13 0.00000000e+00 2.74527957e-14
2.12059073e+01 1.78020701e-13 2.48606589e-14 0.00000000e+00 1.53160042e-13 0.00000000e+00 2.48711970e-14
2.19156062e+01 1.67017968e-13 2.25233394e-14 0.00000000e+00 1.44494629e-13 0.00000000e+00 2.25323660e-14
2.26490567e+01 1.56941534e-13 2.04057291e-14 0.00000000e+00 1.36535805e-13 0.00000000e+00 2.04134733e-14
2.34070535e+01 1.47352118e-13 1.84871802e-14 0.00000000e+00 1.28864937e-13 0.00000000e+00 1.84938366e-14
2.41904183e+01 1.38944521e-13 1.67489823e-14 0.00000000e+00 1.22195539e-13 0.00000000e+00 1.67547181e-14
2.50000000e+01 1.30735127e-13 1.51741892e-14 0.00000000e+00 1.15560938e-13 0.00000000e+00 1.51791424e-14
2.75422870e+01 1.09354804e-13 1.13486359e-14 0.00000000e+00 9.80061680e-14 0.00000000e+00 1.13518661e-14
3.16227766e+01 8.34664529e-14 7.49832878e-15 0.00000000e+00 7.59681241e-14 0.00000000e+00 7.50010357e-15
3.63078055e+01 6.11830908e-14 4.95429931e-15 0.00000000e+00 5.62287915e-14 0.00000000e+00 4.95526929e-15
4.16869383e+01 4.23209635e-14 3.27339787e-15 0.00000000e+00 3.90475656e-14 0.00000000e+00 3.27391395e-15
4.78630092e+01 2.76706330e-14 2.16278744e-15 0.00000000e+00 2.55078456e-14 0.00000000e+00 2.16305350e-15
5.49540874e+01 1.72831552e-14 1.42898103e-15 0.00000000e+00 1.58541741e-14 0.00000000e+00 1.42911527e-15
6.30957344e+01 1.04260572e-14 9.44140224e-16 0.00000000e+00 9.48191698e-15 0.00000000e+00 9.44207098e-16
7.24435960e+01 6.12861316e-15 6.23798368e-16 0.00000000e+00 5.50481479e-15 0.00000000e+00 6.23831443e-16
8.31763771e+01 3.53883223e-15 4.12145015e-16 0.00000000e+00 3.12668721e-15 0.00000000e+00 4.12161347e-16
9.54992586e+01 2.02068406e-15 2.72304218e-16 0.00000000e+00 1.74837985e-15 0.00000000e+00 2.72312302e-16
1.09647820e+02 1.14590763e-15 1.79910938e-16 0.00000000e+00 9.65996689e-16 0.00000000e+00 1.79914953e-16
1.25892541e+02 6.53752517e-16 1.18866607e-16 0.00000000e+00 5.34885910e-16 0.00000000e+00 1.18868631e-16
1.44543977e+02 3.73395889e-16 7.85346979e-17 0.00000000e+00 2.94861191e-16 0.00000000e+00 7.85357256e-17
1.65958691e+02 2.06473047e-16 5.18875354e-17 0.00000000e+00 1.54585511e-16 0.00000000e+00 5.18880394e-17
1.90546072e+02 1.15457860e-16 3.42818381e-17 0.00000000e+00 8.11760222e-17 0.00000000e+00 3.42820876e-17
2.18776162e+02 6.52185897e-17 2.26498264e-17 0.00000000e+00 4.25687633e-17 0.00000000e+00 2.26499507e-17
2.51188643e+02 3.72086399e-17 1.49646119e-17 0.00000000e+00 2.22440280e-17 0.00000000e+00 1.49646740e-17
2.88403150e+02 2.14537369e-17 9.88703100e-18 0.00000000e+00 1.15667059e-17 0.00000000e+00 9.88706207e-18
3.31131121e+02 1.25283912e-17 6.53230155e-18 0.00000000e+00 5.99608966e-18 0.00000000e+00 6.53231713e-18
3.80189396e+02 7.41119540e-18 4.31585132e-18 0.00000000e+00 3.09534408e-18 0.00000000e+00 4.31585913e-18
4.36515832e+02 4.44481837e-18 2.85145593e-18 0.00000000e+00 1.59336244e-18 0.00000000e+00 2.85145985e-18
5.01187234e+02 2.70161763e-18 1.88393887e-18 0.00000000e+00 8.17678760e-19 0.00000000e+00 1.88394084e-18
5.75439937e+02 1.66324703e-18 1.24470638e-18 0.00000000e+00 4.18540646e-19 0.00000000e+00 1.24470737e-18
6.60693448e+02 1.03612484e-18 8.22369507e-19 0.00000000e+00 2.13755333e-19 0.00000000e+00 8.22370004e-19
7.58577575e+02 6.52287966e-19 5.43334224e-19 0.00000000e+00 1.08953742e-19 0.00000000e+00 5.43334473e-19
8.70963590e+02 4.14403090e-19 3.58977401e-19 0.00000000e+00 5.54256890e-20 0.00000000e+00 3.58977527e-19
1.00000000e+03 2.81434871e-20 0.00000000e+00 0.00000000e+00 2.81434871e-20 0.00000000e+00 0.00000000e+00
