# column 1: lambda (micron)
# column 2: total flux; lambda*F_lambda (W/m2)
# column 3: direct stellar flux; lambda*F_lambda (W/m2)
# column 4: scattered stellar flux; lambda*F_lambda (W/m2)
# column 5: total dust emission flux; lambda*F_lambda (W/m2)
# column 6: dust emission scattered flux; lambda*F_lambda (W/m2)
# column 7: transparent flux; lambda*F_lambda (W/m2)
1.00000000e-03 3.57788015e-13 3.57785423e-13 2.59109052e-18 0.00000000e+00 0.00000000e+00 3.57785423e-13
1.14815362e-03 4.22305105e-13 4.22301518e-13 3.58671241e-18 0.00000000e+00 0.00000000e+00 4.22301518e-13
1.31825674e-03 4.98456953e-13 4.98451197e-13 5.75676362e-18 0.00000000e+00 0.00000000e+00 4.98451197e-13
1.51356125e-03 5.88340843e-13 5.88332233e-13 8.60971794e-18 0.00000000e+00 0.00000000e+00 5.88332233e-13
1.73780083e-03 6.94437041e-13 6.94420676e-13 1.63651802e-17 0.00000000e+00 0.00000000e+00 6.94420676e-13
1.99526231e-03 8.19665731e-13 8.19639053e-13 2.66778376e-17 0.00000000e+00 0.00000000e+00 8.19639053e-13
2.29086765e-03 9.67478898e-13 9.67436888e-13 4.20095751e-17 0.00000000e+00 0.00000000e+00 9.67436888e-13
2.63026799e-03 1.14196721e-12 1.14188572e-12 8.14884162e-17 0.00000000e+00 0.00000000e+00 1.14188572e-12
3.01995172e-03 1.34793095e-12 1.34779128e-12 1.39668651e-16 0.00000000e+00 0.00000000e+00 1.34779128e-12
3.46736850e-03 1.59105568e-12 1.59082586e-12 2.29821361e-16 0.00000000e+00 0.00000000e+00 1.59082586e-12
3.98107171e-03 1.87805607e-12 1.87768459e-12 3.71472850e-16 0.00000000e+00 0.00000000e+00 1.87768459e-12
4.57088190e-03 2.21712688e-12 2.21626987e-12 8.57001682e-16 0.00000000e+00 0.00000000e+00 2.21626987e-12
5.24807460e-03 2.61738904e-12 2.61590907e-12 1.47997637e-15 0.00000000e+00 0.00000000e+00 2.61590907e-12
6.02559586e-03 3.09010346e-12 3.08761145e-12 2.49200804e-15 0.00000000e+00 0.00000000e+00 3.08761145e-12
6.91830971e-03 3.64854715e-12 3.64437151e-12 4.17563859e-15 0.00000000e+00 0.00000000e+00 3.64437151e-12
7.94328235e-03 4.30844392e-12 4.30152690e-12 6.91702453e-15 2.15972034e-303 8.44090152e-305 4.30152690e-12
9.12010839e-03 5.08792512e-12 5.07718096e-12 1.07441622e-14 1.05484475e-264 3.32509365e-266 5.07718096e-12
1.04712855e-02 5.68797589e-12 5.67051724e-12 1.74586543e-14 4.94727371e-231 1.48717963e-232 5.67051724e-12
1.20226443e-02 5.69356421e-12 5.67051724e-12 2.30469706e-14 8.75441109e-202 5.38036820e-203 5.67051724e-12
1.38038426e-02 5.70603226e-12 5.67051724e-12 3.55150226e-14 2.52172877e-176 1.03112892e-177 5.67051724e-12
1.58489319e-02 5.72199795e-12 5.67051724e-12 5.14807112e-14 3.66169310e-154 1.65310749e-155 5.67051724e-12
1.81970086e-02 5.73103186e-12 5.67051724e-12 6.05146164e-14 6.91191860e-135 3.13539055e-136 5.67051724e-12
2.08929613e-02 5.75393239e-12 5.67051724e-12 8.34151471e-14 3.81325969e-118 1.79910526e-119 5.67051724e-12
2.39883292e-02 5.75636700e-12 5.67051724e-12 8.58497598e-14 1.39946825e-103 7.11468565e-105 5.67051724e-12
2.75422870e-02 5.78187413e-12 5.67051724e-12 1.11356895e-13 6.52429479e-91 3.80578162e-92 5.67051724e-12
3.16227766e-02 5.78620390e-12 5.67051724e-12 1.15686659e-13 6.53525885e-80 3.56789388e-81 5.67051724e-12
3.63078055e-02 5.78432847e-12 5.67051724e-12 1.13811234e-13 2.32761561e-70 1.22091696e-71 5.67051724e-12
4.16869383e-02 5.79746157e-12 5.67051724e-12 1.26944329e-13 4.53723695e-62 2.64867914e-63 5.67051724e-12
4.78630092e-02 5.78531143e-12 5.67051724e-12 1.14794191e-13 6.95954489e-55 4.38479126e-56 5.67051724e-12
5.49540874e-02 5.78036796e-12 5.67051724e-12 1.09850723e-13 1.17673070e-48 7.80058469e-50 5.67051724e-12
6.30957344e-02 5.77300407e-12 5.67051724e-12 1.02486834e-13 3.79131611e-43 2.52525988e-44 5.67051724e-12
7.24435960e-02 5.76150022e-12 5.67051724e-12 9.09829834e-14 2.19291417e-38 1.31842429e-39 5.67051724e-12
8.31763771e-02 5.75991092e-12 5.67051724e-12 8.93936784e-14 2.27884487e-34 1.35529252e-35 5.67051724e-12
9.54992586e-02 5.76142378e-12 5.67051724e-12 9.09065395e-14 6.49238146e-31 3.92355215e-32 5.67051724e-12
1.09647820e-01 5.50728317e-12 5.41530405e-12 9.19791214e-14 5.64585364e-28 3.74224155e-29 5.41530405e-12
1.25892541e-01 5.14717245e-12 5.05385580e-12 9.33166531e-14 1.86514520e-25 1.26649673e-26 5.05385580e-12
1.44543977e-01 4.80334146e-12 4.71653266e-12 8.68088059e-14 2.58776778e-23 1.71662450e-24 4.71653266e-12
1.65958691e-01 4.49353798e-12 4.40172439e-12 9.18135936e-14 1.32650597e-21 9.88975388e-23 4.40172439e-12
1.90546072e-01 4.19891153e-12 4.10792822e-12 9.09832886e-14 2.80650576e-20 2.39014831e-21 4.10792822e-12
2.18776162e-01 3.92001929e-12 3.83374167e-12 8.62772827e-14 3.29830882e-19 2.76172982e-20 3.83374167e-12
2.51188643e-01 3.67415681e-12 3.57785591e-12 9.62967991e-14 4.10222292e-18 4.34376750e-19 3.57785591e-12
2.88403150e-01 3.42841119e-12 3.33904941e-12 8.93271541e-14 3.46233559e-17 3.60293008e-18 3.33904941e-12
3.31131121e-01 3.19972164e-12 3.11618222e-12 8.33390084e-14 2.00402959e-16 2.03709053e-17 3.11618222e-12
3.80189396e-01 2.98609821e-12 2.90819046e-12 7.70629294e-14 8.44820246e-16 8.55457385e-17 2.90819046e-12
4.36515832e-01 2.78828420e-12 2.71408126e-12 7.15077872e-14 2.69515467e-15 2.71094531e-16 2.71408126e-12
5.01187234e-01 2.60585522e-12 2.53292801e-12 6.61085700e-14 6.81864300e-15 6.74387259e-16 2.53292801e-12
5.75439937e-01 2.43871178e-12 2.36386595e-12 6.05552046e-14 1.42906196e-14 1.42794400e-15 2.36386595e-12
6.60693448e-01 2.28715170e-12 2.20608807e-12 5.52760533e-14 2.57875815e-14 2.59809951e-15 2.20608807e-12
7.58577575e-01 2.15175476e-12 2.05884118e-12 5.05438478e-14 4.23697311e-14 4.41567974e-15 2.05884118e-12
8.70963590e-01 2.03187269e-12 1.92142238e-12 4.43655849e-14 6.60847163e-14 7.12177499e-15 1.92142238e-12
1.00000000e+00 1.93469269e-12 1.79317570e-12 4.00616392e-14 1.01455351e-13 1.16138420e-14 1.79317570e-12
1.14815362e+00 1.86541107e-12 1.67348894e-12 3.30497094e-14 1.58872428e-13 1.83753724e-14 1.67348894e-12
1.31825674e+00 1.84424990e-12 1.56179075e-12 2.80508983e-14 2.54408257e-13 2.85077751e-14 1.56179075e-12
1.51356125e+00 1.88069433e-12 1.45754793e-12 2.22031358e-14 4.00943260e-13 4.13208547e-14 1.45754793e-12
1.73780083e+00 1.97705132e-12 1.36026288e-12 1.74464660e-14 5.99341975e-13 5.38664778e-14 1.36026288e-12
1.99526231e+00 2.11524111e-12 1.26947118e-12 1.35087249e-14 8.32261210e-13 6.12677827e-14 1.26947118e-12
2.29086765e+00 2.25663383e-12 1.18473944e-12 9.85196046e-15 1.06204243e-12 6.18143200e-14 1.18473944e-12
2.63026799e+00 2.37662173e-12 1.10566318e-12 7.27462918e-15 1.26368392e-12 5.71812796e-14 1.10566318e-12
3.01995172e+00 2.43460819e-12 1.03186491e-12 5.08973783e-15 1.39765354e-12 4.78434058e-14 1.03186491e-12
3.46736850e+00 2.43125441e-12 9.62992369e-13 3.45905591e-15 1.46480298e-12 3.69594382e-14 9.62992369e-13
3.98107171e+00 2.35346676e-12 8.98716770e-13 2.30935032e-15 1.45244064e-12 2.62162051e-14 8.98716770e-13
4.57088190e+00 2.22534303e-12 8.38731291e-13 1.42396886e-15 1.38518777e-12 1.71887320e-14 8.38731291e-13
5.24807460e+00 1.97693978e-12 6.93502223e-13 7.84317404e-16 1.28265324e-12 1.05422257e-14 6.93502223e-13
6.02559586e+00 1.62610774e-12 4.58192375e-13 3.31248288e-16 1.16758411e-12 6.08702945e-15 4.58192375e-13
6.70000000e+00 1.40789062e-12 3.33290895e-13 1.60368329e-16 1.07443936e-12 3.78686928e-15 3.33290895e-13
6.92422916e+00 1.34716300e-12 3.01948975e-13 1.29450042e-16 1.04508457e-12 3.26092986e-15 3.01948975e-13
7.15596261e+00 1.29969731e-12 2.73554377e-13 1.01915611e-16 1.02604101e-12 2.78920116e-15 2.73554377e-13
7.39545150e+00 1.27632188e-12 2.47829944e-13 7.73951357e-17 1.02841454e-12 2.36823178e-15 2.47829944e-13
7.64295536e+00 1.32148487e-12 2.24524577e-13 5.55411242e-17 1.09690476e-12 2.01563310e-15 2.24524577e-13
7.89874245e+00 1.46413057e-12 2.03410795e-13 3.70839883e-17 1.26068269e-12 1.72163447e-15 2.03410795e-13
8.16308998e+00 1.67423015e-12 1.84282505e-13 2.34702353e-17 1.48992417e-12 1.45054160e-15 1.84282505e-13
8.43628443e+00 1.94931319e-12 1.66952996e-13 1.36747896e-17 1.78234652e-12 1.14283245e-15 1.66952996e-13
8.71862190e+00 2.11915755e-12 1.51253114e-13 8.73670709e-18 1.96789570e-12 9.00095598e-16 1.51253114e-13
9.01040836e+00 2.28991544e-12 1.37029614e-13 5.13206995e-18 2.15288069e-12 6.40348484e-16 1.37029614e-13
9.31196005e+00 2.40403623e-12 1.24143660e-13 0.00000000e+00 2.27989257e-12 0.00000000e+00 1.24143660e-13
9.62360379e+00 2.35065922e-12 1.12469472e-13 0.00000000e+00 2.23818975e-12 0.00000000e+00 1.12469472e-13
9.94567731e+00 2.20778798e-12 1.01893097e-13 0.00000000e+00 2.10589489e-12 0.00000000e+00 1.01893097e-13
1.02785297e+01 2.02493561e-12 9.23113014e-14 0.00000000e+00 1.93262430e-12 0.00000000e+00 9.23113014e-14
1.06225216e+01 1.85153758e-12 8.36305558e-14 0.00000000e+00 1.76790702e-12 0.00000000e+00 8.36305558e-14
1.09780260e+01 1.65940563e-12 7.57661279e-14 0.00000000e+00 1.58363950e-12 0.00000000e+00 7.57661279e-14
1.13454280e+01 1.50012679e-12 6.86412529e-14 0.00000000e+00 1.43148554e-12 0.00000000e+00 6.86412529e-14
1.17251259e+01 1.35876004e-12 6.21863851e-14 0.00000000e+00 1.29657366e-12 0.00000000e+00 6.21863851e-14
1.21175312e+01 1.22732516e-12 5.63385184e-14 0.00000000e+00 1.17098664e-12 0.00000000e+00 5.63385184e-14
1.25230691e+01 1.10921185e-12 5.10405718e-14 0.00000000e+00 1.05817128e-12 0.00000000e+00 5.10405718e-14
1.29421791e+01 1.00808490e-12 4.62408321e-14 0.00000000e+00 9.61844064e-13 0.00000000e+00 4.62408321e-14
1.33753155e+01 9.19122356e-13 4.18924490e-14 0.00000000e+00 8.77229906e-13 0.00000000e+00 4.18924490e-14
1.38229477e+01 8.58895310e-13 3.79529781e-14 0.00000000e+00 8.20942331e-13 0.00000000e+00 3.79529781e-14
1.42855609e+01 8.21774571e-13 3.43839660e-14 0.00000000e+00 7.87390605e-13 0.00000000e+00 3.43839660e-14
1.47636563e+01 8.27020400e-13 3.11505758e-14 0.00000000e+00 7.95869824e-13 0.00000000e+00 3.11505758e-14
1.52577522e+01 8.37567860e-13 2.82212462e-14 0.00000000e+00 8.09346614e-13 0.00000000e+00 2.82212462e-14
1.57683840e+01 8.56277726e-13 2.55673842e-14 0.00000000e+00 8.30710341e-13 0.00000000e+00 2.55673842e-14
1.62961051e+01 8.78204488e-13 2.31630853e-14 0.00000000e+00 8.55041402e-13 0.00000000e+00 2.31630853e-14
1.68414875e+01 8.96278152e-13 2.09848813e-14 0.00000000e+00 8.75293271e-13 0.00000000e+00 2.09848813e-14
1.74051222e+01 9.01557748e-13 1.90115106e-14 0.00000000e+00 8.82546238e-13 0.00000000e+00 1.90115106e-14
1.79876201e+01 9.01435259e-13 1.72237112e-14 0.00000000e+00 8.84211547e-13 0.00000000e+00 1.72237112e-14
1.85896125e+01 8.86426138e-13 1.56040325e-14 0.00000000e+00 8.70822106e-13 0.00000000e+00 1.56040325e-14
1.92117518e+01 8.59718227e-13 1.41366646e-14 0.00000000e+00 8.45581562e-13 0.00000000e+00 1.41366646e-14
1.98547123e+01 8.26882128e-13 1.28072847e-14 0.00000000e+00 8.14074844e-13 0.00000000e+00 1.28072847e-14
2.05191907e+01 7.89787682e-13 1.16029167e-14 0.00000000e+00 7.78184765e-13 0.00000000e+00 1.16029167e-14
2.12059073e+01 7.51393337e-13 1.05118047e-14 0.00000000e+00 7.40881533e-13 0.00000000e+00 1.05118047e-14
2.19156062e+01 7.19671258e-13 9.52329842e-15 0.00000000e+00 7.10147959e-13 0.00000000e+00 9.52329842e-15
2.26490567e+01 6.88919383e-13 8.62774902e-15 0.00000000e+00 6.80291634e-13 0.00000000e+00 8.62774902e-15
2.34070535e+01 6.59541712e-13 7.81641505e-15 0.00000000e+00 6.51725297e-13 0.00000000e+00 7.81641505e-15
2.41904183e+01 6.31340815e-13 7.08137710e-15 0.00000000e+00 6.24259438e-13 0.00000000e+00 7.08137710e-15
2.50000000e+01 6.03694594e-13 6.41546044e-15 0.00000000e+00 5.97279133e-13 0.00000000e+00 6.41546044e-15
2.75422870e+01 5.27216204e-13 4.79786316e-15 0.00000000e+00 5.22418341e-13 0.00000000e+00 4.79786316e-15
3.16227766e+01 4.23180992e-13 3.16991676e-15 0.00000000e+00 4.20011075e-13 0.00000000e+00 3.16991676e-15
3.63078055e+01 3.22923413e-13 2.09434323e-15 0.00000000e+00 3.20829070e-13 0.00000000e+00 2.09434323e-15
4.16869383e+01 2.30278008e-13 1.38371885e-15 0.00000000e+00 2.28894289e-13 0.00000000e+00 1.38371885e-15
4.78630092e+01 1.53595099e-13 9.14213979e-16 0.00000000e+00 1.52680885e-13 0.00000000e+00 9.14213979e-16
5.49540874e+01 9.70397630e-14 6.04015186e-16 0.00000000e+00 9.64357478e-14 0.00000000e+00 6.04015186e-16
6.30957344e+01 5.88280696e-14 3.99068876e-16 0.00000000e+00 5.84290008e-14 0.00000000e+00 3.99068876e-16
7.24435960e+01 3.44603498e-14 2.63662192e-16 0.00000000e+00 3.41966876e-14 0.00000000e+00 2.63662192e-16
8.31763771e+01 1.97149462e-14 1.74199882e-16 0.00000000e+00 1.95407463e-14 0.00000000e+00 1.74199882e-16
9.54992586e+01 1.10861041e-14 1.15092721e-16 0.00000000e+00 1.09710114e-14 0.00000000e+00 1.15092721e-16
1.09647820e+02 6.15206690e-15 7.60410067e-17 0.00000000e+00 6.07602589e-15 0.00000000e+00 7.60410067e-17
1.25892541e+02 3.41813175e-15 5.02397949e-17 0.00000000e+00 3.36789195e-15 0.00000000e+00 5.02397949e-17
1.44543977e+02 1.89053754e-15 3.31931033e-17 0.00000000e+00 1.85734444e-15 0.00000000e+00 3.31931033e-17
1.65958691e+02 9.96513090e-16 2.19304659e-17 0.00000000e+00 9.74582624e-16 0.00000000e+00 2.19304659e-17
1.90546072e+02 5.26450876e-16 1.44893151e-17 0.00000000e+00 5.11961561e-16 0.00000000e+00 1.44893151e-17
2.18776162e+02 2.78068407e-16 9.57299556e-18 0.00000000e+00 2.68495411e-16 0.00000000e+00 9.57299556e-18
2.51188643e+02 1.46609429e-16 6.32481544e-18 0.00000000e+00 1.40284613e-16 0.00000000e+00 6.32481544e-18
2.88403150e+02 7.71131382e-17 4.17876412e-18 0.00000000e+00 7.29343741e-17 0.00000000e+00 4.17876412e-18
3.31131121e+02 4.05610648e-17 2.76088208e-18 0.00000000e+00 3.78001827e-17 0.00000000e+00 2.76088208e-18
3.80189396e+02 2.13329837e-17 1.82409670e-18 0.00000000e+00 1.95088870e-17 0.00000000e+00 1.82409670e-18
4.36515832e+02 1.12451795e-17 1.20516874e-18 0.00000000e+00 1.00400108e-17 0.00000000e+00 1.20516874e-18
5.01187234e+02 5.94733278e-18 7.96247089e-19 0.00000000e+00 5.15108569e-18 0.00000000e+00 7.96247089e-19
5.75439937e+02 3.16212559e-18 5.26075235e-19 0.00000000e+00 2.63605036e-18 0.00000000e+00 5.26075235e-19
6.60693448e+02 1.69356481e-18 3.47574461e-19 0.00000000e+00 1.34599035e-18 0.00000000e+00 3.47574461e-19
7.58577575e+02 9.15573777e-19 2.29640169e-19 0.00000000e+00 6.85933609e-19 0.00000000e+00 2.29640169e-19
8.70963590e+02 5.00598650e-19 1.51721755e-19 0.00000000e+00 3.48876895e-19 0.00000000e+00 1.51721755e-19
1.00000000e+03 1.77120151e-19 0.00000000e+00 0.00000000e+00 1.77120151e-19 0.00000000e+00 0.00000000e+00
