# column 1: lambda (micron)
# column 2: total flux; lambda*F_lambda (W/m2)
# column 3: direct stellar flux; lambda*F_lambda (W/m2)
# column 4: scattered stellar flux; lambda*F_lambda (W/m2)
# column 5: total dust emission flux; lambda*F_lambda (W/m2)
# column 6: dust emission scattered flux; lambda*F_lambda (W/m2)
# column 7: transparent flux; lambda*F_lambda (W/m2)
1.00000000e-03 9.68073512e-13 9.68073281e-13 2.31055347e-19 0.00000000e+00 0.00000000e+00 9.68073281e-13
1.14815362e-03 1.14263723e-12 1.14263687e-12 3.58437993e-19 0.00000000e+00 0.00000000e+00 1.14263687e-12
1.31825674e-03 1.34867843e-12 1.34867788e-12 5.47916328e-19 0.00000000e+00 0.00000000e+00 1.34867788e-12
1.51356125e-03 1.59187316e-12 1.59187233e-12 8.35171219e-19 0.00000000e+00 0.00000000e+00 1.59187233e-12
1.73780083e-03 1.87892121e-12 1.87891976e-12 1.45322738e-18 0.00000000e+00 0.00000000e+00 1.87891976e-12
1.99526231e-03 2.21773052e-12 2.21772777e-12 2.75021902e-18 0.00000000e+00 0.00000000e+00 2.21772777e-12
2.29086765e-03 2.61763408e-12 2.61762985e-12 4.23693379e-18 0.00000000e+00 0.00000000e+00 2.61762985e-12
2.63026799e-03 3.08965082e-12 3.08964252e-12 8.29216690e-18 0.00000000e+00 0.00000000e+00 3.08964252e-12
3.01995172e-03 3.64678296e-12 3.64676883e-12 1.41348235e-17 0.00000000e+00 0.00000000e+00 3.64676883e-12
3.46736850e-03 4.30438040e-12 4.30435650e-12 2.39014974e-17 0.00000000e+00 0.00000000e+00 4.30435650e-12
3.98107171e-03 5.08055914e-12 5.08052080e-12 3.83449928e-17 0.00000000e+00 0.00000000e+00 5.08052080e-12
4.57088190e-03 5.99672803e-12 5.99664354e-12 8.44931279e-17 0.00000000e+00 0.00000000e+00 5.99664354e-12
5.24807460e-03 7.07811148e-12 7.07796211e-12 1.49360938e-16 0.00000000e+00 0.00000000e+00 7.07796211e-12
6.02559586e-03 8.35454929e-12 8.35426474e-12 2.84549945e-16 0.00000000e+00 0.00000000e+00 8.35426474e-12
6.91830971e-03 9.86116347e-12 9.86071107e-12 4.52395535e-16 0.00000000e+00 0.00000000e+00 9.86071107e-12
7.94328235e-03 1.16395573e-11 1.16388008e-11 7.56533847e-16 6.22525472e-304 7.91636609e-307 1.16388008e-11
9.12010839e-03 1.37387547e-11 1.37375167e-11 1.23794331e-15 2.88101490e-265 4.48565349e-268 1.37375167e-11
1.04712855e-02 1.53447021e-11 1.53429287e-11 1.77338852e-15 1.27593566e-231 1.88554261e-234 1.53429287e-11
1.20226443e-02 1.53993289e-11 1.53429287e-11 5.64002118e-14 2.08265217e-202 4.81807491e-205 1.53429287e-11
1.38038426e-02 1.53467783e-11 1.53429287e-11 3.84962290e-15 5.87946438e-177 1.65913210e-179 1.53429287e-11
1.58489319e-02 1.53480486e-11 1.53429287e-11 5.11995784e-15 8.21941204e-155 4.51333698e-157 1.53429287e-11
1.81970086e-02 1.53503115e-11 1.53429287e-11 7.38285993e-15 1.50473781e-135 7.99672268e-138 1.53429287e-11
2.08929613e-02 1.53521546e-11 1.53429287e-11 9.22591304e-15 8.04763662e-119 5.36000521e-121 1.53429287e-11
2.39883292e-02 1.53580819e-11 1.53429287e-11 1.51532435e-14 2.88567484e-104 2.76195425e-106 1.53429287e-11
2.75422870e-02 1.53610064e-11 1.53429287e-11 1.80777732e-14 1.31568429e-91 1.60250255e-93 1.53429287e-11
3.16227766e-02 1.53662716e-11 1.53429287e-11 2.33429083e-14 1.30398086e-80 1.98225646e-82 1.53429287e-11
3.63078055e-02 1.53716109e-11 1.53429287e-11 2.86822307e-14 4.58799319e-71 8.28124468e-73 1.53429287e-11
4.16869383e-02 1.53823798e-11 1.53429287e-11 3.94511261e-14 8.84795396e-63 2.20441402e-64 1.53429287e-11
4.78630092e-02 1.53971539e-11 1.53429287e-11 5.42252639e-14 1.35713256e-55 4.77501792e-57 1.53429287e-11
5.49540874e-02 1.54150338e-11 1.53429287e-11 7.21051600e-14 2.28882012e-49 1.04533250e-50 1.53429287e-11
6.30957344e-02 1.54318930e-11 1.53429287e-11 8.89642894e-14 7.51948474e-44 4.42452122e-45 1.53429287e-11
7.24435960e-02 1.54319144e-11 1.53429287e-11 8.89857249e-14 4.40214887e-39 2.64979056e-40 1.53429287e-11
8.31763771e-02 1.54293734e-11 1.53429287e-11 8.64447028e-14 4.53527147e-35 2.73010415e-36 1.53429287e-11
9.54992586e-02 1.54357549e-11 1.53429287e-11 9.28262584e-14 1.28567462e-31 8.12376582e-33 1.53429287e-11
1.09647820e-01 1.47467253e-11 1.46523889e-11 9.43364458e-14 1.09365510e-28 7.23148324e-30 1.46523889e-11
1.25892541e-01 1.37569426e-11 1.36744049e-11 8.25376680e-14 3.53426228e-26 2.13112731e-27 1.36744049e-11
1.44543977e-01 1.28327101e-11 1.27616972e-11 7.10128886e-14 4.81413884e-24 2.74877350e-25 1.27616972e-11
1.65958691e-01 1.19857836e-11 1.19099088e-11 7.58747548e-14 2.44473140e-22 1.53404184e-23 1.19099088e-11
1.90546072e-01 1.12032262e-11 1.11149736e-11 8.82526125e-14 5.18978524e-21 4.03919595e-22 1.11149736e-11
2.18776162e-01 1.04641664e-11 1.03730969e-11 9.10694443e-14 6.21932617e-20 5.55859984e-21 1.03730969e-11
2.51188643e-01 9.78280554e-12 9.68073733e-12 1.02067451e-13 7.59046347e-19 8.29678226e-20 9.68073733e-12
2.88403150e-01 9.12886034e-12 9.03458975e-12 9.42642957e-14 6.28753638e-18 6.48788967e-19 9.03458975e-12
3.31131121e-01 8.51317532e-12 8.43156974e-12 8.15696888e-14 3.58923734e-17 3.47478709e-18 8.43156974e-12
3.80189396e-01 7.94473707e-12 7.86879872e-12 7.57887778e-14 1.49568819e-16 1.41034439e-17 7.86879872e-12
4.36515832e-01 7.41378312e-12 7.34359025e-12 6.97195917e-14 4.73276701e-16 4.37371078e-17 7.34359025e-12
5.01187234e-01 6.91614572e-12 6.85343719e-12 6.15224264e-14 1.18610739e-15 1.08481220e-16 6.85343719e-12
5.75439937e-01 6.45711802e-12 6.39599973e-12 5.86350130e-14 2.48327702e-15 2.30502125e-16 6.39599973e-12
6.60693448e-01 6.03044188e-12 5.96909425e-12 5.67538585e-14 4.59377019e-15 4.43161950e-16 5.96909425e-12
7.58577575e-01 5.62860385e-12 5.57068288e-12 4.97779572e-14 8.14300413e-15 8.31132223e-16 5.57068288e-12
8.70963590e-01 5.25814564e-12 5.19886376e-12 4.44737581e-14 1.48081242e-14 1.60742531e-15 5.19886376e-12
1.00000000e+00 4.92071349e-12 4.85186196e-12 4.06964681e-14 2.81550567e-14 3.19109854e-15 4.85186196e-12
1.14815362e+00 4.61706227e-12 4.52802104e-12 3.33679827e-14 5.56732385e-14 6.33035962e-15 4.52802104e-12
1.31825674e+00 4.36292281e-12 4.22579511e-12 2.80554898e-14 1.09072203e-13 1.15615982e-14 4.22579511e-12
1.51356125e+00 4.16788521e-12 3.94374146e-12 2.27671800e-14 2.01376565e-13 1.93705216e-14 3.94374146e-12
1.73780083e+00 4.03511102e-12 3.68051368e-12 1.73998852e-14 3.37197450e-13 2.81772756e-14 3.68051368e-12
1.99526231e+00 3.95874354e-12 3.43485522e-12 1.27611323e-14 5.11127187e-13 3.54954761e-14 3.43485522e-12
2.29086765e+00 3.91505388e-12 3.20559341e-12 9.19920932e-15 7.00261261e-13 3.89908186e-14 3.20559341e-12
2.63026799e+00 3.87837909e-12 2.99163384e-12 6.69092304e-15 8.80054328e-13 3.81323344e-14 2.99163384e-12
3.01995172e+00 3.82066445e-12 2.79195514e-12 4.51865270e-15 1.02419065e-12 3.36663191e-14 2.79195514e-12
3.46736850e+00 3.72615908e-12 2.60560415e-12 3.05647659e-15 1.11749846e-12 2.74058748e-14 2.60560415e-12
3.98107171e+00 3.58824473e-12 2.43169128e-12 2.05706637e-15 1.15449638e-12 2.02582107e-14 2.43169128e-12
4.57088190e+00 3.41076611e-12 2.26938634e-12 1.28010691e-15 1.14009966e-12 1.39281096e-14 2.26938634e-12
5.24807460e+00 2.96699672e-12 1.87643467e-12 7.19068159e-16 1.08984298e-12 8.99431413e-15 1.87643467e-12
6.02559586e+00 2.25897658e-12 1.23974809e-12 3.04185689e-16 1.01892431e-12 5.39451020e-15 1.23974809e-12
6.70000000e+00 1.85527201e-12 9.01797527e-13 1.51349633e-16 9.53323137e-13 3.47444685e-15 9.01797527e-13
6.92422916e+00 1.74971334e-12 8.16994532e-13 1.22073933e-16 9.32596731e-13 2.99381704e-15 8.16994532e-13
7.15596261e+00 1.65862730e-12 7.40166218e-13 9.52030238e-17 9.18365880e-13 2.57687596e-15 7.40166218e-13
7.39545150e+00 1.59633688e-12 6.70562664e-13 7.30780613e-17 9.25701142e-13 2.19937621e-15 6.70562664e-13
7.64295536e+00 1.59765884e-12 6.07504471e-13 5.08721504e-17 9.90103498e-13 1.86772436e-15 6.07504471e-13
7.89874245e+00 1.69590195e-12 5.50376127e-13 3.33486855e-17 1.14549247e-12 1.57499639e-15 5.50376127e-13
8.16308998e+00 1.86561975e-12 4.98620004e-13 2.04520078e-17 1.36697930e-12 1.30828747e-15 4.98620004e-13
8.43628443e+00 2.11963756e-12 4.51730909e-13 1.20946580e-17 1.66789455e-12 1.04518433e-15 4.51730909e-13
8.71862190e+00 2.28740307e-12 4.09251158e-13 7.46695305e-18 1.87814444e-12 8.26645577e-16 4.09251158e-13
9.01040836e+00 2.45371850e-12 3.70766106e-13 4.69707518e-18 2.08294769e-12 5.96516240e-16 3.70766106e-13
9.31196005e+00 2.58972164e-12 3.35900102e-13 0.00000000e+00 2.25382154e-12 0.00000000e+00 3.35900102e-13
9.62360379e+00 2.55175963e-12 3.04312818e-13 0.00000000e+00 2.24744681e-12 0.00000000e+00 3.04312818e-13
9.94567731e+00 2.38230548e-12 2.75695930e-13 0.00000000e+00 2.10660955e-12 0.00000000e+00 2.75695930e-13
1.02785297e+01 2.18570429e-12 2.49770110e-13 0.00000000e+00 1.93593418e-12 0.00000000e+00 2.49770110e-13
1.06225216e+01 1.99690643e-12 2.26282295e-13 0.00000000e+00 1.77062414e-12 0.00000000e+00 2.26282295e-13
1.09780260e+01 1.78823281e-12 2.05003220e-13 0.00000000e+00 1.58322959e-12 0.00000000e+00 2.05003220e-13
1.13454280e+01 1.60536106e-12 1.85725182e-13 0.00000000e+00 1.41963587e-12 0.00000000e+00 1.85725182e-13
1.17251259e+01 1.44982861e-12 1.68260007e-13 0.00000000e+00 1.28156861e-12 0.00000000e+00 1.68260007e-13
1.21175312e+01 1.30811974e-12 1.52437217e-13 0.00000000e+00 1.15568252e-12 0.00000000e+00 1.52437217e-13
1.25230691e+01 1.18073146e-12 1.38102367e-13 0.00000000e+00 1.04262909e-12 0.00000000e+00 1.38102367e-13
1.29421791e+01 1.06798298e-12 1.25115533e-13 0.00000000e+00 9.42867448e-13 0.00000000e+00 1.25115533e-13
1.33753155e+01 9.73173047e-13 1.13349952e-13 0.00000000e+00 8.59823095e-13 0.00000000e+00 1.13349952e-13
1.38229477e+01 9.09789784e-13 1.02690779e-13 0.00000000e+00 8.07099005e-13 0.00000000e+00 1.02690779e-13
1.42855609e+01 8.69540743e-13 9.30339713e-14 0.00000000e+00 7.76506771e-13 0.00000000e+00 9.30339713e-14
1.47636563e+01 8.71340939e-13 8.42852675e-14 0.00000000e+00 7.87055672e-13 0.00000000e+00 8.42852675e-14
1.52577522e+01 8.84979402e-13 7.63592720e-14 0.00000000e+00 8.08620130e-13 0.00000000e+00 7.63592720e-14
1.57683840e+01 9.06067154e-13 6.91786191e-14 0.00000000e+00 8.36888535e-13 0.00000000e+00 6.91786191e-14
1.62961051e+01 9.29665331e-13 6.26732185e-14 0.00000000e+00 8.66992112e-13 0.00000000e+00 6.26732185e-14
1.68414875e+01 9.51638323e-13 5.67795711e-14 0.00000000e+00 8.94858752e-13 0.00000000e+00 5.67795711e-14
1.74051222e+01 9.60974939e-13 5.14401489e-14 0.00000000e+00 9.09534790e-13 0.00000000e+00 5.14401489e-14
1.79876201e+01 9.61852675e-13 4.66028339e-14 0.00000000e+00 9.15249841e-13 0.00000000e+00 4.66028339e-14
1.85896125e+01 9.46548089e-13 4.22204090e-14 0.00000000e+00 9.04327680e-13 0.00000000e+00 4.22204090e-14
1.92117518e+01 9.17845060e-13 3.82500974e-14 0.00000000e+00 8.79594962e-13 0.00000000e+00 3.82500974e-14
1.98547123e+01 8.80138578e-13 3.46531450e-14 0.00000000e+00 8.45485433e-13 0.00000000e+00 3.46531450e-14
2.05191907e+01 8.38811763e-13 3.13944418e-14 0.00000000e+00 8.07417322e-13 0.00000000e+00 3.13944418e-14
2.12059073e+01 7.98701741e-13 2.84421796e-14 0.00000000e+00 7.70259562e-13 0.00000000e+00 2.84421796e-14
2.19156062e+01 7.64335437e-13 2.57675415e-14 0.00000000e+00 7.38567896e-13 0.00000000e+00 2.57675415e-14
2.26490567e+01 7.28253278e-13 2.33444203e-14 0.00000000e+00 7.04908858e-13 0.00000000e+00 2.33444203e-14
2.34070535e+01 6.96683904e-13 2.11491639e-14 0.00000000e+00 6.75534740e-13 0.00000000e+00 2.11491639e-14
2.41904183e+01 6.65950035e-13 1.91603445e-14 0.00000000e+00 6.46789690e-13 0.00000000e+00 1.91603445e-14
2.50000000e+01 6.37199896e-13 1.73585491e-14 0.00000000e+00 6.19841347e-13 0.00000000e+00 1.73585491e-14
2.75422870e+01 5.53300646e-13 1.29817562e-14 0.00000000e+00 5.40318890e-13 0.00000000e+00 1.29817562e-14
3.16227766e+01 4.40721027e-13 8.57696126e-15 0.00000000e+00 4.32144066e-13 0.00000000e+00 8.57696126e-15
3.63078055e+01 3.31789949e-13 5.66674211e-15 0.00000000e+00 3.26123207e-13 0.00000000e+00 5.66674211e-15
4.16869383e+01 2.34430756e-13 3.74397938e-15 0.00000000e+00 2.30686776e-13 0.00000000e+00 3.74397938e-15
4.78630092e+01 1.55069633e-13 2.47362265e-15 0.00000000e+00 1.52596010e-13 0.00000000e+00 2.47362265e-15
5.49540874e+01 9.69147208e-14 1.63430628e-15 0.00000000e+00 9.52804145e-14 0.00000000e+00 1.63430628e-15
6.30957344e+01 5.81342778e-14 1.07977545e-15 0.00000000e+00 5.70545024e-14 0.00000000e+00 1.07977545e-15
7.24435960e+01 3.37185684e-14 7.13400564e-16 0.00000000e+00 3.30051678e-14 0.00000000e+00 7.13400564e-16
8.31763771e+01 1.90930112e-14 4.71339078e-16 0.00000000e+00 1.86216721e-14 0.00000000e+00 4.71339078e-16
9.54992586e+01 1.06375062e-14 3.11410641e-16 0.00000000e+00 1.03260956e-14 0.00000000e+00 3.11410641e-16
1.09647820e+02 5.85765878e-15 2.05746970e-16 0.00000000e+00 5.65191181e-15 0.00000000e+00 2.05746970e-16
1.25892541e+02 3.23429651e-15 1.35935675e-16 0.00000000e+00 3.09836083e-15 0.00000000e+00 1.35935675e-16
1.44543977e+02 1.78097452e-15 8.98118099e-17 0.00000000e+00 1.69116271e-15 0.00000000e+00 8.98118099e-17
1.65958691e+02 9.38969143e-16 5.93380743e-17 0.00000000e+00 8.79631069e-16 0.00000000e+00 5.93380743e-17
1.90546072e+02 4.97624283e-16 3.92042769e-17 0.00000000e+00 4.58420006e-16 0.00000000e+00 3.92042769e-17
2.18776162e+02 2.64584593e-16 2.59020089e-17 0.00000000e+00 2.38682584e-16 0.00000000e+00 2.59020089e-17
2.51188643e+02 1.41034652e-16 1.71132876e-17 0.00000000e+00 1.23921364e-16 0.00000000e+00 1.71132876e-17
2.88403150e+02 7.53700086e-17 1.13066370e-17 0.00000000e+00 6.40633716e-17 0.00000000e+00 1.13066370e-17
3.31131121e+02 4.05097006e-17 7.47022097e-18 0.00000000e+00 3.30394796e-17 0.00000000e+00 7.47022097e-18
3.80189396e+02 2.19132226e-17 4.93552605e-18 0.00000000e+00 1.69776966e-17 0.00000000e+00 4.93552605e-18
4.36515832e+02 1.19650430e-17 3.26086972e-18 0.00000000e+00 8.70417325e-18 0.00000000e+00 3.26086972e-18
5.01187234e+02 6.60535439e-18 2.15443526e-18 0.00000000e+00 4.45091913e-18 0.00000000e+00 2.15443526e-18
5.75439937e+02 3.69455341e-18 1.42342126e-18 0.00000000e+00 2.27113215e-18 0.00000000e+00 1.42342126e-18
6.60693448e+02 2.09716016e-18 9.40445101e-19 0.00000000e+00 1.15671506e-18 0.00000000e+00 9.40445101e-19
7.58577575e+02 1.20952242e-18 6.21345916e-19 0.00000000e+00 5.88176507e-19 0.00000000e+00 6.21345916e-19
8.70963590e+02 7.09098599e-19 4.10519176e-19 0.00000000e+00 2.98579423e-19 0.00000000e+00 4.10519176e-19
1.00000000e+03 1.51329964e-19 0.00000000e+00 0.00000000e+00 1.51329964e-19 0.00000000e+00 0.00000000e+00
