# column 1: lambda (micron)
# column 2: total flux; lambda*F_lambda (W/m2)
# column 3: direct stellar flux; lambda*F_lambda (W/m2)
# column 4: scattered stellar flux; lambda*F_lambda (W/m2)
# column 5: total dust emission flux; lambda*F_lambda (W/m2)
# column 6: dust emission scattered flux; lambda*F_lambda (W/m2)
# column 7: transparent flux; lambda*F_lambda (W/m2)
1.00000000e-03 8.46532671e-13 8.46524155e-13 8.51550589e-18 0.00000000e+00 0.00000000e+00 8.46529401e-13
1.14815362e-03 9.99181759e-13 9.99167941e-13 1.38181994e-17 0.00000000e+00 0.00000000e+00 9.99176121e-13
1.31825674e-03 1.17935576e-12 1.17933592e-12 1.98423378e-17 0.00000000e+00 0.00000000e+00 1.17934819e-12
1.51356125e-03 1.39202199e-12 1.39199193e-12 3.00581695e-17 0.00000000e+00 0.00000000e+00 1.39200901e-12
1.73780083e-03 1.64305120e-12 1.64299659e-12 5.46134106e-17 0.00000000e+00 0.00000000e+00 1.64301696e-12
1.99526231e-03 1.93934919e-12 1.93925494e-12 9.42471013e-17 0.00000000e+00 0.00000000e+00 1.93928682e-12
2.29086765e-03 2.28908910e-12 2.28894036e-12 1.48740577e-16 0.00000000e+00 0.00000000e+00 2.28898025e-12
2.63026799e-03 2.70198005e-12 2.70167419e-12 3.05857126e-16 0.00000000e+00 0.00000000e+00 2.70173063e-12
3.01995172e-03 3.18932363e-12 3.18882603e-12 4.97596231e-16 0.00000000e+00 0.00000000e+00 3.18890841e-12
3.46736850e-03 3.76464891e-12 3.76381979e-12 8.29117924e-16 0.00000000e+00 0.00000000e+00 3.76393440e-12
3.98107171e-03 4.44382414e-12 4.44249460e-12 1.32953715e-15 0.00000000e+00 0.00000000e+00 4.44264945e-12
4.57088190e-03 5.24663042e-12 5.24362891e-12 3.00151912e-15 0.00000000e+00 0.00000000e+00 5.24375082e-12
5.24807460e-03 6.19610968e-12 6.18912351e-12 6.98616692e-15 0.00000000e+00 0.00000000e+00 6.18930730e-12
6.02559586e-03 7.31436352e-12 7.30510556e-12 9.25795907e-15 0.00000000e+00 0.00000000e+00 7.30536713e-12
6.91830971e-03 8.66681203e-12 8.62231925e-12 4.44927731e-14 0.00000000e+00 0.00000000e+00 8.62267558e-12
7.94328235e-03 1.02014228e-11 1.01770527e-11 2.43701322e-14 0.00000000e+00 0.00000000e+00 1.01775219e-11
9.12010839e-03 1.20532944e-11 1.20121246e-11 4.11698208e-14 0.00000000e+00 0.00000000e+00 1.20127391e-11
1.04712855e-02 1.34806260e-11 1.34158576e-11 6.47683948e-14 0.00000000e+00 0.00000000e+00 1.34165878e-11
1.20226443e-02 1.35082214e-11 1.34158145e-11 9.24069398e-14 4.55909604e-310 4.17302161e-312 1.34165878e-11
1.38038426e-02 1.35361775e-11 1.34157634e-11 1.20414059e-13 7.86846836e-271 1.37672966e-272 1.34165878e-11
1.58489319e-02 1.35768588e-11 1.34157006e-11 1.61158190e-13 1.11335851e-236 2.46353129e-238 1.34165878e-11
1.81970086e-02 1.36418634e-11 1.34156426e-11 2.26220792e-13 5.83571846e-207 1.47587271e-208 1.34165878e-11
2.08929613e-02 1.37053983e-11 1.34155945e-11 2.89803828e-13 3.99649420e-181 1.16605453e-182 1.34165878e-11
2.39883292e-02 1.37679741e-11 1.34155321e-11 3.52441986e-13 1.23273484e-158 4.88151538e-160 1.34165878e-11
2.75422870e-02 1.38141641e-11 1.34154595e-11 3.98704545e-13 4.55259730e-139 1.98866430e-140 1.34165878e-11
3.16227766e-02 1.38277362e-11 1.34153884e-11 4.12347847e-13 4.71290213e-122 2.45228280e-123 1.34165878e-11
3.63078055e-02 1.38535387e-11 1.34153326e-11 4.38206093e-13 2.88686278e-107 1.62522209e-108 1.34165878e-11
4.16869383e-02 1.38993776e-11 1.34152843e-11 4.84093286e-13 2.05355776e-94 1.42122678e-95 1.34165878e-11
4.78630092e-02 1.38790702e-11 1.34151513e-11 4.63918960e-13 2.98596630e-83 2.47131597e-84 1.34165878e-11
5.49540874e-02 1.38518505e-11 1.34149663e-11 4.36884242e-13 1.45769621e-73 1.33581970e-74 1.34165878e-11
6.30957344e-02 1.37825817e-11 1.34145024e-11 3.68079349e-13 4.94246666e-65 4.95470164e-66 1.34165878e-11
7.24435960e-02 1.37077756e-11 1.34139529e-11 2.93822710e-13 1.21760097e-57 1.15899516e-58 1.34165878e-11
8.31763771e-02 1.36940967e-11 1.34140018e-11 2.80094948e-13 2.44021316e-51 2.25547788e-52 1.34165878e-11
9.54992586e-02 1.37042085e-11 1.34141452e-11 2.90063289e-13 6.98348345e-46 6.90596027e-47 1.34165878e-11
1.09647820e-01 1.31461162e-11 1.28108090e-11 3.35307195e-13 3.46564388e-41 3.80503001e-42 1.28127470e-11
1.25892541e-01 1.23140571e-11 1.19560624e-11 3.57994614e-13 4.25449663e-37 4.96197101e-38 1.19575512e-11
1.44543977e-01 1.15016666e-11 1.11582845e-11 3.43382101e-13 1.59395861e-33 2.04873520e-34 1.11594361e-11
1.65958691e-01 1.07709050e-11 1.04136518e-11 3.57253195e-13 1.73343976e-30 2.71122869e-31 1.04145917e-11
1.90546072e-01 1.00839760e-11 9.71852669e-12 3.65449306e-13 6.08977548e-28 1.19556160e-28 9.71946251e-12
2.18776162e-01 9.37317201e-12 9.06970572e-12 3.03466287e-13 9.09543887e-26 1.98249865e-26 9.07073019e-12
2.51188643e-01 8.84093203e-12 8.46453333e-12 3.76398704e-13 1.23218567e-23 3.41807113e-24 8.46529796e-12
2.88403150e-01 8.26839534e-12 7.89968327e-12 3.68712064e-13 8.84155894e-22 2.57630294e-22 7.90027573e-12
3.31131121e-01 7.72030349e-12 7.37248431e-12 3.47819147e-13 3.53675563e-20 1.07103135e-20 7.37296631e-12
3.80189396e-01 7.20970020e-12 6.88045750e-12 3.29241844e-13 8.59389619e-19 2.70674561e-19 6.88085251e-12
4.36515832e-01 6.73469802e-12 6.42126436e-12 3.13420366e-13 1.32947119e-17 4.32937483e-18 6.42158520e-12
5.01187234e-01 6.28490858e-12 5.99271494e-12 2.92054722e-13 1.38924274e-16 4.62762822e-17 5.99297201e-12
5.75439937e-01 5.86837573e-12 5.59276305e-12 2.74570914e-13 1.04176453e-15 3.51729444e-16 5.59296690e-12
6.60693448e-01 5.48286419e-12 5.21950016e-12 2.57664964e-13 5.69906235e-15 1.92942200e-15 5.21966041e-12
7.58577575e-01 5.13123978e-12 4.87114608e-12 2.35701712e-13 2.43919816e-14 8.13964935e-15 4.87127053e-12
8.70963590e-01 4.83937877e-12 4.54603967e-12 2.09735900e-13 8.36032015e-14 2.64932354e-14 4.54613417e-12
1.00000000e+00 4.66171929e-12 4.24262867e-12 1.82208901e-13 2.36881722e-13 7.16078177e-14 4.24269927e-12
1.14815362e+00 4.69357944e-12 3.95946553e-12 1.55468827e-13 5.78645087e-13 1.59455263e-13 3.95951734e-12
1.31825674e+00 5.05862080e-12 3.69519923e-12 1.26677725e-13 1.23674385e-12 2.98781870e-13 3.69523659e-12
1.51356125e+00 5.85812019e-12 3.44856877e-12 1.02373397e-13 2.30717802e-12 4.78392295e-13 3.44859544e-12
1.73780083e+00 7.09417416e-12 3.21839780e-12 8.12127570e-14 3.79456360e-12 6.60680421e-13 3.21841652e-12
1.99526231e+00 8.65024568e-12 3.00358812e-12 6.31647318e-14 5.58349283e-12 7.87812035e-13 3.00360106e-12
2.29086765e+00 1.02438553e-11 2.80311469e-12 4.79874612e-14 7.39275318e-12 8.25153573e-13 2.80312361e-12
2.63026799e+00 1.15779503e-11 2.61602096e-12 3.62934274e-14 8.92563595e-12 7.60644187e-13 2.61602716e-12
3.01995172e+00 1.25738951e-11 2.44141423e-12 2.65113500e-14 1.01059695e-11 6.50531530e-13 2.44141860e-12
3.46736850e+00 1.29963700e-11 2.27846128e-12 1.89625869e-14 1.06989461e-11 5.14802963e-13 2.27846441e-12
3.98107171e+00 1.29523630e-11 2.12638444e-12 1.31546494e-14 1.08128239e-11 3.77601800e-13 2.12638671e-12
4.57088190e+00 1.25132305e-11 1.98445787e-12 8.86670302e-15 1.05199059e-11 2.56875628e-13 1.98445954e-12
5.24807460e+00 1.16841915e-11 1.64084277e-12 5.00820079e-15 1.00383405e-11 1.63336585e-13 1.64084388e-12
6.02559586e+00 1.04714579e-11 1.08409419e-12 2.15370260e-15 9.38521001e-12 9.70349736e-14 1.08409480e-12
6.70000000e+00 9.65674604e-12 7.88574333e-13 1.09448172e-15 8.86707722e-12 6.20901962e-14 7.88574724e-13
6.92422916e+00 9.41242125e-12 7.14418602e-13 8.79792826e-16 8.69712285e-12 5.36922297e-14 7.14418944e-13
7.15596261e+00 9.22823003e-12 6.47236301e-13 6.95767976e-16 8.58029797e-12 4.61342104e-14 6.47236606e-13
7.39545150e+00 9.17935193e-12 5.86371660e-13 5.33355498e-16 8.59244691e-12 3.94387365e-14 5.86371942e-13
7.64295536e+00 9.53885555e-12 5.31230562e-13 3.77961286e-16 9.00724702e-12 3.32542005e-14 5.31230854e-13
7.89874245e+00 1.03704621e-11 4.81274767e-13 2.36799400e-16 9.88895049e-12 2.71933125e-14 4.81275108e-13
8.16308998e+00 1.14422025e-11 4.36016670e-13 1.39296019e-16 1.10060465e-11 2.17316257e-14 4.36017088e-13
8.43628443e+00 1.26194503e-11 3.95014503e-13 7.74411490e-17 1.22243583e-11 1.68441645e-14 3.95015029e-13
8.71862190e+00 1.33405496e-11 3.57868126e-13 5.06896652e-17 1.29826307e-11 1.36860028e-14 3.57868711e-13
9.01040836e+00 1.38137012e-11 3.24214906e-13 3.36661861e-17 1.34894526e-11 1.13718146e-14 3.24215549e-13
9.31196005e+00 1.39705729e-11 2.93726378e-13 2.46409692e-17 1.36768219e-11 9.90390749e-15 2.93727053e-13
9.62360379e+00 1.38819061e-11 2.66104999e-13 2.06329369e-17 1.36157804e-11 9.21040982e-15 2.66105627e-13
9.94567731e+00 1.33145330e-11 2.41081123e-13 1.85921135e-17 1.30734333e-11 8.68242352e-15 2.41081657e-13
1.02785297e+01 1.26585748e-11 2.18410447e-13 1.71780177e-17 1.24401472e-11 8.23686768e-15 2.18410884e-13
1.06225216e+01 1.20472210e-11 1.97871665e-13 1.62613481e-17 1.18493331e-11 7.85708234e-15 1.97872020e-13
1.09780260e+01 1.13821243e-11 1.79264306e-13 1.53863271e-17 1.12028446e-11 7.38094856e-15 1.79264583e-13
1.13454280e+01 1.07939552e-11 1.62406731e-13 1.44520810e-17 1.06315340e-11 6.87124760e-15 1.62406948e-13
1.17251259e+01 1.02546795e-11 1.47134395e-13 1.34686382e-17 1.01075316e-11 6.34357773e-15 1.47134567e-13
1.21175312e+01 9.71541952e-12 1.33298231e-13 1.24331860e-17 9.58210886e-12 5.74644214e-15 1.33298366e-13
1.25230691e+01 9.21566291e-12 1.20763184e-13 1.13068103e-17 9.09488842e-12 5.15625526e-15 1.20763289e-13
1.29421791e+01 8.75444344e-12 1.09406900e-13 1.01383902e-17 8.64502641e-12 4.53186822e-15 1.09406983e-13
1.33753155e+01 8.33359405e-12 9.91185324e-14 8.77625411e-18 8.23446675e-12 3.92321586e-15 9.91185987e-14
1.38229477e+01 8.05327144e-12 8.97976552e-14 7.30927515e-18 7.96346647e-12 3.31528850e-15 8.97977103e-14
1.42855609e+01 7.90374550e-12 8.13532892e-14 5.78026228e-18 7.82238643e-12 2.80753356e-15 8.13533371e-14
1.47636563e+01 8.04398091e-12 7.37030082e-14 4.32023670e-18 7.97027358e-12 2.37142897e-15 7.37030537e-14
1.52577522e+01 8.26679938e-12 6.67721416e-14 3.18891104e-18 8.20002405e-12 2.02237057e-15 6.67721855e-14
1.57683840e+01 8.50932126e-12 6.04930376e-14 2.35155631e-18 8.44882587e-12 1.73792399e-15 6.04930805e-14
1.62961051e+01 8.79376681e-12 5.48044064e-14 1.76952011e-18 8.73896063e-12 1.48910792e-15 5.48044484e-14
1.68414875e+01 9.07652711e-12 4.96507213e-14 1.31981616e-18 9.02687506e-12 1.27778341e-15 4.96507622e-14
1.74051222e+01 9.25385305e-12 4.49816782e-14 1.02974579e-18 9.20887034e-12 1.11391325e-15 4.49817171e-14
1.79876201e+01 9.38358103e-12 4.07517020e-14 8.11648655e-19 9.34282851e-12 9.64589838e-16 4.07517384e-14
1.85896125e+01 9.42914342e-12 3.69195044e-14 6.59226885e-19 9.39222326e-12 8.34720016e-16 3.69195372e-14
1.92117518e+01 9.37729559e-12 3.34476788e-14 5.45379534e-19 9.34384737e-12 7.06703598e-16 3.34477076e-14
1.98547123e+01 9.28206957e-12 3.03023362e-14 4.48845190e-19 9.25176678e-12 5.81937807e-16 3.03023610e-14
2.05191907e+01 9.09220115e-12 2.74527745e-14 3.54348243e-19 9.06474802e-12 4.56547831e-16 2.74527957e-14
2.12059073e+01 8.89785180e-12 2.48711789e-14 2.63015229e-19 8.87298036e-12 3.27458385e-16 2.48711970e-14
2.19156062e+01 8.70191716e-12 2.25323505e-14 1.78318599e-19 8.67938463e-12 2.13724075e-16 2.25323660e-14
2.26490567e+01 8.53189060e-12 2.04134601e-14 9.70646169e-20 8.51147704e-12 1.19021041e-16 2.04134733e-14
2.34070535e+01 8.31045266e-12 1.84938252e-14 3.55085514e-20 8.29195880e-12 4.62986927e-17 1.84938366e-14
2.41904183e+01 8.08686891e-12 1.67547083e-14 3.47430589e-21 8.07011420e-12 8.68185480e-18 1.67547181e-14
2.50000000e+01 7.88694361e-12 1.51791339e-14 0.00000000e+00 7.87176448e-12 0.00000000e+00 1.51791424e-14
2.75422870e+01 7.15515508e-12 1.13518606e-14 0.00000000e+00 7.14380321e-12 0.00000000e+00 1.13518661e-14
3.16227766e+01 5.98100137e-12 7.50010053e-15 0.00000000e+00 5.97350127e-12 0.00000000e+00 7.50010357e-15
3.63078055e+01 4.67832723e-12 4.95526763e-15 0.00000000e+00 4.67337196e-12 0.00000000e+00 4.95526929e-15
4.16869383e+01 3.39603178e-12 3.27391307e-15 0.00000000e+00 3.39275787e-12 0.00000000e+00 3.27391395e-15
4.78630092e+01 2.29194731e-12 2.16305304e-15 0.00000000e+00 2.28978425e-12 0.00000000e+00 2.16305350e-15
5.49540874e+01 1.45561379e-12 1.42911504e-15 0.00000000e+00 1.45418468e-12 0.00000000e+00 1.42911527e-15
6.30957344e+01 8.82263197e-13 9.44206983e-16 0.00000000e+00 8.81318990e-13 0.00000000e+00 9.44207098e-16
7.24435960e+01 5.14603452e-13 6.23831386e-16 0.00000000e+00 5.13979621e-13 0.00000000e+00 6.23831443e-16
8.31763771e+01 2.92254722e-13 4.12161319e-16 0.00000000e+00 2.91842561e-13 0.00000000e+00 4.12161347e-16
9.54992586e+01 1.62748498e-13 2.72312288e-16 0.00000000e+00 1.62476186e-13 0.00000000e+00 2.72312302e-16
1.09647820e+02 8.93778548e-14 1.79914947e-16 0.00000000e+00 8.91979399e-14 0.00000000e+00 1.79914953e-16
1.25892541e+02 4.91119461e-14 1.18868627e-16 0.00000000e+00 4.89930775e-14 0.00000000e+00 1.18868631e-16
1.44543977e+02 2.68536666e-14 7.85357239e-17 0.00000000e+00 2.67751309e-14 0.00000000e+00 7.85357256e-17
1.65958691e+02 1.39992455e-14 5.18880385e-17 0.00000000e+00 1.39473574e-14 0.00000000e+00 5.18880394e-17
1.90546072e+02 7.31003304e-15 3.42820872e-17 0.00000000e+00 7.27575095e-15 0.00000000e+00 3.42820876e-17
2.18776162e+02 3.81373416e-15 2.26499505e-17 0.00000000e+00 3.79108421e-15 0.00000000e+00 2.26499507e-17
2.51188643e+02 1.98420239e-15 1.49646739e-17 0.00000000e+00 1.96923772e-15 0.00000000e+00 1.49646740e-17
2.88403150e+02 1.02830088e-15 9.88706202e-18 0.00000000e+00 1.01841382e-15 0.00000000e+00 9.88706207e-18
3.31131121e+02 5.31902264e-16 6.53231711e-18 0.00000000e+00 5.25369947e-16 0.00000000e+00 6.53231713e-18
3.80189396e+02 2.74346028e-16 4.31585912e-18 0.00000000e+00 2.70030169e-16 0.00000000e+00 4.31585913e-18
4.36515832e+02 1.41314662e-16 2.85145984e-18 0.00000000e+00 1.38463202e-16 0.00000000e+00 2.85145985e-18
5.01187234e+02 7.26959948e-17 1.88394084e-18 0.00000000e+00 7.08120539e-17 0.00000000e+00 1.88394084e-18
5.75439937e+02 3.73806372e-17 1.24470737e-18 0.00000000e+00 3.61359299e-17 0.00000000e+00 1.24470737e-18
6.60693448e+02 1.92282771e-17 8.22370003e-19 0.00000000e+00 1.84059071e-17 0.00000000e+00 8.22370004e-19
7.58577575e+02 9.90292934e-18 5.43334473e-19 0.00000000e+00 9.35959487e-18 0.00000000e+00 5.43334473e-19
8.70963590e+02 5.11041131e-18 3.58977526e-19 0.00000000e+00 4.75143378e-18 0.00000000e+00 3.58977527e-19
1.00000000e+03 2.40825235e-18 0.00000000e+00 0.00000000e+00 2.40825235e-18 0.00000000e+00 0.00000000e+00
