# column 1: lambda (micron)
# column 2: total flux; lambda*F_lambda (W/m2)
# column 3: direct stellar flux; lambda*F_lambda (W/m2)
# column 4: scattered stellar flux; lambda*F_lambda (W/m2)
# column 5: total dust emission flux; lambda*F_lambda (W/m2)
# column 6: dust emission scattered flux; lambda*F_lambda (W/m2)
# column 7: transparent flux; lambda*F_lambda (W/m2)
1.00000000e-03 9.68073517e-13 9.68073281e-13 2.35588221e-19 0.00000000e+00 0.00000000e+00 9.68073281e-13
1.14815362e-03 1.14263724e-12 1.14263687e-12 3.66318393e-19 0.00000000e+00 0.00000000e+00 1.14263687e-12
1.31825674e-03 1.34867844e-12 1.34867788e-12 5.65474591e-19 0.00000000e+00 0.00000000e+00 1.34867788e-12
1.51356125e-03 1.59187319e-12 1.59187233e-12 8.58039867e-19 0.00000000e+00 0.00000000e+00 1.59187233e-12
1.73780083e-03 1.87892135e-12 1.87891976e-12 1.59526747e-18 0.00000000e+00 0.00000000e+00 1.87891976e-12
1.99526231e-03 2.21773059e-12 2.21772777e-12 2.82038418e-18 0.00000000e+00 0.00000000e+00 2.21772777e-12
2.29086765e-03 2.61763404e-12 2.61762985e-12 4.19595378e-18 0.00000000e+00 0.00000000e+00 2.61762985e-12
2.63026799e-03 3.08965118e-12 3.08964252e-12 8.65265639e-18 0.00000000e+00 0.00000000e+00 3.08964252e-12
3.01995172e-03 3.64678329e-12 3.64676883e-12 1.44604719e-17 0.00000000e+00 0.00000000e+00 3.64676883e-12
3.46736850e-03 4.30438138e-12 4.30435650e-12 2.48769374e-17 0.00000000e+00 0.00000000e+00 4.30435650e-12
3.98107171e-03 5.08055975e-12 5.08052080e-12 3.89490292e-17 0.00000000e+00 0.00000000e+00 5.08052080e-12
4.57088190e-03 5.99672781e-12 5.99664354e-12 8.42713808e-17 0.00000000e+00 0.00000000e+00 5.99664354e-12
5.24807460e-03 7.07811799e-12 7.07796211e-12 1.55878610e-16 0.00000000e+00 0.00000000e+00 7.07796211e-12
6.02559586e-03 8.35454572e-12 8.35426474e-12 2.80979075e-16 0.00000000e+00 0.00000000e+00 8.35426474e-12
6.91830971e-03 9.86114332e-12 9.86071107e-12 4.32252608e-16 0.00000000e+00 0.00000000e+00 9.86071107e-12
7.94328235e-03 1.16395319e-11 1.16388008e-11 7.31161733e-16 1.06308708e-303 3.21097573e-306 1.16388008e-11
9.12010839e-03 1.37388352e-11 1.37375167e-11 1.31853687e-15 5.03160276e-265 1.47923190e-267 1.37375167e-11
1.04712855e-02 1.53445576e-11 1.53429287e-11 1.62893803e-15 2.27570648e-231 8.96992159e-234 1.53429287e-11
1.20226443e-02 1.53485059e-11 1.53429287e-11 5.57726375e-15 3.83551471e-202 7.40936864e-204 1.53429287e-11
1.38038426e-02 1.53473366e-11 1.53429287e-11 4.40788554e-15 1.08252076e-176 5.08414930e-179 1.53429287e-11
1.58489319e-02 1.53477076e-11 1.53429287e-11 4.77898352e-15 1.53106051e-154 9.07203681e-157 1.53429287e-11
1.81970086e-02 1.53497993e-11 1.53429287e-11 6.87060643e-15 2.84104889e-135 2.23625671e-137 1.53429287e-11
2.08929613e-02 1.53529214e-11 1.53429287e-11 9.99276575e-15 1.53690091e-118 1.64491706e-120 1.53429287e-11
2.39883292e-02 1.53561669e-11 1.53429287e-11 1.32381988e-14 5.55357013e-104 7.06867669e-106 1.53429287e-11
2.75422870e-02 1.53630154e-11 1.53429287e-11 2.00867506e-14 2.55568498e-91 4.38491462e-93 1.53429287e-11
3.16227766e-02 1.53649789e-11 1.53429287e-11 2.20502157e-14 2.55190584e-80 5.38982536e-82 1.53429287e-11
3.63078055e-02 1.53698144e-11 1.53429287e-11 2.68856921e-14 9.03331924e-71 2.20283241e-72 1.53429287e-11
4.16869383e-02 1.53821747e-11 1.53429287e-11 3.92460615e-14 1.75483832e-62 5.88004849e-64 1.53429287e-11
4.78630092e-02 1.53955310e-11 1.53429287e-11 5.26023078e-14 2.70634105e-55 1.21841919e-56 1.53429287e-11
5.49540874e-02 1.54102609e-11 1.53429287e-11 6.73322576e-14 4.58207995e-49 2.56020611e-50 1.53429287e-11
6.30957344e-02 1.54282078e-11 1.53429287e-11 8.52791469e-14 1.50635586e-43 1.01715496e-44 1.53429287e-11
7.24435960e-02 1.54266183e-11 1.53429287e-11 8.36895923e-14 8.79694354e-39 5.73079936e-40 1.53429287e-11
8.31763771e-02 1.54264914e-11 1.53429287e-11 8.35627116e-14 9.08252971e-35 5.87446141e-36 1.53429287e-11
9.54992586e-02 1.54311018e-11 1.53429287e-11 8.81731245e-14 2.58130431e-31 1.74621189e-32 1.53429287e-11
1.09647820e-01 1.47428610e-11 1.46523889e-11 9.04720949e-14 2.20693763e-28 1.60091361e-29 1.46523889e-11
1.25892541e-01 1.37513201e-11 1.36744049e-11 7.69151981e-14 7.16728508e-26 4.94603568e-27 1.36744049e-11
1.44543977e-01 1.28328588e-11 1.27616972e-11 7.11615424e-14 9.78152975e-24 6.41517154e-25 1.27616972e-11
1.65958691e-01 1.19847139e-11 1.19099088e-11 7.48050550e-14 4.97777030e-22 3.56368065e-23 1.19099088e-11
1.90546072e-01 1.11989072e-11 1.11149736e-11 8.39335416e-14 1.05817820e-20 9.20365981e-22 1.11149736e-11
2.18776162e-01 1.04614382e-11 1.03730969e-11 8.83410961e-14 1.26085578e-19 1.17103785e-20 1.03730969e-11
2.51188643e-01 9.78378249e-12 9.68073733e-12 1.03043618e-13 1.53883993e-18 1.71283908e-19 9.68073733e-12
2.88403150e-01 9.12675753e-12 9.03458975e-12 9.21549849e-14 1.27981111e-17 1.37829281e-18 9.03458975e-12
3.31131121e-01 8.51423488e-12 8.43156974e-12 8.25918634e-14 7.32789874e-17 7.56358865e-18 8.43156974e-12
3.80189396e-01 7.94355117e-12 7.86879872e-12 7.44475450e-14 3.04900959e-16 3.00988153e-17 7.86879872e-12
4.36515832e-01 7.41342035e-12 7.34359025e-12 6.88658865e-14 9.64213780e-16 9.26798787e-17 7.34359025e-12
5.01187234e-01 6.92126059e-12 6.85343719e-12 6.54122472e-14 2.41115338e-15 2.28968630e-16 6.85343719e-12
5.75439937e-01 6.46082382e-12 6.39599973e-12 5.98316832e-14 4.99240794e-15 4.68844017e-16 6.39599973e-12
6.60693448e-01 6.03286814e-12 5.96909425e-12 5.47884502e-14 8.98543610e-15 8.56717589e-16 5.96909425e-12
7.58577575e-01 5.63620190e-12 5.57068288e-12 5.05766571e-14 1.49423534e-14 1.44851214e-15 5.57068288e-12
8.70963590e-01 5.26850797e-12 5.19886376e-12 4.52488781e-14 2.43953293e-14 2.45938855e-15 5.19886376e-12
1.00000000e+00 4.93322238e-12 4.85186196e-12 4.07252625e-14 4.06351517e-14 4.26838456e-15 4.85186196e-12
1.14815362e+00 4.63439444e-12 4.52802104e-12 3.49119032e-14 7.14614894e-14 7.53765898e-15 4.52802104e-12
1.31825674e+00 4.38253517e-12 4.22579511e-12 2.80665384e-14 1.28673520e-13 1.30980534e-14 4.22579511e-12
1.51356125e+00 4.19100776e-12 3.94374146e-12 2.22117824e-14 2.25054510e-13 2.10526542e-14 3.94374146e-12
1.73780083e+00 4.06368115e-12 3.68051368e-12 1.71353615e-14 3.66032103e-13 2.97807865e-14 3.68051368e-12
1.99526231e+00 3.99062059e-12 3.43485522e-12 1.26428304e-14 5.43122536e-13 3.70027934e-14 3.43485522e-12
2.29086765e+00 3.94889099e-12 3.20559341e-12 9.25245494e-15 7.34045127e-13 4.03893076e-14 3.20559341e-12
2.63026799e+00 3.90985585e-12 2.99163384e-12 6.54237489e-15 9.11679643e-13 3.93374345e-14 2.99163384e-12
3.01995172e+00 3.84892462e-12 2.79195514e-12 4.66367134e-15 1.05230580e-12 3.42823916e-14 2.79195514e-12
3.46736850e+00 3.75376396e-12 2.60560415e-12 3.15173545e-15 1.14500808e-12 2.80307517e-14 2.60560415e-12
3.98107171e+00 3.60783618e-12 2.43169128e-12 2.07508488e-15 1.17406982e-12 2.07723298e-14 2.43169128e-12
4.57088190e+00 3.42776419e-12 2.26938634e-12 1.33083155e-15 1.15704702e-12 1.44182023e-14 2.26938634e-12
5.24807460e+00 2.97926743e-12 1.87643467e-12 7.37317883e-16 1.10209545e-12 9.33417992e-15 1.87643467e-12
6.02559586e+00 2.27060964e-12 1.23974809e-12 3.20459140e-16 1.03054109e-12 5.64190059e-15 1.23974809e-12
6.70000000e+00 1.86698377e-12 9.01797527e-13 1.58339877e-16 9.65027900e-13 3.66026281e-15 9.01797527e-13
6.92422916e+00 1.76070537e-12 8.16994532e-13 1.25428338e-16 9.43585410e-13 3.16092090e-15 8.16994532e-13
7.15596261e+00 1.67104117e-12 7.40166218e-13 9.88163316e-17 9.30776133e-13 2.70587919e-15 7.40166218e-13
7.39545150e+00 1.60629852e-12 6.70562664e-13 7.48900373e-17 9.35660965e-13 2.32737872e-15 6.70562664e-13
7.64295536e+00 1.60974705e-12 6.07504471e-13 5.49336901e-17 1.00218765e-12 1.98045793e-15 6.07504471e-13
7.89874245e+00 1.70723445e-12 5.50376127e-13 3.48760917e-17 1.15682344e-12 1.65110388e-15 5.50376127e-13
8.16308998e+00 1.88102787e-12 4.98620004e-13 2.09865502e-17 1.38238688e-12 1.35639893e-15 4.98620004e-13
8.43628443e+00 2.13210650e-12 4.51730909e-13 1.20161672e-17 1.68036358e-12 1.07771493e-15 4.51730909e-13
8.71862190e+00 2.30518120e-12 4.09251158e-13 7.66080473e-18 1.89592239e-12 8.45874074e-16 4.09251158e-13
9.01040836e+00 2.47761573e-12 3.70766106e-13 4.76586655e-18 2.10684486e-12 6.27611146e-16 3.70766106e-13
9.31196005e+00 2.60323879e-12 3.35900102e-13 0.00000000e+00 2.26733869e-12 0.00000000e+00 3.35900102e-13
9.62360379e+00 2.56754443e-12 3.04312818e-13 0.00000000e+00 2.26323161e-12 0.00000000e+00 3.04312818e-13
9.94567731e+00 2.39912751e-12 2.75695930e-13 0.00000000e+00 2.12343158e-12 0.00000000e+00 2.75695930e-13
1.02785297e+01 2.19622408e-12 2.49770110e-13 0.00000000e+00 1.94645397e-12 0.00000000e+00 2.49770110e-13
1.06225216e+01 2.00926684e-12 2.26282295e-13 0.00000000e+00 1.78298454e-12 0.00000000e+00 2.26282295e-13
1.09780260e+01 1.80211654e-12 2.05003220e-13 0.00000000e+00 1.59711332e-12 0.00000000e+00 2.05003220e-13
1.13454280e+01 1.61977177e-12 1.85725182e-13 0.00000000e+00 1.43404659e-12 0.00000000e+00 1.85725182e-13
1.17251259e+01 1.46306353e-12 1.68260007e-13 0.00000000e+00 1.29480353e-12 0.00000000e+00 1.68260007e-13
1.21175312e+01 1.32372245e-12 1.52437217e-13 0.00000000e+00 1.17128524e-12 0.00000000e+00 1.52437217e-13
1.25230691e+01 1.19376891e-12 1.38102367e-13 0.00000000e+00 1.05566654e-12 0.00000000e+00 1.38102367e-13
1.29421791e+01 1.08516318e-12 1.25115533e-13 0.00000000e+00 9.60047642e-13 0.00000000e+00 1.25115533e-13
1.33753155e+01 9.89810173e-13 1.13349952e-13 0.00000000e+00 8.76460221e-13 0.00000000e+00 1.13349952e-13
1.38229477e+01 9.25858802e-13 1.02690779e-13 0.00000000e+00 8.23168022e-13 0.00000000e+00 1.02690779e-13
1.42855609e+01 8.85588858e-13 9.30339713e-14 0.00000000e+00 7.92554887e-13 0.00000000e+00 9.30339713e-14
1.47636563e+01 8.91104307e-13 8.42852675e-14 0.00000000e+00 8.06819039e-13 0.00000000e+00 8.42852675e-14
1.52577522e+01 9.04852291e-13 7.63592720e-14 0.00000000e+00 8.28493019e-13 0.00000000e+00 7.63592720e-14
1.57683840e+01 9.25043021e-13 6.91786191e-14 0.00000000e+00 8.55864402e-13 0.00000000e+00 6.91786191e-14
1.62961051e+01 9.48752126e-13 6.26732185e-14 0.00000000e+00 8.86078907e-13 0.00000000e+00 6.26732185e-14
1.68414875e+01 9.71089446e-13 5.67795711e-14 0.00000000e+00 9.14309875e-13 0.00000000e+00 5.67795711e-14
1.74051222e+01 9.81124139e-13 5.14401489e-14 0.00000000e+00 9.29683990e-13 0.00000000e+00 5.14401489e-14
1.79876201e+01 9.83198236e-13 4.66028339e-14 0.00000000e+00 9.36595402e-13 0.00000000e+00 4.66028339e-14
1.85896125e+01 9.68208364e-13 4.22204090e-14 0.00000000e+00 9.25987955e-13 0.00000000e+00 4.22204090e-14
1.92117518e+01 9.41839633e-13 3.82500974e-14 0.00000000e+00 9.03589536e-13 0.00000000e+00 3.82500974e-14
1.98547123e+01 9.03752948e-13 3.46531450e-14 0.00000000e+00 8.69099803e-13 0.00000000e+00 3.46531450e-14
2.05191907e+01 8.62722293e-13 3.13944418e-14 0.00000000e+00 8.31327851e-13 0.00000000e+00 3.13944418e-14
2.12059073e+01 8.23739331e-13 2.84421796e-14 0.00000000e+00 7.95297151e-13 0.00000000e+00 2.84421796e-14
2.19156062e+01 7.86738868e-13 2.57675415e-14 0.00000000e+00 7.60971327e-13 0.00000000e+00 2.57675415e-14
2.26490567e+01 7.55732678e-13 2.33444203e-14 0.00000000e+00 7.32388257e-13 0.00000000e+00 2.33444203e-14
2.34070535e+01 7.23030904e-13 2.11491639e-14 0.00000000e+00 7.01881740e-13 0.00000000e+00 2.11491639e-14
2.41904183e+01 6.92885921e-13 1.91603445e-14 0.00000000e+00 6.73725577e-13 0.00000000e+00 1.91603445e-14
2.50000000e+01 6.62513415e-13 1.73585491e-14 0.00000000e+00 6.45154866e-13 0.00000000e+00 1.73585491e-14
2.75422870e+01 5.77584912e-13 1.29817562e-14 0.00000000e+00 5.64603155e-13 0.00000000e+00 1.29817562e-14
3.16227766e+01 4.63257745e-13 8.57696126e-15 0.00000000e+00 4.54680784e-13 0.00000000e+00 8.57696126e-15
3.63078055e+01 3.51710433e-13 5.66674211e-15 0.00000000e+00 3.46043691e-13 0.00000000e+00 5.66674211e-15
4.16869383e+01 2.49297254e-13 3.74397938e-15 0.00000000e+00 2.45553275e-13 0.00000000e+00 3.74397938e-15
4.78630092e+01 1.65575043e-13 2.47362265e-15 0.00000000e+00 1.63101421e-13 0.00000000e+00 2.47362265e-15
5.49540874e+01 1.04050772e-13 1.63430628e-15 0.00000000e+00 1.02416466e-13 0.00000000e+00 1.63430628e-15
6.30957344e+01 6.25758971e-14 1.07977545e-15 0.00000000e+00 6.14961217e-14 0.00000000e+00 1.07977545e-15
7.24435960e+01 3.63915306e-14 7.13400564e-16 0.00000000e+00 3.56781300e-14 0.00000000e+00 7.13400564e-16
8.31763771e+01 2.06598768e-14 4.71339078e-16 0.00000000e+00 2.01885377e-14 0.00000000e+00 4.71339078e-16
9.54992586e+01 1.15271463e-14 3.11410641e-16 0.00000000e+00 1.12157357e-14 0.00000000e+00 3.11410641e-16
1.09647820e+02 6.35352817e-15 2.05746970e-16 0.00000000e+00 6.14778120e-15 0.00000000e+00 2.05746970e-16
1.25892541e+02 3.51060585e-15 1.35935675e-16 0.00000000e+00 3.37467018e-15 0.00000000e+00 1.35935675e-16
1.44543977e+02 1.93356979e-15 8.98118099e-17 0.00000000e+00 1.84375798e-15 0.00000000e+00 8.98118099e-17
1.65958691e+02 1.01933370e-15 5.93380743e-17 0.00000000e+00 9.59995630e-16 0.00000000e+00 5.93380743e-17
1.90546072e+02 5.39798758e-16 3.92042769e-17 0.00000000e+00 5.00594481e-16 0.00000000e+00 3.92042769e-17
2.18776162e+02 2.86710662e-16 2.59020089e-17 0.00000000e+00 2.60808653e-16 0.00000000e+00 2.59020089e-17
2.51188643e+02 1.52588428e-16 1.71132876e-17 0.00000000e+00 1.35475140e-16 0.00000000e+00 1.71132876e-17
2.88403150e+02 8.13717728e-17 1.13066370e-17 0.00000000e+00 7.00651359e-17 0.00000000e+00 1.13066370e-17
3.31131121e+02 4.36158091e-17 7.47022097e-18 0.00000000e+00 3.61455882e-17 0.00000000e+00 7.47022097e-18
3.80189396e+02 2.35148428e-17 4.93552605e-18 0.00000000e+00 1.85793168e-17 0.00000000e+00 4.93552605e-18
4.36515832e+02 1.27882891e-17 3.26086972e-18 0.00000000e+00 9.52741940e-18 0.00000000e+00 3.26086972e-18
5.01187234e+02 7.02721700e-18 2.15443526e-18 0.00000000e+00 4.87278173e-18 0.00000000e+00 2.15443526e-18
5.75439937e+02 3.91022494e-18 1.42342126e-18 0.00000000e+00 2.48680368e-18 0.00000000e+00 1.42342126e-18
6.60693448e+02 2.20718308e-18 9.40445101e-19 0.00000000e+00 1.26673798e-18 0.00000000e+00 9.40445101e-19
7.58577575e+02 1.26553801e-18 6.21345916e-19 0.00000000e+00 6.44192090e-19 0.00000000e+00 6.21345916e-19
8.70963590e+02 7.37565545e-19 4.10519176e-19 0.00000000e+00 3.27046370e-19 0.00000000e+00 4.10519176e-19
1.00000000e+03 1.65771522e-19 0.00000000e+00 0.00000000e+00 1.65771522e-19 0.00000000e+00 0.00000000e+00
