# column 1: lambda (micron)
# column 2: total flux; lambda*F_lambda (W/m2)
# column 3: direct stellar flux; lambda*F_lambda (W/m2)
# column 4: scattered stellar flux; lambda*F_lambda (W/m2)
# column 5: total dust emission flux; lambda*F_lambda (W/m2)
# column 6: dust emission scattered flux; lambda*F_lambda (W/m2)
# column 7: transparent flux; lambda*F_lambda (W/m2)
1.00000000e-03 3.57786607e-13 3.57785423e-13 1.18402593e-18 0.00000000e+00 0.00000000e+00 3.57785423e-13
1.14815362e-03 4.22303411e-13 4.22301518e-13 1.89301696e-18 0.00000000e+00 0.00000000e+00 4.22301518e-13
1.31825674e-03 4.98454044e-13 4.98451197e-13 2.84731669e-18 0.00000000e+00 0.00000000e+00 4.98451197e-13
1.51356125e-03 5.88337071e-13 5.88332233e-13 4.83792132e-18 0.00000000e+00 0.00000000e+00 5.88332233e-13
1.73780083e-03 6.94429509e-13 6.94420676e-13 8.83357895e-18 0.00000000e+00 0.00000000e+00 6.94420676e-13
1.99526231e-03 8.19654636e-13 8.19639053e-13 1.55828338e-17 0.00000000e+00 0.00000000e+00 8.19639053e-13
2.29086765e-03 9.67458996e-13 9.67436888e-13 2.21078927e-17 0.00000000e+00 0.00000000e+00 9.67436888e-13
2.63026799e-03 1.14193398e-12 1.14188572e-12 4.82571227e-17 0.00000000e+00 0.00000000e+00 1.14188572e-12
3.01995172e-03 1.34787263e-12 1.34779128e-12 8.13487379e-17 0.00000000e+00 0.00000000e+00 1.34779128e-12
3.46736850e-03 1.59094746e-12 1.59082586e-12 1.21597739e-16 0.00000000e+00 0.00000000e+00 1.59082586e-12
3.98107171e-03 1.87790730e-12 1.87768459e-12 2.22706074e-16 0.00000000e+00 0.00000000e+00 1.87768459e-12
4.57088190e-03 2.21678288e-12 2.21626987e-12 5.13002918e-16 0.00000000e+00 0.00000000e+00 2.21626987e-12
5.24807460e-03 2.61670949e-12 2.61590907e-12 8.00420318e-16 0.00000000e+00 0.00000000e+00 2.61590907e-12
6.02559586e-03 3.08915342e-12 3.08761145e-12 1.54197285e-15 0.00000000e+00 0.00000000e+00 3.08761145e-12
6.91830971e-03 3.64646207e-12 3.64437151e-12 2.09055522e-15 0.00000000e+00 0.00000000e+00 3.64437151e-12
7.94328235e-03 4.30532616e-12 4.30152690e-12 3.79925832e-15 8.92712631e-304 1.45835085e-304 4.30152690e-12
9.12010839e-03 5.08371894e-12 5.07718096e-12 6.53797743e-15 3.44454790e-265 2.15307669e-266 5.07718096e-12
1.04712855e-02 5.68049951e-12 5.67051724e-12 9.98226932e-15 1.40542236e-231 5.21375088e-233 5.67051724e-12
1.20226443e-02 5.69119515e-12 5.67051724e-12 2.06779125e-14 2.30037528e-202 1.95846359e-203 5.67051724e-12
1.38038426e-02 5.69270853e-12 5.67051724e-12 2.21912946e-14 6.01806340e-177 3.68651798e-178 5.67051724e-12
1.58489319e-02 5.70216907e-12 5.67051724e-12 3.16518316e-14 8.46029090e-155 8.78081518e-156 5.67051724e-12
1.81970086e-02 5.71855024e-12 5.67051724e-12 4.80329975e-14 1.46632746e-135 1.26258205e-136 5.67051724e-12
2.08929613e-02 5.72418330e-12 5.67051724e-12 5.36660652e-14 7.64431058e-119 7.12784773e-120 5.67051724e-12
2.39883292e-02 5.74465829e-12 5.67051724e-12 7.41410502e-14 2.63848524e-104 2.36411019e-105 5.67051724e-12
2.75422870e-02 5.74853146e-12 5.67051724e-12 7.80142242e-14 1.16716886e-91 1.04054237e-92 5.67051724e-12
3.16227766e-02 5.75713906e-12 5.67051724e-12 8.66218254e-14 1.11752867e-80 9.06199791e-82 5.67051724e-12
3.63078055e-02 5.76739760e-12 5.67051724e-12 9.68803641e-14 3.84805421e-71 3.18311423e-72 5.67051724e-12
4.16869383e-02 5.77766180e-12 5.67051724e-12 1.07144560e-13 7.25710419e-63 6.40467082e-64 5.67051724e-12
4.78630092e-02 5.78875179e-12 5.67051724e-12 1.18234550e-13 1.07726370e-55 9.61293412e-57 5.67051724e-12
5.49540874e-02 5.78241052e-12 5.67051724e-12 1.11893278e-13 1.74573588e-49 1.52759075e-50 5.67051724e-12
6.30957344e-02 5.77513947e-12 5.67051724e-12 1.04622228e-13 5.42256906e-44 4.56512421e-45 5.67051724e-12
7.24435960e-02 5.75860755e-12 5.67051724e-12 8.80903067e-14 3.02667106e-39 2.22193178e-40 5.67051724e-12
8.31763771e-02 5.75255659e-12 5.67051724e-12 8.20393485e-14 3.10108934e-35 2.25859124e-36 5.67051724e-12
9.54992586e-02 5.75519879e-12 5.67051724e-12 8.46815481e-14 8.83837676e-32 6.63664889e-33 5.67051724e-12
1.09647820e-01 5.51083818e-12 5.41530405e-12 9.55341316e-14 7.63484840e-29 6.16508207e-30 5.41530405e-12
1.25892541e-01 5.14427896e-12 5.05385580e-12 9.04231630e-14 2.54972251e-26 2.17682920e-27 5.05385580e-12
1.44543977e-01 4.80520475e-12 4.71653266e-12 8.86720942e-14 3.55042754e-24 2.94567473e-25 4.71653266e-12
1.65958691e-01 4.49100179e-12 4.40172439e-12 8.92774027e-14 1.84221278e-22 1.62818223e-23 4.40172439e-12
1.90546072e-01 4.19771704e-12 4.10792822e-12 8.97888222e-14 3.84915231e-21 3.80404331e-22 4.10792822e-12
2.18776162e-01 3.91411995e-12 3.83374167e-12 8.03782310e-14 4.43318483e-20 4.31580517e-21 3.83374167e-12
2.51188643e-01 3.66290827e-12 3.57785591e-12 8.50518142e-14 5.51887526e-19 6.17381085e-20 3.57785591e-12
2.88403150e-01 3.41639954e-12 3.33904941e-12 7.73454048e-14 4.72023037e-18 5.09927834e-19 3.33904941e-12
3.31131121e-01 3.19074991e-12 3.11618222e-12 7.45401013e-14 2.75891276e-17 2.89676093e-18 3.11618222e-12
3.80189396e-01 2.97606723e-12 2.90819046e-12 6.77599885e-14 1.16779699e-16 1.16538763e-17 2.90819046e-12
4.36515832e-01 2.77646454e-12 2.71408126e-12 6.20083330e-14 3.74951638e-16 3.56801902e-17 2.71408126e-12
5.01187234e-01 2.59019607e-12 2.53292801e-12 5.63106286e-14 9.57433675e-16 8.95857969e-17 2.53292801e-12
5.75439937e-01 2.41443419e-12 2.36386595e-12 4.85379219e-14 2.03031237e-15 1.83557608e-16 2.36386595e-12
6.60693448e-01 2.25560352e-12 2.20608807e-12 4.57290262e-14 3.78642599e-15 3.35116965e-16 2.20608807e-12
7.58577575e-01 2.10391874e-12 2.05884118e-12 3.83491512e-14 6.72841521e-15 6.05371587e-16 2.05884118e-12
8.70963590e-01 1.96799115e-12 1.92142238e-12 3.43652935e-14 1.22034699e-14 1.17091824e-15 1.92142238e-12
1.00000000e+00 1.84557805e-12 1.79317570e-12 2.92978399e-14 2.31045081e-14 2.36220914e-15 1.79317570e-12
1.14815362e+00 1.74404577e-12 1.67348894e-12 2.47707629e-14 4.57860650e-14 4.71994315e-15 1.67348894e-12
1.31825674e+00 1.67208336e-12 1.56179075e-12 2.00261919e-14 9.02664175e-14 9.01409463e-15 1.56179075e-12
1.51356125e+00 1.64283755e-12 1.45754793e-12 1.66757174e-14 1.68613903e-13 1.54238381e-14 1.45754793e-12
1.73780083e+00 1.66060576e-12 1.36026288e-12 1.31336866e-14 2.87209192e-13 2.27910538e-14 1.36026288e-12
1.99526231e+00 1.72177387e-12 1.26947118e-12 1.01185600e-14 4.42184126e-13 2.94084459e-14 1.26947118e-12
2.29086765e+00 1.80412240e-12 1.18473944e-12 7.13250143e-15 6.12250456e-13 3.26124987e-14 1.18473944e-12
2.63026799e+00 1.89044528e-12 1.10566318e-12 5.31961291e-15 7.79462492e-13 3.21170698e-14 1.10566318e-12
3.01995172e+00 1.94827001e-12 1.03186491e-12 3.68726225e-15 9.12717830e-13 2.82658118e-14 1.03186491e-12
3.46736850e+00 1.96480360e-12 9.62992369e-13 2.47727181e-15 9.99333962e-13 2.31334881e-14 9.62992369e-13
3.98107171e+00 1.93681266e-12 8.98716770e-13 1.68934251e-15 1.03640655e-12 1.72228901e-14 8.98716770e-13
4.57088190e+00 1.86621889e-12 8.38731291e-13 1.09413868e-15 1.02639346e-12 1.18737166e-14 8.38731291e-13
5.24807460e+00 1.67586934e-12 6.93502223e-13 6.15925868e-16 9.81751193e-13 7.68511740e-15 6.93502223e-13
6.02559586e+00 1.37771091e-12 4.58192375e-13 2.56333454e-16 9.19262204e-13 4.64160409e-15 4.58192375e-13
6.70000000e+00 1.19731707e-12 3.33290895e-13 1.30062178e-16 8.63896116e-13 3.00261786e-15 3.33290895e-13
6.92422916e+00 1.14439550e-12 3.01948975e-13 1.03783739e-16 8.42342746e-13 2.58577112e-15 3.01948975e-13
7.15596261e+00 1.10358475e-12 2.73554377e-13 8.09457807e-17 8.29949423e-13 2.19937346e-15 2.73554377e-13
7.39545150e+00 1.08251335e-12 2.47829944e-13 6.10621697e-17 8.34622345e-13 1.89020209e-15 2.47829944e-13
7.64295536e+00 1.11106480e-12 2.24524577e-13 4.45356473e-17 8.86495689e-13 1.59306984e-15 2.24524577e-13
7.89874245e+00 1.21426470e-12 2.03410795e-13 2.81043767e-17 1.01082580e-12 1.31715368e-15 2.03410795e-13
8.16308998e+00 1.36830930e-12 1.84282505e-13 1.72667389e-17 1.18400953e-12 1.07519863e-15 1.84282505e-13
8.43628443e+00 1.58156750e-12 1.66952996e-13 9.59374038e-18 1.41460491e-12 8.27944333e-16 1.66952996e-13
8.71862190e+00 1.72352508e-12 1.51253114e-13 5.91158890e-18 1.57226605e-12 6.43052612e-16 1.51253114e-13
9.01040836e+00 1.86054092e-12 1.37029614e-13 3.45698247e-18 1.72350784e-12 4.51786388e-16 1.37029614e-13
9.31196005e+00 1.96509664e-12 1.24143660e-13 0.00000000e+00 1.84095298e-12 0.00000000e+00 1.24143660e-13
9.62360379e+00 1.93005175e-12 1.12469472e-13 0.00000000e+00 1.81758228e-12 0.00000000e+00 1.12469472e-13
9.94567731e+00 1.81172877e-12 1.01893097e-13 0.00000000e+00 1.70983567e-12 0.00000000e+00 1.01893097e-13
1.02785297e+01 1.66554303e-12 9.23113014e-14 0.00000000e+00 1.57323173e-12 0.00000000e+00 9.23113014e-14
1.06225216e+01 1.52252071e-12 8.36305558e-14 0.00000000e+00 1.43889015e-12 0.00000000e+00 8.36305558e-14
1.09780260e+01 1.37043077e-12 7.57661279e-14 0.00000000e+00 1.29466465e-12 0.00000000e+00 7.57661279e-14
1.13454280e+01 1.23855448e-12 6.86412529e-14 0.00000000e+00 1.16991323e-12 0.00000000e+00 6.86412529e-14
1.17251259e+01 1.12633197e-12 6.21863851e-14 0.00000000e+00 1.06414558e-12 0.00000000e+00 6.21863851e-14
1.21175312e+01 1.02381612e-12 5.63385184e-14 0.00000000e+00 9.67477603e-13 0.00000000e+00 5.63385184e-14
1.25230691e+01 9.30198756e-13 5.10405718e-14 0.00000000e+00 8.79158184e-13 0.00000000e+00 5.10405718e-14
1.29421791e+01 8.49201740e-13 4.62408321e-14 0.00000000e+00 8.02960908e-13 0.00000000e+00 4.62408321e-14
1.33753155e+01 7.80897865e-13 4.18924490e-14 0.00000000e+00 7.39005416e-13 0.00000000e+00 4.18924490e-14
1.38229477e+01 7.33501063e-13 3.79529781e-14 0.00000000e+00 6.95548085e-13 0.00000000e+00 3.79529781e-14
1.42855609e+01 7.05247787e-13 3.43839660e-14 0.00000000e+00 6.70863821e-13 0.00000000e+00 3.43839660e-14
1.47636563e+01 7.08629111e-13 3.11505758e-14 0.00000000e+00 6.77478535e-13 0.00000000e+00 3.11505758e-14
1.52577522e+01 7.20773634e-13 2.82212462e-14 0.00000000e+00 6.92552388e-13 0.00000000e+00 2.82212462e-14
1.57683840e+01 7.35370748e-13 2.55673842e-14 0.00000000e+00 7.09803363e-13 0.00000000e+00 2.55673842e-14
1.62961051e+01 7.53195862e-13 2.31630853e-14 0.00000000e+00 7.30032777e-13 0.00000000e+00 2.31630853e-14
1.68414875e+01 7.68988809e-13 2.09848813e-14 0.00000000e+00 7.48003928e-13 0.00000000e+00 2.09848813e-14
1.74051222e+01 7.74998061e-13 1.90115106e-14 0.00000000e+00 7.55986551e-13 0.00000000e+00 1.90115106e-14
1.79876201e+01 7.76323061e-13 1.72237112e-14 0.00000000e+00 7.59099350e-13 0.00000000e+00 1.72237112e-14
1.85896125e+01 7.65312152e-13 1.56040325e-14 0.00000000e+00 7.49708119e-13 0.00000000e+00 1.56040325e-14
1.92117518e+01 7.44910145e-13 1.41366646e-14 0.00000000e+00 7.30773480e-13 0.00000000e+00 1.41366646e-14
1.98547123e+01 7.17833036e-13 1.28072847e-14 0.00000000e+00 7.05025752e-13 0.00000000e+00 1.28072847e-14
2.05191907e+01 6.88336408e-13 1.16029167e-14 0.00000000e+00 6.76733491e-13 0.00000000e+00 1.16029167e-14
2.12059073e+01 6.58882001e-13 1.05118047e-14 0.00000000e+00 6.48370197e-13 0.00000000e+00 1.05118047e-14
2.19156062e+01 6.33667640e-13 9.52329842e-15 0.00000000e+00 6.24144342e-13 0.00000000e+00 9.52329842e-15
2.26490567e+01 6.09473074e-13 8.62774902e-15 0.00000000e+00 6.00845325e-13 0.00000000e+00 8.62774902e-15
2.34070535e+01 5.84598054e-13 7.81641505e-15 0.00000000e+00 5.76781639e-13 0.00000000e+00 7.81641505e-15
2.41904183e+01 5.62650820e-13 7.08137710e-15 0.00000000e+00 5.55569443e-13 0.00000000e+00 7.08137710e-15
2.50000000e+01 5.38444569e-13 6.41546044e-15 0.00000000e+00 5.32029109e-13 0.00000000e+00 6.41546044e-15
2.75422870e+01 4.73611038e-13 4.79786316e-15 0.00000000e+00 4.68813175e-13 0.00000000e+00 4.79786316e-15
3.16227766e+01 3.82019109e-13 3.16991676e-15 0.00000000e+00 3.78849192e-13 0.00000000e+00 3.16991676e-15
3.63078055e+01 2.91447137e-13 2.09434323e-15 0.00000000e+00 2.89352794e-13 0.00000000e+00 2.09434323e-15
4.16869383e+01 2.07829968e-13 1.38371885e-15 0.00000000e+00 2.06446249e-13 0.00000000e+00 1.38371885e-15
4.78630092e+01 1.38194131e-13 9.14213979e-16 0.00000000e+00 1.37279917e-13 0.00000000e+00 9.14213979e-16
5.49540874e+01 8.69439060e-14 6.04015186e-16 0.00000000e+00 8.63398908e-14 0.00000000e+00 6.04015186e-16
6.30957344e+01 5.23011520e-14 3.99068876e-16 0.00000000e+00 5.19020831e-14 0.00000000e+00 3.99068876e-16
7.24435960e+01 3.03872979e-14 2.63662192e-16 0.00000000e+00 3.01236357e-14 0.00000000e+00 2.63662192e-16
8.31763771e+01 1.72121243e-14 1.74199882e-16 0.00000000e+00 1.70379244e-14 0.00000000e+00 1.74199882e-16
9.54992586e+01 9.57559611e-15 1.15092721e-16 0.00000000e+00 9.46050339e-15 0.00000000e+00 1.15092721e-16
1.09647820e+02 5.25905386e-15 7.60410067e-17 0.00000000e+00 5.18301285e-15 0.00000000e+00 7.60410067e-17
1.25892541e+02 2.89250860e-15 5.02397949e-17 0.00000000e+00 2.84226880e-15 0.00000000e+00 5.02397949e-17
1.44543977e+02 1.58531795e-15 3.31931033e-17 0.00000000e+00 1.55212484e-15 0.00000000e+00 3.31931033e-17
1.65958691e+02 8.29435867e-16 2.19304659e-17 0.00000000e+00 8.07505401e-16 0.00000000e+00 2.19304659e-17
1.90546072e+02 4.35341906e-16 1.44893151e-17 0.00000000e+00 4.20852591e-16 0.00000000e+00 1.44893151e-17
2.18776162e+02 2.28689833e-16 9.57299556e-18 0.00000000e+00 2.19116837e-16 0.00000000e+00 9.57299556e-18
2.51188643e+02 1.20081011e-16 6.32481544e-18 0.00000000e+00 1.13756196e-16 0.00000000e+00 6.32481544e-18
2.88403150e+02 6.29840077e-17 4.17876412e-18 0.00000000e+00 5.88052436e-17 0.00000000e+00 4.17876412e-18
3.31131121e+02 3.30855233e-17 2.76088208e-18 0.00000000e+00 3.03246413e-17 0.00000000e+00 2.76088208e-18
3.80189396e+02 1.74054285e-17 1.82409670e-18 0.00000000e+00 1.55813318e-17 0.00000000e+00 1.82409670e-18
4.36515832e+02 9.19281130e-18 1.20516874e-18 0.00000000e+00 7.98764256e-18 0.00000000e+00 1.20516874e-18
5.01187234e+02 4.88040749e-18 7.96247089e-19 0.00000000e+00 4.08416040e-18 0.00000000e+00 7.96247089e-19
5.75439937e+02 2.60987061e-18 5.26075235e-19 0.00000000e+00 2.08379537e-18 0.00000000e+00 5.26075235e-19
6.60693448e+02 1.40880191e-18 3.47574461e-19 0.00000000e+00 1.06122745e-18 0.00000000e+00 3.47574461e-19
7.58577575e+02 7.69219931e-19 2.29640169e-19 0.00000000e+00 5.39579762e-19 0.00000000e+00 2.29640169e-19
8.70963590e+02 4.25613731e-19 1.51721755e-19 0.00000000e+00 2.73891976e-19 0.00000000e+00 1.51721755e-19
1.00000000e+03 1.38809182e-19 0.00000000e+00 0.00000000e+00 1.38809182e-19 0.00000000e+00 0.00000000e+00
