# column 1: lambda (micron)
# column 2: total flux; lambda*F_lambda (W/m2)
# column 3: direct stellar flux; lambda*F_lambda (W/m2)
# column 4: scattered stellar flux; lambda*F_lambda (W/m2)
# column 5: total dust emission flux; lambda*F_lambda (W/m2)
# column 6: dust emission scattered flux; lambda*F_lambda (W/m2)
# column 7: transparent flux; lambda*F_lambda (W/m2)
1.00000000e-03 1.04634371e-12 1.04634360e-12 1.03578490e-19 0.00000000e+00 0.00000000e+00 1.04634360e-12
1.14815362e-03 1.23502112e-12 1.23502095e-12 1.68561048e-19 0.00000000e+00 0.00000000e+00 1.23502095e-12
1.31825674e-03 1.45772098e-12 1.45772071e-12 2.64213760e-19 0.00000000e+00 0.00000000e+00 1.45772071e-12
1.51356125e-03 1.72057827e-12 1.72057784e-12 4.29439535e-19 0.00000000e+00 0.00000000e+00 1.72057784e-12
1.73780083e-03 2.03083430e-12 2.03083353e-12 7.70427488e-19 0.00000000e+00 0.00000000e+00 2.03083353e-12
1.99526231e-03 2.39703614e-12 2.39703472e-12 1.42037341e-18 0.00000000e+00 0.00000000e+00 2.39703472e-12
2.29086765e-03 2.82927171e-12 2.82926954e-12 2.16759843e-18 0.00000000e+00 0.00000000e+00 2.82926954e-12
2.63026799e-03 3.33944967e-12 3.33944522e-12 4.45077329e-18 0.00000000e+00 0.00000000e+00 3.33944522e-12
3.01995172e-03 3.94162371e-12 3.94161611e-12 7.60106248e-18 0.00000000e+00 0.00000000e+00 3.94161611e-12
3.46736850e-03 4.65238356e-12 4.65237083e-12 1.27334220e-17 0.00000000e+00 0.00000000e+00 4.65237083e-12
3.98107171e-03 5.49130980e-12 5.49128930e-12 2.05076754e-17 0.00000000e+00 0.00000000e+00 5.49128930e-12
4.57088190e-03 6.48152690e-12 6.48148207e-12 4.48274159e-17 0.00000000e+00 0.00000000e+00 6.48148207e-12
5.24807460e-03 7.65030919e-12 7.65022704e-12 8.21472398e-17 0.00000000e+00 0.00000000e+00 7.65022704e-12
6.02559586e-03 9.02987130e-12 9.02972084e-12 1.50457527e-16 0.00000000e+00 0.00000000e+00 9.02972084e-12
6.91830971e-03 1.06582130e-11 1.06579658e-11 2.47112220e-16 0.00000000e+00 0.00000000e+00 1.06579658e-11
7.94328235e-03 1.25802090e-11 1.25798170e-11 3.91952554e-16 0.00000000e+00 0.00000000e+00 1.25798170e-11
9.12010839e-03 1.48488264e-11 1.48482176e-11 6.08744348e-16 0.00000000e+00 0.00000000e+00 1.48482176e-11
1.04712855e-02 1.65843079e-11 1.65834298e-11 8.78086468e-16 0.00000000e+00 0.00000000e+00 1.65834298e-11
1.20226443e-02 1.65847498e-11 1.65834298e-11 1.32003218e-15 0.00000000e+00 0.00000000e+00 1.65834298e-11
1.38038426e-02 1.65851254e-11 1.65834298e-11 1.69560765e-15 4.14788734e-289 1.91152659e-290 1.65834298e-11
1.58489319e-02 1.65860049e-11 1.65834298e-11 2.57506694e-15 2.35981792e-252 6.97063474e-254 1.65834298e-11
1.81970086e-02 1.65870408e-11 1.65834298e-11 3.61102389e-15 2.37295375e-220 1.07856517e-221 1.65834298e-11
2.08929613e-02 1.65880418e-11 1.65834298e-11 4.61200893e-15 1.54548879e-192 5.87164336e-194 1.65834298e-11
2.39883292e-02 1.65898234e-11 1.65834298e-11 6.39364598e-15 2.53374906e-168 1.14510622e-169 1.65834298e-11
2.75422870e-02 1.65929455e-11 1.65834298e-11 9.51566725e-15 2.97367343e-147 1.38518636e-148 1.65834298e-11
3.16227766e-02 1.65941936e-11 1.65834298e-11 1.07638416e-14 6.27114826e-129 3.39059999e-130 1.65834298e-11
3.63078055e-02 1.65971123e-11 1.65834298e-11 1.36825351e-14 5.29791436e-113 2.99032378e-114 1.65834298e-11
4.16869383e-02 1.66025971e-11 1.65834298e-11 1.91673456e-14 3.70884931e-99 2.53436157e-100 1.65834298e-11
4.78630092e-02 1.66106616e-11 1.65834298e-11 2.72318110e-14 3.92263578e-87 3.11995732e-88 1.65834298e-11
5.49540874e-02 1.66183891e-11 1.65834298e-11 3.49592992e-14 1.08083116e-76 9.69399425e-78 1.65834298e-11
6.30957344e-02 1.66267258e-11 1.65834298e-11 4.32960332e-14 1.62625556e-67 1.57840390e-68 1.65834298e-11
7.24435960e-02 1.66250692e-11 1.65834298e-11 4.16394397e-14 1.45529689e-59 1.29777955e-60 1.65834298e-11
8.31763771e-02 1.66245100e-11 1.65834298e-11 4.10801764e-14 9.14872624e-53 7.94413374e-54 1.65834298e-11
9.54992586e-02 1.66286490e-11 1.65834298e-11 4.52192338e-14 6.97091747e-47 6.31534264e-48 1.65834298e-11
1.09647820e-01 1.58827420e-11 1.58370587e-11 4.56832337e-14 7.88278730e-42 7.85265964e-43 1.58370587e-11
1.25892541e-01 1.48208143e-11 1.47800032e-11 4.08111559e-14 1.80383236e-37 1.79519406e-38 1.47800032e-11
1.44543977e-01 1.38308398e-11 1.37935015e-11 3.73382473e-14 9.98945453e-34 9.64282986e-35 1.37935015e-11
1.65958691e-01 1.29139685e-11 1.28728446e-11 4.11238560e-14 1.27928005e-30 1.34961168e-31 1.28728446e-11
1.90546072e-01 1.20612477e-11 1.20136376e-11 4.76101306e-14 4.47334259e-28 5.55175639e-29 1.20136376e-11
2.18776162e-01 1.12614075e-11 1.12117790e-11 4.96284975e-14 6.04657023e-26 7.76282759e-27 1.12117790e-11
2.51188643e-01 1.05220505e-11 1.04634409e-11 5.86095752e-14 6.37237246e-24 9.92354297e-25 1.04634409e-11
2.88403150e-01 9.81771945e-12 9.76505125e-12 5.26681947e-14 3.48146427e-22 5.43140072e-23 9.76505125e-12
3.31131121e-01 9.16211722e-12 9.11327608e-12 4.88411291e-14 1.04812098e-20 1.62956544e-21 9.11327608e-12
3.80189396e-01 8.54746051e-12 8.50500410e-12 4.24562240e-14 1.92653149e-19 3.03139745e-20 8.50500410e-12
4.36515832e-01 7.97719593e-12 7.93733165e-12 3.98619179e-14 2.35694906e-18 3.89713336e-19 7.93733165e-12
5.01187234e-01 7.44425607e-12 7.40754890e-12 3.66868195e-14 2.03529469e-17 3.51147870e-18 7.40754890e-12
5.75439937e-01 6.94844940e-12 6.91312687e-12 3.51921686e-14 1.30362272e-16 2.30120842e-17 6.91312687e-12
6.60693448e-01 6.48503026e-12 6.45170538e-12 3.26813686e-14 6.43506225e-16 1.14086948e-16 6.45170538e-12
7.58577575e-01 6.05387903e-12 6.02108180e-12 3.02626022e-14 2.53462809e-15 4.39317953e-16 6.02108180e-12
8.70963590e-01 5.65475428e-12 5.61920048e-12 2.73831707e-14 8.17062843e-15 1.34214745e-15 5.61920048e-12
1.00000000e+00 5.28992889e-12 5.24414302e-12 2.39118248e-14 2.18740500e-14 3.32254203e-15 5.24414302e-12
1.14815362e+00 4.96567796e-12 4.89411902e-12 2.10517829e-14 5.05071554e-14 6.76197728e-15 4.89411902e-12
1.31825674e+00 4.68694733e-12 4.56745763e-12 1.67757492e-14 1.02713948e-13 1.18024874e-14 4.56745763e-12
1.51356125e+00 4.45958209e-12 4.26259947e-12 1.30911513e-14 1.83891462e-13 1.76220834e-14 4.26259947e-12
1.73780083e+00 4.27744894e-12 3.97808929e-12 9.94806658e-15 2.89411582e-13 2.24038677e-14 3.97808929e-12
1.99526231e+00 4.12278646e-12 3.71256894e-12 6.79202988e-15 4.03425492e-13 2.40508724e-14 3.71256894e-12
2.29086765e+00 3.97429568e-12 3.46477093e-12 4.60515568e-15 5.04919595e-13 2.23762597e-14 3.46477093e-12
2.63026799e+00 3.81374393e-12 3.23351237e-12 3.17887307e-15 5.77052683e-13 1.84043766e-14 3.23351237e-12
3.01995172e+00 3.63081094e-12 3.01768933e-12 1.98212143e-15 6.11139486e-13 1.37702015e-14 3.01768933e-12
3.46736850e+00 3.42617280e-12 2.81627154e-12 1.23916518e-15 6.08662088e-13 9.41889376e-15 2.81627154e-12
3.98107171e+00 3.20298497e-12 2.62829753e-12 7.72910692e-16 5.73914525e-13 5.99713678e-15 2.62829753e-12
4.57088190e+00 2.97198862e-12 2.45286997e-12 4.37122774e-16 5.18681528e-13 3.57917994e-15 2.45286997e-12
5.24807460e+00 2.48466361e-12 2.02814751e-12 2.26414475e-16 4.56289682e-13 2.03103045e-15 2.02814751e-12
6.02559586e+00 1.73661863e-12 1.33998377e-12 9.15105116e-17 3.96543350e-13 1.07308498e-15 1.33998377e-12
6.70000000e+00 1.32770189e-12 9.74709347e-13 4.50438265e-17 3.52947497e-13 6.41331475e-16 9.74709347e-13
6.92422916e+00 1.22247909e-12 8.83049889e-13 3.55012518e-17 3.39393704e-13 5.37061364e-16 8.83049889e-13
7.15596261e+00 1.13076099e-12 8.00009879e-13 2.71257512e-17 3.30723984e-13 4.46689756e-16 8.00009879e-13
7.39545150e+00 1.05694775e-12 7.24778763e-13 2.10808168e-17 3.32147906e-13 3.76830508e-16 7.24778763e-13
7.64295536e+00 1.01899533e-12 6.56622211e-13 1.51808462e-17 3.62357943e-13 3.32651583e-16 6.56622211e-13
7.89874245e+00 1.03246409e-12 5.94874946e-13 1.03768786e-17 4.37578766e-13 2.98386202e-16 5.94874946e-13
8.16308998e+00 1.08853088e-12 5.38934254e-13 7.03633044e-18 5.49589586e-13 2.66941594e-16 5.38934254e-13
8.43628443e+00 1.19671601e-12 4.88254098e-13 4.20529043e-18 7.08457705e-13 2.29737311e-16 4.88254098e-13
8.71862190e+00 1.26516935e-12 4.42339790e-13 2.89831719e-18 8.22826660e-13 1.90460258e-16 4.42339790e-13
9.01040836e+00 1.34145752e-12 4.00743158e-13 1.79420138e-18 9.40712564e-13 1.48583805e-16 4.00743158e-13
9.31196005e+00 1.40031594e-12 3.63058180e-13 0.00000000e+00 1.03725776e-12 0.00000000e+00 3.63058180e-13
9.62360379e+00 1.35593577e-12 3.28917012e-13 0.00000000e+00 1.02701876e-12 0.00000000e+00 3.28917012e-13
9.94567731e+00 1.24193702e-12 2.97986401e-13 0.00000000e+00 9.43950617e-13 0.00000000e+00 2.97986401e-13
1.02785297e+01 1.11033351e-12 2.69964435e-13 0.00000000e+00 8.40369073e-13 0.00000000e+00 2.69964435e-13
1.06225216e+01 9.86507336e-13 2.44577592e-13 0.00000000e+00 7.41929744e-13 0.00000000e+00 2.44577592e-13
1.09780260e+01 8.58278792e-13 2.21578069e-13 0.00000000e+00 6.36700723e-13 0.00000000e+00 2.21578069e-13
1.13454280e+01 7.48914168e-13 2.00741370e-13 0.00000000e+00 5.48172798e-13 0.00000000e+00 2.00741370e-13
1.17251259e+01 6.57119975e-13 1.81864106e-13 0.00000000e+00 4.75255869e-13 0.00000000e+00 1.81864106e-13
1.21175312e+01 5.75556060e-13 1.64762018e-13 0.00000000e+00 4.10794042e-13 0.00000000e+00 1.64762018e-13
1.25230691e+01 5.04208526e-13 1.49268171e-13 0.00000000e+00 3.54940355e-13 0.00000000e+00 1.49268171e-13
1.29421791e+01 4.44425049e-13 1.35231331e-13 0.00000000e+00 3.09193719e-13 0.00000000e+00 1.35231331e-13
1.33753155e+01 3.94000924e-13 1.22514483e-13 0.00000000e+00 2.71486441e-13 0.00000000e+00 1.22514483e-13
1.38229477e+01 3.58420965e-13 1.10993499e-13 0.00000000e+00 2.47427467e-13 0.00000000e+00 1.10993499e-13
1.42855609e+01 3.34091614e-13 1.00555922e-13 0.00000000e+00 2.33535692e-13 0.00000000e+00 1.00555922e-13
1.47636563e+01 3.27411774e-13 9.10998706e-14 0.00000000e+00 2.36311904e-13 0.00000000e+00 9.10998706e-14
1.52577522e+01 3.24995532e-13 8.25330452e-14 0.00000000e+00 2.42462487e-13 0.00000000e+00 8.25330452e-14
1.57683840e+01 3.26309371e-13 7.47718247e-14 0.00000000e+00 2.51537546e-13 0.00000000e+00 7.47718247e-14
1.62961051e+01 3.28604650e-13 6.77404517e-14 0.00000000e+00 2.60864199e-13 0.00000000e+00 6.77404517e-14
1.68414875e+01 3.31654211e-13 6.13702932e-14 0.00000000e+00 2.70283918e-13 0.00000000e+00 6.13702932e-14
1.74051222e+01 3.30122695e-13 5.55991699e-14 0.00000000e+00 2.74523525e-13 0.00000000e+00 5.55991699e-14
1.79876201e+01 3.25661452e-13 5.03707500e-14 0.00000000e+00 2.75290702e-13 0.00000000e+00 5.03707500e-14
1.85896125e+01 3.15388974e-13 4.56339988e-14 0.00000000e+00 2.69754975e-13 0.00000000e+00 4.56339988e-14
1.92117518e+01 2.99681968e-13 4.13426810e-14 0.00000000e+00 2.58339287e-13 0.00000000e+00 4.13426810e-14
1.98547123e+01 2.81809737e-13 3.74549090e-14 0.00000000e+00 2.44354829e-13 0.00000000e+00 3.74549090e-14
2.05191907e+01 2.63386910e-13 3.39327342e-14 0.00000000e+00 2.29454175e-13 0.00000000e+00 3.39327342e-14
2.12059073e+01 2.46325724e-13 3.07417768e-14 0.00000000e+00 2.15583947e-13 0.00000000e+00 3.07417768e-14
2.19156062e+01 2.31720579e-13 2.78508898e-14 0.00000000e+00 2.03869689e-13 0.00000000e+00 2.78508898e-14
2.26490567e+01 2.18339801e-13 2.52318552e-14 0.00000000e+00 1.93107946e-13 0.00000000e+00 2.52318552e-14
2.34070535e+01 2.06132818e-13 2.28591087e-14 0.00000000e+00 1.83273709e-13 0.00000000e+00 2.28591087e-14
2.41904183e+01 1.95037807e-13 2.07094900e-14 0.00000000e+00 1.74328317e-13 0.00000000e+00 2.07094900e-14
2.50000000e+01 1.84864822e-13 1.87620165e-14 0.00000000e+00 1.66102806e-13 0.00000000e+00 1.87620165e-14
2.75422870e+01 1.58534295e-13 1.40313526e-14 0.00000000e+00 1.44502942e-13 0.00000000e+00 1.40313526e-14
3.16227766e+01 1.27292527e-13 9.27042274e-15 0.00000000e+00 1.18022104e-13 0.00000000e+00 9.27042274e-15
3.63078055e+01 9.93563048e-14 6.12490756e-15 0.00000000e+00 9.32313972e-14 0.00000000e+00 6.12490756e-15
4.16869383e+01 7.38126935e-14 4.04668630e-15 0.00000000e+00 6.97660072e-14 0.00000000e+00 4.04668630e-15
4.78630092e+01 5.19787728e-14 2.67361912e-15 0.00000000e+00 4.93051537e-14 0.00000000e+00 2.67361912e-15
5.49540874e+01 3.49889300e-14 1.76644264e-15 0.00000000e+00 3.32224873e-14 0.00000000e+00 1.76644264e-15
6.30957344e+01 2.26949984e-14 1.16707708e-15 0.00000000e+00 2.15279214e-14 0.00000000e+00 1.16707708e-15
7.24435960e+01 1.42566146e-14 7.71080178e-16 0.00000000e+00 1.34855344e-14 0.00000000e+00 7.71080178e-16
8.31763771e+01 8.73104782e-15 5.09447621e-16 0.00000000e+00 8.22160020e-15 0.00000000e+00 5.09447621e-16
9.54992586e+01 5.23982824e-15 3.36588705e-16 0.00000000e+00 4.90323954e-15 0.00000000e+00 3.36588705e-16
1.09647820e+02 3.09198026e-15 2.22381952e-16 0.00000000e+00 2.86959831e-15 0.00000000e+00 2.22381952e-16
1.25892541e+02 1.81786587e-15 1.46926299e-16 0.00000000e+00 1.67093957e-15 0.00000000e+00 1.46926299e-16
1.44543977e+02 1.05933110e-15 9.70732430e-17 0.00000000e+00 9.62257861e-16 0.00000000e+00 9.70732430e-17
1.65958691e+02 5.89059895e-16 6.41356556e-17 0.00000000e+00 5.24924239e-16 0.00000000e+00 6.41356556e-17
1.90546072e+02 3.27585859e-16 4.23740075e-17 0.00000000e+00 2.85211851e-16 0.00000000e+00 4.23740075e-17
2.18776162e+02 1.82004060e-16 2.79962291e-17 0.00000000e+00 1.54007831e-16 0.00000000e+00 2.79962291e-17
2.51188643e+02 1.01021470e-16 1.84969251e-17 0.00000000e+00 8.25245453e-17 0.00000000e+00 1.84969251e-17
2.88403150e+02 5.60693792e-17 1.22207972e-17 0.00000000e+00 4.38485819e-17 0.00000000e+00 1.22207972e-17
3.31131121e+02 3.12311133e-17 8.07420067e-18 0.00000000e+00 2.31569126e-17 0.00000000e+00 8.07420067e-18
3.80189396e+02 1.74812546e-17 5.33457148e-18 0.00000000e+00 1.21466832e-17 0.00000000e+00 5.33457148e-18
4.36515832e+02 9.86362612e-18 3.52451642e-18 0.00000000e+00 6.33910970e-18 0.00000000e+00 3.52451642e-18
5.01187234e+02 5.62039014e-18 2.32862491e-18 0.00000000e+00 3.29176524e-18 0.00000000e+00 2.32862491e-18
5.75439937e+02 3.24066683e-18 1.53850722e-18 0.00000000e+00 1.70215961e-18 0.00000000e+00 1.53850722e-18
6.60693448e+02 1.89346186e-18 1.01648164e-18 0.00000000e+00 8.76980218e-19 0.00000000e+00 1.01648164e-18
7.58577575e+02 1.12198374e-18 6.71582760e-19 0.00000000e+00 4.50400977e-19 0.00000000e+00 6.71582760e-19
8.70963590e+02 6.74333619e-19 4.43710329e-19 0.00000000e+00 2.30623289e-19 0.00000000e+00 4.43710329e-19
1.00000000e+03 1.17766010e-19 0.00000000e+00 0.00000000e+00 1.17766010e-19 0.00000000e+00 0.00000000e+00
