# column 1: lambda (micron)
# column 2: total flux; lambda*F_lambda (W/m2)
# column 3: direct stellar flux; lambda*F_lambda (W/m2)
# column 4: scattered stellar flux; lambda*F_lambda (W/m2)
# column 5: total dust emission flux; lambda*F_lambda (W/m2)
# column 6: dust emission scattered flux; lambda*F_lambda (W/m2)
# column 7: transparent flux; lambda*F_lambda (W/m2)
1.00000000e-03 1.07335711e-12 1.07335627e-12 8.38162167e-19 0.00000000e+00 0.00000000e+00 1.07335627e-12
1.14815362e-03 1.26690582e-12 1.26690456e-12 1.26956648e-18 0.00000000e+00 0.00000000e+00 1.26690456e-12
1.31825674e-03 1.49535556e-12 1.49535359e-12 1.96834272e-18 0.00000000e+00 0.00000000e+00 1.49535359e-12
1.51356125e-03 1.76499964e-12 1.76499670e-12 2.94505918e-18 0.00000000e+00 0.00000000e+00 1.76499670e-12
1.73780083e-03 2.08326733e-12 2.08326203e-12 5.30610661e-18 0.00000000e+00 0.00000000e+00 2.08326203e-12
1.99526231e-03 2.45892656e-12 2.45891716e-12 9.39560660e-18 0.00000000e+00 0.00000000e+00 2.45891716e-12
2.29086765e-03 2.90232525e-12 2.90231066e-12 1.45891059e-17 0.00000000e+00 0.00000000e+00 2.90231066e-12
2.63026799e-03 3.42568612e-12 3.42565717e-12 2.89541573e-17 0.00000000e+00 0.00000000e+00 3.42565717e-12
3.01995172e-03 4.04342104e-12 4.04337385e-12 4.71981978e-17 0.00000000e+00 0.00000000e+00 4.04337385e-12
3.46736850e-03 4.77255520e-12 4.77247759e-12 7.76111342e-17 0.00000000e+00 0.00000000e+00 4.77247759e-12
3.98107171e-03 5.63317570e-12 5.63305378e-12 1.21922666e-16 0.00000000e+00 0.00000000e+00 5.63305378e-12
4.57088190e-03 6.64909497e-12 6.64880962e-12 2.85346563e-16 0.00000000e+00 0.00000000e+00 6.64880962e-12
5.24807460e-03 7.85007977e-12 7.84772720e-12 2.35257543e-15 0.00000000e+00 0.00000000e+00 7.84772720e-12
6.02559586e-03 9.26373172e-12 9.26283435e-12 8.97371012e-16 0.00000000e+00 0.00000000e+00 9.26283435e-12
6.91830971e-03 1.09345267e-11 1.09331145e-11 1.41218075e-15 0.00000000e+00 0.00000000e+00 1.09331145e-11
7.94328235e-03 1.29068625e-11 1.29045807e-11 2.28184975e-15 0.00000000e+00 0.00000000e+00 1.29045807e-11
9.12010839e-03 1.52358564e-11 1.52315429e-11 4.31354790e-15 0.00000000e+00 0.00000000e+00 1.52315429e-11
1.04712855e-02 1.70187716e-11 1.70115517e-11 7.21985420e-15 0.00000000e+00 0.00000000e+00 1.70115517e-11
1.20226443e-02 1.70190041e-11 1.70115517e-11 7.45241266e-15 0.00000000e+00 0.00000000e+00 1.70115517e-11
1.38038426e-02 1.70232088e-11 1.70115517e-11 1.16570778e-14 5.06314917e-290 7.39419466e-292 1.70115517e-11
1.58489319e-02 1.70302317e-11 1.70115517e-11 1.86800238e-14 3.40277228e-253 5.01117507e-255 1.70115517e-11
1.81970086e-02 1.70354930e-11 1.70115517e-11 2.39413016e-14 3.85921289e-221 7.85786442e-223 1.70115517e-11
2.08929613e-02 1.70457389e-11 1.70115517e-11 3.41872330e-14 2.85478639e-193 6.23980459e-195 1.70115517e-11
2.39883292e-02 1.70515573e-11 1.70115517e-11 4.00056239e-14 5.22432692e-169 1.62763548e-170 1.70115517e-11
2.75422870e-02 1.70659372e-11 1.70115517e-11 5.43855012e-14 6.83787063e-148 2.62679081e-149 1.70115517e-11
3.16227766e-02 1.70782333e-11 1.70115517e-11 6.66816305e-14 1.58810315e-129 7.13305253e-131 1.70115517e-11
3.63078055e-02 1.70879618e-11 1.70115517e-11 7.64100886e-14 1.48297139e-113 7.63387653e-115 1.70115517e-11
4.16869383e-02 1.71224574e-11 1.70115517e-11 1.10905641e-13 1.14633323e-99 8.02603537e-101 1.70115517e-11
4.78630092e-02 1.71628840e-11 1.70115517e-11 1.51332244e-13 1.35070705e-87 1.19230122e-88 1.70115517e-11
5.49540874e-02 1.72010307e-11 1.70115517e-11 1.89478943e-13 4.13857684e-77 4.40423906e-78 1.70115517e-11
6.30957344e-02 1.72360102e-11 1.70115517e-11 2.24458504e-13 6.97397511e-68 8.57496246e-69 1.70115517e-11
7.24435960e-02 1.72277919e-11 1.70115517e-11 2.16240181e-13 6.94434396e-60 8.27670363e-61 1.70115517e-11
8.31763771e-02 1.72233605e-11 1.70115517e-11 2.11808795e-13 4.86179278e-53 5.91948267e-54 1.70115517e-11
9.54992586e-02 1.72346352e-11 1.70115517e-11 2.23083444e-13 4.12731500e-47 5.41421255e-48 1.70115517e-11
1.09647820e-01 1.64756036e-11 1.62459122e-11 2.29691424e-13 5.26549938e-42 7.69219271e-43 1.62459122e-11
1.25892541e-01 1.53710348e-11 1.51615674e-11 2.09467364e-13 1.37367917e-37 2.05242693e-38 1.51615674e-11
1.44543977e-01 1.43403063e-11 1.41495980e-11 1.90708302e-13 8.78995861e-34 1.34206353e-34 1.41495980e-11
1.65958691e-01 1.34108180e-11 1.32051732e-11 2.05644817e-13 1.32230434e-30 2.25355547e-31 1.32051732e-11
1.90546072e-01 1.25541892e-11 1.23237846e-11 2.30404532e-13 5.46630144e-28 1.10938708e-28 1.23237846e-11
2.18776162e-01 1.17314011e-11 1.15012250e-11 2.30176075e-13 8.68006173e-26 1.88668596e-26 1.15012250e-11
2.51188643e-01 1.10019816e-11 1.07335677e-11 2.68413900e-13 1.17123456e-23 3.10250926e-24 1.07335677e-11
2.88403150e-01 1.02667441e-11 1.00171482e-11 2.49595900e-13 8.15287996e-22 2.18813877e-22 1.00171482e-11
3.31131121e-01 9.57997314e-12 9.34854667e-12 2.31426441e-13 3.10043259e-20 8.38086652e-21 9.34854667e-12
3.80189396e-01 8.93563010e-12 8.72457139e-12 2.11058003e-13 7.06637237e-19 1.91365409e-19 8.72457139e-12
4.36515832e-01 8.33513837e-12 8.14224377e-12 1.92884311e-13 1.02881158e-17 2.79941756e-18 8.14224377e-12
5.01187234e-01 7.78085941e-12 7.59878402e-12 1.81975239e-13 1.00153466e-16 2.73342680e-17 7.59878402e-12
5.75439937e-01 7.26610841e-12 7.09159786e-12 1.73816668e-13 6.93876231e-16 1.87159151e-16 7.09159786e-12
6.60693448e-01 6.78291238e-12 6.61826421e-12 1.61119832e-13 3.52833948e-15 9.41481530e-16 6.61826421e-12
7.58577575e-01 6.33790659e-12 6.17652353e-12 1.47304004e-13 1.40790515e-14 3.66024172e-15 6.17652353e-12
8.70963590e-01 5.94222573e-12 5.76426715e-12 1.32702786e-13 4.52557955e-14 1.12940428e-14 5.76426715e-12
1.00000000e+00 5.61741824e-12 5.37952711e-12 1.17205530e-13 1.20685597e-13 2.83369984e-14 5.37952711e-12
1.14815362e+00 5.39503614e-12 5.02046681e-12 9.75554941e-14 2.77013831e-13 5.94432150e-14 5.02046681e-12
1.31825674e+00 5.32984436e-12 4.68537225e-12 7.91678535e-14 5.65304258e-13 1.06042208e-13 4.68537225e-12
1.51356125e+00 5.46059974e-12 4.37264380e-12 6.36119958e-14 1.02434395e-12 1.66033821e-13 4.37264380e-12
1.73780083e+00 5.75869667e-12 4.08078863e-12 4.83941540e-14 1.62951388e-12 2.21990955e-13 4.08078863e-12
1.99526231e+00 6.16913459e-12 3.80841354e-12 3.70535207e-14 2.32366753e-12 2.58355097e-13 3.80841354e-12
2.29086765e+00 6.56550076e-12 3.55421832e-12 2.69796077e-14 2.98430284e-12 2.59618940e-13 3.55421832e-12
2.63026799e+00 6.85345815e-12 3.31698953e-12 1.91785461e-14 3.51729007e-12 2.34127678e-13 3.31698953e-12
3.01995172e+00 6.96106553e-12 3.09559474e-12 1.33664728e-14 3.85210432e-12 1.90147828e-13 3.09559474e-12
3.46736850e+00 6.86584649e-12 2.88897711e-12 9.11634074e-15 3.96775304e-12 1.42378555e-13 2.88897711e-12
3.98107171e+00 6.59141635e-12 2.69615031e-12 5.80806261e-15 3.88945797e-12 9.72590686e-14 2.69615031e-12
4.57088190e+00 6.17759882e-12 2.51619387e-12 3.79545602e-15 3.65760949e-12 6.20702885e-14 2.51619387e-12
5.24807460e+00 5.43753989e-12 2.08050667e-12 2.05602843e-15 3.35497720e-12 3.71322042e-14 2.08050667e-12
6.02559586e+00 4.40944649e-12 1.37457712e-12 8.56742349e-16 3.03401263e-12 2.11117214e-14 1.37457712e-12
6.70000000e+00 3.78825975e-12 9.99872685e-13 4.21357160e-16 2.78796571e-12 1.30463936e-14 9.99872685e-13
6.92422916e+00 3.61356037e-12 9.05846924e-13 3.38643690e-16 2.70737480e-12 1.11402437e-14 9.05846924e-13
7.15596261e+00 3.48113794e-12 8.20663132e-13 2.66965303e-16 2.66020784e-12 9.50571551e-15 8.20663132e-13
7.39545150e+00 3.41534300e-12 7.43489831e-13 2.02619075e-16 2.67165055e-12 8.07366350e-15 7.43489831e-13
7.64295536e+00 3.53883524e-12 6.73573732e-13 1.46037251e-16 2.86511547e-12 7.02022606e-15 6.73573732e-13
7.89874245e+00 3.93498707e-12 6.10232385e-13 9.57405483e-17 3.32465894e-12 6.07093699e-15 6.10232385e-13
8.16308998e+00 4.51641156e-12 5.52847515e-13 6.09676168e-17 3.96350308e-12 5.16397459e-15 5.52847515e-13
8.43628443e+00 5.28747185e-12 5.00858987e-13 3.54540706e-17 4.78657741e-12 4.23951862e-15 5.00858987e-13
8.71862190e+00 5.77213427e-12 4.53759343e-13 2.25771011e-17 5.31835235e-12 3.40181062e-15 4.53759343e-13
9.01040836e+00 6.28074821e-12 4.11088843e-13 1.39654901e-17 5.86964541e-12 2.55854964e-15 4.11088843e-13
9.31196005e+00 6.60449900e-12 3.72430980e-13 0.00000000e+00 6.23206802e-12 0.00000000e+00 3.72430980e-13
9.62360379e+00 6.50401923e-12 3.37408415e-13 0.00000000e+00 6.16661081e-12 0.00000000e+00 3.37408415e-13
9.94567731e+00 6.12067536e-12 3.05679292e-13 0.00000000e+00 5.81499606e-12 0.00000000e+00 3.05679292e-13
1.02785297e+01 5.63932614e-12 2.76933904e-13 0.00000000e+00 5.36239223e-12 0.00000000e+00 2.76933904e-13
1.06225216e+01 5.15683999e-12 2.50891667e-13 0.00000000e+00 4.90594832e-12 0.00000000e+00 2.50891667e-13
1.09780260e+01 4.63473994e-12 2.27298384e-13 0.00000000e+00 4.40744155e-12 0.00000000e+00 2.27298384e-13
1.13454280e+01 4.18933484e-12 2.05923759e-13 0.00000000e+00 3.98341109e-12 0.00000000e+00 2.05923759e-13
1.17251259e+01 3.79286950e-12 1.86559155e-13 0.00000000e+00 3.60631034e-12 0.00000000e+00 1.86559155e-13
1.21175312e+01 3.43338979e-12 1.69015555e-13 0.00000000e+00 3.26437424e-12 0.00000000e+00 1.69015555e-13
1.25230691e+01 3.10817287e-12 1.53121715e-13 0.00000000e+00 2.95505115e-12 0.00000000e+00 1.53121715e-13
1.29421791e+01 2.82242114e-12 1.38722496e-13 0.00000000e+00 2.68369865e-12 0.00000000e+00 1.38722496e-13
1.33753155e+01 2.57982034e-12 1.25677347e-13 0.00000000e+00 2.45414300e-12 0.00000000e+00 1.25677347e-13
1.38229477e+01 2.42668010e-12 1.13858934e-13 0.00000000e+00 2.31282116e-12 0.00000000e+00 1.13858934e-13
1.42855609e+01 2.34075605e-12 1.03151898e-13 0.00000000e+00 2.23760415e-12 0.00000000e+00 1.03151898e-13
1.47636563e+01 2.37561805e-12 9.34517274e-14 0.00000000e+00 2.28216632e-12 0.00000000e+00 9.34517274e-14
1.52577522e+01 2.43954965e-12 8.46637387e-14 0.00000000e+00 2.35488591e-12 0.00000000e+00 8.46637387e-14
1.57683840e+01 2.52968250e-12 7.67021526e-14 0.00000000e+00 2.45298035e-12 0.00000000e+00 7.67021526e-14
1.62961051e+01 2.62122779e-12 6.94892560e-14 0.00000000e+00 2.55173853e-12 0.00000000e+00 6.94892560e-14
1.68414875e+01 2.71545827e-12 6.29546439e-14 0.00000000e+00 2.65250362e-12 0.00000000e+00 6.29546439e-14
1.74051222e+01 2.78399022e-12 5.70345319e-14 0.00000000e+00 2.72695569e-12 0.00000000e+00 5.70345319e-14
1.79876201e+01 2.82041161e-12 5.16711337e-14 0.00000000e+00 2.76874048e-12 0.00000000e+00 5.16711337e-14
1.85896125e+01 2.81601085e-12 4.68120974e-14 0.00000000e+00 2.76919875e-12 0.00000000e+00 4.68120974e-14
1.92117518e+01 2.76058793e-12 4.24099939e-14 0.00000000e+00 2.71817794e-12 0.00000000e+00 4.24099939e-14
1.98547123e+01 2.68153643e-12 3.84218542e-14 0.00000000e+00 2.64311457e-12 0.00000000e+00 3.84218542e-14
2.05191907e+01 2.59218315e-12 3.48087501e-14 0.00000000e+00 2.55737439e-12 0.00000000e+00 3.48087501e-14
2.12059073e+01 2.50199443e-12 3.15354141e-14 0.00000000e+00 2.47045901e-12 0.00000000e+00 3.15354141e-14
2.19156062e+01 2.42536676e-12 2.85698952e-14 0.00000000e+00 2.39679687e-12 0.00000000e+00 2.85698952e-14
2.26490567e+01 2.34748500e-12 2.58832470e-14 0.00000000e+00 2.32160175e-12 0.00000000e+00 2.58832470e-14
2.34070535e+01 2.27490269e-12 2.34492452e-14 0.00000000e+00 2.25145345e-12 0.00000000e+00 2.34492452e-14
2.41904183e+01 2.20206789e-12 2.12441313e-14 0.00000000e+00 2.18082376e-12 0.00000000e+00 2.12441313e-14
2.50000000e+01 2.14140641e-12 1.92463813e-14 0.00000000e+00 2.12216002e-12 0.00000000e+00 1.92463813e-14
2.75422870e+01 1.93982067e-12 1.43935895e-14 0.00000000e+00 1.92542708e-12 0.00000000e+00 1.43935895e-14
3.16227766e+01 1.63945653e-12 9.50975027e-15 0.00000000e+00 1.62994678e-12 0.00000000e+00 9.50975027e-15
3.63078055e+01 1.31002068e-12 6.28302969e-15 0.00000000e+00 1.30373765e-12 0.00000000e+00 6.28302969e-15
4.16869383e+01 9.73829924e-13 4.15115655e-15 0.00000000e+00 9.69678768e-13 0.00000000e+00 4.15115655e-15
4.78630092e+01 6.74129227e-13 2.74264194e-15 0.00000000e+00 6.71386585e-13 0.00000000e+00 2.74264194e-15
5.49540874e+01 4.40026512e-13 1.81204556e-15 0.00000000e+00 4.38214467e-13 0.00000000e+00 1.81204556e-15
6.30957344e+01 2.74005360e-13 1.19720663e-15 0.00000000e+00 2.72808153e-13 0.00000000e+00 1.19720663e-15
7.24435960e+01 1.64305803e-13 7.90986575e-16 0.00000000e+00 1.63514817e-13 0.00000000e+00 7.90986575e-16
8.31763771e+01 9.57633970e-14 5.22599647e-16 0.00000000e+00 9.52407974e-14 0.00000000e+00 5.22599647e-16
9.54992586e+01 5.46749438e-14 3.45278163e-16 0.00000000e+00 5.43296657e-14 0.00000000e+00 3.45278163e-16
1.09647820e+02 3.07048299e-14 2.28123020e-16 0.00000000e+00 3.04767068e-14 0.00000000e+00 2.28123020e-16
1.25892541e+02 1.72219851e-14 1.50719385e-16 0.00000000e+00 1.70712657e-14 0.00000000e+00 1.50719385e-16
1.44543977e+02 9.59317515e-15 9.95793099e-17 0.00000000e+00 9.49359584e-15 0.00000000e+00 9.95793099e-17
1.65958691e+02 5.08577505e-15 6.57913976e-17 0.00000000e+00 5.01998365e-15 0.00000000e+00 6.57913976e-17
1.90546072e+02 2.69700209e-15 4.34679453e-17 0.00000000e+00 2.65353415e-15 0.00000000e+00 4.34679453e-17
2.18776162e+02 1.42746777e-15 2.87189867e-17 0.00000000e+00 1.39874879e-15 0.00000000e+00 2.87189867e-17
2.51188643e+02 7.52907801e-16 1.89744463e-17 0.00000000e+00 7.33933355e-16 0.00000000e+00 1.89744463e-17
2.88403150e+02 3.95444794e-16 1.25362924e-17 0.00000000e+00 3.82908501e-16 0.00000000e+00 1.25362924e-17
3.31131121e+02 2.07323786e-16 8.28264623e-18 0.00000000e+00 1.99041140e-16 0.00000000e+00 8.28264623e-18
3.80189396e+02 1.08454531e-16 5.47229010e-18 0.00000000e+00 1.02982241e-16 0.00000000e+00 5.47229010e-18
4.36515832e+02 5.67253880e-17 3.61550621e-18 0.00000000e+00 5.31098818e-17 0.00000000e+00 3.61550621e-18
5.01187234e+02 2.96853988e-17 2.38874127e-18 0.00000000e+00 2.72966575e-17 0.00000000e+00 2.38874127e-18
5.75439937e+02 1.55681859e-17 1.57822570e-18 0.00000000e+00 1.39899602e-17 0.00000000e+00 1.57822570e-18
6.60693448e+02 8.19524172e-18 1.04272338e-18 0.00000000e+00 7.15251834e-18 0.00000000e+00 1.04272338e-18
7.58577575e+02 4.33790479e-18 6.88920507e-19 0.00000000e+00 3.64898429e-18 0.00000000e+00 6.88920507e-19
8.70963590e+02 2.31282207e-18 4.55165265e-19 0.00000000e+00 1.85765680e-18 0.00000000e+00 4.55165265e-19
1.00000000e+03 9.43859680e-19 0.00000000e+00 0.00000000e+00 9.43859680e-19 0.00000000e+00 0.00000000e+00
