# column 1: lambda (micron)
# column 2: total flux; lambda*F_lambda (W/m2)
# column 3: direct stellar flux; lambda*F_lambda (W/m2)
# column 4: scattered stellar flux; lambda*F_lambda (W/m2)
# column 5: total dust emission flux; lambda*F_lambda (W/m2)
# column 6: dust emission scattered flux; lambda*F_lambda (W/m2)
# column 7: transparent flux; lambda*F_lambda (W/m2)
1.00000000e-03 6.93994095e-13 6.93993746e-13 3.49742137e-19 0.00000000e+00 0.00000000e+00 6.93993746e-13
1.14815362e-03 8.19135674e-13 8.19135139e-13 5.35238091e-19 0.00000000e+00 0.00000000e+00 8.19135139e-13
1.31825674e-03 9.66842925e-13 9.66842108e-13 8.17066731e-19 0.00000000e+00 0.00000000e+00 9.66842108e-13
1.51356125e-03 1.14118502e-12 1.14118369e-12 1.33188930e-18 0.00000000e+00 0.00000000e+00 1.14118369e-12
1.73780083e-03 1.34696505e-12 1.34696266e-12 2.39093697e-18 0.00000000e+00 0.00000000e+00 1.34696266e-12
1.99526231e-03 1.58985189e-12 1.58984782e-12 4.07175880e-18 0.00000000e+00 0.00000000e+00 1.58984782e-12
2.29086765e-03 1.87653658e-12 1.87653019e-12 6.38192874e-18 0.00000000e+00 0.00000000e+00 1.87653019e-12
2.63026799e-03 2.21492053e-12 2.21490731e-12 1.32230130e-17 0.00000000e+00 0.00000000e+00 2.21490731e-12
3.01995172e-03 2.61432194e-12 2.61430080e-12 2.11329440e-17 0.00000000e+00 0.00000000e+00 2.61430080e-12
3.46736850e-03 3.08574776e-12 3.08571319e-12 3.45680386e-17 0.00000000e+00 0.00000000e+00 3.08571319e-12
3.98107171e-03 3.64219017e-12 3.64213095e-12 5.92171065e-17 0.00000000e+00 0.00000000e+00 3.64213095e-12
4.57088190e-03 4.29901272e-12 4.29888232e-12 1.30404304e-16 0.00000000e+00 0.00000000e+00 4.29888232e-12
5.24807460e-03 5.07465395e-12 5.07405951e-12 5.94435109e-16 0.00000000e+00 0.00000000e+00 5.07405951e-12
6.02559586e-03 5.98945723e-12 5.98901715e-12 4.40077862e-16 0.00000000e+00 0.00000000e+00 5.98901715e-12
6.91830971e-03 7.06961576e-12 7.06896053e-12 6.55235370e-16 0.00000000e+00 0.00000000e+00 7.06896053e-12
7.94328235e-03 8.34482657e-12 8.34363998e-12 1.18659238e-15 9.05356169e-304 1.11371575e-305 8.34363998e-12
9.12010839e-03 9.84994422e-12 9.84817045e-12 1.77376959e-15 3.96641332e-265 5.74308847e-267 9.84817045e-12
1.04712855e-02 1.10166679e-11 1.09990604e-11 1.76074131e-14 1.66662435e-231 1.80944425e-233 1.09990604e-11
1.20226443e-02 1.10042014e-11 1.09990604e-11 5.14090761e-15 2.63867815e-202 6.23505936e-204 1.09990604e-11
1.38038426e-02 1.10045681e-11 1.09990604e-11 5.50766771e-15 7.15925484e-177 1.69456049e-178 1.09990604e-11
1.58489319e-02 1.10067119e-11 1.09990604e-11 7.65143103e-15 9.72870913e-155 2.99560924e-156 1.09990604e-11
1.81970086e-02 1.10096697e-11 1.09990604e-11 1.06092951e-14 1.72623232e-135 4.92692198e-137 1.09990604e-11
2.08929613e-02 1.10146509e-11 1.09990604e-11 1.55904268e-14 9.02775910e-119 3.05151607e-120 1.09990604e-11
2.39883292e-02 1.10197964e-11 1.09990604e-11 2.07359488e-14 3.16980781e-104 1.22828156e-105 1.09990604e-11
2.75422870e-02 1.10265494e-11 1.09990604e-11 2.74889707e-14 1.41958936e-91 6.22840232e-93 1.09990604e-11
3.16227766e-02 1.10295360e-11 1.09990604e-11 3.04756043e-14 1.38070865e-80 6.30837042e-82 1.09990604e-11
3.63078055e-02 1.10373594e-11 1.09990604e-11 3.82989653e-14 4.77870091e-71 2.27031389e-72 1.09990604e-11
4.16869383e-02 1.10502543e-11 1.09990604e-11 5.11938253e-14 9.09603712e-63 5.10595866e-64 1.09990604e-11
4.78630092e-02 1.10703791e-11 1.09990604e-11 7.13186611e-14 1.37566740e-55 9.09680827e-57 1.09990604e-11
5.49540874e-02 1.10845554e-11 1.09990604e-11 8.54949264e-14 2.27846711e-49 1.68936126e-50 1.09990604e-11
6.30957344e-02 1.10979886e-11 1.09990604e-11 9.89281134e-14 7.26629699e-44 5.84673200e-45 1.09990604e-11
7.24435960e-02 1.10931789e-11 1.09990604e-11 9.41184721e-14 4.13177124e-39 3.09328209e-40 1.09990604e-11
8.31763771e-02 1.10887284e-11 1.09990604e-11 8.96679943e-14 4.22811400e-35 3.11067130e-36 1.09990604e-11
9.54992586e-02 1.10934935e-11 1.09990604e-11 9.44330871e-14 1.19835056e-31 9.15898177e-33 1.09990604e-11
1.09647820e-01 1.06049922e-11 1.05040253e-11 1.00966929e-13 1.02773969e-28 8.33564373e-30 1.05040253e-11
1.25892541e-01 9.89202953e-12 9.80292679e-12 8.91027307e-14 3.36504029e-26 2.73374170e-27 9.80292679e-12
1.44543977e-01 9.23015507e-12 9.14862359e-12 8.15314825e-14 4.60982987e-24 3.56494309e-25 9.14862359e-12
1.65958691e-01 8.62335335e-12 8.53799231e-12 8.53610338e-14 2.35474327e-22 1.97439408e-23 8.53799231e-12
1.90546072e-01 8.06181358e-12 7.96811805e-12 9.36955297e-14 4.96281789e-21 4.80803266e-22 7.96811805e-12
2.18776162e-01 7.52855537e-12 7.43628044e-12 9.22748805e-14 5.83327903e-20 5.83805484e-21 7.43628044e-12
2.51188643e-01 7.04143533e-12 6.93994070e-12 1.01493920e-13 7.14914427e-19 8.30797713e-20 6.93994070e-12
2.88403150e-01 6.56790001e-12 6.47672950e-12 9.11645247e-14 5.97736461e-18 6.68603230e-19 6.47672950e-12
3.31131121e-01 6.12909661e-12 6.04443567e-12 8.46265843e-14 3.43618548e-17 3.70618320e-18 6.04443567e-12
3.80189396e-01 5.71771040e-12 5.64099558e-12 7.65713493e-14 1.43466115e-16 1.48793848e-17 5.64099558e-12
4.36515832e-01 5.33483771e-12 5.26448339e-12 6.99000660e-14 4.54255177e-16 4.52612109e-17 5.26448339e-12
5.01187234e-01 4.97895144e-12 4.91310176e-12 6.47071441e-14 1.14253859e-15 1.12893735e-16 4.91310176e-12
5.75439937e-01 4.64528227e-12 4.58517335e-12 5.77208329e-14 2.38808933e-15 2.32083315e-16 4.58517335e-12
6.60693448e-01 4.33854933e-12 4.27913275e-12 5.50214137e-14 4.39516425e-15 4.27256777e-16 4.27913275e-12
7.58577575e-01 4.04843508e-12 3.99351904e-12 4.71931985e-14 7.72283990e-15 7.73540056e-16 3.99351904e-12
8.70963590e-01 3.78379567e-12 3.72696882e-12 4.29482205e-14 1.38786259e-14 1.47176385e-15 3.72696882e-12
1.00000000e+00 3.54135126e-12 3.47820968e-12 3.69822522e-14 2.61593242e-14 2.91668764e-15 3.47820968e-12
1.14815362e+00 3.32867108e-12 3.24605414e-12 3.09690957e-14 5.16478422e-14 5.73540454e-15 3.24605414e-12
1.31825674e+00 3.15559849e-12 3.02939399e-12 2.47483914e-14 1.01456113e-13 1.06789801e-14 3.02939399e-12
1.51356125e+00 3.03645218e-12 2.82719497e-12 2.04813691e-14 1.88775836e-13 1.80959220e-14 2.82719497e-12
1.73780083e+00 2.97317904e-12 2.63849186e-12 1.59426771e-14 3.18744502e-13 2.64034734e-14 2.63849186e-12
1.99526231e+00 2.96281809e-12 2.46238388e-12 1.20550523e-14 4.88379153e-13 3.37371537e-14 2.46238388e-12
2.29086765e+00 2.97875550e-12 2.29803035e-12 8.43514678e-15 6.72290011e-13 3.72810678e-14 2.29803035e-12
2.63026799e+00 3.00081236e-12 2.14464670e-12 6.20867658e-15 8.49956975e-13 3.64277106e-14 2.14464670e-12
3.01995172e+00 2.99647083e-12 2.00150076e-12 4.28465427e-15 9.90685415e-13 3.18057888e-14 2.00150076e-12
3.46736850e+00 2.95475609e-12 1.86790919e-12 2.84299313e-15 1.08400390e-12 2.59350478e-14 1.86790919e-12
3.98107171e+00 2.86729377e-12 1.74323429e-12 1.88339657e-15 1.12217608e-12 1.90549251e-14 1.74323429e-12
4.57088190e+00 2.73670579e-12 1.62688090e-12 1.20577895e-15 1.10861912e-12 1.30474786e-14 1.62688090e-12
5.24807460e+00 2.40227490e-12 1.34518114e-12 6.66976086e-16 1.05642678e-12 8.38536325e-15 1.34518114e-12
6.02559586e+00 1.87617462e-12 8.88752369e-13 2.75156482e-16 9.87147093e-13 5.01283334e-15 8.88752369e-13
6.70000000e+00 1.57073912e-12 6.46481889e-13 1.39010698e-16 9.24118215e-13 3.22473743e-15 6.46481889e-13
6.92422916e+00 1.48815615e-12 5.85688198e-13 1.10363286e-16 9.02357594e-13 2.77381668e-15 5.85688198e-13
7.15596261e+00 1.41885133e-12 5.30611407e-13 8.61968523e-17 8.88153725e-13 2.36018269e-15 5.30611407e-13
7.39545150e+00 1.37502002e-12 4.80713913e-13 6.52780939e-17 8.94240833e-13 2.03395782e-15 4.80713913e-13
7.64295536e+00 1.39074810e-12 4.35508666e-13 4.77499041e-17 9.55191681e-13 1.72315643e-15 4.35508666e-13
7.89874245e+00 1.49688013e-12 3.94554418e-13 3.05519760e-17 1.10229516e-12 1.44526631e-15 3.94554418e-13
8.16308998e+00 1.67069794e-12 3.57451415e-13 1.90535048e-17 1.31322748e-12 1.20611489e-15 3.57451415e-13
8.43628443e+00 1.91770213e-12 3.23837494e-13 1.07969209e-17 1.59385384e-12 9.51394354e-16 3.23837494e-13
8.71862190e+00 2.08325595e-12 2.93384550e-13 6.82637831e-18 1.78986458e-12 7.51395705e-16 2.93384550e-13
9.01040836e+00 2.25481335e-12 2.65795332e-13 4.01133460e-18 1.98901401e-12 5.39138416e-16 2.65795332e-13
9.31196005e+00 2.37808937e-12 2.40800541e-13 0.00000000e+00 2.13728883e-12 0.00000000e+00 2.40800541e-13
9.62360379e+00 2.34008159e-12 2.18156204e-13 0.00000000e+00 2.12192539e-12 0.00000000e+00 2.18156204e-13
9.94567731e+00 2.18960878e-12 1.97641289e-13 0.00000000e+00 1.99196749e-12 0.00000000e+00 1.97641289e-13
1.02785297e+01 2.01061457e-12 1.79055550e-13 0.00000000e+00 1.83155902e-12 0.00000000e+00 1.79055550e-13
1.06225216e+01 1.83267076e-12 1.62217572e-13 0.00000000e+00 1.67045319e-12 0.00000000e+00 1.62217572e-13
1.09780260e+01 1.64212687e-12 1.46962999e-13 0.00000000e+00 1.49516387e-12 0.00000000e+00 1.46962999e-13
1.13454280e+01 1.47579198e-12 1.33142932e-13 0.00000000e+00 1.34264905e-12 0.00000000e+00 1.33142932e-13
1.17251259e+01 1.33402739e-12 1.20622472e-13 0.00000000e+00 1.21340492e-12 0.00000000e+00 1.20622472e-13
1.21175312e+01 1.20350032e-12 1.09279408e-13 0.00000000e+00 1.09422092e-12 0.00000000e+00 1.09279408e-13
1.25230691e+01 1.08346623e-12 9.90030204e-14 0.00000000e+00 9.84463213e-13 0.00000000e+00 9.90030204e-14
1.29421791e+01 9.82045662e-13 8.96930008e-14 0.00000000e+00 8.92352661e-13 0.00000000e+00 8.96930008e-14
1.33753155e+01 8.96626788e-13 8.12584743e-14 0.00000000e+00 8.15368314e-13 0.00000000e+00 8.12584743e-14
1.38229477e+01 8.36028683e-13 7.36171115e-14 0.00000000e+00 7.62411571e-13 0.00000000e+00 7.36171115e-14
1.42855609e+01 8.00360559e-13 6.66943252e-14 0.00000000e+00 7.33666233e-13 0.00000000e+00 6.66943252e-14
1.47636563e+01 8.03468820e-13 6.04225420e-14 0.00000000e+00 7.43046278e-13 0.00000000e+00 6.04225420e-14
1.52577522e+01 8.17434421e-13 5.47405431e-14 0.00000000e+00 7.62693878e-13 0.00000000e+00 5.47405431e-14
1.57683840e+01 8.35440149e-13 4.95928665e-14 0.00000000e+00 7.85847283e-13 0.00000000e+00 4.95928665e-14
1.62961051e+01 8.57360688e-13 4.49292657e-14 0.00000000e+00 8.12431423e-13 0.00000000e+00 4.49292657e-14
1.68414875e+01 8.75561043e-13 4.07042194e-14 0.00000000e+00 8.34856824e-13 0.00000000e+00 4.07042194e-14
1.74051222e+01 8.84739718e-13 3.68764869e-14 0.00000000e+00 8.47863231e-13 0.00000000e+00 3.68764869e-14
1.79876201e+01 8.85239246e-13 3.34087056e-14 0.00000000e+00 8.51830540e-13 0.00000000e+00 3.34087056e-14
1.85896125e+01 8.72382441e-13 3.02670267e-14 0.00000000e+00 8.42115414e-13 0.00000000e+00 3.02670267e-14
1.92117518e+01 8.47849116e-13 2.74207841e-14 0.00000000e+00 8.20428332e-13 0.00000000e+00 2.74207841e-14
1.98547123e+01 8.11999757e-13 2.48421957e-14 0.00000000e+00 7.87157561e-13 0.00000000e+00 2.48421957e-14
2.05191907e+01 7.74330136e-13 2.25060919e-14 0.00000000e+00 7.51824044e-13 0.00000000e+00 2.25060919e-14
2.12059073e+01 7.36837031e-13 2.03896700e-14 0.00000000e+00 7.16447361e-13 0.00000000e+00 2.03896700e-14
2.19156062e+01 7.05355541e-13 1.84722717e-14 0.00000000e+00 6.86883269e-13 0.00000000e+00 1.84722717e-14
2.26490567e+01 6.74789129e-13 1.67351811e-14 0.00000000e+00 6.58053948e-13 0.00000000e+00 1.67351811e-14
2.34070535e+01 6.43580468e-13 1.51614426e-14 0.00000000e+00 6.28419026e-13 0.00000000e+00 1.51614426e-14
2.41904183e+01 6.16099954e-13 1.37356949e-14 0.00000000e+00 6.02364259e-13 0.00000000e+00 1.37356949e-14
2.50000000e+01 5.87841171e-13 1.24440213e-14 0.00000000e+00 5.75397150e-13 0.00000000e+00 1.24440213e-14
2.75422870e+01 5.11520210e-13 9.30637977e-15 0.00000000e+00 5.02213831e-13 0.00000000e+00 9.30637977e-15
3.16227766e+01 4.06954315e-13 6.14866414e-15 0.00000000e+00 4.00805651e-13 0.00000000e+00 6.14866414e-15
3.63078055e+01 3.06970105e-13 4.06238211e-15 0.00000000e+00 3.02907722e-13 0.00000000e+00 4.06238211e-15
4.16869383e+01 2.16806643e-13 2.68398924e-15 0.00000000e+00 2.14122653e-13 0.00000000e+00 2.68398924e-15
4.78630092e+01 1.43070317e-13 1.77329411e-15 0.00000000e+00 1.41297023e-13 0.00000000e+00 1.77329411e-15
5.49540874e+01 8.94482133e-14 1.17160380e-15 0.00000000e+00 8.82766095e-14 0.00000000e+00 1.17160380e-15
6.30957344e+01 5.35399194e-14 7.74070953e-16 0.00000000e+00 5.27658485e-14 0.00000000e+00 7.74070953e-16
7.24435960e+01 3.10064138e-14 5.11423607e-16 0.00000000e+00 3.04949902e-14 0.00000000e+00 5.11423607e-16
8.31763771e+01 1.75323673e-14 3.37894226e-16 0.00000000e+00 1.71944731e-14 0.00000000e+00 3.37894226e-16
9.54992586e+01 9.74712558e-15 2.23244502e-16 0.00000000e+00 9.52388108e-15 0.00000000e+00 2.23244502e-16
1.09647820e+02 5.35672532e-15 1.47496179e-16 0.00000000e+00 5.20922914e-15 0.00000000e+00 1.47496179e-16
1.25892541e+02 2.95098399e-15 9.74497594e-17 0.00000000e+00 2.85353423e-15 0.00000000e+00 9.74497594e-17
1.44543977e+02 1.62113105e-15 6.43844175e-17 0.00000000e+00 1.55674664e-15 0.00000000e+00 6.43844175e-17
1.65958691e+02 8.51758128e-16 4.25383628e-17 0.00000000e+00 8.09219765e-16 0.00000000e+00 4.25383628e-17
1.90546072e+02 4.49638991e-16 2.81048176e-17 0.00000000e+00 4.21534173e-16 0.00000000e+00 2.81048176e-17
2.18776162e+02 2.37957136e-16 1.85686688e-17 0.00000000e+00 2.19388468e-16 0.00000000e+00 1.85686688e-17
2.51188643e+02 1.26130864e-16 1.22681978e-17 0.00000000e+00 1.13862667e-16 0.00000000e+00 1.22681978e-17
2.88403150e+02 6.69527962e-17 8.10551794e-18 0.00000000e+00 5.88472783e-17 0.00000000e+00 8.10551794e-18
3.31131121e+02 3.56960556e-17 5.35526259e-18 0.00000000e+00 3.03407930e-17 0.00000000e+00 5.35526259e-18
3.80189396e+02 1.91257543e-17 3.53818691e-18 0.00000000e+00 1.55875674e-17 0.00000000e+00 3.53818691e-18
4.36515832e+02 1.03277824e-17 2.33765691e-18 0.00000000e+00 7.99012545e-18 0.00000000e+00 2.33765691e-18
5.01187234e+02 5.62957312e-18 1.54447460e-18 0.00000000e+00 4.08509852e-18 0.00000000e+00 1.54447460e-18
5.75439937e+02 3.10459099e-18 1.02042425e-18 0.00000000e+00 2.08416674e-18 0.00000000e+00 1.02042425e-18
6.60693448e+02 1.73555938e-18 6.74187617e-19 0.00000000e+00 1.06137176e-18 0.00000000e+00 6.74187617e-19
7.58577575e+02 9.85065581e-19 4.45431341e-19 0.00000000e+00 5.39634240e-19 0.00000000e+00 4.45431341e-19
8.70963590e+02 5.68205985e-19 2.94293569e-19 0.00000000e+00 2.73912417e-19 0.00000000e+00 2.94293569e-19
1.00000000e+03 1.38817566e-19 0.00000000e+00 0.00000000e+00 1.38817566e-19 0.00000000e+00 0.00000000e+00
