# column 1: lambda (micron)
# column 2: total flux; lambda*F_lambda (W/m2)
# column 3: direct stellar flux; lambda*F_lambda (W/m2)
# column 4: scattered stellar flux; lambda*F_lambda (W/m2)
# column 5: total dust emission flux; lambda*F_lambda (W/m2)
# column 6: dust emission scattered flux; lambda*F_lambda (W/m2)
# column 7: transparent flux; lambda*F_lambda (W/m2)
1.00000000e-03 8.46532652e-13 8.46529401e-13 3.25122099e-18 0.00000000e+00 0.00000000e+00 8.46529401e-13
1.14815362e-03 9.99180873e-13 9.99176121e-13 4.75281483e-18 0.00000000e+00 0.00000000e+00 9.99176121e-13
1.31825674e-03 1.17935543e-12 1.17934819e-12 7.24009999e-18 0.00000000e+00 0.00000000e+00 1.17934819e-12
1.51356125e-03 1.39202021e-12 1.39200901e-12 1.12033327e-17 0.00000000e+00 0.00000000e+00 1.39200901e-12
1.73780083e-03 1.64303632e-12 1.64301696e-12 1.93563423e-17 0.00000000e+00 0.00000000e+00 1.64301696e-12
1.99526231e-03 1.93932035e-12 1.93928682e-12 3.35304745e-17 0.00000000e+00 0.00000000e+00 1.93928682e-12
2.29086765e-03 2.28903327e-12 2.28898025e-12 5.30117408e-17 0.00000000e+00 0.00000000e+00 2.28898025e-12
2.63026799e-03 2.70183850e-12 2.70173063e-12 1.07874196e-16 0.00000000e+00 0.00000000e+00 2.70173063e-12
3.01995172e-03 3.18907849e-12 3.18890841e-12 1.70077234e-16 0.00000000e+00 0.00000000e+00 3.18890841e-12
3.46736850e-03 3.76420990e-12 3.76393440e-12 2.75495513e-16 0.00000000e+00 0.00000000e+00 3.76393440e-12
3.98107171e-03 4.44307410e-12 4.44264945e-12 4.24652118e-16 0.00000000e+00 0.00000000e+00 4.44264945e-12
4.57088190e-03 5.24489037e-12 5.24375082e-12 1.13954548e-15 0.00000000e+00 0.00000000e+00 5.24375082e-12
5.24807460e-03 6.19106260e-12 6.18930730e-12 1.75530009e-15 0.00000000e+00 0.00000000e+00 6.18930730e-12
6.02559586e-03 7.30863205e-12 7.30536713e-12 3.26491760e-15 0.00000000e+00 0.00000000e+00 7.30536713e-12
6.91830971e-03 8.62759498e-12 8.62267558e-12 4.91940592e-15 0.00000000e+00 0.00000000e+00 8.62267558e-12
7.94328235e-03 1.01855099e-11 1.01775219e-11 7.98796816e-15 0.00000000e+00 0.00000000e+00 1.01775219e-11
9.12010839e-03 1.20254120e-11 1.20127391e-11 1.26729103e-14 0.00000000e+00 0.00000000e+00 1.20127391e-11
1.04712855e-02 1.34506332e-11 1.34165878e-11 3.40453773e-14 0.00000000e+00 0.00000000e+00 1.34165878e-11
1.20226443e-02 1.34524396e-11 1.34165878e-11 3.58517877e-14 6.99318477e-311 2.29799120e-311 1.34165878e-11
1.38038426e-02 1.34656957e-11 1.34165878e-11 4.91078591e-14 1.17371642e-271 3.73365583e-272 1.34165878e-11
1.58489319e-02 1.34708393e-11 1.34165878e-11 5.42514456e-14 1.65379906e-237 5.52542933e-238 1.34165878e-11
1.81970086e-02 1.34874725e-11 1.34165878e-11 7.08846717e-14 8.26365809e-208 2.61427006e-208 1.34165878e-11
2.08929613e-02 1.35225510e-11 1.34165878e-11 1.05963210e-13 5.64850357e-182 1.86366474e-182 1.34165878e-11
2.39883292e-02 1.35537488e-11 1.34165878e-11 1.37160986e-13 1.69868255e-159 5.81614254e-160 1.34165878e-11
2.75422870e-02 1.35833260e-11 1.34165878e-11 1.66738189e-13 5.83982793e-140 1.91016300e-140 1.34165878e-11
3.16227766e-02 1.36100975e-11 1.34165878e-11 1.93509652e-13 5.63131803e-123 1.78046508e-123 1.34165878e-11
3.63078055e-02 1.36400505e-11 1.34165878e-11 2.23462710e-13 3.27938952e-108 1.01361292e-108 1.34165878e-11
4.16869383e-02 1.37016708e-11 1.34165878e-11 2.85083004e-13 2.26470530e-95 7.18799284e-96 1.34165878e-11
4.78630092e-02 1.37450735e-11 1.34165878e-11 3.28485710e-13 2.92263244e-84 9.34850130e-85 1.34165878e-11
5.49540874e-02 1.37792781e-11 1.34165878e-11 3.62690216e-13 1.24765715e-74 4.17233160e-75 1.34165878e-11
6.30957344e-02 1.37853584e-11 1.34165878e-11 3.68770539e-13 3.15021194e-66 1.18188423e-66 1.34165878e-11
7.24435960e-02 1.37359126e-11 1.34165878e-11 3.19324782e-13 6.19506724e-59 2.25789446e-59 1.34165878e-11
8.31763771e-02 1.37204599e-11 1.34165878e-11 3.03872103e-13 1.82182105e-52 5.09156868e-53 1.34165878e-11
9.54992586e-02 1.37401068e-11 1.34165878e-11 3.23519003e-13 9.71249398e-47 2.04162082e-47 1.34165878e-11
1.09647820e-01 1.31641873e-11 1.28127470e-11 3.51440330e-13 1.02542396e-41 1.84137367e-42 1.28127470e-11
1.25892541e-01 1.22959930e-11 1.19575512e-11 3.38441789e-13 2.37542384e-37 3.82760108e-38 1.19575512e-11
1.44543977e-01 1.14817602e-11 1.11594361e-11 3.22324096e-13 1.40229644e-33 2.13668731e-34 1.11594361e-11
1.65958691e-01 1.07508290e-11 1.04145917e-11 3.36237264e-13 1.99438856e-30 3.30759665e-31 1.04145917e-11
1.90546072e-01 1.00769018e-11 9.71946251e-12 3.57439307e-13 7.92813767e-28 1.55340262e-28 9.71946251e-12
2.18776162e-01 9.39408489e-12 9.07073019e-12 3.23354696e-13 1.22463163e-25 2.55615755e-26 9.07073019e-12
2.51188643e-01 8.84050009e-12 8.46529796e-12 3.75202122e-13 1.62408075e-23 4.23679111e-24 8.46529796e-12
2.88403150e-01 8.26163918e-12 7.90027573e-12 3.61363448e-13 1.11913077e-21 3.08327878e-22 7.90027573e-12
3.31131121e-01 7.70539527e-12 7.37296631e-12 3.32428920e-13 4.27610071e-20 1.22026278e-20 7.37296631e-12
3.80189396e-01 7.20195346e-12 6.88085251e-12 3.21099965e-13 9.80352821e-19 2.89111074e-19 6.88085251e-12
4.36515832e-01 6.71786435e-12 6.42158520e-12 2.96264632e-13 1.45116600e-17 4.36925181e-18 6.42158520e-12
5.01187234e-01 6.27215878e-12 5.99297201e-12 2.79042465e-13 1.44305127e-16 4.43084223e-17 5.99297201e-12
5.75439937e-01 5.84873275e-12 5.59296690e-12 2.54743837e-13 1.02201678e-15 3.15636886e-16 5.59296690e-12
6.60693448e-01 5.46058059e-12 5.21966041e-12 2.35546055e-13 5.37411922e-15 1.66258595e-15 5.21966041e-12
7.58577575e-01 5.10669207e-12 4.87127053e-12 2.13556771e-13 2.18647696e-14 6.62585648e-15 4.87127053e-12
8.70963590e-01 4.81033002e-12 4.54613417e-12 1.92186730e-13 7.20091158e-14 2.09730821e-14 4.54613417e-12
1.00000000e+00 4.60372646e-12 4.24269927e-12 1.65375683e-13 1.95651508e-13 5.31076759e-14 4.24269927e-12
1.14815362e+00 4.55296158e-12 3.95951734e-12 1.37685570e-13 4.55758666e-13 1.12756798e-13 3.95951734e-12
1.31825674e+00 4.74558231e-12 3.69523659e-12 1.11475207e-13 9.38870521e-13 2.05143009e-13 3.69523659e-12
1.51356125e+00 5.23328387e-12 3.44859544e-12 8.75241123e-14 1.69716432e-12 3.19327522e-13 3.44859544e-12
1.73780083e+00 6.02783626e-12 3.21841652e-12 6.81677956e-14 2.74125194e-12 4.35038458e-13 3.21841652e-12
1.99526231e+00 6.99441677e-12 3.00360106e-12 5.19917054e-14 3.93882400e-12 5.07485859e-13 3.00360106e-12
2.29086765e+00 7.97438389e-12 2.80312361e-12 3.87947571e-14 5.13246552e-12 5.20219550e-13 2.80312361e-12
2.63026799e+00 8.77478837e-12 2.61602716e-12 2.83622840e-14 6.13039893e-12 4.81539864e-13 2.61602716e-12
3.01995172e+00 9.29027272e-12 2.44141860e-12 2.02507894e-14 6.82860333e-12 4.03910560e-13 2.44141860e-12
3.46736850e+00 9.48744204e-12 2.27846441e-12 1.41571210e-14 7.19482051e-12 3.13880762e-13 2.27846441e-12
3.98107171e+00 9.33889439e-12 2.12638671e-12 9.69754708e-15 7.20281013e-12 2.25993940e-13 2.12638671e-12
4.57088190e+00 8.91720504e-12 1.98445954e-12 6.34546620e-15 6.92640004e-12 1.51212303e-13 1.98445954e-12
5.24807460e+00 8.13923761e-12 1.64084388e-12 3.62644926e-15 6.49476728e-12 9.40569125e-14 1.64084388e-12
6.02559586e+00 7.09089906e-12 1.08409480e-12 1.52648038e-15 6.00527778e-12 5.50875798e-14 1.08409480e-12
6.70000000e+00 6.38519760e-12 7.88574724e-13 7.68047546e-16 5.59585483e-12 3.48106055e-14 7.88574724e-13
6.92422916e+00 6.18423783e-12 7.14418944e-13 6.24223109e-16 5.46919466e-12 2.99844571e-14 7.14418944e-13
7.15596261e+00 6.02509505e-12 6.47236606e-13 4.93676281e-16 5.37736477e-12 2.57037597e-14 6.47236606e-13
7.39545150e+00 5.98782347e-12 5.86371942e-13 3.76540718e-16 5.40107499e-12 2.20428110e-14 5.86371942e-13
7.64295536e+00 6.25004923e-12 5.31230854e-13 2.66737742e-16 5.71855164e-12 1.87914354e-14 5.31230854e-13
7.89874245e+00 6.89883569e-12 4.81275108e-13 1.69596626e-16 6.41739098e-12 1.57862244e-14 4.81275108e-13
8.16308998e+00 7.79161017e-12 4.36017088e-13 1.02290835e-16 7.35549079e-12 1.30517588e-14 4.36017088e-13
8.43628443e+00 8.89081045e-12 3.95015029e-13 5.97916331e-17 8.49573563e-12 1.04678136e-14 3.95015029e-13
8.71862190e+00 9.54316767e-12 3.57868711e-13 3.89422259e-17 9.18526002e-12 8.69968520e-15 3.57868711e-13
9.01040836e+00 1.01180071e-11 3.24215549e-13 2.63361642e-17 9.79376520e-12 7.42083312e-15 3.24215549e-13
9.31196005e+00 1.04626772e-11 2.93727053e-13 1.92141489e-17 1.01689310e-11 6.63951771e-15 2.93727053e-13
9.62360379e+00 1.02800352e-11 2.66105627e-13 1.61333289e-17 1.00139134e-11 6.14956075e-15 2.66105627e-13
9.94567731e+00 9.79543257e-12 2.41081657e-13 1.46044163e-17 9.55433630e-12 5.75047492e-15 2.41081657e-13
1.02785297e+01 9.17599799e-12 2.18410884e-13 1.36571777e-17 8.95757345e-12 5.36905665e-15 2.18410884e-13
1.06225216e+01 8.60388840e-12 1.97872020e-13 1.26597996e-17 8.40600372e-12 5.03315358e-15 1.97872020e-13
1.09780260e+01 7.95163442e-12 1.79264583e-13 1.18534936e-17 7.77235798e-12 4.63082240e-15 1.79264583e-13
1.13454280e+01 7.36243320e-12 1.62406948e-13 1.09074277e-17 7.20001535e-12 4.22189790e-15 1.62406948e-13
1.17251259e+01 6.82147347e-12 1.47134567e-13 9.92413306e-18 6.67432898e-12 3.79336296e-15 1.47134567e-13
1.21175312e+01 6.34450381e-12 1.33298366e-13 9.18415238e-18 6.21119626e-12 3.37170859e-15 1.33298366e-13
1.25230691e+01 5.91182432e-12 1.20763289e-13 8.24081018e-18 5.79105279e-12 2.96972564e-15 1.20763289e-13
1.29421791e+01 5.50830395e-12 1.09406983e-13 7.20069222e-18 5.39888977e-12 2.57216958e-15 1.09406983e-13
1.33753155e+01 5.14236787e-12 9.91185987e-14 6.28923725e-18 5.04324298e-12 2.19802743e-15 9.91185987e-14
1.38229477e+01 4.90249066e-12 8.97977103e-14 5.15897141e-18 4.81268779e-12 1.82541962e-15 8.97977103e-14
1.42855609e+01 4.78670166e-12 8.13533371e-14 4.12959460e-18 4.70534419e-12 1.54319973e-15 8.13533371e-14
1.47636563e+01 4.87055611e-12 7.37030537e-14 3.04206166e-18 4.79685002e-12 1.29116858e-15 7.37030537e-14
1.52577522e+01 4.99132226e-12 6.67721855e-14 2.28614423e-18 4.92454778e-12 1.10417821e-15 6.67721855e-14
1.57683840e+01 5.16857059e-12 6.04930805e-14 1.69853184e-18 5.10807581e-12 9.49940656e-16 6.04930805e-14
1.62961051e+01 5.34058040e-12 5.48044484e-14 1.27490365e-18 5.28577468e-12 8.20795157e-16 5.48044484e-14
1.68414875e+01 5.52878952e-12 4.96507622e-14 9.58944049e-19 5.47913780e-12 7.06088400e-16 4.96507622e-14
1.74051222e+01 5.63758645e-12 4.49817171e-14 7.40121388e-19 5.59260399e-12 6.15808319e-16 4.49817171e-14
1.79876201e+01 5.72758545e-12 4.07517384e-14 5.91331746e-19 5.68683312e-12 5.32510480e-16 4.07517384e-14
1.85896125e+01 5.73265086e-12 3.69195372e-14 4.79134963e-19 5.69573085e-12 4.58764093e-16 3.69195372e-14
1.92117518e+01 5.66979326e-12 3.34477076e-14 3.87641006e-19 5.63634517e-12 3.86469100e-16 3.34477076e-14
1.98547123e+01 5.55411122e-12 3.03023610e-14 3.19736815e-19 5.52380854e-12 3.19069610e-16 3.03023610e-14
2.05191907e+01 5.42030730e-12 2.74527957e-14 2.52378787e-19 5.39285425e-12 2.44833752e-16 2.74527957e-14
2.12059073e+01 5.28271470e-12 2.48711970e-14 1.93083733e-19 5.25784331e-12 1.75985199e-16 2.48711970e-14
2.19156062e+01 5.15146807e-12 2.25323660e-14 1.31813883e-19 5.12893557e-12 1.15225339e-16 2.25323660e-14
2.26490567e+01 5.03150709e-12 2.04134733e-14 7.64889789e-20 5.01109354e-12 6.31790866e-17 2.04134733e-14
2.34070535e+01 4.90886713e-12 1.84938366e-14 2.89088078e-20 4.89037326e-12 2.57753523e-17 1.84938366e-14
2.41904183e+01 4.76657419e-12 1.67547181e-14 2.94312954e-21 4.74981946e-12 4.93839278e-18 1.67547181e-14
2.50000000e+01 4.64252651e-12 1.51791424e-14 0.00000000e+00 4.62734737e-12 0.00000000e+00 1.51791424e-14
2.75422870e+01 4.22292934e-12 1.13518661e-14 0.00000000e+00 4.21157748e-12 0.00000000e+00 1.13518661e-14
3.16227766e+01 3.56723686e-12 7.50010357e-15 0.00000000e+00 3.55973676e-12 0.00000000e+00 7.50010357e-15
3.63078055e+01 2.82464969e-12 4.95526929e-15 0.00000000e+00 2.81969443e-12 0.00000000e+00 4.95526929e-15
4.16869383e+01 2.07583478e-12 3.27391395e-15 0.00000000e+00 2.07256086e-12 0.00000000e+00 3.27391395e-15
4.78630092e+01 1.42014194e-12 2.16305350e-15 0.00000000e+00 1.41797889e-12 0.00000000e+00 2.16305350e-15
5.49540874e+01 9.13556479e-13 1.42911527e-15 0.00000000e+00 9.12127364e-13 0.00000000e+00 1.42911527e-15
6.30957344e+01 5.60638475e-13 9.44207098e-16 0.00000000e+00 5.59694268e-13 0.00000000e+00 9.44207098e-16
7.24435960e+01 3.31024516e-13 6.23831443e-16 0.00000000e+00 3.30400685e-13 0.00000000e+00 6.23831443e-16
8.31763771e+01 1.90210008e-13 4.12161347e-16 0.00000000e+00 1.89797847e-13 0.00000000e+00 4.12161347e-16
9.54992586e+01 1.07053442e-13 2.72312302e-16 0.00000000e+00 1.06781129e-13 0.00000000e+00 2.72312302e-16
1.09647820e+02 5.93539685e-14 1.79914953e-16 0.00000000e+00 5.91740535e-14 0.00000000e+00 1.79914953e-16
1.25892541e+02 3.28934270e-14 1.18868631e-16 0.00000000e+00 3.27745583e-14 0.00000000e+00 1.18868631e-16
1.44543977e+02 1.81249839e-14 7.85357256e-17 0.00000000e+00 1.80464482e-14 0.00000000e+00 7.85357256e-17
1.65958691e+02 9.51343986e-15 5.18880394e-17 0.00000000e+00 9.46155182e-15 0.00000000e+00 5.18880394e-17
1.90546072e+02 4.99772568e-15 3.42820876e-17 0.00000000e+00 4.96344359e-15 0.00000000e+00 3.42820876e-17
2.18776162e+02 2.62166887e-15 2.26499507e-17 0.00000000e+00 2.59901892e-15 0.00000000e+00 2.26499507e-17
2.51188643e+02 1.37081497e-15 1.49646740e-17 0.00000000e+00 1.35585029e-15 0.00000000e+00 1.49646740e-17
2.88403150e+02 7.13726207e-16 9.88706207e-18 0.00000000e+00 7.03839145e-16 0.00000000e+00 9.88706207e-18
3.31131121e+02 3.70793286e-16 6.53231713e-18 0.00000000e+00 3.64260969e-16 0.00000000e+00 6.53231713e-18
3.80189396e+02 1.92068259e-16 4.31585913e-18 0.00000000e+00 1.87752400e-16 0.00000000e+00 4.31585913e-18
4.36515832e+02 9.93596524e-17 2.85145985e-18 0.00000000e+00 9.65081926e-17 0.00000000e+00 2.85145985e-18
5.01187234e+02 5.13444519e-17 1.88394084e-18 0.00000000e+00 4.94605111e-17 0.00000000e+00 1.88394084e-18
5.75439937e+02 2.65312717e-17 1.24470737e-18 0.00000000e+00 2.52865643e-17 0.00000000e+00 1.24470737e-18
6.60693448e+02 1.37225779e-17 8.22370004e-19 0.00000000e+00 1.29002079e-17 0.00000000e+00 8.22370004e-19
7.58577575e+02 7.11234438e-18 5.43334473e-19 0.00000000e+00 6.56900991e-18 0.00000000e+00 5.43334473e-19
8.70963590e+02 3.69777183e-18 3.58977527e-19 0.00000000e+00 3.33879430e-18 0.00000000e+00 3.58977527e-19
1.00000000e+03 1.69402578e-18 0.00000000e+00 0.00000000e+00 1.69402578e-18 0.00000000e+00 0.00000000e+00
