# column 1: lambda (micron)
# column 2: total flux; lambda*F_lambda (W/m2)
# column 3: direct stellar flux; lambda*F_lambda (W/m2)
# column 4: scattered stellar flux; lambda*F_lambda (W/m2)
# column 5: total dust emission flux; lambda*F_lambda (W/m2)
# column 6: dust emission scattered flux; lambda*F_lambda (W/m2)
# column 7: transparent flux; lambda*F_lambda (W/m2)
1.00000000e-03 6.93994104e-13 6.93993746e-13 3.58599238e-19 0.00000000e+00 0.00000000e+00 6.93993746e-13
1.14815362e-03 8.19135698e-13 8.19135139e-13 5.58916673e-19 0.00000000e+00 0.00000000e+00 8.19135139e-13
1.31825674e-03 9.66842975e-13 9.66842108e-13 8.67466362e-19 0.00000000e+00 0.00000000e+00 9.66842108e-13
1.51356125e-03 1.14118512e-12 1.14118369e-12 1.42731617e-18 0.00000000e+00 0.00000000e+00 1.14118369e-12
1.73780083e-03 1.34696504e-12 1.34696266e-12 2.37541349e-18 0.00000000e+00 0.00000000e+00 1.34696266e-12
1.99526231e-03 1.58985206e-12 1.58984782e-12 4.23961710e-18 0.00000000e+00 0.00000000e+00 1.58984782e-12
2.29086765e-03 1.87653707e-12 1.87653019e-12 6.88049370e-18 0.00000000e+00 0.00000000e+00 1.87653019e-12
2.63026799e-03 2.21523921e-12 2.21490731e-12 3.31896377e-16 0.00000000e+00 0.00000000e+00 2.21490731e-12
3.01995172e-03 2.61462710e-12 2.61430080e-12 3.26291577e-16 0.00000000e+00 0.00000000e+00 2.61430080e-12
3.46736850e-03 3.08631325e-12 3.08571319e-12 6.00064921e-16 0.00000000e+00 0.00000000e+00 3.08571319e-12
3.98107171e-03 3.64251259e-12 3.64213095e-12 3.81640740e-16 0.00000000e+00 0.00000000e+00 3.64213095e-12
4.57088190e-03 4.29974052e-12 4.29888232e-12 8.58205432e-16 0.00000000e+00 0.00000000e+00 4.29888232e-12
5.24807460e-03 5.07518416e-12 5.07405951e-12 1.12464586e-15 0.00000000e+00 0.00000000e+00 5.07405951e-12
6.02559586e-03 5.99503513e-12 5.98901715e-12 6.01798252e-15 0.00000000e+00 0.00000000e+00 5.98901715e-12
6.91830971e-03 7.07479548e-12 7.06896053e-12 5.83495457e-15 0.00000000e+00 0.00000000e+00 7.06896053e-12
7.94328235e-03 8.35540345e-12 8.34363998e-12 1.17634684e-14 9.55850537e-304 1.80774491e-306 8.34363998e-12
9.12010839e-03 9.86052765e-12 9.84817045e-12 1.23572036e-14 4.21634255e-265 7.72951029e-268 9.84817045e-12
1.04712855e-02 1.10169398e-11 1.09990604e-11 1.78793678e-14 1.79181625e-231 3.44219304e-234 1.09990604e-11
1.20226443e-02 1.10176924e-11 1.09990604e-11 1.86319705e-14 2.82173316e-202 8.53242132e-205 1.09990604e-11
1.38038426e-02 1.10175102e-11 1.09990604e-11 1.84497170e-14 7.73867358e-177 4.70386931e-179 1.09990604e-11
1.58489319e-02 1.10212896e-11 1.09990604e-11 2.22291917e-14 1.04954074e-154 6.11930500e-157 1.09990604e-11
1.81970086e-02 1.10272002e-11 1.09990604e-11 2.81397707e-14 1.88042343e-135 1.49589967e-137 1.09990604e-11
2.08929613e-02 1.10352031e-11 1.09990604e-11 3.61426433e-14 9.86166151e-119 1.03627120e-120 1.09990604e-11
2.39883292e-02 1.10359434e-11 1.09990604e-11 3.68829498e-14 3.47737475e-104 5.11632937e-106 1.09990604e-11
2.75422870e-02 1.10436585e-11 1.09990604e-11 4.45980476e-14 1.56210894e-91 2.85778244e-93 1.09990604e-11
3.16227766e-02 1.10501388e-11 1.09990604e-11 5.10783178e-14 1.52943685e-80 3.48964999e-82 1.09990604e-11
3.63078055e-02 1.10548687e-11 1.09990604e-11 5.58082935e-14 5.32295819e-71 1.42041416e-72 1.09990604e-11
4.16869383e-02 1.10713968e-11 1.09990604e-11 7.23363223e-14 1.01868852e-62 3.68912709e-64 1.09990604e-11
4.78630092e-02 1.10872261e-11 1.09990604e-11 8.81656705e-14 1.55015851e-55 7.36083319e-57 1.09990604e-11
5.49540874e-02 1.11034508e-11 1.09990604e-11 1.04390332e-13 2.59689239e-49 1.53434026e-50 1.09990604e-11
6.30957344e-02 1.11146607e-11 1.09990604e-11 1.15600275e-13 8.45340556e-44 5.93090318e-45 1.09990604e-11
7.24435960e-02 1.11092653e-11 1.09990604e-11 1.10204905e-13 4.89650472e-39 3.29965908e-40 1.09990604e-11
8.31763771e-02 1.11060172e-11 1.09990604e-11 1.06956777e-13 5.01646778e-35 3.36431611e-36 1.09990604e-11
9.54992586e-02 1.11111348e-11 1.09990604e-11 1.12074341e-13 1.41609271e-31 9.96624347e-33 1.09990604e-11
1.09647820e-01 1.06187081e-11 1.05040253e-11 1.14682762e-13 1.20141902e-28 8.91255112e-30 1.05040253e-11
1.25892541e-01 9.90897593e-12 9.80292679e-12 1.06049138e-13 3.88086154e-26 2.75605506e-27 9.80292679e-12
1.44543977e-01 9.24220436e-12 9.14862359e-12 9.35807663e-14 5.27243036e-24 3.58636763e-25 9.14862359e-12
1.65958691e-01 8.63145283e-12 8.53799231e-12 9.34605152e-14 2.67492336e-22 2.00777963e-23 8.53799231e-12
1.90546072e-01 8.07201050e-12 7.96811805e-12 1.03892446e-13 5.66595360e-21 5.10456144e-22 7.96811805e-12
2.18776162e-01 7.53751725e-12 7.43628044e-12 1.01236748e-13 6.74133266e-20 6.53322436e-21 7.43628044e-12
2.51188643e-01 7.05287435e-12 6.93994070e-12 1.12932828e-13 8.18878370e-19 9.32322873e-20 6.93994070e-12
2.88403150e-01 6.57868654e-12 6.47672950e-12 1.01950233e-13 6.80464629e-18 7.60863304e-19 6.47672950e-12
3.31131121e-01 6.13732438e-12 6.04443567e-12 9.28498523e-14 3.88611573e-17 4.15773034e-18 6.04443567e-12
3.80189396e-01 5.72332127e-12 5.64099558e-12 8.21641492e-14 1.61535647e-16 1.66732042e-17 5.64099558e-12
4.36515832e-01 5.33988005e-12 5.26448339e-12 7.48864201e-14 5.10239986e-16 5.12840109e-17 5.26448339e-12
5.01187234e-01 4.98341256e-12 4.91310176e-12 6.90323629e-14 1.27843261e-15 1.27828134e-16 4.91310176e-12
5.75439937e-01 4.65140427e-12 4.58517335e-12 6.35581286e-14 2.67278829e-15 2.66803035e-16 4.58517335e-12
6.60693448e-01 4.34107180e-12 4.27913275e-12 5.69994514e-14 4.93959693e-15 5.00971692e-16 4.27913275e-12
7.58577575e-01 4.05407184e-12 3.99351904e-12 5.17710061e-14 8.78179770e-15 9.23722810e-16 3.99351904e-12
8.70963590e-01 3.78727892e-12 3.72696882e-12 4.42827393e-14 1.60273583e-14 1.76593029e-15 3.72696882e-12
1.00000000e+00 3.54702881e-12 3.47820968e-12 3.82316765e-14 3.05874542e-14 3.49201176e-15 3.47820968e-12
1.14815362e+00 3.33812492e-12 3.24605414e-12 3.17280506e-14 6.03427221e-14 6.74496582e-15 3.24605414e-12
1.31825674e+00 3.17242549e-12 3.02939399e-12 2.53560492e-14 1.17675447e-13 1.22014583e-14 3.02939399e-12
1.51356125e+00 3.06394392e-12 2.82719497e-12 2.11582530e-14 2.15590700e-13 2.00818529e-14 2.82719497e-12
1.73780083e+00 3.01260347e-12 2.63849186e-12 1.56839841e-14 3.58427624e-13 2.86813382e-14 2.63849186e-12
1.99526231e+00 3.01303447e-12 2.46238388e-12 1.20086466e-14 5.38641938e-13 3.57418158e-14 2.46238388e-12
2.29086765e+00 3.04002179e-12 2.29803035e-12 8.63124771e-15 7.33360196e-13 3.86312995e-14 2.29803035e-12
2.63026799e+00 3.06003584e-12 2.14464670e-12 6.08508217e-15 9.09304055e-13 3.75700741e-14 2.14464670e-12
3.01995172e+00 3.05434469e-12 2.00150076e-12 4.30752014e-15 1.04853641e-12 3.32074060e-14 2.00150076e-12
3.46736850e+00 3.00609457e-12 1.86790919e-12 2.91036179e-15 1.13527502e-12 2.69452068e-14 1.86790919e-12
3.98107171e+00 2.90689882e-12 1.74323429e-12 2.03975270e-15 1.16162478e-12 2.03461021e-14 1.74323429e-12
4.57088190e+00 2.76405468e-12 1.62688090e-12 1.29276234e-15 1.13588102e-12 1.39732325e-14 1.62688090e-12
5.24807460e+00 2.42734031e-12 1.34518114e-12 7.55826338e-16 1.08140334e-12 9.24116889e-15 1.34518114e-12
6.02559586e+00 1.89775054e-12 8.88752369e-13 3.13792398e-16 1.00868438e-12 5.63563132e-15 8.88752369e-13
6.70000000e+00 1.59093728e-12 6.46481889e-13 1.60306821e-16 9.44295080e-13 3.67513049e-15 6.46481889e-13
6.92422916e+00 1.51058876e-12 5.85688198e-13 1.29604171e-16 9.24770955e-13 3.20468733e-15 5.85688198e-13
7.15596261e+00 1.44037905e-12 5.30611407e-13 1.02531544e-16 9.09665107e-13 2.74590831e-15 5.30611407e-13
7.39545150e+00 1.39816017e-12 4.80713913e-13 7.64822368e-17 9.17369780e-13 2.34676542e-15 4.80713913e-13
7.64295536e+00 1.41394306e-12 4.35508666e-13 5.55291136e-17 9.78378868e-13 1.98218978e-15 4.35508666e-13
7.89874245e+00 1.51927533e-12 3.94554418e-13 3.40709923e-17 1.12468684e-12 1.63635877e-15 3.94554418e-13
8.16308998e+00 1.69262365e-12 3.57451415e-13 2.06885777e-17 1.33515155e-12 1.32560629e-15 3.57451415e-13
8.43628443e+00 1.93940951e-12 3.23837494e-13 1.15389823e-17 1.61556047e-12 1.03227844e-15 3.23837494e-13
8.71862190e+00 2.11184262e-12 2.93384550e-13 7.50592139e-18 1.81845056e-12 8.12738882e-16 2.93384550e-13
9.01040836e+00 2.27014543e-12 2.65795332e-13 4.61550624e-18 2.00434548e-12 5.94424409e-16 2.65795332e-13
9.31196005e+00 2.40336689e-12 2.40800541e-13 0.00000000e+00 2.16256634e-12 0.00000000e+00 2.40800541e-13
9.62360379e+00 2.35784168e-12 2.18156204e-13 0.00000000e+00 2.13968547e-12 0.00000000e+00 2.18156204e-13
9.94567731e+00 2.21111363e-12 1.97641289e-13 0.00000000e+00 2.01347234e-12 0.00000000e+00 1.97641289e-13
1.02785297e+01 2.02279057e-12 1.79055550e-13 0.00000000e+00 1.84373502e-12 0.00000000e+00 1.79055550e-13
1.06225216e+01 1.85584571e-12 1.62217572e-13 0.00000000e+00 1.69362814e-12 0.00000000e+00 1.62217572e-13
1.09780260e+01 1.66126406e-12 1.46962999e-13 0.00000000e+00 1.51430106e-12 0.00000000e+00 1.46962999e-13
1.13454280e+01 1.49258298e-12 1.33142932e-13 0.00000000e+00 1.35944005e-12 0.00000000e+00 1.33142932e-13
1.17251259e+01 1.35564509e-12 1.20622472e-13 0.00000000e+00 1.23502261e-12 0.00000000e+00 1.20622472e-13
1.21175312e+01 1.23004072e-12 1.09279408e-13 0.00000000e+00 1.12076132e-12 0.00000000e+00 1.09279408e-13
1.25230691e+01 1.11605661e-12 9.90030204e-14 0.00000000e+00 1.01705359e-12 0.00000000e+00 9.90030204e-14
1.29421791e+01 1.01801732e-12 8.96930008e-14 0.00000000e+00 9.28324316e-13 0.00000000e+00 8.96930008e-14
1.33753155e+01 9.32504771e-13 8.12584743e-14 0.00000000e+00 8.51246297e-13 0.00000000e+00 8.12584743e-14
1.38229477e+01 8.74127302e-13 7.36171115e-14 0.00000000e+00 8.00510191e-13 0.00000000e+00 7.36171115e-14
1.42855609e+01 8.42501120e-13 6.66943252e-14 0.00000000e+00 7.75806795e-13 0.00000000e+00 6.66943252e-14
1.47636563e+01 8.45939869e-13 6.04225420e-14 0.00000000e+00 7.85517327e-13 0.00000000e+00 6.04225420e-14
1.52577522e+01 8.61796027e-13 5.47405431e-14 0.00000000e+00 8.07055484e-13 0.00000000e+00 5.47405431e-14
1.57683840e+01 8.83265332e-13 4.95928665e-14 0.00000000e+00 8.33672465e-13 0.00000000e+00 4.95928665e-14
1.62961051e+01 9.03711677e-13 4.49292657e-14 0.00000000e+00 8.58782411e-13 0.00000000e+00 4.49292657e-14
1.68414875e+01 9.25939842e-13 4.07042194e-14 0.00000000e+00 8.85235623e-13 0.00000000e+00 4.07042194e-14
1.74051222e+01 9.36752819e-13 3.68764869e-14 0.00000000e+00 8.99876332e-13 0.00000000e+00 3.68764869e-14
1.79876201e+01 9.39757499e-13 3.34087056e-14 0.00000000e+00 9.06348793e-13 0.00000000e+00 3.34087056e-14
1.85896125e+01 9.26662972e-13 3.02670267e-14 0.00000000e+00 8.96395945e-13 0.00000000e+00 3.02670267e-14
1.92117518e+01 9.02717558e-13 2.74207841e-14 0.00000000e+00 8.75296774e-13 0.00000000e+00 2.74207841e-14
1.98547123e+01 8.71007965e-13 2.48421957e-14 0.00000000e+00 8.46165769e-13 0.00000000e+00 2.48421957e-14
2.05191907e+01 8.35722251e-13 2.25060919e-14 0.00000000e+00 8.13216159e-13 0.00000000e+00 2.25060919e-14
2.12059073e+01 8.00554522e-13 2.03896700e-14 0.00000000e+00 7.80164852e-13 0.00000000e+00 2.03896700e-14
2.19156062e+01 7.69390279e-13 1.84722717e-14 0.00000000e+00 7.50918007e-13 0.00000000e+00 1.84722717e-14
2.26490567e+01 7.38077221e-13 1.67351811e-14 0.00000000e+00 7.21342040e-13 0.00000000e+00 1.67351811e-14
2.34070535e+01 7.10856550e-13 1.51614426e-14 0.00000000e+00 6.95695107e-13 0.00000000e+00 1.51614426e-14
2.41904183e+01 6.85242476e-13 1.37356949e-14 0.00000000e+00 6.71506781e-13 0.00000000e+00 1.37356949e-14
2.50000000e+01 6.57133178e-13 1.24440213e-14 0.00000000e+00 6.44689157e-13 0.00000000e+00 1.24440213e-14
2.75422870e+01 5.79442431e-13 9.30637977e-15 0.00000000e+00 5.70136051e-13 0.00000000e+00 9.30637977e-15
3.16227766e+01 4.69567727e-13 6.14866414e-15 0.00000000e+00 4.63419063e-13 0.00000000e+00 6.14866414e-15
3.63078055e+01 3.61206515e-13 4.06238211e-15 0.00000000e+00 3.57144133e-13 0.00000000e+00 4.06238211e-15
4.16869383e+01 2.58861412e-13 2.68398924e-15 0.00000000e+00 2.56177423e-13 0.00000000e+00 2.68398924e-15
4.78630092e+01 1.73352792e-13 1.77329411e-15 0.00000000e+00 1.71579498e-13 0.00000000e+00 1.77329411e-15
5.49540874e+01 1.09817086e-13 1.17160380e-15 0.00000000e+00 1.08645482e-13 0.00000000e+00 1.17160380e-15
6.30957344e+01 6.64782213e-14 7.74070953e-16 0.00000000e+00 6.57041503e-14 0.00000000e+00 7.74070953e-16
7.24435960e+01 3.88538958e-14 5.11423607e-16 0.00000000e+00 3.83424722e-14 0.00000000e+00 5.11423607e-16
8.31763771e+01 2.21211471e-14 3.37894226e-16 0.00000000e+00 2.17832529e-14 0.00000000e+00 3.37894226e-16
9.54992586e+01 1.23661857e-14 2.23244502e-16 0.00000000e+00 1.21429412e-14 0.00000000e+00 2.23244502e-16
1.09647820e+02 6.82162570e-15 1.47496179e-16 0.00000000e+00 6.67412952e-15 0.00000000e+00 1.47496179e-16
1.25892541e+02 3.76908845e-15 9.74497594e-17 0.00000000e+00 3.67163869e-15 0.00000000e+00 9.74497594e-17
1.44543977e+02 2.07360148e-15 6.43844175e-17 0.00000000e+00 2.00921706e-15 0.00000000e+00 6.43844175e-17
1.65958691e+02 1.09003274e-15 4.25383628e-17 0.00000000e+00 1.04749438e-15 0.00000000e+00 4.25383628e-17
1.90546072e+02 5.75043383e-16 2.81048176e-17 0.00000000e+00 5.46938566e-16 0.00000000e+00 2.81048176e-17
2.18776162e+02 3.03755275e-16 1.85686688e-17 0.00000000e+00 2.85186607e-16 0.00000000e+00 1.85686688e-17
2.51188643e+02 1.60512535e-16 1.22681978e-17 0.00000000e+00 1.48244337e-16 0.00000000e+00 1.22681978e-17
2.88403150e+02 8.48178391e-17 8.10551794e-18 0.00000000e+00 7.67123211e-17 0.00000000e+00 8.10551794e-18
3.31131121e+02 4.49498026e-17 5.35526259e-18 0.00000000e+00 3.95945400e-17 0.00000000e+00 5.35526259e-18
3.80189396e+02 2.38982409e-17 3.53818691e-18 0.00000000e+00 2.03600540e-17 0.00000000e+00 3.53818691e-18
4.36515832e+02 1.27817523e-17 2.33765691e-18 0.00000000e+00 1.04440953e-17 0.00000000e+00 2.33765691e-18
5.01187234e+02 6.88755090e-18 1.54447460e-18 0.00000000e+00 5.34307630e-18 0.00000000e+00 1.54447460e-18
5.75439937e+02 3.74784097e-18 1.02042425e-18 0.00000000e+00 2.72741672e-18 0.00000000e+00 1.02042425e-18
6.60693448e+02 2.06376032e-18 6.74187617e-19 0.00000000e+00 1.38957270e-18 0.00000000e+00 6.74187617e-19
7.58577575e+02 1.15220099e-18 4.45431341e-19 0.00000000e+00 7.06769647e-19 0.00000000e+00 4.45431341e-19
8.70963590e+02 6.53156781e-19 2.94293569e-19 0.00000000e+00 3.58863213e-19 0.00000000e+00 2.94293569e-19
1.00000000e+03 1.81919880e-19 0.00000000e+00 0.00000000e+00 1.81919880e-19 0.00000000e+00 0.00000000e+00
