# column 1: lambda (micron)
# column 2: total flux; lambda*F_lambda (W/m2)
# column 3: direct stellar flux; lambda*F_lambda (W/m2)
# column 4: scattered stellar flux; lambda*F_lambda (W/m2)
# column 5: total dust emission flux; lambda*F_lambda (W/m2)
# column 6: dust emission scattered flux; lambda*F_lambda (W/m2)
# column 7: transparent flux; lambda*F_lambda (W/m2)
1.00000000e-03 6.93829149e-13 6.93829075e-13 7.37295339e-20 0.00000000e+00 0.00000000e+00 6.93993746e-13
1.14815362e-03 8.18878471e-13 8.18878363e-13 1.08034852e-19 0.00000000e+00 0.00000000e+00 8.19135139e-13
1.31825674e-03 9.66456965e-13 9.66456786e-13 1.78294861e-19 0.00000000e+00 0.00000000e+00 9.66842108e-13
1.51356125e-03 1.14064780e-12 1.14064751e-12 2.89074743e-19 0.00000000e+00 0.00000000e+00 1.14118369e-12
1.73780083e-03 1.34632373e-12 1.34632326e-12 4.77446059e-19 0.00000000e+00 0.00000000e+00 1.34696266e-12
1.99526231e-03 1.58884818e-12 1.58884730e-12 8.87897592e-19 0.00000000e+00 0.00000000e+00 1.58984782e-12
2.29086765e-03 1.87527925e-12 1.87527792e-12 1.33818744e-18 0.00000000e+00 0.00000000e+00 1.87653019e-12
2.63026799e-03 2.21313908e-12 2.21313615e-12 2.93134666e-18 0.00000000e+00 0.00000000e+00 2.21490731e-12
3.01995172e-03 2.61172080e-12 2.61171551e-12 5.29139680e-18 0.00000000e+00 0.00000000e+00 2.61430080e-12
3.46736850e-03 3.08212500e-12 3.08211682e-12 8.17326313e-18 0.00000000e+00 0.00000000e+00 3.08571319e-12
3.98107171e-03 3.63728680e-12 3.63727243e-12 1.43680114e-17 0.00000000e+00 0.00000000e+00 3.64213095e-12
4.57088190e-03 4.29508473e-12 4.29505621e-12 2.85120772e-17 0.00000000e+00 0.00000000e+00 4.29888232e-12
5.24807460e-03 5.06834138e-12 5.06829218e-12 4.92032693e-17 0.00000000e+00 0.00000000e+00 5.07405951e-12
6.02559586e-03 5.98090553e-12 5.98081022e-12 9.53158172e-17 0.00000000e+00 0.00000000e+00 5.98901715e-12
6.91830971e-03 7.05794000e-12 7.05778184e-12 1.58155387e-16 0.00000000e+00 0.00000000e+00 7.06896053e-12
7.94328235e-03 8.32939101e-12 8.32892081e-12 4.70200473e-16 1.34272362e-303 1.38732406e-306 8.34363998e-12
9.12010839e-03 9.83387066e-12 9.82889315e-12 4.97750912e-15 5.86469102e-265 1.01496153e-267 9.84817045e-12
1.04712855e-02 1.09817261e-11 1.09761568e-11 5.56930647e-15 2.47071958e-231 5.89658644e-234 1.09990604e-11
1.20226443e-02 1.09800353e-11 1.09748066e-11 5.22869145e-15 3.85934675e-202 1.32211900e-204 1.09990604e-11
1.38038426e-02 1.09802889e-11 1.09732053e-11 7.08357913e-15 1.04881090e-176 4.56710404e-179 1.09990604e-11
1.58489319e-02 1.09786802e-11 1.09712377e-11 7.44244658e-15 1.41661226e-154 8.70939131e-157 1.09990604e-11
1.81970086e-02 1.09788785e-11 1.09694233e-11 9.45516429e-15 2.51915268e-135 1.54473843e-137 1.09990604e-11
2.08929613e-02 1.09775706e-11 1.09679154e-11 9.65524854e-15 1.31435788e-118 1.07589646e-120 1.09990604e-11
2.39883292e-02 1.09780482e-11 1.09659619e-11 1.20863401e-14 4.60998783e-104 5.15328661e-106 1.09990604e-11
2.75422870e-02 1.09767077e-11 1.09636901e-11 1.30175958e-14 2.06420823e-91 3.10512700e-93 1.09990604e-11
3.16227766e-02 1.09759883e-11 1.09614637e-11 1.45245861e-14 2.01189546e-80 3.65338768e-82 1.09990604e-11
3.63078055e-02 1.09761532e-11 1.09597177e-11 1.64354236e-14 6.97582559e-71 1.46508455e-72 1.09990604e-11
4.16869383e-02 1.09770760e-11 1.09582078e-11 1.88681227e-14 1.33008671e-62 3.89000114e-64 1.09990604e-11
4.78630092e-02 1.09779428e-11 1.09540469e-11 2.38958747e-14 2.01336483e-55 7.55770153e-57 1.09990604e-11
5.49540874e-02 1.09765968e-11 1.09482630e-11 2.83337854e-14 3.35572795e-49 1.54691458e-50 1.09990604e-11
6.30957344e-02 1.09693879e-11 1.09337732e-11 3.56146891e-14 1.08821806e-43 6.02589013e-45 1.09990604e-11
7.24435960e-02 1.09529276e-11 1.09166347e-11 3.62929001e-14 6.30669062e-39 3.44491254e-40 1.09990604e-11
8.31763771e-02 1.09541768e-11 1.09181587e-11 3.60181533e-14 6.44509828e-35 3.41349650e-36 1.09990604e-11
9.54992586e-02 1.09586800e-11 1.09226297e-11 3.60503421e-14 1.81594462e-31 1.00493175e-32 1.09990604e-11
1.09647820e-01 1.04786215e-11 1.04433524e-11 3.52691181e-14 1.53940307e-28 9.11489588e-30 1.05040253e-11
1.25892541e-01 9.78683006e-12 9.75629333e-12 3.05367288e-14 4.96857388e-26 2.77528453e-27 9.80292679e-12
1.44543977e-01 9.13806354e-12 9.11253647e-12 2.55270711e-14 6.73917030e-24 3.49035979e-25 9.14862359e-12
1.65958691e-01 8.53468601e-12 8.50853152e-12 2.61544876e-14 3.40870498e-22 1.92886633e-23 8.53799231e-12
1.90546072e-01 7.96909021e-12 7.93878903e-12 3.03011692e-14 7.18241712e-21 4.84743033e-22 7.96811805e-12
2.18776162e-01 7.43327613e-12 7.40418317e-12 2.90928773e-14 8.52502236e-20 6.20330724e-21 7.43628044e-12
2.51188643e-01 6.94906463e-12 6.91597419e-12 3.30894095e-14 1.02967256e-18 8.77261620e-20 6.93994070e-12
2.88403150e-01 6.48804504e-12 6.45815421e-12 2.98822878e-14 8.54145314e-18 6.98314120e-19 6.47672950e-12
3.31131121e-01 6.05496152e-12 6.02932117e-12 2.55915611e-14 4.87853253e-17 3.76291484e-18 6.04443567e-12
3.80189396e-01 5.65143951e-12 5.62860676e-12 2.26298955e-14 2.02848075e-16 1.49860146e-17 5.64099558e-12
4.36515832e-01 5.27508799e-12 5.25441945e-12 2.00283693e-14 6.40171740e-16 4.58013357e-17 5.26448339e-12
5.01187234e-01 4.92483883e-12 4.90503708e-12 1.82105919e-14 1.59115311e-15 1.08592734e-16 4.91310176e-12
5.75439937e-01 4.59872340e-12 4.57877746e-12 1.66860086e-14 3.25993746e-15 2.16052066e-16 4.58517335e-12
6.60693448e-01 4.29500614e-12 4.27410425e-12 1.52008357e-14 5.70105965e-15 3.73418895e-16 4.27913275e-12
7.58577575e-01 4.01296977e-12 3.98961367e-12 1.45078578e-14 8.84824442e-15 5.47417723e-16 3.99351904e-12
8.70963590e-01 3.74841029e-12 3.72400293e-12 1.18200115e-14 1.25873459e-14 7.46005615e-16 3.72696882e-12
1.00000000e+00 3.50296625e-12 3.47599367e-12 1.01664295e-14 1.68061453e-14 9.51230443e-16 3.47820968e-12
1.14815362e+00 3.27552202e-12 3.24442785e-12 8.83876265e-15 2.22554136e-14 1.16212868e-15 3.24605414e-12
1.31825674e+00 3.06544477e-12 3.02822122e-12 6.75321710e-15 3.04703357e-14 1.46273265e-15 3.02939399e-12
1.51356125e+00 2.87551277e-12 2.82635780e-12 5.54363292e-15 4.36113360e-14 1.97703241e-15 2.82719497e-12
1.73780083e+00 2.70597786e-12 2.63790398e-12 4.37730796e-15 6.36965683e-14 2.65775057e-15 2.63849186e-12
1.99526231e+00 2.55652982e-12 2.46197753e-12 3.19708401e-15 9.13552008e-14 3.35268683e-15 2.46238388e-12
2.29086765e+00 2.42489330e-12 2.29775035e-12 2.32590912e-15 1.24817044e-13 3.80777098e-15 2.29803035e-12
2.63026799e+00 2.30666246e-12 2.14445196e-12 1.61478553e-15 1.60595711e-13 3.97048813e-15 2.14464670e-12
3.01995172e+00 2.19584058e-12 2.00136357e-12 1.13972837e-15 1.93337274e-13 3.73898035e-15 2.00150076e-12
3.46736850e+00 2.08774116e-12 1.86781097e-12 7.78916925e-16 2.19151270e-13 3.16270537e-15 1.86790919e-12
3.98107171e+00 1.97657972e-12 1.74316307e-12 4.62153666e-16 2.32954501e-13 2.45800443e-15 1.74323429e-12
4.57088190e+00 1.86231884e-12 1.62682855e-12 3.12057308e-16 2.35178235e-13 1.73355032e-15 1.62688090e-12
5.24807460e+00 1.57286490e-12 1.34514637e-12 1.58465698e-16 2.27560063e-13 1.13460225e-15 1.34518114e-12
6.02559586e+00 1.10260339e-12 8.88733279e-13 7.01064578e-17 2.13800003e-13 6.95205658e-16 8.88752369e-13
6.70000000e+00 8.46433696e-13 6.46469599e-13 3.60712732e-17 1.99928026e-13 4.45585140e-16 6.46481889e-13
6.92422916e+00 7.80710640e-13 5.85677453e-13 2.89291148e-17 1.95004258e-13 3.83094416e-16 5.85688198e-13
7.15596261e+00 7.22634282e-13 5.30601843e-13 2.28372997e-17 1.92009602e-13 3.28274674e-16 5.30611407e-13
7.39545150e+00 6.74364252e-13 4.80705041e-13 1.66687710e-17 1.93642542e-13 2.81472804e-16 4.80713913e-13
7.64295536e+00 6.43561234e-13 4.35499508e-13 1.22061867e-17 2.08049520e-13 2.38230094e-16 4.35508666e-13
7.89874245e+00 6.37371519e-13 3.94543699e-13 8.14658292e-18 2.42819674e-13 2.01623333e-16 3.94554418e-13
8.16308998e+00 6.52275711e-13 3.57438302e-13 4.96011169e-18 2.94832449e-13 1.66267992e-16 3.57451415e-13
8.43628443e+00 6.91920943e-13 3.23820989e-13 2.70980054e-18 3.68097244e-13 1.33695947e-16 3.23837494e-13
8.71862190e+00 7.16074689e-13 2.93366177e-13 1.86857629e-18 4.22706643e-13 1.04555643e-16 2.93384550e-13
9.01040836e+00 7.44576536e-13 2.65775168e-13 1.14823277e-18 4.78800220e-13 7.40876954e-17 2.65795332e-13
9.31196005e+00 7.67429574e-13 2.40779354e-13 0.00000000e+00 5.26650220e-13 0.00000000e+00 2.40800541e-13
9.62360379e+00 7.43679310e-13 2.18136503e-13 0.00000000e+00 5.25542806e-13 0.00000000e+00 2.18156204e-13
9.94567731e+00 6.89038811e-13 1.97624542e-13 0.00000000e+00 4.91414269e-13 0.00000000e+00 1.97641289e-13
1.02785297e+01 6.27554944e-13 1.79041825e-13 0.00000000e+00 4.48513120e-13 0.00000000e+00 1.79055550e-13
1.06225216e+01 5.66013114e-13 1.62206443e-13 0.00000000e+00 4.03806670e-13 0.00000000e+00 1.62217572e-13
1.09780260e+01 5.03370049e-13 1.46954301e-13 0.00000000e+00 3.56415748e-13 0.00000000e+00 1.46962999e-13
1.13454280e+01 4.48008691e-13 1.33136107e-13 0.00000000e+00 3.14872584e-13 0.00000000e+00 1.33142932e-13
1.17251259e+01 4.00466266e-13 1.20617082e-13 0.00000000e+00 2.79849184e-13 0.00000000e+00 1.20622472e-13
1.21175312e+01 3.57803374e-13 1.09275173e-13 0.00000000e+00 2.48528201e-13 0.00000000e+00 1.09279408e-13
1.25230691e+01 3.19259574e-13 9.89997022e-14 0.00000000e+00 2.20259872e-13 0.00000000e+00 9.90030204e-14
1.29421791e+01 2.85710045e-13 8.96903826e-14 0.00000000e+00 1.96019663e-13 0.00000000e+00 8.96930008e-14
1.33753155e+01 2.57538142e-13 8.12563937e-14 0.00000000e+00 1.76281748e-13 0.00000000e+00 8.12584743e-14
1.38229477e+01 2.37015266e-13 7.36153818e-14 0.00000000e+00 1.63399884e-13 0.00000000e+00 7.36171115e-14
1.42855609e+01 2.22686536e-13 6.66928219e-14 0.00000000e+00 1.55993714e-13 0.00000000e+00 6.66943252e-14
1.47636563e+01 2.18526097e-13 6.04211153e-14 0.00000000e+00 1.58104982e-13 0.00000000e+00 6.04225420e-14
1.52577522e+01 2.16699658e-13 5.47391645e-14 0.00000000e+00 1.61960494e-13 0.00000000e+00 5.47405431e-14
1.57683840e+01 2.17211834e-13 4.95915174e-14 0.00000000e+00 1.67620317e-13 0.00000000e+00 4.95928665e-14
1.62961051e+01 2.18471034e-13 4.49279470e-14 0.00000000e+00 1.73543087e-13 0.00000000e+00 4.49292657e-14
1.68414875e+01 2.20331980e-13 4.07029333e-14 0.00000000e+00 1.79629046e-13 0.00000000e+00 4.07042194e-14
1.74051222e+01 2.19438309e-13 3.68752656e-14 0.00000000e+00 1.82563043e-13 0.00000000e+00 3.68764869e-14
1.79876201e+01 2.16888940e-13 3.34075653e-14 0.00000000e+00 1.83481374e-13 0.00000000e+00 3.34087056e-14
1.85896125e+01 2.10407835e-13 3.02659949e-14 0.00000000e+00 1.80141840e-13 0.00000000e+00 3.02670267e-14
1.92117518e+01 2.01604520e-13 2.74198778e-14 0.00000000e+00 1.74184642e-13 0.00000000e+00 2.74207841e-14
1.98547123e+01 1.90615537e-13 2.48414152e-14 0.00000000e+00 1.65774122e-13 0.00000000e+00 2.48421957e-14
2.05191907e+01 1.79832524e-13 2.25054265e-14 0.00000000e+00 1.57327098e-13 0.00000000e+00 2.25060919e-14
2.12059073e+01 1.69790160e-13 2.03891028e-14 0.00000000e+00 1.49401057e-13 0.00000000e+00 2.03896700e-14
2.19156062e+01 1.60707282e-13 1.84717858e-14 0.00000000e+00 1.42235496e-13 0.00000000e+00 1.84722717e-14
2.26490567e+01 1.52071201e-13 1.67347643e-14 0.00000000e+00 1.35336437e-13 0.00000000e+00 1.67351811e-14
2.34070535e+01 1.44540494e-13 1.51610843e-14 0.00000000e+00 1.29379410e-13 0.00000000e+00 1.51614426e-14
2.41904183e+01 1.37323874e-13 1.37353862e-14 0.00000000e+00 1.23588488e-13 0.00000000e+00 1.37356949e-14
2.50000000e+01 1.30822112e-13 1.24437547e-14 0.00000000e+00 1.18378357e-13 0.00000000e+00 1.24440213e-14
2.75422870e+01 1.13051548e-13 9.30620592e-15 0.00000000e+00 1.03745342e-13 0.00000000e+00 9.30637977e-15
3.16227766e+01 9.08982975e-14 6.14856863e-15 0.00000000e+00 8.47497289e-14 0.00000000e+00 6.14866414e-15
3.63078055e+01 7.05153875e-14 4.06232991e-15 0.00000000e+00 6.64530575e-14 0.00000000e+00 4.06238211e-15
4.16869383e+01 5.17011701e-14 2.68396147e-15 0.00000000e+00 4.90172086e-14 0.00000000e+00 2.68398924e-15
4.78630092e+01 3.56713189e-14 1.77327979e-15 0.00000000e+00 3.38980391e-14 0.00000000e+00 1.77329411e-15
5.49540874e+01 2.34035432e-14 1.17159657e-15 0.00000000e+00 2.22319466e-14 0.00000000e+00 1.17160380e-15
6.30957344e+01 1.47259394e-14 7.74067355e-16 0.00000000e+00 1.39518721e-14 0.00000000e+00 7.74070953e-16
7.24435960e+01 8.95111179e-15 5.11421827e-16 0.00000000e+00 8.43968996e-15 0.00000000e+00 5.11423607e-16
8.31763771e+01 5.30065208e-15 3.37893348e-16 0.00000000e+00 4.96275874e-15 0.00000000e+00 3.37894226e-16
9.54992586e+01 3.07970101e-15 2.23244067e-16 0.00000000e+00 2.85645694e-15 0.00000000e+00 2.23244502e-16
1.09647820e+02 1.76356136e-15 1.47495963e-16 0.00000000e+00 1.61606540e-15 0.00000000e+00 1.47496179e-16
1.25892541e+02 1.00928525e-15 9.74496505e-17 0.00000000e+00 9.11835601e-16 0.00000000e+00 9.74497594e-17
1.44543977e+02 5.74693057e-16 6.43843622e-17 0.00000000e+00 5.10308695e-16 0.00000000e+00 6.43844175e-17
1.65958691e+02 3.14039235e-16 4.25383357e-17 0.00000000e+00 2.71500899e-16 0.00000000e+00 4.25383628e-17
1.90546072e+02 1.72373937e-16 2.81048042e-17 0.00000000e+00 1.44269133e-16 0.00000000e+00 2.81048176e-17
2.18776162e+02 9.49519137e-17 1.85686622e-17 0.00000000e+00 7.63832515e-17 0.00000000e+00 1.85686688e-17
2.51188643e+02 5.25005998e-17 1.22681945e-17 0.00000000e+00 4.02324053e-17 0.00000000e+00 1.22681978e-17
2.88403150e+02 2.91642958e-17 8.10551626e-18 0.00000000e+00 2.10587796e-17 0.00000000e+00 8.10551794e-18
3.31131121e+02 1.63326504e-17 5.35526175e-18 0.00000000e+00 1.09773886e-17 0.00000000e+00 5.35526259e-18
3.80189396e+02 9.23154518e-18 3.53818649e-18 0.00000000e+00 5.69335870e-18 0.00000000e+00 3.53818691e-18
4.36515832e+02 5.27990369e-18 2.33765670e-18 0.00000000e+00 2.94224699e-18 0.00000000e+00 2.33765691e-18
5.01187234e+02 3.05939941e-18 1.54447450e-18 0.00000000e+00 1.51492491e-18 0.00000000e+00 1.54447460e-18
5.75439937e+02 1.79803907e-18 1.02042420e-18 0.00000000e+00 7.77614872e-19 0.00000000e+00 1.02042425e-18
6.60693448e+02 1.07227801e-18 6.74187590e-19 0.00000000e+00 3.98090417e-19 0.00000000e+00 6.74187617e-19
7.58577575e+02 6.48756444e-19 4.45431328e-19 0.00000000e+00 2.03325117e-19 0.00000000e+00 4.45431341e-19
8.70963590e+02 3.97905751e-19 2.94293562e-19 0.00000000e+00 1.03612189e-19 0.00000000e+00 2.94293569e-19
1.00000000e+03 5.26891191e-20 0.00000000e+00 0.00000000e+00 5.26891191e-20 0.00000000e+00 0.00000000e+00
