# column 1: lambda (micron)
# column 2: total flux; lambda*F_lambda (W/m2)
# column 3: direct stellar flux; lambda*F_lambda (W/m2)
# column 4: scattered stellar flux; lambda*F_lambda (W/m2)
# column 5: total dust emission flux; lambda*F_lambda (W/m2)
# column 6: dust emission scattered flux; lambda*F_lambda (W/m2)
# column 7: transparent flux; lambda*F_lambda (W/m2)
1.00000000e-03 9.68006353e-13 9.68005111e-13 1.24162788e-18 0.00000000e+00 0.00000000e+00 9.68073281e-13
1.14815362e-03 1.14253247e-12 1.14253057e-12 1.89930131e-18 0.00000000e+00 0.00000000e+00 1.14263687e-12
1.31825674e-03 1.34852136e-12 1.34851835e-12 3.00405710e-18 0.00000000e+00 0.00000000e+00 1.34867788e-12
1.51356125e-03 1.59165506e-12 1.59165034e-12 4.71932433e-18 0.00000000e+00 0.00000000e+00 1.59187233e-12
1.73780083e-03 1.87866338e-12 1.87865504e-12 8.34232396e-18 0.00000000e+00 0.00000000e+00 1.87891976e-12
1.99526231e-03 2.21732814e-12 2.21731351e-12 1.46228249e-17 0.00000000e+00 0.00000000e+00 2.21772777e-12
2.29086765e-03 2.61713383e-12 2.61711135e-12 2.24739921e-17 0.00000000e+00 0.00000000e+00 2.61762985e-12
2.63026799e-03 3.08895490e-12 3.08890916e-12 4.57409737e-17 0.00000000e+00 0.00000000e+00 3.08964252e-12
3.01995172e-03 3.64577589e-12 3.64569829e-12 7.75946830e-17 0.00000000e+00 0.00000000e+00 3.64676883e-12
3.46736850e-03 4.30300013e-12 4.30286720e-12 1.32933508e-16 0.00000000e+00 0.00000000e+00 4.30435650e-12
3.98107171e-03 5.07872301e-12 5.07850870e-12 2.14307859e-16 0.00000000e+00 0.00000000e+00 5.08052080e-12
4.57088190e-03 5.99552922e-12 5.99505925e-12 4.69964493e-16 0.00000000e+00 0.00000000e+00 5.99664354e-12
5.24807460e-03 7.07641392e-12 7.07557381e-12 8.40103766e-16 0.00000000e+00 0.00000000e+00 7.07796211e-12
6.02559586e-03 8.35246133e-12 8.35086590e-12 1.59542693e-15 0.00000000e+00 0.00000000e+00 8.35426474e-12
6.91830971e-03 9.85850601e-12 9.85608116e-12 2.42485354e-15 0.00000000e+00 0.00000000e+00 9.86071107e-12
7.94328235e-03 1.16369817e-11 1.16327041e-11 4.27766470e-15 4.60062896e-304 5.25735422e-307 1.16388008e-11
9.12010839e-03 1.37367122e-11 1.37295315e-11 7.18065613e-15 2.01077021e-265 3.93482390e-268 1.37375167e-11
1.04712855e-02 1.53429791e-11 1.53334409e-11 9.53813387e-15 8.46989630e-232 1.74769984e-234 1.53429287e-11
1.20226443e-02 1.53476905e-11 1.53328812e-11 1.48093686e-14 1.32349221e-202 4.08294698e-205 1.53429287e-11
1.38038426e-02 1.53593286e-11 1.53322172e-11 2.71113962e-14 3.60155598e-177 1.79800546e-179 1.53429287e-11
1.58489319e-02 1.53617762e-11 1.53314014e-11 3.03747819e-14 4.86718792e-155 3.38342698e-157 1.53429287e-11
1.81970086e-02 1.53719122e-11 1.53306489e-11 4.12632170e-14 8.67085351e-136 7.28283971e-138 1.53429287e-11
2.08929613e-02 1.53917981e-11 1.53300235e-11 6.17745839e-14 4.53495324e-119 5.69659149e-121 1.53429287e-11
2.39883292e-02 1.54102360e-11 1.53292132e-11 8.10227785e-14 1.59203611e-104 2.56988476e-106 1.53429287e-11
2.75422870e-02 1.54295880e-11 1.53282708e-11 1.01317279e-13 7.14577425e-92 1.57285170e-93 1.53429287e-11
3.16227766e-02 1.54519368e-11 1.53273470e-11 1.24589821e-13 6.98678790e-81 1.94965139e-82 1.53429287e-11
3.63078055e-02 1.54753922e-11 1.53266225e-11 1.48769677e-13 2.42467645e-71 7.60653746e-73 1.53429287e-11
4.16869383e-02 1.55283954e-11 1.53259959e-11 2.02399487e-13 4.64388502e-63 2.02468678e-64 1.53429287e-11
4.78630092e-02 1.55953508e-11 1.53242687e-11 2.71082015e-13 7.07819472e-56 4.09811812e-57 1.53429287e-11
5.49540874e-02 1.56487358e-11 1.53218672e-11 3.26868610e-13 1.18624131e-49 8.40727561e-51 1.53429287e-11
6.30957344e-02 1.56848676e-11 1.53158469e-11 3.69020697e-13 3.86536161e-44 3.21073531e-45 1.53429287e-11
7.24435960e-02 1.56591404e-11 1.53087188e-11 3.50421634e-13 2.23687907e-39 1.77817959e-40 1.53429287e-11
8.31763771e-02 1.56527451e-11 1.53093530e-11 3.43392174e-13 2.29012358e-35 1.82496575e-36 1.53429287e-11
9.54992586e-02 1.56719281e-11 1.53112131e-11 3.60715049e-13 6.45623899e-32 5.34866043e-33 1.53429287e-11
1.09647820e-01 1.50070721e-11 1.46272226e-11 3.79849488e-13 5.48019379e-29 4.86755229e-30 1.46523889e-11
1.25892541e-01 1.39977921e-11 1.36550690e-11 3.42723114e-13 1.76771762e-26 1.51862368e-27 1.36744049e-11
1.44543977e-01 1.30569895e-11 1.27467384e-11 3.10251072e-13 2.39370508e-24 1.94395536e-25 1.27616972e-11
1.65958691e-01 1.22155528e-11 1.18976989e-11 3.17853904e-13 1.21498715e-22 1.08705893e-23 1.19099088e-11
1.90546072e-01 1.14502952e-11 1.11028173e-11 3.47477873e-13 2.57849333e-21 2.73866819e-22 1.11149736e-11
2.18776162e-01 1.06944835e-11 1.03597903e-11 3.34693223e-13 3.06852052e-20 3.46768126e-21 1.03730969e-11
2.51188643e-01 1.00541896e-11 9.67080450e-12 3.83384692e-13 3.74590269e-19 5.05369246e-20 9.68073733e-12
2.88403150e-01 9.37673536e-12 9.02689287e-12 3.49839384e-13 3.10513990e-18 4.08332362e-19 9.03458975e-12
3.31131121e-01 8.73760465e-12 8.42530769e-12 3.12279229e-13 1.77297969e-17 2.25219398e-18 8.43156974e-12
3.80189396e-01 8.14628439e-12 7.86366649e-12 2.82544251e-13 7.36454915e-17 8.97079283e-18 7.86879872e-12
4.36515832e-01 7.59681115e-12 7.33942155e-12 2.57154123e-13 2.35481861e-16 2.89302531e-17 7.34359025e-12
5.01187234e-01 7.08895529e-12 6.85009694e-12 2.38240713e-13 6.17634421e-16 7.97022169e-17 6.85343719e-12
5.75439937e-01 6.61120790e-12 6.39335089e-12 2.16362875e-13 1.49412961e-15 2.23195515e-16 6.39599973e-12
6.60693448e-01 6.16407044e-12 5.96701188e-12 1.93204458e-13 3.85410023e-15 7.13180838e-16 5.96909425e-12
7.58577575e-01 5.75491102e-12 5.56906573e-12 1.74849580e-13 1.09957174e-14 2.33648757e-15 5.57068288e-12
8.70963590e-01 5.38008535e-12 5.19763571e-12 1.50910107e-13 3.15395317e-14 6.88105307e-15 5.19886376e-12
1.00000000e+00 5.06567373e-12 4.85094446e-12 1.31467845e-13 8.32614268e-14 1.75605512e-14 4.85186196e-12
1.14815362e+00 4.83430677e-12 4.52734773e-12 1.09157441e-13 1.97801595e-13 3.85776308e-14 4.52802104e-12
1.31825674e+00 4.73495750e-12 4.22530959e-12 8.59523872e-14 4.23695524e-13 7.27071693e-14 4.22579511e-12
1.51356125e+00 4.82306837e-12 3.94339489e-12 6.74860231e-14 8.12187457e-13 1.20296030e-13 3.94374146e-12
1.73780083e+00 5.11054191e-12 3.68027031e-12 5.20510771e-14 1.37822052e-12 1.71950030e-13 3.68051368e-12
1.99526231e+00 5.57550976e-12 3.43468701e-12 3.86029245e-14 2.10221983e-12 2.11569194e-13 3.43485522e-12
2.29086765e+00 6.13788963e-12 3.20547750e-12 2.80768563e-14 2.90433527e-12 2.29543978e-13 3.20559341e-12
2.63026799e+00 6.69898345e-12 2.99155322e-12 2.04334227e-14 3.68699680e-12 2.25884270e-13 2.99163384e-12
3.01995172e+00 7.16488167e-12 2.79189836e-12 1.43602058e-14 4.35862310e-12 2.01046152e-13 2.79195514e-12
3.46736850e+00 7.48322469e-12 2.60556349e-12 9.85817341e-15 4.86780303e-12 1.67033792e-13 2.60560415e-12
3.98107171e+00 7.63687823e-12 2.43166179e-12 6.68863461e-15 5.19852780e-12 1.28559434e-13 2.43169128e-12
4.57088190e+00 7.59124353e-12 2.26936467e-12 4.44924890e-15 5.31742961e-12 9.30009737e-14 2.26938634e-12
5.24807460e+00 7.17891871e-12 1.87642028e-12 2.49840317e-15 5.30000004e-12 6.30302171e-14 1.87643467e-12
6.02559586e+00 6.42969590e-12 1.23974019e-12 1.06856717e-15 5.18888715e-12 4.00962785e-14 1.23974809e-12
6.70000000e+00 5.95539343e-12 9.01792440e-13 5.48255881e-16 5.05305274e-12 2.72329950e-14 9.01797527e-13
6.92422916e+00 5.80077743e-12 8.16990084e-13 4.39393539e-16 4.98334796e-12 2.38680651e-14 8.16994532e-13
7.15596261e+00 5.69925733e-12 7.40162259e-13 3.45892634e-16 4.95874918e-12 2.07698507e-14 7.40166218e-13
7.39545150e+00 5.67175828e-12 6.70558992e-13 2.65796676e-16 5.00093349e-12 1.77561560e-14 6.70562664e-13
7.64295536e+00 5.86189704e-12 6.07500680e-13 1.86944072e-16 5.25420942e-12 1.48594126e-14 6.07504471e-13
7.89874245e+00 6.37071178e-12 5.50371690e-13 1.15516198e-16 5.82022457e-12 1.18394303e-14 5.50376127e-13
8.16308998e+00 7.07364316e-12 4.98614576e-13 6.87589088e-17 6.57495983e-12 9.30681190e-15 4.98620004e-13
8.43628443e+00 8.06163566e-12 4.51724076e-13 3.74833574e-17 7.60987410e-12 6.99287378e-15 4.51730909e-13
8.71862190e+00 8.71730225e-12 4.09243552e-13 2.31319061e-17 8.30803557e-12 5.44368101e-15 4.09251158e-13
9.01040836e+00 9.33205259e-12 3.70757759e-13 1.39424734e-17 8.96128089e-12 4.06473457e-15 3.70766106e-13
9.31196005e+00 9.81171521e-12 3.35891331e-13 0.00000000e+00 9.47582388e-12 0.00000000e+00 3.35900102e-13
9.62360379e+00 9.76442325e-12 3.04304663e-13 0.00000000e+00 9.46011859e-12 0.00000000e+00 3.04312818e-13
9.94567731e+00 9.31329281e-12 2.75688998e-13 0.00000000e+00 9.03760381e-12 0.00000000e+00 2.75695930e-13
1.02785297e+01 8.75689035e-12 2.49764428e-13 0.00000000e+00 8.50712592e-12 0.00000000e+00 2.49770110e-13
1.06225216e+01 8.25289343e-12 2.26277688e-13 0.00000000e+00 8.02661575e-12 0.00000000e+00 2.26282295e-13
1.09780260e+01 7.69496552e-12 2.04999620e-13 0.00000000e+00 7.48996590e-12 0.00000000e+00 2.05003220e-13
1.13454280e+01 7.16583208e-12 1.85722357e-13 0.00000000e+00 6.98010972e-12 0.00000000e+00 1.85725182e-13
1.17251259e+01 6.74534013e-12 1.68257776e-13 0.00000000e+00 6.57708235e-12 0.00000000e+00 1.68260007e-13
1.21175312e+01 6.33406056e-12 1.52435464e-13 0.00000000e+00 6.18162509e-12 0.00000000e+00 1.52437217e-13
1.25230691e+01 5.92083896e-12 1.38100993e-13 0.00000000e+00 5.78273796e-12 0.00000000e+00 1.38102367e-13
1.29421791e+01 5.56213186e-12 1.25114449e-13 0.00000000e+00 5.43701741e-12 0.00000000e+00 1.25115533e-13
1.33753155e+01 5.24728517e-12 1.13349091e-13 0.00000000e+00 5.13393608e-12 0.00000000e+00 1.13349952e-13
1.38229477e+01 5.03672322e-12 1.02690063e-13 0.00000000e+00 4.93403316e-12 0.00000000e+00 1.02690779e-13
1.42855609e+01 4.92013008e-12 9.30333490e-14 0.00000000e+00 4.82709673e-12 0.00000000e+00 9.30339713e-14
1.47636563e+01 4.97108188e-12 8.42846769e-14 0.00000000e+00 4.88679721e-12 0.00000000e+00 8.42852675e-14
1.52577522e+01 5.06146031e-12 7.63587013e-14 0.00000000e+00 4.98510161e-12 0.00000000e+00 7.63592720e-14
1.57683840e+01 5.14649222e-12 6.91780606e-14 0.00000000e+00 5.07731416e-12 0.00000000e+00 6.91786191e-14
1.62961051e+01 5.25350018e-12 6.26726727e-14 0.00000000e+00 5.19082751e-12 0.00000000e+00 6.26732185e-14
1.68414875e+01 5.35314006e-12 5.67790387e-14 0.00000000e+00 5.29636102e-12 0.00000000e+00 5.67795711e-14
1.74051222e+01 5.38125576e-12 5.14396434e-14 0.00000000e+00 5.32981611e-12 0.00000000e+00 5.14401489e-14
1.79876201e+01 5.34086836e-12 4.66023619e-14 0.00000000e+00 5.29426600e-12 0.00000000e+00 4.66028339e-14
1.85896125e+01 5.27137330e-12 4.22199819e-14 0.00000000e+00 5.22915332e-12 0.00000000e+00 4.22204090e-14
1.92117518e+01 5.14668483e-12 3.82497223e-14 0.00000000e+00 5.10843511e-12 0.00000000e+00 3.82500974e-14
1.98547123e+01 4.97789950e-12 3.46528219e-14 0.00000000e+00 4.94324668e-12 0.00000000e+00 3.46531450e-14
2.05191907e+01 4.77911315e-12 3.13941663e-14 0.00000000e+00 4.74771899e-12 0.00000000e+00 3.13944418e-14
2.12059073e+01 4.56090251e-12 2.84419448e-14 0.00000000e+00 4.53246057e-12 0.00000000e+00 2.84421796e-14
2.19156062e+01 4.38730325e-12 2.57673404e-14 0.00000000e+00 4.36153591e-12 0.00000000e+00 2.57675415e-14
2.26490567e+01 4.18794575e-12 2.33442478e-14 0.00000000e+00 4.16460151e-12 0.00000000e+00 2.33444203e-14
2.34070535e+01 4.00538738e-12 2.11490156e-14 0.00000000e+00 3.98423837e-12 0.00000000e+00 2.11491639e-14
2.41904183e+01 3.82021473e-12 1.91602167e-14 0.00000000e+00 3.80105452e-12 0.00000000e+00 1.91603445e-14
2.50000000e+01 3.64854845e-12 1.73584388e-14 0.00000000e+00 3.63119001e-12 0.00000000e+00 1.73585491e-14
2.75422870e+01 3.12952394e-12 1.29816842e-14 0.00000000e+00 3.11654225e-12 0.00000000e+00 1.29817562e-14
3.16227766e+01 2.41237650e-12 8.57692172e-15 0.00000000e+00 2.40379957e-12 0.00000000e+00 8.57696126e-15
3.63078055e+01 1.75968382e-12 5.66672050e-15 0.00000000e+00 1.75401710e-12 0.00000000e+00 5.66674211e-15
4.16869383e+01 1.20323961e-12 3.74396788e-15 0.00000000e+00 1.19949565e-12 0.00000000e+00 3.74397938e-15
4.78630092e+01 7.71765429e-13 2.47361672e-15 0.00000000e+00 7.69291812e-13 0.00000000e+00 2.47362265e-15
5.49540874e+01 4.69720548e-13 1.63430328e-15 0.00000000e+00 4.68086245e-13 0.00000000e+00 1.63430628e-15
6.30957344e+01 2.74170811e-13 1.07977396e-15 0.00000000e+00 2.73091037e-13 0.00000000e+00 1.07977545e-15
7.24435960e+01 1.54964132e-13 7.13399827e-16 0.00000000e+00 1.54250732e-13 0.00000000e+00 7.13400564e-16
8.31763771e+01 8.54185815e-14 4.71338715e-16 0.00000000e+00 8.49472428e-14 0.00000000e+00 4.71339078e-16
9.54992586e+01 4.63782789e-14 3.11410461e-16 0.00000000e+00 4.60668684e-14 0.00000000e+00 3.11410641e-16
1.09647820e+02 2.49225025e-14 2.05746881e-16 0.00000000e+00 2.47167557e-14 0.00000000e+00 2.05746970e-16
1.25892541e+02 1.34354512e-14 1.35935630e-16 0.00000000e+00 1.32995156e-14 0.00000000e+00 1.35935675e-16
1.44543977e+02 7.22993246e-15 8.98117870e-17 0.00000000e+00 7.14012067e-15 0.00000000e+00 8.98118099e-17
1.65958691e+02 3.71928100e-15 5.93380631e-17 0.00000000e+00 3.65994294e-15 0.00000000e+00 5.93380743e-17
1.90546072e+02 1.92182311e-15 3.92042714e-17 0.00000000e+00 1.88261884e-15 0.00000000e+00 3.92042769e-17
2.18776162e+02 9.94805448e-16 2.59020061e-17 0.00000000e+00 9.68903442e-16 0.00000000e+00 2.59020089e-17
2.51188643e+02 5.15058212e-16 1.71132862e-17 0.00000000e+00 4.97944926e-16 0.00000000e+00 1.71132876e-17
2.88403150e+02 2.66428610e-16 1.13066363e-17 0.00000000e+00 2.55121973e-16 0.00000000e+00 1.13066370e-17
3.31131121e+02 1.38015554e-16 7.47022062e-18 0.00000000e+00 1.30545333e-16 0.00000000e+00 7.47022097e-18
3.80189396e+02 7.15618888e-17 4.93552587e-18 0.00000000e+00 6.66263629e-17 0.00000000e+00 4.93552605e-18
4.36515832e+02 3.72154424e-17 3.26086964e-18 0.00000000e+00 3.39545727e-17 0.00000000e+00 3.26086972e-18
5.01187234e+02 1.94270510e-17 2.15443522e-18 0.00000000e+00 1.72726158e-17 0.00000000e+00 2.15443526e-18
5.75439937e+02 1.01968980e-17 1.42342124e-18 0.00000000e+00 8.77347679e-18 0.00000000e+00 1.42342126e-18
6.60693448e+02 5.39121534e-18 9.40445090e-19 0.00000000e+00 4.45077025e-18 0.00000000e+00 9.40445101e-19
7.58577575e+02 2.87670748e-18 6.21345911e-19 0.00000000e+00 2.25536157e-18 0.00000000e+00 6.21345916e-19
8.70963590e+02 1.55198160e-18 4.10519173e-19 0.00000000e+00 1.14146243e-18 0.00000000e+00 4.10519176e-19
1.00000000e+03 5.77018060e-19 0.00000000e+00 0.00000000e+00 5.77018060e-19 0.00000000e+00 0.00000000e+00
