# column 1: lambda (micron)
# column 2: total flux; lambda*F_lambda (W/m2)
# column 3: direct stellar flux; lambda*F_lambda (W/m2)
# column 4: scattered stellar flux; lambda*F_lambda (W/m2)
# column 5: total dust emission flux; lambda*F_lambda (W/m2)
# column 6: dust emission scattered flux; lambda*F_lambda (W/m2)
# column 7: transparent flux; lambda*F_lambda (W/m2)
1.00000000e-03 1.04634394e-12 1.04634360e-12 3.31564560e-19 0.00000000e+00 0.00000000e+00 1.04634360e-12
1.14815362e-03 1.23502146e-12 1.23502095e-12 5.14572328e-19 0.00000000e+00 0.00000000e+00 1.23502095e-12
1.31825674e-03 1.45772150e-12 1.45772071e-12 7.84293570e-19 0.00000000e+00 0.00000000e+00 1.45772071e-12
1.51356125e-03 1.72057904e-12 1.72057784e-12 1.20451179e-18 0.00000000e+00 0.00000000e+00 1.72057784e-12
1.73780083e-03 2.03083565e-12 2.03083353e-12 2.12726805e-18 0.00000000e+00 0.00000000e+00 2.03083353e-12
1.99526231e-03 2.39703868e-12 2.39703472e-12 3.96479569e-18 0.00000000e+00 0.00000000e+00 2.39703472e-12
2.29086765e-03 2.82927544e-12 2.82926954e-12 5.89567881e-18 0.00000000e+00 0.00000000e+00 2.82926954e-12
2.63026799e-03 3.33945705e-12 3.33944522e-12 1.18246938e-17 0.00000000e+00 0.00000000e+00 3.33944522e-12
3.01995172e-03 3.94163612e-12 3.94161611e-12 2.00132468e-17 0.00000000e+00 0.00000000e+00 3.94161611e-12
3.46736850e-03 4.65240339e-12 4.65237083e-12 3.25601462e-17 0.00000000e+00 0.00000000e+00 4.65237083e-12
3.98107171e-03 5.49134057e-12 5.49128930e-12 5.12736248e-17 0.00000000e+00 0.00000000e+00 5.49128930e-12
4.57088190e-03 6.48159997e-12 6.48148207e-12 1.17892197e-16 0.00000000e+00 0.00000000e+00 6.48148207e-12
5.24807460e-03 7.65047488e-12 7.65022704e-12 2.47835977e-16 0.00000000e+00 0.00000000e+00 7.65022704e-12
6.02559586e-03 9.03010051e-12 9.02972084e-12 3.79666663e-16 0.00000000e+00 0.00000000e+00 9.02972084e-12
6.91830971e-03 1.06585479e-11 1.06579658e-11 5.82074574e-16 0.00000000e+00 0.00000000e+00 1.06579658e-11
7.94328235e-03 1.25807942e-11 1.25798170e-11 9.77228473e-16 2.31377317e-303 2.07507951e-305 1.25798170e-11
9.12010839e-03 1.48497579e-11 1.48482176e-11 1.54025791e-15 1.15859889e-264 4.59922043e-267 1.48482176e-11
1.04712855e-02 1.65856252e-11 1.65834298e-11 2.19541205e-15 5.53068192e-231 3.14153641e-233 1.65834298e-11
1.20226443e-02 1.65866242e-11 1.65834298e-11 3.19444642e-15 9.68481536e-202 1.24795589e-203 1.65834298e-11
1.38038426e-02 1.65890917e-11 1.65834298e-11 5.66194310e-15 2.87793568e-176 2.72834253e-178 1.65834298e-11
1.58489319e-02 1.65903526e-11 1.65834298e-11 6.92282287e-15 4.23358101e-154 6.36656112e-156 1.65834298e-11
1.81970086e-02 1.65923431e-11 1.65834298e-11 8.91326716e-15 8.08713135e-135 1.25162373e-136 1.65834298e-11
2.08929613e-02 1.65967621e-11 1.65834298e-11 1.33323330e-14 4.49872789e-118 8.85983333e-120 1.65834298e-11
2.39883292e-02 1.65996876e-11 1.65834298e-11 1.62578283e-14 1.66683572e-103 3.94599226e-105 1.65834298e-11
2.75422870e-02 1.66058120e-11 1.65834298e-11 2.23822615e-14 7.82064676e-91 2.15941076e-92 1.65834298e-11
3.16227766e-02 1.66107304e-11 1.65834298e-11 2.73006051e-14 7.95027037e-80 2.57687723e-81 1.65834298e-11
3.63078055e-02 1.66181783e-11 1.65834298e-11 3.47484978e-14 2.85374472e-70 9.87755787e-72 1.65834298e-11
4.16869383e-02 1.66315785e-11 1.65834298e-11 4.81487163e-14 5.62076813e-62 2.47928859e-63 1.65834298e-11
4.78630092e-02 1.66496767e-11 1.65834298e-11 6.62469640e-14 8.73358422e-55 4.63712120e-56 1.65834298e-11
5.49540874e-02 1.66683173e-11 1.65834298e-11 8.48875502e-14 1.48391820e-48 8.77806293e-50 1.65834298e-11
6.30957344e-02 1.66865987e-11 1.65834298e-11 1.03168963e-13 4.85560309e-43 2.98503856e-44 1.65834298e-11
7.24435960e-02 1.66891736e-11 1.65834298e-11 1.05743794e-13 2.82457741e-38 1.50424904e-39 1.65834298e-11
8.31763771e-02 1.66870604e-11 1.65834298e-11 1.03630656e-13 2.93486908e-34 1.52201251e-35 1.65834298e-11
9.54992586e-02 1.66926160e-11 1.65834298e-11 1.09186179e-13 8.40147819e-31 4.58131330e-32 1.65834298e-11
1.09647820e-01 1.59470829e-11 1.58370587e-11 1.10024142e-13 7.27217975e-28 4.61226773e-29 1.58370587e-11
1.25892541e-01 1.48774325e-11 1.47800032e-11 9.74293273e-14 2.39772997e-25 1.58891572e-26 1.47800032e-11
1.44543977e-01 1.38837712e-11 1.37935015e-11 9.02696552e-14 3.30969356e-23 2.23961216e-24 1.37935015e-11
1.65958691e-01 1.29675590e-11 1.28728446e-11 9.47144188e-14 1.70169085e-21 1.32819823e-22 1.28728446e-11
1.90546072e-01 1.21220866e-11 1.20136376e-11 1.08448991e-13 3.61180790e-20 3.24718691e-21 1.20136376e-11
2.18776162e-01 1.13231700e-11 1.12117790e-11 1.11390630e-13 4.26430301e-19 3.70720119e-20 1.12117790e-11
2.51188643e-01 1.05991185e-11 1.04634409e-11 1.35672287e-13 5.27314083e-18 5.94524425e-19 1.04634409e-11
2.88403150e-01 9.88692719e-12 9.76505125e-12 1.21831435e-13 4.45057687e-17 5.27402821e-18 9.76505125e-12
3.31131121e-01 9.22450835e-12 9.11327608e-12 1.10975538e-13 2.56732909e-16 3.02721096e-17 9.11327608e-12
3.80189396e-01 8.60610683e-12 8.50500410e-12 1.00026613e-13 1.07611736e-15 1.26626794e-16 8.50500410e-12
4.36515832e-01 8.03581167e-12 7.93733165e-12 9.50556948e-14 3.42432741e-15 4.05194742e-16 7.93733165e-12
5.01187234e-01 7.50497643e-12 7.40754890e-12 8.88239174e-14 8.60361028e-15 1.02484033e-15 7.40754890e-12
5.75439937e-01 7.01372491e-12 6.91312687e-12 8.27056056e-14 1.78924364e-14 2.15987226e-15 6.91312687e-12
6.60693448e-01 6.56201643e-12 6.45170538e-12 7.81593674e-14 3.21516834e-14 3.97587441e-15 6.45170538e-12
7.58577575e-01 6.14766867e-12 6.02108180e-12 7.37445615e-14 5.28423080e-14 6.76763584e-15 6.02108180e-12
8.70963590e-01 5.76816692e-12 5.61920048e-12 6.60289710e-14 8.29374664e-14 1.09491578e-14 5.61920048e-12
1.00000000e+00 5.43058514e-12 5.24414302e-12 5.72956547e-14 1.29146471e-13 1.77377112e-14 5.24414302e-12
1.14815362e+00 5.14959294e-12 4.89411902e-12 4.91795350e-14 2.06294386e-13 2.82683159e-14 4.89411902e-12
1.31825674e+00 4.94127226e-12 4.56745763e-12 3.93818122e-14 3.34432818e-13 4.32982747e-14 4.56745763e-12
1.51356125e+00 4.82313154e-12 4.26259947e-12 3.12275840e-14 5.29304482e-13 6.07229963e-14 4.26259947e-12
1.73780083e+00 4.78716941e-12 3.97808929e-12 2.38848522e-14 7.85195268e-13 7.62964934e-14 3.97808929e-12
1.99526231e+00 4.80451189e-12 3.71256894e-12 1.79026707e-14 1.07404028e-12 8.54120959e-14 3.71256894e-12
2.29086765e+00 4.82132841e-12 3.46477093e-12 1.30397822e-14 1.34351770e-12 8.40473592e-14 3.46477093e-12
2.63026799e+00 4.80079852e-12 3.23351237e-12 9.01099144e-15 1.55827516e-12 7.50607916e-14 3.23351237e-12
3.01995172e+00 4.70877848e-12 3.01768933e-12 6.39173772e-15 1.68469742e-12 6.13818572e-14 3.01768933e-12
3.46736850e+00 4.54602211e-12 2.81627154e-12 4.31751577e-15 1.72543304e-12 4.69826317e-14 2.81627154e-12
3.98107171e+00 4.31300430e-12 2.62829753e-12 2.79950041e-15 1.68190727e-12 3.28908706e-14 2.62829753e-12
4.57088190e+00 4.03379121e-12 2.45286997e-12 1.78615986e-15 1.57913508e-12 2.12664235e-14 2.45286997e-12
5.24807460e+00 3.47681956e-12 2.02814751e-12 9.70847041e-16 1.44770120e-12 1.31165335e-14 2.02814751e-12
6.02559586e+00 2.65001032e-12 1.33998377e-12 4.06588624e-16 1.30961996e-12 7.52579168e-15 1.33998377e-12
6.70000000e+00 2.17753289e-12 9.74709347e-13 1.98078032e-16 1.20262546e-12 4.77459818e-15 9.74709347e-13
6.92422916e+00 2.05179985e-12 8.83049889e-13 1.57863274e-16 1.16859210e-12 4.07779391e-15 8.83049889e-13
7.15596261e+00 1.94594188e-12 8.00009879e-13 1.22101039e-16 1.14580990e-12 3.45778987e-15 8.00009879e-13
7.39545150e+00 1.87835130e-12 7.24778763e-13 9.62474591e-17 1.15347629e-12 2.97259212e-15 7.24778763e-13
7.64295536e+00 1.89566028e-12 6.56622211e-13 6.95093795e-17 1.23896856e-12 2.55922621e-15 6.56622211e-13
7.89874245e+00 2.04278175e-12 5.94874946e-13 4.44810321e-17 1.44786232e-12 2.21472641e-15 5.94874946e-13
8.16308998e+00 2.28604449e-12 5.38934254e-13 2.86526966e-17 1.74708158e-12 1.87365212e-15 5.38934254e-13
8.43628443e+00 2.63831850e-12 4.88254098e-13 1.66180379e-17 2.15004778e-12 1.53441269e-15 4.88254098e-13
8.71862190e+00 2.87088040e-12 4.42339790e-13 1.11197112e-17 2.42852949e-12 1.23603404e-15 4.42339790e-13
9.01040836e+00 3.11042841e-12 4.00743158e-13 7.08130692e-18 2.70967817e-12 9.34578826e-16 4.00743158e-13
9.31196005e+00 3.27050485e-12 3.63058180e-13 0.00000000e+00 2.90744667e-12 0.00000000e+00 3.63058180e-13
9.62360379e+00 3.22030181e-12 3.28917012e-13 0.00000000e+00 2.89138479e-12 0.00000000e+00 3.28917012e-13
9.94567731e+00 2.99521747e-12 2.97986401e-13 0.00000000e+00 2.69723107e-12 0.00000000e+00 2.97986401e-13
1.02785297e+01 2.73571599e-12 2.69964435e-13 0.00000000e+00 2.46575156e-12 0.00000000e+00 2.69964435e-13
1.06225216e+01 2.48258595e-12 2.44577592e-13 0.00000000e+00 2.23800836e-12 0.00000000e+00 2.44577592e-13
1.09780260e+01 2.21350806e-12 2.21578069e-13 0.00000000e+00 1.99192999e-12 0.00000000e+00 2.21578069e-13
1.13454280e+01 1.97773905e-12 2.00741370e-13 0.00000000e+00 1.77699768e-12 0.00000000e+00 2.00741370e-13
1.17251259e+01 1.77478000e-12 1.81864106e-13 0.00000000e+00 1.59291589e-12 0.00000000e+00 1.81864106e-13
1.21175312e+01 1.59182579e-12 1.64762018e-13 0.00000000e+00 1.42706377e-12 0.00000000e+00 1.64762018e-13
1.25230691e+01 1.42721987e-12 1.49268171e-13 0.00000000e+00 1.27795170e-12 0.00000000e+00 1.49268171e-13
1.29421791e+01 1.28521649e-12 1.35231331e-13 0.00000000e+00 1.14998516e-12 0.00000000e+00 1.35231331e-13
1.33753155e+01 1.16135553e-12 1.22514483e-13 0.00000000e+00 1.03884105e-12 0.00000000e+00 1.22514483e-13
1.38229477e+01 1.07903510e-12 1.10993499e-13 0.00000000e+00 9.68041601e-13 0.00000000e+00 1.10993499e-13
1.42855609e+01 1.02971199e-12 1.00555922e-13 0.00000000e+00 9.29156067e-13 0.00000000e+00 1.00555922e-13
1.47636563e+01 1.03454596e-12 9.10998706e-14 0.00000000e+00 9.43446094e-13 0.00000000e+00 9.10998706e-14
1.52577522e+01 1.04934331e-12 8.25330452e-14 0.00000000e+00 9.66810260e-13 0.00000000e+00 8.25330452e-14
1.57683840e+01 1.07615875e-12 7.47718247e-14 0.00000000e+00 1.00138693e-12 0.00000000e+00 7.47718247e-14
1.62961051e+01 1.10433078e-12 6.77404517e-14 0.00000000e+00 1.03659033e-12 0.00000000e+00 6.77404517e-14
1.68414875e+01 1.13241561e-12 6.13702932e-14 0.00000000e+00 1.07104532e-12 0.00000000e+00 6.13702932e-14
1.74051222e+01 1.14468420e-12 5.55991699e-14 0.00000000e+00 1.08908503e-12 0.00000000e+00 5.55991699e-14
1.79876201e+01 1.14438696e-12 5.03707500e-14 0.00000000e+00 1.09401621e-12 0.00000000e+00 5.03707500e-14
1.85896125e+01 1.12691990e-12 4.56339988e-14 0.00000000e+00 1.08128590e-12 0.00000000e+00 4.56339988e-14
1.92117518e+01 1.08689241e-12 4.13426810e-14 0.00000000e+00 1.04554973e-12 0.00000000e+00 4.13426810e-14
1.98547123e+01 1.04068284e-12 3.74549090e-14 0.00000000e+00 1.00322793e-12 0.00000000e+00 3.74549090e-14
2.05191907e+01 9.88817875e-13 3.39327342e-14 0.00000000e+00 9.54885141e-13 0.00000000e+00 3.39327342e-14
2.12059073e+01 9.37638010e-13 3.07417768e-14 0.00000000e+00 9.06896233e-13 0.00000000e+00 3.07417768e-14
2.19156062e+01 8.93479163e-13 2.78508898e-14 0.00000000e+00 8.65628273e-13 0.00000000e+00 2.78508898e-14
2.26490567e+01 8.50337420e-13 2.52318552e-14 0.00000000e+00 8.25105565e-13 0.00000000e+00 2.52318552e-14
2.34070535e+01 8.09734933e-13 2.28591087e-14 0.00000000e+00 7.86875824e-13 0.00000000e+00 2.28591087e-14
2.41904183e+01 7.73757655e-13 2.07094900e-14 0.00000000e+00 7.53048165e-13 0.00000000e+00 2.07094900e-14
2.50000000e+01 7.36859150e-13 1.87620165e-14 0.00000000e+00 7.18097134e-13 0.00000000e+00 1.87620165e-14
2.75422870e+01 6.38364673e-13 1.40313526e-14 0.00000000e+00 6.24333320e-13 0.00000000e+00 1.40313526e-14
3.16227766e+01 5.07388877e-13 9.27042274e-15 0.00000000e+00 4.98118455e-13 0.00000000e+00 9.27042274e-15
3.63078055e+01 3.84145109e-13 6.12490756e-15 0.00000000e+00 3.78020202e-13 0.00000000e+00 6.12490756e-15
4.16869383e+01 2.72687160e-13 4.04668630e-15 0.00000000e+00 2.68640474e-13 0.00000000e+00 4.04668630e-15
4.78630092e+01 1.81470116e-13 2.67361912e-15 0.00000000e+00 1.78796497e-13 0.00000000e+00 2.67361912e-15
5.49540874e+01 1.14571939e-13 1.76644264e-15 0.00000000e+00 1.12805496e-13 0.00000000e+00 1.76644264e-15
6.30957344e+01 6.94830282e-14 1.16707708e-15 0.00000000e+00 6.83159511e-14 0.00000000e+00 1.16707708e-15
7.24435960e+01 4.08168842e-14 7.71080178e-16 0.00000000e+00 4.00458041e-14 0.00000000e+00 7.71080178e-16
8.31763771e+01 2.34246639e-14 5.09447621e-16 0.00000000e+00 2.29152163e-14 0.00000000e+00 5.09447621e-16
9.54992586e+01 1.32242869e-14 3.36588705e-16 0.00000000e+00 1.28876982e-14 0.00000000e+00 3.36588705e-16
1.09647820e+02 7.37379990e-15 2.22381952e-16 0.00000000e+00 7.15141795e-15 0.00000000e+00 2.22381952e-16
1.25892541e+02 4.11883681e-15 1.46926299e-16 0.00000000e+00 3.97191051e-15 0.00000000e+00 1.46926299e-16
1.44543977e+02 2.29112701e-15 9.70732430e-17 0.00000000e+00 2.19405377e-15 0.00000000e+00 9.70732430e-17
1.65958691e+02 1.21739345e-15 6.41356556e-17 0.00000000e+00 1.15325780e-15 0.00000000e+00 6.41356556e-17
1.90546072e+02 6.49088066e-16 4.23740075e-17 0.00000000e+00 6.06714058e-16 0.00000000e+00 4.23740075e-17
2.18776162e+02 3.46608655e-16 2.79962291e-17 0.00000000e+00 3.18612426e-16 0.00000000e+00 2.79962291e-17
2.51188643e+02 1.85169568e-16 1.84969251e-17 0.00000000e+00 1.66672643e-16 0.00000000e+00 1.84969251e-17
2.88403150e+02 9.89622923e-17 1.22207972e-17 0.00000000e+00 8.67414950e-17 0.00000000e+00 1.22207972e-17
3.31131121e+02 5.30715808e-17 8.07420067e-18 0.00000000e+00 4.49973801e-17 0.00000000e+00 8.07420067e-18
3.80189396e+02 2.85762170e-17 5.33457148e-18 0.00000000e+00 2.32416455e-17 0.00000000e+00 5.33457148e-18
4.36515832e+02 1.54939127e-17 3.52451642e-18 0.00000000e+00 1.19693963e-17 0.00000000e+00 3.52451642e-18
5.01187234e+02 8.47326715e-18 2.32862491e-18 0.00000000e+00 6.14464224e-18 0.00000000e+00 2.32862491e-18
5.75439937e+02 4.68465309e-18 1.53850722e-18 0.00000000e+00 3.14614587e-18 0.00000000e+00 1.53850722e-18
6.60693448e+02 2.62365728e-18 1.01648164e-18 0.00000000e+00 1.60717564e-18 0.00000000e+00 1.01648164e-18
7.58577575e+02 1.49094176e-18 6.71582760e-19 0.00000000e+00 8.19359000e-19 0.00000000e+00 6.71582760e-19
8.70963590e+02 8.60592247e-19 4.43710329e-19 0.00000000e+00 4.16881918e-19 0.00000000e+00 4.43710329e-19
1.00000000e+03 2.11708233e-19 0.00000000e+00 0.00000000e+00 2.11708233e-19 0.00000000e+00 0.00000000e+00
