# column 1: lambda (micron)
# column 2: total flux; lambda*F_lambda (W/m2)
# column 3: direct stellar flux; lambda*F_lambda (W/m2)
# column 4: scattered stellar flux; lambda*F_lambda (W/m2)
# column 5: total dust emission flux; lambda*F_lambda (W/m2)
# column 6: dust emission scattered flux; lambda*F_lambda (W/m2)
# column 7: transparent flux; lambda*F_lambda (W/m2)
1.00000000e-03 8.46534494e-13 8.46529401e-13 5.09348929e-18 0.00000000e+00 0.00000000e+00 8.46529401e-13
1.14815362e-03 9.99184030e-13 9.99176121e-13 7.90931086e-18 0.00000000e+00 0.00000000e+00 9.99176121e-13
1.31825674e-03 1.17935974e-12 1.17934819e-12 1.15457153e-17 0.00000000e+00 0.00000000e+00 1.17934819e-12
1.51356125e-03 1.39202783e-12 1.39200901e-12 1.88248525e-17 0.00000000e+00 0.00000000e+00 1.39200901e-12
1.73780083e-03 1.64304915e-12 1.64301696e-12 3.21935481e-17 0.00000000e+00 0.00000000e+00 1.64301696e-12
1.99526231e-03 1.93934224e-12 1.93928682e-12 5.54201385e-17 0.00000000e+00 0.00000000e+00 1.93928682e-12
2.29086765e-03 2.28907180e-12 2.28898025e-12 9.15500001e-17 0.00000000e+00 0.00000000e+00 2.28898025e-12
2.63026799e-03 2.70191253e-12 2.70173063e-12 1.81906199e-16 0.00000000e+00 0.00000000e+00 2.70173063e-12
3.01995172e-03 3.18921785e-12 3.18890841e-12 3.09433099e-16 0.00000000e+00 0.00000000e+00 3.18890841e-12
3.46736850e-03 3.76446207e-12 3.76393440e-12 5.27660484e-16 0.00000000e+00 0.00000000e+00 3.76393440e-12
3.98107171e-03 4.44351427e-12 4.44264945e-12 8.64822314e-16 0.00000000e+00 0.00000000e+00 4.44264945e-12
4.57088190e-03 5.24554617e-12 5.24375082e-12 1.79535044e-15 0.00000000e+00 0.00000000e+00 5.24375082e-12
5.24807460e-03 6.19260755e-12 6.18930730e-12 3.30024616e-15 0.00000000e+00 0.00000000e+00 6.18930730e-12
6.02559586e-03 7.31149910e-12 7.30536713e-12 6.13197374e-15 0.00000000e+00 0.00000000e+00 7.30536713e-12
6.91830971e-03 8.63176634e-12 8.62267558e-12 9.09076569e-15 0.00000000e+00 0.00000000e+00 8.62267558e-12
7.94328235e-03 1.01953877e-11 1.01775219e-11 1.78657797e-14 5.51871602e-304 1.15528516e-306 1.01775219e-11
9.12010839e-03 1.20400652e-11 1.20127391e-11 2.73260900e-14 2.39227142e-265 8.82949238e-268 1.20127391e-11
1.04712855e-02 1.34577958e-11 1.34165878e-11 4.12079560e-14 9.99471150e-232 3.43930024e-234 1.34165878e-11
1.20226443e-02 1.34784876e-11 1.34165878e-11 6.18997480e-14 1.55916057e-202 1.49441532e-204 1.34165878e-11
1.38038426e-02 1.34972715e-11 1.34165878e-11 8.06836274e-14 4.20948815e-177 4.02686917e-179 1.34165878e-11
1.58489319e-02 1.35522635e-11 1.34165878e-11 1.35675622e-13 5.66156059e-155 6.75044090e-157 1.34165878e-11
1.81970086e-02 1.35812980e-11 1.34165878e-11 1.64710110e-13 1.00629054e-135 1.56617763e-137 1.34165878e-11
2.08929613e-02 1.36388029e-11 1.34165878e-11 2.22215047e-13 5.25868280e-119 1.19642075e-120 1.34165878e-11
2.39883292e-02 1.37005577e-11 1.34165878e-11 2.83969906e-13 1.84350652e-104 5.21249114e-106 1.34165878e-11
2.75422870e-02 1.37298648e-11 1.34165878e-11 3.13276950e-13 8.25725964e-92 2.88948626e-93 1.34165878e-11
3.16227766e-02 1.37744173e-11 1.34165878e-11 3.57829463e-13 8.04527910e-81 3.21510894e-82 1.34165878e-11
3.63078055e-02 1.37977760e-11 1.34165878e-11 3.81188155e-13 2.79205096e-71 1.27283789e-72 1.34165878e-11
4.16869383e-02 1.38413792e-11 1.34165878e-11 4.24791377e-13 5.33745578e-63 3.08203472e-64 1.34165878e-11
4.78630092e-02 1.38715840e-11 1.34165878e-11 4.54996189e-13 8.07743742e-56 5.40083448e-57 1.34165878e-11
5.49540874e-02 1.38629802e-11 1.34165878e-11 4.46392315e-13 1.34205798e-49 9.82876361e-51 1.34165878e-11
6.30957344e-02 1.38229284e-11 1.34165878e-11 4.06340593e-13 4.33219647e-44 3.39000341e-45 1.34165878e-11
7.24435960e-02 1.37442187e-11 1.34165878e-11 3.27630876e-13 2.49919225e-39 1.82926115e-40 1.34165878e-11
8.31763771e-02 1.37427644e-11 1.34165878e-11 3.26176602e-13 2.54952466e-35 1.80858945e-36 1.34165878e-11
9.54992586e-02 1.37456320e-11 1.34165878e-11 3.29044141e-13 7.17731602e-32 5.27373028e-33 1.34165878e-11
1.09647820e-01 1.31843783e-11 1.28127470e-11 3.71631338e-13 6.09206620e-29 4.86910635e-30 1.28127470e-11
1.25892541e-01 1.23286231e-11 1.19575512e-11 3.71071857e-13 1.96773924e-26 1.54618518e-27 1.19575512e-11
1.44543977e-01 1.15270970e-11 1.11594361e-11 3.67660914e-13 2.67704665e-24 2.10145924e-25 1.11594361e-11
1.65958691e-01 1.07753150e-11 1.04145917e-11 3.60723235e-13 1.35539143e-22 1.14965150e-23 1.04145917e-11
1.90546072e-01 1.00902354e-11 9.71946251e-12 3.70772887e-13 2.86125029e-21 2.78408497e-22 9.71946251e-12
2.18776162e-01 9.39558163e-12 9.07073019e-12 3.24851404e-13 3.38948755e-20 3.40783904e-21 9.07073019e-12
2.51188643e-01 8.84302513e-12 8.46529796e-12 3.77726748e-13 4.13294786e-19 5.03516122e-20 8.46529796e-12
2.88403150e-01 8.25940240e-12 7.90027573e-12 3.59123238e-13 3.42964089e-18 4.09502090e-19 7.90027573e-12
3.31131121e-01 7.70697030e-12 7.37296631e-12 3.33984390e-13 1.96056932e-17 2.26856645e-18 7.37296631e-12
3.80189396e-01 7.18801051e-12 6.88085251e-12 3.07076288e-13 8.17073401e-17 9.17785777e-18 6.88085251e-12
4.36515832e-01 6.69676828e-12 6.42158520e-12 2.74918779e-13 2.64296551e-16 3.08006685e-17 6.42158520e-12
5.01187234e-01 6.24869614e-12 5.99297201e-12 2.55003809e-13 7.20328105e-16 9.58551130e-17 5.99297201e-12
5.75439937e-01 5.82837505e-12 5.59296690e-12 2.33454770e-13 1.95337849e-15 3.47879979e-16 5.59296690e-12
6.60693448e-01 5.43722302e-12 5.21966041e-12 2.11525351e-13 6.03725726e-15 1.40126293e-15 5.21966041e-12
7.58577575e-01 5.07934556e-12 4.87127053e-12 1.88255203e-13 1.98198312e-14 5.15407945e-15 4.87127053e-12
8.70963590e-01 4.77389814e-12 4.54613417e-12 1.66680944e-13 6.10830277e-14 1.59961472e-14 4.54613417e-12
1.00000000e+00 4.55301296e-12 4.24269927e-12 1.44708638e-13 1.65605054e-13 4.11346177e-14 4.24269927e-12
1.14815362e+00 4.47339817e-12 3.95951734e-12 1.19604370e-13 3.94276461e-13 8.89653719e-14 3.95951734e-12
1.31825674e+00 4.61650127e-12 3.69523659e-12 9.59857465e-14 8.25278935e-13 1.63975712e-13 3.69523659e-12
1.51356125e+00 5.06410451e-12 3.44859544e-12 7.73747321e-14 1.53813434e-12 2.65766603e-13 3.44859544e-12
1.73780083e+00 5.81891965e-12 3.21841652e-12 5.94157236e-14 2.54108740e-12 3.70116394e-13 3.21841652e-12
1.99526231e+00 6.80688273e-12 3.00360106e-12 4.63399658e-14 3.75694170e-12 4.43772612e-13 3.00360106e-12
2.29086765e+00 7.86258265e-12 2.80312361e-12 3.46893239e-14 5.02476972e-12 4.73922948e-13 2.80312361e-12
2.63026799e+00 8.81639527e-12 2.61602716e-12 2.54478005e-14 6.17492031e-12 4.60313380e-13 2.61602716e-12
3.01995172e+00 9.66499148e-12 2.44141860e-12 1.88278933e-14 7.20474498e-12 4.09048505e-13 2.44141860e-12
3.46736850e+00 1.02588880e-11 2.27846441e-12 1.36634820e-14 7.96676016e-12 3.43653921e-13 2.27846441e-12
3.98107171e+00 1.05390945e-11 2.12638671e-12 9.56763594e-15 8.40314020e-12 2.66638548e-13 2.12638671e-12
4.57088190e+00 1.06209082e-11 1.98445954e-12 6.59664830e-15 8.62985201e-12 1.93705363e-13 1.98445954e-12
5.24807460e+00 1.03489327e-11 1.64084388e-12 3.81041872e-15 8.70427838e-12 1.32830418e-13 1.64084388e-12
6.02559586e+00 9.68600340e-12 1.08409480e-12 1.68439073e-15 8.60022422e-12 8.54135296e-14 1.08409480e-12
6.70000000e+00 9.25880754e-12 7.88574724e-13 8.81934435e-16 8.46935088e-12 5.82809192e-14 7.88574724e-13
6.92422916e+00 9.11041547e-12 7.14418944e-13 7.06441529e-16 8.39529008e-12 5.10501883e-14 7.14418944e-13
7.15596261e+00 9.01855639e-12 6.47236606e-13 5.62237461e-16 8.37075755e-12 4.43746523e-14 6.47236606e-13
7.39545150e+00 9.00604726e-12 5.86371942e-13 4.27007853e-16 8.41924831e-12 3.80195652e-14 5.86371942e-13
7.64295536e+00 9.23225252e-12 5.31230854e-13 2.97812454e-16 8.70072385e-12 3.14015580e-14 5.31230854e-13
7.89874245e+00 9.79702354e-12 4.81275108e-13 1.80264510e-16 9.31556816e-12 2.43774940e-14 4.81275108e-13
8.16308998e+00 1.05483942e-11 4.36017088e-13 1.01263702e-16 1.01122758e-11 1.83036893e-14 4.36017088e-13
8.43628443e+00 1.13540068e-11 3.95015029e-13 5.34565531e-17 1.09589383e-11 1.31979532e-14 3.95015029e-13
8.71862190e+00 1.19073974e-11 3.57868711e-13 3.28394478e-17 1.15494959e-11 1.00559712e-14 3.57868711e-13
9.01040836e+00 1.23398353e-11 3.24215549e-13 1.97374901e-17 1.20156000e-11 7.40938048e-15 3.24215549e-13
9.31196005e+00 1.26878895e-11 2.93727053e-13 0.00000000e+00 1.23941625e-11 0.00000000e+00 2.93727053e-13
9.62360379e+00 1.25875642e-11 2.66105627e-13 0.00000000e+00 1.23214586e-11 0.00000000e+00 2.66105627e-13
9.94567731e+00 1.21805828e-11 2.41081657e-13 0.00000000e+00 1.19395011e-11 0.00000000e+00 2.41081657e-13
1.02785297e+01 1.16985693e-11 2.18410884e-13 0.00000000e+00 1.14801584e-11 0.00000000e+00 2.18410884e-13
1.06225216e+01 1.13207188e-11 1.97872020e-13 0.00000000e+00 1.11228468e-11 0.00000000e+00 1.97872020e-13
1.09780260e+01 1.08241333e-11 1.79264583e-13 0.00000000e+00 1.06448687e-11 0.00000000e+00 1.79264583e-13
1.13454280e+01 1.04524508e-11 1.62406948e-13 0.00000000e+00 1.02900438e-11 0.00000000e+00 1.62406948e-13
1.17251259e+01 1.00345220e-11 1.47134567e-13 0.00000000e+00 9.88738740e-12 0.00000000e+00 1.47134567e-13
1.21175312e+01 9.59375475e-12 1.33298366e-13 0.00000000e+00 9.46045639e-12 0.00000000e+00 1.33298366e-13
1.25230691e+01 9.27188913e-12 1.20763289e-13 0.00000000e+00 9.15112584e-12 0.00000000e+00 1.20763289e-13
1.29421791e+01 8.89925674e-12 1.09406983e-13 0.00000000e+00 8.78984976e-12 0.00000000e+00 1.09406983e-13
1.33753155e+01 8.52271090e-12 9.91185987e-14 0.00000000e+00 8.42359230e-12 0.00000000e+00 9.91185987e-14
1.38229477e+01 8.26391172e-12 8.97977103e-14 0.00000000e+00 8.17411401e-12 0.00000000e+00 8.97977103e-14
1.42855609e+01 8.10108493e-12 8.13533371e-14 0.00000000e+00 8.01973160e-12 0.00000000e+00 8.13533371e-14
1.47636563e+01 8.10419728e-12 7.37030537e-14 0.00000000e+00 8.03049422e-12 0.00000000e+00 7.37030537e-14
1.52577522e+01 8.20125911e-12 6.67721855e-14 0.00000000e+00 8.13448693e-12 0.00000000e+00 6.67721855e-14
1.57683840e+01 8.28573384e-12 6.04930805e-14 0.00000000e+00 8.22524076e-12 0.00000000e+00 6.04930805e-14
1.62961051e+01 8.42313449e-12 5.48044484e-14 0.00000000e+00 8.36833004e-12 0.00000000e+00 5.48044484e-14
1.68414875e+01 8.45261263e-12 4.96507622e-14 0.00000000e+00 8.40296186e-12 0.00000000e+00 4.96507622e-14
1.74051222e+01 8.41516896e-12 4.49817171e-14 0.00000000e+00 8.37018724e-12 0.00000000e+00 4.49817171e-14
1.79876201e+01 8.40304777e-12 4.07517384e-14 0.00000000e+00 8.36229603e-12 0.00000000e+00 4.07517384e-14
1.85896125e+01 8.24260453e-12 3.69195372e-14 0.00000000e+00 8.20568500e-12 0.00000000e+00 3.69195372e-14
1.92117518e+01 8.06226113e-12 3.34477076e-14 0.00000000e+00 8.02881342e-12 0.00000000e+00 3.34477076e-14
1.98547123e+01 7.78601116e-12 3.03023610e-14 0.00000000e+00 7.75570880e-12 0.00000000e+00 3.03023610e-14
2.05191907e+01 7.50639469e-12 2.74527957e-14 0.00000000e+00 7.47894189e-12 0.00000000e+00 2.74527957e-14
2.12059073e+01 7.21058901e-12 2.48711970e-14 0.00000000e+00 7.18571781e-12 0.00000000e+00 2.48711970e-14
2.19156062e+01 6.92053963e-12 2.25323660e-14 0.00000000e+00 6.89800727e-12 0.00000000e+00 2.25323660e-14
2.26490567e+01 6.60912404e-12 2.04134733e-14 0.00000000e+00 6.58871057e-12 0.00000000e+00 2.04134733e-14
2.34070535e+01 6.33089964e-12 1.84938366e-14 0.00000000e+00 6.31240580e-12 0.00000000e+00 1.84938366e-14
2.41904183e+01 6.03267265e-12 1.67547181e-14 0.00000000e+00 6.01591793e-12 0.00000000e+00 1.67547181e-14
2.50000000e+01 5.71998278e-12 1.51791424e-14 0.00000000e+00 5.70480364e-12 0.00000000e+00 1.51791424e-14
2.75422870e+01 4.89646917e-12 1.13518661e-14 0.00000000e+00 4.88511730e-12 0.00000000e+00 1.13518661e-14
3.16227766e+01 3.74804439e-12 7.50010357e-15 0.00000000e+00 3.74054428e-12 0.00000000e+00 7.50010357e-15
3.63078055e+01 2.70887004e-12 4.95526929e-15 0.00000000e+00 2.70391477e-12 0.00000000e+00 4.95526929e-15
4.16869383e+01 1.83886744e-12 3.27391395e-15 0.00000000e+00 1.83559352e-12 0.00000000e+00 3.27391395e-15
4.78630092e+01 1.17015667e-12 2.16305350e-15 0.00000000e+00 1.16799362e-12 0.00000000e+00 2.16305350e-15
5.49540874e+01 7.07082044e-13 1.42911527e-15 0.00000000e+00 7.05652929e-13 0.00000000e+00 1.42911527e-15
6.30957344e+01 4.10168364e-13 9.44207098e-16 0.00000000e+00 4.09224157e-13 0.00000000e+00 9.44207098e-16
7.24435960e+01 2.30207793e-13 6.23831443e-16 0.00000000e+00 2.29583962e-13 0.00000000e+00 6.23831443e-16
8.31763771e+01 1.26210645e-13 4.12161347e-16 0.00000000e+00 1.25798484e-13 0.00000000e+00 4.12161347e-16
9.54992586e+01 6.81468068e-14 2.72312302e-16 0.00000000e+00 6.78744945e-14 0.00000000e+00 2.72312302e-16
1.09647820e+02 3.63918477e-14 1.79914953e-16 0.00000000e+00 3.62119328e-14 0.00000000e+00 1.79914953e-16
1.25892541e+02 1.95182864e-14 1.18868631e-16 0.00000000e+00 1.93994177e-14 0.00000000e+00 1.18868631e-16
1.44543977e+02 1.04553140e-14 7.85357256e-17 0.00000000e+00 1.03767783e-14 0.00000000e+00 7.85357256e-17
1.65958691e+02 5.35292802e-15 5.18880394e-17 0.00000000e+00 5.30103998e-15 0.00000000e+00 5.18880394e-17
1.90546072e+02 2.75229345e-15 3.42820876e-17 0.00000000e+00 2.71801136e-15 0.00000000e+00 3.42820876e-17
2.18776162e+02 1.41777300e-15 2.26499507e-17 0.00000000e+00 1.39512305e-15 0.00000000e+00 2.26499507e-17
2.51188643e+02 7.30358836e-16 1.49646740e-17 0.00000000e+00 7.15394162e-16 0.00000000e+00 1.49646740e-17
2.88403150e+02 3.75674509e-16 9.88706207e-18 0.00000000e+00 3.65787447e-16 0.00000000e+00 9.88706207e-18
3.31131121e+02 1.93375193e-16 6.53231713e-18 0.00000000e+00 1.86842876e-16 0.00000000e+00 6.53231713e-18
3.80189396e+02 9.95263650e-17 4.31585913e-18 0.00000000e+00 9.52105059e-17 0.00000000e+00 4.31585913e-18
4.36515832e+02 5.13077511e-17 2.85145985e-18 0.00000000e+00 4.84562912e-17 0.00000000e+00 2.85145985e-18
5.01187234e+02 2.65048068e-17 1.88394084e-18 0.00000000e+00 2.46208659e-17 0.00000000e+00 1.88394084e-18
5.75439937e+02 1.37380400e-17 1.24470737e-18 0.00000000e+00 1.24933326e-17 0.00000000e+00 1.24470737e-18
6.60693448e+02 7.15457007e-18 8.22370004e-19 0.00000000e+00 6.33220007e-18 0.00000000e+00 8.22370004e-19
7.58577575e+02 3.74958103e-18 5.43334473e-19 0.00000000e+00 3.20624655e-18 0.00000000e+00 5.43334473e-19
8.70963590e+02 1.98060919e-18 3.58977527e-19 0.00000000e+00 1.62163166e-18 0.00000000e+00 3.58977527e-19
1.00000000e+03 8.19267686e-19 0.00000000e+00 0.00000000e+00 8.19267686e-19 0.00000000e+00 0.00000000e+00
