# column 1: lambda (micron)
# column 2: total flux; lambda*F_lambda (W/m2)
# column 3: direct stellar flux; lambda*F_lambda (W/m2)
# column 4: scattered stellar flux; lambda*F_lambda (W/m2)
# column 5: total dust emission flux; lambda*F_lambda (W/m2)
# column 6: dust emission scattered flux; lambda*F_lambda (W/m2)
# column 7: transparent flux; lambda*F_lambda (W/m2)
1.00000000e-03 1.07336639e-12 1.07335627e-12 1.01166339e-17 0.00000000e+00 0.00000000e+00 1.07335627e-12
1.14815362e-03 1.26692149e-12 1.26690456e-12 1.69329487e-17 0.00000000e+00 0.00000000e+00 1.26690456e-12
1.31825674e-03 1.49575876e-12 1.49535359e-12 4.05174216e-16 0.00000000e+00 0.00000000e+00 1.49535359e-12
1.51356125e-03 1.76502989e-12 1.76499670e-12 3.31935406e-17 0.00000000e+00 0.00000000e+00 1.76499670e-12
1.73780083e-03 2.08342958e-12 2.08326203e-12 1.67556642e-16 0.00000000e+00 0.00000000e+00 2.08326203e-12
1.99526231e-03 2.45902454e-12 2.45891716e-12 1.07377456e-16 0.00000000e+00 0.00000000e+00 2.45891716e-12
2.29086765e-03 2.90251298e-12 2.90231066e-12 2.02317984e-16 0.00000000e+00 0.00000000e+00 2.90231066e-12
2.63026799e-03 3.42604760e-12 3.42565717e-12 3.90428815e-16 0.00000000e+00 0.00000000e+00 3.42565717e-12
3.01995172e-03 4.04392532e-12 4.04337385e-12 5.51478058e-16 0.00000000e+00 0.00000000e+00 4.04337385e-12
3.46736850e-03 5.11629617e-12 4.77247759e-12 3.43818578e-13 0.00000000e+00 0.00000000e+00 4.77247759e-12
3.98107171e-03 5.63661278e-12 5.63305378e-12 3.55900129e-15 0.00000000e+00 0.00000000e+00 5.63305378e-12
4.57088190e-03 6.65448366e-12 6.64880962e-12 5.67403934e-15 0.00000000e+00 0.00000000e+00 6.64880962e-12
5.24807460e-03 7.85612997e-12 7.84772720e-12 8.40277365e-15 0.00000000e+00 0.00000000e+00 7.84772720e-12
6.02559586e-03 9.31601536e-12 9.26283435e-12 5.31810075e-14 0.00000000e+00 0.00000000e+00 9.26283435e-12
6.91830971e-03 1.10690710e-11 1.09331145e-11 1.35956505e-13 0.00000000e+00 0.00000000e+00 1.09331145e-11
7.94328235e-03 1.29293543e-11 1.29045807e-11 2.47736514e-14 4.09337699e-303 2.12273295e-305 1.29045807e-11
9.12010839e-03 1.52793450e-11 1.52315429e-11 4.78020737e-14 2.00853042e-264 1.96701235e-266 1.52315429e-11
1.04712855e-02 1.72421900e-11 1.70115517e-11 2.30638307e-13 9.39037130e-231 1.48546644e-232 1.70115517e-11
1.20226443e-02 1.71952831e-11 1.70115517e-11 1.83731357e-13 1.58619424e-201 1.54171911e-203 1.70115517e-11
1.38038426e-02 1.71387341e-11 1.70115517e-11 1.27182372e-13 4.66161363e-176 6.83177478e-178 1.70115517e-11
1.58489319e-02 1.71651543e-11 1.70115517e-11 1.53602587e-13 6.75516373e-154 1.49003153e-155 1.70115517e-11
1.81970086e-02 1.72180426e-11 1.70115517e-11 2.06490928e-13 1.27628977e-134 3.37490962e-136 1.70115517e-11
2.08929613e-02 1.72639006e-11 1.70115517e-11 2.52348896e-13 7.01972342e-118 2.23176359e-119 1.70115517e-11
2.39883292e-02 1.73235223e-11 1.70115517e-11 3.11970597e-13 2.58080585e-103 1.01741941e-104 1.70115517e-11
2.75422870e-02 1.73689787e-11 1.70115517e-11 3.57426965e-13 1.20455597e-90 5.70126324e-92 1.70115517e-11
3.16227766e-02 1.74137297e-11 1.70115517e-11 4.02177986e-13 1.21441973e-79 6.37696179e-81 1.70115517e-11
3.63078055e-02 1.74364789e-11 1.70115517e-11 4.24927221e-13 4.32899073e-70 2.37588186e-71 1.70115517e-11
4.16869383e-02 1.75388571e-11 1.70115517e-11 5.27305386e-13 8.48191178e-62 5.56726853e-63 1.70115517e-11
4.78630092e-02 1.75798788e-11 1.70115517e-11 5.68327063e-13 1.31024281e-54 9.63924031e-56 1.70115517e-11
5.49540874e-02 1.75707698e-11 1.70115517e-11 5.59218082e-13 2.20588869e-48 1.66964061e-49 1.70115517e-11
6.30957344e-02 1.75077506e-11 1.70115517e-11 4.96198880e-13 7.14031206e-43 5.14103506e-44 1.70115517e-11
7.24435960e-02 1.74091586e-11 1.70115517e-11 3.97606925e-13 4.13050541e-38 2.51537496e-39 1.70115517e-11
8.31763771e-02 1.73850950e-11 1.70115517e-11 3.73543306e-13 4.28143794e-34 2.55683993e-35 1.70115517e-11
9.54992586e-02 1.73994741e-11 1.70115517e-11 3.87922418e-13 1.22039949e-30 7.53634383e-32 1.70115517e-11
1.09647820e-01 1.66725884e-11 1.62459122e-11 4.26676288e-13 1.05322071e-27 7.44573710e-29 1.62459122e-11
1.25892541e-01 1.56042452e-11 1.51615674e-11 4.42677819e-13 3.47938812e-25 2.70737013e-26 1.51615674e-11
1.44543977e-01 1.45914235e-11 1.41495980e-11 4.41825567e-13 4.78819451e-23 3.74373652e-24 1.41495980e-11
1.65958691e-01 1.36355640e-11 1.32051732e-11 4.30390834e-13 2.45434751e-21 2.13665299e-22 1.32051732e-11
1.90546072e-01 1.27512304e-11 1.23237846e-11 4.27445713e-13 5.18059003e-20 4.94938822e-21 1.23237846e-11
2.18776162e-01 1.18466315e-11 1.15012250e-11 3.45405901e-13 6.10972326e-19 5.63031622e-20 1.15012250e-11
2.51188643e-01 1.11270205e-11 1.07335677e-11 3.93445250e-13 7.54139213e-18 8.84709825e-19 1.07335677e-11
2.88403150e-01 1.03962409e-11 1.00171482e-11 3.79029287e-13 6.33285624e-17 7.58352162e-18 1.00171482e-11
3.31131121e-01 9.72046602e-12 9.34854667e-12 3.71554350e-13 3.64996391e-16 4.35628644e-17 9.34854667e-12
3.80189396e-01 9.08669071e-12 8.72457139e-12 3.60591867e-13 1.52745614e-15 1.80563089e-16 8.72457139e-12
4.36515832e-01 8.48954749e-12 8.14224377e-12 3.42449512e-13 4.85420523e-15 5.75210014e-16 8.14224377e-12
5.01187234e-01 7.92799367e-12 7.59878402e-12 3.17027860e-13 1.21817900e-14 1.45162909e-15 7.59878402e-12
5.75439937e-01 7.40914494e-12 7.09159786e-12 2.92256644e-13 2.52904292e-14 3.07613630e-15 7.09159786e-12
6.60693448e-01 6.93065296e-12 6.61826421e-12 2.66422497e-13 4.59662549e-14 6.12456931e-15 6.61826421e-12
7.58577575e-01 6.50201836e-12 6.17652353e-12 2.46039448e-13 7.94553753e-14 1.25391918e-14 6.17652353e-12
8.70963590e-01 6.12276017e-12 5.76426715e-12 2.19117956e-13 1.39375063e-13 2.74422849e-14 5.76426715e-12
1.00000000e+00 5.83520149e-12 5.37952711e-12 1.95492076e-13 2.60182305e-13 6.03968321e-14 5.37952711e-12
1.14815362e+00 5.70821766e-12 5.02046681e-12 1.68173163e-13 5.19577684e-13 1.26442289e-13 5.02046681e-12
1.31825674e+00 5.85548139e-12 4.68537225e-12 1.36731693e-13 1.03337745e-12 2.35452626e-13 4.68537225e-12
1.51356125e+00 6.45667513e-12 4.37264380e-12 1.14121504e-13 1.96990982e-12 3.94140605e-13 4.37264380e-12
1.73780083e+00 7.61046667e-12 4.08078863e-12 9.35646965e-14 3.43611334e-12 5.87131790e-13 4.08078863e-12
1.99526231e+00 9.32784172e-12 3.80841354e-12 7.45114030e-14 5.44491678e-12 7.69611605e-13 3.80841354e-12
2.29086765e+00 1.15054531e-11 3.55421832e-12 5.73203496e-14 7.89391441e-12 8.98754435e-13 3.55421832e-12
2.63026799e+00 1.37057075e-11 3.31698953e-12 4.20138835e-14 1.03467041e-11 9.14780283e-13 3.31698953e-12
3.01995172e+00 1.58892886e-11 3.09559474e-12 2.96088574e-14 1.27640850e-11 8.50030001e-13 3.09559474e-12
3.46736850e+00 1.76598496e-11 2.88897711e-12 2.01079403e-14 1.47507645e-11 7.11840965e-13 2.88897711e-12
3.98107171e+00 1.89347698e-11 2.69615031e-12 1.31740575e-14 1.62254455e-11 5.37871732e-13 2.69615031e-12
4.57088190e+00 1.94361052e-11 2.51619387e-12 8.26429664e-15 1.69116470e-11 3.63704899e-13 2.51619387e-12
5.24807460e+00 1.89746050e-11 2.08050667e-12 4.47396259e-15 1.68896243e-11 2.28897810e-13 2.08050667e-12
6.02559586e+00 1.75362211e-11 1.37457712e-12 1.85355454e-15 1.61597904e-11 1.31630918e-13 1.37457712e-12
6.70000000e+00 1.62555732e-11 9.99872685e-13 9.00578355e-16 1.52548000e-11 8.08974387e-14 9.99872685e-13
6.92422916e+00 1.58448159e-11 9.05846924e-13 7.20009705e-16 1.49382490e-11 6.90178464e-14 9.05846924e-13
7.15596261e+00 1.54826607e-11 8.20663132e-13 5.63409685e-16 1.46614342e-11 5.83061502e-14 8.20663132e-13
7.39545150e+00 1.53588016e-11 7.43489831e-13 4.28221187e-16 1.46148836e-11 4.94307068e-14 7.43489831e-13
7.64295536e+00 1.59014735e-11 6.73573732e-13 3.08322547e-16 1.52275914e-11 4.20839370e-14 6.73573732e-13
7.89874245e+00 1.72282656e-11 6.10232385e-13 1.96123893e-16 1.66178371e-11 3.53823480e-14 6.10232385e-13
8.16308998e+00 1.88112723e-11 5.52847515e-13 1.17680715e-16 1.82583072e-11 2.89143092e-14 5.52847515e-13
8.43628443e+00 2.05761975e-11 5.00858987e-13 6.12035258e-17 2.00752773e-11 2.20171885e-14 5.00858987e-13
8.71862190e+00 2.13697087e-11 4.53759343e-13 3.19502441e-17 2.09159174e-11 1.62133545e-14 4.53759343e-13
9.01040836e+00 2.21012034e-11 4.11088843e-13 1.27997927e-17 2.16901017e-11 1.01405244e-14 4.11088843e-13
9.31196005e+00 2.24921426e-11 3.72430980e-13 0.00000000e+00 2.21197116e-11 0.00000000e+00 3.72430980e-13
9.62360379e+00 2.21280447e-11 3.37408415e-13 0.00000000e+00 2.17906363e-11 0.00000000e+00 3.37408415e-13
9.94567731e+00 2.14960865e-11 3.05679292e-13 0.00000000e+00 2.11904072e-11 0.00000000e+00 3.05679292e-13
1.02785297e+01 2.05606666e-11 2.76933904e-13 0.00000000e+00 2.02837327e-11 0.00000000e+00 2.76933904e-13
1.06225216e+01 1.94622167e-11 2.50891667e-13 0.00000000e+00 1.92113251e-11 0.00000000e+00 2.50891667e-13
1.09780260e+01 1.83978496e-11 2.27298384e-13 0.00000000e+00 1.81705512e-11 0.00000000e+00 2.27298384e-13
1.13454280e+01 1.71629842e-11 2.05923759e-13 0.00000000e+00 1.69570604e-11 0.00000000e+00 2.05923759e-13
1.17251259e+01 1.59363078e-11 1.86559155e-13 0.00000000e+00 1.57497486e-11 0.00000000e+00 1.86559155e-13
1.21175312e+01 1.47322434e-11 1.69015555e-13 0.00000000e+00 1.45632278e-11 0.00000000e+00 1.69015555e-13
1.25230691e+01 1.35006794e-11 1.53121715e-13 0.00000000e+00 1.33475577e-11 0.00000000e+00 1.53121715e-13
1.29421791e+01 1.23899158e-11 1.38722496e-13 0.00000000e+00 1.22511933e-11 0.00000000e+00 1.38722496e-13
1.33753155e+01 1.13418942e-11 1.25677347e-13 0.00000000e+00 1.12162169e-11 0.00000000e+00 1.25677347e-13
1.38229477e+01 1.05496478e-11 1.13858934e-13 0.00000000e+00 1.04357889e-11 0.00000000e+00 1.13858934e-13
1.42855609e+01 1.00155770e-11 1.03151898e-13 0.00000000e+00 9.91242506e-12 0.00000000e+00 1.03151898e-13
1.47636563e+01 9.92397891e-12 9.34517274e-14 0.00000000e+00 9.83052718e-12 0.00000000e+00 9.34517274e-14
1.52577522e+01 9.91807779e-12 8.46637387e-14 0.00000000e+00 9.83341405e-12 0.00000000e+00 8.46637387e-14
1.57683840e+01 9.99256514e-12 7.67021526e-14 0.00000000e+00 9.91586299e-12 0.00000000e+00 7.67021526e-14
1.62961051e+01 1.00198630e-11 6.94892560e-14 0.00000000e+00 9.95037373e-12 0.00000000e+00 6.94892560e-14
1.68414875e+01 1.00621502e-11 6.29546439e-14 0.00000000e+00 9.99919559e-12 0.00000000e+00 6.29546439e-14
1.74051222e+01 9.92090507e-12 5.70345319e-14 0.00000000e+00 9.86387054e-12 0.00000000e+00 5.70345319e-14
1.79876201e+01 9.70129090e-12 5.16711337e-14 0.00000000e+00 9.64961976e-12 0.00000000e+00 5.16711337e-14
1.85896125e+01 9.34316740e-12 4.68120974e-14 0.00000000e+00 9.29635530e-12 0.00000000e+00 4.68120974e-14
1.92117518e+01 8.88555640e-12 4.24099939e-14 0.00000000e+00 8.84314641e-12 0.00000000e+00 4.24099939e-14
1.98547123e+01 8.34002299e-12 3.84218542e-14 0.00000000e+00 8.30160113e-12 0.00000000e+00 3.84218542e-14
2.05191907e+01 7.75566520e-12 3.48087501e-14 0.00000000e+00 7.72085645e-12 0.00000000e+00 3.48087501e-14
2.12059073e+01 7.19594053e-12 3.15354141e-14 0.00000000e+00 7.16440512e-12 0.00000000e+00 3.15354141e-14
2.19156062e+01 6.70649853e-12 2.85698952e-14 0.00000000e+00 6.67792864e-12 0.00000000e+00 2.85698952e-14
2.26490567e+01 6.20799649e-12 2.58832470e-14 0.00000000e+00 6.18211324e-12 0.00000000e+00 2.58832470e-14
2.34070535e+01 5.75963118e-12 2.34492452e-14 0.00000000e+00 5.73618193e-12 0.00000000e+00 2.34492452e-14
2.41904183e+01 5.34233949e-12 2.12441313e-14 0.00000000e+00 5.32109536e-12 0.00000000e+00 2.12441313e-14
2.50000000e+01 4.95316937e-12 1.92463813e-14 0.00000000e+00 4.93392299e-12 0.00000000e+00 1.92463813e-14
2.75422870e+01 3.91252485e-12 1.43935895e-14 0.00000000e+00 3.89813126e-12 0.00000000e+00 1.43935895e-14
3.16227766e+01 2.72375156e-12 9.50975027e-15 0.00000000e+00 2.71424181e-12 0.00000000e+00 9.50975027e-15
3.63078055e+01 1.80856997e-12 6.28302969e-15 0.00000000e+00 1.80228694e-12 0.00000000e+00 6.28302969e-15
4.16869383e+01 1.13467754e-12 4.15115655e-15 0.00000000e+00 1.13052639e-12 0.00000000e+00 4.15115655e-15
4.78630092e+01 6.72789918e-13 2.74264194e-15 0.00000000e+00 6.70047276e-13 0.00000000e+00 2.74264194e-15
5.49540874e+01 3.81393130e-13 1.81204556e-15 0.00000000e+00 3.79581085e-13 0.00000000e+00 1.81204556e-15
6.30957344e+01 2.09665215e-13 1.19720663e-15 0.00000000e+00 2.08468009e-13 0.00000000e+00 1.19720663e-15
7.24435960e+01 1.12575332e-13 7.90986575e-16 0.00000000e+00 1.11784345e-13 0.00000000e+00 7.90986575e-16
8.31763771e+01 5.95748688e-14 5.22599647e-16 0.00000000e+00 5.90522691e-14 0.00000000e+00 5.22599647e-16
9.54992586e+01 3.12751595e-14 3.45278163e-16 0.00000000e+00 3.09298813e-14 0.00000000e+00 3.45278163e-16
1.09647820e+02 1.63488305e-14 2.28123020e-16 0.00000000e+00 1.61207075e-14 0.00000000e+00 2.28123020e-16
1.25892541e+02 8.62797092e-15 1.50719385e-16 0.00000000e+00 8.47725153e-15 0.00000000e+00 1.50719385e-16
1.44543977e+02 4.56555875e-15 9.95793099e-17 0.00000000e+00 4.46597944e-15 0.00000000e+00 9.95793099e-17
1.65958691e+02 2.31604131e-15 6.57913976e-17 0.00000000e+00 2.25024991e-15 0.00000000e+00 6.57913976e-17
1.90546072e+02 1.18489504e-15 4.34679453e-17 0.00000000e+00 1.14142710e-15 0.00000000e+00 4.34679453e-17
2.18776162e+02 6.09439039e-16 2.87189867e-17 0.00000000e+00 5.80720053e-16 0.00000000e+00 2.87189867e-17
2.51188643e+02 3.14565731e-16 1.89744463e-17 0.00000000e+00 2.95591285e-16 0.00000000e+00 1.89744463e-17
2.88403150e+02 1.62773438e-16 1.25362924e-17 0.00000000e+00 1.50237146e-16 0.00000000e+00 1.25362924e-17
3.31131121e+02 8.46377725e-17 8.28264623e-18 0.00000000e+00 7.63551263e-17 0.00000000e+00 8.28264623e-18
3.80189396e+02 4.42173612e-17 5.47229010e-18 0.00000000e+00 3.87450711e-17 0.00000000e+00 5.47229010e-18
4.36515832e+02 2.32652810e-17 3.61550621e-18 0.00000000e+00 1.96497748e-17 0.00000000e+00 3.61550621e-18
5.01187234e+02 1.23430035e-17 2.38874127e-18 0.00000000e+00 9.95426220e-18 0.00000000e+00 2.38874127e-18
5.75439937e+02 6.61670847e-18 1.57822570e-18 0.00000000e+00 5.03848277e-18 0.00000000e+00 1.57822570e-18
6.60693448e+02 3.59105699e-18 1.04272338e-18 0.00000000e+00 2.54833361e-18 0.00000000e+00 1.04272338e-18
7.58577575e+02 1.97692841e-18 6.88920507e-19 0.00000000e+00 1.28800791e-18 0.00000000e+00 6.88920507e-19
8.70963590e+02 1.10560534e-18 4.55165265e-19 0.00000000e+00 6.50440077e-19 0.00000000e+00 4.55165265e-19
1.00000000e+03 3.28181187e-19 0.00000000e+00 0.00000000e+00 3.28181187e-19 0.00000000e+00 0.00000000e+00
