# column 1: lambda (micron)
# column 2: total flux; lambda*F_lambda (W/m2)
# column 3: direct stellar flux; lambda*F_lambda (W/m2)
# column 4: scattered stellar flux; lambda*F_lambda (W/m2)
# column 5: total dust emission flux; lambda*F_lambda (W/m2)
# column 6: dust emission scattered flux; lambda*F_lambda (W/m2)
# column 7: transparent flux; lambda*F_lambda (W/m2)
1.00000000e-03 5.25636832e-13 5.25636674e-13 1.58160826e-19 0.00000000e+00 0.00000000e+00 5.25636674e-13
1.14815362e-03 6.20420071e-13 6.20419813e-13 2.58115855e-19 0.00000000e+00 0.00000000e+00 6.20419813e-13
1.31825674e-03 7.32294774e-13 7.32294308e-13 4.65935937e-19 0.00000000e+00 0.00000000e+00 7.32294308e-13
1.51356125e-03 8.64342731e-13 8.64342083e-13 6.47852457e-19 0.00000000e+00 0.00000000e+00 8.64342083e-13
1.73780083e-03 1.02020201e-12 1.02020080e-12 1.20867569e-18 0.00000000e+00 0.00000000e+00 1.02020080e-12
1.99526231e-03 1.20416625e-12 1.20416405e-12 2.19529357e-18 0.00000000e+00 0.00000000e+00 1.20416405e-12
2.29086765e-03 1.42130308e-12 1.42129968e-12 3.40223310e-18 0.00000000e+00 0.00000000e+00 1.42129968e-12
2.63026799e-03 1.67759647e-12 1.67758934e-12 7.12642755e-18 0.00000000e+00 0.00000000e+00 1.67758934e-12
3.01995172e-03 1.98010587e-12 1.98009332e-12 1.25529273e-17 0.00000000e+00 0.00000000e+00 1.98009332e-12
3.46736850e-03 2.33716646e-12 2.33714500e-12 2.14561498e-17 0.00000000e+00 0.00000000e+00 2.33714500e-12
3.98107171e-03 2.75861645e-12 2.75858048e-12 3.59691880e-17 0.00000000e+00 0.00000000e+00 2.75858048e-12
4.57088190e-03 3.25608163e-12 3.25600946e-12 7.21656902e-17 0.00000000e+00 0.00000000e+00 3.25600946e-12
5.24807460e-03 3.84328266e-12 3.84313516e-12 1.47496417e-16 0.00000000e+00 0.00000000e+00 3.84313516e-12
6.02559586e-03 4.53639593e-12 4.53613173e-12 2.64199907e-16 0.00000000e+00 0.00000000e+00 4.53613173e-12
6.91830971e-03 5.35447734e-12 5.35408989e-12 3.87446001e-16 0.00000000e+00 0.00000000e+00 5.35408989e-12
7.94328235e-03 6.32021255e-12 6.31954278e-12 6.69761447e-16 4.23314204e-303 6.10751589e-304 6.31954278e-12
9.12010839e-03 7.46025667e-12 7.45908676e-12 1.16991036e-15 1.87844882e-264 2.26134710e-265 7.45908676e-12
1.04712855e-02 8.33230240e-12 8.33078048e-12 1.52192641e-15 7.49513657e-231 2.79507366e-232 8.33078048e-12
1.20226443e-02 8.33320301e-12 8.33078048e-12 2.42253505e-15 1.38534892e-201 2.21016998e-202 8.33078048e-12
1.38038426e-02 8.33456287e-12 8.33078048e-12 3.78239697e-15 3.48735790e-176 2.39831045e-177 8.33078048e-12
1.58489319e-02 8.33526302e-12 8.33078048e-12 4.48254192e-15 4.93789800e-154 4.71264441e-155 8.33078048e-12
1.81970086e-02 8.33756956e-12 8.33078048e-12 6.78908895e-15 8.93290500e-135 8.41716941e-136 8.33078048e-12
2.08929613e-02 8.34001461e-12 8.33078048e-12 9.23413348e-15 4.74188055e-118 4.60965638e-119 8.33078048e-12
2.39883292e-02 8.34368432e-12 8.33078048e-12 1.29038397e-14 1.66188835e-103 1.49439992e-104 8.33078048e-12
2.75422870e-02 8.34760876e-12 8.33078048e-12 1.68282810e-14 7.46821049e-91 6.87012539e-92 8.33078048e-12
3.16227766e-02 8.35335419e-12 8.33078048e-12 2.25737110e-14 7.26764735e-80 6.39576271e-81 8.33078048e-12
3.63078055e-02 8.35304201e-12 8.33078048e-12 2.22615365e-14 2.52665453e-70 2.17536485e-71 8.33078048e-12
4.16869383e-02 8.36441257e-12 8.33078048e-12 3.36320910e-14 4.83216686e-62 4.48332596e-63 8.33078048e-12
4.78630092e-02 8.37510917e-12 8.33078048e-12 4.43286969e-14 7.22045982e-55 6.94148715e-56 8.33078048e-12
5.49540874e-02 8.38299730e-12 8.33078048e-12 5.22168250e-14 1.17975933e-48 1.15394249e-49 8.33078048e-12
6.30957344e-02 8.39029006e-12 8.33078048e-12 5.95095807e-14 3.62391673e-43 3.44539792e-44 8.33078048e-12
7.24435960e-02 8.38841304e-12 8.33078048e-12 5.76325632e-14 2.00178130e-38 1.69153835e-39 8.33078048e-12
8.31763771e-02 8.38741440e-12 8.33078048e-12 5.66339281e-14 2.05616986e-34 1.66772211e-35 8.33078048e-12
9.54992586e-02 8.38993314e-12 8.33078048e-12 5.91526688e-14 5.89785439e-31 4.99176309e-32 8.33078048e-12
1.09647820e-01 8.01489532e-12 7.95583672e-12 5.90585990e-14 5.23006513e-28 4.86618901e-29 7.95583672e-12
1.25892541e-01 7.47835807e-12 7.42481883e-12 5.35392314e-14 1.77563540e-25 1.70332323e-26 7.42481883e-12
1.44543977e-01 6.97573339e-12 6.92924411e-12 4.64892777e-14 2.50388242e-23 2.33207658e-24 6.92924411e-12
1.65958691e-01 6.51346066e-12 6.46674687e-12 4.67137893e-14 1.30565780e-21 1.29382299e-22 6.46674687e-12
1.90546072e-01 6.08783084e-12 6.03511933e-12 5.27114856e-14 2.72122450e-20 2.98870888e-21 6.03511933e-12
2.18776162e-01 5.68312436e-12 5.63230107e-12 5.08229787e-14 3.12135928e-19 3.37410881e-20 5.63230107e-12
2.51188643e-01 5.31064544e-12 5.25636919e-12 5.42722947e-14 3.95544596e-18 4.92693154e-19 5.25636919e-12
2.88403150e-01 4.95488825e-12 4.90552916e-12 4.93250974e-14 3.39953926e-17 4.08458341e-18 4.90552916e-12
3.31131121e-01 4.62242816e-12 4.57810618e-12 4.41231346e-14 1.98846088e-16 2.33783992e-17 4.57810618e-12
3.80189396e-01 4.31231704e-12 4.27253728e-12 3.89358931e-14 8.43862605e-16 9.49348636e-17 4.27253728e-12
4.36515832e-01 4.02544654e-12 3.98736380e-12 3.53757271e-14 2.70701628e-15 2.87936369e-16 3.98736380e-12
5.01187234e-01 3.75861767e-12 3.72122441e-12 3.05429066e-14 6.85035004e-15 6.97748496e-16 3.72122441e-12
5.75439937e-01 3.51542389e-12 3.47284869e-12 2.83111119e-14 1.42640910e-14 1.39980634e-15 3.47284869e-12
6.60693448e-01 3.29083467e-12 3.24105097e-12 2.45805125e-14 2.52031864e-14 2.30452452e-15 3.24105097e-12
7.58577575e-01 3.08671448e-12 3.02472476e-12 2.25248962e-14 3.94648226e-14 3.41034494e-15 3.02472476e-12
8.70963590e-01 2.89636809e-12 2.82283739e-12 1.76843680e-14 5.58463307e-14 4.47638319e-15 2.82283739e-12
1.00000000e+00 2.72316146e-12 2.63442513e-12 1.61354128e-14 7.26009088e-14 5.34847268e-15 2.63442513e-12
1.14815362e+00 2.56125717e-12 2.45858859e-12 1.19009684e-14 9.07676157e-14 6.07012978e-15 2.45858859e-12
1.31825674e+00 2.41711748e-12 2.29448837e-12 1.02376387e-14 1.12391466e-13 6.87142376e-15 2.29448837e-12
1.51356125e+00 2.28904425e-12 2.14134114e-12 7.62379568e-15 1.40079308e-13 7.71374818e-15 2.14134114e-12
1.73780083e+00 2.18077129e-12 1.99841583e-12 5.93988092e-15 1.76415577e-13 8.73012564e-15 1.99841583e-12
1.99526231e+00 2.09020959e-12 1.86503017e-12 4.20778922e-15 2.20971630e-13 9.25837352e-15 1.86503017e-12
2.29086765e+00 2.01369361e-12 1.74054743e-12 3.05959820e-15 2.70086581e-13 9.32452708e-15 1.74054743e-12
2.63026799e+00 1.94259712e-12 1.62437337e-12 2.18895146e-15 3.16034794e-13 8.44697112e-15 1.62437337e-12
3.01995172e+00 1.86874541e-12 1.51595343e-12 1.43046959e-15 3.51361509e-13 7.08359708e-15 1.51595343e-12
3.46736850e+00 1.78737033e-12 1.41477006e-12 9.23895485e-16 3.71676376e-13 5.42327946e-15 1.41477006e-12
3.98107171e+00 1.69341915e-12 1.32034025e-12 5.92439867e-16 3.72486468e-13 3.87971917e-15 1.32034025e-12
4.57088190e+00 1.58830284e-12 1.23221321e-12 3.71358559e-16 3.55718273e-13 2.50842451e-15 1.23221321e-12
5.24807460e+00 1.34620436e-12 1.01885146e-12 1.89047990e-16 3.27163845e-13 1.51882559e-15 1.01885146e-12
6.02559586e+00 9.67480971e-13 6.73148485e-13 8.05836075e-17 2.94251902e-13 8.53923622e-16 6.73148485e-13
6.70000000e+00 7.56727144e-13 4.89650796e-13 3.96166682e-17 2.67036731e-13 5.21152601e-16 4.89650796e-13
6.92422916e+00 7.02201300e-13 4.43605145e-13 3.06340650e-17 2.58565521e-13 4.44256746e-16 4.43605145e-13
7.15596261e+00 6.54515455e-13 4.01889522e-13 2.45441320e-17 2.52601388e-13 3.75835554e-16 4.01889522e-13
7.39545150e+00 6.17749290e-13 3.64096743e-13 1.96292591e-17 2.53632918e-13 3.16728833e-16 3.64096743e-13
7.64295536e+00 6.04504332e-13 3.29857910e-13 1.39656719e-17 2.74632457e-13 2.73833579e-16 3.29857910e-13
7.89874245e+00 6.25305156e-13 2.98838820e-13 9.50669790e-18 3.26456829e-13 2.36224084e-16 2.98838820e-13
8.16308998e+00 6.73769069e-13 2.70736695e-13 5.87478853e-18 4.03026500e-13 2.03966936e-16 2.70736695e-13
8.43628443e+00 7.56396380e-13 2.45277229e-13 3.49636178e-18 5.11115655e-13 1.65711561e-16 2.45277229e-13
8.71862190e+00 8.09160541e-13 2.22211915e-13 2.26043420e-18 5.86946366e-13 1.33344941e-16 2.22211915e-13
9.01040836e+00 8.69116234e-13 2.01315610e-13 1.41122037e-18 6.67799213e-13 9.75181856e-17 2.01315610e-13
9.31196005e+00 9.12044405e-13 1.82384346e-13 0.00000000e+00 7.29660059e-13 0.00000000e+00 1.82384346e-13
9.62360379e+00 8.90428730e-13 1.65233336e-13 0.00000000e+00 7.25195394e-13 0.00000000e+00 1.65233336e-13
9.94567731e+00 8.21020553e-13 1.49695167e-13 0.00000000e+00 6.71325386e-13 0.00000000e+00 1.49695167e-13
1.02785297e+01 7.39901005e-13 1.35618173e-13 0.00000000e+00 6.04282833e-13 0.00000000e+00 1.35618173e-13
1.06225216e+01 6.62167527e-13 1.22864947e-13 0.00000000e+00 5.39302580e-13 0.00000000e+00 1.22864947e-13
1.09780260e+01 5.80095192e-13 1.11311006e-13 0.00000000e+00 4.68784186e-13 0.00000000e+00 1.11311006e-13
1.13454280e+01 5.09424059e-13 1.00843571e-13 0.00000000e+00 4.08580488e-13 0.00000000e+00 1.00843571e-13
1.17251259e+01 4.49225124e-13 9.13604705e-14 0.00000000e+00 3.57864653e-13 0.00000000e+00 9.13604705e-14
1.21175312e+01 3.95683657e-13 8.27691389e-14 0.00000000e+00 3.12914518e-13 0.00000000e+00 8.27691389e-14
1.25230691e+01 3.48279006e-13 7.49857166e-14 0.00000000e+00 2.73293289e-13 0.00000000e+00 7.49857166e-14
1.29421791e+01 3.08644341e-13 6.79342298e-14 0.00000000e+00 2.40710111e-13 0.00000000e+00 6.79342298e-14
1.33753155e+01 2.75090863e-13 6.15458488e-14 0.00000000e+00 2.13545014e-13 0.00000000e+00 6.15458488e-14
1.38229477e+01 2.51525130e-13 5.57582167e-14 0.00000000e+00 1.95766914e-13 0.00000000e+00 5.57582167e-14
1.42855609e+01 2.36146135e-13 5.05148403e-14 0.00000000e+00 1.85631295e-13 0.00000000e+00 5.05148403e-14
1.47636563e+01 2.33493043e-13 4.57645392e-14 0.00000000e+00 1.87728504e-13 0.00000000e+00 4.57645392e-14
1.52577522e+01 2.33964302e-13 4.14609457e-14 0.00000000e+00 1.92503356e-13 0.00000000e+00 4.14609457e-14
1.57683840e+01 2.36881322e-13 3.75620523e-14 0.00000000e+00 1.99319269e-13 0.00000000e+00 3.75620523e-14
1.62961051e+01 2.40562349e-13 3.40298020e-14 0.00000000e+00 2.06532546e-13 0.00000000e+00 3.40298020e-14
1.68414875e+01 2.44022918e-13 3.08297166e-14 0.00000000e+00 2.13193201e-13 0.00000000e+00 3.08297166e-14
1.74051222e+01 2.44359127e-13 2.79305599e-14 0.00000000e+00 2.16428567e-13 0.00000000e+00 2.79305599e-14
1.79876201e+01 2.42877327e-13 2.53040334e-14 0.00000000e+00 2.17573294e-13 0.00000000e+00 2.53040334e-14
1.85896125e+01 2.36195166e-13 2.29244994e-14 0.00000000e+00 2.13270667e-13 0.00000000e+00 2.29244994e-14
1.92117518e+01 2.26334477e-13 2.07687314e-14 0.00000000e+00 2.05565745e-13 0.00000000e+00 2.07687314e-14
1.98547123e+01 2.13977482e-13 1.88156870e-14 0.00000000e+00 1.95161795e-13 0.00000000e+00 1.88156870e-14
2.05191907e+01 2.01539881e-13 1.70463024e-14 0.00000000e+00 1.84493579e-13 0.00000000e+00 1.70463024e-14
2.12059073e+01 1.90051972e-13 1.54433068e-14 0.00000000e+00 1.74608665e-13 0.00000000e+00 1.54433068e-14
2.19156062e+01 1.80241235e-13 1.39910532e-14 0.00000000e+00 1.66250182e-13 0.00000000e+00 1.39910532e-14
2.26490567e+01 1.70935004e-13 1.26753663e-14 0.00000000e+00 1.58259638e-13 0.00000000e+00 1.26753663e-14
2.34070535e+01 1.62605621e-13 1.14834036e-14 0.00000000e+00 1.51122217e-13 0.00000000e+00 1.14834036e-14
2.41904183e+01 1.55001632e-13 1.04035303e-14 0.00000000e+00 1.44598102e-13 0.00000000e+00 1.04035303e-14
2.50000000e+01 1.48127721e-13 9.42520591e-15 0.00000000e+00 1.38702515e-13 0.00000000e+00 9.42520591e-15
2.75422870e+01 1.29729773e-13 7.04872996e-15 0.00000000e+00 1.22681043e-13 0.00000000e+00 7.04872996e-15
3.16227766e+01 1.07037417e-13 4.65704970e-15 0.00000000e+00 1.02380367e-13 0.00000000e+00 4.65704970e-15
3.63078055e+01 8.55217010e-14 3.07688223e-15 0.00000000e+00 8.24448188e-14 0.00000000e+00 3.07688223e-15
4.16869383e+01 6.48030734e-14 2.03287593e-15 0.00000000e+00 6.27701975e-14 0.00000000e+00 2.03287593e-15
4.78630092e+01 4.63120545e-14 1.34310781e-15 0.00000000e+00 4.49689467e-14 0.00000000e+00 1.34310781e-15
5.49540874e+01 3.14856387e-14 8.87382527e-16 0.00000000e+00 3.05982562e-14 0.00000000e+00 8.87382527e-16
6.30957344e+01 2.05144713e-14 5.86287821e-16 0.00000000e+00 1.99281835e-14 0.00000000e+00 5.86287821e-16
7.24435960e+01 1.28957554e-14 3.87356522e-16 0.00000000e+00 1.25083988e-14 0.00000000e+00 3.87356522e-16
8.31763771e+01 7.87607323e-15 2.55923916e-16 0.00000000e+00 7.62014932e-15 0.00000000e+00 2.55923916e-16
9.54992586e+01 4.70134801e-15 1.69087255e-16 0.00000000e+00 4.53226076e-15 0.00000000e+00 1.69087255e-16
1.09647820e+02 2.75390710e-15 1.11714841e-16 0.00000000e+00 2.64219226e-15 0.00000000e+00 1.11714841e-16
1.25892541e+02 1.60539583e-15 7.38092637e-17 0.00000000e+00 1.53158657e-15 0.00000000e+00 7.38092637e-17
1.44543977e+02 9.26648689e-16 4.87652969e-17 0.00000000e+00 8.77883392e-16 0.00000000e+00 4.87652969e-17
1.65958691e+02 5.09055577e-16 3.22189122e-17 0.00000000e+00 4.76836665e-16 0.00000000e+00 3.22189122e-17
1.90546072e+02 2.79288325e-16 2.12868242e-17 0.00000000e+00 2.58001501e-16 0.00000000e+00 2.12868242e-17
2.18776162e+02 1.52848067e-16 1.40640653e-17 0.00000000e+00 1.38784002e-16 0.00000000e+00 1.40640653e-17
2.51188643e+02 8.34003504e-17 9.29203577e-18 0.00000000e+00 7.41083147e-17 0.00000000e+00 9.29203577e-18
2.88403150e+02 4.53919392e-17 6.13918715e-18 0.00000000e+00 3.92527521e-17 0.00000000e+00 6.13918715e-18
3.31131121e+02 2.47282728e-17 4.05612073e-18 0.00000000e+00 2.06721521e-17 0.00000000e+00 4.05612073e-18
3.80189396e+02 1.34966064e-17 2.67985239e-18 0.00000000e+00 1.08167540e-17 0.00000000e+00 2.67985239e-18
4.36515832e+02 7.40340938e-18 1.77056092e-18 0.00000000e+00 5.63284847e-18 0.00000000e+00 1.77056092e-18
5.01187234e+02 4.08928356e-18 1.16979800e-18 0.00000000e+00 2.91948556e-18 0.00000000e+00 1.16979800e-18
5.75439937e+02 2.28004151e-18 7.72877871e-19 0.00000000e+00 1.50716364e-18 0.00000000e+00 7.72877871e-19
6.60693448e+02 1.28602735e-18 5.10635346e-19 0.00000000e+00 7.75391999e-19 0.00000000e+00 5.10635346e-19
7.58577575e+02 7.35098945e-19 3.37373427e-19 0.00000000e+00 3.97725517e-19 0.00000000e+00 3.37373427e-19
8.70963590e+02 4.26328079e-19 2.22900413e-19 0.00000000e+00 2.03427666e-19 0.00000000e+00 2.22900413e-19
1.00000000e+03 1.03779385e-19 0.00000000e+00 0.00000000e+00 1.03779385e-19 0.00000000e+00 0.00000000e+00
