# column 1: lambda (micron)
# column 2: total flux; lambda*F_lambda (W/m2)
# column 3: direct stellar flux; lambda*F_lambda (W/m2)
# column 4: scattered stellar flux; lambda*F_lambda (W/m2)
# column 5: total dust emission flux; lambda*F_lambda (W/m2)
# column 6: dust emission scattered flux; lambda*F_lambda (W/m2)
# column 7: transparent flux; lambda*F_lambda (W/m2)
1.00000000e-03 5.25639034e-13 5.25636674e-13 2.35988230e-18 0.00000000e+00 0.00000000e+00 5.25636674e-13
1.14815362e-03 6.20423192e-13 6.20419813e-13 3.37890799e-18 0.00000000e+00 0.00000000e+00 6.20419813e-13
1.31825674e-03 7.32300043e-13 7.32294308e-13 5.73497246e-18 0.00000000e+00 0.00000000e+00 7.32294308e-13
1.51356125e-03 8.64350034e-13 8.64342083e-13 7.95062110e-18 0.00000000e+00 0.00000000e+00 8.64342083e-13
1.73780083e-03 1.02021571e-12 1.02020080e-12 1.49084583e-17 0.00000000e+00 0.00000000e+00 1.02020080e-12
1.99526231e-03 1.20419140e-12 1.20416405e-12 2.73427089e-17 0.00000000e+00 0.00000000e+00 1.20416405e-12
2.29086765e-03 1.42134180e-12 1.42129968e-12 4.21164766e-17 0.00000000e+00 0.00000000e+00 1.42129968e-12
2.63026799e-03 1.67767595e-12 1.67758934e-12 8.66039419e-17 0.00000000e+00 0.00000000e+00 1.67758934e-12
3.01995172e-03 1.98023243e-12 1.98009332e-12 1.39110507e-16 0.00000000e+00 0.00000000e+00 1.98009332e-12
3.46736850e-03 2.34041765e-12 2.33714500e-12 3.27264197e-15 0.00000000e+00 0.00000000e+00 2.33714500e-12
3.98107171e-03 2.75897209e-12 2.75858048e-12 3.91610035e-16 0.00000000e+00 0.00000000e+00 2.75858048e-12
4.57088190e-03 3.25686244e-12 3.25600946e-12 8.52978999e-16 0.00000000e+00 0.00000000e+00 3.25600946e-12
5.24807460e-03 3.84473537e-12 3.84313516e-12 1.60021150e-15 0.00000000e+00 0.00000000e+00 3.84313516e-12
6.02559586e-03 4.53893164e-12 4.53613173e-12 2.79990759e-15 0.00000000e+00 0.00000000e+00 4.53613173e-12
6.91830971e-03 5.36412028e-12 5.35408989e-12 1.00303874e-14 0.00000000e+00 0.00000000e+00 5.35408989e-12
7.94328235e-03 6.33060499e-12 6.31954278e-12 1.10622013e-14 1.07152672e-303 1.02871929e-304 6.31954278e-12
9.12010839e-03 7.47539324e-12 7.45908676e-12 1.63064810e-14 4.80379933e-265 5.76073731e-266 7.45908676e-12
1.04712855e-02 8.35246473e-12 8.33078048e-12 2.16842507e-14 1.99553970e-231 2.08740000e-232 8.33078048e-12
1.20226443e-02 8.37902034e-12 8.33078048e-12 4.82398684e-14 3.18495739e-202 3.91772794e-203 8.33078048e-12
1.38038426e-02 8.37352811e-12 8.33078048e-12 4.27476389e-14 8.42496213e-177 8.36474862e-178 8.33078048e-12
1.58489319e-02 8.39885323e-12 8.33078048e-12 6.80727564e-14 1.19488625e-154 1.75017441e-155 8.33078048e-12
1.81970086e-02 8.40396608e-12 8.33078048e-12 7.31856093e-14 2.02587418e-135 2.18981267e-136 8.33078048e-12
2.08929613e-02 8.43028015e-12 8.33078048e-12 9.94996729e-14 1.05203190e-118 1.13514079e-119 8.33078048e-12
2.39883292e-02 8.46107072e-12 8.33078048e-12 1.30290249e-13 3.63851356e-104 3.65252070e-105 8.33078048e-12
2.75422870e-02 8.50449466e-12 8.33078048e-12 1.73714183e-13 1.60715349e-91 1.65558591e-92 8.33078048e-12
3.16227766e-02 8.50999625e-12 8.33078048e-12 1.79215771e-13 1.55053595e-80 1.54747229e-81 8.33078048e-12
3.63078055e-02 8.51144929e-12 8.33078048e-12 1.80668809e-13 5.27462734e-71 4.77888169e-72 8.33078048e-12
4.16869383e-02 8.54267112e-12 8.33078048e-12 2.11890647e-13 9.92194927e-63 9.14355013e-64 8.33078048e-12
4.78630092e-02 8.55831218e-12 8.33078048e-12 2.27531703e-13 1.46748236e-55 1.34034140e-56 8.33078048e-12
5.49540874e-02 8.55086159e-12 8.33078048e-12 2.20081118e-13 2.36309865e-49 2.00643385e-50 8.33078048e-12
6.30957344e-02 8.53655659e-12 8.33078048e-12 2.05776112e-13 7.23274279e-44 5.82921405e-45 8.33078048e-12
7.24435960e-02 8.50381591e-12 8.33078048e-12 1.73035430e-13 4.00582782e-39 2.74779429e-40 8.33078048e-12
8.31763771e-02 8.49714539e-12 8.33078048e-12 1.66364917e-13 4.11051412e-35 2.74475167e-36 8.33078048e-12
9.54992586e-02 8.49994480e-12 8.33078048e-12 1.69164321e-13 1.17114971e-31 8.12962259e-33 8.33078048e-12
1.09647820e-01 8.13433470e-12 7.95583672e-12 1.78497981e-13 1.03275912e-28 8.17058080e-30 7.95583672e-12
1.25892541e-01 7.61541185e-12 7.42481883e-12 1.90593016e-13 3.46749226e-26 2.89432212e-27 7.42481883e-12
1.44543977e-01 7.10321530e-12 6.92924411e-12 1.73971189e-13 4.92050737e-24 4.20840717e-25 6.92924411e-12
1.65958691e-01 6.64128556e-12 6.46674687e-12 1.74538692e-13 2.56848375e-22 2.35876172e-23 6.46674687e-12
1.90546072e-01 6.21417456e-12 6.03511933e-12 1.79055228e-13 5.34748486e-21 5.42450024e-22 6.03511933e-12
2.18776162e-01 5.79286402e-12 5.63230107e-12 1.60562896e-13 6.09082276e-20 5.96574458e-21 5.63230107e-12
2.51188643e-01 5.43701360e-12 5.25636919e-12 1.80643629e-13 7.78500240e-19 9.27952914e-20 5.25636919e-12
2.88403150e-01 5.07609370e-12 4.90552916e-12 1.70557829e-13 6.71375376e-18 7.79640230e-19 4.90552916e-12
3.31131121e-01 4.73265695e-12 4.57810618e-12 1.54511209e-13 3.95598712e-17 4.52420488e-18 4.57810618e-12
3.80189396e-01 4.41550708e-12 4.27253728e-12 1.42800542e-13 1.69251217e-16 1.86020919e-17 4.27253728e-12
4.36515832e-01 4.11988003e-12 3.98736380e-12 1.31964268e-13 5.51968220e-16 5.98509747e-17 3.98736380e-12
5.01187234e-01 3.84019312e-12 3.72122441e-12 1.17531459e-13 1.43725382e-15 1.55144774e-16 3.72122441e-12
5.75439937e-01 3.58222575e-12 3.47284869e-12 1.06193489e-13 3.18357837e-15 3.52399902e-16 3.47284869e-12
6.60693448e-01 3.34213679e-12 3.24105097e-12 9.44913162e-14 6.59450361e-15 8.21390032e-16 3.24105097e-12
7.58577575e-01 3.12364669e-12 3.02472476e-12 8.50498526e-14 1.38720814e-14 2.04190534e-15 3.02472476e-12
8.70963590e-01 2.92565064e-12 2.82283739e-12 7.20947462e-14 3.07185042e-14 5.13343007e-15 2.82283739e-12
1.00000000e+00 2.76601854e-12 2.63442513e-12 6.33790409e-14 6.82143602e-14 1.19313248e-14 2.63442513e-12
1.14815362e+00 2.65755077e-12 2.45858859e-12 5.26448221e-14 1.46317364e-13 2.43297364e-14 2.45858859e-12
1.31825674e+00 2.63273379e-12 2.29448837e-12 4.39998903e-14 2.94245525e-13 4.45094879e-14 2.29448837e-12
1.51356125e+00 2.71657133e-12 2.14134114e-12 3.57615967e-14 5.39468591e-13 7.15197342e-14 2.14134114e-12
1.73780083e+00 2.91026584e-12 1.99841583e-12 2.79535503e-14 8.83896456e-13 9.90594055e-14 1.99841583e-12
1.99526231e+00 3.19009502e-12 1.86503017e-12 2.12112675e-14 1.30385358e-12 1.19972299e-13 1.86503017e-12
2.29086765e+00 3.50107816e-12 1.74054743e-12 1.59230272e-14 1.74460771e-12 1.25918436e-13 1.74054743e-12
2.63026799e+00 3.78177150e-12 1.62437337e-12 1.14747602e-14 2.14592337e-12 1.20659365e-13 1.62437337e-12
3.01995172e+00 3.98422837e-12 1.51595343e-12 8.16805775e-15 2.46010688e-12 1.04790203e-13 1.51595343e-12
3.46736850e+00 4.08928324e-12 1.41477006e-12 5.65990907e-15 2.66885326e-12 8.47372392e-14 1.41477006e-12
3.98107171e+00 4.07588239e-12 1.32034025e-12 3.96961013e-15 2.75157254e-12 6.35163553e-14 1.32034025e-12
4.57088190e+00 3.95905181e-12 1.23221321e-12 2.60288415e-15 2.72423571e-12 4.38203371e-14 1.23221321e-12
5.24807460e+00 3.63797809e-12 1.01885146e-12 1.50263972e-15 2.61762399e-12 2.87543659e-14 1.01885146e-12
6.02559586e+00 3.16572308e-12 6.73148485e-13 6.50174121e-16 2.49192442e-12 1.75218076e-14 6.73148485e-13
6.70000000e+00 2.85164059e-12 4.89650796e-13 3.31164284e-16 2.36165863e-12 1.15257909e-14 4.89650796e-13
6.92422916e+00 2.75686701e-12 4.43605145e-13 2.62635620e-16 2.31299923e-12 1.00068696e-14 4.43605145e-13
7.15596261e+00 2.68561384e-12 4.01889522e-13 2.08973920e-16 2.28351534e-12 8.60534414e-15 4.01889522e-13
7.39545150e+00 2.66673850e-12 3.64096743e-13 1.56857247e-16 2.30248490e-12 7.33965192e-15 3.64096743e-13
7.64295536e+00 2.74921113e-12 3.29857910e-13 1.11680054e-16 2.41924154e-12 6.17431047e-15 3.29857910e-13
7.89874245e+00 3.00125617e-12 2.98838820e-13 6.96123644e-17 2.70234774e-12 5.02227932e-15 2.98838820e-13
8.16308998e+00 3.34106697e-12 2.70736695e-13 4.09547510e-17 3.07028932e-12 3.97580720e-15 2.70736695e-13
8.43628443e+00 3.79501421e-12 2.45277229e-13 2.21142498e-17 3.54971487e-12 2.99518460e-15 2.45277229e-13
8.71862190e+00 4.08141530e-12 2.22211915e-13 1.37077298e-17 3.85918968e-12 2.29576549e-15 2.22211915e-13
9.01040836e+00 4.34134808e-12 2.01315610e-13 8.13678643e-18 4.14002433e-12 1.66564396e-15 2.01315610e-13
9.31196005e+00 4.54230821e-12 1.82384346e-13 0.00000000e+00 4.35992386e-12 0.00000000e+00 1.82384346e-13
9.62360379e+00 4.47989015e-12 1.65233336e-13 0.00000000e+00 4.31465682e-12 0.00000000e+00 1.65233336e-13
9.94567731e+00 4.23575651e-12 1.49695167e-13 0.00000000e+00 4.08606134e-12 0.00000000e+00 1.49695167e-13
1.02785297e+01 3.94350803e-12 1.35618173e-13 0.00000000e+00 3.80788985e-12 0.00000000e+00 1.35618173e-13
1.06225216e+01 3.67211772e-12 1.22864947e-13 0.00000000e+00 3.54925277e-12 0.00000000e+00 1.22864947e-13
1.09780260e+01 3.37729672e-12 1.11311006e-13 0.00000000e+00 3.26598572e-12 0.00000000e+00 1.11311006e-13
1.13454280e+01 3.13532142e-12 1.00843571e-13 0.00000000e+00 3.03447784e-12 0.00000000e+00 1.00843571e-13
1.17251259e+01 2.90667768e-12 9.13604705e-14 0.00000000e+00 2.81531721e-12 0.00000000e+00 9.13604705e-14
1.21175312e+01 2.70785001e-12 8.27691389e-14 0.00000000e+00 2.62508087e-12 0.00000000e+00 8.27691389e-14
1.25230691e+01 2.50815920e-12 7.49857166e-14 0.00000000e+00 2.43317348e-12 0.00000000e+00 7.49857166e-14
1.29421791e+01 2.34732956e-12 6.79342298e-14 0.00000000e+00 2.27939533e-12 0.00000000e+00 6.79342298e-14
1.33753155e+01 2.19781738e-12 6.15458488e-14 0.00000000e+00 2.13627153e-12 0.00000000e+00 6.15458488e-14
1.38229477e+01 2.09924909e-12 5.57582167e-14 0.00000000e+00 2.04349087e-12 0.00000000e+00 5.57582167e-14
1.42855609e+01 2.03819472e-12 5.05148403e-14 0.00000000e+00 1.98767988e-12 0.00000000e+00 5.05148403e-14
1.47636563e+01 2.05967007e-12 4.57645392e-14 0.00000000e+00 2.01390553e-12 0.00000000e+00 4.57645392e-14
1.52577522e+01 2.09304567e-12 4.14609457e-14 0.00000000e+00 2.05158473e-12 0.00000000e+00 4.14609457e-14
1.57683840e+01 2.14485098e-12 3.75620523e-14 0.00000000e+00 2.10728893e-12 0.00000000e+00 3.75620523e-14
1.62961051e+01 2.19024767e-12 3.40298020e-14 0.00000000e+00 2.15621787e-12 0.00000000e+00 3.40298020e-14
1.68414875e+01 2.23066981e-12 3.08297166e-14 0.00000000e+00 2.19984010e-12 0.00000000e+00 3.08297166e-14
1.74051222e+01 2.25145261e-12 2.79305599e-14 0.00000000e+00 2.22352205e-12 0.00000000e+00 2.79305599e-14
1.79876201e+01 2.25659708e-12 2.53040334e-14 0.00000000e+00 2.23129305e-12 0.00000000e+00 2.53040334e-14
1.85896125e+01 2.22888664e-12 2.29244994e-14 0.00000000e+00 2.20596214e-12 0.00000000e+00 2.29244994e-14
1.92117518e+01 2.17996488e-12 2.07687314e-14 0.00000000e+00 2.15919614e-12 0.00000000e+00 2.07687314e-14
1.98547123e+01 2.11177212e-12 1.88156870e-14 0.00000000e+00 2.09295644e-12 0.00000000e+00 1.88156870e-14
2.05191907e+01 2.03840781e-12 1.70463024e-14 0.00000000e+00 2.02136151e-12 0.00000000e+00 1.70463024e-14
2.12059073e+01 1.96337111e-12 1.54433068e-14 0.00000000e+00 1.94792780e-12 0.00000000e+00 1.54433068e-14
2.19156062e+01 1.89466341e-12 1.39910532e-14 0.00000000e+00 1.88067235e-12 0.00000000e+00 1.39910532e-14
2.26490567e+01 1.82657966e-12 1.26753663e-14 0.00000000e+00 1.81390429e-12 0.00000000e+00 1.26753663e-14
2.34070535e+01 1.75421926e-12 1.14834036e-14 0.00000000e+00 1.74273586e-12 0.00000000e+00 1.14834036e-14
2.41904183e+01 1.68216311e-12 1.04035303e-14 0.00000000e+00 1.67175958e-12 0.00000000e+00 1.04035303e-14
2.50000000e+01 1.61175902e-12 9.42520591e-15 0.00000000e+00 1.60233381e-12 0.00000000e+00 9.42520591e-15
2.75422870e+01 1.40860553e-12 7.04872996e-15 0.00000000e+00 1.40155680e-12 0.00000000e+00 7.04872996e-15
3.16227766e+01 1.11038001e-12 4.65704970e-15 0.00000000e+00 1.10572296e-12 0.00000000e+00 4.65704970e-15
3.63078055e+01 8.30187515e-13 3.07688223e-15 0.00000000e+00 8.27110632e-13 0.00000000e+00 3.07688223e-15
4.16869383e+01 5.77794392e-13 2.03287593e-15 0.00000000e+00 5.75761516e-13 0.00000000e+00 2.03287593e-15
4.78630092e+01 3.75464471e-13 1.34310781e-15 0.00000000e+00 3.74121364e-13 0.00000000e+00 1.34310781e-15
5.49540874e+01 2.30943240e-13 8.87382527e-16 0.00000000e+00 2.30055857e-13 0.00000000e+00 8.87382527e-16
6.30957344e+01 1.36051920e-13 5.86287821e-16 0.00000000e+00 1.35465632e-13 0.00000000e+00 5.86287821e-16
7.24435960e+01 7.75444316e-14 3.87356522e-16 0.00000000e+00 7.71570751e-14 0.00000000e+00 3.87356522e-16
8.31763771e+01 4.31302797e-14 2.55923916e-16 0.00000000e+00 4.28743557e-14 0.00000000e+00 2.55923916e-16
9.54992586e+01 2.35899415e-14 1.69087255e-16 0.00000000e+00 2.34208543e-14 0.00000000e+00 1.69087255e-16
1.09647820e+02 1.27612400e-14 1.11714841e-16 0.00000000e+00 1.26495251e-14 0.00000000e+00 1.11714841e-16
1.25892541e+02 6.92475638e-15 7.38092637e-17 0.00000000e+00 6.85094712e-15 0.00000000e+00 7.38092637e-17
1.44543977e+02 3.74876548e-15 4.87652969e-17 0.00000000e+00 3.70000018e-15 0.00000000e+00 4.87652969e-17
1.65958691e+02 1.93819389e-15 3.22189122e-17 0.00000000e+00 1.90597498e-15 0.00000000e+00 3.22189122e-17
1.90546072e+02 1.00598768e-15 2.12868242e-17 0.00000000e+00 9.84700856e-16 0.00000000e+00 2.12868242e-17
2.18776162e+02 5.22984107e-16 1.40640653e-17 0.00000000e+00 5.08920042e-16 0.00000000e+00 1.40640653e-17
2.51188643e+02 2.71755870e-16 9.29203577e-18 0.00000000e+00 2.62463834e-16 0.00000000e+00 9.29203577e-18
2.88403150e+02 1.41055223e-16 6.13918715e-18 0.00000000e+00 1.34916036e-16 0.00000000e+00 6.13918715e-18
3.31131121e+02 7.32866909e-17 4.05612073e-18 0.00000000e+00 6.92305701e-17 0.00000000e+00 4.05612073e-18
3.80189396e+02 3.81003377e-17 2.67985239e-18 0.00000000e+00 3.54204853e-17 0.00000000e+00 2.67985239e-18
4.36515832e+02 1.98612216e-17 1.77056092e-18 0.00000000e+00 1.80906607e-17 0.00000000e+00 1.77056092e-18
5.01187234e+02 1.03898900e-17 1.16979800e-18 0.00000000e+00 9.22009201e-18 0.00000000e+00 1.16979800e-18
5.75439937e+02 5.46400417e-18 7.72877871e-19 0.00000000e+00 4.69112629e-18 0.00000000e+00 7.72877871e-19
6.60693448e+02 2.89393248e-18 5.10635346e-19 0.00000000e+00 2.38329713e-18 0.00000000e+00 5.10635346e-19
7.58577575e+02 1.54661276e-18 3.37373427e-19 0.00000000e+00 1.20923933e-18 0.00000000e+00 3.37373427e-19
8.70963590e+02 8.35592840e-19 2.22900413e-19 0.00000000e+00 6.12692427e-19 0.00000000e+00 2.22900413e-19
1.00000000e+03 3.10023096e-19 0.00000000e+00 0.00000000e+00 3.10023096e-19 0.00000000e+00 0.00000000e+00
