# column 1: lambda (micron)
# column 2: total flux; lambda*F_lambda (W/m2)
# column 3: direct stellar flux; lambda*F_lambda (W/m2)
# column 4: scattered stellar flux; lambda*F_lambda (W/m2)
# column 5: total dust emission flux; lambda*F_lambda (W/m2)
# column 6: dust emission scattered flux; lambda*F_lambda (W/m2)
# column 7: transparent flux; lambda*F_lambda (W/m2)
1.00000000e-03 8.46531224e-13 8.46529401e-13 1.82298741e-18 0.00000000e+00 0.00000000e+00 8.46529401e-13
1.14815362e-03 9.99178997e-13 9.99176121e-13 2.87669628e-18 0.00000000e+00 0.00000000e+00 9.99176121e-13
1.31825674e-03 1.17935250e-12 1.17934819e-12 4.30623620e-18 0.00000000e+00 0.00000000e+00 1.17934819e-12
1.51356125e-03 1.39201557e-12 1.39200901e-12 6.56392188e-18 0.00000000e+00 0.00000000e+00 1.39200901e-12
1.73780083e-03 1.64302840e-12 1.64301696e-12 1.14450965e-17 0.00000000e+00 0.00000000e+00 1.64301696e-12
1.99526231e-03 1.93930710e-12 1.93928682e-12 2.02777134e-17 0.00000000e+00 0.00000000e+00 1.93928682e-12
2.29086765e-03 2.28901130e-12 2.28898025e-12 3.10463119e-17 0.00000000e+00 0.00000000e+00 2.28898025e-12
2.63026799e-03 2.70179401e-12 2.70173063e-12 6.33836954e-17 0.00000000e+00 0.00000000e+00 2.70173063e-12
3.01995172e-03 3.18901058e-12 3.18890841e-12 1.02165693e-16 0.00000000e+00 0.00000000e+00 3.18890841e-12
3.46736850e-03 3.76411060e-12 3.76393440e-12 1.76198344e-16 0.00000000e+00 0.00000000e+00 3.76393440e-12
3.98107171e-03 4.44293182e-12 4.44264945e-12 2.82371342e-16 0.00000000e+00 0.00000000e+00 4.44264945e-12
4.57088190e-03 5.24449394e-12 5.24375082e-12 7.43119263e-16 0.00000000e+00 0.00000000e+00 5.24375082e-12
5.24807460e-03 6.19045108e-12 6.18930730e-12 1.14377487e-15 0.00000000e+00 0.00000000e+00 6.18930730e-12
6.02559586e-03 7.30739818e-12 7.30536713e-12 2.03104534e-15 0.00000000e+00 0.00000000e+00 7.30536713e-12
6.91830971e-03 8.62588664e-12 8.62267558e-12 3.21106396e-15 0.00000000e+00 0.00000000e+00 8.62267558e-12
7.94328235e-03 1.01828900e-11 1.01775219e-11 5.36807134e-15 4.13241104e-304 6.71704406e-306 1.01775219e-11
9.12010839e-03 1.20228246e-11 1.20127391e-11 1.00854349e-14 1.88773976e-265 7.55284133e-267 1.20127391e-11
1.04712855e-02 1.34293275e-11 1.34165878e-11 1.27396130e-14 8.15372889e-232 3.71998817e-233 1.34165878e-11
1.20226443e-02 1.34437007e-11 1.34165878e-11 2.71128278e-14 1.26994517e-202 3.57316337e-204 1.34165878e-11
1.38038426e-02 1.34490242e-11 1.34165878e-11 3.24363422e-14 3.53692062e-177 1.37787277e-178 1.34165878e-11
1.58489319e-02 1.34753510e-11 1.34165878e-11 5.87631592e-14 4.81426887e-155 1.81705539e-156 1.34165878e-11
1.81970086e-02 1.34673302e-11 1.34165878e-11 5.07423551e-14 8.71374310e-136 3.93698993e-137 1.34165878e-11
2.08929613e-02 1.35040736e-11 1.34165878e-11 8.74857293e-14 4.58847114e-119 2.20691416e-120 1.34165878e-11
2.39883292e-02 1.35211940e-11 1.34165878e-11 1.04606117e-13 1.62601495e-104 8.91021713e-106 1.34165878e-11
2.75422870e-02 1.35464010e-11 1.34165878e-11 1.29813144e-13 7.36273774e-92 4.68621153e-93 1.34165878e-11
3.16227766e-02 1.35808799e-11 1.34165878e-11 1.64292018e-13 7.23826408e-81 5.17354976e-82 1.34165878e-11
3.63078055e-02 1.36012989e-11 1.34165878e-11 1.84711078e-13 2.52291315e-71 1.88663125e-72 1.34165878e-11
4.16869383e-02 1.36592557e-11 1.34165878e-11 2.42667865e-13 4.84329063e-63 4.17710945e-64 1.34165878e-11
4.78630092e-02 1.37240888e-11 1.34165878e-11 3.07500965e-13 7.34078522e-56 7.00841203e-57 1.34165878e-11
5.49540874e-02 1.37629652e-11 1.34165878e-11 3.46377389e-13 1.21717324e-49 1.24865618e-50 1.34165878e-11
6.30957344e-02 1.37955586e-11 1.34165878e-11 3.78970759e-13 3.85879219e-44 3.98465481e-45 1.34165878e-11
7.24435960e-02 1.37511864e-11 1.34165878e-11 3.34598609e-13 2.17995646e-39 2.00902864e-40 1.34165878e-11
8.31763771e-02 1.37483086e-11 1.34165878e-11 3.31720756e-13 2.23054903e-35 1.98389750e-36 1.34165878e-11
9.54992586e-02 1.37618564e-11 1.34165878e-11 3.45268523e-13 6.32268550e-32 5.70667981e-33 1.34165878e-11
1.09647820e-01 1.31766045e-11 1.28127470e-11 3.63857549e-13 5.48652763e-29 5.51253471e-30 1.28127470e-11
1.25892541e-01 1.23053727e-11 1.19575512e-11 3.47821451e-13 1.81041493e-26 1.87310978e-27 1.19575512e-11
1.44543977e-01 1.14728899e-11 1.11594361e-11 3.13453832e-13 2.49163051e-24 2.51616897e-25 1.11594361e-11
1.65958691e-01 1.07328553e-11 1.04145917e-11 3.18263569e-13 1.27458900e-22 1.37212516e-23 1.04145917e-11
1.90546072e-01 1.00534849e-11 9.71946251e-12 3.34022338e-13 2.68684299e-21 3.22182178e-22 9.71946251e-12
2.18776162e-01 9.38927971e-12 9.07073019e-12 3.18549484e-13 3.13893408e-20 3.72028345e-21 9.07073019e-12
2.51188643e-01 8.81700680e-12 8.46529796e-12 3.51708445e-13 3.87194969e-19 5.33571619e-20 8.46529796e-12
2.88403150e-01 8.23136993e-12 7.90027573e-12 3.31090945e-13 3.24844269e-18 4.39425425e-19 7.90027573e-12
3.31131121e-01 7.66918630e-12 7.37296631e-12 2.96201291e-13 1.87025615e-17 2.46470861e-18 7.37296631e-12
3.80189396e-01 7.14986912e-12 6.88085251e-12 2.68938102e-13 7.85033305e-17 1.01995821e-17 6.88085251e-12
4.36515832e-01 6.67041657e-12 6.42158520e-12 2.48579208e-13 2.52164077e-16 3.22895805e-17 6.42158520e-12
5.01187234e-01 6.21774637e-12 5.99297201e-12 2.24103542e-13 6.70820937e-16 9.08932578e-17 5.99297201e-12
5.75439937e-01 5.79768227e-12 5.59296690e-12 2.03028592e-13 1.68677967e-15 2.66765849e-16 5.59296690e-12
6.60693448e-01 5.40744173e-12 5.21966041e-12 1.83212251e-13 4.56906013e-15 9.01034127e-16 5.21966041e-12
7.58577575e-01 5.04961271e-12 4.87127053e-12 1.64719918e-13 1.36222592e-14 3.04883599e-15 4.87127053e-12
8.70963590e-01 4.72988589e-12 4.54613417e-12 1.43782887e-13 3.99688259e-14 9.20912792e-15 4.54613417e-12
1.00000000e+00 4.47222253e-12 4.24269927e-12 1.24015276e-13 1.05507987e-13 2.33407456e-14 4.24269927e-12
1.14815362e+00 4.31446408e-12 3.95951734e-12 1.05108728e-13 2.49838013e-13 5.07865099e-14 3.95951734e-12
1.31825674e+00 4.30328659e-12 3.69523659e-12 8.34642506e-14 5.24585755e-13 9.40857705e-14 3.69523659e-12
1.51356125e+00 4.50738488e-12 3.44859544e-12 6.66508309e-14 9.92138614e-13 1.56004085e-13 3.44859544e-12
1.73780083e+00 4.92520787e-12 3.21841652e-12 5.19624372e-14 1.65482891e-12 2.21081479e-13 3.21841652e-12
1.99526231e+00 5.50510431e-12 3.00360106e-12 3.97463133e-14 2.46175693e-12 2.68252899e-13 3.00360106e-12
2.29086765e+00 6.16868792e-12 2.80312361e-12 2.90093553e-14 3.33655496e-12 2.88141773e-13 2.80312361e-12
2.63026799e+00 6.76479035e-12 2.61602716e-12 2.09545671e-14 4.12780862e-12 2.75609807e-13 2.61602716e-12
3.01995172e+00 7.26617385e-12 2.44141860e-12 1.46157938e-14 4.81013945e-12 2.38747320e-13 2.44141860e-12
3.46736850e+00 7.55478632e-12 2.27846441e-12 1.00190051e-14 5.26630291e-12 1.90924122e-13 2.27846441e-12
3.98107171e+00 7.62650095e-12 2.12638671e-12 6.56295953e-15 5.49355129e-12 1.39590571e-13 2.12638671e-12
4.57088190e+00 7.47575510e-12 1.98445954e-12 4.16564641e-15 5.48712991e-12 9.44581759e-14 1.98445954e-12
5.24807460e+00 6.97665282e-12 1.64084388e-12 2.26732323e-15 5.33354162e-12 6.00495960e-14 1.64084388e-12
6.02559586e+00 6.15450033e-12 1.08409480e-12 9.34615203e-16 5.06947092e-12 3.56060625e-14 1.08409480e-12
6.70000000e+00 5.59743252e-12 7.88574724e-13 4.64977807e-16 4.80839282e-12 2.28819931e-14 7.88574724e-13
6.92422916e+00 5.42688762e-12 7.14418944e-13 3.69741418e-16 4.71209894e-12 1.97061063e-14 7.14418944e-13
7.15596261e+00 5.30226546e-12 6.47236606e-13 2.93441011e-16 4.65473541e-12 1.68102145e-14 6.47236606e-13
7.39545150e+00 5.26992426e-12 5.86371942e-13 2.23790153e-16 4.68332853e-12 1.43838626e-14 5.86371942e-13
7.64295536e+00 5.47286276e-12 5.31230854e-13 1.60994261e-16 4.94147091e-12 1.23042411e-14 5.31230854e-13
7.89874245e+00 6.02316641e-12 4.81275108e-13 1.03913892e-16 5.54178739e-12 1.02467333e-14 4.81275108e-13
8.16308998e+00 6.80034770e-12 4.36017088e-13 6.31438171e-17 6.36426747e-12 8.46144881e-15 4.36017088e-13
8.43628443e+00 7.72155164e-12 3.95015029e-13 3.53973504e-17 7.32650122e-12 6.57604833e-15 3.95015029e-13
8.71862190e+00 8.33416825e-12 3.57868711e-13 2.16155543e-17 7.97627792e-12 5.10743223e-15 3.57868711e-13
9.01040836e+00 8.88541839e-12 3.24215549e-13 1.16037335e-17 8.56119124e-12 3.57402282e-15 3.24215549e-13
9.31196005e+00 9.33390219e-12 2.93727053e-13 0.00000000e+00 9.04017514e-12 0.00000000e+00 2.93727053e-13
9.62360379e+00 9.20522196e-12 2.66105627e-13 0.00000000e+00 8.93911633e-12 0.00000000e+00 2.66105627e-13
9.94567731e+00 8.77568702e-12 2.41081657e-13 0.00000000e+00 8.53460536e-12 0.00000000e+00 2.41081657e-13
1.02785297e+01 8.23463027e-12 2.18410884e-13 0.00000000e+00 8.01621938e-12 0.00000000e+00 2.18410884e-13
1.06225216e+01 7.69826562e-12 1.97872020e-13 0.00000000e+00 7.50039360e-12 0.00000000e+00 1.97872020e-13
1.09780260e+01 7.09934891e-12 1.79264583e-13 0.00000000e+00 6.92008433e-12 0.00000000e+00 1.79264583e-13
1.13454280e+01 6.54566743e-12 1.62406948e-13 0.00000000e+00 6.38326048e-12 0.00000000e+00 1.62406948e-13
1.17251259e+01 6.04772686e-12 1.47134567e-13 0.00000000e+00 5.90059229e-12 0.00000000e+00 1.47134567e-13
1.21175312e+01 5.58828892e-12 1.33298366e-13 0.00000000e+00 5.45499056e-12 0.00000000e+00 1.33298366e-13
1.25230691e+01 5.14916130e-12 1.20763289e-13 0.00000000e+00 5.02839801e-12 0.00000000e+00 1.20763289e-13
1.29421791e+01 4.74575592e-12 1.09406983e-13 0.00000000e+00 4.63634893e-12 0.00000000e+00 1.09406983e-13
1.33753155e+01 4.39051199e-12 9.91185987e-14 0.00000000e+00 4.29139339e-12 0.00000000e+00 9.91185987e-14
1.38229477e+01 4.16197584e-12 8.97977103e-14 0.00000000e+00 4.07217813e-12 0.00000000e+00 8.97977103e-14
1.42855609e+01 4.00702139e-12 8.13533371e-14 0.00000000e+00 3.92566805e-12 0.00000000e+00 8.13533371e-14
1.47636563e+01 4.03266550e-12 7.37030537e-14 0.00000000e+00 3.95896244e-12 0.00000000e+00 7.37030537e-14
1.52577522e+01 4.09874675e-12 6.67721855e-14 0.00000000e+00 4.03197456e-12 0.00000000e+00 6.67721855e-14
1.57683840e+01 4.17865333e-12 6.04930805e-14 0.00000000e+00 4.11816025e-12 0.00000000e+00 6.04930805e-14
1.62961051e+01 4.26567164e-12 5.48044484e-14 0.00000000e+00 4.21086719e-12 0.00000000e+00 5.48044484e-14
1.68414875e+01 4.34001149e-12 4.96507622e-14 0.00000000e+00 4.29036072e-12 0.00000000e+00 4.96507622e-14
1.74051222e+01 4.35557639e-12 4.49817171e-14 0.00000000e+00 4.31059467e-12 0.00000000e+00 4.49817171e-14
1.79876201e+01 4.32224291e-12 4.07517384e-14 0.00000000e+00 4.28149117e-12 0.00000000e+00 4.07517384e-14
1.85896125e+01 4.24960249e-12 3.69195372e-14 0.00000000e+00 4.21268295e-12 0.00000000e+00 3.69195372e-14
1.92117518e+01 4.09389578e-12 3.34477076e-14 0.00000000e+00 4.06044807e-12 0.00000000e+00 3.34477076e-14
1.98547123e+01 3.92897626e-12 3.03023610e-14 0.00000000e+00 3.89867390e-12 0.00000000e+00 3.03023610e-14
2.05191907e+01 3.73255959e-12 2.74527957e-14 0.00000000e+00 3.70510680e-12 0.00000000e+00 2.74527957e-14
2.12059073e+01 3.53807704e-12 2.48711970e-14 0.00000000e+00 3.51320585e-12 0.00000000e+00 2.48711970e-14
2.19156062e+01 3.34812138e-12 2.25323660e-14 0.00000000e+00 3.32558901e-12 0.00000000e+00 2.25323660e-14
2.26490567e+01 3.17743454e-12 2.04134733e-14 0.00000000e+00 3.15702107e-12 0.00000000e+00 2.04134733e-14
2.34070535e+01 3.00542594e-12 1.84938366e-14 0.00000000e+00 2.98693210e-12 0.00000000e+00 1.84938366e-14
2.41904183e+01 2.84630669e-12 1.67547181e-14 0.00000000e+00 2.82955197e-12 0.00000000e+00 1.67547181e-14
2.50000000e+01 2.68563759e-12 1.51791424e-14 0.00000000e+00 2.67045844e-12 0.00000000e+00 1.51791424e-14
2.75422870e+01 2.24864959e-12 1.13518661e-14 0.00000000e+00 2.23729773e-12 0.00000000e+00 1.13518661e-14
3.16227766e+01 1.68819094e-12 7.50010357e-15 0.00000000e+00 1.68069084e-12 0.00000000e+00 7.50010357e-15
3.63078055e+01 1.19660517e-12 4.95526929e-15 0.00000000e+00 1.19164990e-12 0.00000000e+00 4.95526929e-15
4.16869383e+01 7.95891196e-13 3.27391395e-15 0.00000000e+00 7.92617283e-13 0.00000000e+00 3.27391395e-15
4.78630092e+01 4.96661024e-13 2.16305350e-15 0.00000000e+00 4.94497970e-13 0.00000000e+00 2.16305350e-15
5.49540874e+01 2.94622425e-13 1.42911527e-15 0.00000000e+00 2.93193309e-13 0.00000000e+00 1.42911527e-15
6.30957344e+01 1.68355676e-13 9.44207098e-16 0.00000000e+00 1.67411469e-13 0.00000000e+00 9.44207098e-16
7.24435960e+01 9.34017287e-14 6.23831443e-16 0.00000000e+00 9.27778972e-14 0.00000000e+00 6.23831443e-16
8.31763771e+01 5.08153734e-14 4.12161347e-16 0.00000000e+00 5.04032120e-14 0.00000000e+00 4.12161347e-16
9.54992586e+01 2.72987798e-14 2.72312302e-16 0.00000000e+00 2.70264675e-14 0.00000000e+00 2.72312302e-16
1.09647820e+02 1.45511796e-14 1.79914953e-16 0.00000000e+00 1.43712646e-14 0.00000000e+00 1.79914953e-16
1.25892541e+02 7.80231017e-15 1.18868631e-16 0.00000000e+00 7.68344154e-15 0.00000000e+00 1.18868631e-16
1.44543977e+02 4.18366053e-15 7.85357256e-17 0.00000000e+00 4.10512480e-15 0.00000000e+00 7.85357256e-17
1.65958691e+02 2.14599729e-15 5.18880394e-17 0.00000000e+00 2.09410925e-15 0.00000000e+00 5.18880394e-17
1.90546072e+02 1.10756919e-15 3.42820876e-17 0.00000000e+00 1.07328711e-15 0.00000000e+00 3.42820876e-17
2.18776162e+02 5.73535523e-16 2.26499507e-17 0.00000000e+00 5.50885572e-16 0.00000000e+00 2.26499507e-17
2.51188643e+02 2.97480179e-16 1.49646740e-17 0.00000000e+00 2.82515505e-16 0.00000000e+00 1.49646740e-17
2.88403150e+02 1.54399096e-16 9.88706207e-18 0.00000000e+00 1.44512034e-16 0.00000000e+00 9.88706207e-18
3.31131121e+02 8.03818849e-17 6.53231713e-18 0.00000000e+00 7.38495677e-17 0.00000000e+00 6.53231713e-18
3.80189396e+02 4.19658782e-17 4.31585913e-18 0.00000000e+00 3.76500191e-17 0.00000000e+00 4.31585913e-18
4.36515832e+02 2.20228602e-17 2.85145985e-18 0.00000000e+00 1.91714003e-17 0.00000000e+00 2.85145985e-18
5.01187234e+02 1.16296789e-17 1.88394084e-18 0.00000000e+00 9.74573811e-18 0.00000000e+00 1.88394084e-18
5.75439937e+02 6.19233557e-18 1.24470737e-18 0.00000000e+00 4.94762820e-18 0.00000000e+00 1.24470737e-18
6.60693448e+02 3.33119804e-18 8.22370004e-19 0.00000000e+00 2.50882803e-18 0.00000000e+00 8.22370004e-19
7.58577575e+02 1.81418200e-18 5.43334473e-19 0.00000000e+00 1.27084753e-18 0.00000000e+00 5.43334473e-19
8.70963590e+02 1.00198102e-18 3.58977527e-19 0.00000000e+00 6.43003498e-19 0.00000000e+00 3.58977527e-19
1.00000000e+03 3.24965084e-19 0.00000000e+00 0.00000000e+00 3.24965084e-19 0.00000000e+00 0.00000000e+00
