# column 1: lambda (micron)
# column 2: total flux; lambda*F_lambda (W/m2)
# column 3: direct stellar flux; lambda*F_lambda (W/m2)
# column 4: scattered stellar flux; lambda*F_lambda (W/m2)
# column 5: total dust emission flux; lambda*F_lambda (W/m2)
# column 6: dust emission scattered flux; lambda*F_lambda (W/m2)
# column 7: transparent flux; lambda*F_lambda (W/m2)
1.00000000e-03 3.57588230e-13 3.57587894e-13 3.35115327e-19 0.00000000e+00 0.00000000e+00 3.57785423e-13
1.14815362e-03 4.21993955e-13 4.21993521e-13 4.34345531e-19 0.00000000e+00 0.00000000e+00 4.22301518e-13
1.31825674e-03 4.97989677e-13 4.97989037e-13 6.40570130e-19 0.00000000e+00 0.00000000e+00 4.98451197e-13
1.51356125e-03 5.87690235e-13 5.87689163e-13 1.07260983e-18 0.00000000e+00 0.00000000e+00 5.88332233e-13
1.73780083e-03 6.93655781e-13 6.93653806e-13 1.97537768e-18 0.00000000e+00 0.00000000e+00 6.94420676e-13
1.99526231e-03 8.18442586e-13 8.18439192e-13 3.39432125e-18 0.00000000e+00 0.00000000e+00 8.19639053e-13
2.29086765e-03 9.65941100e-13 9.65935159e-13 5.94107002e-18 0.00000000e+00 0.00000000e+00 9.67436888e-13
2.63026799e-03 1.13977407e-12 1.13976194e-12 1.21297655e-17 0.00000000e+00 0.00000000e+00 1.14188572e-12
3.01995172e-03 1.34473751e-12 1.34469166e-12 4.58518818e-17 0.00000000e+00 0.00000000e+00 1.34779128e-12
3.46736850e-03 1.58677000e-12 1.58651453e-12 2.55466694e-16 0.00000000e+00 0.00000000e+00 1.59082586e-12
3.98107171e-03 1.87203008e-12 1.87186084e-12 1.69244159e-16 0.00000000e+00 0.00000000e+00 1.87768459e-12
4.57088190e-03 2.21270920e-12 2.21168229e-12 1.02691402e-15 0.00000000e+00 0.00000000e+00 2.21626987e-12
5.24807460e-03 2.60933801e-12 2.60899504e-12 3.42966519e-16 0.00000000e+00 0.00000000e+00 2.61590907e-12
6.02559586e-03 3.07970004e-12 3.07777430e-12 1.92574877e-15 0.00000000e+00 0.00000000e+00 3.08761145e-12
6.91830971e-03 3.63338297e-12 3.63097417e-12 2.40880125e-15 0.00000000e+00 0.00000000e+00 3.64437151e-12
7.94328235e-03 4.28927172e-12 4.28388852e-12 5.38319753e-15 4.53557942e-304 1.89752554e-306 4.30152690e-12
9.12010839e-03 5.06613626e-12 5.05408343e-12 1.20528216e-14 2.21883742e-265 9.48516072e-268 5.07718096e-12
1.04712855e-02 5.65286838e-12 5.64307705e-12 9.79133623e-15 1.03170867e-231 4.17934113e-234 5.67051724e-12
1.20226443e-02 5.65117383e-12 5.64146174e-12 9.71209413e-15 1.75753684e-202 9.29864824e-205 5.67051724e-12
1.38038426e-02 5.65345465e-12 5.63954640e-12 1.39082526e-14 5.15563254e-177 3.75048359e-179 5.67051724e-12
1.58489319e-02 5.65213316e-12 5.63719349e-12 1.49396716e-14 7.44533172e-155 7.68925197e-157 5.67051724e-12
1.81970086e-02 5.65336136e-12 5.63502422e-12 1.83371450e-14 1.40626663e-135 1.92587661e-137 5.67051724e-12
2.08929613e-02 5.65783545e-12 5.63322172e-12 2.46137245e-14 7.72637630e-119 1.35301933e-120 5.67051724e-12
2.39883292e-02 5.65673825e-12 5.63088715e-12 2.58510987e-14 2.83598640e-104 6.44268678e-106 5.67051724e-12
2.75422870e-02 5.66065661e-12 5.62817286e-12 3.24837515e-14 1.31826406e-91 3.49042572e-93 5.67051724e-12
3.16227766e-02 5.66318974e-12 5.62551353e-12 3.76762029e-14 1.32969258e-80 4.13962020e-82 5.67051724e-12
3.63078055e-02 5.66472728e-12 5.62342857e-12 4.12987058e-14 4.74767740e-71 1.64730233e-72 5.67051724e-12
4.16869383e-02 5.66979272e-12 5.62162586e-12 4.81668617e-14 9.31571409e-63 4.32953982e-64 5.67051724e-12
4.78630092e-02 5.67091245e-12 5.61665971e-12 5.42527436e-14 1.43818647e-55 7.68038298e-57 5.67051724e-12
5.49540874e-02 5.67175893e-12 5.60976063e-12 6.19982935e-14 2.44149166e-49 1.50660906e-50 5.67051724e-12
6.30957344e-02 5.65589388e-12 5.59249844e-12 6.33954445e-14 8.00655742e-44 5.41379524e-45 5.67051724e-12
7.24435960e-02 5.62992705e-12 5.57211987e-12 5.78071811e-14 4.67241950e-39 2.89701083e-40 5.67051724e-12
8.31763771e-02 5.63012812e-12 5.57393025e-12 5.61978682e-14 4.83702687e-35 2.93134558e-36 5.67051724e-12
9.54992586e-02 5.63489740e-12 5.57924339e-12 5.56540155e-14 1.37953129e-31 8.69553051e-33 5.67051724e-12
1.09647820e-01 5.40121035e-12 5.34279175e-12 5.84186031e-14 1.18452746e-28 8.14756272e-30 5.41530405e-12
1.25892541e-01 5.05062582e-12 4.99808471e-12 5.25411078e-14 3.87123533e-26 2.63295567e-27 5.05385580e-12
1.44543977e-01 4.72305488e-12 4.67335110e-12 4.97037827e-14 5.30977619e-24 3.53769414e-25 4.71653266e-12
1.65958691e-01 4.41499764e-12 4.36646027e-12 4.85373731e-14 2.70797527e-22 1.95914468e-23 4.40172439e-12
1.90546072e-01 4.12144036e-12 4.07282720e-12 4.86131504e-14 5.73633252e-21 4.79103024e-22 4.10792822e-12
2.18776162e-01 3.83986717e-12 3.79534384e-12 4.45232614e-14 6.81484116e-20 5.85441680e-21 3.83374167e-12
2.51188643e-01 3.60068884e-12 3.54916842e-12 5.15195903e-14 8.30081396e-19 8.36205852e-20 3.57785591e-12
2.88403150e-01 3.35978419e-12 3.31680647e-12 4.29707842e-14 6.93623376e-18 6.92416771e-19 3.33904941e-12
3.31131121e-01 3.13795031e-12 3.09807899e-12 3.98314987e-14 3.98249997e-17 3.84882381e-18 3.11618222e-12
3.80189396e-01 2.92762686e-12 2.89334887e-12 3.41116591e-14 1.66324348e-16 1.56705664e-17 2.90819046e-12
4.36515832e-01 2.73478030e-12 2.70202255e-12 3.22320113e-14 5.25737699e-16 4.75515123e-17 2.71408126e-12
5.01187234e-01 2.55236417e-12 2.52326310e-12 2.77848874e-14 1.31618940e-15 1.18363054e-16 2.53292801e-12
5.75439937e-01 2.38242284e-12 2.35619971e-12 2.35077176e-14 2.71541386e-15 2.38366735e-16 2.36386595e-12
6.60693448e-01 2.22705073e-12 2.20005993e-12 2.21776648e-14 4.81313818e-15 4.11691539e-16 2.20608807e-12
7.58577575e-01 2.08218282e-12 2.05415883e-12 2.02866328e-14 7.73735891e-15 6.49052422e-16 2.05884118e-12
8.70963590e-01 1.94703413e-12 1.91786600e-12 1.73945719e-14 1.17735596e-14 9.52722070e-16 1.92142238e-12
1.00000000e+00 1.82236065e-12 1.79051821e-12 1.41797693e-14 1.76626716e-14 1.38511415e-15 1.79317570e-12
1.14815362e+00 1.71061132e-12 1.67153847e-12 1.15016880e-14 2.75711621e-14 2.02337444e-15 1.67348894e-12
1.31825674e+00 1.61412558e-12 1.56038410e-12 8.77127243e-15 4.49702002e-14 3.01650684e-15 1.56179075e-12
1.51356125e+00 1.53788660e-12 1.45654375e-12 7.30377592e-15 7.40390713e-14 4.44940359e-15 1.45754793e-12
1.73780083e+00 1.48156843e-12 1.35955768e-12 5.52849276e-15 1.16482258e-13 6.03266878e-15 1.36026288e-12
1.99526231e+00 1.44370660e-12 1.26898373e-12 4.11038694e-15 1.70612485e-13 7.39888920e-15 1.26947118e-12
2.29086765e+00 1.41637318e-12 1.18440354e-12 2.88307799e-15 2.29086559e-13 7.89125734e-15 1.18473944e-12
2.63026799e+00 1.39113451e-12 1.10542955e-12 2.12608464e-15 2.83578871e-13 7.50902589e-15 1.10566318e-12
3.01995172e+00 1.35844272e-12 1.03170033e-12 1.44572001e-15 3.25296666e-13 6.45031923e-15 1.03186491e-12
3.46736850e+00 1.31343298e-12 9.62874537e-13 9.21372903e-16 3.49637067e-13 5.04205510e-15 9.62992369e-13
3.98107171e+00 1.25195867e-12 8.98631329e-13 5.80033074e-16 3.52747309e-13 3.55125839e-15 8.98716770e-13
4.57088190e+00 1.17643908e-12 8.38668492e-13 3.71803247e-16 3.37398790e-13 2.36633530e-15 8.38731291e-13
5.24807460e+00 1.00462442e-12 6.93460510e-13 1.92171440e-16 3.10971742e-13 1.43479964e-15 6.93502223e-13
6.02559586e+00 7.37918852e-13 4.58169473e-13 8.27962635e-17 2.79666583e-13 8.16524557e-16 4.58192375e-13
6.70000000e+00 5.86952926e-13 3.33276149e-13 4.01738966e-17 2.53636603e-13 4.97036280e-16 3.33290895e-13
6.92422916e+00 5.47276458e-13 3.01936084e-13 3.10724239e-17 2.45309302e-13 4.22785892e-16 3.01948975e-13
7.15596261e+00 5.13312571e-13 2.73542903e-13 2.53733402e-17 2.39744295e-13 3.58421376e-16 2.73554377e-13
7.39545150e+00 4.88592719e-13 2.47819300e-13 1.93979035e-17 2.40754021e-13 3.04197056e-16 2.47829944e-13
7.64295536e+00 4.85288871e-13 2.24513591e-13 1.38834481e-17 2.60761397e-13 2.61766167e-16 2.24524577e-13
7.89874245e+00 5.13438804e-13 2.03397935e-13 9.19787107e-18 3.10031671e-13 2.27051417e-16 2.03410795e-13
8.16308998e+00 5.66487157e-13 1.84266773e-13 5.63196629e-18 3.82214751e-13 1.90687652e-16 1.84282505e-13
8.43628443e+00 6.49142953e-13 1.66933195e-13 3.35764357e-18 4.82206400e-13 1.56623829e-16 1.66952996e-13
8.71862190e+00 7.04836954e-13 1.51231073e-13 2.31224472e-18 5.53603569e-13 1.22807125e-16 1.51253114e-13
9.01040836e+00 7.63659689e-13 1.37005424e-13 1.35889614e-18 6.26652906e-13 9.08727298e-17 1.37029614e-13
9.31196005e+00 8.09471666e-13 1.24118242e-13 0.00000000e+00 6.85353424e-13 0.00000000e+00 1.24143660e-13
9.62360379e+00 7.92590304e-13 1.12445838e-13 0.00000000e+00 6.80144467e-13 0.00000000e+00 1.12469472e-13
9.94567731e+00 7.30669769e-13 1.01873007e-13 0.00000000e+00 6.28796762e-13 0.00000000e+00 1.01893097e-13
1.02785297e+01 6.59024633e-13 9.22948354e-14 0.00000000e+00 5.66729797e-13 0.00000000e+00 9.23113014e-14
1.06225216e+01 5.89144568e-13 8.36172051e-14 0.00000000e+00 5.05527363e-13 0.00000000e+00 8.36305558e-14
1.09780260e+01 5.15016221e-13 7.57556934e-14 0.00000000e+00 4.39260528e-13 0.00000000e+00 7.57661279e-14
1.13454280e+01 4.51163108e-13 6.86330651e-14 0.00000000e+00 3.82530043e-13 0.00000000e+00 6.86412529e-14
1.17251259e+01 3.97245656e-13 6.21799187e-14 0.00000000e+00 3.35065737e-13 0.00000000e+00 6.21863851e-14
1.21175312e+01 3.49416842e-13 5.63334378e-14 0.00000000e+00 2.93083404e-13 0.00000000e+00 5.63385184e-14
1.25230691e+01 3.07816378e-13 5.10365909e-14 0.00000000e+00 2.56779787e-13 0.00000000e+00 5.10405718e-14
1.29421791e+01 2.72061857e-13 4.62376910e-14 0.00000000e+00 2.25824166e-13 0.00000000e+00 4.62408321e-14
1.33753155e+01 2.41955557e-13 4.18899529e-14 0.00000000e+00 2.00065604e-13 0.00000000e+00 4.18924490e-14
1.38229477e+01 2.21600562e-13 3.79509030e-14 0.00000000e+00 1.83649659e-13 0.00000000e+00 3.79529781e-14
1.42855609e+01 2.08478872e-13 3.43821625e-14 0.00000000e+00 1.74096710e-13 0.00000000e+00 3.43839660e-14
1.47636563e+01 2.07098741e-13 3.11488641e-14 0.00000000e+00 1.75949877e-13 0.00000000e+00 3.11505758e-14
1.52577522e+01 2.08519038e-13 2.82195924e-14 0.00000000e+00 1.80299446e-13 0.00000000e+00 2.82212462e-14
1.57683840e+01 2.11649802e-13 2.55657657e-14 0.00000000e+00 1.86084036e-13 0.00000000e+00 2.55673842e-14
1.62961051e+01 2.15570333e-13 2.31615033e-14 0.00000000e+00 1.92408829e-13 0.00000000e+00 2.31630853e-14
1.68414875e+01 2.19742518e-13 2.09833384e-14 0.00000000e+00 1.98759180e-13 0.00000000e+00 2.09848813e-14
1.74051222e+01 2.20299170e-13 1.90100455e-14 0.00000000e+00 2.01289125e-13 0.00000000e+00 1.90115106e-14
1.79876201e+01 2.18759810e-13 1.72223432e-14 0.00000000e+00 2.01537467e-13 0.00000000e+00 1.72237112e-14
1.85896125e+01 2.13148320e-13 1.56027947e-14 0.00000000e+00 1.97545525e-13 0.00000000e+00 1.56040325e-14
1.92117518e+01 2.04596425e-13 1.41355774e-14 0.00000000e+00 1.90460848e-13 0.00000000e+00 1.41366646e-14
1.98547123e+01 1.94091341e-13 1.28063484e-14 0.00000000e+00 1.81284992e-13 0.00000000e+00 1.28072847e-14
2.05191907e+01 1.82876171e-13 1.16021184e-14 0.00000000e+00 1.71274053e-13 0.00000000e+00 1.16029167e-14
2.12059073e+01 1.72867132e-13 1.05111243e-14 0.00000000e+00 1.62356008e-13 0.00000000e+00 1.05118047e-14
2.19156062e+01 1.64006523e-13 9.52271557e-15 0.00000000e+00 1.54483808e-13 0.00000000e+00 9.52329842e-15
2.26490567e+01 1.55881073e-13 8.62724897e-15 0.00000000e+00 1.47253824e-13 0.00000000e+00 8.62774902e-15
2.34070535e+01 1.48377741e-13 7.81598526e-15 0.00000000e+00 1.40561756e-13 0.00000000e+00 7.81641505e-15
2.41904183e+01 1.41775260e-13 7.08100674e-15 0.00000000e+00 1.34694254e-13 0.00000000e+00 7.08137710e-15
2.50000000e+01 1.35688209e-13 6.41514063e-15 0.00000000e+00 1.29273068e-13 0.00000000e+00 6.41546044e-15
2.75422870e+01 1.19434470e-13 4.79765459e-15 0.00000000e+00 1.14636815e-13 0.00000000e+00 4.79786316e-15
3.16227766e+01 9.95608800e-14 3.16980217e-15 0.00000000e+00 9.63910779e-14 0.00000000e+00 3.16991676e-15
3.63078055e+01 8.03857273e-14 2.09428061e-15 0.00000000e+00 7.82914467e-14 0.00000000e+00 2.09434323e-15
4.16869383e+01 6.17987863e-14 1.38368553e-15 0.00000000e+00 6.04151008e-14 0.00000000e+00 1.38371885e-15
4.78630092e+01 4.47845890e-14 9.14196801e-16 0.00000000e+00 4.38703921e-14 0.00000000e+00 9.14213979e-16
5.49540874e+01 3.08788608e-14 6.04006519e-16 0.00000000e+00 3.02748542e-14 0.00000000e+00 6.04015186e-16
6.30957344e+01 2.03768602e-14 3.99064558e-16 0.00000000e+00 1.99777956e-14 0.00000000e+00 3.99068876e-16
7.24435960e+01 1.29596255e-14 2.63660056e-16 0.00000000e+00 1.26959654e-14 0.00000000e+00 2.63662192e-16
8.31763771e+01 7.98807640e-15 1.74198828e-16 0.00000000e+00 7.81387757e-15 0.00000000e+00 1.74199882e-16
9.54992586e+01 4.80558845e-15 1.15092199e-16 0.00000000e+00 4.69049625e-15 0.00000000e+00 1.15092721e-16
1.09647820e+02 2.83131348e-15 7.60407474e-17 0.00000000e+00 2.75527273e-15 0.00000000e+00 7.60410067e-17
1.25892541e+02 1.65742400e-15 5.02396642e-17 0.00000000e+00 1.60718434e-15 0.00000000e+00 5.02397949e-17
1.44543977e+02 9.59281067e-16 3.31930369e-17 0.00000000e+00 9.26088030e-16 0.00000000e+00 3.31931033e-17
1.65958691e+02 5.27411096e-16 2.19304333e-17 0.00000000e+00 5.05480663e-16 0.00000000e+00 2.19304659e-17
1.90546072e+02 2.89116933e-16 1.44892990e-17 0.00000000e+00 2.74627634e-16 0.00000000e+00 1.44893151e-17
2.18776162e+02 1.57789845e-16 9.57298754e-18 0.00000000e+00 1.48216857e-16 0.00000000e+00 9.57299556e-18
2.51188643e+02 8.56929611e-17 6.32481143e-18 0.00000000e+00 7.93681497e-17 0.00000000e+00 6.32481544e-18
2.88403150e+02 4.63164554e-17 4.17876212e-18 0.00000000e+00 4.21376933e-17 0.00000000e+00 4.17876412e-18
3.31131121e+02 2.49966436e-17 2.76088107e-18 0.00000000e+00 2.22357625e-17 0.00000000e+00 2.76088208e-18
3.80189396e+02 1.34786563e-17 1.82409620e-18 0.00000000e+00 1.16545601e-17 0.00000000e+00 1.82409670e-18
4.36515832e+02 7.28289401e-18 1.20516848e-18 0.00000000e+00 6.07772552e-18 0.00000000e+00 1.20516874e-18
5.01187234e+02 3.95012239e-18 7.96246962e-19 0.00000000e+00 3.15387542e-18 0.00000000e+00 7.96247089e-19
5.75439937e+02 2.15591335e-18 5.26075171e-19 0.00000000e+00 1.62983818e-18 0.00000000e+00 5.26075235e-19
6.60693448e+02 1.18681343e-18 3.47574429e-19 0.00000000e+00 8.39239005e-19 0.00000000e+00 3.47574461e-19
7.58577575e+02 6.60436327e-19 2.29640153e-19 0.00000000e+00 4.30796175e-19 0.00000000e+00 2.29640169e-19
8.70963590e+02 3.72205337e-19 1.51721747e-19 0.00000000e+00 2.20483590e-19 0.00000000e+00 1.51721755e-19
1.00000000e+03 1.12542455e-19 0.00000000e+00 0.00000000e+00 1.12542455e-19 0.00000000e+00 0.00000000e+00
