# column 1: lambda (micron)
# column 2: total flux; lambda*F_lambda (W/m2)
# column 3: direct stellar flux; lambda*F_lambda (W/m2)
# column 4: scattered stellar flux; lambda*F_lambda (W/m2)
# column 5: total dust emission flux; lambda*F_lambda (W/m2)
# column 6: dust emission scattered flux; lambda*F_lambda (W/m2)
# column 7: transparent flux; lambda*F_lambda (W/m2)
1.00000000e-03 2.06076277e-13 2.06075710e-13 5.67432787e-19 0.00000000e+00 0.00000000e+00 2.06075710e-13
1.14815362e-03 2.43236237e-13 2.43235413e-13 8.24600391e-19 0.00000000e+00 0.00000000e+00 2.43235413e-13
1.31825674e-03 2.87096981e-13 2.87095777e-13 1.20379009e-18 0.00000000e+00 0.00000000e+00 2.87095777e-13
1.51356125e-03 3.38867366e-13 3.38865070e-13 2.29594169e-18 0.00000000e+00 0.00000000e+00 3.38865070e-13
1.73780083e-03 3.99972826e-13 3.99969435e-13 3.39081536e-18 0.00000000e+00 0.00000000e+00 3.99969435e-13
1.99526231e-03 4.72098648e-13 4.72092178e-13 6.47033197e-18 0.00000000e+00 0.00000000e+00 4.72092178e-13
2.29086765e-03 5.57230242e-13 5.57220139e-13 1.01024378e-17 0.00000000e+00 0.00000000e+00 5.57220139e-13
2.63026799e-03 6.57719773e-13 6.57698429e-13 2.13439813e-17 0.00000000e+00 0.00000000e+00 6.57698429e-13
3.01995172e-03 7.76327824e-13 7.76295028e-13 3.27965799e-17 0.00000000e+00 0.00000000e+00 7.76295028e-13
3.46736850e-03 9.16325988e-13 9.16277040e-13 4.89473910e-17 0.00000000e+00 0.00000000e+00 9.16277040e-13
3.98107171e-03 1.08162072e-12 1.08150070e-12 1.20023598e-16 0.00000000e+00 0.00000000e+00 1.08150070e-12
4.57088190e-03 1.27670405e-12 1.27651759e-12 1.86457858e-16 0.00000000e+00 0.00000000e+00 1.27651759e-12
5.24807460e-03 1.50704598e-12 1.50670006e-12 3.45928610e-16 0.00000000e+00 0.00000000e+00 1.50670006e-12
6.02559586e-03 1.77907402e-12 1.77838917e-12 6.84855071e-16 0.00000000e+00 0.00000000e+00 1.77838917e-12
6.91830971e-03 2.10038850e-12 2.09906943e-12 1.31906358e-15 0.00000000e+00 0.00000000e+00 2.09906943e-12
7.94328235e-03 2.48026814e-12 2.47757497e-12 2.69317002e-15 8.14803957e-304 1.59681368e-306 2.47757497e-12
9.12010839e-03 2.92764330e-12 2.92433286e-12 3.31044002e-15 3.74585065e-265 1.28585602e-267 2.92433286e-12
1.04712855e-02 3.27412868e-12 3.26608014e-12 8.04854244e-15 1.64789073e-231 5.72290667e-234 3.26608014e-12
1.20226443e-02 3.27293330e-12 3.26608014e-12 6.85316486e-15 2.68250764e-202 2.01832920e-204 3.26608014e-12
1.38038426e-02 3.27723492e-12 3.26608014e-12 1.11547856e-14 7.53292036e-177 5.97548492e-179 3.26608014e-12
1.58489319e-02 3.27919362e-12 3.26608014e-12 1.31134853e-14 1.04921530e-154 1.19641814e-156 3.26608014e-12
1.81970086e-02 3.28587949e-12 3.26608014e-12 1.97993554e-14 1.91829721e-135 2.65348484e-137 3.26608014e-12
2.08929613e-02 3.28722982e-12 3.26608014e-12 2.11496872e-14 1.02538061e-118 1.84825230e-120 3.26608014e-12
2.39883292e-02 3.29612679e-12 3.26608014e-12 3.00466487e-14 3.67748561e-104 8.83138092e-106 3.26608014e-12
2.75422870e-02 3.30659573e-12 3.26608014e-12 4.05155941e-14 1.67790819e-91 5.00742403e-93 3.26608014e-12
3.16227766e-02 3.30276118e-12 3.26608014e-12 3.66810448e-14 1.66364658e-80 5.88806254e-82 3.26608014e-12
3.63078055e-02 3.30706960e-12 3.26608014e-12 4.09894634e-14 5.83761428e-71 2.18974247e-72 3.26608014e-12
4.16869383e-02 3.31654176e-12 3.26608014e-12 5.04616233e-14 1.12734105e-62 5.32243292e-64 3.26608014e-12
4.78630092e-02 3.30851718e-12 3.26608014e-12 4.24370411e-14 1.71865051e-55 9.10115810e-57 3.26608014e-12
5.49540874e-02 3.30748327e-12 3.26608014e-12 4.14031343e-14 2.87557498e-49 1.64158832e-50 3.26608014e-12
6.30957344e-02 3.30319325e-12 3.26608014e-12 3.71131085e-14 9.32958659e-44 5.56837190e-45 3.26608014e-12
7.24435960e-02 3.29545715e-12 3.26608014e-12 2.93770159e-14 5.41351037e-39 2.91572592e-40 3.26608014e-12
8.31763771e-02 3.29510558e-12 3.26608014e-12 2.90254401e-14 5.56618128e-35 2.93885109e-36 3.26608014e-12
9.54992586e-02 3.29510163e-12 3.26608014e-12 2.90214976e-14 1.57389840e-31 8.50385414e-33 3.26608014e-12
1.09647820e-01 3.15190510e-12 3.11908354e-12 3.28215607e-14 1.34152931e-28 7.95177215e-30 3.11908354e-12
1.25892541e-01 2.94319232e-12 2.91089813e-12 3.22941921e-14 4.36646665e-26 2.64213574e-27 2.91089813e-12
1.44543977e-01 2.74777129e-12 2.71660820e-12 3.11630866e-14 5.95335028e-24 3.48412125e-25 2.71660820e-12
1.65958691e-01 2.56609713e-12 2.53528629e-12 3.08108439e-14 3.02347140e-22 1.95147623e-23 2.53528629e-12
1.90546072e-01 2.39620637e-12 2.36606683e-12 3.01395348e-14 6.36561636e-21 4.60562731e-22 2.36606683e-12
2.18776162e-01 2.23427677e-12 2.20814205e-12 2.61346457e-14 7.53376297e-20 5.48987260e-21 2.20814205e-12
2.51188643e-01 2.09088710e-12 2.06075806e-12 3.01281330e-14 9.11244940e-19 7.75373697e-20 2.06075806e-12
2.88403150e-01 1.95117000e-12 1.92321132e-12 2.79510712e-14 7.60089107e-18 6.48404446e-19 1.92321132e-12
3.31131121e-01 1.81932332e-12 1.79484524e-12 2.44346060e-14 4.34777868e-17 3.51521608e-18 1.79484524e-12
3.80189396e-01 1.69684818e-12 1.67504704e-12 2.16199632e-14 1.81180455e-16 1.42443045e-17 1.67504704e-12
4.36515832e-01 1.58583856e-12 1.56324485e-12 2.20206703e-14 5.73033306e-16 4.42473059e-17 1.56324485e-12
5.01187234e-01 1.47879307e-12 1.45890498e-12 1.84601404e-14 1.42794503e-15 1.07231250e-16 1.45890498e-12
5.75439937e-01 1.38214419e-12 1.36152935e-12 1.76801501e-14 2.93468636e-15 2.15204842e-16 1.36152935e-12
6.60693448e-01 1.29012298e-12 1.27065312e-12 1.43116647e-14 5.15819733e-15 3.65888558e-16 1.27065312e-12
7.58577575e-01 1.20711931e-12 1.18584249e-12 1.31186869e-14 8.15813321e-15 5.58572701e-16 1.18584249e-12
8.70963590e-01 1.12946053e-12 1.10669260e-12 1.07098742e-14 1.20580541e-14 7.89845903e-16 1.10669260e-12
1.00000000e+00 1.05919825e-12 1.03282563e-12 9.15738550e-15 1.72152369e-14 1.08404325e-15 1.03282563e-12
1.14815362e+00 9.96679568e-13 9.63888963e-13 7.56457290e-15 2.52260326e-14 1.49854916e-15 9.63888963e-13
1.31825674e+00 9.44129610e-13 8.99553520e-13 6.13155534e-15 3.84445344e-14 2.09424808e-15 8.99553520e-13
1.51356125e+00 9.03975433e-13 8.39512191e-13 4.88696128e-15 5.95762808e-14 2.81981839e-15 8.39512191e-13
1.73780083e+00 8.76895033e-13 7.83478363e-13 3.81897038e-15 8.95976991e-14 3.50834623e-15 7.83478363e-13
1.99526231e+00 8.61383908e-13 7.31184552e-13 2.87274163e-15 1.27326614e-13 4.11700338e-15 7.31184552e-13
2.29086765e+00 8.51808065e-13 6.82381128e-13 2.03787543e-15 1.67389062e-13 4.28323450e-15 6.82381128e-13
2.63026799e+00 8.42325708e-13 6.36835122e-13 1.52641669e-15 2.03964169e-13 4.17490546e-15 6.36835122e-13
3.01995172e+00 8.27312497e-13 5.94329117e-13 1.00647582e-15 2.31976905e-13 3.73811276e-15 5.94329117e-13
3.46736850e+00 8.04362945e-13 5.54660204e-13 7.45089357e-16 2.48957651e-13 3.06871617e-15 5.54660204e-13
3.98107171e+00 7.71151463e-13 5.17639021e-13 4.57412884e-16 2.53055029e-13 2.34175945e-15 5.17639021e-13
4.57088190e+00 7.28807655e-13 4.83088843e-13 3.10534998e-16 2.45408278e-13 1.64258883e-15 4.83088843e-13
5.24807460e+00 6.29873968e-13 3.99440428e-13 1.73916940e-16 2.30259622e-13 1.09033931e-15 3.99440428e-13
6.02559586e+00 4.75842584e-13 2.63907674e-13 7.01846753e-17 2.11864725e-13 6.53733353e-16 2.63907674e-13
6.70000000e+00 3.87700146e-13 1.91967457e-13 3.52442261e-17 1.95697446e-13 4.22876915e-16 1.91967457e-13
6.92422916e+00 3.64236308e-13 1.73915272e-13 2.77071832e-17 1.90293329e-13 3.62299567e-16 1.73915272e-13
7.15596261e+00 3.44457519e-13 1.57560674e-13 2.23075311e-17 1.86874537e-13 3.09831581e-16 1.57560674e-13
7.39545150e+00 3.30715324e-13 1.42744025e-13 1.72021139e-17 1.87954097e-13 2.66884143e-16 1.42744025e-13
7.64295536e+00 3.31502813e-13 1.29320701e-13 1.18093283e-17 2.02170303e-13 2.25839620e-16 1.29320701e-13
7.89874245e+00 3.54091095e-13 1.17159675e-13 7.93646829e-18 2.36923484e-13 1.88068650e-16 1.17159675e-13
8.16308998e+00 3.93517284e-13 1.06142245e-13 4.92571713e-18 2.87370114e-13 1.54421234e-16 1.06142245e-13
8.43628443e+00 4.53422297e-13 9.61608686e-14 2.69126500e-18 3.57258737e-13 1.22090953e-16 9.61608686e-14
8.71862190e+00 4.92825485e-13 8.71181185e-14 1.66420388e-18 4.05705702e-13 9.41278946e-17 8.71181185e-14
9.01040836e+00 5.36575619e-13 7.89257281e-14 1.07277765e-18 4.57648818e-13 6.61326954e-17 7.89257281e-14
9.31196005e+00 5.67573369e-13 7.15037315e-14 0.00000000e+00 4.96069637e-13 0.00000000e+00 7.15037315e-14
9.62360379e+00 5.55453242e-13 6.47796826e-14 0.00000000e+00 4.90673559e-13 0.00000000e+00 6.47796826e-14
9.94567731e+00 5.15478355e-13 5.86879481e-14 0.00000000e+00 4.56790407e-13 0.00000000e+00 5.86879481e-14
1.02785297e+01 4.66609808e-13 5.31690665e-14 0.00000000e+00 4.13440741e-13 0.00000000e+00 5.31690665e-14
1.06225216e+01 4.20079229e-13 4.81691679e-14 0.00000000e+00 3.71910061e-13 0.00000000e+00 4.81691679e-14
1.09780260e+01 3.70033107e-13 4.36394486e-14 0.00000000e+00 3.26393658e-13 0.00000000e+00 4.36394486e-14
1.13454280e+01 3.27584163e-13 3.95356937e-14 0.00000000e+00 2.88048470e-13 0.00000000e+00 3.95356937e-14
1.17251259e+01 2.91812763e-13 3.58178467e-14 0.00000000e+00 2.55994916e-13 0.00000000e+00 3.58178467e-14
1.21175312e+01 2.59528506e-13 3.24496176e-14 0.00000000e+00 2.27078888e-13 0.00000000e+00 3.24496176e-14
1.25230691e+01 2.30727760e-13 2.93981291e-14 0.00000000e+00 2.01329631e-13 0.00000000e+00 2.93981291e-14
1.29421791e+01 2.06181525e-13 2.66335956e-14 0.00000000e+00 1.79547929e-13 0.00000000e+00 2.66335956e-14
1.33753155e+01 1.84894998e-13 2.41290327e-14 0.00000000e+00 1.60765965e-13 0.00000000e+00 2.41290327e-14
1.38229477e+01 1.70672580e-13 2.18599931e-14 0.00000000e+00 1.48812586e-13 0.00000000e+00 2.18599931e-14
1.42855609e+01 1.61623269e-13 1.98043289e-14 0.00000000e+00 1.41818940e-13 0.00000000e+00 1.98043289e-14
1.47636563e+01 1.60710693e-13 1.79419747e-14 0.00000000e+00 1.42768718e-13 0.00000000e+00 1.79419747e-14
1.52577522e+01 1.61608625e-13 1.62547521e-14 0.00000000e+00 1.45353873e-13 0.00000000e+00 1.62547521e-14
1.57683840e+01 1.64014071e-13 1.47261920e-14 0.00000000e+00 1.49287879e-13 0.00000000e+00 1.47261920e-14
1.62961051e+01 1.66781747e-13 1.33413743e-14 0.00000000e+00 1.53440372e-13 0.00000000e+00 1.33413743e-14
1.68414875e+01 1.69163418e-13 1.20867817e-14 0.00000000e+00 1.57076636e-13 0.00000000e+00 1.20867817e-14
1.74051222e+01 1.69182422e-13 1.09501681e-14 0.00000000e+00 1.58232254e-13 0.00000000e+00 1.09501681e-14
1.79876201e+01 1.67796568e-13 9.92043915e-15 0.00000000e+00 1.57876129e-13 0.00000000e+00 9.92043915e-15
1.85896125e+01 1.63475981e-13 8.98754353e-15 0.00000000e+00 1.54488437e-13 0.00000000e+00 8.98754353e-15
1.92117518e+01 1.56652983e-13 8.14237531e-15 0.00000000e+00 1.48510607e-13 0.00000000e+00 8.14237531e-15
1.98547123e+01 1.48693951e-13 7.37668479e-15 0.00000000e+00 1.41317266e-13 0.00000000e+00 7.37668479e-15
2.05191907e+01 1.40024538e-13 6.68299807e-15 0.00000000e+00 1.33341540e-13 0.00000000e+00 6.68299807e-15
2.12059073e+01 1.32617080e-13 6.05454408e-15 0.00000000e+00 1.26562536e-13 0.00000000e+00 6.05454408e-15
2.19156062e+01 1.25777651e-13 5.48518847e-15 0.00000000e+00 1.20292462e-13 0.00000000e+00 5.48518847e-15
2.26490567e+01 1.19521099e-13 4.96937378e-15 0.00000000e+00 1.14551725e-13 0.00000000e+00 4.96937378e-15
2.34070535e+01 1.13638700e-13 4.50206513e-15 0.00000000e+00 1.09136635e-13 0.00000000e+00 4.50206513e-15
2.41904183e+01 1.08191336e-13 4.07870113e-15 0.00000000e+00 1.04112635e-13 0.00000000e+00 4.07870113e-15
2.50000000e+01 1.03036140e-13 3.69514932e-15 0.00000000e+00 9.93409909e-14 0.00000000e+00 3.69514932e-15
2.75422870e+01 8.92753492e-14 2.76345259e-15 0.00000000e+00 8.65118966e-14 0.00000000e+00 2.76345259e-15
3.16227766e+01 7.20945008e-14 1.82579502e-15 0.00000000e+00 7.02687058e-14 0.00000000e+00 1.82579502e-15
3.63078055e+01 5.59314826e-14 1.20629081e-15 0.00000000e+00 5.47251918e-14 0.00000000e+00 1.20629081e-15
4.16869383e+01 4.09413187e-14 7.96988434e-16 0.00000000e+00 4.01443303e-14 0.00000000e+00 7.96988434e-16
4.78630092e+01 2.81815111e-14 5.26565037e-16 0.00000000e+00 2.76549461e-14 0.00000000e+00 5.26565037e-16
5.49540874e+01 1.84153651e-14 3.47898070e-16 0.00000000e+00 1.80674671e-14 0.00000000e+00 3.47898070e-16
6.30957344e+01 1.15299969e-14 2.29853975e-16 0.00000000e+00 1.13001430e-14 0.00000000e+00 2.29853975e-16
7.24435960e+01 6.96818043e-15 1.51863015e-16 0.00000000e+00 6.81631741e-15 0.00000000e+00 1.51863015e-16
8.31763771e+01 4.10069136e-15 1.00334899e-16 0.00000000e+00 4.00035646e-15 0.00000000e+00 1.00334899e-16
9.54992586e+01 2.36403450e-15 6.62906105e-17 0.00000000e+00 2.29774388e-15 0.00000000e+00 6.62906105e-17
1.09647820e+02 1.34180832e-15 4.37977720e-17 0.00000000e+00 1.29801055e-15 0.00000000e+00 4.37977720e-17
1.25892541e+02 7.60550038e-16 2.89369010e-17 0.00000000e+00 7.31613137e-16 0.00000000e+00 2.89369010e-17
1.44543977e+02 4.28257620e-16 1.91184209e-17 0.00000000e+00 4.09139199e-16 0.00000000e+00 1.91184209e-17
1.65958691e+02 2.30105209e-16 1.26314154e-17 0.00000000e+00 2.17473794e-16 0.00000000e+00 1.26314154e-17
1.90546072e+02 1.23821820e-16 8.34549342e-18 0.00000000e+00 1.15476327e-16 0.00000000e+00 8.34549342e-18
2.18776162e+02 6.66228638e-17 5.51381282e-18 0.00000000e+00 6.11090510e-17 0.00000000e+00 5.51381282e-18
2.51188643e+02 3.58165073e-17 3.64294000e-18 0.00000000e+00 3.21735673e-17 0.00000000e+00 3.64294000e-18
2.88403150e+02 1.92419503e-17 2.40686659e-18 0.00000000e+00 1.68350837e-17 0.00000000e+00 2.40686659e-18
3.31131121e+02 1.03635054e-17 1.59020099e-18 0.00000000e+00 8.77330441e-18 0.00000000e+00 1.59020099e-18
3.80189396e+02 5.59989334e-18 1.05063537e-18 0.00000000e+00 4.54925797e-18 0.00000000e+00 1.05063537e-18
4.36515832e+02 3.04474821e-18 6.94147908e-19 0.00000000e+00 2.35060030e-18 0.00000000e+00 6.94147908e-19
5.01187234e+02 1.66874323e-18 4.58618975e-19 0.00000000e+00 1.21012426e-18 0.00000000e+00 4.58618975e-19
5.75439937e+02 9.24092846e-19 3.03006552e-19 0.00000000e+00 6.21086295e-19 0.00000000e+00 3.03006552e-19
6.60693448e+02 5.18121021e-19 2.00194443e-19 0.00000000e+00 3.17926577e-19 0.00000000e+00 2.00194443e-19
7.58577575e+02 2.94635295e-19 1.32267157e-19 0.00000000e+00 1.62368138e-19 0.00000000e+00 1.32267157e-19
8.70963590e+02 1.70123556e-19 8.73880441e-20 0.00000000e+00 8.27355115e-20 0.00000000e+00 8.73880441e-20
1.00000000e+03 4.20704722e-20 0.00000000e+00 0.00000000e+00 4.20704722e-20 0.00000000e+00 0.00000000e+00
