# column 1: lambda (micron)
# column 2: total flux; lambda*F_lambda (W/m2)
# column 3: direct stellar flux; lambda*F_lambda (W/m2)
# column 4: scattered stellar flux; lambda*F_lambda (W/m2)
# column 5: total dust emission flux; lambda*F_lambda (W/m2)
# column 6: dust emission scattered flux; lambda*F_lambda (W/m2)
# column 7: transparent flux; lambda*F_lambda (W/m2)
1.00000000e-03 5.25639134e-13 5.25636674e-13 2.46015386e-18 0.00000000e+00 0.00000000e+00 5.25636674e-13
1.14815362e-03 6.20423672e-13 6.20419813e-13 3.85928763e-18 0.00000000e+00 0.00000000e+00 6.20419813e-13
1.31825674e-03 7.32300076e-13 7.32294308e-13 5.76828151e-18 0.00000000e+00 0.00000000e+00 7.32294308e-13
1.51356125e-03 8.64350987e-13 8.64342083e-13 8.90412984e-18 0.00000000e+00 0.00000000e+00 8.64342083e-13
1.73780083e-03 1.02021678e-12 1.02020080e-12 1.59818207e-17 0.00000000e+00 0.00000000e+00 1.02020080e-12
1.99526231e-03 1.20419142e-12 1.20416405e-12 2.73691755e-17 0.00000000e+00 0.00000000e+00 1.20416405e-12
2.29086765e-03 1.42134119e-12 1.42129968e-12 4.15119888e-17 0.00000000e+00 0.00000000e+00 1.42129968e-12
2.63026799e-03 1.67767014e-12 1.67758934e-12 8.07991572e-17 0.00000000e+00 0.00000000e+00 1.67758934e-12
3.01995172e-03 1.98022210e-12 1.98009332e-12 1.28782203e-16 0.00000000e+00 0.00000000e+00 1.98009332e-12
3.46736850e-03 2.33737839e-12 2.33714500e-12 2.33387603e-16 0.00000000e+00 0.00000000e+00 2.33714500e-12
3.98107171e-03 2.75896650e-12 2.75858048e-12 3.86019285e-16 0.00000000e+00 0.00000000e+00 2.75858048e-12
4.57088190e-03 3.25682466e-12 3.25600946e-12 8.15199165e-16 0.00000000e+00 0.00000000e+00 3.25600946e-12
5.24807460e-03 3.84455957e-12 3.84313516e-12 1.42441471e-15 0.00000000e+00 0.00000000e+00 3.84313516e-12
6.02559586e-03 4.53878052e-12 4.53613173e-12 2.64879025e-15 0.00000000e+00 0.00000000e+00 4.53613173e-12
6.91830971e-03 5.35879232e-12 5.35408989e-12 4.70242554e-15 0.00000000e+00 0.00000000e+00 5.35408989e-12
7.94328235e-03 6.32624971e-12 6.31954278e-12 6.70693108e-15 1.18167949e-303 5.75266536e-306 6.31954278e-12
9.12010839e-03 7.47252422e-12 7.45908676e-12 1.34374677e-14 6.07485363e-265 3.71309944e-267 7.45908676e-12
1.04712855e-02 8.34561033e-12 8.33078048e-12 1.48298510e-14 2.95101607e-231 2.25934299e-233 8.33078048e-12
1.20226443e-02 8.35321792e-12 8.33078048e-12 2.24374449e-14 5.21663482e-202 4.76816091e-204 8.33078048e-12
1.38038426e-02 8.36865070e-12 8.33078048e-12 3.78702210e-14 1.57872039e-176 1.64500240e-178 8.33078048e-12
1.58489319e-02 8.39837682e-12 8.33078048e-12 6.75963416e-14 2.34182648e-154 2.95334694e-156 8.33078048e-12
1.81970086e-02 8.40744182e-12 8.33078048e-12 7.66613417e-14 4.55304765e-135 9.31891315e-137 8.33078048e-12
2.08929613e-02 8.42175959e-12 8.33078048e-12 9.09791097e-14 2.55224896e-118 5.98499955e-120 8.33078048e-12
2.39883292e-02 8.45088389e-12 8.33078048e-12 1.20103415e-13 9.54988021e-104 2.81824277e-105 8.33078048e-12
2.75422870e-02 8.47867512e-12 8.33078048e-12 1.47894640e-13 4.51453874e-91 1.53583673e-92 8.33078048e-12
3.16227766e-02 8.49746851e-12 8.33078048e-12 1.66688034e-13 4.63153700e-80 1.93200099e-81 8.33078048e-12
3.63078055e-02 8.49356110e-12 8.33078048e-12 1.62780624e-13 1.67002161e-70 7.21117641e-72 8.33078048e-12
4.16869383e-02 8.53734058e-12 8.33078048e-12 2.06560103e-13 3.31058616e-62 1.81091287e-63 8.33078048e-12
4.78630092e-02 8.54771700e-12 8.33078048e-12 2.16936520e-13 5.17974128e-55 3.39302306e-56 8.33078048e-12
5.49540874e-02 8.54441422e-12 8.33078048e-12 2.13633748e-13 8.83675146e-49 6.32649069e-50 8.33078048e-12
6.30957344e-02 8.52976650e-12 8.33078048e-12 1.98986022e-13 2.91631343e-43 2.27319276e-44 8.33078048e-12
7.24435960e-02 8.49844335e-12 8.33078048e-12 1.67662877e-13 1.71553184e-38 1.29456250e-39 8.33078048e-12
8.31763771e-02 8.48967028e-12 8.33078048e-12 1.58889800e-13 1.78307537e-34 1.29509384e-35 8.33078048e-12
9.54992586e-02 8.49197576e-12 8.33078048e-12 1.61195289e-13 5.10630844e-31 3.81901070e-32 8.33078048e-12
1.09647820e-01 8.13815463e-12 7.95583672e-12 1.82317908e-13 4.41154261e-28 3.57039059e-29 7.95583672e-12
1.25892541e-01 7.60093447e-12 7.42481883e-12 1.76115633e-13 1.44600869e-25 1.13754709e-26 7.42481883e-12
1.44543977e-01 7.09441469e-12 6.92924411e-12 1.65170582e-13 1.98796094e-23 1.51067408e-24 6.92924411e-12
1.65958691e-01 6.63065862e-12 6.46674687e-12 1.63911757e-13 1.01993041e-21 8.60513070e-23 6.46674687e-12
1.90546072e-01 6.20778378e-12 6.03511933e-12 1.72664428e-13 2.16746107e-20 2.08297306e-21 6.03511933e-12
2.18776162e-01 5.78738406e-12 5.63230107e-12 1.55082734e-13 2.58174677e-19 2.57384117e-20 5.63230107e-12
2.51188643e-01 5.43010143e-12 5.25636919e-12 1.73729063e-13 3.17350466e-18 3.81600352e-19 5.25636919e-12
2.88403150e-01 5.07001747e-12 4.90552916e-12 1.64461856e-13 2.64609308e-17 3.05982705e-18 4.90552916e-12
3.31131121e-01 4.73512726e-12 4.57810618e-12 1.56868985e-13 1.52091971e-16 1.70365243e-17 4.57810618e-12
3.80189396e-01 4.41356521e-12 4.27253728e-12 1.40392905e-13 6.35017053e-16 6.87389878e-17 4.27253728e-12
4.36515832e-01 4.11668528e-12 3.98736380e-12 1.27305665e-13 2.01582109e-15 2.15187668e-16 3.98736380e-12
5.01187234e-01 3.84544812e-12 3.72122441e-12 1.19156822e-13 5.06688831e-15 5.39547703e-16 3.72122441e-12
5.75439937e-01 3.58848318e-12 3.47284869e-12 1.05041015e-13 1.05934763e-14 1.12920287e-15 3.47284869e-12
6.60693448e-01 3.35593183e-12 3.24105097e-12 9.53164316e-14 1.95644304e-14 2.22376008e-15 3.24105097e-12
7.58577575e-01 3.14603161e-12 3.02472476e-12 8.70052430e-14 3.43016079e-14 4.29546310e-15 3.02472476e-12
8.70963590e-01 2.95983288e-12 2.82283739e-12 7.63877123e-14 6.06077746e-14 8.52723195e-15 2.82283739e-12
1.00000000e+00 2.81022125e-12 2.63442513e-12 6.57693180e-14 1.10026792e-13 1.68544528e-14 2.63442513e-12
1.14815362e+00 2.71866465e-12 2.45858859e-12 5.53453888e-14 2.04730670e-13 3.16297015e-14 2.45858859e-12
1.31825674e+00 2.71978394e-12 2.29448837e-12 4.67808738e-14 3.78514689e-13 5.50773849e-14 2.29448837e-12
1.51356125e+00 2.83729025e-12 2.14134114e-12 3.74255009e-14 6.58523610e-13 8.61262284e-14 2.14134114e-12
1.73780083e+00 3.07295427e-12 1.99841583e-12 2.97132221e-14 1.04482522e-12 1.18265778e-13 1.99841583e-12
1.99526231e+00 3.39072516e-12 1.86503017e-12 2.31879326e-14 1.50250706e-12 1.41888506e-13 1.86503017e-12
2.29086765e+00 3.74239093e-12 1.74054743e-12 1.71797502e-14 1.98466375e-12 1.49848429e-13 1.74054743e-12
2.63026799e+00 4.03057476e-12 1.62437337e-12 1.26647155e-14 2.39353668e-12 1.41918814e-13 1.62437337e-12
3.01995172e+00 4.24734216e-12 1.51595343e-12 8.91262788e-15 2.72247609e-12 1.23187811e-13 1.51595343e-12
3.46736850e+00 4.35139467e-12 1.41477006e-12 6.12458478e-15 2.93050002e-12 9.75108968e-14 1.41477006e-12
3.98107171e+00 4.32576567e-12 1.32034025e-12 4.03763773e-15 3.00138779e-12 7.10204760e-14 1.32034025e-12
4.57088190e+00 4.18624109e-12 1.23221321e-12 2.61472344e-15 2.95141316e-12 4.72400756e-14 1.23221321e-12
5.24807460e+00 3.82649869e-12 1.01885146e-12 1.42127464e-15 2.80622595e-12 2.97374650e-14 1.01885146e-12
6.02559586e+00 3.29363448e-12 6.73148485e-13 5.83558304e-16 2.61990243e-12 1.73469115e-14 6.73148485e-13
6.70000000e+00 2.94641656e-12 4.89650796e-13 2.97774184e-16 2.45646799e-12 1.09146622e-14 4.89650796e-13
6.92422916e+00 2.83445443e-12 4.43605145e-13 2.37477020e-16 2.39061181e-12 9.44096080e-15 4.43605145e-13
7.15596261e+00 2.75725384e-12 4.01889522e-13 1.89025730e-16 2.35517530e-12 7.97635547e-15 4.01889522e-13
7.39545150e+00 2.72411376e-12 3.64096743e-13 1.43402380e-16 2.35987362e-12 6.83706912e-15 3.64096743e-13
7.64295536e+00 2.82588572e-12 3.29857910e-13 1.02455221e-16 2.49592535e-12 5.84183668e-15 3.29857910e-13
7.89874245e+00 3.11134296e-12 2.98838820e-13 6.68623922e-17 2.81243728e-12 4.88126866e-15 2.98838820e-13
8.16308998e+00 3.49701773e-12 2.70736695e-13 4.07128336e-17 3.22624033e-12 4.04986834e-15 2.70736695e-13
8.43628443e+00 3.98532420e-12 2.45277229e-13 2.31123890e-17 3.74002386e-12 3.13969659e-15 2.45277229e-13
8.71862190e+00 4.27775588e-12 2.22211915e-13 1.43105395e-17 4.05552965e-12 2.40719304e-15 2.22211915e-13
9.01040836e+00 4.54733121e-12 2.01315610e-13 7.84085644e-18 4.34600776e-12 1.66606927e-15 2.01315610e-13
9.31196005e+00 4.74431892e-12 1.82384346e-13 0.00000000e+00 4.56193457e-12 0.00000000e+00 1.82384346e-13
9.62360379e+00 4.64922158e-12 1.65233336e-13 0.00000000e+00 4.48398825e-12 0.00000000e+00 1.65233336e-13
9.94567731e+00 4.40072079e-12 1.49695167e-13 0.00000000e+00 4.25102562e-12 0.00000000e+00 1.49695167e-13
1.02785297e+01 4.09156135e-12 1.35618173e-13 0.00000000e+00 3.95594318e-12 0.00000000e+00 1.35618173e-13
1.06225216e+01 3.80006882e-12 1.22864947e-13 0.00000000e+00 3.67720387e-12 0.00000000e+00 1.22864947e-13
1.09780260e+01 3.47929692e-12 1.11311006e-13 0.00000000e+00 3.36798591e-12 0.00000000e+00 1.11311006e-13
1.13454280e+01 3.18262994e-12 1.00843571e-13 0.00000000e+00 3.08178637e-12 0.00000000e+00 1.00843571e-13
1.17251259e+01 2.92321885e-12 9.13604705e-14 0.00000000e+00 2.83185838e-12 0.00000000e+00 9.13604705e-14
1.21175312e+01 2.68083685e-12 8.27691389e-14 0.00000000e+00 2.59806771e-12 0.00000000e+00 8.27691389e-14
1.25230691e+01 2.44995547e-12 7.49857166e-14 0.00000000e+00 2.37496975e-12 0.00000000e+00 7.49857166e-14
1.29421791e+01 2.24748707e-12 6.79342298e-14 0.00000000e+00 2.17955284e-12 0.00000000e+00 6.79342298e-14
1.33753155e+01 2.06450761e-12 6.15458488e-14 0.00000000e+00 2.00296176e-12 0.00000000e+00 6.15458488e-14
1.38229477e+01 1.94075948e-12 5.57582167e-14 0.00000000e+00 1.88500127e-12 0.00000000e+00 5.57582167e-14
1.42855609e+01 1.86597188e-12 5.05148403e-14 0.00000000e+00 1.81545704e-12 0.00000000e+00 5.05148403e-14
1.47636563e+01 1.87048975e-12 4.57645392e-14 0.00000000e+00 1.82472521e-12 0.00000000e+00 4.57645392e-14
1.52577522e+01 1.89802709e-12 4.14609457e-14 0.00000000e+00 1.85656614e-12 0.00000000e+00 4.14609457e-14
1.57683840e+01 1.93269512e-12 3.75620523e-14 0.00000000e+00 1.89513307e-12 0.00000000e+00 3.75620523e-14
1.62961051e+01 1.96607281e-12 3.40298020e-14 0.00000000e+00 1.93204301e-12 0.00000000e+00 3.40298020e-14
1.68414875e+01 1.99930684e-12 3.08297166e-14 0.00000000e+00 1.96847713e-12 0.00000000e+00 3.08297166e-14
1.74051222e+01 2.01142368e-12 2.79305599e-14 0.00000000e+00 1.98349312e-12 0.00000000e+00 2.79305599e-14
1.79876201e+01 2.00110300e-12 2.53040334e-14 0.00000000e+00 1.97579897e-12 0.00000000e+00 2.53040334e-14
1.85896125e+01 1.96015995e-12 2.29244994e-14 0.00000000e+00 1.93723545e-12 0.00000000e+00 2.29244994e-14
1.92117518e+01 1.89495811e-12 2.07687314e-14 0.00000000e+00 1.87418938e-12 0.00000000e+00 2.07687314e-14
1.98547123e+01 1.81062978e-12 1.88156870e-14 0.00000000e+00 1.79181410e-12 0.00000000e+00 1.88156870e-14
2.05191907e+01 1.72429510e-12 1.70463024e-14 0.00000000e+00 1.70724880e-12 0.00000000e+00 1.70463024e-14
2.12059073e+01 1.63992380e-12 1.54433068e-14 0.00000000e+00 1.62448049e-12 0.00000000e+00 1.54433068e-14
2.19156062e+01 1.55862504e-12 1.39910532e-14 0.00000000e+00 1.54463399e-12 0.00000000e+00 1.39910532e-14
2.26490567e+01 1.48069095e-12 1.26753663e-14 0.00000000e+00 1.46801558e-12 0.00000000e+00 1.26753663e-14
2.34070535e+01 1.40537960e-12 1.14834036e-14 0.00000000e+00 1.39389620e-12 0.00000000e+00 1.14834036e-14
2.41904183e+01 1.33414063e-12 1.04035303e-14 0.00000000e+00 1.32373710e-12 0.00000000e+00 1.04035303e-14
2.50000000e+01 1.26510136e-12 9.42520591e-15 0.00000000e+00 1.25567615e-12 0.00000000e+00 9.42520591e-15
2.75422870e+01 1.06943166e-12 7.04872996e-15 0.00000000e+00 1.06238293e-12 0.00000000e+00 7.04872996e-15
3.16227766e+01 8.16335951e-13 4.65704970e-15 0.00000000e+00 8.11678901e-13 0.00000000e+00 4.65704970e-15
3.63078055e+01 5.88523576e-13 3.07688223e-15 0.00000000e+00 5.85446694e-13 0.00000000e+00 3.07688223e-15
4.16869383e+01 3.97228068e-13 2.03287593e-15 0.00000000e+00 3.95195192e-13 0.00000000e+00 2.03287593e-15
4.78630092e+01 2.51211888e-13 1.34310781e-15 0.00000000e+00 2.49868780e-13 0.00000000e+00 1.34310781e-15
5.49540874e+01 1.51010314e-13 8.87382527e-16 0.00000000e+00 1.50122931e-13 0.00000000e+00 8.87382527e-16
6.30957344e+01 8.71432727e-14 5.86287821e-16 0.00000000e+00 8.65569848e-14 0.00000000e+00 5.86287821e-16
7.24435960e+01 4.88405626e-14 3.87356522e-16 0.00000000e+00 4.84532061e-14 0.00000000e+00 3.87356522e-16
8.31763771e+01 2.68147325e-14 2.55923916e-16 0.00000000e+00 2.65588086e-14 0.00000000e+00 2.55923916e-16
9.54992586e+01 1.45315131e-14 1.69087255e-16 0.00000000e+00 1.43624258e-14 0.00000000e+00 1.69087255e-16
1.09647820e+02 7.80329618e-15 1.11714841e-16 0.00000000e+00 7.69158134e-15 0.00000000e+00 1.11714841e-16
1.25892541e+02 4.21340213e-15 7.38092637e-17 0.00000000e+00 4.13959287e-15 0.00000000e+00 7.38092637e-17
1.44543977e+02 2.27309365e-15 4.87652969e-17 0.00000000e+00 2.22432835e-15 0.00000000e+00 4.87652969e-17
1.65958691e+02 1.17280453e-15 3.22189122e-17 0.00000000e+00 1.14058562e-15 0.00000000e+00 3.22189122e-17
1.90546072e+02 6.08499608e-16 2.12868242e-17 0.00000000e+00 5.87212784e-16 0.00000000e+00 2.12868242e-17
2.18776162e+02 3.16688222e-16 1.40640653e-17 0.00000000e+00 3.02624157e-16 0.00000000e+00 1.40640653e-17
2.51188643e+02 1.65030435e-16 9.29203577e-18 0.00000000e+00 1.55738400e-16 0.00000000e+00 9.29203577e-18
2.88403150e+02 8.60467010e-17 6.13918715e-18 0.00000000e+00 7.99075139e-17 0.00000000e+00 6.13918715e-18
3.31131121e+02 4.49999119e-17 4.05612073e-18 0.00000000e+00 4.09437912e-17 0.00000000e+00 4.05612073e-18
3.80189396e+02 2.36025834e-17 2.67985239e-18 0.00000000e+00 2.09227310e-17 0.00000000e+00 2.67985239e-18
4.36515832e+02 1.24461965e-17 1.77056092e-18 0.00000000e+00 1.06756356e-17 0.00000000e+00 1.77056092e-18
5.01187234e+02 6.60637949e-18 1.16979800e-18 0.00000000e+00 5.43658150e-18 0.00000000e+00 1.16979800e-18
5.75439937e+02 3.53714481e-18 7.72877871e-19 0.00000000e+00 2.76426694e-18 0.00000000e+00 7.72877871e-19
6.60693448e+02 1.91421624e-18 5.10635346e-19 0.00000000e+00 1.40358089e-18 0.00000000e+00 5.10635346e-19
7.58577575e+02 1.04919333e-18 3.37373427e-19 0.00000000e+00 7.11819899e-19 0.00000000e+00 3.37373427e-19
8.70963590e+02 5.83423645e-19 2.22900413e-19 0.00000000e+00 3.60523232e-19 0.00000000e+00 2.22900413e-19
1.00000000e+03 1.82365607e-19 0.00000000e+00 0.00000000e+00 1.82365607e-19 0.00000000e+00 0.00000000e+00
