# column 1: lambda (micron)
# column 2: total flux; lambda*F_lambda (W/m2)
# column 3: direct stellar flux; lambda*F_lambda (W/m2)
# column 4: scattered stellar flux; lambda*F_lambda (W/m2)
# column 5: total dust emission flux; lambda*F_lambda (W/m2)
# column 6: dust emission scattered flux; lambda*F_lambda (W/m2)
# column 7: transparent flux; lambda*F_lambda (W/m2)
1.00000000e-03 6.93995155e-13 6.93993746e-13 1.40970309e-18 0.00000000e+00 0.00000000e+00 6.93993746e-13
1.14815362e-03 8.19137331e-13 8.19135139e-13 2.19156270e-18 0.00000000e+00 0.00000000e+00 8.19135139e-13
1.31825674e-03 9.66845465e-13 9.66842108e-13 3.35732200e-18 0.00000000e+00 0.00000000e+00 9.66842108e-13
1.51356125e-03 1.14118879e-12 1.14118369e-12 5.10158393e-18 0.00000000e+00 0.00000000e+00 1.14118369e-12
1.73780083e-03 1.34697187e-12 1.34696266e-12 9.21249855e-18 0.00000000e+00 0.00000000e+00 1.34696266e-12
1.99526231e-03 1.58986355e-12 1.58984782e-12 1.57308080e-17 0.00000000e+00 0.00000000e+00 1.58984782e-12
2.29086765e-03 1.87655513e-12 1.87653019e-12 2.49400092e-17 0.00000000e+00 0.00000000e+00 1.87653019e-12
2.63026799e-03 2.21495863e-12 2.21490731e-12 5.13191196e-17 0.00000000e+00 0.00000000e+00 2.21490731e-12
3.01995172e-03 2.61438419e-12 2.61430080e-12 8.33869443e-17 0.00000000e+00 0.00000000e+00 2.61430080e-12
3.46736850e-03 3.08585193e-12 3.08571319e-12 1.38739378e-16 0.00000000e+00 0.00000000e+00 3.08571319e-12
3.98107171e-03 3.64235848e-12 3.64213095e-12 2.27533630e-16 0.00000000e+00 0.00000000e+00 3.64213095e-12
4.57088190e-03 4.29939959e-12 4.29888232e-12 5.17276039e-16 0.00000000e+00 0.00000000e+00 4.29888232e-12
5.24807460e-03 5.07496300e-12 5.07405951e-12 9.03486633e-16 0.00000000e+00 0.00000000e+00 5.07405951e-12
6.02559586e-03 5.99065099e-12 5.98901715e-12 1.63384562e-15 0.00000000e+00 0.00000000e+00 5.98901715e-12
6.91830971e-03 7.07159846e-12 7.06896053e-12 2.63793109e-15 0.00000000e+00 0.00000000e+00 7.06896053e-12
7.94328235e-03 8.34811377e-12 8.34363998e-12 4.47378685e-15 0.00000000e+00 0.00000000e+00 8.34363998e-12
9.12010839e-03 9.85508665e-12 9.84817045e-12 6.91619836e-15 0.00000000e+00 0.00000000e+00 9.84817045e-12
1.04712855e-02 1.10091744e-11 1.09990604e-11 1.01139111e-14 0.00000000e+00 0.00000000e+00 1.09990604e-11
1.20226443e-02 1.10153602e-11 1.09990604e-11 1.62997645e-14 1.66665132e-311 1.33326997e-312 1.09990604e-11
1.38038426e-02 1.10198727e-11 1.09990604e-11 2.08122929e-14 3.01475522e-272 3.06814584e-273 1.09990604e-11
1.58489319e-02 1.10356382e-11 1.09990604e-11 3.65777917e-14 4.41566908e-238 5.14023437e-239 1.09990604e-11
1.81970086e-02 1.10411151e-11 1.09990604e-11 4.20546899e-14 2.43457955e-208 3.57491662e-209 1.09990604e-11
2.08929613e-02 1.10552719e-11 1.09990604e-11 5.62114282e-14 1.69282360e-182 2.51985688e-183 1.09990604e-11
2.39883292e-02 1.10762407e-11 1.09990604e-11 7.71802080e-14 5.21792814e-160 7.79576703e-161 1.09990604e-11
2.75422870e-02 1.10945061e-11 1.09990604e-11 9.54456578e-14 1.94338407e-140 3.07324385e-141 1.09990604e-11
3.16227766e-02 1.11199256e-11 1.09990604e-11 1.20865118e-13 1.99386715e-123 3.14183927e-124 1.09990604e-11
3.63078055e-02 1.11359875e-11 1.09990604e-11 1.36927035e-13 1.21342305e-108 1.87325784e-109 1.09990604e-11
4.16869383e-02 1.11697696e-11 1.09990604e-11 1.70709169e-13 8.66678941e-96 1.45241226e-96 1.09990604e-11
4.78630092e-02 1.12190444e-11 1.09990604e-11 2.19983984e-13 1.22483482e-84 2.14757810e-85 1.09990604e-11
5.49540874e-02 1.12447702e-11 1.09990604e-11 2.45709750e-13 5.76757946e-75 1.06279857e-75 1.09990604e-11
6.30957344e-02 1.12569443e-11 1.09990604e-11 2.57883889e-13 1.77082836e-66 3.44666982e-67 1.09990604e-11
7.24435960e-02 1.12365009e-11 1.09990604e-11 2.37440470e-13 4.05204440e-59 7.75202988e-60 1.09990604e-11
8.31763771e-02 1.12331851e-11 1.09990604e-11 2.34124663e-13 9.94973895e-53 1.77110006e-53 1.09990604e-11
9.54992586e-02 1.12429673e-11 1.09990604e-11 2.43906829e-13 4.35960190e-47 7.34855505e-48 1.09990604e-11
1.09647820e-01 1.07569774e-11 1.05040253e-11 2.52952062e-13 4.11640528e-42 7.01993493e-43 1.05040253e-11
1.25892541e-01 1.00422836e-11 9.80292679e-12 2.39356761e-13 9.53414934e-38 1.58399759e-38 9.80292679e-12
1.44543977e-01 9.36458422e-12 9.14862359e-12 2.15960633e-13 5.91521885e-34 9.57176936e-35 9.14862359e-12
1.65958691e-01 8.75864202e-12 8.53799231e-12 2.20649706e-13 9.01063461e-31 1.60756916e-31 8.53799231e-12
1.90546072e-01 8.20934996e-12 7.96811805e-12 2.41231917e-13 3.83259215e-28 8.12575006e-29 7.96811805e-12
2.18776162e-01 7.65851206e-12 7.43628044e-12 2.22231625e-13 6.25568484e-26 1.45299596e-26 7.43628044e-12
2.51188643e-01 7.19278078e-12 6.93994070e-12 2.52840082e-13 8.63281454e-24 2.39943392e-24 6.93994070e-12
2.88403150e-01 6.71416035e-12 6.47672950e-12 2.37430844e-13 6.00600278e-22 1.68385979e-22 6.47672950e-12
3.31131121e-01 6.25650328e-12 6.04443567e-12 2.12067595e-13 2.28141725e-20 6.35846944e-21 6.04443567e-12
3.80189396e-01 5.83587001e-12 5.64099558e-12 1.94873917e-13 5.12387250e-19 1.42488958e-19 5.64099558e-12
4.36515832e-01 5.44299009e-12 5.26448339e-12 1.78499346e-13 7.35696407e-18 2.05680460e-18 5.26448339e-12
5.01187234e-01 5.07968564e-12 4.91310176e-12 1.66512615e-13 7.12679713e-17 1.98731373e-17 4.91310176e-12
5.75439937e-01 4.73829291e-12 4.58517335e-12 1.52637428e-13 4.82136331e-16 1.33309660e-16 4.58517335e-12
6.60693448e-01 4.42000960e-12 4.27913275e-12 1.38443772e-13 2.43307715e-15 6.63902621e-16 4.27913275e-12
7.58577575e-01 4.12401439e-12 3.99351904e-12 1.20924850e-13 9.57049913e-15 2.55742836e-15 3.99351904e-12
8.70963590e-01 3.86711118e-12 3.72696882e-12 1.09596975e-13 3.05453862e-14 7.79203203e-15 3.72696882e-12
1.00000000e+00 3.65301631e-12 3.47820968e-12 9.42485190e-14 8.05581062e-14 1.91252689e-14 3.47820968e-12
1.14815362e+00 3.51265777e-12 3.24605414e-12 8.04003544e-14 1.86203273e-13 4.02110979e-14 3.24605414e-12
1.31825674e+00 3.47262428e-12 3.02939399e-12 6.45854956e-14 3.78644792e-13 7.15538719e-14 3.02939399e-12
1.51356125e+00 3.56903069e-12 2.82719497e-12 5.05796573e-14 6.91256062e-13 1.11888586e-13 2.82719497e-12
1.73780083e+00 3.78644468e-12 2.63849186e-12 3.93988719e-14 1.10855395e-12 1.49315334e-13 2.63849186e-12
1.99526231e+00 4.09476526e-12 2.46238388e-12 3.00274670e-14 1.60235391e-12 1.71509990e-13 2.46238388e-12
2.29086765e+00 4.41624646e-12 2.29803035e-12 2.23366410e-14 2.09587947e-12 1.71391490e-13 2.29803035e-12
2.63026799e+00 4.66800723e-12 2.14464670e-12 1.57456238e-14 2.50761490e-12 1.52829758e-13 2.14464670e-12
3.01995172e+00 4.80306867e-12 2.00150076e-12 1.07390818e-14 2.79082882e-12 1.22407256e-13 2.00150076e-12
3.46736850e+00 4.80170956e-12 1.86790919e-12 7.07865244e-15 2.92672171e-12 9.05070493e-14 1.86790919e-12
3.98107171e+00 4.65419283e-12 1.74323429e-12 4.68276036e-15 2.90627578e-12 6.17031614e-14 1.74323429e-12
4.57088190e+00 4.41319741e-12 1.62688090e-12 2.92572026e-15 2.78339079e-12 3.91006018e-14 1.62688090e-12
5.24807460e+00 3.93440050e-12 1.34518114e-12 1.59269401e-15 2.58762666e-12 2.35559014e-14 1.34518114e-12
6.02559586e+00 3.26908339e-12 8.88752369e-13 6.54415770e-16 2.37967661e-12 1.35760983e-14 8.88752369e-13
6.70000000e+00 2.85808099e-12 6.46481889e-13 3.21644420e-16 2.21127746e-12 8.50945712e-15 6.46481889e-13
6.92422916e+00 2.74208387e-12 5.85688198e-13 2.55826857e-16 2.15613985e-12 7.26889560e-15 5.85688198e-13
7.15596261e+00 2.65523323e-12 5.30611407e-13 2.00932768e-16 2.12442090e-12 6.21249394e-15 5.30611407e-13
7.39545150e+00 2.62267764e-12 4.80713913e-13 1.56465546e-16 2.14180726e-12 5.30376319e-15 4.80713913e-13
7.64295536e+00 2.72837259e-12 4.35508666e-13 1.12448143e-16 2.29275147e-12 4.58069646e-15 4.35508666e-13
7.89874245e+00 3.04493867e-12 3.94554418e-13 7.39882307e-17 2.65031027e-12 3.91980059e-15 3.94554418e-13
8.16308998e+00 3.50434326e-12 3.57451415e-13 4.56020325e-17 3.14684624e-12 3.32037740e-15 3.57451415e-13
8.43628443e+00 4.12977188e-12 3.23837494e-13 2.70509076e-17 3.80590733e-12 2.67900200e-15 3.23837494e-13
8.71862190e+00 4.55382489e-12 2.93384550e-13 1.68575365e-17 4.26042349e-12 2.13319253e-15 2.93384550e-13
9.01040836e+00 4.96255625e-12 2.65795332e-13 9.76375956e-18 4.69675115e-12 1.53183037e-15 2.65795332e-13
9.31196005e+00 5.29056464e-12 2.40800541e-13 0.00000000e+00 5.04976410e-12 0.00000000e+00 2.40800541e-13
9.62360379e+00 5.22502708e-12 2.18156204e-13 0.00000000e+00 5.00687088e-12 0.00000000e+00 2.18156204e-13
9.94567731e+00 4.92142641e-12 1.97641289e-13 0.00000000e+00 4.72378513e-12 0.00000000e+00 1.97641289e-13
1.02785297e+01 4.53341723e-12 1.79055550e-13 0.00000000e+00 4.35436168e-12 0.00000000e+00 1.79055550e-13
1.06225216e+01 4.17585407e-12 1.62217572e-13 0.00000000e+00 4.01363650e-12 0.00000000e+00 1.62217572e-13
1.09780260e+01 3.76318594e-12 1.46962999e-13 0.00000000e+00 3.61622294e-12 0.00000000e+00 1.46962999e-13
1.13454280e+01 3.41098916e-12 1.33142932e-13 0.00000000e+00 3.27784623e-12 0.00000000e+00 1.33142932e-13
1.17251259e+01 3.09736162e-12 1.20622472e-13 0.00000000e+00 2.97673914e-12 0.00000000e+00 1.20622472e-13
1.21175312e+01 2.80976376e-12 1.09279408e-13 0.00000000e+00 2.70048435e-12 0.00000000e+00 1.09279408e-13
1.25230691e+01 2.55637797e-12 9.90030204e-14 0.00000000e+00 2.45737495e-12 0.00000000e+00 9.90030204e-14
1.29421791e+01 2.34462331e-12 8.96930008e-14 0.00000000e+00 2.25493031e-12 0.00000000e+00 8.96930008e-14
1.33753155e+01 2.15910529e-12 8.12584743e-14 0.00000000e+00 2.07784682e-12 0.00000000e+00 8.12584743e-14
1.38229477e+01 2.03881468e-12 7.36171115e-14 0.00000000e+00 1.96519757e-12 0.00000000e+00 7.36171115e-14
1.42855609e+01 1.98112417e-12 6.66943252e-14 0.00000000e+00 1.91442985e-12 0.00000000e+00 6.66943252e-14
1.47636563e+01 2.02113256e-12 6.04225420e-14 0.00000000e+00 1.96071002e-12 0.00000000e+00 6.04225420e-14
1.52577522e+01 2.08341795e-12 5.47405431e-14 0.00000000e+00 2.02867741e-12 0.00000000e+00 5.47405431e-14
1.57683840e+01 2.16754494e-12 4.95928665e-14 0.00000000e+00 2.11795207e-12 0.00000000e+00 4.95928665e-14
1.62961051e+01 2.25548879e-12 4.49292657e-14 0.00000000e+00 2.21055952e-12 0.00000000e+00 4.49292657e-14
1.68414875e+01 2.34205964e-12 4.07042194e-14 0.00000000e+00 2.30135542e-12 0.00000000e+00 4.07042194e-14
1.74051222e+01 2.40385047e-12 3.68764869e-14 0.00000000e+00 2.36697399e-12 0.00000000e+00 3.68764869e-14
1.79876201e+01 2.45071547e-12 3.34087056e-14 0.00000000e+00 2.41730676e-12 0.00000000e+00 3.34087056e-14
1.85896125e+01 2.45518411e-12 3.02670267e-14 0.00000000e+00 2.42491709e-12 0.00000000e+00 3.02670267e-14
1.92117518e+01 2.42013738e-12 2.74207841e-14 0.00000000e+00 2.39271660e-12 0.00000000e+00 2.74207841e-14
1.98547123e+01 2.36877030e-12 2.48421957e-14 0.00000000e+00 2.34392811e-12 0.00000000e+00 2.48421957e-14
2.05191907e+01 2.30369169e-12 2.25060919e-14 0.00000000e+00 2.28118560e-12 0.00000000e+00 2.25060919e-14
2.12059073e+01 2.24384757e-12 2.03896700e-14 0.00000000e+00 2.22345790e-12 0.00000000e+00 2.03896700e-14
2.19156062e+01 2.18717385e-12 1.84722717e-14 0.00000000e+00 2.16870158e-12 0.00000000e+00 1.84722717e-14
2.26490567e+01 2.13108041e-12 1.67351811e-14 0.00000000e+00 2.11434523e-12 0.00000000e+00 1.67351811e-14
2.34070535e+01 2.08390210e-12 1.51614426e-14 0.00000000e+00 2.06874066e-12 0.00000000e+00 1.51614426e-14
2.41904183e+01 2.03367629e-12 1.37356949e-14 0.00000000e+00 2.01994059e-12 0.00000000e+00 1.37356949e-14
2.50000000e+01 1.98571155e-12 1.24440213e-14 0.00000000e+00 1.97326753e-12 0.00000000e+00 1.24440213e-14
2.75422870e+01 1.83728606e-12 9.30637977e-15 0.00000000e+00 1.82797968e-12 0.00000000e+00 9.30637977e-15
3.16227766e+01 1.59303274e-12 6.14866414e-15 0.00000000e+00 1.58688408e-12 0.00000000e+00 6.14866414e-15
3.63078055e+01 1.30455663e-12 4.06238211e-15 0.00000000e+00 1.30049425e-12 0.00000000e+00 4.06238211e-15
4.16869383e+01 9.92097343e-13 2.68398924e-15 0.00000000e+00 9.89413354e-13 0.00000000e+00 2.68398924e-15
4.78630092e+01 7.01288352e-13 1.77329411e-15 0.00000000e+00 6.99515058e-13 0.00000000e+00 1.77329411e-15
5.49540874e+01 4.66458898e-13 1.17160380e-15 0.00000000e+00 4.65287294e-13 0.00000000e+00 1.17160380e-15
6.30957344e+01 2.94697475e-13 7.74070953e-16 0.00000000e+00 2.93923404e-13 0.00000000e+00 7.74070953e-16
7.24435960e+01 1.78922485e-13 5.11423607e-16 0.00000000e+00 1.78411061e-13 0.00000000e+00 5.11423607e-16
8.31763771e+01 1.05290553e-13 3.37894226e-16 0.00000000e+00 1.04952659e-13 0.00000000e+00 3.37894226e-16
9.54992586e+01 6.05414504e-14 2.23244502e-16 0.00000000e+00 6.03182059e-14 0.00000000e+00 2.23244502e-16
1.09647820e+02 3.41948530e-14 1.47496179e-16 0.00000000e+00 3.40473568e-14 0.00000000e+00 1.47496179e-16
1.25892541e+02 1.92590305e-14 9.74497594e-17 0.00000000e+00 1.91615808e-14 0.00000000e+00 9.74497594e-17
1.44543977e+02 1.07576497e-14 6.43844175e-17 0.00000000e+00 1.06932652e-14 0.00000000e+00 6.43844175e-17
1.65958691e+02 5.71595841e-15 4.25383628e-17 0.00000000e+00 5.67342004e-15 0.00000000e+00 4.25383628e-17
1.90546072e+02 3.03471139e-15 2.81048176e-17 0.00000000e+00 3.00660657e-15 0.00000000e+00 2.81048176e-17
2.18776162e+02 1.60661400e-15 1.85686688e-17 0.00000000e+00 1.58804533e-15 0.00000000e+00 1.85686688e-17
2.51188643e+02 8.46866802e-16 1.22681978e-17 0.00000000e+00 8.34598604e-16 0.00000000e+00 1.22681978e-17
2.88403150e+02 4.44102079e-16 8.10551794e-18 0.00000000e+00 4.35996561e-16 0.00000000e+00 8.10551794e-18
3.31131121e+02 2.32231982e-16 5.35526259e-18 0.00000000e+00 2.26876719e-16 0.00000000e+00 5.35526259e-18
3.80189396e+02 1.21023446e-16 3.53818691e-18 0.00000000e+00 1.17485260e-16 0.00000000e+00 3.53818691e-18
4.36515832e+02 6.29703926e-17 2.33765691e-18 0.00000000e+00 6.06327357e-17 0.00000000e+00 2.33765691e-18
5.01187234e+02 3.27260826e-17 1.54447460e-18 0.00000000e+00 3.11816080e-17 0.00000000e+00 1.54447460e-18
5.75439937e+02 1.70092745e-17 1.02042425e-18 0.00000000e+00 1.59888503e-17 0.00000000e+00 1.02042425e-18
6.60693448e+02 8.85205142e-18 6.74187617e-19 0.00000000e+00 8.17786381e-18 0.00000000e+00 6.74187617e-19
7.58577575e+02 4.61894164e-18 4.45431341e-19 0.00000000e+00 4.17351030e-18 0.00000000e+00 4.45431341e-19
8.70963590e+02 2.41959312e-18 2.94293569e-19 0.00000000e+00 2.12529956e-18 0.00000000e+00 2.94293569e-19
1.00000000e+03 1.08010770e-18 0.00000000e+00 0.00000000e+00 1.08010770e-18 0.00000000e+00 0.00000000e+00
