# column 1: lambda (micron)
# column 2: total flux; lambda*F_lambda (W/m2)
# column 3: direct stellar flux; lambda*F_lambda (W/m2)
# column 4: scattered stellar flux; lambda*F_lambda (W/m2)
# column 5: total dust emission flux; lambda*F_lambda (W/m2)
# column 6: dust emission scattered flux; lambda*F_lambda (W/m2)
# column 7: transparent flux; lambda*F_lambda (W/m2)
1.00000000e-03 9.68073524e-13 9.68073281e-13 2.42870006e-19 0.00000000e+00 0.00000000e+00 9.68073281e-13
1.14815362e-03 1.14263727e-12 1.14263687e-12 3.94835885e-19 0.00000000e+00 0.00000000e+00 1.14263687e-12
1.31825674e-03 1.34867846e-12 1.34867788e-12 5.86492778e-19 0.00000000e+00 0.00000000e+00 1.34867788e-12
1.51356125e-03 1.59187328e-12 1.59187233e-12 9.53057521e-19 0.00000000e+00 0.00000000e+00 1.59187233e-12
1.73780083e-03 1.87892143e-12 1.87891976e-12 1.67504898e-18 0.00000000e+00 0.00000000e+00 1.87891976e-12
1.99526231e-03 2.21773071e-12 2.21772777e-12 2.94921237e-18 0.00000000e+00 0.00000000e+00 2.21772777e-12
2.29086765e-03 2.61763432e-12 2.61762985e-12 4.47475778e-18 0.00000000e+00 0.00000000e+00 2.61762985e-12
2.63026799e-03 3.08965197e-12 3.08964252e-12 9.44491544e-18 0.00000000e+00 0.00000000e+00 3.08964252e-12
3.01995172e-03 3.64678456e-12 3.64676883e-12 1.57361930e-17 0.00000000e+00 0.00000000e+00 3.64676883e-12
3.46736850e-03 4.30438287e-12 4.30435650e-12 2.63743550e-17 0.00000000e+00 0.00000000e+00 4.30435650e-12
3.98107171e-03 5.08056273e-12 5.08052080e-12 4.19293032e-17 0.00000000e+00 0.00000000e+00 5.08052080e-12
4.57088190e-03 5.99679927e-12 5.99664354e-12 1.55727769e-16 0.00000000e+00 0.00000000e+00 5.99664354e-12
5.24807460e-03 7.07812983e-12 7.07796211e-12 1.67710429e-16 0.00000000e+00 0.00000000e+00 7.07796211e-12
6.02559586e-03 8.35457154e-12 8.35426474e-12 3.06796416e-16 0.00000000e+00 0.00000000e+00 8.35426474e-12
6.91830971e-03 9.86118870e-12 9.86071107e-12 4.77632326e-16 0.00000000e+00 0.00000000e+00 9.86071107e-12
7.94328235e-03 1.16395921e-11 1.16388008e-11 7.91299318e-16 0.00000000e+00 0.00000000e+00 1.16388008e-11
9.12010839e-03 1.37388398e-11 1.37375167e-11 1.32311692e-15 0.00000000e+00 0.00000000e+00 1.37375167e-11
1.04712855e-02 1.53447123e-11 1.53429287e-11 1.78359327e-15 0.00000000e+00 0.00000000e+00 1.53429287e-11
1.20226443e-02 1.53469678e-11 1.53429287e-11 4.03914667e-15 9.74510090e-314 1.42775204e-316 1.53429287e-11
1.38038426e-02 1.53467267e-11 1.53429287e-11 3.79803915e-15 2.93352560e-274 7.70500463e-277 1.53429287e-11
1.58489319e-02 1.53521204e-11 1.53429287e-11 9.19168710e-15 6.77547744e-240 4.35779115e-242 1.53429287e-11
1.81970086e-02 1.53508731e-11 1.53429287e-11 7.94443549e-15 5.41958122e-210 2.60724896e-212 1.53429287e-11
2.08929613e-02 1.53530450e-11 1.53429287e-11 1.01163212e-14 5.37191706e-184 3.30595624e-186 1.53429287e-11
2.39883292e-02 1.53571562e-11 1.53429287e-11 1.42275575e-14 2.27185408e-161 1.85266791e-163 1.53429287e-11
2.75422870e-02 1.53627276e-11 1.53429287e-11 1.97989056e-14 1.11188709e-141 1.26826544e-143 1.53429287e-11
3.16227766e-02 1.53664661e-11 1.53429287e-11 2.35374794e-14 1.46313714e-124 2.03984072e-126 1.53429287e-11
3.63078055e-02 1.53718157e-11 1.53429287e-11 2.88870176e-14 1.10852728e-109 1.84443525e-111 1.53429287e-11
4.16869383e-02 1.53829217e-11 1.53429287e-11 3.99930603e-14 9.43872781e-97 2.19735568e-98 1.53429287e-11
4.78630092e-02 1.53975199e-11 1.53429287e-11 5.45912435e-14 1.60812614e-85 5.21723070e-87 1.53429287e-11
5.49540874e-02 1.54151300e-11 1.53429287e-11 7.22013257e-14 9.10574111e-76 3.87651858e-77 1.53429287e-11
6.30957344e-02 1.54343430e-11 1.53429287e-11 9.14142929e-14 3.60635040e-67 2.02909648e-68 1.53429287e-11
7.24435960e-02 1.54372852e-11 1.53429287e-11 9.43565773e-14 1.10501918e-59 7.17337185e-61 1.53429287e-11
8.31763771e-02 1.54377251e-11 1.53429287e-11 9.47964484e-14 3.23181516e-53 2.55787105e-54 1.53429287e-11
9.54992586e-02 1.54436124e-11 1.53429287e-11 1.00683701e-13 1.68425070e-47 1.71830771e-48 1.53429287e-11
1.09647820e-01 1.47494867e-11 1.46523889e-11 9.70978384e-14 1.74463456e-42 2.09832476e-43 1.46523889e-11
1.25892541e-01 1.37584647e-11 1.36744049e-11 8.40597770e-14 4.24621909e-38 5.11758128e-39 1.36744049e-11
1.44543977e-01 1.28360658e-11 1.27616972e-11 7.43685693e-14 2.67649634e-34 3.13569725e-35 1.27616972e-11
1.65958691e-01 1.19884588e-11 1.19099088e-11 7.85499986e-14 4.00360049e-31 5.21752509e-32 1.19099088e-11
1.90546072e-01 1.12047871e-11 1.11149736e-11 8.98135056e-14 1.65761234e-28 2.62524062e-29 1.11149736e-11
2.18776162e-01 1.04672341e-11 1.03730969e-11 9.41371717e-14 2.66063689e-26 4.67889765e-27 1.03730969e-11
2.51188643e-01 9.79228448e-12 9.68073733e-12 1.11547149e-13 3.44364767e-24 7.27610505e-25 9.68073733e-12
2.88403150e-01 9.13445570e-12 9.03458975e-12 9.98659465e-14 2.26957204e-22 4.75010327e-23 9.03458975e-12
3.31131121e-01 8.51984588e-12 8.43156974e-12 8.82761269e-14 8.17764943e-21 1.69074497e-21 8.43156974e-12
3.80189396e-01 7.94916199e-12 7.86879872e-12 8.03630903e-14 1.76072382e-19 3.65466271e-20 7.86879872e-12
4.36515832e-01 7.41512012e-12 7.34359025e-12 7.15274363e-14 2.42775877e-18 5.09278197e-19 7.34359025e-12
5.01187234e-01 6.92442286e-12 6.85343719e-12 7.09631194e-14 2.25566934e-17 4.80961955e-18 6.85343719e-12
5.75439937e-01 6.46189337e-12 6.39599973e-12 6.57446916e-14 1.48950137e-16 3.19586372e-17 6.39599973e-12
6.60693448e-01 6.03149671e-12 5.96909425e-12 6.16669291e-14 7.35528104e-16 1.57437212e-16 5.96909425e-12
7.58577575e-01 5.62882832e-12 5.57068288e-12 5.52996407e-14 2.84579382e-15 6.01125699e-16 5.57068288e-12
8.70963590e-01 5.25824492e-12 5.19886376e-12 5.04302524e-14 8.95091078e-15 1.82024003e-15 5.19886376e-12
1.00000000e+00 4.91930594e-12 4.85186196e-12 4.40447008e-14 2.33992771e-14 4.46255100e-15 4.85186196e-12
1.14815362e+00 4.61905461e-12 4.52802104e-12 3.77112038e-14 5.33223618e-14 9.22264819e-15 4.52802104e-12
1.31825674e+00 4.36428418e-12 4.22579511e-12 3.04391490e-14 1.08049914e-13 1.63046671e-14 4.22579511e-12
1.51356125e+00 4.16351352e-12 3.94374146e-12 2.44368589e-14 1.95335199e-13 2.50296547e-14 3.94374146e-12
1.73780083e+00 4.01377018e-12 3.68051368e-12 1.87976578e-14 3.14458839e-13 3.28435040e-14 3.68051368e-12
1.99526231e+00 3.90251986e-12 3.43485522e-12 1.38893190e-14 4.53775319e-13 3.68235623e-14 3.43485522e-12
2.29086765e+00 3.81159654e-12 3.20559341e-12 9.58743056e-15 5.96415697e-13 3.62459549e-14 3.20559341e-12
2.63026799e+00 3.72006434e-12 2.99163384e-12 6.68009527e-15 7.21750407e-13 3.21089036e-14 2.99163384e-12
3.01995172e+00 3.61659554e-12 2.79195514e-12 4.58092953e-15 8.20059470e-13 2.65639962e-14 2.79195514e-12
3.46736850e+00 3.49541846e-12 2.60560415e-12 3.14269220e-15 8.86671618e-13 2.02812815e-14 2.60560415e-12
3.98107171e+00 3.35156216e-12 2.43169128e-12 2.06546277e-15 9.17805423e-13 1.47649800e-14 2.43169128e-12
4.57088190e+00 3.18517695e-12 2.26938634e-12 1.31732995e-15 9.14473281e-13 9.93502966e-15 2.26938634e-12
5.24807460e+00 2.76853013e-12 1.87643467e-12 7.34262680e-16 8.91361196e-13 6.45556953e-15 1.87643467e-12
6.02559586e+00 2.09720346e-12 1.23974809e-12 3.12367008e-16 8.57143003e-13 3.96351748e-15 1.23974809e-12
6.70000000e+00 1.72509438e-12 9.01797527e-13 1.57424125e-16 8.23139432e-13 2.60763301e-15 9.01797527e-13
6.92422916e+00 1.62819000e-12 8.16994532e-13 1.25642659e-16 8.11069823e-13 2.27002273e-15 8.16994532e-13
7.15596261e+00 1.54457121e-12 7.40166218e-13 1.00546186e-16 8.04304449e-13 1.96805003e-15 7.40166218e-13
7.39545150e+00 1.48564900e-12 6.70562664e-13 7.59859346e-17 8.15010353e-13 1.69918063e-15 6.70562664e-13
7.64295536e+00 1.48017920e-12 6.07504471e-13 5.27888925e-17 8.72621939e-13 1.42982156e-15 6.07504471e-13
7.89874245e+00 1.55429073e-12 5.50376127e-13 3.48070488e-17 1.00387979e-12 1.18371581e-15 5.50376127e-13
8.16308998e+00 1.69340662e-12 4.98620004e-13 2.06778413e-17 1.19476593e-12 9.73254124e-16 4.98620004e-13
8.43628443e+00 1.91621565e-12 4.51730909e-13 1.17885427e-17 1.46447295e-12 7.66698241e-16 4.51730909e-13
8.71862190e+00 2.08103961e-12 4.09251158e-13 7.70516182e-18 1.67178074e-12 6.06913979e-16 4.09251158e-13
9.01040836e+00 2.25712983e-12 3.70766106e-13 4.61728505e-18 1.88635911e-12 4.56246135e-16 3.70766106e-13
9.31196005e+00 2.41448482e-12 3.35900102e-13 0.00000000e+00 2.07858472e-12 0.00000000e+00 3.35900102e-13
9.62360379e+00 2.39974615e-12 3.04312818e-13 0.00000000e+00 2.09543334e-12 0.00000000e+00 3.04312818e-13
9.94567731e+00 2.25927831e-12 2.75695930e-13 0.00000000e+00 1.98358238e-12 0.00000000e+00 2.75695930e-13
1.02785297e+01 2.09710544e-12 2.49770110e-13 0.00000000e+00 1.84733533e-12 0.00000000e+00 2.49770110e-13
1.06225216e+01 1.93718610e-12 2.26282295e-13 0.00000000e+00 1.71090381e-12 0.00000000e+00 2.26282295e-13
1.09780260e+01 1.75045008e-12 2.05003220e-13 0.00000000e+00 1.54544686e-12 0.00000000e+00 2.05003220e-13
1.13454280e+01 1.58516334e-12 1.85725182e-13 0.00000000e+00 1.39943816e-12 0.00000000e+00 1.85725182e-13
1.17251259e+01 1.45009213e-12 1.68260007e-13 0.00000000e+00 1.28183212e-12 0.00000000e+00 1.68260007e-13
1.21175312e+01 1.32201674e-12 1.52437217e-13 0.00000000e+00 1.16957952e-12 0.00000000e+00 1.52437217e-13
1.25230691e+01 1.20826884e-12 1.38102367e-13 0.00000000e+00 1.07016648e-12 0.00000000e+00 1.38102367e-13
1.29421791e+01 1.10891312e-12 1.25115533e-13 0.00000000e+00 9.83797583e-13 0.00000000e+00 1.25115533e-13
1.33753155e+01 1.02459421e-12 1.13349952e-13 0.00000000e+00 9.11244259e-13 0.00000000e+00 1.13349952e-13
1.38229477e+01 9.72035932e-13 1.02690779e-13 0.00000000e+00 8.69345152e-13 0.00000000e+00 1.02690779e-13
1.42855609e+01 9.45170339e-13 9.30339713e-14 0.00000000e+00 8.52136368e-13 0.00000000e+00 9.30339713e-14
1.47636563e+01 9.63712813e-13 8.42852675e-14 0.00000000e+00 8.79427545e-13 0.00000000e+00 8.42852675e-14
1.52577522e+01 9.92549012e-13 7.63592720e-14 0.00000000e+00 9.16189740e-13 0.00000000e+00 7.63592720e-14
1.57683840e+01 1.03537354e-12 6.91786191e-14 0.00000000e+00 9.66194920e-13 0.00000000e+00 6.91786191e-14
1.62961051e+01 1.08009604e-12 6.26732185e-14 0.00000000e+00 1.01742283e-12 0.00000000e+00 6.26732185e-14
1.68414875e+01 1.12894101e-12 5.67795711e-14 0.00000000e+00 1.07216144e-12 0.00000000e+00 5.67795711e-14
1.74051222e+01 1.16060434e-12 5.14401489e-14 0.00000000e+00 1.10916419e-12 0.00000000e+00 5.14401489e-14
1.79876201e+01 1.18534242e-12 4.66028339e-14 0.00000000e+00 1.13873958e-12 0.00000000e+00 4.66028339e-14
1.85896125e+01 1.19185767e-12 4.22204090e-14 0.00000000e+00 1.14963726e-12 0.00000000e+00 4.22204090e-14
1.92117518e+01 1.18086942e-12 3.82500974e-14 0.00000000e+00 1.14261932e-12 0.00000000e+00 3.82500974e-14
1.98547123e+01 1.15501376e-12 3.46531450e-14 0.00000000e+00 1.12036062e-12 0.00000000e+00 3.46531450e-14
2.05191907e+01 1.12584218e-12 3.13944418e-14 0.00000000e+00 1.09444774e-12 0.00000000e+00 3.13944418e-14
2.12059073e+01 1.09759334e-12 2.84421796e-14 0.00000000e+00 1.06915116e-12 0.00000000e+00 2.84421796e-14
2.19156062e+01 1.07121157e-12 2.57675415e-14 0.00000000e+00 1.04544403e-12 0.00000000e+00 2.57675415e-14
2.26490567e+01 1.04980517e-12 2.33444203e-14 0.00000000e+00 1.02646075e-12 0.00000000e+00 2.33444203e-14
2.34070535e+01 1.02903680e-12 2.11491639e-14 0.00000000e+00 1.00788763e-12 0.00000000e+00 2.11491639e-14
2.41904183e+01 1.00684448e-12 1.91603445e-14 0.00000000e+00 9.87684136e-13 0.00000000e+00 1.91603445e-14
2.50000000e+01 9.87678247e-13 1.73585491e-14 0.00000000e+00 9.70319697e-13 0.00000000e+00 1.73585491e-14
2.75422870e+01 9.28672240e-13 1.29817562e-14 0.00000000e+00 9.15690484e-13 0.00000000e+00 1.29817562e-14
3.16227766e+01 8.32543044e-13 8.57696126e-15 0.00000000e+00 8.23966083e-13 0.00000000e+00 8.57696126e-15
3.63078055e+01 7.10898291e-13 5.66674211e-15 0.00000000e+00 7.05231549e-13 0.00000000e+00 5.66674211e-15
4.16869383e+01 5.68458710e-13 3.74397938e-15 0.00000000e+00 5.64714730e-13 0.00000000e+00 3.74397938e-15
4.78630092e+01 4.24385635e-13 2.47362265e-15 0.00000000e+00 4.21912012e-13 0.00000000e+00 2.47362265e-15
5.49540874e+01 2.98295739e-13 1.63430628e-15 0.00000000e+00 2.96661432e-13 0.00000000e+00 1.63430628e-15
6.30957344e+01 1.98826920e-13 1.07977545e-15 0.00000000e+00 1.97747145e-13 0.00000000e+00 1.07977545e-15
7.24435960e+01 1.26818043e-13 7.13400564e-16 0.00000000e+00 1.26104642e-13 0.00000000e+00 7.13400564e-16
8.31763771e+01 7.79674888e-14 4.71339078e-16 0.00000000e+00 7.74961497e-14 0.00000000e+00 4.71339078e-16
9.54992586e+01 4.66197325e-14 3.11410641e-16 0.00000000e+00 4.63083218e-14 0.00000000e+00 3.11410641e-16
1.09647820e+02 2.72234473e-14 2.05746970e-16 0.00000000e+00 2.70177003e-14 0.00000000e+00 2.05746970e-16
1.25892541e+02 1.57701242e-14 1.35935675e-16 0.00000000e+00 1.56341885e-14 0.00000000e+00 1.35935675e-16
1.44543977e+02 9.02626334e-15 8.98118099e-17 0.00000000e+00 8.93645153e-15 0.00000000e+00 8.98118099e-17
1.65958691e+02 4.90424047e-15 5.93380743e-17 0.00000000e+00 4.84490240e-15 0.00000000e+00 5.93380743e-17
1.90546072e+02 2.65365995e-15 3.92042769e-17 0.00000000e+00 2.61445568e-15 0.00000000e+00 3.92042769e-17
2.18776162e+02 1.42811722e-15 2.59020089e-17 0.00000000e+00 1.40221521e-15 0.00000000e+00 2.59020089e-17
2.51188643e+02 7.63661600e-16 1.71132876e-17 0.00000000e+00 7.46548313e-16 0.00000000e+00 1.71132876e-17
2.88403150e+02 4.05649604e-16 1.13066370e-17 0.00000000e+00 3.94342967e-16 0.00000000e+00 1.13066370e-17
3.31131121e+02 2.14608608e-16 7.47022097e-18 0.00000000e+00 2.07138387e-16 0.00000000e+00 7.47022097e-18
3.80189396e+02 1.13066510e-16 4.93552605e-18 0.00000000e+00 1.08130984e-16 0.00000000e+00 4.93552605e-18
4.36515832e+02 5.94496578e-17 3.26086972e-18 0.00000000e+00 5.61887881e-17 0.00000000e+00 3.26086972e-18
5.01187234e+02 3.12209009e-17 2.15443526e-18 0.00000000e+00 2.90664656e-17 0.00000000e+00 2.15443526e-18
5.75439937e+02 1.64028415e-17 1.42342126e-18 0.00000000e+00 1.49794203e-17 0.00000000e+00 1.42342126e-18
6.60693448e+02 8.63519647e-18 9.40445101e-19 0.00000000e+00 7.69475137e-18 0.00000000e+00 9.40445101e-19
7.58577575e+02 4.56292214e-18 6.21345916e-19 0.00000000e+00 3.94157622e-18 0.00000000e+00 6.21345916e-19
8.70963590e+02 2.42412573e-18 4.10519176e-19 0.00000000e+00 2.01360656e-18 0.00000000e+00 4.10519176e-19
1.00000000e+03 1.02616886e-18 0.00000000e+00 0.00000000e+00 1.02616886e-18 0.00000000e+00 0.00000000e+00
