# column 1: lambda (micron)
# column 2: total flux; lambda*F_lambda (W/m2)
# column 3: direct stellar flux; lambda*F_lambda (W/m2)
# column 4: scattered stellar flux; lambda*F_lambda (W/m2)
# column 5: total dust emission flux; lambda*F_lambda (W/m2)
# column 6: dust emission scattered flux; lambda*F_lambda (W/m2)
# column 7: transparent flux; lambda*F_lambda (W/m2)
1.00000000e-03 8.46529735e-13 8.46529401e-13 3.33699999e-19 0.00000000e+00 0.00000000e+00 8.46529401e-13
1.14815362e-03 9.99176634e-13 9.99176121e-13 5.13012375e-19 0.00000000e+00 0.00000000e+00 9.99176121e-13
1.31825674e-03 1.17934898e-12 1.17934819e-12 7.82900132e-19 0.00000000e+00 0.00000000e+00 1.17934819e-12
1.51356125e-03 1.39201024e-12 1.39200901e-12 1.23323061e-18 0.00000000e+00 0.00000000e+00 1.39200901e-12
1.73780083e-03 1.64301911e-12 1.64301696e-12 2.15161176e-18 0.00000000e+00 0.00000000e+00 1.64301696e-12
1.99526231e-03 1.93929066e-12 1.93928682e-12 3.84049973e-18 0.00000000e+00 0.00000000e+00 1.93928682e-12
2.29086765e-03 2.28898637e-12 2.28898025e-12 6.11269200e-18 0.00000000e+00 0.00000000e+00 2.28898025e-12
2.63026799e-03 2.70174275e-12 2.70173063e-12 1.21176535e-17 0.00000000e+00 0.00000000e+00 2.70173063e-12
3.01995172e-03 3.18892986e-12 3.18890841e-12 2.14513199e-17 0.00000000e+00 0.00000000e+00 3.18890841e-12
3.46736850e-03 3.76396895e-12 3.76393440e-12 3.45484251e-17 0.00000000e+00 0.00000000e+00 3.76393440e-12
3.98107171e-03 4.44270578e-12 4.44264945e-12 5.63314418e-17 0.00000000e+00 0.00000000e+00 4.44264945e-12
4.57088190e-03 5.24386990e-12 5.24375082e-12 1.19078644e-16 0.00000000e+00 0.00000000e+00 5.24375082e-12
5.24807460e-03 6.18951667e-12 6.18930730e-12 2.09364702e-16 0.00000000e+00 0.00000000e+00 6.18930730e-12
6.02559586e-03 7.30575024e-12 7.30536713e-12 3.83109035e-16 0.00000000e+00 0.00000000e+00 7.30536713e-12
6.91830971e-03 8.62329376e-12 8.62267558e-12 6.18181643e-16 0.00000000e+00 0.00000000e+00 8.62267558e-12
7.94328235e-03 1.01785287e-11 1.01775219e-11 1.00677534e-15 1.08125941e-303 3.67968363e-306 1.01775219e-11
9.12010839e-03 1.20143856e-11 1.20127391e-11 1.64642873e-15 4.63090770e-265 2.88043522e-267 1.20127391e-11
1.04712855e-02 1.34188520e-11 1.34165878e-11 2.26414911e-15 1.91189735e-231 1.01788698e-233 1.34165878e-11
1.20226443e-02 1.34198527e-11 1.34165878e-11 3.26484095e-15 2.95028569e-202 3.03333890e-204 1.34165878e-11
1.38038426e-02 1.34211035e-11 1.34165878e-11 4.51567148e-15 7.93458096e-177 1.20276043e-178 1.34165878e-11
1.58489319e-02 1.34244837e-11 1.34165878e-11 7.89585180e-15 1.05574129e-154 1.56119448e-156 1.34165878e-11
1.81970086e-02 1.34259262e-11 1.34165878e-11 9.33835498e-15 1.87497808e-135 4.70886297e-137 1.34165878e-11
2.08929613e-02 1.34289959e-11 1.34165878e-11 1.24080373e-14 9.65931763e-119 2.34587904e-120 1.34165878e-11
2.39883292e-02 1.34350084e-11 1.34165878e-11 1.84205485e-14 3.35805496e-104 9.25662904e-106 1.34165878e-11
2.75422870e-02 1.34396706e-11 1.34165878e-11 2.30827579e-14 1.49198762e-91 4.69218606e-93 1.34165878e-11
3.16227766e-02 1.34465750e-11 1.34165878e-11 2.99871123e-14 1.44873713e-80 5.50651085e-82 1.34165878e-11
3.63078055e-02 1.34525391e-11 1.34165878e-11 3.59512757e-14 4.98316165e-71 1.94498588e-72 1.34165878e-11
4.16869383e-02 1.34673194e-11 1.34165878e-11 5.07315366e-14 9.47224592e-63 4.71563388e-64 1.34165878e-11
4.78630092e-02 1.34830704e-11 1.34165878e-11 6.64825362e-14 1.42618787e-55 8.36156757e-57 1.34165878e-11
5.49540874e-02 1.35015870e-11 1.34165878e-11 8.49991886e-14 2.36543151e-49 1.63024785e-50 1.34165878e-11
6.30957344e-02 1.35197014e-11 1.34165878e-11 1.03113542e-13 7.56808376e-44 5.77665724e-45 1.34165878e-11
7.24435960e-02 1.35171240e-11 1.34165878e-11 1.00536146e-13 4.32045228e-39 3.17304908e-40 1.34165878e-11
8.31763771e-02 1.35183604e-11 1.34165878e-11 1.01772541e-13 4.40474771e-35 3.12545099e-36 1.34165878e-11
9.54992586e-02 1.35202737e-11 1.34165878e-11 1.03685835e-13 1.24174181e-31 9.08697783e-33 1.34165878e-11
1.09647820e-01 1.29187343e-11 1.28127470e-11 1.05987324e-13 1.06014654e-28 8.30556887e-30 1.28127470e-11
1.25892541e-01 1.20504337e-11 1.19575512e-11 9.28825316e-14 3.44589944e-26 2.61752956e-27 1.19575512e-11
1.44543977e-01 1.12445917e-11 1.11594361e-11 8.51556502e-14 4.69841646e-24 3.42809647e-25 1.11594361e-11
1.65958691e-01 1.05000146e-11 1.04145917e-11 8.54228804e-14 2.38368635e-22 1.86417810e-23 1.04145917e-11
1.90546072e-01 9.81846208e-12 9.71946251e-12 9.89995576e-14 5.02548101e-21 4.61334042e-22 9.71946251e-12
2.18776162e-01 9.16996928e-12 9.07073019e-12 9.92390259e-14 5.91317049e-20 5.56693357e-21 9.07073019e-12
2.51188643e-01 8.58157293e-12 8.46529796e-12 1.16274246e-13 7.21173081e-19 7.91504586e-20 8.46529796e-12
2.88403150e-01 8.00326469e-12 7.90027573e-12 1.02982941e-13 6.01401358e-18 6.49937629e-19 7.90027573e-12
3.31131121e-01 7.46687364e-12 7.37296631e-12 9.38728656e-14 3.44670465e-17 3.58257027e-18 7.37296631e-12
3.80189396e-01 6.96679759e-12 6.88085251e-12 8.58015143e-14 1.43559512e-16 1.43735217e-17 6.88085251e-12
4.36515832e-01 6.50105082e-12 6.42158520e-12 7.90096147e-14 4.56003626e-16 4.53061770e-17 6.42158520e-12
5.01187234e-01 6.06635836e-12 5.99297201e-12 7.22346951e-14 1.15165610e-15 1.13458684e-16 5.99297201e-12
5.75439937e-01 5.66269805e-12 5.59296690e-12 6.72700212e-14 2.46112869e-15 2.50389316e-16 5.59296690e-12
6.60693448e-01 5.28687702e-12 5.21966041e-12 6.24660556e-14 4.75054546e-15 5.14033186e-16 5.21966041e-12
7.58577575e-01 4.93818910e-12 4.87127053e-12 5.78754811e-14 9.04308410e-15 1.09039496e-15 4.87127053e-12
8.70963590e-01 4.61540073e-12 4.54613417e-12 5.14886925e-14 1.77778606e-14 2.40639025e-15 4.54613417e-12
1.00000000e+00 4.32441725e-12 4.24269927e-12 4.62277164e-14 3.54902610e-14 5.04797236e-15 4.24269927e-12
1.14815362e+00 4.06803716e-12 3.95951734e-12 3.78063969e-14 7.07134252e-14 9.85646566e-15 3.95951734e-12
1.31825674e+00 3.86305160e-12 3.69523659e-12 3.19758572e-14 1.35839154e-13 1.74262290e-14 3.69523659e-12
1.51356125e+00 3.71631672e-12 3.44859544e-12 2.48868260e-14 2.42834457e-13 2.73530661e-14 3.44859544e-12
1.73780083e+00 3.63319829e-12 3.21841652e-12 1.95359139e-14 3.95245852e-13 3.75885267e-14 3.21841652e-12
1.99526231e+00 3.59788213e-12 3.00360106e-12 1.44331345e-14 5.79847936e-13 4.45468347e-14 3.00360106e-12
2.29086765e+00 3.58967874e-12 2.80312361e-12 1.03722436e-14 7.76182891e-13 4.63178011e-14 2.80312361e-12
2.63026799e+00 3.58006646e-12 2.61602716e-12 7.47961719e-15 9.56559678e-13 4.32391797e-14 2.61602716e-12
3.01995172e+00 3.53916146e-12 2.44141860e-12 5.06937362e-15 1.09267348e-12 3.62489785e-14 2.44141860e-12
3.46736850e+00 3.45513256e-12 2.27846441e-12 3.45899125e-15 1.17320916e-12 2.83844452e-14 2.27846441e-12
3.98107171e+00 3.31915493e-12 2.12638671e-12 2.26035161e-15 1.19050787e-12 2.03885868e-14 2.12638671e-12
4.57088190e+00 3.14074161e-12 1.98445954e-12 1.42615355e-15 1.15485591e-12 1.34994274e-14 1.98445954e-12
5.24807460e+00 2.72455782e-12 1.64084388e-12 8.02717940e-16 1.08291122e-12 8.39145202e-15 1.64084388e-12
6.02559586e+00 2.08157878e-12 1.08409480e-12 3.29840777e-16 9.97154145e-13 4.93633577e-15 1.08409480e-12
6.70000000e+00 1.71391766e-12 7.88574724e-13 1.62470367e-16 9.25180462e-13 3.11595225e-15 7.88574724e-13
6.92422916e+00 1.61640461e-12 7.14418944e-13 1.33578861e-16 9.01852088e-13 2.69652549e-15 7.14418944e-13
7.15596261e+00 1.53479235e-12 6.47236606e-13 1.06218856e-16 8.87449526e-13 2.30777535e-15 6.47236606e-13
7.39545150e+00 1.48053073e-12 5.86371942e-13 8.09926517e-17 8.94077798e-13 1.98082226e-15 5.86371942e-13
7.64295536e+00 1.49305114e-12 5.31230854e-13 5.71979792e-17 9.61763092e-13 1.68992683e-15 5.31230854e-13
7.89874245e+00 1.60409814e-12 4.81275108e-13 3.73662004e-17 1.12278567e-12 1.43590693e-15 4.81275108e-13
8.16308998e+00 1.79098761e-12 4.36017088e-13 2.28632627e-17 1.35494766e-12 1.20854419e-15 4.36017088e-13
8.43628443e+00 2.06443328e-12 3.95015029e-13 1.31342529e-17 1.66940512e-12 9.69986676e-16 3.95015029e-13
8.71862190e+00 2.25265585e-12 3.57868711e-13 8.67978743e-18 1.89477846e-12 7.74267092e-16 3.57868711e-13
9.01040836e+00 2.44153182e-12 3.24215549e-13 5.24480196e-18 2.11731102e-12 5.69673905e-16 3.24215549e-13
9.31196005e+00 2.59068096e-12 2.93727053e-13 0.00000000e+00 2.29695391e-12 0.00000000e+00 2.93727053e-13
9.62360379e+00 2.55571363e-12 2.66105627e-13 0.00000000e+00 2.28960801e-12 0.00000000e+00 2.66105627e-13
9.94567731e+00 2.38603530e-12 2.41081657e-13 0.00000000e+00 2.14495365e-12 0.00000000e+00 2.41081657e-13
1.02785297e+01 2.18482415e-12 2.18410884e-13 0.00000000e+00 1.96641327e-12 0.00000000e+00 2.18410884e-13
1.06225216e+01 1.98111315e-12 1.97872020e-13 0.00000000e+00 1.78324113e-12 0.00000000e+00 1.97872020e-13
1.09780260e+01 1.77002090e-12 1.79264583e-13 0.00000000e+00 1.59075632e-12 0.00000000e+00 1.79264583e-13
1.13454280e+01 1.58461313e-12 1.62406948e-13 0.00000000e+00 1.42220618e-12 0.00000000e+00 1.62406948e-13
1.17251259e+01 1.42229091e-12 1.47134567e-13 0.00000000e+00 1.27515634e-12 0.00000000e+00 1.47134567e-13
1.21175312e+01 1.28227662e-12 1.33298366e-13 0.00000000e+00 1.14897825e-12 0.00000000e+00 1.33298366e-13
1.25230691e+01 1.15288225e-12 1.20763289e-13 0.00000000e+00 1.03211896e-12 0.00000000e+00 1.20763289e-13
1.29421791e+01 1.04242225e-12 1.09406983e-13 0.00000000e+00 9.33015268e-13 0.00000000e+00 1.09406983e-13
1.33753155e+01 9.51908181e-13 9.91185987e-14 0.00000000e+00 8.52789583e-13 0.00000000e+00 9.91185987e-14
1.38229477e+01 8.91314048e-13 8.97977103e-14 0.00000000e+00 8.01516338e-13 0.00000000e+00 8.97977103e-14
1.42855609e+01 8.55038364e-13 8.13533371e-14 0.00000000e+00 7.73685027e-13 0.00000000e+00 8.13533371e-14
1.47636563e+01 8.64770853e-13 7.37030537e-14 0.00000000e+00 7.91067800e-13 0.00000000e+00 7.37030537e-14
1.52577522e+01 8.82909004e-13 6.67721855e-14 0.00000000e+00 8.16136819e-13 0.00000000e+00 6.67721855e-14
1.57683840e+01 9.11467693e-13 6.04930805e-14 0.00000000e+00 8.50974612e-13 0.00000000e+00 6.04930805e-14
1.62961051e+01 9.42416952e-13 5.48044484e-14 0.00000000e+00 8.87612504e-13 0.00000000e+00 5.48044484e-14
1.68414875e+01 9.71642463e-13 4.96507622e-14 0.00000000e+00 9.21991700e-13 0.00000000e+00 4.96507622e-14
1.74051222e+01 9.92502396e-13 4.49817171e-14 0.00000000e+00 9.47520679e-13 0.00000000e+00 4.49817171e-14
1.79876201e+01 1.00140086e-12 4.07517384e-14 0.00000000e+00 9.60649119e-13 0.00000000e+00 4.07517384e-14
1.85896125e+01 9.95378563e-13 3.69195372e-14 0.00000000e+00 9.58459026e-13 0.00000000e+00 3.69195372e-14
1.92117518e+01 9.75006536e-13 3.34477076e-14 0.00000000e+00 9.41558828e-13 0.00000000e+00 3.34477076e-14
1.98547123e+01 9.46064220e-13 3.03023610e-14 0.00000000e+00 9.15761859e-13 0.00000000e+00 3.03023610e-14
2.05191907e+01 9.11025117e-13 2.74527957e-14 0.00000000e+00 8.83572322e-13 0.00000000e+00 2.74527957e-14
2.12059073e+01 8.78792885e-13 2.48711970e-14 0.00000000e+00 8.53921688e-13 0.00000000e+00 2.48711970e-14
2.19156062e+01 8.51463699e-13 2.25323660e-14 0.00000000e+00 8.28931333e-13 0.00000000e+00 2.25323660e-14
2.26490567e+01 8.23079857e-13 2.04134733e-14 0.00000000e+00 8.02666384e-13 0.00000000e+00 2.04134733e-14
2.34070535e+01 7.99928157e-13 1.84938366e-14 0.00000000e+00 7.81434320e-13 0.00000000e+00 1.84938366e-14
2.41904183e+01 7.76759691e-13 1.67547181e-14 0.00000000e+00 7.60004973e-13 0.00000000e+00 1.67547181e-14
2.50000000e+01 7.53321724e-13 1.51791424e-14 0.00000000e+00 7.38142581e-13 0.00000000e+00 1.51791424e-14
2.75422870e+01 6.86630959e-13 1.13518661e-14 0.00000000e+00 6.75279093e-13 0.00000000e+00 1.13518661e-14
3.16227766e+01 5.89702255e-13 7.50010357e-15 0.00000000e+00 5.82202152e-13 0.00000000e+00 7.50010357e-15
3.63078055e+01 4.80497532e-13 4.95526929e-15 0.00000000e+00 4.75542263e-13 0.00000000e+00 4.95526929e-15
4.16869383e+01 3.66574030e-13 3.27391395e-15 0.00000000e+00 3.63300116e-13 0.00000000e+00 3.27391395e-15
4.78630092e+01 2.60283408e-13 2.16305350e-15 0.00000000e+00 2.58120354e-13 0.00000000e+00 2.16305350e-15
5.49540874e+01 1.74128885e-13 1.42911527e-15 0.00000000e+00 1.72699769e-13 0.00000000e+00 1.42911527e-15
6.30957344e+01 1.10957177e-13 9.44207098e-16 0.00000000e+00 1.10012970e-13 0.00000000e+00 9.44207098e-16
7.24435960e+01 6.78613153e-14 6.23831443e-16 0.00000000e+00 6.72374838e-14 0.00000000e+00 6.23831443e-16
8.31763771e+01 4.02485138e-14 4.12161347e-16 0.00000000e+00 3.98363525e-14 0.00000000e+00 4.12161347e-16
9.54992586e+01 2.33319062e-14 2.72312302e-16 0.00000000e+00 2.30595939e-14 0.00000000e+00 2.72312302e-16
1.09647820e+02 1.32746942e-14 1.79914953e-16 0.00000000e+00 1.30947792e-14 0.00000000e+00 1.79914953e-16
1.25892541e+02 7.52671535e-15 1.18868631e-16 0.00000000e+00 7.40784672e-15 0.00000000e+00 1.18868631e-16
1.44543977e+02 4.23204432e-15 7.85357256e-17 0.00000000e+00 4.15350860e-15 0.00000000e+00 7.85357256e-17
1.65958691e+02 2.26495511e-15 5.18880394e-17 0.00000000e+00 2.21306707e-15 0.00000000e+00 5.18880394e-17
1.90546072e+02 1.21132134e-15 3.42820876e-17 0.00000000e+00 1.17703925e-15 0.00000000e+00 3.42820876e-17
2.18776162e+02 6.46306672e-16 2.26499507e-17 0.00000000e+00 6.23656721e-16 0.00000000e+00 2.26499507e-17
2.51188643e+02 3.43597163e-16 1.49646740e-17 0.00000000e+00 3.28632489e-16 0.00000000e+00 1.49646740e-17
2.88403150e+02 1.81967629e-16 9.88706207e-18 0.00000000e+00 1.72080567e-16 0.00000000e+00 9.88706207e-18
3.31131121e+02 9.62535816e-17 6.53231713e-18 0.00000000e+00 8.97212645e-17 0.00000000e+00 6.53231713e-18
3.80189396e+02 5.08566691e-17 4.31585913e-18 0.00000000e+00 4.65408099e-17 0.00000000e+00 4.31585913e-18
4.36515832e+02 2.69055676e-17 2.85145985e-18 0.00000000e+00 2.40541078e-17 0.00000000e+00 2.85145985e-18
5.01187234e+02 1.42699149e-17 1.88394084e-18 0.00000000e+00 1.23859741e-17 0.00000000e+00 1.88394084e-18
5.75439937e+02 7.60273331e-18 1.24470737e-18 0.00000000e+00 6.35802594e-18 0.00000000e+00 1.24470737e-18
6.60693448e+02 4.07736217e-18 8.22370004e-19 0.00000000e+00 3.25499217e-18 0.00000000e+00 8.22370004e-19
7.58577575e+02 2.20583325e-18 5.43334473e-19 0.00000000e+00 1.66249877e-18 0.00000000e+00 5.43334473e-19
8.70963590e+02 1.20617287e-18 3.58977527e-19 0.00000000e+00 8.47195340e-19 0.00000000e+00 3.58977527e-19
1.00000000e+03 4.30816953e-19 0.00000000e+00 0.00000000e+00 4.30816953e-19 0.00000000e+00 0.00000000e+00
