# column 1: lambda (micron)
# column 2: total flux; lambda*F_lambda (W/m2)
# column 3: direct stellar flux; lambda*F_lambda (W/m2)
# column 4: scattered stellar flux; lambda*F_lambda (W/m2)
# column 5: total dust emission flux; lambda*F_lambda (W/m2)
# column 6: dust emission scattered flux; lambda*F_lambda (W/m2)
# column 7: transparent flux; lambda*F_lambda (W/m2)
1.00000000e-03 9.68074968e-13 9.68073281e-13 1.68690083e-18 0.00000000e+00 0.00000000e+00 9.68073281e-13
1.14815362e-03 1.14263944e-12 1.14263687e-12 2.56533757e-18 0.00000000e+00 0.00000000e+00 1.14263687e-12
1.31825674e-03 1.34868176e-12 1.34867788e-12 3.87898491e-18 0.00000000e+00 0.00000000e+00 1.34867788e-12
1.51356125e-03 1.59187805e-12 1.59187233e-12 5.71644632e-18 0.00000000e+00 0.00000000e+00 1.59187233e-12
1.73780083e-03 1.87893020e-12 1.87891976e-12 1.04367099e-17 0.00000000e+00 0.00000000e+00 1.87891976e-12
1.99526231e-03 2.21774610e-12 2.21772777e-12 1.83299061e-17 0.00000000e+00 0.00000000e+00 2.21772777e-12
2.29086765e-03 2.61765778e-12 2.61762985e-12 2.79371831e-17 0.00000000e+00 0.00000000e+00 2.61762985e-12
2.63026799e-03 3.08969897e-12 3.08964252e-12 5.64495550e-17 0.00000000e+00 0.00000000e+00 3.08964252e-12
3.01995172e-03 3.64686266e-12 3.64676883e-12 9.38312927e-17 0.00000000e+00 0.00000000e+00 3.64676883e-12
3.46736850e-03 4.30451158e-12 4.30435650e-12 1.55083776e-16 0.00000000e+00 0.00000000e+00 4.30435650e-12
3.98107171e-03 5.08076979e-12 5.08052080e-12 2.48992202e-16 0.00000000e+00 0.00000000e+00 5.08052080e-12
4.57088190e-03 5.99720843e-12 5.99664354e-12 5.64893182e-16 0.00000000e+00 0.00000000e+00 5.99664354e-12
5.24807460e-03 7.07899678e-12 7.07796211e-12 1.03466729e-15 0.00000000e+00 0.00000000e+00 7.07796211e-12
6.02559586e-03 8.36064150e-12 8.35426474e-12 6.37676124e-15 0.00000000e+00 0.00000000e+00 8.35426474e-12
6.91830971e-03 9.86365233e-12 9.86071107e-12 2.94125539e-15 0.00000000e+00 0.00000000e+00 9.86071107e-12
7.94328235e-03 1.16464277e-11 1.16388008e-11 7.62689882e-15 9.14621440e-304 2.24392398e-306 1.16388008e-11
9.12010839e-03 1.37450015e-11 1.37375167e-11 7.48479882e-15 4.12021716e-265 1.51562587e-267 1.37375167e-11
1.04712855e-02 1.53537828e-11 1.53429287e-11 1.08541503e-14 1.78340452e-231 8.70448275e-234 1.53429287e-11
1.20226443e-02 1.53631675e-11 1.53429287e-11 2.02388566e-14 2.85721545e-202 2.33911096e-204 1.53429287e-11
1.38038426e-02 1.53651180e-11 1.53429287e-11 2.21893576e-14 7.92991341e-177 7.98237992e-179 1.53429287e-11
1.58489319e-02 1.53773680e-11 1.53429287e-11 3.44393440e-14 1.09314871e-154 1.64706151e-156 1.53429287e-11
1.81970086e-02 1.53906885e-11 1.53429287e-11 4.77598115e-14 1.97648579e-135 3.31491540e-137 1.53429287e-11
2.08929613e-02 1.54058867e-11 1.53429287e-11 6.29580699e-14 1.04880669e-118 2.38611411e-120 1.53429287e-11
2.39883292e-02 1.54246754e-11 1.53429287e-11 8.17467074e-14 3.72793617e-104 1.03008144e-105 1.53429287e-11
2.75422870e-02 1.54514605e-11 1.53429287e-11 1.08531819e-13 1.69129077e-91 5.88079633e-93 1.53429287e-11
3.16227766e-02 1.54788261e-11 1.53429287e-11 1.35897479e-13 1.66698281e-80 6.77201786e-82 1.53429287e-11
3.63078055e-02 1.54985647e-11 1.53429287e-11 1.55636008e-13 5.84045946e-71 2.72311537e-72 1.53429287e-11
4.16869383e-02 1.55575350e-11 1.53429287e-11 2.14606327e-13 1.12591009e-62 6.64292791e-64 1.53429287e-11
4.78630092e-02 1.56275125e-11 1.53429287e-11 2.84583791e-13 1.72473463e-55 1.27383435e-56 1.53429287e-11
5.49540874e-02 1.56781428e-11 1.53429287e-11 3.35214130e-13 2.89250862e-49 2.44720329e-50 1.53429287e-11
6.30957344e-02 1.57269648e-11 1.53429287e-11 3.84036108e-13 9.40405247e-44 8.97307751e-45 1.53429287e-11
7.24435960e-02 1.57038586e-11 1.53429287e-11 3.60929965e-13 5.41417455e-39 4.83017183e-40 1.53429287e-11
8.31763771e-02 1.57020972e-11 1.53429287e-11 3.59168567e-13 5.55130606e-35 4.84991813e-36 1.53429287e-11
9.54992586e-02 1.57107693e-11 1.53429287e-11 3.67840640e-13 1.57042934e-31 1.41206816e-32 1.53429287e-11
1.09647820e-01 1.50337844e-11 1.46523889e-11 3.81395498e-13 1.34513891e-28 1.30104982e-29 1.46523889e-11
1.25892541e-01 1.40271540e-11 1.36744049e-11 3.52749054e-13 4.37255149e-26 4.18642705e-27 1.36744049e-11
1.44543977e-01 1.30841356e-11 1.27616972e-11 3.22438423e-13 5.96256319e-24 5.50792500e-25 1.27616972e-11
1.65958691e-01 1.22458886e-11 1.19099088e-11 3.35979741e-13 3.03489797e-22 3.01365298e-23 1.19099088e-11
1.90546072e-01 1.14823263e-11 1.11149736e-11 3.67352671e-13 6.43376127e-21 7.37191860e-22 1.11149736e-11
2.18776162e-01 1.07264270e-11 1.03730969e-11 3.53329979e-13 7.61165395e-20 8.95286579e-21 1.03730969e-11
2.51188643e-01 1.00819662e-11 9.68073733e-12 4.01227921e-13 9.34337399e-19 1.30819723e-19 9.68073733e-12
2.88403150e-01 9.40918915e-12 9.03458975e-12 3.74591621e-13 7.77753856e-18 1.06626780e-18 9.03458975e-12
3.31131121e-01 8.77062789e-12 8.43156974e-12 3.39013594e-13 4.45581233e-17 5.94081379e-18 8.43156974e-12
3.80189396e-01 8.17443974e-12 7.86879872e-12 3.05454639e-13 1.86377895e-16 2.46408391e-17 7.86879872e-12
4.36515832e-01 7.62896288e-12 7.34359025e-12 2.84778102e-13 5.94530750e-16 7.80528106e-17 7.34359025e-12
5.01187234e-01 7.12413210e-12 6.85343719e-12 2.69147493e-13 1.54741779e-15 2.14256759e-16 6.85343719e-12
5.75439937e-01 6.64453111e-12 6.39599973e-12 2.44919165e-13 3.61222130e-15 5.74144058e-16 6.39599973e-12
6.60693448e-01 6.19934625e-12 5.96909425e-12 2.21727436e-13 8.52455874e-15 1.65355550e-15 5.96909425e-12
7.58577575e-01 5.78958693e-12 5.57068288e-12 1.97139551e-13 2.17644930e-14 4.94908740e-15 5.57068288e-12
8.70963590e-01 5.43577313e-12 5.19886376e-12 1.80051869e-13 5.68575016e-14 1.38617061e-14 5.19886376e-12
1.00000000e+00 5.14871440e-12 4.85186196e-12 1.58328873e-13 1.38523564e-13 3.34592260e-14 4.85186196e-12
1.14815362e+00 4.96429452e-12 4.52802104e-12 1.28523535e-13 3.07749941e-13 6.93374638e-14 4.52802104e-12
1.31825674e+00 4.95511344e-12 4.22579511e-12 1.02747623e-13 6.26570708e-13 1.25040471e-13 4.22579511e-12
1.51356125e+00 5.17435668e-12 3.94374146e-12 8.27086820e-14 1.14790653e-12 1.99750193e-13 3.94374146e-12
1.73780083e+00 5.61355442e-12 3.68051368e-12 6.45341084e-14 1.86850663e-12 2.73947936e-13 3.68051368e-12
1.99526231e+00 6.22124959e-12 3.43485522e-12 4.89954076e-14 2.73739896e-12 3.26364158e-13 3.43485522e-12
2.29086765e+00 6.88756288e-12 3.20559341e-12 3.58479380e-14 3.64612154e-12 3.38437938e-13 3.20559341e-12
2.63026799e+00 7.49282699e-12 2.99163384e-12 2.57867561e-14 4.47540639e-12 3.14853373e-13 2.99163384e-12
3.01995172e+00 7.89461925e-12 2.79195514e-12 1.78919746e-14 5.08477213e-12 2.63972223e-13 2.79195514e-12
3.46736850e+00 8.07404236e-12 2.60560415e-12 1.19545839e-14 5.45648363e-12 2.04600196e-13 2.60560415e-12
3.98107171e+00 8.01572895e-12 2.43169128e-12 7.88200600e-15 5.57615567e-12 1.45528948e-13 2.43169128e-12
4.57088190e+00 7.74354305e-12 2.26938634e-12 5.04395531e-15 5.46911275e-12 9.58800533e-14 2.26938634e-12
5.24807460e+00 7.10318574e-12 1.87643467e-12 2.76176589e-15 5.22398931e-12 6.00092692e-14 1.87643467e-12
6.02559586e+00 6.14524508e-12 1.23974809e-12 1.16296789e-15 4.90433402e-12 3.54602566e-14 1.23974809e-12
6.70000000e+00 5.53313679e-12 9.01797527e-13 5.69256306e-16 4.63077000e-12 2.26625092e-14 9.01797527e-13
6.92422916e+00 5.35382316e-12 8.16994532e-13 4.59435569e-16 4.53636919e-12 1.95595092e-14 8.16994532e-13
7.15596261e+00 5.22420746e-12 7.40166218e-13 3.60483527e-16 4.48368076e-12 1.68670022e-14 7.40166218e-13
7.39545150e+00 5.19052979e-12 6.70562664e-13 2.79477970e-16 4.51968765e-12 1.43552878e-14 6.70562664e-13
7.64295536e+00 5.41148106e-12 6.07504471e-13 1.98503594e-16 4.80377809e-12 1.22758166e-14 6.07504471e-13
7.89874245e+00 6.00500768e-12 5.50376127e-13 1.28863799e-16 5.45450269e-12 1.03866201e-14 5.50376127e-13
8.16308998e+00 6.82669289e-12 4.98620004e-13 7.99704685e-17 6.32799292e-12 8.62874105e-15 4.98620004e-13
8.43628443e+00 7.92240314e-12 4.51730909e-13 4.56731880e-17 7.47062656e-12 6.86663495e-15 4.51730909e-13
8.71862190e+00 8.61574885e-12 4.09251158e-13 2.82243014e-17 8.20646947e-12 5.47190498e-15 4.09251158e-13
9.01040836e+00 9.33918849e-12 3.70766106e-13 1.64952061e-17 8.96840589e-12 3.99360286e-15 3.70766106e-13
9.31196005e+00 9.76933668e-12 3.35900102e-13 0.00000000e+00 9.43343658e-12 0.00000000e+00 3.35900102e-13
9.62360379e+00 9.74475694e-12 3.04312818e-13 0.00000000e+00 9.44044412e-12 0.00000000e+00 3.04312818e-13
9.94567731e+00 9.21930475e-12 2.75695930e-13 0.00000000e+00 8.94360882e-12 0.00000000e+00 2.75695930e-13
1.02785297e+01 8.63341343e-12 2.49770110e-13 0.00000000e+00 8.38364332e-12 0.00000000e+00 2.49770110e-13
1.06225216e+01 8.03465710e-12 2.26282295e-13 0.00000000e+00 7.80837481e-12 0.00000000e+00 2.26282295e-13
1.09780260e+01 7.39435897e-12 2.05003220e-13 0.00000000e+00 7.18935575e-12 0.00000000e+00 2.05003220e-13
1.13454280e+01 6.80204593e-12 1.85725182e-13 0.00000000e+00 6.61632075e-12 0.00000000e+00 1.85725182e-13
1.17251259e+01 6.29301107e-12 1.68260007e-13 0.00000000e+00 6.12475106e-12 0.00000000e+00 1.68260007e-13
1.21175312e+01 5.80422035e-12 1.52437217e-13 0.00000000e+00 5.65178313e-12 0.00000000e+00 1.52437217e-13
1.25230691e+01 5.37782581e-12 1.38102367e-13 0.00000000e+00 5.23972344e-12 0.00000000e+00 1.38102367e-13
1.29421791e+01 4.98399209e-12 1.25115533e-13 0.00000000e+00 4.85887655e-12 0.00000000e+00 1.25115533e-13
1.33753155e+01 4.63616867e-12 1.13349952e-13 0.00000000e+00 4.52281872e-12 0.00000000e+00 1.13349952e-13
1.38229477e+01 4.42220953e-12 1.02690779e-13 0.00000000e+00 4.31951875e-12 0.00000000e+00 1.02690779e-13
1.42855609e+01 4.30976556e-12 9.30339713e-14 0.00000000e+00 4.21673158e-12 0.00000000e+00 9.30339713e-14
1.47636563e+01 4.40450895e-12 8.42852675e-14 0.00000000e+00 4.32022368e-12 0.00000000e+00 8.42852675e-14
1.52577522e+01 4.53477924e-12 7.63592720e-14 0.00000000e+00 4.45841997e-12 0.00000000e+00 7.63592720e-14
1.57683840e+01 4.70149951e-12 6.91786191e-14 0.00000000e+00 4.63232089e-12 0.00000000e+00 6.91786191e-14
1.62961051e+01 4.87053627e-12 6.26732185e-14 0.00000000e+00 4.80786305e-12 0.00000000e+00 6.26732185e-14
1.68414875e+01 5.04388963e-12 5.67795711e-14 0.00000000e+00 4.98711006e-12 0.00000000e+00 5.67795711e-14
1.74051222e+01 5.14603738e-12 5.14401489e-14 0.00000000e+00 5.09459723e-12 0.00000000e+00 5.14401489e-14
1.79876201e+01 5.22130154e-12 4.66028339e-14 0.00000000e+00 5.17469870e-12 0.00000000e+00 4.66028339e-14
1.85896125e+01 5.20395134e-12 4.22204090e-14 0.00000000e+00 5.16173093e-12 0.00000000e+00 4.22204090e-14
1.92117518e+01 5.12004614e-12 3.82500974e-14 0.00000000e+00 5.08179604e-12 0.00000000e+00 3.82500974e-14
1.98547123e+01 4.98881980e-12 3.46531450e-14 0.00000000e+00 4.95416666e-12 0.00000000e+00 3.46531450e-14
2.05191907e+01 4.83340817e-12 3.13944418e-14 0.00000000e+00 4.80201373e-12 0.00000000e+00 3.13944418e-14
2.12059073e+01 4.68009027e-12 2.84421796e-14 0.00000000e+00 4.65164809e-12 0.00000000e+00 2.84421796e-14
2.19156062e+01 4.53344131e-12 2.57675415e-14 0.00000000e+00 4.50767377e-12 0.00000000e+00 2.57675415e-14
2.26490567e+01 4.38168938e-12 2.33444203e-14 0.00000000e+00 4.35834496e-12 0.00000000e+00 2.33444203e-14
2.34070535e+01 4.23747868e-12 2.11491639e-14 0.00000000e+00 4.21632952e-12 0.00000000e+00 2.11491639e-14
2.41904183e+01 4.10264773e-12 1.91603445e-14 0.00000000e+00 4.08348738e-12 0.00000000e+00 1.91603445e-14
2.50000000e+01 3.95026092e-12 1.73585491e-14 0.00000000e+00 3.93290238e-12 0.00000000e+00 1.73585491e-14
2.75422870e+01 3.52469554e-12 1.29817562e-14 0.00000000e+00 3.51171378e-12 0.00000000e+00 1.29817562e-14
3.16227766e+01 2.86261134e-12 8.57696126e-15 0.00000000e+00 2.85403438e-12 0.00000000e+00 8.57696126e-15
3.63078055e+01 2.19426874e-12 5.66674211e-15 0.00000000e+00 2.18860200e-12 0.00000000e+00 5.66674211e-15
4.16869383e+01 1.56203748e-12 3.74397938e-15 0.00000000e+00 1.55829350e-12 0.00000000e+00 3.74397938e-15
4.78630092e+01 1.03448954e-12 2.47362265e-15 0.00000000e+00 1.03201592e-12 0.00000000e+00 2.47362265e-15
5.49540874e+01 6.47866000e-13 1.63430628e-15 0.00000000e+00 6.46231694e-13 0.00000000e+00 1.63430628e-15
6.30957344e+01 3.87958054e-13 1.07977545e-15 0.00000000e+00 3.86878279e-13 0.00000000e+00 1.07977545e-15
7.24435960e+01 2.24065536e-13 7.13400564e-16 0.00000000e+00 2.23352135e-13 0.00000000e+00 7.13400564e-16
8.31763771e+01 1.26205503e-13 4.71339078e-16 0.00000000e+00 1.25734163e-13 0.00000000e+00 4.71339078e-16
9.54992586e+01 6.98421620e-14 3.11410641e-16 0.00000000e+00 6.95307514e-14 0.00000000e+00 3.11410641e-16
1.09647820e+02 3.81505557e-14 2.05746970e-16 0.00000000e+00 3.79448088e-14 0.00000000e+00 2.05746970e-16
1.25892541e+02 2.08769711e-14 1.35935675e-16 0.00000000e+00 2.07410354e-14 0.00000000e+00 1.35935675e-16
1.44543977e+02 1.13830725e-14 8.98118099e-17 0.00000000e+00 1.12932607e-14 0.00000000e+00 8.98118099e-17
1.65958691e+02 5.91977568e-15 5.93380743e-17 0.00000000e+00 5.86043760e-15 0.00000000e+00 5.93380743e-17
1.90546072e+02 3.08673759e-15 3.92042769e-17 0.00000000e+00 3.04753331e-15 0.00000000e+00 3.92042769e-17
2.18776162e+02 1.60968845e-15 2.59020089e-17 0.00000000e+00 1.58378645e-15 0.00000000e+00 2.59020089e-17
2.51188643e+02 8.37979424e-16 1.71132876e-17 0.00000000e+00 8.20866137e-16 0.00000000e+00 1.71132876e-17
2.88403150e+02 4.35026672e-16 1.13066370e-17 0.00000000e+00 4.23720035e-16 0.00000000e+00 1.13066370e-17
3.31131121e+02 2.25707662e-16 7.47022097e-18 0.00000000e+00 2.18237441e-16 0.00000000e+00 7.47022097e-18
3.80189396e+02 1.16947930e-16 4.93552605e-18 0.00000000e+00 1.12012404e-16 0.00000000e+00 4.93552605e-18
4.36515832e+02 6.06300022e-17 3.26086972e-18 0.00000000e+00 5.73691325e-17 0.00000000e+00 3.26086972e-18
5.01187234e+02 3.14644449e-17 2.15443526e-18 0.00000000e+00 2.93100096e-17 0.00000000e+00 2.15443526e-18
5.75439937e+02 1.63675917e-17 1.42342126e-18 0.00000000e+00 1.49441704e-17 0.00000000e+00 1.42342126e-18
6.60693448e+02 8.54654995e-18 9.40445101e-19 0.00000000e+00 7.60610485e-18 0.00000000e+00 9.40445101e-19
7.58577575e+02 4.48665439e-18 6.21345916e-19 0.00000000e+00 3.86530848e-18 0.00000000e+00 6.21345916e-19
8.70963590e+02 2.37167691e-18 4.10519176e-19 0.00000000e+00 1.96115773e-18 0.00000000e+00 4.10519176e-19
1.00000000e+03 9.93532425e-19 0.00000000e+00 0.00000000e+00 9.93532425e-19 0.00000000e+00 0.00000000e+00
