# column 1: lambda (micron)
# column 2: total flux; lambda*F_lambda (W/m2)
# column 3: direct stellar flux; lambda*F_lambda (W/m2)
# column 4: scattered stellar flux; lambda*F_lambda (W/m2)
# column 5: total dust emission flux; lambda*F_lambda (W/m2)
# column 6: dust emission scattered flux; lambda*F_lambda (W/m2)
# column 7: transparent flux; lambda*F_lambda (W/m2)
1.00000000e-03 6.93993847e-13 6.93993746e-13 1.00989064e-19 0.00000000e+00 0.00000000e+00 6.93993746e-13
1.14815362e-03 8.19135309e-13 8.19135139e-13 1.70254160e-19 0.00000000e+00 0.00000000e+00 8.19135139e-13
1.31825674e-03 9.66842370e-13 9.66842108e-13 2.62087029e-19 0.00000000e+00 0.00000000e+00 9.66842108e-13
1.51356125e-03 1.14118410e-12 1.14118369e-12 4.10169773e-19 0.00000000e+00 0.00000000e+00 1.14118369e-12
1.73780083e-03 1.34696338e-12 1.34696266e-12 7.17800307e-19 0.00000000e+00 0.00000000e+00 1.34696266e-12
1.99526231e-03 1.58984911e-12 1.58984782e-12 1.28681479e-18 0.00000000e+00 0.00000000e+00 1.58984782e-12
2.29086765e-03 1.87653231e-12 1.87653019e-12 2.11301627e-18 0.00000000e+00 0.00000000e+00 1.87653019e-12
2.63026799e-03 2.21491162e-12 2.21490731e-12 4.31016187e-18 0.00000000e+00 0.00000000e+00 2.21490731e-12
3.01995172e-03 2.61430792e-12 2.61430080e-12 7.11116091e-18 0.00000000e+00 0.00000000e+00 2.61430080e-12
3.46736850e-03 3.08572503e-12 3.08571319e-12 1.18410601e-17 0.00000000e+00 0.00000000e+00 3.08571319e-12
3.98107171e-03 3.64215149e-12 3.64213095e-12 2.05359681e-17 0.00000000e+00 0.00000000e+00 3.64213095e-12
4.57088190e-03 4.29893113e-12 4.29888232e-12 4.88157557e-17 0.00000000e+00 0.00000000e+00 4.29888232e-12
5.24807460e-03 5.07413670e-12 5.07405951e-12 7.71902531e-17 0.00000000e+00 0.00000000e+00 5.07405951e-12
6.02559586e-03 5.98915632e-12 5.98901715e-12 1.39176667e-16 0.00000000e+00 0.00000000e+00 5.98901715e-12
6.91830971e-03 7.06919362e-12 7.06896053e-12 2.33094076e-16 0.00000000e+00 0.00000000e+00 7.06896053e-12
7.94328235e-03 8.34403179e-12 8.34363998e-12 3.91803919e-16 7.48257085e-304 6.29920354e-306 8.34363998e-12
9.12010839e-03 9.84874507e-12 9.84817045e-12 5.74626250e-16 4.02346782e-265 1.38159370e-267 9.84817045e-12
1.04712855e-02 1.09998374e-11 1.09990604e-11 7.76988493e-16 2.04227966e-231 8.60650789e-234 1.09990604e-11
1.20226443e-02 1.10003134e-11 1.09990604e-11 1.25295124e-15 3.77153950e-202 3.96091124e-204 1.09990604e-11
1.38038426e-02 1.10007044e-11 1.09990604e-11 1.64394985e-15 1.17719465e-176 1.03665916e-178 1.09990604e-11
1.58489319e-02 1.10022005e-11 1.09990604e-11 3.14002264e-15 1.79833536e-154 1.96256586e-156 1.09990604e-11
1.81970086e-02 1.10022508e-11 1.09990604e-11 3.19031295e-15 3.56894680e-135 4.89695926e-137 1.09990604e-11
2.08929613e-02 1.10033822e-11 1.09990604e-11 4.32172911e-15 2.04994905e-118 3.80944817e-120 1.09990604e-11
2.39883292e-02 1.10058179e-11 1.09990604e-11 6.75749219e-15 7.79770307e-104 1.70172676e-105 1.09990604e-11
2.75422870e-02 1.10062529e-11 1.09990604e-11 7.19246746e-15 3.74893820e-91 9.85389556e-93 1.09990604e-11
3.16227766e-02 1.10088765e-11 1.09990604e-11 9.81608800e-15 3.88484747e-80 1.14124764e-81 1.09990604e-11
3.63078055e-02 1.10103844e-11 1.09990604e-11 1.13239355e-14 1.41868889e-70 4.34428923e-72 1.09990604e-11
4.16869383e-02 1.10151712e-11 1.09990604e-11 1.61107957e-14 2.83309291e-62 1.09188458e-63 1.09990604e-11
4.78630092e-02 1.10193904e-11 1.09990604e-11 2.03299644e-14 4.44711299e-55 1.93097793e-56 1.09990604e-11
5.49540874e-02 1.10234445e-11 1.09990604e-11 2.43840631e-14 7.61838986e-49 3.45755781e-50 1.09990604e-11
6.30957344e-02 1.10273075e-11 1.09990604e-11 2.82470851e-14 2.50985843e-43 1.08385149e-44 1.09990604e-11
7.24435960e-02 1.10260431e-11 1.09990604e-11 2.69826736e-14 1.47859015e-38 5.26567047e-40 1.09990604e-11
8.31763771e-02 1.10262333e-11 1.09990604e-11 2.71728657e-14 1.54841082e-34 5.36064819e-36 1.09990604e-11
9.54992586e-02 1.10286005e-11 1.09990604e-11 2.95400383e-14 4.45567623e-31 1.64149377e-32 1.09990604e-11
1.09647820e-01 1.05348480e-11 1.05040253e-11 3.08226521e-14 3.86657432e-28 1.67889015e-29 1.05040253e-11
1.25892541e-01 9.82927090e-12 9.80292679e-12 2.63441022e-14 1.28075120e-25 6.09763658e-27 9.80292679e-12
1.44543977e-01 9.17545972e-12 9.14862359e-12 2.68361269e-14 1.78090789e-23 9.38018275e-25 9.14862359e-12
1.65958691e-01 8.56467696e-12 8.53799231e-12 2.66846484e-14 9.15674291e-22 5.55668294e-23 8.53799231e-12
1.90546072e-01 8.00096504e-12 7.96811805e-12 3.28469752e-14 1.93954663e-20 1.30740414e-21 7.96811805e-12
2.18776162e-01 7.46665964e-12 7.43628044e-12 3.03789760e-14 2.29497080e-19 1.44104731e-20 7.43628044e-12
2.51188643e-01 6.97622458e-12 6.93994070e-12 3.62810497e-14 2.83248984e-18 2.44121976e-19 6.93994070e-12
2.88403150e-01 6.50922731e-12 6.47672950e-12 3.24739021e-14 2.39066916e-17 2.17838512e-18 6.47672950e-12
3.31131121e-01 6.07612612e-12 6.04443567e-12 3.15518217e-14 1.38637249e-16 1.30660188e-17 6.04443567e-12
3.80189396e-01 5.66977553e-12 5.64099558e-12 2.81977747e-14 5.82175539e-16 5.51663307e-17 5.64099558e-12
4.36515832e-01 5.29351535e-12 5.26448339e-12 2.71790082e-14 1.85295134e-15 1.76768883e-16 5.26448339e-12
5.01187234e-01 4.94186793e-12 4.91310176e-12 2.41166267e-14 4.64954034e-15 4.48990268e-16 4.91310176e-12
5.75439937e-01 4.61686246e-12 4.58517335e-12 2.21180583e-14 9.57105445e-15 9.09028039e-16 4.58517335e-12
6.60693448e-01 4.31783000e-12 4.27913275e-12 2.18730319e-14 1.68242196e-14 1.58467940e-15 4.27913275e-12
7.58577575e-01 4.03896858e-12 3.99351904e-12 1.90955737e-14 2.63539650e-14 2.42899185e-15 3.99351904e-12
8.70963590e-01 3.78082360e-12 3.72696882e-12 1.59130594e-14 3.79417213e-14 3.40867157e-15 3.72696882e-12
1.00000000e+00 3.54448362e-12 3.47820968e-12 1.47233276e-14 5.15506138e-14 4.49630141e-15 3.47820968e-12
1.14815362e+00 3.32832260e-12 3.24605414e-12 1.27071165e-14 6.95613438e-14 5.73619118e-15 3.24605414e-12
1.31825674e+00 3.13474068e-12 3.02939399e-12 9.59376985e-15 9.57529182e-14 7.32692264e-15 3.02939399e-12
1.51356125e+00 2.96753867e-12 2.82719497e-12 7.62138225e-15 1.32722314e-13 8.75527813e-15 2.82719497e-12
1.73780083e+00 2.82496090e-12 2.63849186e-12 5.87042115e-15 1.80598617e-13 9.86799826e-15 2.63849186e-12
1.99526231e+00 2.70014138e-12 2.46238388e-12 4.21788043e-15 2.33539619e-13 9.93605885e-15 2.46238388e-12
2.29086765e+00 2.58337110e-12 2.29803035e-12 2.72764299e-15 2.82613114e-13 9.06637025e-15 2.29803035e-12
2.63026799e+00 2.46471949e-12 2.14464670e-12 1.97039179e-15 3.18102396e-13 7.52432278e-15 2.14464670e-12
3.01995172e+00 2.33859672e-12 2.00150076e-12 1.34794483e-15 3.35748015e-13 5.89651500e-15 2.00150076e-12
3.46736850e+00 2.20416952e-12 1.86790919e-12 8.84550646e-16 3.35375780e-13 4.33067604e-15 1.86790919e-12
3.98107171e+00 2.06271169e-12 1.74323429e-12 5.96076849e-16 3.18881325e-13 3.00192908e-15 1.74323429e-12
4.57088190e+00 1.92035921e-12 1.62688090e-12 3.66709510e-16 2.93111607e-13 1.97261450e-15 1.62688090e-12
5.24807460e+00 1.60972888e-12 1.34518114e-12 2.01666877e-16 2.64346069e-13 1.24962738e-15 1.34518114e-12
6.02559586e+00 1.12603362e-12 8.88752369e-13 8.55035175e-17 2.37195747e-13 7.50384747e-16 8.88752369e-13
6.70000000e+00 8.63495108e-13 6.46481889e-13 4.26182280e-17 2.16970600e-13 4.91233261e-16 6.46481889e-13
6.92422916e+00 7.96278282e-13 5.85688198e-13 3.43753073e-17 2.10555709e-13 4.20534489e-16 5.85688198e-13
7.15596261e+00 7.37487029e-13 5.30611407e-13 2.66898508e-17 2.06848932e-13 3.62600264e-16 5.30611407e-13
7.39545150e+00 6.88978264e-13 4.80713913e-13 1.93607542e-17 2.08244990e-13 3.10339562e-16 4.80713913e-13
7.64295536e+00 6.61329127e-13 4.35508666e-13 1.55805433e-17 2.25804880e-13 2.67819770e-16 4.35508666e-13
7.89874245e+00 6.62654750e-13 3.94554418e-13 9.44325433e-18 2.68090889e-13 2.26442076e-16 3.94554418e-13
8.16308998e+00 6.87789918e-13 3.57451415e-13 6.24579157e-18 3.30332257e-13 1.90766056e-16 3.57451415e-13
8.43628443e+00 7.41401454e-13 3.23837494e-13 3.47249269e-18 4.17560487e-13 1.54013070e-16 3.23837494e-13
8.71862190e+00 7.74134360e-13 2.93384550e-13 2.41459936e-18 4.80747395e-13 1.23615729e-16 2.93384550e-13
9.01040836e+00 8.12160838e-13 2.65795332e-13 1.47217948e-18 5.46364034e-13 9.12177554e-17 2.65795332e-13
9.31196005e+00 8.40735175e-13 2.40800541e-13 0.00000000e+00 5.99934634e-13 0.00000000e+00 2.40800541e-13
9.62360379e+00 8.13173611e-13 2.18156204e-13 0.00000000e+00 5.95017407e-13 0.00000000e+00 2.18156204e-13
9.94567731e+00 7.48482382e-13 1.97641289e-13 0.00000000e+00 5.50841093e-13 0.00000000e+00 1.97641289e-13
1.02785297e+01 6.74194604e-13 1.79055550e-13 0.00000000e+00 4.95139054e-13 0.00000000e+00 1.79055550e-13
1.06225216e+01 6.05288941e-13 1.62217572e-13 0.00000000e+00 4.43071369e-13 0.00000000e+00 1.62217572e-13
1.09780260e+01 5.33784008e-13 1.46962999e-13 0.00000000e+00 3.86821009e-13 0.00000000e+00 1.46962999e-13
1.13454280e+01 4.71571109e-13 1.33142932e-13 0.00000000e+00 3.38428178e-13 0.00000000e+00 1.33142932e-13
1.17251259e+01 4.18976229e-13 1.20622472e-13 0.00000000e+00 2.98353756e-13 0.00000000e+00 1.20622472e-13
1.21175312e+01 3.72757308e-13 1.09279408e-13 0.00000000e+00 2.63477900e-13 0.00000000e+00 1.09279408e-13
1.25230691e+01 3.31316336e-13 9.90030204e-14 0.00000000e+00 2.32313315e-13 0.00000000e+00 9.90030204e-14
1.29421791e+01 2.96296120e-13 8.96930008e-14 0.00000000e+00 2.06603119e-13 0.00000000e+00 8.96930008e-14
1.33753155e+01 2.66126287e-13 8.12584743e-14 0.00000000e+00 1.84867813e-13 0.00000000e+00 8.12584743e-14
1.38229477e+01 2.44729889e-13 7.36171115e-14 0.00000000e+00 1.71112777e-13 0.00000000e+00 7.36171115e-14
1.42855609e+01 2.29729502e-13 6.66943252e-14 0.00000000e+00 1.63035176e-13 0.00000000e+00 6.66943252e-14
1.47636563e+01 2.25255689e-13 6.04225420e-14 0.00000000e+00 1.64833147e-13 0.00000000e+00 6.04225420e-14
1.52577522e+01 2.23641008e-13 5.47405431e-14 0.00000000e+00 1.68900465e-13 0.00000000e+00 5.47405431e-14
1.57683840e+01 2.23562718e-13 4.95928665e-14 0.00000000e+00 1.73969852e-13 0.00000000e+00 4.95928665e-14
1.62961051e+01 2.24984432e-13 4.49292657e-14 0.00000000e+00 1.80055166e-13 0.00000000e+00 4.49292657e-14
1.68414875e+01 2.26104299e-13 4.07042194e-14 0.00000000e+00 1.85400079e-13 0.00000000e+00 4.07042194e-14
1.74051222e+01 2.24190888e-13 3.68764869e-14 0.00000000e+00 1.87314401e-13 0.00000000e+00 3.68764869e-14
1.79876201e+01 2.20629528e-13 3.34087056e-14 0.00000000e+00 1.87220822e-13 0.00000000e+00 3.34087056e-14
1.85896125e+01 2.13837984e-13 3.02670267e-14 0.00000000e+00 1.83570958e-13 0.00000000e+00 3.02670267e-14
1.92117518e+01 2.03894315e-13 2.74207841e-14 0.00000000e+00 1.76473531e-13 0.00000000e+00 2.74207841e-14
1.98547123e+01 1.92159690e-13 2.48421957e-14 0.00000000e+00 1.67317495e-13 0.00000000e+00 2.48421957e-14
2.05191907e+01 1.80552763e-13 2.25060919e-14 0.00000000e+00 1.58046671e-13 0.00000000e+00 2.25060919e-14
2.12059073e+01 1.69334654e-13 2.03896700e-14 0.00000000e+00 1.48944984e-13 0.00000000e+00 2.03896700e-14
2.19156062e+01 1.59377272e-13 1.84722717e-14 0.00000000e+00 1.40905000e-13 0.00000000e+00 1.84722717e-14
2.26490567e+01 1.50158092e-13 1.67351811e-14 0.00000000e+00 1.33422911e-13 0.00000000e+00 1.67351811e-14
2.34070535e+01 1.41488461e-13 1.51614426e-14 0.00000000e+00 1.26327019e-13 0.00000000e+00 1.51614426e-14
2.41904183e+01 1.33695461e-13 1.37356949e-14 0.00000000e+00 1.19959766e-13 0.00000000e+00 1.37356949e-14
2.50000000e+01 1.26334391e-13 1.24440213e-14 0.00000000e+00 1.13890370e-13 0.00000000e+00 1.24440213e-14
2.75422870e+01 1.06673542e-13 9.30637977e-15 0.00000000e+00 9.73671622e-14 0.00000000e+00 9.30637977e-15
3.16227766e+01 8.26228929e-14 6.14866414e-15 0.00000000e+00 7.64742288e-14 0.00000000e+00 6.14866414e-15
3.63078055e+01 6.13833083e-14 4.06238211e-15 0.00000000e+00 5.73209261e-14 0.00000000e+00 4.06238211e-15
4.16869383e+01 4.31343579e-14 2.68398924e-15 0.00000000e+00 4.04503687e-14 0.00000000e+00 2.68398924e-15
4.78630092e+01 2.85764522e-14 1.77329411e-15 0.00000000e+00 2.68031581e-14 0.00000000e+00 1.77329411e-15
5.49540874e+01 1.80696618e-14 1.17160380e-15 0.00000000e+00 1.68980580e-14 0.00000000e+00 1.17160380e-15
6.30957344e+01 1.10094182e-14 7.74070953e-16 0.00000000e+00 1.02353472e-14 0.00000000e+00 7.74070953e-16
7.24435960e+01 6.52215753e-15 5.11423607e-16 0.00000000e+00 6.01073393e-15 0.00000000e+00 5.11423607e-16
8.31763771e+01 3.78587597e-15 3.37894226e-16 0.00000000e+00 3.44798174e-15 0.00000000e+00 3.37894226e-16
9.54992586e+01 2.16780361e-15 2.23244502e-16 0.00000000e+00 1.94455911e-15 0.00000000e+00 2.23244502e-16
1.09647820e+02 1.22967874e-15 1.47496179e-16 0.00000000e+00 1.08218256e-15 0.00000000e+00 1.47496179e-16
1.25892541e+02 7.00284240e-16 9.74497594e-17 0.00000000e+00 6.02834481e-16 0.00000000e+00 9.74497594e-17
1.44543977e+02 3.98321081e-16 6.43844175e-17 0.00000000e+00 3.33936664e-16 0.00000000e+00 6.43844175e-17
1.65958691e+02 2.18463125e-16 4.25383628e-17 0.00000000e+00 1.75924763e-16 0.00000000e+00 4.25383628e-17
1.90546072e+02 1.20857393e-16 2.81048176e-17 0.00000000e+00 9.27525757e-17 0.00000000e+00 2.81048176e-17
2.18776162e+02 6.73717300e-17 1.85686688e-17 0.00000000e+00 4.88030612e-17 0.00000000e+00 1.85686688e-17
2.51188643e+02 3.78420845e-17 1.22681978e-17 0.00000000e+00 2.55738867e-17 0.00000000e+00 1.22681978e-17
2.88403150e+02 2.14352083e-17 8.10551794e-18 0.00000000e+00 1.33296904e-17 0.00000000e+00 8.10551794e-18
3.31131121e+02 1.22793760e-17 5.35526259e-18 0.00000000e+00 6.92411344e-18 0.00000000e+00 5.35526259e-18
3.80189396e+02 7.11878959e-18 3.53818691e-18 0.00000000e+00 3.58060268e-18 0.00000000e+00 3.53818691e-18
4.36515832e+02 4.18354461e-18 2.33765691e-18 0.00000000e+00 1.84588771e-18 0.00000000e+00 2.33765691e-18
5.01187234e+02 2.49293487e-18 1.54447460e-18 0.00000000e+00 9.48460270e-19 0.00000000e+00 1.54447460e-18
5.75439937e+02 1.50643252e-18 1.02042425e-18 0.00000000e+00 4.86008271e-19 0.00000000e+00 1.02042425e-18
6.60693448e+02 9.22628980e-19 6.74187617e-19 0.00000000e+00 2.48441363e-19 0.00000000e+00 6.74187617e-19
7.58577575e+02 5.72165558e-19 4.45431341e-19 0.00000000e+00 1.26734217e-19 0.00000000e+00 4.45431341e-19
8.70963590e+02 3.58808045e-19 2.94293569e-19 0.00000000e+00 6.45144765e-20 0.00000000e+00 2.94293569e-19
1.00000000e+03 3.27776336e-20 0.00000000e+00 0.00000000e+00 3.27776336e-20 0.00000000e+00 0.00000000e+00
