# column 1: lambda (micron)
# column 2: total flux; lambda*F_lambda (W/m2)
# column 3: direct stellar flux; lambda*F_lambda (W/m2)
# column 4: scattered stellar flux; lambda*F_lambda (W/m2)
# column 5: total dust emission flux; lambda*F_lambda (W/m2)
# column 6: dust emission scattered flux; lambda*F_lambda (W/m2)
# column 7: transparent flux; lambda*F_lambda (W/m2)
1.00000000e-03 3.57785900e-13 3.57785423e-13 4.77030794e-19 0.00000000e+00 0.00000000e+00 3.57785423e-13
1.14815362e-03 4.22302283e-13 4.22301518e-13 7.64423136e-19 0.00000000e+00 0.00000000e+00 4.22301518e-13
1.31825674e-03 4.98452396e-13 4.98451197e-13 1.19959870e-18 0.00000000e+00 0.00000000e+00 4.98451197e-13
1.51356125e-03 5.88334204e-13 5.88332233e-13 1.97054411e-18 0.00000000e+00 0.00000000e+00 5.88332233e-13
1.73780083e-03 6.94424138e-13 6.94420676e-13 3.46228890e-18 0.00000000e+00 0.00000000e+00 6.94420676e-13
1.99526231e-03 8.19646169e-13 8.19639053e-13 7.11551269e-18 0.00000000e+00 0.00000000e+00 8.19639053e-13
2.29086765e-03 9.67446730e-13 9.67436888e-13 9.84164698e-18 0.00000000e+00 0.00000000e+00 9.67436888e-13
2.63026799e-03 1.14190668e-12 1.14188572e-12 2.09533333e-17 0.00000000e+00 0.00000000e+00 1.14188572e-12
3.01995172e-03 1.34782450e-12 1.34779128e-12 3.32210029e-17 0.00000000e+00 0.00000000e+00 1.34779128e-12
3.46736850e-03 1.59088574e-12 1.59082586e-12 5.98752050e-17 0.00000000e+00 0.00000000e+00 1.59082586e-12
3.98107171e-03 1.87778391e-12 1.87768459e-12 9.93168973e-17 0.00000000e+00 0.00000000e+00 1.87768459e-12
4.57088190e-03 2.21646735e-12 2.21626987e-12 1.97481549e-16 0.00000000e+00 0.00000000e+00 2.21626987e-12
5.24807460e-03 2.61633081e-12 2.61590907e-12 4.21744175e-16 0.00000000e+00 0.00000000e+00 2.61590907e-12
6.02559586e-03 3.08834329e-12 3.08761145e-12 7.31837990e-16 0.00000000e+00 0.00000000e+00 3.08761145e-12
6.91830971e-03 3.64558155e-12 3.64437151e-12 1.21003780e-15 0.00000000e+00 0.00000000e+00 3.64437151e-12
7.94328235e-03 4.30347622e-12 4.30152690e-12 1.94931812e-15 0.00000000e+00 0.00000000e+00 4.30152690e-12
9.12010839e-03 5.08031626e-12 5.07718096e-12 3.13529377e-15 0.00000000e+00 0.00000000e+00 5.07718096e-12
1.04712855e-02 5.67502802e-12 5.67051724e-12 4.51078547e-15 0.00000000e+00 0.00000000e+00 5.67051724e-12
1.20226443e-02 5.67700124e-12 5.67051724e-12 6.48400083e-15 0.00000000e+00 0.00000000e+00 5.67051724e-12
1.38038426e-02 5.68049045e-12 5.67051724e-12 9.97321055e-15 4.39361634e-289 5.75892281e-290 5.67051724e-12
1.58489319e-02 5.68459123e-12 5.67051724e-12 1.40739917e-14 2.34135523e-252 3.29926925e-253 5.67051724e-12
1.81970086e-02 5.69010775e-12 5.67051724e-12 1.95905117e-14 2.12804363e-220 2.94446818e-221 5.67051724e-12
2.08929613e-02 5.70270477e-12 5.67051724e-12 3.21875352e-14 1.33124386e-192 2.03625150e-193 5.67051724e-12
2.39883292e-02 5.70386510e-12 5.67051724e-12 3.33478646e-14 2.01086626e-168 2.94094643e-169 5.67051724e-12
2.75422870e-02 5.71599613e-12 5.67051724e-12 4.54788949e-14 2.19354756e-147 2.88864230e-148 5.67051724e-12
3.16227766e-02 5.71721579e-12 5.67051724e-12 4.66985503e-14 4.40342611e-129 5.93565408e-130 5.67051724e-12
3.63078055e-02 5.72471084e-12 5.67051724e-12 5.41936000e-14 3.49680753e-113 4.15623198e-114 5.67051724e-12
4.16869383e-02 5.73762759e-12 5.67051724e-12 6.71103537e-14 2.34793064e-99 3.06163368e-100 5.67051724e-12
4.78630092e-02 5.74489030e-12 5.67051724e-12 7.43730589e-14 2.35903274e-87 2.98305822e-88 5.67051724e-12
5.49540874e-02 5.74295777e-12 5.67051724e-12 7.24405288e-14 6.16035919e-77 7.55991370e-78 5.67051724e-12
6.30957344e-02 5.74042417e-12 5.67051724e-12 6.99069347e-14 8.72621707e-68 1.00999195e-68 5.67051724e-12
7.24435960e-02 5.72796385e-12 5.67051724e-12 5.74466110e-14 7.42881840e-60 7.16040732e-61 5.67051724e-12
8.31763771e-02 5.72611539e-12 5.67051724e-12 5.55981550e-14 4.61466964e-53 4.39373522e-54 5.67051724e-12
9.54992586e-02 5.72424314e-12 5.67051724e-12 5.37258969e-14 3.47311892e-47 3.43941966e-48 5.67051724e-12
1.09647820e-01 5.47440179e-12 5.41530405e-12 5.90977341e-14 3.97787106e-42 4.40258917e-43 5.41530405e-12
1.25892541e-01 5.11595196e-12 5.05385580e-12 6.20961590e-14 9.25656395e-38 1.08879419e-38 5.05385580e-12
1.44543977e-01 4.77302429e-12 4.71653266e-12 5.64916347e-14 5.26993408e-34 6.45610235e-35 4.71653266e-12
1.65958691e-01 4.45856020e-12 4.40172439e-12 5.68358103e-14 6.79819226e-31 8.90310826e-32 4.40172439e-12
1.90546072e-01 4.16810492e-12 4.10792822e-12 6.01767091e-14 2.31676283e-28 3.29820901e-29 4.10792822e-12
2.18776162e-01 3.88629762e-12 3.83374167e-12 5.25559406e-14 3.02385797e-26 4.14069838e-27 3.83374167e-12
2.51188643e-01 3.63667977e-12 3.57785591e-12 5.88238636e-14 3.28754356e-24 5.44975509e-25 3.57785591e-12
2.88403150e-01 3.39331347e-12 3.33904941e-12 5.42640585e-14 1.85763992e-22 3.13533888e-23 3.33904941e-12
3.31131121e-01 3.16871452e-12 3.11618222e-12 5.25322872e-14 5.83169021e-21 9.97284196e-22 3.11618222e-12
3.80189396e-01 2.95591695e-12 2.90819046e-12 4.77263718e-14 1.12248770e-19 1.96718329e-20 2.90819046e-12
4.36515832e-01 2.75698143e-12 2.71408126e-12 4.28987196e-14 1.45084255e-18 2.62059210e-19 2.71408126e-12
5.01187234e-01 2.57320680e-12 2.53292801e-12 4.02655067e-14 1.32915827e-17 2.45702267e-18 2.53292801e-12
5.75439937e-01 2.40041729e-12 2.36386595e-12 3.64603341e-14 9.09999014e-17 1.67492343e-17 2.36386595e-12
6.60693448e-01 2.23896256e-12 2.20608807e-12 3.24018179e-14 4.72674962e-16 8.46411287e-17 2.20608807e-12
7.58577575e-01 2.08933602e-12 2.05884118e-12 2.85479361e-14 1.94690697e-15 3.31596211e-16 2.05884118e-12
8.70963590e-01 1.95200677e-12 1.92142238e-12 2.40844268e-14 6.49995402e-15 1.01391927e-15 1.92142238e-12
1.00000000e+00 1.83119584e-12 1.79317570e-12 2.01088156e-14 1.79113216e-14 2.49521495e-15 1.79317570e-12
1.14815362e+00 1.73267521e-12 1.67348894e-12 1.66581819e-14 4.25280920e-14 5.14594597e-15 1.67348894e-12
1.31825674e+00 1.66399130e-12 1.56179075e-12 1.36472047e-14 8.85533485e-14 9.02416981e-15 1.56179075e-12
1.51356125e+00 1.63032841e-12 1.45754793e-12 1.08012201e-14 1.61979261e-13 1.37015918e-14 1.45754793e-12
1.73780083e+00 1.62768224e-12 1.36026288e-12 8.09480575e-15 2.59324553e-13 1.76211848e-14 1.36026288e-12
1.99526231e+00 1.64329903e-12 1.26947118e-12 5.91139796e-15 3.67916453e-13 1.95083277e-14 1.26947118e-12
2.29086765e+00 1.65564480e-12 1.18473944e-12 4.09864672e-15 4.66806715e-13 1.85477929e-14 1.18473944e-12
2.63026799e+00 1.64769679e-12 1.10566318e-12 2.67187936e-15 5.39361737e-13 1.56049658e-14 1.10566318e-12
3.01995172e+00 1.60985178e-12 1.03186491e-12 1.79731111e-15 5.76189552e-13 1.19272636e-14 1.03186491e-12
3.46736850e+00 1.54225347e-12 9.62992369e-13 1.14846294e-15 5.78112639e-13 8.43863237e-15 9.62992369e-13
3.98107171e+00 1.44759733e-12 8.98716770e-13 7.01161600e-16 5.48179394e-13 5.34964504e-15 8.98716770e-13
4.57088190e+00 1.33683838e-12 8.38731291e-13 4.13652417e-16 4.97693432e-13 3.23943494e-15 8.38731291e-13
5.24807460e+00 1.13263169e-12 6.93502223e-13 2.15913487e-16 4.38913551e-13 1.82391157e-15 6.93502223e-13
6.02559586e+00 8.41048257e-13 4.58192375e-13 8.46231606e-17 3.82771259e-13 1.00302230e-15 4.58192375e-13
6.70000000e+00 6.74253869e-13 3.33290895e-13 4.15055078e-17 3.40921468e-13 5.87839220e-16 3.33290895e-13
6.92422916e+00 6.29919607e-13 3.01948975e-13 3.27279363e-17 3.27937905e-13 4.88899487e-16 3.01948975e-13
7.15596261e+00 5.92908074e-13 2.73554377e-13 2.54450315e-17 3.19328251e-13 4.13801708e-16 2.73554377e-13
7.39545150e+00 5.68491526e-13 2.47829944e-13 1.92345012e-17 3.20642348e-13 3.43168358e-16 2.47829944e-13
7.64295536e+00 5.73513591e-13 2.24524577e-13 1.46159049e-17 3.48974398e-13 3.03084423e-16 2.24524577e-13
7.89874245e+00 6.21999566e-13 2.03410795e-13 9.28793348e-18 4.18579483e-13 2.64030903e-16 2.03410795e-13
8.16308998e+00 7.05667036e-13 1.84282505e-13 6.11692402e-18 5.21378414e-13 2.32334071e-16 1.84282505e-13
8.43628443e+00 8.31313473e-13 1.66952996e-13 3.77880386e-18 6.64356698e-13 2.00960604e-16 1.66952996e-13
8.71862190e+00 9.15830322e-13 1.51253114e-13 2.44801135e-18 7.64574760e-13 1.62416306e-16 1.51253114e-13
9.01040836e+00 1.00238104e-12 1.37029614e-13 1.51352348e-18 8.65349916e-13 1.22899105e-16 1.37029614e-13
9.31196005e+00 1.06700490e-12 1.24143660e-13 0.00000000e+00 9.42861240e-13 0.00000000e+00 1.24143660e-13
9.62360379e+00 1.04379868e-12 1.12469472e-13 0.00000000e+00 9.31329212e-13 0.00000000e+00 1.12469472e-13
9.94567731e+00 9.60095422e-13 1.01893097e-13 0.00000000e+00 8.58202325e-13 0.00000000e+00 1.01893097e-13
1.02785297e+01 8.59723890e-13 9.23113014e-14 0.00000000e+00 7.67412588e-13 0.00000000e+00 9.23113014e-14
1.06225216e+01 7.62991131e-13 8.36305558e-14 0.00000000e+00 6.79360575e-13 0.00000000e+00 8.36305558e-14
1.09780260e+01 6.62310792e-13 7.57661279e-14 0.00000000e+00 5.86544664e-13 0.00000000e+00 7.57661279e-14
1.13454280e+01 5.76272598e-13 6.86412529e-14 0.00000000e+00 5.07631345e-13 0.00000000e+00 6.86412529e-14
1.17251259e+01 5.04683561e-13 6.21863851e-14 0.00000000e+00 4.42497176e-13 0.00000000e+00 6.21863851e-14
1.21175312e+01 4.40365053e-13 5.63385184e-14 0.00000000e+00 3.84026534e-13 0.00000000e+00 5.63385184e-14
1.25230691e+01 3.84101237e-13 5.10405718e-14 0.00000000e+00 3.33060665e-13 0.00000000e+00 5.10405718e-14
1.29421791e+01 3.37622169e-13 4.62408321e-14 0.00000000e+00 2.91381337e-13 0.00000000e+00 4.62408321e-14
1.33753155e+01 2.98815436e-13 4.18924490e-14 0.00000000e+00 2.56922987e-13 0.00000000e+00 4.18924490e-14
1.38229477e+01 2.72502153e-13 3.79529781e-14 0.00000000e+00 2.34549175e-13 0.00000000e+00 3.79529781e-14
1.42855609e+01 2.55795900e-13 3.43839660e-14 0.00000000e+00 2.21411934e-13 0.00000000e+00 3.43839660e-14
1.47636563e+01 2.54497467e-13 3.11505758e-14 0.00000000e+00 2.23346892e-13 0.00000000e+00 3.11505758e-14
1.52577522e+01 2.56758584e-13 2.82212462e-14 0.00000000e+00 2.28537338e-13 0.00000000e+00 2.82212462e-14
1.57683840e+01 2.61704452e-13 2.55673842e-14 0.00000000e+00 2.36137068e-13 0.00000000e+00 2.55673842e-14
1.62961051e+01 2.67071355e-13 2.31630853e-14 0.00000000e+00 2.43908270e-13 0.00000000e+00 2.31630853e-14
1.68414875e+01 2.72506169e-13 2.09848813e-14 0.00000000e+00 2.51521288e-13 0.00000000e+00 2.09848813e-14
1.74051222e+01 2.73700134e-13 1.90115106e-14 0.00000000e+00 2.54688624e-13 0.00000000e+00 1.90115106e-14
1.79876201e+01 2.72178190e-13 1.72237112e-14 0.00000000e+00 2.54954479e-13 0.00000000e+00 1.72237112e-14
1.85896125e+01 2.65109307e-13 1.56040325e-14 0.00000000e+00 2.49505275e-13 0.00000000e+00 1.56040325e-14
1.92117518e+01 2.53108065e-13 1.41366646e-14 0.00000000e+00 2.38971400e-13 0.00000000e+00 1.41366646e-14
1.98547123e+01 2.39121039e-13 1.28072847e-14 0.00000000e+00 2.26313754e-13 0.00000000e+00 1.28072847e-14
2.05191907e+01 2.24709406e-13 1.16029167e-14 0.00000000e+00 2.13106489e-13 0.00000000e+00 1.16029167e-14
2.12059073e+01 2.11367089e-13 1.05118047e-14 0.00000000e+00 2.00855284e-13 0.00000000e+00 1.05118047e-14
2.19156062e+01 1.99629440e-13 9.52329842e-15 0.00000000e+00 1.90106142e-13 0.00000000e+00 9.52329842e-15
2.26490567e+01 1.89163923e-13 8.62774902e-15 0.00000000e+00 1.80536174e-13 0.00000000e+00 8.62774902e-15
2.34070535e+01 1.79367404e-13 7.81641505e-15 0.00000000e+00 1.71550989e-13 0.00000000e+00 7.81641505e-15
2.41904183e+01 1.70673029e-13 7.08137710e-15 0.00000000e+00 1.63591652e-13 0.00000000e+00 7.08137710e-15
2.50000000e+01 1.62467022e-13 6.41546044e-15 0.00000000e+00 1.56051562e-13 0.00000000e+00 6.41546044e-15
2.75422870e+01 1.41328972e-13 4.79786316e-15 0.00000000e+00 1.36531108e-13 0.00000000e+00 4.79786316e-15
3.16227766e+01 1.15346022e-13 3.16991676e-15 0.00000000e+00 1.12176105e-13 0.00000000e+00 3.16991676e-15
3.63078055e+01 9.12471331e-14 2.09434323e-15 0.00000000e+00 8.91527898e-14 0.00000000e+00 2.09434323e-15
4.16869383e+01 6.84654276e-14 1.38371885e-15 0.00000000e+00 6.70817087e-14 0.00000000e+00 1.38371885e-15
4.78630092e+01 4.85683561e-14 9.14213979e-16 0.00000000e+00 4.76541421e-14 0.00000000e+00 9.14213979e-16
5.49540874e+01 3.28301679e-14 6.04015186e-16 0.00000000e+00 3.22261527e-14 0.00000000e+00 6.04015186e-16
6.30957344e+01 2.13311512e-14 3.99068876e-16 0.00000000e+00 2.09320823e-14 0.00000000e+00 3.99068876e-16
7.24435960e+01 1.33990423e-14 2.63662192e-16 0.00000000e+00 1.31353801e-14 0.00000000e+00 2.63662192e-16
8.31763771e+01 8.18992821e-15 1.74199882e-16 0.00000000e+00 8.01572833e-15 0.00000000e+00 1.74199882e-16
9.54992586e+01 4.89812629e-15 1.15092721e-16 0.00000000e+00 4.78303356e-15 0.00000000e+00 1.15092721e-16
1.09647820e+02 2.87577718e-15 7.60410067e-17 0.00000000e+00 2.79973618e-15 0.00000000e+00 7.60410067e-17
1.25892541e+02 1.68039173e-15 5.02397949e-17 0.00000000e+00 1.63015193e-15 0.00000000e+00 5.02397949e-17
1.44543977e+02 9.71792125e-16 3.31931033e-17 0.00000000e+00 9.38599022e-16 0.00000000e+00 3.31931033e-17
1.65958691e+02 5.33856884e-16 2.19304659e-17 0.00000000e+00 5.11926418e-16 0.00000000e+00 2.19304659e-17
1.90546072e+02 2.92578309e-16 1.44893151e-17 0.00000000e+00 2.78088994e-16 0.00000000e+00 1.44893151e-17
2.18776162e+02 1.59698783e-16 9.57299556e-18 0.00000000e+00 1.50125788e-16 0.00000000e+00 9.57299556e-18
2.51188643e+02 8.67515080e-17 6.32481544e-18 0.00000000e+00 8.04266926e-17 0.00000000e+00 6.32481544e-18
2.88403150e+02 4.69035733e-17 4.17876412e-18 0.00000000e+00 4.27248092e-17 0.00000000e+00 4.17876412e-18
3.31131121e+02 2.53197863e-17 2.76088208e-18 0.00000000e+00 2.25589042e-17 0.00000000e+00 2.76088208e-18
3.80189396e+02 1.36549483e-17 1.82409670e-18 0.00000000e+00 1.18308516e-17 0.00000000e+00 1.82409670e-18
4.36515832e+02 7.37848675e-18 1.20516874e-18 0.00000000e+00 6.17331801e-18 0.00000000e+00 1.20516874e-18
5.01187234e+02 4.00145189e-18 7.96247089e-19 0.00000000e+00 3.20520480e-18 0.00000000e+00 7.96247089e-19
5.75439937e+02 2.18326698e-18 5.26075235e-19 0.00000000e+00 1.65719174e-18 0.00000000e+00 5.26075235e-19
6.60693448e+02 1.20128947e-18 3.47574461e-19 0.00000000e+00 8.53715008e-19 0.00000000e+00 3.47574461e-19
7.58577575e+02 6.68049013e-19 2.29640169e-19 0.00000000e+00 4.38408845e-19 0.00000000e+00 2.29640169e-19
8.70963590e+02 3.76184980e-19 1.51721755e-19 0.00000000e+00 2.24463225e-19 0.00000000e+00 1.51721755e-19
1.00000000e+03 1.14611729e-19 0.00000000e+00 0.00000000e+00 1.14611729e-19 0.00000000e+00 0.00000000e+00
