# column 1: lambda (micron)
# column 2: total flux; lambda*F_lambda (W/m2)
# column 3: direct stellar flux; lambda*F_lambda (W/m2)
# column 4: scattered stellar flux; lambda*F_lambda (W/m2)
# column 5: total dust emission flux; lambda*F_lambda (W/m2)
# column 6: dust emission scattered flux; lambda*F_lambda (W/m2)
# column 7: transparent flux; lambda*F_lambda (W/m2)
1.00000000e-03 5.25611495e-13 5.25611002e-13 4.93076433e-19 0.00000000e+00 0.00000000e+00 5.25636674e-13
1.14815362e-03 6.20380608e-13 6.20379781e-13 8.27215566e-19 0.00000000e+00 0.00000000e+00 6.20419813e-13
1.31825674e-03 7.32235612e-13 7.32234233e-13 1.37933782e-18 0.00000000e+00 0.00000000e+00 7.32294308e-13
1.51356125e-03 8.64260441e-13 8.64258486e-13 1.95517918e-18 0.00000000e+00 0.00000000e+00 8.64342083e-13
1.73780083e-03 1.02010486e-12 1.02010111e-12 3.75401258e-18 0.00000000e+00 0.00000000e+00 1.02020080e-12
1.99526231e-03 1.20401450e-12 1.20400805e-12 6.44995816e-18 0.00000000e+00 0.00000000e+00 1.20416405e-12
2.29086765e-03 1.42111461e-12 1.42110442e-12 1.01893964e-17 0.00000000e+00 0.00000000e+00 1.42129968e-12
2.63026799e-03 1.67733424e-12 1.67731316e-12 2.10818185e-17 0.00000000e+00 0.00000000e+00 1.67758934e-12
3.01995172e-03 1.97972455e-12 1.97969015e-12 3.43988026e-17 0.00000000e+00 0.00000000e+00 1.98009332e-12
3.46736850e-03 2.33664054e-12 2.33658413e-12 5.64076158e-17 0.00000000e+00 0.00000000e+00 2.33714500e-12
3.98107171e-03 2.75791291e-12 2.75782271e-12 9.01977966e-17 0.00000000e+00 0.00000000e+00 2.75858048e-12
4.57088190e-03 3.25562122e-12 3.25541282e-12 2.08394321e-16 0.00000000e+00 0.00000000e+00 3.25600946e-12
5.24807460e-03 3.84258883e-12 3.84223572e-12 3.53116181e-16 0.00000000e+00 0.00000000e+00 3.84313516e-12
6.02559586e-03 4.53551368e-12 4.53485171e-12 6.61975688e-16 0.00000000e+00 0.00000000e+00 4.53613173e-12
6.91830971e-03 5.35347437e-12 5.35234622e-12 1.12815076e-15 0.00000000e+00 0.00000000e+00 5.35408989e-12
7.94328235e-03 6.31917696e-12 6.31724669e-12 1.93026613e-15 0.00000000e+00 0.00000000e+00 6.31954278e-12
9.12010839e-03 7.45895905e-12 7.45607939e-12 2.87965570e-15 0.00000000e+00 0.00000000e+00 7.45908676e-12
1.04712855e-02 8.33159701e-12 8.32720721e-12 4.38980011e-15 0.00000000e+00 0.00000000e+00 8.33078048e-12
1.20226443e-02 8.34308002e-12 8.32699637e-12 1.60836421e-14 0.00000000e+00 0.00000000e+00 8.33078048e-12
1.38038426e-02 8.33495372e-12 8.32674630e-12 8.20741949e-15 7.48087716e-291 1.13964616e-292 8.33078048e-12
1.58489319e-02 8.33845283e-12 8.32643899e-12 1.20138375e-14 5.85238866e-254 9.06877218e-256 8.33078048e-12
1.81970086e-02 8.34295486e-12 8.32615557e-12 1.67992921e-14 7.58018995e-222 1.62282995e-223 8.33078048e-12
2.08929613e-02 8.35027135e-12 8.32591999e-12 2.43513652e-14 6.29177538e-194 1.47414324e-195 8.33078048e-12
2.39883292e-02 8.35661671e-12 8.32561476e-12 3.10019433e-14 1.26709118e-169 3.67942099e-171 8.33078048e-12
2.75422870e-02 8.36270117e-12 8.32525975e-12 3.74414253e-14 1.80308335e-148 6.40216233e-150 8.33078048e-12
3.16227766e-02 8.37488284e-12 8.32491177e-12 4.99710707e-14 4.50562252e-130 1.92454171e-131 8.33078048e-12
3.63078055e-02 8.38228928e-12 8.32463884e-12 5.76504340e-14 4.46801400e-114 2.12719824e-115 8.33078048e-12
4.16869383e-02 8.39582496e-12 8.32440279e-12 7.14221706e-14 3.63207313e-100 2.22978111e-101 8.33078048e-12
4.78630092e-02 8.41919850e-12 8.32375215e-12 9.54463474e-14 4.47383857e-88 3.54959362e-89 8.33078048e-12
5.49540874e-02 8.43605402e-12 8.32284740e-12 1.13206625e-13 1.42680177e-77 1.37028819e-78 8.33078048e-12
6.30957344e-02 8.43843992e-12 8.32057916e-12 1.17860754e-13 2.50461939e-68 2.89333208e-69 8.33078048e-12
7.24435960e-02 8.43236243e-12 8.31789321e-12 1.14469226e-13 2.59627300e-60 3.04746701e-61 8.33078048e-12
8.31763771e-02 8.42554219e-12 8.31813218e-12 1.07410008e-13 1.85510561e-53 2.17352942e-54 8.33078048e-12
9.54992586e-02 8.43241351e-12 8.31883312e-12 1.13580385e-13 1.60096871e-47 1.94449111e-48 8.33078048e-12
1.09647820e-01 8.06238804e-12 7.94635701e-12 1.16031023e-13 2.04174795e-42 2.59379814e-43 7.95583672e-12
1.25892541e-01 7.52627654e-12 7.41753565e-12 1.08740888e-13 5.29185747e-38 6.49844090e-39 7.42481883e-12
1.44543977e-01 7.01670657e-12 6.92360987e-12 9.30966951e-14 3.35833025e-34 3.96849998e-35 6.92924411e-12
1.65958691e-01 6.56219148e-12 6.46214809e-12 1.00043389e-13 5.01893853e-31 6.54157309e-32 6.46674687e-12
1.90546072e-01 6.13880900e-12 6.03054070e-12 1.08268296e-13 2.08235211e-28 3.29450263e-29 6.03511933e-12
2.18776162e-01 5.72956694e-12 5.62728902e-12 1.02277919e-13 3.37384600e-26 5.96972639e-27 5.63230107e-12
2.51188643e-01 5.36361481e-12 5.25262806e-12 1.10986749e-13 4.32037021e-24 9.05167164e-25 5.25636919e-12
2.88403150e-01 5.00614995e-12 4.90263026e-12 1.03519686e-13 2.82747924e-22 5.83811355e-23 4.90552916e-12
3.31131121e-01 4.66946339e-12 4.57574773e-12 9.37156459e-14 1.00895907e-20 2.05804301e-21 4.57810618e-12
3.80189396e-01 4.35305302e-12 4.27060438e-12 8.24484267e-14 2.13389037e-19 4.31989621e-20 4.27253728e-12
4.36515832e-01 4.06045096e-12 3.98579380e-12 7.46542826e-14 2.87974338e-18 5.88311562e-19 3.98736380e-12
5.01187234e-01 3.78499749e-12 3.71996644e-12 6.50049263e-14 2.61307155e-17 5.36029776e-18 3.72122441e-12
5.75439937e-01 3.53377222e-12 3.47185112e-12 6.17522923e-14 1.68807497e-16 3.44237673e-17 3.47284869e-12
6.60693448e-01 3.29732394e-12 3.24026674e-12 5.62416195e-14 8.15575298e-16 1.66009161e-16 3.24105097e-12
7.58577575e-01 3.07816102e-12 3.02411574e-12 5.09544970e-14 3.09078337e-15 6.18268756e-16 3.02472476e-12
8.70963590e-01 2.87699028e-12 2.82237491e-12 4.50624937e-14 9.55287445e-15 1.82904382e-15 2.82283739e-12
1.00000000e+00 2.69625264e-12 2.63407961e-12 3.76075478e-14 2.45654803e-14 4.39539628e-15 2.63442513e-12
1.14815362e+00 2.54576416e-12 2.45833502e-12 3.21192935e-14 5.53098389e-14 8.93039547e-15 2.45858859e-12
1.31825674e+00 2.43202524e-12 2.29430553e-12 2.69119753e-14 1.10807736e-13 1.57384870e-14 2.29448837e-12
1.51356125e+00 2.35999668e-12 2.14121063e-12 2.04804101e-14 1.98305644e-13 2.40327423e-14 2.14134114e-12
1.73780083e+00 2.32990331e-12 1.99832418e-12 1.60835854e-14 3.15495546e-13 3.12158483e-14 1.99841583e-12
1.99526231e+00 2.32750759e-12 1.86496682e-12 1.22619162e-14 4.50278848e-13 3.48025283e-14 1.86503017e-12
2.29086765e+00 2.33392177e-12 1.74050378e-12 8.57256364e-15 5.84845432e-13 3.37945301e-14 1.74054743e-12
2.63026799e+00 2.33092766e-12 1.62434301e-12 6.18573891e-15 7.00398906e-13 2.96365046e-14 1.62437337e-12
3.01995172e+00 2.30890117e-12 1.51593205e-12 4.20516232e-15 7.88763954e-13 2.37389404e-14 1.51595343e-12
3.46736850e+00 2.26505241e-12 1.41475475e-12 2.79494594e-15 8.47502714e-13 1.81692243e-14 1.41477006e-12
3.98107171e+00 2.19174458e-12 1.32032914e-12 1.92040149e-15 8.69495032e-13 1.29627315e-14 1.32034025e-12
4.57088190e+00 2.10055768e-12 1.23220505e-12 1.15865851e-15 8.67193971e-13 8.76756006e-15 1.23221321e-12
5.24807460e+00 1.86331833e-12 1.01884604e-12 6.49339082e-16 8.43822948e-13 5.57323131e-15 1.01885146e-12
6.02559586e+00 1.48569203e-12 6.73145510e-13 2.73184718e-16 8.12273339e-13 3.43136147e-15 6.73148485e-13
6.70000000e+00 1.27021654e-12 4.89648880e-13 1.35268889e-16 7.80432392e-13 2.26488590e-15 4.89650796e-13
6.92422916e+00 1.21398271e-12 4.43603470e-13 1.09567371e-16 7.70269668e-13 1.97797797e-15 4.43605145e-13
7.15596261e+00 1.16682460e-12 4.01888032e-13 8.53464322e-17 7.64851221e-13 1.70002208e-15 4.01889522e-13
7.39545150e+00 1.13870798e-12 3.64095360e-13 6.60820098e-17 7.74546536e-13 1.46623856e-15 3.64096743e-13
7.64295536e+00 1.15655722e-12 3.29856483e-13 4.73556055e-17 8.26653386e-13 1.24066506e-15 3.29857910e-13
7.89874245e+00 1.24516161e-12 2.98837149e-13 2.93839964e-17 9.46295077e-13 1.03099061e-15 2.98838820e-13
8.16308998e+00 1.39539149e-12 2.70734650e-13 1.85656455e-17 1.12463828e-12 8.45205994e-16 2.70736695e-13
8.43628443e+00 1.61714282e-12 2.45274656e-13 1.05168834e-17 1.37185765e-12 6.63897399e-16 2.45277229e-13
8.71862190e+00 1.78337638e-12 2.22209051e-13 6.60238351e-18 1.56116073e-12 5.20696440e-16 2.22211915e-13
9.01040836e+00 1.96164917e-12 2.01312466e-13 4.04828897e-18 1.76033265e-12 3.83186445e-16 2.01315610e-13
9.31196005e+00 2.11246184e-12 1.82381043e-13 0.00000000e+00 1.93008080e-12 0.00000000e+00 1.82384346e-13
9.62360379e+00 2.10750052e-12 1.65230264e-13 0.00000000e+00 1.94227025e-12 0.00000000e+00 1.65233336e-13
9.94567731e+00 1.99128013e-12 1.49692556e-13 0.00000000e+00 1.84158758e-12 0.00000000e+00 1.49695167e-13
1.02785297e+01 1.84414601e-12 1.35616033e-13 0.00000000e+00 1.70852998e-12 0.00000000e+00 1.35618173e-13
1.06225216e+01 1.70258131e-12 1.22863212e-13 0.00000000e+00 1.57971810e-12 0.00000000e+00 1.22864947e-13
1.09780260e+01 1.53526193e-12 1.11309650e-13 0.00000000e+00 1.42395228e-12 0.00000000e+00 1.11311006e-13
1.13454280e+01 1.40129824e-12 1.00842507e-13 0.00000000e+00 1.30045574e-12 0.00000000e+00 1.00843571e-13
1.17251259e+01 1.27584324e-12 9.13596302e-14 0.00000000e+00 1.18448361e-12 0.00000000e+00 9.13604705e-14
1.21175312e+01 1.16820387e-12 8.27684787e-14 0.00000000e+00 1.08543539e-12 0.00000000e+00 8.27691389e-14
1.25230691e+01 1.07157666e-12 7.49851994e-14 0.00000000e+00 9.96591463e-13 0.00000000e+00 7.49857166e-14
1.29421791e+01 9.85721836e-13 6.79338217e-14 0.00000000e+00 9.17788015e-13 0.00000000e+00 6.79342298e-14
1.33753155e+01 9.14637116e-13 6.15455245e-14 0.00000000e+00 8.53091591e-13 0.00000000e+00 6.15458488e-14
1.38229477e+01 8.70837319e-13 5.57579470e-14 0.00000000e+00 8.15079372e-13 0.00000000e+00 5.57582167e-14
1.42855609e+01 8.48514036e-13 5.05146060e-14 0.00000000e+00 7.97999430e-13 0.00000000e+00 5.05148403e-14
1.47636563e+01 8.65746903e-13 4.57643168e-14 0.00000000e+00 8.19982586e-13 0.00000000e+00 4.57645392e-14
1.52577522e+01 8.95381953e-13 4.14607308e-14 0.00000000e+00 8.53921222e-13 0.00000000e+00 4.14609457e-14
1.57683840e+01 9.32527181e-13 3.75618420e-14 0.00000000e+00 8.94965339e-13 0.00000000e+00 3.75620523e-14
1.62961051e+01 9.72179165e-13 3.40295965e-14 0.00000000e+00 9.38149568e-13 0.00000000e+00 3.40298020e-14
1.68414875e+01 1.01958382e-12 3.08295161e-14 0.00000000e+00 9.88754309e-13 0.00000000e+00 3.08297166e-14
1.74051222e+01 1.04865419e-12 2.79303695e-14 0.00000000e+00 1.02072382e-12 0.00000000e+00 2.79305599e-14
1.79876201e+01 1.06917785e-12 2.53038556e-14 0.00000000e+00 1.04387399e-12 0.00000000e+00 2.53040334e-14
1.85896125e+01 1.07343528e-12 2.29243386e-14 0.00000000e+00 1.05051094e-12 0.00000000e+00 2.29244994e-14
1.92117518e+01 1.05936923e-12 2.07685902e-14 0.00000000e+00 1.03860064e-12 0.00000000e+00 2.07687314e-14
1.98547123e+01 1.03904877e-12 1.88155653e-14 0.00000000e+00 1.02023321e-12 0.00000000e+00 1.88156870e-14
2.05191907e+01 1.01366456e-12 1.70461987e-14 0.00000000e+00 9.96618357e-13 0.00000000e+00 1.70463024e-14
2.12059073e+01 9.87147110e-13 1.54432184e-14 0.00000000e+00 9.71703891e-13 0.00000000e+00 1.54433068e-14
2.19156062e+01 9.66504249e-13 1.39909775e-14 0.00000000e+00 9.52513272e-13 0.00000000e+00 1.39910532e-14
2.26490567e+01 9.44745313e-13 1.26753013e-14 0.00000000e+00 9.32070012e-13 0.00000000e+00 1.26753663e-14
2.34070535e+01 9.28436343e-13 1.14833477e-14 0.00000000e+00 9.16952996e-13 0.00000000e+00 1.14834036e-14
2.41904183e+01 9.08018986e-13 1.04034822e-14 0.00000000e+00 8.97615504e-13 0.00000000e+00 1.04035303e-14
2.50000000e+01 8.91604110e-13 9.42516436e-15 0.00000000e+00 8.82178946e-13 0.00000000e+00 9.42520591e-15
2.75422870e+01 8.38095158e-13 7.04870286e-15 0.00000000e+00 8.31046455e-13 0.00000000e+00 7.04872996e-15
3.16227766e+01 7.49075495e-13 4.65703481e-15 0.00000000e+00 7.44418460e-13 0.00000000e+00 4.65704970e-15
3.63078055e+01 6.36670790e-13 3.07687409e-15 0.00000000e+00 6.33593916e-13 0.00000000e+00 3.07688223e-15
4.16869383e+01 5.06947686e-13 2.03287160e-15 0.00000000e+00 5.04914814e-13 0.00000000e+00 2.03287593e-15
4.78630092e+01 3.76546263e-13 1.34310557e-15 0.00000000e+00 3.75203158e-13 0.00000000e+00 1.34310781e-15
5.49540874e+01 2.62953824e-13 8.87381401e-16 0.00000000e+00 2.62066443e-13 0.00000000e+00 8.87382527e-16
6.30957344e+01 1.74324540e-13 5.86287260e-16 0.00000000e+00 1.73738253e-13 0.00000000e+00 5.86287821e-16
7.24435960e+01 1.10568171e-13 3.87356245e-16 0.00000000e+00 1.10180814e-13 0.00000000e+00 3.87356522e-16
8.31763771e+01 6.76310797e-14 2.55923779e-16 0.00000000e+00 6.73751559e-14 0.00000000e+00 2.55923916e-16
9.54992586e+01 4.02461347e-14 1.69087187e-16 0.00000000e+00 4.00770475e-14 0.00000000e+00 1.69087255e-16
1.09647820e+02 2.34101216e-14 1.11714808e-16 0.00000000e+00 2.32984068e-14 0.00000000e+00 1.11714841e-16
1.25892541e+02 1.35168095e-14 7.38092467e-17 0.00000000e+00 1.34430002e-14 0.00000000e+00 7.38092637e-17
1.44543977e+02 7.71082103e-15 4.87652883e-17 0.00000000e+00 7.66205574e-15 0.00000000e+00 4.87652969e-17
1.65958691e+02 4.17653906e-15 3.22189079e-17 0.00000000e+00 4.14432015e-15 0.00000000e+00 3.22189122e-17
1.90546072e+02 2.25348722e-15 2.12868221e-17 0.00000000e+00 2.23220040e-15 0.00000000e+00 2.12868242e-17
2.18776162e+02 1.20922611e-15 1.40640642e-17 0.00000000e+00 1.19516205e-15 0.00000000e+00 1.40640653e-17
2.51188643e+02 6.44729585e-16 9.29203525e-18 0.00000000e+00 6.35437549e-16 0.00000000e+00 9.29203577e-18
2.88403150e+02 3.41388865e-16 6.13918689e-18 0.00000000e+00 3.35249678e-16 0.00000000e+00 6.13918715e-18
3.31131121e+02 1.79983280e-16 4.05612060e-18 0.00000000e+00 1.75927160e-16 0.00000000e+00 4.05612073e-18
3.80189396e+02 9.44373731e-17 2.67985232e-18 0.00000000e+00 9.17575207e-17 0.00000000e+00 2.67985239e-18
4.36515832e+02 4.94169165e-17 1.77056088e-18 0.00000000e+00 4.76463556e-17 0.00000000e+00 1.77056092e-18
5.01187234e+02 2.58018160e-17 1.16979798e-18 0.00000000e+00 2.46320180e-17 0.00000000e+00 1.16979800e-18
5.75439937e+02 1.34605387e-17 7.72877863e-19 0.00000000e+00 1.26876609e-17 0.00000000e+00 7.72877871e-19
6.60693448e+02 7.02517149e-18 5.10635342e-19 0.00000000e+00 6.51453615e-18 0.00000000e+00 5.10635346e-19
7.58577575e+02 3.67308185e-18 3.37373425e-19 0.00000000e+00 3.33570842e-18 0.00000000e+00 3.37373427e-19
8.70963590e+02 1.92643180e-18 2.22900412e-19 0.00000000e+00 1.70353139e-18 0.00000000e+00 2.22900413e-19
1.00000000e+03 8.67901987e-19 0.00000000e+00 0.00000000e+00 8.67901987e-19 0.00000000e+00 0.00000000e+00
