# column 1: lambda (micron)
# column 2: total flux; lambda*F_lambda (W/m2)
# column 3: direct stellar flux; lambda*F_lambda (W/m2)
# column 4: scattered stellar flux; lambda*F_lambda (W/m2)
# column 5: total dust emission flux; lambda*F_lambda (W/m2)
# column 6: dust emission scattered flux; lambda*F_lambda (W/m2)
# column 7: transparent flux; lambda*F_lambda (W/m2)
1.00000000e-03 9.68073354e-13 9.68073281e-13 7.31502185e-20 0.00000000e+00 0.00000000e+00 9.68073281e-13
1.14815362e-03 1.14263698e-12 1.14263687e-12 1.11527872e-19 0.00000000e+00 0.00000000e+00 1.14263687e-12
1.31825674e-03 1.34867806e-12 1.34867788e-12 1.85734471e-19 0.00000000e+00 0.00000000e+00 1.34867788e-12
1.51356125e-03 1.59187261e-12 1.59187233e-12 2.83672976e-19 0.00000000e+00 0.00000000e+00 1.59187233e-12
1.73780083e-03 1.87892026e-12 1.87891976e-12 5.04699629e-19 0.00000000e+00 0.00000000e+00 1.87891976e-12
1.99526231e-03 2.21772866e-12 2.21772777e-12 8.94636679e-19 0.00000000e+00 0.00000000e+00 2.21772777e-12
2.29086765e-03 2.61763122e-12 2.61762985e-12 1.36973532e-18 0.00000000e+00 0.00000000e+00 2.61762985e-12
2.63026799e-03 3.08964551e-12 3.08964252e-12 2.98735857e-18 0.00000000e+00 0.00000000e+00 3.08964252e-12
3.01995172e-03 3.64677371e-12 3.64676883e-12 4.88749132e-18 0.00000000e+00 0.00000000e+00 3.64676883e-12
3.46736850e-03 4.30436445e-12 4.30435650e-12 7.94720268e-18 0.00000000e+00 0.00000000e+00 4.30435650e-12
3.98107171e-03 5.08053437e-12 5.08052080e-12 1.35663611e-17 0.00000000e+00 0.00000000e+00 5.08052080e-12
4.57088190e-03 5.99667192e-12 5.99664354e-12 2.83789190e-17 0.00000000e+00 0.00000000e+00 5.99664354e-12
5.24807460e-03 7.07801560e-12 7.07796211e-12 5.34821385e-17 0.00000000e+00 0.00000000e+00 7.07796211e-12
6.02559586e-03 8.35436499e-12 8.35426474e-12 1.00248836e-16 0.00000000e+00 0.00000000e+00 8.35426474e-12
6.91830971e-03 9.86086541e-12 9.86071107e-12 1.54337477e-16 0.00000000e+00 0.00000000e+00 9.86071107e-12
7.94328235e-03 1.16390640e-11 1.16388008e-11 2.63267214e-16 0.00000000e+00 0.00000000e+00 1.16388008e-11
9.12010839e-03 1.37379487e-11 1.37375167e-11 4.31997419e-16 0.00000000e+00 0.00000000e+00 1.37375167e-11
1.04712855e-02 1.53435058e-11 1.53429287e-11 5.77141076e-16 0.00000000e+00 0.00000000e+00 1.53429287e-11
1.20226443e-02 1.53437909e-11 1.53429287e-11 8.62230557e-16 0.00000000e+00 0.00000000e+00 1.53429287e-11
1.38038426e-02 1.53441493e-11 1.53429287e-11 1.22065297e-15 2.54436333e-290 8.30190324e-293 1.53429287e-11
1.58489319e-02 1.53448371e-11 1.53429287e-11 1.90841916e-15 1.48960724e-253 9.17662897e-256 1.53429287e-11
1.81970086e-02 1.53458078e-11 1.53429287e-11 2.87913652e-15 1.49260468e-221 8.72001774e-224 1.53429287e-11
2.08929613e-02 1.53472829e-11 1.53429287e-11 4.35427592e-15 9.99179839e-194 7.65499226e-196 1.53429287e-11
2.39883292e-02 1.53472296e-11 1.53429287e-11 4.30091251e-15 1.66642579e-169 1.77788277e-171 1.53429287e-11
2.75422870e-02 1.53488839e-11 1.53429287e-11 5.95518832e-15 2.00661384e-148 2.69229228e-150 1.53429287e-11
3.16227766e-02 1.53510672e-11 1.53429287e-11 8.13853439e-15 4.31358993e-130 6.96552007e-132 1.53429287e-11
3.63078055e-02 1.53519687e-11 1.53429287e-11 9.03999912e-15 3.73138898e-114 6.95731872e-116 1.53429287e-11
4.16869383e-02 1.53560368e-11 1.53429287e-11 1.31081303e-14 2.65401424e-100 6.66830476e-102 1.53429287e-11
4.78630092e-02 1.53616841e-11 1.53429287e-11 1.87554158e-14 2.87074012e-88 9.67514959e-90 1.53429287e-11
5.49540874e-02 1.53681050e-11 1.53429287e-11 2.51762900e-14 8.09278903e-78 3.46710678e-79 1.53429287e-11
6.30957344e-02 1.53763825e-11 1.53429287e-11 3.34538459e-14 1.26727263e-68 7.02969295e-70 1.53429287e-11
7.24435960e-02 1.53766720e-11 1.53429287e-11 3.37433794e-14 1.18796301e-60 6.88862567e-62 1.53429287e-11
8.31763771e-02 1.53760933e-11 1.53429287e-11 3.31646270e-14 7.56516318e-54 4.32325203e-55 1.53429287e-11
9.54992586e-02 1.53785376e-11 1.53429287e-11 3.56089844e-14 5.79353623e-48 3.45372681e-49 1.53429287e-11
1.09647820e-01 1.46886434e-11 1.46523889e-11 3.62544910e-14 6.46365678e-43 3.91166239e-44 1.46523889e-11
1.25892541e-01 1.37024136e-11 1.36744049e-11 2.80086375e-14 1.46227411e-38 7.85231303e-40 1.36744049e-11
1.44543977e-01 1.27880726e-11 1.27616972e-11 2.63753768e-14 8.06733989e-35 4.01863487e-36 1.27616972e-11
1.65958691e-01 1.19368881e-11 1.19099088e-11 2.69792612e-14 1.02983034e-31 5.53846988e-33 1.19099088e-11
1.90546072e-01 1.11477847e-11 1.11149736e-11 3.28110296e-14 3.63933049e-29 2.43470183e-30 1.11149736e-11
2.18776162e-01 1.04067363e-11 1.03730969e-11 3.36393195e-14 5.10865219e-27 3.87783849e-28 1.03730969e-11
2.51188643e-01 9.71990197e-12 9.68073733e-12 3.91646331e-14 5.45865846e-25 4.92114719e-26 9.68073733e-12
2.88403150e-01 9.07014896e-12 9.03458975e-12 3.55592055e-14 3.16359288e-23 2.77175949e-24 9.03458975e-12
3.31131121e-01 8.46160158e-12 8.43156974e-12 3.00318324e-14 1.05268408e-21 9.06869057e-23 8.43156974e-12
3.80189396e-01 7.89626012e-12 7.86879872e-12 2.74613752e-14 2.19818894e-20 1.88492403e-21 7.86879872e-12
4.36515832e-01 7.36802107e-12 7.34359025e-12 2.44305110e-14 3.07196001e-19 2.73793387e-20 7.34359025e-12
5.01187234e-01 6.87663710e-12 6.85343719e-12 2.31969292e-14 2.98898325e-18 2.76538205e-19 6.85343719e-12
5.75439937e-01 6.41693920e-12 6.39599973e-12 2.09183213e-14 2.11461532e-17 2.01921115e-18 6.39599973e-12
6.60693448e-01 5.98933182e-12 5.96909425e-12 2.01250368e-14 1.12524568e-16 1.11693185e-17 5.96909425e-12
7.58577575e-01 5.59031676e-12 5.57068288e-12 1.91609731e-14 4.72898534e-16 4.81979741e-17 5.57068288e-12
8.70963590e-01 5.21738786e-12 5.19886376e-12 1.68979684e-14 1.62613077e-15 1.68196079e-16 5.19886376e-12
1.00000000e+00 4.87160062e-12 4.85186196e-12 1.50778671e-14 4.66078421e-15 4.72126115e-16 4.85186196e-12
1.14815362e+00 4.55235575e-12 4.52802104e-12 1.26276035e-14 1.17071028e-14 1.13164818e-15 4.52802104e-12
1.31825674e+00 4.26226883e-12 4.22579511e-12 1.03086846e-14 2.61650299e-14 2.33774866e-15 4.22579511e-12
1.51356125e+00 4.00396735e-12 3.94374146e-12 8.29307213e-15 5.19328155e-14 4.08178129e-15 3.94374146e-12
1.73780083e+00 3.77768220e-12 3.68051368e-12 6.01520568e-15 9.11533115e-14 6.07278170e-15 3.68051368e-12
1.99526231e+00 3.58161339e-12 3.43485522e-12 4.39684781e-15 1.42361319e-13 7.56914043e-15 3.43485522e-12
2.29086765e+00 3.40830554e-12 3.20559341e-12 3.11327223e-15 1.99598860e-13 8.08032619e-15 3.20559341e-12
2.63026799e+00 3.24894687e-12 2.99163384e-12 2.19567717e-15 2.55117354e-13 7.66290689e-15 2.99163384e-12
3.01995172e+00 3.09357875e-12 2.79195514e-12 1.45379221e-15 3.00169808e-13 6.53662847e-15 2.79195514e-12
3.46736850e+00 2.93547771e-12 2.60560415e-12 9.11595202e-16 3.28961968e-13 5.02176916e-15 2.60560415e-12
3.98107171e+00 2.77115931e-12 2.43169128e-12 6.28301609e-16 3.38839737e-13 3.59878182e-15 2.43169128e-12
4.57088190e+00 2.60047250e-12 2.26938634e-12 3.68539262e-16 3.30717616e-13 2.35538293e-15 2.26938634e-12
5.24807460e+00 2.18596975e-12 1.87643467e-12 1.99940793e-16 3.09335137e-13 1.44346034e-15 1.87643467e-12
6.02559586e+00 1.52218812e-12 1.23974809e-12 8.85445947e-17 2.82351486e-13 8.28498893e-16 1.23974809e-12
6.70000000e+00 1.16055854e-12 9.01797527e-13 4.11512184e-17 2.58719861e-13 5.01467947e-16 9.01797527e-13
6.92422916e+00 1.06803485e-12 8.16994532e-13 3.29325931e-17 2.51007387e-13 4.30766162e-16 8.16994532e-13
7.15596261e+00 9.86284738e-13 7.40166218e-13 2.56101059e-17 2.46092910e-13 3.67908428e-16 7.40166218e-13
7.39545150e+00 9.17971945e-13 6.70562664e-13 1.99410983e-17 2.47389340e-13 3.10161419e-16 6.70562664e-13
7.64295536e+00 8.74875445e-13 6.07504471e-13 1.37835669e-17 2.67357190e-13 2.67003275e-16 6.07504471e-13
7.89874245e+00 8.66991967e-13 5.50376127e-13 9.07023537e-18 3.16606770e-13 2.28577404e-16 5.50376127e-13
8.16308998e+00 8.89095815e-13 4.98620004e-13 5.91939402e-18 3.90469892e-13 1.93626273e-16 4.98620004e-13
8.43628443e+00 9.46300142e-13 4.51730909e-13 3.53080483e-18 4.94565703e-13 1.59863036e-16 4.51730909e-13
8.71862190e+00 9.79965004e-13 4.09251158e-13 2.22871677e-18 5.70711618e-13 1.25454575e-16 4.09251158e-13
9.01040836e+00 1.02150784e-12 3.70766106e-13 1.37776608e-18 6.50740360e-13 9.27916953e-17 3.70766106e-13
9.31196005e+00 1.05326605e-12 3.35900102e-13 0.00000000e+00 7.17365948e-13 0.00000000e+00 3.35900102e-13
9.62360379e+00 1.01885460e-12 3.04312818e-13 0.00000000e+00 7.14541784e-13 0.00000000e+00 3.04312818e-13
9.94567731e+00 9.40314646e-13 2.75695930e-13 0.00000000e+00 6.64618716e-13 0.00000000e+00 2.75695930e-13
1.02785297e+01 8.50581003e-13 2.49770110e-13 0.00000000e+00 6.00810893e-13 0.00000000e+00 2.49770110e-13
1.06225216e+01 7.63907145e-13 2.26282295e-13 0.00000000e+00 5.37624850e-13 0.00000000e+00 2.26282295e-13
1.09780260e+01 6.73854306e-13 2.05003220e-13 0.00000000e+00 4.68851085e-13 0.00000000e+00 2.05003220e-13
1.13454280e+01 5.96313992e-13 1.85725182e-13 0.00000000e+00 4.10588809e-13 0.00000000e+00 1.85725182e-13
1.17251259e+01 5.28788503e-13 1.68260007e-13 0.00000000e+00 3.60528496e-13 0.00000000e+00 1.68260007e-13
1.21175312e+01 4.69135575e-13 1.52437217e-13 0.00000000e+00 3.16698358e-13 0.00000000e+00 1.52437217e-13
1.25230691e+01 4.16166215e-13 1.38102367e-13 0.00000000e+00 2.78063848e-13 0.00000000e+00 1.38102367e-13
1.29421791e+01 3.70630553e-13 1.25115533e-13 0.00000000e+00 2.45515020e-13 0.00000000e+00 1.25115533e-13
1.33753155e+01 3.32056070e-13 1.13349952e-13 0.00000000e+00 2.18706118e-13 0.00000000e+00 1.13349952e-13
1.38229477e+01 3.04245758e-13 1.02690779e-13 0.00000000e+00 2.01554979e-13 0.00000000e+00 1.02690779e-13
1.42855609e+01 2.85059787e-13 9.30339713e-14 0.00000000e+00 1.92025816e-13 0.00000000e+00 9.30339713e-14
1.47636563e+01 2.79596182e-13 8.42852675e-14 0.00000000e+00 1.95310915e-13 0.00000000e+00 8.42852675e-14
1.52577522e+01 2.77710840e-13 7.63592720e-14 0.00000000e+00 2.01351568e-13 0.00000000e+00 7.63592720e-14
1.57683840e+01 2.79020788e-13 6.91786191e-14 0.00000000e+00 2.09842169e-13 0.00000000e+00 6.91786191e-14
1.62961051e+01 2.81230759e-13 6.26732185e-14 0.00000000e+00 2.18557540e-13 0.00000000e+00 6.26732185e-14
1.68414875e+01 2.84442787e-13 5.67795711e-14 0.00000000e+00 2.27663216e-13 0.00000000e+00 5.67795711e-14
1.74051222e+01 2.84408352e-13 5.14401489e-14 0.00000000e+00 2.32968203e-13 0.00000000e+00 5.14401489e-14
1.79876201e+01 2.82421063e-13 4.66028339e-14 0.00000000e+00 2.35818229e-13 0.00000000e+00 4.66028339e-14
1.85896125e+01 2.75306702e-13 4.22204090e-14 0.00000000e+00 2.33086293e-13 0.00000000e+00 4.22204090e-14
1.92117518e+01 2.64235344e-13 3.82500974e-14 0.00000000e+00 2.25985247e-13 0.00000000e+00 3.82500974e-14
1.98547123e+01 2.50715359e-13 3.46531450e-14 0.00000000e+00 2.16062214e-13 0.00000000e+00 3.46531450e-14
2.05191907e+01 2.37501885e-13 3.13944418e-14 0.00000000e+00 2.06107443e-13 0.00000000e+00 3.13944418e-14
2.12059073e+01 2.24966921e-13 2.84421796e-14 0.00000000e+00 1.96524741e-13 0.00000000e+00 2.84421796e-14
2.19156062e+01 2.14187594e-13 2.57675415e-14 0.00000000e+00 1.88420052e-13 0.00000000e+00 2.57675415e-14
2.26490567e+01 2.04321566e-13 2.33444203e-14 0.00000000e+00 1.80977145e-13 0.00000000e+00 2.33444203e-14
2.34070535e+01 1.95344120e-13 2.11491639e-14 0.00000000e+00 1.74194956e-13 0.00000000e+00 2.11491639e-14
2.41904183e+01 1.87192570e-13 1.91603445e-14 0.00000000e+00 1.68032226e-13 0.00000000e+00 1.91603445e-14
2.50000000e+01 1.79845581e-13 1.73585491e-14 0.00000000e+00 1.62487032e-13 0.00000000e+00 1.73585491e-14
2.75422870e+01 1.61055498e-13 1.29817562e-14 0.00000000e+00 1.48073742e-13 0.00000000e+00 1.29817562e-14
3.16227766e+01 1.38293394e-13 8.57696126e-15 0.00000000e+00 1.29716432e-13 0.00000000e+00 8.57696126e-15
3.63078055e+01 1.16265108e-13 5.66674211e-15 0.00000000e+00 1.10598366e-13 0.00000000e+00 5.66674211e-15
4.16869383e+01 9.35927176e-14 3.74397938e-15 0.00000000e+00 8.98487382e-14 0.00000000e+00 3.74397938e-15
4.78630092e+01 7.16293638e-14 2.47362265e-15 0.00000000e+00 6.91557411e-14 0.00000000e+00 2.47362265e-15
5.49540874e+01 5.22378714e-14 1.63430628e-15 0.00000000e+00 5.06035652e-14 0.00000000e+00 1.63430628e-15
6.30957344e+01 3.64271514e-14 1.07977545e-15 0.00000000e+00 3.53473759e-14 0.00000000e+00 1.07977545e-15
7.24435960e+01 2.44068016e-14 7.13400564e-16 0.00000000e+00 2.36934010e-14 0.00000000e+00 7.13400564e-16
8.31763771e+01 1.57855822e-14 4.71339078e-16 0.00000000e+00 1.53142431e-14 0.00000000e+00 4.71339078e-16
9.54992586e+01 9.91093396e-15 3.11410641e-16 0.00000000e+00 9.59952332e-15 0.00000000e+00 3.11410641e-16
1.09647820e+02 6.06415602e-15 2.05746970e-16 0.00000000e+00 5.85840905e-15 0.00000000e+00 2.05746970e-16
1.25892541e+02 3.66584729e-15 1.35935675e-16 0.00000000e+00 3.52991161e-15 0.00000000e+00 1.35935675e-16
1.44543977e+02 2.18109566e-15 8.98118099e-17 0.00000000e+00 2.09128385e-15 0.00000000e+00 8.98118099e-17
1.65958691e+02 1.22967654e-15 5.93380743e-17 0.00000000e+00 1.17033846e-15 0.00000000e+00 5.93380743e-17
1.90546072e+02 6.88559511e-16 3.92042769e-17 0.00000000e+00 6.49355234e-16 0.00000000e+00 3.92042769e-17
2.18776162e+02 3.82647887e-16 2.59020089e-17 0.00000000e+00 3.56745878e-16 0.00000000e+00 2.59020089e-17
2.51188643e+02 2.11051336e-16 1.71132876e-17 0.00000000e+00 1.93938048e-16 0.00000000e+00 1.71132876e-17
2.88403150e+02 1.15600144e-16 1.13066370e-17 0.00000000e+00 1.04293507e-16 0.00000000e+00 1.13066370e-17
3.31131121e+02 6.31079821e-17 7.47022097e-18 0.00000000e+00 5.56377611e-17 0.00000000e+00 7.47022097e-18
3.80189396e+02 3.43699874e-17 4.93552605e-18 0.00000000e+00 2.94344614e-17 0.00000000e+00 4.93552605e-18
4.36515832e+02 1.87329373e-17 3.26086972e-18 0.00000000e+00 1.54720675e-17 0.00000000e+00 3.26086972e-18
5.01187234e+02 1.02378464e-17 2.15443526e-18 0.00000000e+00 8.08341116e-18 0.00000000e+00 2.15443526e-18
5.75439937e+02 5.62501000e-18 1.42342126e-18 0.00000000e+00 4.20158874e-18 0.00000000e+00 1.42342126e-18
6.60693448e+02 3.11473687e-18 9.40445101e-19 0.00000000e+00 2.17429177e-18 0.00000000e+00 9.40445101e-19
7.58577575e+02 1.74222743e-18 6.21345916e-19 0.00000000e+00 1.12088152e-18 0.00000000e+00 6.21345916e-19
8.70963590e+02 9.86302789e-19 4.10519176e-19 0.00000000e+00 5.75783613e-19 0.00000000e+00 4.10519176e-19
1.00000000e+03 2.94830119e-19 0.00000000e+00 0.00000000e+00 2.94830119e-19 0.00000000e+00 0.00000000e+00
