# column 1: lambda (micron)
# column 2: total flux; lambda*F_lambda (W/m2)
# column 3: direct stellar flux; lambda*F_lambda (W/m2)
# column 4: scattered stellar flux; lambda*F_lambda (W/m2)
# column 5: total dust emission flux; lambda*F_lambda (W/m2)
# column 6: dust emission scattered flux; lambda*F_lambda (W/m2)
# column 7: transparent flux; lambda*F_lambda (W/m2)
1.00000000e-03 5.25512053e-13 5.25511951e-13 1.02357157e-19 0.00000000e+00 0.00000000e+00 5.25636674e-13
1.14815362e-03 6.20225476e-13 6.20225329e-13 1.47310855e-19 0.00000000e+00 0.00000000e+00 6.20419813e-13
1.31825674e-03 7.32002712e-13 7.32002462e-13 2.50061397e-19 0.00000000e+00 0.00000000e+00 7.32294308e-13
1.51356125e-03 8.63936377e-13 8.63935976e-13 4.00802297e-19 0.00000000e+00 0.00000000e+00 8.64342083e-13
1.73780083e-03 1.01971716e-12 1.01971651e-12 6.51620730e-19 0.00000000e+00 0.00000000e+00 1.02020080e-12
1.99526231e-03 1.20340747e-12 1.20340625e-12 1.22217811e-18 0.00000000e+00 0.00000000e+00 1.20416405e-12
2.29086765e-03 1.42035304e-12 1.42035120e-12 1.84159302e-18 0.00000000e+00 0.00000000e+00 1.42129968e-12
2.63026799e-03 1.67625186e-12 1.67624785e-12 4.00449724e-18 0.00000000e+00 0.00000000e+00 1.67758934e-12
3.01995172e-03 1.97814264e-12 1.97813520e-12 7.43944104e-18 0.00000000e+00 0.00000000e+00 1.98009332e-12
3.46736850e-03 2.33443228e-12 2.33442109e-12 1.11869509e-17 0.00000000e+00 0.00000000e+00 2.33714500e-12
3.98107171e-03 2.75492033e-12 2.75490059e-12 1.97345489e-17 0.00000000e+00 0.00000000e+00 2.75858048e-12
4.57088190e-03 3.25315113e-12 3.25311154e-12 3.95887481e-17 0.00000000e+00 0.00000000e+00 3.25600946e-12
5.24807460e-03 3.83883307e-12 3.83876693e-12 6.61350709e-17 0.00000000e+00 0.00000000e+00 3.84313516e-12
6.02559586e-03 4.53004503e-12 4.52991574e-12 1.29299257e-16 0.00000000e+00 0.00000000e+00 4.53613173e-12
6.91830971e-03 5.34584390e-12 5.34562306e-12 2.20837754e-16 0.00000000e+00 0.00000000e+00 5.35408989e-12
7.94328235e-03 6.30893231e-12 6.30839436e-12 5.37954380e-16 1.34182933e-303 3.02360301e-306 6.31954278e-12
9.12010839e-03 7.45080972e-12 7.44448597e-12 6.32375263e-15 5.85573606e-265 1.34471347e-267 7.45908676e-12
1.04712855e-02 8.31663305e-12 8.31343310e-12 3.19995830e-15 2.46653875e-231 7.42895436e-234 8.33078048e-12
1.20226443e-02 8.31795932e-12 8.31241042e-12 5.54890017e-15 3.85568523e-202 1.90309679e-204 8.33078048e-12
1.38038426e-02 8.31825736e-12 8.31119757e-12 7.05978574e-15 1.04813008e-176 6.52699374e-179 8.33078048e-12
1.58489319e-02 8.31747938e-12 8.30970732e-12 7.77206366e-15 1.41536597e-154 1.13483144e-156 8.33078048e-12
1.81970086e-02 8.31620334e-12 8.30833306e-12 7.87027619e-15 2.52350975e-135 2.71918382e-137 8.33078048e-12
2.08929613e-02 8.31714084e-12 8.30719093e-12 9.94991202e-15 1.31714515e-118 1.76220831e-120 8.33078048e-12
2.39883292e-02 8.31907247e-12 8.30571135e-12 1.33611158e-14 4.62414548e-104 8.03864543e-106 8.33078048e-12
2.75422870e-02 8.31833718e-12 8.30399067e-12 1.43465024e-14 2.07246662e-91 4.65922479e-93 8.33078048e-12
3.16227766e-02 8.31835609e-12 8.30230438e-12 1.60517088e-14 2.02131760e-80 5.33521081e-82 8.33078048e-12
3.63078055e-02 8.32008869e-12 8.30098198e-12 1.91067114e-14 7.00659112e-71 2.03655196e-72 8.33078048e-12
4.16869383e-02 8.32124384e-12 8.29983837e-12 2.14054786e-14 1.33754275e-62 5.13607756e-64 8.33078048e-12
4.78630092e-02 8.32333265e-12 8.29668685e-12 2.66457999e-14 2.02382958e-55 9.41072137e-57 8.33078048e-12
5.49540874e-02 8.32404020e-12 8.29230605e-12 3.17341495e-14 3.36544399e-49 1.79415309e-50 8.33078048e-12
6.30957344e-02 8.32016914e-12 8.28133137e-12 3.88377729e-14 1.08685279e-43 6.48621121e-45 8.33078048e-12
7.24435960e-02 8.30704331e-12 8.26835052e-12 3.86927896e-14 6.27469795e-39 3.56305937e-40 8.33078048e-12
8.31763771e-02 8.30756878e-12 8.26950480e-12 3.80639793e-14 6.40926976e-35 3.49493267e-36 8.33078048e-12
9.54992586e-02 8.31071065e-12 8.27289117e-12 3.78194854e-14 1.80544217e-31 1.02326638e-32 8.33078048e-12
1.09647820e-01 7.94734912e-12 7.90988256e-12 3.74665585e-14 1.53460171e-28 9.50207421e-30 7.95583672e-12
1.25892541e-01 7.42316923e-12 7.38949826e-12 3.36709780e-14 4.96642060e-26 2.98626032e-27 7.42481883e-12
1.44543977e-01 6.92990974e-12 6.90191142e-12 2.79983189e-14 6.74440566e-24 3.80653645e-25 6.92924411e-12
1.65958691e-01 6.47310356e-12 6.44443301e-12 2.86705407e-14 3.41365837e-22 2.09373204e-23 6.46674687e-12
1.90546072e-01 6.04560010e-12 6.01290528e-12 3.26948093e-14 7.18214015e-21 5.11309775e-22 6.03511933e-12
2.18776162e-01 5.63828376e-12 5.60799033e-12 3.02933528e-14 8.49767790e-20 6.29439158e-21 5.63230107e-12
2.51188643e-01 5.27226349e-12 5.23821676e-12 3.40457025e-14 1.02683155e-18 8.82903146e-20 5.25636919e-12
2.88403150e-01 4.92255984e-12 4.89146008e-12 3.10912305e-14 8.53168330e-18 7.12276094e-19 4.90552916e-12
3.31131121e-01 4.59360811e-12 4.56665834e-12 2.69010014e-14 4.87649239e-17 3.87029952e-18 4.57810618e-12
3.80189396e-01 4.28732549e-12 4.26315389e-12 2.39687427e-14 2.02858634e-16 1.54399551e-17 4.27253728e-12
4.36515832e-01 4.00147860e-12 3.97974128e-12 2.10970933e-14 6.40226281e-16 4.71101045e-17 3.98736380e-12
5.01187234e-01 3.73568350e-12 3.71511615e-12 1.89767465e-14 1.59059525e-15 1.10748497e-16 3.72122441e-12
5.75439937e-01 3.48849453e-12 3.46800438e-12 1.72329505e-14 3.25719331e-15 2.18362649e-16 3.47284869e-12
6.60693448e-01 3.25845952e-12 3.23724234e-12 1.55245530e-14 5.69261931e-15 3.72356792e-16 3.24105097e-12
7.58577575e-01 3.04513948e-12 3.02176680e-12 1.45420326e-14 8.83064786e-15 5.40408031e-16 3.02472476e-12
8.70963590e-01 2.84493243e-12 2.82059100e-12 1.17845437e-14 1.25568816e-14 7.30324961e-16 2.82283739e-12
1.00000000e+00 2.65949230e-12 2.63274671e-12 9.99260487e-15 1.67529838e-14 9.22098862e-16 2.63442513e-12
1.14815362e+00 2.48811277e-12 2.45735682e-12 8.58334606e-15 2.21726100e-14 1.12040018e-15 2.45858859e-12
1.31825674e+00 2.33040474e-12 2.29360011e-12 6.47246954e-15 3.03321669e-14 1.40638798e-15 2.29448837e-12
1.51356125e+00 2.18936466e-12 2.14070706e-12 5.28517628e-15 4.33724166e-14 1.90048504e-15 2.14134114e-12
1.73780083e+00 2.06552757e-12 1.99797056e-12 4.23327212e-15 6.33237329e-14 2.56901803e-15 1.99841583e-12
1.99526231e+00 1.95857343e-12 1.86472240e-12 3.07407936e-15 9.07769568e-14 3.24699008e-15 1.86503017e-12
2.29086765e+00 1.86652541e-12 1.74033535e-12 2.27063139e-15 1.23919422e-13 3.68364324e-15 1.74054743e-12
2.63026799e+00 1.78514039e-12 1.62422587e-12 1.56237710e-15 1.59352142e-13 3.86486240e-15 1.62437337e-12
3.01995172e+00 1.70863496e-12 1.51584953e-12 1.09866908e-15 1.91686759e-13 3.64370604e-15 1.51595343e-12
3.46736850e+00 1.63261239e-12 1.41469567e-12 7.48413706e-16 2.17168305e-13 3.09036211e-15 1.41477006e-12
3.98107171e+00 1.55141819e-12 1.32028630e-12 4.51343567e-16 2.30680547e-13 2.40733401e-15 1.32034025e-12
4.57088190e+00 1.46529463e-12 1.23217357e-12 3.03752620e-16 2.32817313e-13 1.70072340e-15 1.23221321e-12
5.24807460e+00 1.24426807e-12 1.01882513e-12 1.54902523e-16 2.25288044e-13 1.11643746e-15 1.01885146e-12
6.02559586e+00 8.84887173e-13 6.73134027e-13 6.90042891e-17 2.11684142e-13 6.85202857e-16 6.73148485e-13
6.70000000e+00 6.87738486e-13 4.89641487e-13 3.54850577e-17 1.98061514e-13 4.39381796e-16 4.89650796e-13
6.92422916e+00 6.36822448e-13 4.43597007e-13 2.85363750e-17 1.93196905e-13 3.78166478e-16 4.43605145e-13
7.15596261e+00 5.92061381e-13 4.01882278e-13 2.25088186e-17 1.90156594e-13 3.24360043e-16 4.01889522e-13
7.39545150e+00 5.55850375e-13 3.64090023e-13 1.65218992e-17 1.91743830e-13 2.77889966e-16 3.64096743e-13
7.64295536e+00 5.35721714e-13 3.29850974e-13 1.19923216e-17 2.05858748e-13 2.34802724e-16 3.29857910e-13
7.89874245e+00 5.38659470e-13 2.98830701e-13 7.98039622e-18 2.39820789e-13 1.98003494e-16 2.98838820e-13
8.16308998e+00 5.61360088e-13 2.70726763e-13 4.83941277e-18 2.90628486e-13 1.62712262e-16 2.70736695e-13
8.43628443e+00 6.07169003e-13 2.45264729e-13 2.60312030e-18 3.61901671e-13 1.30322457e-16 2.45277229e-13
8.71862190e+00 6.37448704e-13 2.22197999e-13 1.82226862e-18 4.15248883e-13 1.01404173e-16 2.22211915e-13
9.01040836e+00 6.70524147e-13 2.01300338e-13 1.11163680e-18 4.69222698e-13 7.15773123e-17 2.01315610e-13
9.31196005e+00 6.98535416e-13 1.82368299e-13 0.00000000e+00 5.16167117e-13 0.00000000e+00 1.82384346e-13
9.62360379e+00 6.79322136e-13 1.65218414e-13 0.00000000e+00 5.14103722e-13 0.00000000e+00 1.65233336e-13
9.94567731e+00 6.30243647e-13 1.49682483e-13 0.00000000e+00 4.80561164e-13 0.00000000e+00 1.49695167e-13
1.02785297e+01 5.74492673e-13 1.35607777e-13 0.00000000e+00 4.38884896e-13 0.00000000e+00 1.35618173e-13
1.06225216e+01 5.17837477e-13 1.22856518e-13 0.00000000e+00 3.94980959e-13 0.00000000e+00 1.22864947e-13
1.09780260e+01 4.60095817e-13 1.11304418e-13 0.00000000e+00 3.48791398e-13 0.00000000e+00 1.11311006e-13
1.13454280e+01 4.09320548e-13 1.00838402e-13 0.00000000e+00 3.08482146e-13 0.00000000e+00 1.00843571e-13
1.17251259e+01 3.65644050e-13 9.13563880e-14 0.00000000e+00 2.74287662e-13 0.00000000e+00 9.13604705e-14
1.21175312e+01 3.26632546e-13 8.27659313e-14 0.00000000e+00 2.43866615e-13 0.00000000e+00 8.27691389e-14
1.25230691e+01 2.91460846e-13 7.49832034e-14 0.00000000e+00 2.16477643e-13 0.00000000e+00 7.49857166e-14
1.29421791e+01 2.60768871e-13 6.79322468e-14 0.00000000e+00 1.92836625e-13 0.00000000e+00 6.79342298e-14
1.33753155e+01 2.35145019e-13 6.15442729e-14 0.00000000e+00 1.73600746e-13 0.00000000e+00 6.15458488e-14
1.38229477e+01 2.16782053e-13 5.57569066e-14 0.00000000e+00 1.61025147e-13 0.00000000e+00 5.57582167e-14
1.42855609e+01 2.04288609e-13 5.05137017e-14 0.00000000e+00 1.53774907e-13 0.00000000e+00 5.05148403e-14
1.47636563e+01 2.01522207e-13 4.57634586e-14 0.00000000e+00 1.55758748e-13 0.00000000e+00 4.57645392e-14
1.52577522e+01 2.00840703e-13 4.14599015e-14 0.00000000e+00 1.59380802e-13 0.00000000e+00 4.14609457e-14
1.57683840e+01 2.02236423e-13 3.75610305e-14 0.00000000e+00 1.64675393e-13 0.00000000e+00 3.75620523e-14
1.62961051e+01 2.04494911e-13 3.40288033e-14 0.00000000e+00 1.70466108e-13 0.00000000e+00 3.40298020e-14
1.68414875e+01 2.07043160e-13 3.08287425e-14 0.00000000e+00 1.76214417e-13 0.00000000e+00 3.08297166e-14
1.74051222e+01 2.06938606e-13 2.79296349e-14 0.00000000e+00 1.79008972e-13 0.00000000e+00 2.79305599e-14
1.79876201e+01 2.04878096e-13 2.53031697e-14 0.00000000e+00 1.79574926e-13 0.00000000e+00 2.53040334e-14
1.85896125e+01 1.99196673e-13 2.29237180e-14 0.00000000e+00 1.76272955e-13 0.00000000e+00 2.29244994e-14
1.92117518e+01 1.91336890e-13 2.07680450e-14 0.00000000e+00 1.70568845e-13 0.00000000e+00 2.07687314e-14
1.98547123e+01 1.81150381e-13 1.88150959e-14 0.00000000e+00 1.62335285e-13 0.00000000e+00 1.88156870e-14
2.05191907e+01 1.71352089e-13 1.70457985e-14 0.00000000e+00 1.54306291e-13 0.00000000e+00 1.70463024e-14
2.12059073e+01 1.61926523e-13 1.54428772e-14 0.00000000e+00 1.46483646e-13 0.00000000e+00 1.54433068e-14
2.19156062e+01 1.53607414e-13 1.39906853e-14 0.00000000e+00 1.39616728e-13 0.00000000e+00 1.39910532e-14
2.26490567e+01 1.45666609e-13 1.26750506e-14 0.00000000e+00 1.32991559e-13 0.00000000e+00 1.26753663e-14
2.34070535e+01 1.38550683e-13 1.14831322e-14 0.00000000e+00 1.27067551e-13 0.00000000e+00 1.14834036e-14
2.41904183e+01 1.31964457e-13 1.04032965e-14 0.00000000e+00 1.21561160e-13 0.00000000e+00 1.04035303e-14
2.50000000e+01 1.25901272e-13 9.42500400e-15 0.00000000e+00 1.16476268e-13 0.00000000e+00 9.42520591e-15
2.75422870e+01 1.09191553e-13 7.04859829e-15 0.00000000e+00 1.02142955e-13 0.00000000e+00 7.04872996e-15
3.16227766e+01 8.83088345e-14 4.65697736e-15 0.00000000e+00 8.36518572e-14 0.00000000e+00 4.65704970e-15
3.63078055e+01 6.87671704e-14 3.07684269e-15 0.00000000e+00 6.56903277e-14 0.00000000e+00 3.07688223e-15
4.16869383e+01 5.05681121e-14 2.03285489e-15 0.00000000e+00 4.85352572e-14 0.00000000e+00 2.03287593e-15
4.78630092e+01 3.49830856e-14 1.34309696e-15 0.00000000e+00 3.36399886e-14 0.00000000e+00 1.34310781e-15
5.49540874e+01 2.29878696e-14 8.87377055e-16 0.00000000e+00 2.21004925e-14 0.00000000e+00 8.87382527e-16
6.30957344e+01 1.44757023e-14 5.86285096e-16 0.00000000e+00 1.38894172e-14 0.00000000e+00 5.86287821e-16
7.24435960e+01 8.79889916e-15 3.87355174e-16 0.00000000e+00 8.41154399e-15 0.00000000e+00 3.87356522e-16
8.31763771e+01 5.20564893e-15 2.55923251e-16 0.00000000e+00 4.94972568e-15 0.00000000e+00 2.55923916e-16
9.54992586e+01 3.02008657e-15 1.69086925e-16 0.00000000e+00 2.85099965e-15 0.00000000e+00 1.69087255e-16
1.09647820e+02 1.72530511e-15 1.11714678e-16 0.00000000e+00 1.61359043e-15 0.00000000e+00 1.11714841e-16
1.25892541e+02 9.84626817e-16 7.38091812e-17 0.00000000e+00 9.10817636e-16 0.00000000e+00 7.38092637e-17
1.44543977e+02 5.58645390e-16 4.87652550e-17 0.00000000e+00 5.09880135e-16 0.00000000e+00 4.87652969e-17
1.65958691e+02 3.03549984e-16 3.22188916e-17 0.00000000e+00 2.71331092e-16 0.00000000e+00 3.22189122e-17
1.90546072e+02 1.65486577e-16 2.12868140e-17 0.00000000e+00 1.44199763e-16 0.00000000e+00 2.12868242e-17
2.18776162e+02 9.04197264e-17 1.40640602e-17 0.00000000e+00 7.63556662e-17 0.00000000e+00 1.40640653e-17
2.51188643e+02 4.95136523e-17 9.29203324e-18 0.00000000e+00 4.02216191e-17 0.00000000e+00 9.29203577e-18
2.88403150e+02 2.71937147e-17 6.13918589e-18 0.00000000e+00 2.10545289e-17 0.00000000e+00 6.13918715e-18
3.31131121e+02 1.50318223e-17 4.05612009e-18 0.00000000e+00 1.09757022e-17 0.00000000e+00 4.05612073e-18
3.80189396e+02 8.37255523e-18 2.67985207e-18 0.00000000e+00 5.69270316e-18 0.00000000e+00 2.67985239e-18
4.36515832e+02 4.71254547e-18 1.77056076e-18 0.00000000e+00 2.94198471e-18 0.00000000e+00 1.77056092e-18
5.01187234e+02 2.68462090e-18 1.16979792e-18 0.00000000e+00 1.51482298e-18 0.00000000e+00 1.16979800e-18
5.75439937e+02 1.55045475e-18 7.72877831e-19 0.00000000e+00 7.77576915e-19 0.00000000e+00 7.72877871e-19
6.60693448e+02 9.08710484e-19 5.10635325e-19 0.00000000e+00 3.98075158e-19 0.00000000e+00 5.10635346e-19
7.58577575e+02 5.40692388e-19 3.37373417e-19 0.00000000e+00 2.03318971e-19 0.00000000e+00 3.37373427e-19
8.70963590e+02 3.26510215e-19 2.22900408e-19 0.00000000e+00 1.03609807e-19 0.00000000e+00 2.22900413e-19
1.00000000e+03 5.26882065e-20 0.00000000e+00 0.00000000e+00 5.26882065e-20 0.00000000e+00 0.00000000e+00
