# column 1: lambda (micron)
# column 2: total flux; lambda*F_lambda (W/m2)
# column 3: direct stellar flux; lambda*F_lambda (W/m2)
# column 4: scattered stellar flux; lambda*F_lambda (W/m2)
# column 5: total dust emission flux; lambda*F_lambda (W/m2)
# column 6: dust emission scattered flux; lambda*F_lambda (W/m2)
# column 7: transparent flux; lambda*F_lambda (W/m2)
1.00000000e-03 8.46529672e-13 8.46529401e-13 2.71359477e-19 0.00000000e+00 0.00000000e+00 8.46529401e-13
1.14815362e-03 9.99176544e-13 9.99176121e-13 4.23006111e-19 0.00000000e+00 0.00000000e+00 9.99176121e-13
1.31825674e-03 1.17934884e-12 1.17934819e-12 6.43022172e-19 0.00000000e+00 0.00000000e+00 1.17934819e-12
1.51356125e-03 1.39200999e-12 1.39200901e-12 9.79265598e-19 0.00000000e+00 0.00000000e+00 1.39200901e-12
1.73780083e-03 1.64301866e-12 1.64301696e-12 1.69924348e-18 0.00000000e+00 0.00000000e+00 1.64301696e-12
1.99526231e-03 1.93929009e-12 1.93928682e-12 3.27311685e-18 0.00000000e+00 0.00000000e+00 1.93928682e-12
2.29086765e-03 2.28898527e-12 2.28898025e-12 5.01370720e-18 0.00000000e+00 0.00000000e+00 2.28898025e-12
2.63026799e-03 2.70174043e-12 2.70173063e-12 9.80326816e-18 0.00000000e+00 0.00000000e+00 2.70173063e-12
3.01995172e-03 3.18892461e-12 3.18890841e-12 1.61962554e-17 0.00000000e+00 0.00000000e+00 3.18890841e-12
3.46736850e-03 3.76396272e-12 3.76393440e-12 2.83145489e-17 0.00000000e+00 0.00000000e+00 3.76393440e-12
3.98107171e-03 4.44269438e-12 4.44264945e-12 4.49332784e-17 0.00000000e+00 0.00000000e+00 4.44264945e-12
4.57088190e-03 5.24384994e-12 5.24375082e-12 9.91152978e-17 0.00000000e+00 0.00000000e+00 5.24375082e-12
5.24807460e-03 6.18948027e-12 6.18930730e-12 1.72962578e-16 0.00000000e+00 0.00000000e+00 6.18930730e-12
6.02559586e-03 7.30569944e-12 7.30536713e-12 3.32308314e-16 0.00000000e+00 0.00000000e+00 7.30536713e-12
6.91830971e-03 8.62329848e-12 8.62267558e-12 6.22903997e-16 0.00000000e+00 0.00000000e+00 8.62267558e-12
7.94328235e-03 1.01784091e-11 1.01775219e-11 8.87144481e-16 6.22531173e-304 7.94065850e-307 1.01775219e-11
9.12010839e-03 1.20142104e-11 1.20127391e-11 1.47130996e-15 2.87978165e-265 3.24163958e-268 1.20127391e-11
1.04712855e-02 1.34189023e-11 1.34165878e-11 2.31442431e-15 1.27600256e-231 1.94757944e-234 1.34165878e-11
1.20226443e-02 1.34196335e-11 1.34165878e-11 3.04561694e-15 2.08383510e-202 5.98701198e-205 1.34165878e-11
1.38038426e-02 1.34207004e-11 1.34165878e-11 4.11253354e-15 5.88257269e-177 1.96596004e-179 1.34165878e-11
1.58489319e-02 1.34228946e-11 1.34165878e-11 6.30676781e-15 8.21363281e-155 3.93004112e-157 1.34165878e-11
1.81970086e-02 1.34317480e-11 1.34165878e-11 1.51601482e-14 1.50612283e-135 9.37192283e-138 1.34165878e-11
2.08929613e-02 1.34282311e-11 1.34165878e-11 1.16432671e-14 8.05467085e-119 6.06080822e-121 1.34165878e-11
2.39883292e-02 1.34328954e-11 1.34165878e-11 1.63075619e-14 2.89012058e-104 3.20473242e-106 1.34165878e-11
2.75422870e-02 1.34382260e-11 1.34165878e-11 2.16381556e-14 1.31765923e-91 1.79919875e-93 1.34165878e-11
3.16227766e-02 1.34438214e-11 1.34165878e-11 2.72335518e-14 1.30661725e-80 2.24460206e-82 1.34165878e-11
3.63078055e-02 1.34496246e-11 1.34165878e-11 3.30367900e-14 4.59785925e-71 9.26474329e-73 1.34165878e-11
4.16869383e-02 1.34601840e-11 1.34165878e-11 4.35961932e-14 8.87558984e-63 2.47993708e-64 1.34165878e-11
4.78630092e-02 1.34774045e-11 1.34165878e-11 6.08166392e-14 1.36149451e-55 5.20970264e-57 1.34165878e-11
5.49540874e-02 1.34945183e-11 1.34165878e-11 7.79304831e-14 2.29728826e-49 1.12981680e-50 1.34165878e-11
6.30957344e-02 1.35106660e-11 1.34165878e-11 9.40781925e-14 7.54573832e-44 4.68592388e-45 1.34165878e-11
7.24435960e-02 1.35086970e-11 1.34165878e-11 9.21091404e-14 4.41476728e-39 2.77506116e-40 1.34165878e-11
8.31763771e-02 1.35053995e-11 1.34165878e-11 8.88116916e-14 4.54604071e-35 2.83714395e-36 1.34165878e-11
9.54992586e-02 1.35124887e-11 1.34165878e-11 9.59008780e-14 1.28888090e-31 8.44237128e-33 1.34165878e-11
1.09647820e-01 1.29109615e-11 1.28127470e-11 9.82145593e-14 1.09694498e-28 7.55902445e-30 1.28127470e-11
1.25892541e-01 1.20457774e-11 1.19575512e-11 8.82261728e-14 3.54664178e-26 2.25464023e-27 1.19575512e-11
1.44543977e-01 1.12351301e-11 1.11594361e-11 7.56939968e-14 4.83141768e-24 2.92112399e-25 1.11594361e-11
1.65958691e-01 1.04952341e-11 1.04145917e-11 8.06423621e-14 2.45374422e-22 1.62401048e-23 1.04145917e-11
1.90546072e-01 9.81167704e-12 9.71946251e-12 9.22145153e-14 5.20770469e-21 4.21791667e-22 9.71946251e-12
2.18776162e-01 9.16417281e-12 9.07073019e-12 9.34425563e-14 6.23524364e-20 5.71738453e-21 9.07073019e-12
2.51188643e-01 8.56887513e-12 8.46529796e-12 1.03576402e-13 7.60721902e-19 8.46382426e-20 8.46529796e-12
2.88403150e-01 7.99683786e-12 7.90027573e-12 9.65558196e-14 6.30464405e-18 6.65873594e-19 7.90027573e-12
3.31131121e-01 7.45683550e-12 7.37296631e-12 8.38332079e-14 3.59888568e-17 3.57103793e-18 7.37296631e-12
3.80189396e-01 6.95926705e-12 6.88085251e-12 7.82645047e-14 1.50026400e-16 1.45611439e-17 6.88085251e-12
4.36515832e-01 6.49467713e-12 6.42158520e-12 7.26174408e-14 4.74492062e-16 4.49643640e-17 6.42158520e-12
5.01187234e-01 6.05733115e-12 5.99297201e-12 6.31707757e-14 1.18836935e-15 1.10851438e-16 5.99297201e-12
5.75439937e-01 5.65517164e-12 5.59296690e-12 5.97177336e-14 2.48700384e-15 2.35059601e-16 5.59296690e-12
6.60693448e-01 5.28182979e-12 5.21966041e-12 5.75755519e-14 4.59382236e-15 4.47888368e-16 5.21966041e-12
7.58577575e-01 4.92915196e-12 4.87127053e-12 4.97561910e-14 8.12524147e-15 8.33949085e-16 4.87127053e-12
8.70963590e-01 4.60485062e-12 4.54613417e-12 4.39771288e-14 1.47393194e-14 1.59973225e-15 4.54613417e-12
1.00000000e+00 4.31075952e-12 4.24269927e-12 4.01096184e-14 2.79506377e-14 3.16155892e-15 4.24269927e-12
1.14815362e+00 4.04735878e-12 3.95951734e-12 3.26282699e-14 5.52131756e-14 6.24106615e-15 3.95951734e-12
1.31825674e+00 3.83061594e-12 3.69523659e-12 2.71817886e-14 1.08197568e-13 1.13872908e-14 3.69523659e-12
1.51356125e+00 3.67037112e-12 3.44859544e-12 2.19556504e-14 1.99820031e-13 1.90350391e-14 3.44859544e-12
1.73780083e+00 3.57039066e-12 3.21841652e-12 1.68779821e-14 3.35096156e-13 2.77269418e-14 3.21841652e-12
1.99526231e+00 3.52452509e-12 3.00360106e-12 1.24532528e-14 5.08470775e-13 3.48053793e-14 3.00360106e-12
2.29086765e+00 3.50890134e-12 2.80312361e-12 8.87672695e-15 6.96901007e-13 3.82320357e-14 2.80312361e-12
2.63026799e+00 3.49823341e-12 2.61602716e-12 6.45220342e-15 8.75754043e-13 3.73038023e-14 2.61602716e-12
3.01995172e+00 3.46410865e-12 2.44141860e-12 4.36275841e-15 1.01832729e-12 3.29091751e-14 2.44141860e-12
3.46736850e+00 3.39191674e-12 2.27846441e-12 2.98640408e-15 1.11046593e-12 2.68078795e-14 2.27846441e-12
3.98107171e+00 3.27408818e-12 2.12638671e-12 2.00267800e-15 1.14569879e-12 1.98221422e-14 2.12638671e-12
4.57088190e+00 3.11566551e-12 1.98445954e-12 1.25512303e-15 1.12995085e-12 1.36347162e-14 1.98445954e-12
5.24807460e+00 2.71990519e-12 1.64084388e-12 7.10452399e-16 1.07835086e-12 8.81760632e-15 1.64084388e-12
6.02559586e+00 2.09213381e-12 1.08409480e-12 2.99451419e-16 1.00773956e-12 5.29690782e-15 1.08409480e-12
6.70000000e+00 1.73083456e-12 7.88574724e-13 1.48444662e-16 9.42111389e-13 3.41201937e-15 7.88574724e-13
6.92422916e+00 1.63622709e-12 7.14418944e-13 1.20375686e-16 9.21687772e-13 2.94357776e-15 7.14418944e-13
7.15596261e+00 1.55498763e-12 6.47236606e-13 9.38701006e-17 9.07657150e-13 2.53456227e-15 6.47236606e-13
7.39545150e+00 1.50136804e-12 5.86371942e-13 7.17631879e-17 9.14924335e-13 2.16307925e-15 5.86371942e-13
7.64295536e+00 1.50888777e-12 5.31230854e-13 5.01660051e-17 9.77606747e-13 1.83340815e-15 5.31230854e-13
7.89874245e+00 1.61048552e-12 4.81275108e-13 3.26586530e-17 1.12917776e-12 1.54232047e-15 4.81275108e-13
8.16308998e+00 1.78243017e-12 4.36017088e-13 1.98968707e-17 1.34639319e-12 1.27516956e-15 4.36017088e-13
8.43628443e+00 2.03431891e-12 3.95015029e-13 1.17386556e-17 1.63929214e-12 1.01177837e-15 3.95015029e-13
8.71862190e+00 2.20037957e-12 3.57868711e-13 7.16606543e-18 1.84250369e-12 7.96176868e-16 3.57868711e-13
9.01040836e+00 2.36584125e-12 3.24215549e-13 4.53864186e-18 2.04162117e-12 5.74589888e-16 3.24215549e-13
9.31196005e+00 2.49820459e-12 2.93727053e-13 0.00000000e+00 2.20447753e-12 0.00000000e+00 2.93727053e-13
9.62360379e+00 2.46615801e-12 2.66105627e-13 0.00000000e+00 2.20005238e-12 0.00000000e+00 2.66105627e-13
9.94567731e+00 2.30094118e-12 2.41081657e-13 0.00000000e+00 2.05985952e-12 0.00000000e+00 2.41081657e-13
1.02785297e+01 2.11131148e-12 2.18410884e-13 0.00000000e+00 1.89290060e-12 0.00000000e+00 2.18410884e-13
1.06225216e+01 1.92607239e-12 1.97872020e-13 0.00000000e+00 1.72820037e-12 0.00000000e+00 1.97872020e-13
1.09780260e+01 1.72637832e-12 1.79264583e-13 0.00000000e+00 1.54711374e-12 0.00000000e+00 1.79264583e-13
1.13454280e+01 1.54777344e-12 1.62406948e-13 0.00000000e+00 1.38536649e-12 0.00000000e+00 1.62406948e-13
1.17251259e+01 1.39944904e-12 1.47134567e-13 0.00000000e+00 1.25231447e-12 0.00000000e+00 1.47134567e-13
1.21175312e+01 1.26305487e-12 1.33298366e-13 0.00000000e+00 1.12975651e-12 0.00000000e+00 1.33298366e-13
1.25230691e+01 1.14068553e-12 1.20763289e-13 0.00000000e+00 1.01992224e-12 0.00000000e+00 1.20763289e-13
1.29421791e+01 1.03277951e-12 1.09406983e-13 0.00000000e+00 9.23372527e-13 0.00000000e+00 1.09406983e-13
1.33753155e+01 9.42494948e-13 9.91185987e-14 0.00000000e+00 8.43376349e-13 0.00000000e+00 9.91185987e-14
1.38229477e+01 8.81687581e-13 8.97977103e-14 0.00000000e+00 7.91889871e-13 0.00000000e+00 8.97977103e-14
1.42855609e+01 8.43589911e-13 8.13533371e-14 0.00000000e+00 7.62236574e-13 0.00000000e+00 8.13533371e-14
1.47636563e+01 8.46174349e-13 7.37030537e-14 0.00000000e+00 7.72471296e-13 0.00000000e+00 7.37030537e-14
1.52577522e+01 8.59806841e-13 6.67721855e-14 0.00000000e+00 7.93034656e-13 0.00000000e+00 6.67721855e-14
1.57683840e+01 8.80244270e-13 6.04930805e-14 0.00000000e+00 8.19751189e-13 0.00000000e+00 6.04930805e-14
1.62961051e+01 9.03211316e-13 5.48044484e-14 0.00000000e+00 8.48406868e-13 0.00000000e+00 5.48044484e-14
1.68414875e+01 9.24538286e-13 4.96507622e-14 0.00000000e+00 8.74887524e-13 0.00000000e+00 4.96507622e-14
1.74051222e+01 9.34734862e-13 4.49817171e-14 0.00000000e+00 8.89753145e-13 0.00000000e+00 4.49817171e-14
1.79876201e+01 9.34530303e-13 4.07517384e-14 0.00000000e+00 8.93778564e-13 0.00000000e+00 4.07517384e-14
1.85896125e+01 9.19118483e-13 3.69195372e-14 0.00000000e+00 8.82198946e-13 0.00000000e+00 3.69195372e-14
1.92117518e+01 8.92741015e-13 3.34477076e-14 0.00000000e+00 8.59293307e-13 0.00000000e+00 3.34477076e-14
1.98547123e+01 8.55484592e-13 3.03023610e-14 0.00000000e+00 8.25182231e-13 0.00000000e+00 3.03023610e-14
2.05191907e+01 8.17854476e-13 2.74527957e-14 0.00000000e+00 7.90401681e-13 0.00000000e+00 2.74527957e-14
2.12059073e+01 7.79111608e-13 2.48711970e-14 0.00000000e+00 7.54240411e-13 0.00000000e+00 2.48711970e-14
2.19156062e+01 7.46034057e-13 2.25323660e-14 0.00000000e+00 7.23501691e-13 0.00000000e+00 2.25323660e-14
2.26490567e+01 7.12671521e-13 2.04134733e-14 0.00000000e+00 6.92258047e-13 0.00000000e+00 2.04134733e-14
2.34070535e+01 6.82235404e-13 1.84938366e-14 0.00000000e+00 6.63741567e-13 0.00000000e+00 1.84938366e-14
2.41904183e+01 6.52866624e-13 1.67547181e-14 0.00000000e+00 6.36111906e-13 0.00000000e+00 1.67547181e-14
2.50000000e+01 6.24438253e-13 1.51791424e-14 0.00000000e+00 6.09259111e-13 0.00000000e+00 1.51791424e-14
2.75422870e+01 5.44075168e-13 1.13518661e-14 0.00000000e+00 5.32723302e-13 0.00000000e+00 1.13518661e-14
3.16227766e+01 4.33967444e-13 7.50010357e-15 0.00000000e+00 4.26467341e-13 0.00000000e+00 7.50010357e-15
3.63078055e+01 3.27743338e-13 4.95526929e-15 0.00000000e+00 3.22788068e-13 0.00000000e+00 4.95526929e-15
4.16869383e+01 2.32280920e-13 3.27391395e-15 0.00000000e+00 2.29007006e-13 0.00000000e+00 3.27391395e-15
4.78630092e+01 1.53843318e-13 2.16305350e-15 0.00000000e+00 1.51680265e-13 0.00000000e+00 2.16305350e-15
5.49540874e+01 9.63080828e-14 1.42911527e-15 0.00000000e+00 9.48789676e-14 0.00000000e+00 1.42911527e-15
6.30957344e+01 5.78232027e-14 9.44207098e-16 0.00000000e+00 5.68789956e-14 0.00000000e+00 9.44207098e-16
7.24435960e+01 3.35572142e-14 6.23831443e-16 0.00000000e+00 3.29333828e-14 0.00000000e+00 6.23831443e-16
8.31763771e+01 1.90059111e-14 4.12161347e-16 0.00000000e+00 1.85937498e-14 0.00000000e+00 4.12161347e-16
9.54992586e+01 1.05862835e-14 2.72312302e-16 0.00000000e+00 1.03139712e-14 0.00000000e+00 2.72312302e-16
1.09647820e+02 5.82671749e-15 1.79914953e-16 0.00000000e+00 5.64680254e-15 0.00000000e+00 1.79914953e-16
1.25892541e+02 3.21467544e-15 1.18868631e-16 0.00000000e+00 3.09580681e-15 0.00000000e+00 1.18868631e-16
1.44543977e+02 1.76882117e-15 7.85357256e-17 0.00000000e+00 1.69028544e-15 0.00000000e+00 7.85357256e-17
1.65958691e+02 9.31235498e-16 5.18880394e-17 0.00000000e+00 8.79347459e-16 0.00000000e+00 5.18880394e-17
1.90546072e+02 4.92592178e-16 3.42820876e-17 0.00000000e+00 4.58310090e-16 0.00000000e+00 3.42820876e-17
2.18776162e+02 2.61284244e-16 2.26499507e-17 0.00000000e+00 2.38634293e-16 0.00000000e+00 2.26499507e-17
2.51188643e+02 1.38869293e-16 1.49646740e-17 0.00000000e+00 1.23904619e-16 0.00000000e+00 1.49646740e-17
2.88403150e+02 7.39424111e-17 9.88706207e-18 0.00000000e+00 6.40553490e-17 0.00000000e+00 9.88706207e-18
3.31131121e+02 3.95688956e-17 6.53231713e-18 0.00000000e+00 3.30365785e-17 0.00000000e+00 6.53231713e-18
3.80189396e+02 2.12923797e-17 4.31585913e-18 0.00000000e+00 1.69765206e-17 0.00000000e+00 4.31585913e-18
4.36515832e+02 1.15551859e-17 2.85145985e-18 0.00000000e+00 8.70372603e-18 0.00000000e+00 2.85145985e-18
5.01187234e+02 6.33465327e-18 1.88394084e-18 0.00000000e+00 4.45071243e-18 0.00000000e+00 1.88394084e-18
5.75439937e+02 3.51577952e-18 1.24470737e-18 0.00000000e+00 2.27107215e-18 0.00000000e+00 1.24470737e-18
6.60693448e+02 1.97906487e-18 8.22370004e-19 0.00000000e+00 1.15669487e-18 0.00000000e+00 8.22370004e-19
7.58577575e+02 1.13150305e-18 5.43334473e-19 0.00000000e+00 5.88168574e-19 0.00000000e+00 5.43334473e-19
8.70963590e+02 6.57552637e-19 3.58977527e-19 0.00000000e+00 2.98575111e-19 0.00000000e+00 3.58977527e-19
1.00000000e+03 1.51328549e-19 0.00000000e+00 0.00000000e+00 1.51328549e-19 0.00000000e+00 0.00000000e+00
