# column 1: lambda (micron)
# column 2: total flux; lambda*F_lambda (W/m2)
# column 3: direct stellar flux; lambda*F_lambda (W/m2)
# column 4: scattered stellar flux; lambda*F_lambda (W/m2)
# column 5: total dust emission flux; lambda*F_lambda (W/m2)
# column 6: dust emission scattered flux; lambda*F_lambda (W/m2)
# column 7: transparent flux; lambda*F_lambda (W/m2)
1.00000000e-03 9.68073592e-13 9.68073281e-13 3.10883475e-19 0.00000000e+00 0.00000000e+00 9.68073281e-13
1.14815362e-03 1.14263736e-12 1.14263687e-12 4.92315399e-19 0.00000000e+00 0.00000000e+00 1.14263687e-12
1.31825674e-03 1.34867863e-12 1.34867788e-12 7.57037913e-19 0.00000000e+00 0.00000000e+00 1.34867788e-12
1.51356125e-03 1.59187352e-12 1.59187233e-12 1.18632904e-18 0.00000000e+00 0.00000000e+00 1.59187233e-12
1.73780083e-03 1.87892184e-12 1.87891976e-12 2.08143726e-18 0.00000000e+00 0.00000000e+00 1.87891976e-12
1.99526231e-03 2.21773151e-12 2.21772777e-12 3.74690850e-18 0.00000000e+00 0.00000000e+00 2.21772777e-12
2.29086765e-03 2.61763571e-12 2.61762985e-12 5.86527433e-18 0.00000000e+00 0.00000000e+00 2.61762985e-12
2.63026799e-03 3.08965451e-12 3.08964252e-12 1.19832707e-17 0.00000000e+00 0.00000000e+00 3.08964252e-12
3.01995172e-03 3.64678865e-12 3.64676883e-12 1.98243274e-17 0.00000000e+00 0.00000000e+00 3.64676883e-12
3.46736850e-03 4.30438950e-12 4.30435650e-12 3.30048220e-17 0.00000000e+00 0.00000000e+00 4.30435650e-12
3.98107171e-03 5.08057077e-12 5.08052080e-12 4.99719288e-17 0.00000000e+00 0.00000000e+00 5.08052080e-12
4.57088190e-03 5.99675892e-12 5.99664354e-12 1.15384058e-16 0.00000000e+00 0.00000000e+00 5.99664354e-12
5.24807460e-03 7.07817132e-12 7.07796211e-12 2.09202229e-16 0.00000000e+00 0.00000000e+00 7.07796211e-12
6.02559586e-03 8.35466152e-12 8.35426474e-12 3.96776011e-16 0.00000000e+00 0.00000000e+00 8.35426474e-12
6.91830971e-03 9.86130633e-12 9.86071107e-12 5.95256096e-16 0.00000000e+00 0.00000000e+00 9.86071107e-12
7.94328235e-03 1.16398148e-11 1.16388008e-11 1.01405568e-15 0.00000000e+00 0.00000000e+00 1.16388008e-11
9.12010839e-03 1.37391495e-11 1.37375167e-11 1.63275231e-15 0.00000000e+00 0.00000000e+00 1.37375167e-11
1.04712855e-02 1.53451609e-11 1.53429287e-11 2.23226349e-15 0.00000000e+00 0.00000000e+00 1.53429287e-11
1.20226443e-02 1.53521491e-11 1.53429287e-11 9.22047716e-15 3.81977428e-312 1.09631507e-313 1.53429287e-11
1.38038426e-02 1.53481606e-11 1.53429287e-11 5.23192335e-15 9.37988059e-273 2.02560507e-274 1.53429287e-11
1.58489319e-02 1.53507495e-11 1.53429287e-11 7.82079128e-15 1.82845897e-238 4.88677262e-240 1.53429287e-11
1.81970086e-02 1.53538619e-11 1.53429287e-11 1.09332481e-14 1.26374620e-208 3.57333135e-210 1.53429287e-11
2.08929613e-02 1.53575789e-11 1.53429287e-11 1.46502213e-14 1.10193673e-182 3.37730891e-184 1.53429287e-11
2.39883292e-02 1.53605749e-11 1.53429287e-11 1.76461989e-14 4.16306573e-160 1.42367356e-161 1.53429287e-11
2.75422870e-02 1.53676069e-11 1.53429287e-11 2.46782058e-14 1.84294972e-140 6.75734495e-142 1.53429287e-11
3.16227766e-02 1.53736422e-11 1.53429287e-11 3.07135592e-14 2.23038427e-123 9.54513930e-125 1.53429287e-11
3.63078055e-02 1.53787057e-11 1.53429287e-11 3.57770668e-14 1.56398403e-108 6.90323155e-110 1.53429287e-11
4.16869383e-02 1.53932444e-11 1.53429287e-11 5.03157791e-14 1.25366473e-95 7.00972768e-97 1.53429287e-11
4.78630092e-02 1.54126949e-11 1.53429287e-11 6.97662561e-14 2.01331706e-84 1.36244157e-85 1.53429287e-11
5.49540874e-02 1.54335745e-11 1.53429287e-11 9.06458634e-14 1.07755874e-74 8.66531982e-76 1.53429287e-11
6.30957344e-02 1.54567062e-11 1.53429287e-11 1.13777551e-13 3.96529651e-66 3.81944319e-67 1.53429287e-11
7.24435960e-02 1.54551796e-11 1.53429287e-11 1.12250890e-13 1.07796296e-58 1.06798126e-59 1.53429287e-11
8.31763771e-02 1.54572483e-11 1.53429287e-11 1.14319661e-13 2.60406676e-52 2.65447068e-53 1.53429287e-11
9.54992586e-02 1.54596867e-11 1.53429287e-11 1.16758067e-13 1.01992192e-46 1.17256180e-47 1.53429287e-11
1.09647820e-01 1.47716060e-11 1.46523889e-11 1.19217108e-13 8.06471137e-42 1.07893439e-42 1.46523889e-11
1.25892541e-01 1.37759387e-11 1.36744049e-11 1.01533738e-13 1.61422210e-37 2.24294989e-38 1.36744049e-11
1.44543977e-01 1.28535139e-11 1.27616972e-11 9.18167057e-14 8.95013501e-34 1.24960280e-34 1.27616972e-11
1.65958691e-01 1.20055140e-11 1.19099088e-11 9.56052188e-14 1.22674528e-30 1.88436422e-31 1.19099088e-11
1.90546072e-01 1.12244980e-11 1.11149736e-11 1.09524352e-13 4.71550847e-28 8.74690480e-29 1.11149736e-11
2.18776162e-01 1.04859973e-11 1.03730969e-11 1.12900330e-13 7.02744649e-26 1.41661531e-26 1.03730969e-11
2.51188643e-01 9.81291826e-12 9.68073733e-12 1.32180924e-13 8.70924168e-24 2.07005689e-24 9.68073733e-12
2.88403150e-01 9.15463381e-12 9.03458975e-12 1.20044053e-13 5.49840027e-22 1.28282339e-22 9.03458975e-12
3.31131121e-01 8.53924671e-12 8.43156974e-12 1.07676949e-13 1.89747110e-20 4.31961993e-21 8.43156974e-12
3.80189396e-01 7.96746663e-12 7.86879872e-12 9.86675141e-14 3.91110097e-19 8.75978626e-20 7.86879872e-12
4.36515832e-01 7.43170730e-12 7.34359025e-12 8.81118844e-14 5.16650965e-18 1.15662572e-18 7.34359025e-12
5.01187234e-01 6.93541698e-12 6.85343719e-12 8.19337994e-14 4.59928924e-17 1.01929987e-17 6.85343719e-12
5.75439937e-01 6.47500794e-12 6.39599973e-12 7.87148147e-14 2.93394365e-16 6.46685027e-17 6.39599973e-12
6.60693448e-01 6.04240009e-12 5.96909425e-12 7.19113801e-14 1.39445149e-15 3.03146384e-16 5.96909425e-12
7.58577575e-01 5.64341046e-12 5.57068288e-12 6.75095958e-14 5.21798248e-15 1.11078924e-15 5.57068288e-12
8.70963590e-01 5.27518425e-12 5.19886376e-12 6.02922877e-14 1.60282000e-14 3.25906505e-15 5.19886376e-12
1.00000000e+00 4.94445706e-12 4.85186196e-12 5.15223289e-14 4.10727708e-14 7.88478023e-15 4.85186196e-12
1.14815362e+00 4.66511088e-12 4.52802104e-12 4.48076821e-14 9.22821562e-14 1.60827491e-14 4.52802104e-12
1.31825674e+00 4.44793190e-12 4.22579511e-12 3.66074421e-14 1.85529340e-13 2.83364464e-14 4.22579511e-12
1.51356125e+00 4.30410182e-12 3.94374146e-12 2.78692158e-14 3.32491137e-13 4.31670531e-14 3.94374146e-12
1.73780083e+00 4.23360347e-12 3.68051368e-12 2.17872784e-14 5.31302508e-13 5.65861267e-14 3.68051368e-12
1.99526231e+00 4.21415220e-12 3.43485522e-12 1.57334151e-14 7.63563564e-13 6.44594250e-14 3.43485522e-12
2.29086765e+00 4.20481919e-12 3.20559341e-12 1.13939379e-14 9.87831839e-13 6.32923323e-14 3.20559341e-12
2.63026799e+00 4.17713106e-12 2.99163384e-12 7.98734269e-15 1.17750988e-12 5.59420451e-14 2.99163384e-12
3.01995172e+00 4.09798415e-12 2.79195514e-12 5.47530293e-15 1.30055370e-12 4.50117732e-14 2.79195514e-12
3.46736850e+00 3.96214997e-12 2.60560415e-12 3.69203861e-15 1.35285379e-12 3.34124800e-14 2.60560415e-12
3.98107171e+00 3.76426594e-12 2.43169128e-12 2.40498273e-15 1.33016968e-12 2.27976050e-14 2.43169128e-12
4.57088190e+00 3.52112010e-12 2.26938634e-12 1.52629423e-15 1.25020747e-12 1.46221782e-14 2.26938634e-12
5.24807460e+00 3.02257007e-12 1.87643467e-12 8.44361656e-16 1.14529104e-12 8.73471709e-15 1.87643467e-12
6.02559586e+00 2.27482442e-12 1.23974809e-12 3.39624981e-16 1.03473670e-12 4.99645227e-15 1.23974809e-12
6.70000000e+00 1.85108845e-12 9.01797527e-13 1.70870620e-16 9.49120052e-13 3.09260393e-15 9.01797527e-13
6.92422916e+00 1.73947027e-12 8.16994532e-13 1.37661719e-16 9.22338078e-13 2.65171279e-15 8.16994532e-13
7.15596261e+00 1.64540702e-12 7.40166218e-13 1.09196662e-16 9.05131601e-13 2.27466553e-15 7.40166218e-13
7.39545150e+00 1.58370945e-12 6.70562664e-13 8.36977115e-17 9.13063091e-13 1.94573196e-15 6.70562664e-13
7.64295536e+00 1.59177646e-12 6.07504471e-13 6.05186035e-17 9.84211473e-13 1.67394416e-15 6.07504471e-13
7.89874245e+00 1.70708755e-12 5.50376127e-13 3.87659190e-17 1.15667265e-12 1.43469447e-15 5.50376127e-13
8.16308998e+00 1.90427561e-12 4.98620004e-13 2.37872137e-17 1.40563182e-12 1.21811293e-15 4.98620004e-13
8.43628443e+00 2.19908901e-12 4.51730909e-13 1.43939037e-17 1.74734370e-12 9.99278542e-16 4.51730909e-13
8.71862190e+00 2.40069145e-12 4.09251158e-13 8.95574348e-18 1.99143134e-12 8.01712320e-16 4.09251158e-13
9.01040836e+00 2.59893447e-12 3.70766106e-13 5.72787173e-18 2.22816263e-12 5.91388756e-16 3.70766106e-13
9.31196005e+00 2.76403504e-12 3.35900102e-13 0.00000000e+00 2.42813494e-12 0.00000000e+00 3.35900102e-13
9.62360379e+00 2.71281527e-12 3.04312818e-13 0.00000000e+00 2.40850245e-12 0.00000000e+00 3.04312818e-13
9.94567731e+00 2.52783396e-12 2.75695930e-13 0.00000000e+00 2.25213803e-12 0.00000000e+00 2.75695930e-13
1.02785297e+01 2.30481164e-12 2.49770110e-13 0.00000000e+00 2.05504153e-12 0.00000000e+00 2.49770110e-13
1.06225216e+01 2.09107552e-12 2.26282295e-13 0.00000000e+00 1.86479322e-12 0.00000000e+00 2.26282295e-13
1.09780260e+01 1.85135850e-12 2.05003220e-13 0.00000000e+00 1.64635528e-12 0.00000000e+00 2.05003220e-13
1.13454280e+01 1.65700531e-12 1.85725182e-13 0.00000000e+00 1.47128013e-12 0.00000000e+00 1.85725182e-13
1.17251259e+01 1.47977023e-12 1.68260007e-13 0.00000000e+00 1.31151023e-12 0.00000000e+00 1.68260007e-13
1.21175312e+01 1.32877976e-12 1.52437217e-13 0.00000000e+00 1.17634254e-12 0.00000000e+00 1.52437217e-13
1.25230691e+01 1.19053028e-12 1.38102367e-13 0.00000000e+00 1.05242792e-12 0.00000000e+00 1.38102367e-13
1.29421791e+01 1.07757304e-12 1.25115533e-13 0.00000000e+00 9.52457506e-13 0.00000000e+00 1.25115533e-13
1.33753155e+01 9.78710849e-13 1.13349952e-13 0.00000000e+00 8.65360897e-13 0.00000000e+00 1.13349952e-13
1.38229477e+01 9.15556635e-13 1.02690779e-13 0.00000000e+00 8.12865855e-13 0.00000000e+00 1.02690779e-13
1.42855609e+01 8.77552397e-13 9.30339713e-14 0.00000000e+00 7.84518426e-13 0.00000000e+00 9.30339713e-14
1.47636563e+01 8.88873894e-13 8.42852675e-14 0.00000000e+00 8.04588627e-13 0.00000000e+00 8.42852675e-14
1.52577522e+01 9.10219184e-13 7.63592720e-14 0.00000000e+00 8.33859912e-13 0.00000000e+00 7.63592720e-14
1.57683840e+01 9.42517351e-13 6.91786191e-14 0.00000000e+00 8.73338731e-13 0.00000000e+00 6.91786191e-14
1.62961051e+01 9.76503005e-13 6.26732185e-14 0.00000000e+00 9.13829787e-13 0.00000000e+00 6.26732185e-14
1.68414875e+01 1.01400730e-12 5.67795711e-14 0.00000000e+00 9.57227729e-13 0.00000000e+00 5.67795711e-14
1.74051222e+01 1.03894656e-12 5.14401489e-14 0.00000000e+00 9.87506412e-13 0.00000000e+00 5.14401489e-14
1.79876201e+01 1.05348885e-12 4.66028339e-14 0.00000000e+00 1.00688602e-12 0.00000000e+00 4.66028339e-14
1.85896125e+01 1.05075623e-12 4.22204090e-14 0.00000000e+00 1.00853582e-12 0.00000000e+00 4.22204090e-14
1.92117518e+01 1.03295485e-12 3.82500974e-14 0.00000000e+00 9.94704756e-13 0.00000000e+00 3.82500974e-14
1.98547123e+01 1.00156607e-12 3.46531450e-14 0.00000000e+00 9.66912926e-13 0.00000000e+00 3.46531450e-14
2.05191907e+01 9.69044031e-13 3.13944418e-14 0.00000000e+00 9.37649589e-13 0.00000000e+00 3.13944418e-14
2.12059073e+01 9.38335357e-13 2.84421796e-14 0.00000000e+00 9.09893177e-13 0.00000000e+00 2.84421796e-14
2.19156062e+01 9.13184403e-13 2.57675415e-14 0.00000000e+00 8.87416862e-13 0.00000000e+00 2.57675415e-14
2.26490567e+01 8.88685037e-13 2.33444203e-14 0.00000000e+00 8.65340617e-13 0.00000000e+00 2.33444203e-14
2.34070535e+01 8.66808278e-13 2.11491639e-14 0.00000000e+00 8.45659115e-13 0.00000000e+00 2.11491639e-14
2.41904183e+01 8.47375668e-13 1.91603445e-14 0.00000000e+00 8.28215323e-13 0.00000000e+00 1.91603445e-14
2.50000000e+01 8.26924632e-13 1.73585491e-14 0.00000000e+00 8.09566083e-13 0.00000000e+00 1.73585491e-14
2.75422870e+01 7.70113400e-13 1.29817562e-14 0.00000000e+00 7.57131643e-13 0.00000000e+00 1.29817562e-14
3.16227766e+01 6.83477229e-13 8.57696126e-15 0.00000000e+00 6.74900267e-13 0.00000000e+00 8.57696126e-15
3.63078055e+01 5.77977988e-13 5.66674211e-15 0.00000000e+00 5.72311246e-13 0.00000000e+00 5.66674211e-15
4.16869383e+01 4.57607077e-13 3.74397938e-15 0.00000000e+00 4.53863097e-13 0.00000000e+00 3.74397938e-15
4.78630092e+01 3.38602913e-13 2.47362265e-15 0.00000000e+00 3.36129290e-13 0.00000000e+00 2.47362265e-15
5.49540874e+01 2.35361620e-13 1.63430628e-15 0.00000000e+00 2.33727314e-13 0.00000000e+00 1.63430628e-15
6.30957344e+01 1.55600069e-13 1.07977545e-15 0.00000000e+00 1.54520294e-13 0.00000000e+00 1.07977545e-15
7.24435960e+01 9.85576376e-14 7.13400564e-16 0.00000000e+00 9.78442370e-14 0.00000000e+00 7.13400564e-16
8.31763771e+01 6.02744837e-14 4.71339078e-16 0.00000000e+00 5.98031447e-14 0.00000000e+00 4.71339078e-16
9.54992586e+01 3.58755372e-14 3.11410641e-16 0.00000000e+00 3.55641265e-14 0.00000000e+00 3.11410641e-16
1.09647820e+02 2.09011254e-14 2.05746970e-16 0.00000000e+00 2.06953784e-14 0.00000000e+00 2.05746970e-16
1.25892541e+02 1.20890155e-14 1.35935675e-16 0.00000000e+00 1.19530798e-14 0.00000000e+00 1.35935675e-16
1.44543977e+02 6.91171617e-15 8.98118099e-17 0.00000000e+00 6.82190436e-15 0.00000000e+00 8.98118099e-17
1.65958691e+02 3.75206533e-15 5.93380743e-17 0.00000000e+00 3.69272726e-15 0.00000000e+00 5.93380743e-17
1.90546072e+02 2.02994519e-15 3.92042769e-17 0.00000000e+00 1.99074092e-15 0.00000000e+00 3.92042769e-17
2.18776162e+02 1.09283669e-15 2.59020089e-17 0.00000000e+00 1.06693468e-15 0.00000000e+00 2.59020089e-17
2.51188643e+02 5.84926431e-16 1.71132876e-17 0.00000000e+00 5.67813144e-16 0.00000000e+00 1.71132876e-17
2.88403150e+02 3.11126854e-16 1.13066370e-17 0.00000000e+00 2.99820217e-16 0.00000000e+00 1.13066370e-17
3.31131121e+02 1.64929317e-16 7.47022097e-18 0.00000000e+00 1.57459096e-16 0.00000000e+00 7.47022097e-18
3.80189396e+02 8.71220787e-17 4.93552605e-18 0.00000000e+00 8.21865527e-17 0.00000000e+00 4.93552605e-18
4.36515832e+02 4.59648945e-17 3.26086972e-18 0.00000000e+00 4.27040248e-17 0.00000000e+00 3.26086972e-18
5.01187234e+02 2.42444155e-17 2.15443526e-18 0.00000000e+00 2.20899803e-17 0.00000000e+00 2.15443526e-18
5.75439937e+02 1.28075814e-17 1.42342126e-18 0.00000000e+00 1.13841602e-17 0.00000000e+00 1.42342126e-18
6.60693448e+02 6.78835287e-18 9.40445101e-19 0.00000000e+00 5.84790777e-18 0.00000000e+00 9.40445101e-19
7.58577575e+02 3.61694142e-18 6.21345916e-19 0.00000000e+00 2.99559550e-18 0.00000000e+00 6.21345916e-19
8.70963590e+02 1.94090986e-18 4.10519176e-19 0.00000000e+00 1.53039068e-18 0.00000000e+00 4.10519176e-19
1.00000000e+03 7.79935762e-19 0.00000000e+00 0.00000000e+00 7.79935762e-19 0.00000000e+00 0.00000000e+00
