# column 1: lambda (micron)
# column 2: total flux; lambda*F_lambda (W/m2)
# column 3: direct stellar flux; lambda*F_lambda (W/m2)
# column 4: scattered stellar flux; lambda*F_lambda (W/m2)
# column 5: total dust emission flux; lambda*F_lambda (W/m2)
# column 6: dust emission scattered flux; lambda*F_lambda (W/m2)
# column 7: transparent flux; lambda*F_lambda (W/m2)
1.00000000e-03 5.25639225e-13 5.25636674e-13 2.55159983e-18 0.00000000e+00 0.00000000e+00 5.25636674e-13
1.14815362e-03 6.20423647e-13 6.20419813e-13 3.83365196e-18 0.00000000e+00 0.00000000e+00 6.20419813e-13
1.31825674e-03 7.32299869e-13 7.32294308e-13 5.56140858e-18 0.00000000e+00 0.00000000e+00 7.32294308e-13
1.51356125e-03 8.64350719e-13 8.64342083e-13 8.63609812e-18 0.00000000e+00 0.00000000e+00 8.64342083e-13
1.73780083e-03 1.02021671e-12 1.02020080e-12 1.59175667e-17 0.00000000e+00 0.00000000e+00 1.02020080e-12
1.99526231e-03 1.20418848e-12 1.20416405e-12 2.44281919e-17 0.00000000e+00 0.00000000e+00 1.20416405e-12
2.29086765e-03 1.42134301e-12 1.42129968e-12 4.33337371e-17 0.00000000e+00 0.00000000e+00 1.42129968e-12
2.63026799e-03 1.67766996e-12 1.67758934e-12 8.06141608e-17 0.00000000e+00 0.00000000e+00 1.67758934e-12
3.01995172e-03 1.98023372e-12 1.98009332e-12 1.40404737e-16 0.00000000e+00 0.00000000e+00 1.98009332e-12
3.46736850e-03 2.33739075e-12 2.33714500e-12 2.45745672e-16 0.00000000e+00 0.00000000e+00 2.33714500e-12
3.98107171e-03 2.75896497e-12 2.75858048e-12 3.84488571e-16 0.00000000e+00 0.00000000e+00 2.75858048e-12
4.57088190e-03 3.25680277e-12 3.25600946e-12 7.93307923e-16 0.00000000e+00 0.00000000e+00 3.25600946e-12
5.24807460e-03 3.84466657e-12 3.84313516e-12 1.53141036e-15 0.00000000e+00 0.00000000e+00 3.84313516e-12
6.02559586e-03 4.53863096e-12 4.53613173e-12 2.49922136e-15 0.00000000e+00 0.00000000e+00 4.53613173e-12
6.91830971e-03 5.35837937e-12 5.35408989e-12 4.28948161e-15 0.00000000e+00 0.00000000e+00 5.35408989e-12
7.94328235e-03 6.32629231e-12 6.31954278e-12 6.74952339e-15 0.00000000e+00 0.00000000e+00 6.31954278e-12
9.12010839e-03 7.47355702e-12 7.45908676e-12 1.44702675e-14 0.00000000e+00 0.00000000e+00 7.45908676e-12
1.04712855e-02 8.34686344e-12 8.33078048e-12 1.60829620e-14 0.00000000e+00 0.00000000e+00 8.33078048e-12
1.20226443e-02 8.35455496e-12 8.33078048e-12 2.37744860e-14 0.00000000e+00 0.00000000e+00 8.33078048e-12
1.38038426e-02 8.38514805e-12 8.33078048e-12 5.43675786e-14 5.96900478e-276 3.67574283e-277 8.33078048e-12
1.58489319e-02 8.39972928e-12 8.33078048e-12 6.89488025e-14 3.79627899e-241 3.31994190e-242 8.33078048e-12
1.81970086e-02 8.39730922e-12 8.33078048e-12 6.65287472e-14 7.32513850e-211 7.08855929e-212 8.33078048e-12
2.08929613e-02 8.42400610e-12 8.33078048e-12 9.32256243e-14 1.54712472e-184 1.37037937e-185 8.33078048e-12
2.39883292e-02 8.44383919e-12 8.33078048e-12 1.13058713e-13 1.27732646e-161 1.09718654e-162 8.33078048e-12
2.75422870e-02 8.45188113e-12 8.33078048e-12 1.21100653e-13 1.13035418e-141 9.44260738e-143 8.33078048e-12
3.16227766e-02 8.47364636e-12 8.33078048e-12 1.42865880e-13 2.51405757e-124 2.02196227e-125 8.33078048e-12
3.63078055e-02 8.46237200e-12 8.33078048e-12 1.31591525e-13 3.02728608e-109 2.26560943e-110 8.33078048e-12
4.16869383e-02 8.48198898e-12 8.33078048e-12 1.51208500e-13 3.90430191e-96 2.89321689e-97 8.33078048e-12
4.78630092e-02 8.48168378e-12 8.33078048e-12 1.50903303e-13 9.46084436e-85 6.66840626e-86 8.33078048e-12
5.49540874e-02 8.47148838e-12 8.33078048e-12 1.40707900e-13 7.20744659e-75 4.60931307e-76 8.33078048e-12
6.30957344e-02 8.46762563e-12 8.33078048e-12 1.36845155e-13 3.51533709e-66 2.04598450e-67 8.33078048e-12
7.24435960e-02 8.44003946e-12 8.33078048e-12 1.09258987e-13 1.20107941e-58 5.89250447e-60 8.33078048e-12
8.31763771e-02 8.44131721e-12 8.33078048e-12 1.10536736e-13 3.33072277e-52 1.58359683e-53 8.33078048e-12
9.54992586e-02 8.44360605e-12 8.33078048e-12 1.12825577e-13 1.25106820e-46 6.07672965e-48 8.33078048e-12
1.09647820e-01 8.07764977e-12 7.95583672e-12 1.21813050e-13 7.75089748e-42 4.35742532e-43 7.95583672e-12
1.25892541e-01 7.54985785e-12 7.42481883e-12 1.25039011e-13 1.06724019e-37 6.46964445e-39 7.42481883e-12
1.44543977e-01 7.04381495e-12 6.92924411e-12 1.14570840e-13 3.90863021e-34 2.65033133e-35 6.92924411e-12
1.65958691e-01 6.59078578e-12 6.46674687e-12 1.24038911e-13 3.70480004e-31 3.30794197e-32 6.46674687e-12
1.90546072e-01 6.16089492e-12 6.03511933e-12 1.25775599e-13 1.13614253e-28 1.52991521e-29 6.03511933e-12
2.18776162e-01 5.74893921e-12 5.63230107e-12 1.16638148e-13 1.67894778e-26 3.04561920e-27 5.63230107e-12
2.51188643e-01 5.39498513e-12 5.25636919e-12 1.38615932e-13 2.57519181e-24 6.70798638e-25 5.25636919e-12
2.88403150e-01 5.03763664e-12 4.90552916e-12 1.32107484e-13 2.19025862e-22 6.14167320e-23 4.90552916e-12
3.31131121e-01 4.70178586e-12 4.57810618e-12 1.23679663e-13 1.01874263e-20 2.90416154e-21 4.57810618e-12
3.80189396e-01 4.38596700e-12 4.27253728e-12 1.13429440e-13 2.72760900e-19 7.69720958e-20 4.27253728e-12
4.36515832e-01 4.09581309e-12 3.98736380e-12 1.08444746e-13 4.55042692e-18 1.26981119e-18 3.98736380e-12
5.01187234e-01 3.81978328e-12 3.72122441e-12 9.85095400e-14 4.93259089e-17 1.35635449e-17 3.72122441e-12
5.75439937e-01 3.56555824e-12 3.47284869e-12 9.23413342e-14 3.68219782e-16 9.91351252e-17 3.47284869e-12
6.60693448e-01 3.32840748e-12 3.24105097e-12 8.53582082e-14 1.99830095e-15 5.21307384e-16 3.24105097e-12
7.58577575e-01 3.11288619e-12 3.02472476e-12 7.98521437e-14 8.30929023e-15 2.09154161e-15 3.02472476e-12
8.70963590e-01 2.92130369e-12 2.82283739e-12 7.06106578e-14 2.78556406e-14 6.51403132e-15 2.82283739e-12
1.00000000e+00 2.77211760e-12 2.63442513e-12 6.15018591e-14 7.61906067e-14 1.64960883e-14 2.63442513e-12
1.14815362e+00 2.69120474e-12 2.45858859e-12 5.16951743e-14 1.80920974e-13 3.50209724e-14 2.45858859e-12
1.31825674e+00 2.71333055e-12 2.29448837e-12 4.38591375e-14 3.74983038e-13 6.32939435e-14 2.29448837e-12
1.51356125e+00 2.86682221e-12 2.14134114e-12 3.51874590e-14 6.90293611e-13 9.83577176e-14 2.14134114e-12
1.73780083e+00 3.14361895e-12 1.99841583e-12 2.81681133e-14 1.11703501e-12 1.30932504e-13 1.99841583e-12
1.99526231e+00 3.48768266e-12 1.86503017e-12 2.18374177e-14 1.60081507e-12 1.51600840e-13 1.86503017e-12
2.29086765e+00 3.85115180e-12 1.74054743e-12 1.62881402e-14 2.09431624e-12 1.54687171e-13 1.74054743e-12
2.63026799e+00 4.13871920e-12 1.62437337e-12 1.20506502e-14 2.50229518e-12 1.46043325e-13 1.62437337e-12
3.01995172e+00 4.32896777e-12 1.51595343e-12 8.81726131e-15 2.80419707e-12 1.26440115e-13 1.51595343e-12
3.46736850e+00 4.42401757e-12 1.41477006e-12 6.36845771e-15 3.00287905e-12 1.05184719e-13 1.41477006e-12
3.98107171e+00 4.40512188e-12 1.32034025e-12 4.37872894e-15 3.08040290e-12 8.11951907e-14 1.32034025e-12
4.57088190e+00 4.30635079e-12 1.23221321e-12 2.97803755e-15 3.07115954e-12 5.85244852e-14 1.23221321e-12
5.24807460e+00 4.04307253e-12 1.01885146e-12 1.70111834e-15 3.02251995e-12 3.92238624e-14 1.01885146e-12
6.02559586e+00 3.57500440e-12 6.73148485e-13 7.37440386e-16 2.90111847e-12 2.45074137e-14 6.73148485e-13
6.70000000e+00 3.25677673e-12 4.89650796e-13 3.86108917e-16 2.76673983e-12 1.61172698e-14 4.89650796e-13
6.92422916e+00 3.16627912e-12 4.43605145e-13 3.09461996e-16 2.72236452e-12 1.39648001e-14 4.43605145e-13
7.15596261e+00 3.09020716e-12 4.01889522e-13 2.45187494e-16 2.68807245e-12 1.20389565e-14 4.01889522e-13
7.39545150e+00 3.05895324e-12 3.64096743e-13 1.87787973e-16 2.69466871e-12 1.02589899e-14 3.64096743e-13
7.64295536e+00 3.14368670e-12 3.29857910e-13 1.32392561e-16 2.81369640e-12 8.60956361e-15 3.29857910e-13
7.89874245e+00 3.38364831e-12 2.98838820e-13 8.23820689e-17 3.08472711e-12 6.87084602e-15 2.98838820e-13
8.16308998e+00 3.71574989e-12 2.70736695e-13 4.63131245e-17 3.44496689e-12 5.32435928e-15 2.70736695e-13
8.43628443e+00 4.14811317e-12 2.45277229e-13 2.54778741e-17 3.90281046e-12 3.94515274e-15 2.45277229e-13
8.71862190e+00 4.37740141e-12 2.22211915e-13 1.60587315e-17 4.15517343e-12 2.99436702e-15 2.22211915e-13
9.01040836e+00 4.62002925e-12 2.01315610e-13 9.73635682e-18 4.41870390e-12 2.19320524e-15 2.01315610e-13
9.31196005e+00 4.76124139e-12 1.82384346e-13 0.00000000e+00 4.57885705e-12 0.00000000e+00 1.82384346e-13
9.62360379e+00 4.67879843e-12 1.65233336e-13 0.00000000e+00 4.51356510e-12 0.00000000e+00 1.65233336e-13
9.94567731e+00 4.45439312e-12 1.49695167e-13 0.00000000e+00 4.30469796e-12 0.00000000e+00 1.49695167e-13
1.02785297e+01 4.19695327e-12 1.35618173e-13 0.00000000e+00 4.06133509e-12 0.00000000e+00 1.35618173e-13
1.06225216e+01 3.94688506e-12 1.22864947e-13 0.00000000e+00 3.82402011e-12 0.00000000e+00 1.22864947e-13
1.09780260e+01 3.66932872e-12 1.11311006e-13 0.00000000e+00 3.55801771e-12 0.00000000e+00 1.11311006e-13
1.13454280e+01 3.41060469e-12 1.00843571e-13 0.00000000e+00 3.30976112e-12 0.00000000e+00 1.00843571e-13
1.17251259e+01 3.17971528e-12 9.13604705e-14 0.00000000e+00 3.08835481e-12 0.00000000e+00 9.13604705e-14
1.21175312e+01 2.97722471e-12 8.27691389e-14 0.00000000e+00 2.89445557e-12 0.00000000e+00 8.27691389e-14
1.25230691e+01 2.77789810e-12 7.49857166e-14 0.00000000e+00 2.70291238e-12 0.00000000e+00 7.49857166e-14
1.29421791e+01 2.58412302e-12 6.79342298e-14 0.00000000e+00 2.51618879e-12 0.00000000e+00 6.79342298e-14
1.33753155e+01 2.41615409e-12 6.15458488e-14 0.00000000e+00 2.35460825e-12 0.00000000e+00 6.15458488e-14
1.38229477e+01 2.29780278e-12 5.57582167e-14 0.00000000e+00 2.24204456e-12 0.00000000e+00 5.57582167e-14
1.42855609e+01 2.21466762e-12 5.05148403e-14 0.00000000e+00 2.16415278e-12 0.00000000e+00 5.05148403e-14
1.47636563e+01 2.21137418e-12 4.57645392e-14 0.00000000e+00 2.16560964e-12 0.00000000e+00 4.57645392e-14
1.52577522e+01 2.23105488e-12 4.14609457e-14 0.00000000e+00 2.18959393e-12 0.00000000e+00 4.14609457e-14
1.57683840e+01 2.26157744e-12 3.75620523e-14 0.00000000e+00 2.22401539e-12 0.00000000e+00 3.75620523e-14
1.62961051e+01 2.28118559e-12 3.40298020e-14 0.00000000e+00 2.24715579e-12 0.00000000e+00 3.40298020e-14
1.68414875e+01 2.31213479e-12 3.08297166e-14 0.00000000e+00 2.28130507e-12 0.00000000e+00 3.08297166e-14
1.74051222e+01 2.31593077e-12 2.79305599e-14 0.00000000e+00 2.28800021e-12 0.00000000e+00 2.79305599e-14
1.79876201e+01 2.29733276e-12 2.53040334e-14 0.00000000e+00 2.27202873e-12 0.00000000e+00 2.53040334e-14
1.85896125e+01 2.24909402e-12 2.29244994e-14 0.00000000e+00 2.22616952e-12 0.00000000e+00 2.29244994e-14
1.92117518e+01 2.19057810e-12 2.07687314e-14 0.00000000e+00 2.16980937e-12 0.00000000e+00 2.07687314e-14
1.98547123e+01 2.09484915e-12 1.88156870e-14 0.00000000e+00 2.07603346e-12 0.00000000e+00 1.88156870e-14
2.05191907e+01 1.99940210e-12 1.70463024e-14 0.00000000e+00 1.98235580e-12 0.00000000e+00 1.70463024e-14
2.12059073e+01 1.91418960e-12 1.54433068e-14 0.00000000e+00 1.89874630e-12 0.00000000e+00 1.54433068e-14
2.19156062e+01 1.82522127e-12 1.39910532e-14 0.00000000e+00 1.81123022e-12 0.00000000e+00 1.39910532e-14
2.26490567e+01 1.73819715e-12 1.26753663e-14 0.00000000e+00 1.72552178e-12 0.00000000e+00 1.26753663e-14
2.34070535e+01 1.65197458e-12 1.14834036e-14 0.00000000e+00 1.64049117e-12 0.00000000e+00 1.14834036e-14
2.41904183e+01 1.57203239e-12 1.04035303e-14 0.00000000e+00 1.56162886e-12 0.00000000e+00 1.04035303e-14
2.50000000e+01 1.49337294e-12 9.42520591e-15 0.00000000e+00 1.48394774e-12 0.00000000e+00 9.42520591e-15
2.75422870e+01 1.26550474e-12 7.04872996e-15 0.00000000e+00 1.25845601e-12 0.00000000e+00 7.04872996e-15
3.16227766e+01 9.67596858e-13 4.65704970e-15 0.00000000e+00 9.62939808e-13 0.00000000e+00 4.65704970e-15
3.63078055e+01 6.98212169e-13 3.07688223e-15 0.00000000e+00 6.95135287e-13 0.00000000e+00 3.07688223e-15
4.16869383e+01 4.72100133e-13 2.03287593e-15 0.00000000e+00 4.70067257e-13 0.00000000e+00 2.03287593e-15
4.78630092e+01 2.99401415e-13 1.34310781e-15 0.00000000e+00 2.98058308e-13 0.00000000e+00 1.34310781e-15
5.49540874e+01 1.79944446e-13 8.87382527e-16 0.00000000e+00 1.79057064e-13 0.00000000e+00 8.87382527e-16
6.30957344e+01 1.03987759e-13 5.86287821e-16 0.00000000e+00 1.03401471e-13 0.00000000e+00 5.86287821e-16
7.24435960e+01 5.82791401e-14 3.87356522e-16 0.00000000e+00 5.78917836e-14 0.00000000e+00 3.87356522e-16
8.31763771e+01 3.19852878e-14 2.55923916e-16 0.00000000e+00 3.17293639e-14 0.00000000e+00 2.55923916e-16
9.54992586e+01 1.73127714e-14 1.69087255e-16 0.00000000e+00 1.71436841e-14 0.00000000e+00 1.69087255e-16
1.09647820e+02 9.28571916e-15 1.11714841e-16 0.00000000e+00 9.17400432e-15 0.00000000e+00 1.11714841e-16
1.25892541e+02 5.00709319e-15 7.38092637e-17 0.00000000e+00 4.93328392e-15 0.00000000e+00 7.38092637e-17
1.44543977e+02 2.69694067e-15 4.87652969e-17 0.00000000e+00 2.64817537e-15 0.00000000e+00 4.87652969e-17
1.65958691e+02 1.38912382e-15 3.22189122e-17 0.00000000e+00 1.35690491e-15 0.00000000e+00 3.22189122e-17
1.90546072e+02 7.19349289e-16 2.12868242e-17 0.00000000e+00 6.98062465e-16 0.00000000e+00 2.12868242e-17
2.18776162e+02 3.73556086e-16 1.40640653e-17 0.00000000e+00 3.59492020e-16 0.00000000e+00 1.40640653e-17
2.51188643e+02 1.94162376e-16 9.29203577e-18 0.00000000e+00 1.84870340e-16 0.00000000e+00 9.29203577e-18
2.88403150e+02 1.00938428e-16 6.13918715e-18 0.00000000e+00 9.47992404e-17 0.00000000e+00 6.13918715e-18
3.31131121e+02 5.26040345e-17 4.05612073e-18 0.00000000e+00 4.85479138e-17 0.00000000e+00 4.05612073e-18
3.80189396e+02 2.74762354e-17 2.67985239e-18 0.00000000e+00 2.47963830e-17 0.00000000e+00 2.67985239e-18
4.36515832e+02 1.44170661e-17 1.77056092e-18 0.00000000e+00 1.26465052e-17 0.00000000e+00 1.77056092e-18
5.01187234e+02 7.60754068e-18 1.16979800e-18 0.00000000e+00 6.43774269e-18 0.00000000e+00 1.16979800e-18
5.75439937e+02 4.04506714e-18 7.72877871e-19 0.00000000e+00 3.27218927e-18 0.00000000e+00 7.72877871e-19
6.60693448e+02 2.17161942e-18 5.10635346e-19 0.00000000e+00 1.66098407e-18 0.00000000e+00 5.10635346e-19
7.58577575e+02 1.17951275e-18 3.37373427e-19 0.00000000e+00 8.42139326e-19 0.00000000e+00 3.37373427e-19
8.70963590e+02 6.49327187e-19 2.22900413e-19 0.00000000e+00 4.26426774e-19 0.00000000e+00 2.22900413e-19
1.00000000e+03 2.15657421e-19 0.00000000e+00 0.00000000e+00 2.15657421e-19 0.00000000e+00 0.00000000e+00
