# column 1: lambda (micron)
# column 2: total flux; lambda*F_lambda (W/m2)
# column 3: direct stellar flux; lambda*F_lambda (W/m2)
# column 4: scattered stellar flux; lambda*F_lambda (W/m2)
# column 5: total dust emission flux; lambda*F_lambda (W/m2)
# column 6: dust emission scattered flux; lambda*F_lambda (W/m2)
# column 7: transparent flux; lambda*F_lambda (W/m2)
1.00000000e-03 1.04634437e-12 1.04634360e-12 7.62528059e-19 0.00000000e+00 0.00000000e+00 1.04634360e-12
1.14815362e-03 1.23502214e-12 1.23502095e-12 1.18837669e-18 0.00000000e+00 0.00000000e+00 1.23502095e-12
1.31825674e-03 1.45772254e-12 1.45772071e-12 1.83075509e-18 0.00000000e+00 0.00000000e+00 1.45772071e-12
1.51356125e-03 1.72058059e-12 1.72057784e-12 2.75165297e-18 0.00000000e+00 0.00000000e+00 1.72057784e-12
1.73780083e-03 2.03083852e-12 2.03083353e-12 4.99426704e-18 0.00000000e+00 0.00000000e+00 2.03083353e-12
1.99526231e-03 2.39704347e-12 2.39703472e-12 8.75567670e-18 0.00000000e+00 0.00000000e+00 2.39703472e-12
2.29086765e-03 2.82928319e-12 2.82926954e-12 1.36531259e-17 0.00000000e+00 0.00000000e+00 2.82926954e-12
2.63026799e-03 3.33947166e-12 3.33944522e-12 2.64347857e-17 0.00000000e+00 0.00000000e+00 3.33944522e-12
3.01995172e-03 3.94166073e-12 3.94161611e-12 4.46175225e-17 0.00000000e+00 0.00000000e+00 3.94161611e-12
3.46736850e-03 4.65244290e-12 4.65237083e-12 7.20643770e-17 0.00000000e+00 0.00000000e+00 4.65237083e-12
3.98107171e-03 5.49140213e-12 5.49128930e-12 1.12830326e-16 0.00000000e+00 0.00000000e+00 5.49128930e-12
4.57088190e-03 6.48174876e-12 6.48148207e-12 2.66683907e-16 0.00000000e+00 0.00000000e+00 6.48148207e-12
5.24807460e-03 7.65070741e-12 7.65022704e-12 4.80365309e-16 0.00000000e+00 0.00000000e+00 7.65022704e-12
6.02559586e-03 9.03056713e-12 9.02972084e-12 8.46291235e-16 0.00000000e+00 0.00000000e+00 9.02972084e-12
6.91830971e-03 1.06592271e-11 1.06579658e-11 1.26127176e-15 0.00000000e+00 0.00000000e+00 1.06579658e-11
7.94328235e-03 1.25820502e-11 1.25798170e-11 2.23318709e-15 1.15334359e-303 2.42544385e-306 1.25798170e-11
9.12010839e-03 1.48515696e-11 1.48482176e-11 3.35197836e-15 5.64595742e-265 2.92171635e-267 1.48482176e-11
1.04712855e-02 1.65879621e-11 1.65834298e-11 4.53235478e-15 2.61571378e-231 9.45021992e-234 1.65834298e-11
1.20226443e-02 1.66010680e-11 1.65834298e-11 1.76382587e-14 4.45431075e-202 2.81554822e-204 1.65834298e-11
1.38038426e-02 1.65932252e-11 1.65834298e-11 9.79538626e-15 1.30311853e-176 9.44092655e-179 1.65834298e-11
1.58489319e-02 1.65985257e-11 1.65834298e-11 1.50958678e-14 1.87598279e-154 1.62166089e-156 1.65834298e-11
1.81970086e-02 1.66030902e-11 1.65834298e-11 1.96603713e-14 3.53922049e-135 4.19844345e-137 1.65834298e-11
2.08929613e-02 1.66123814e-11 1.65834298e-11 2.89516254e-14 1.94314199e-118 3.14784776e-120 1.65834298e-11
2.39883292e-02 1.66219161e-11 1.65834298e-11 3.84862758e-14 7.11711127e-104 1.43443863e-105 1.65834298e-11
2.75422870e-02 1.66347210e-11 1.65834298e-11 5.12911758e-14 3.31252519e-91 8.54683146e-93 1.65834298e-11
3.16227766e-02 1.66470933e-11 1.65834298e-11 6.36635163e-14 3.33873362e-80 1.01508042e-81 1.65834298e-11
3.63078055e-02 1.66550655e-11 1.65834298e-11 7.16357526e-14 1.19245884e-70 4.16235174e-72 1.65834298e-11
4.16869383e-02 1.66850136e-11 1.65834298e-11 1.01583847e-13 2.33629530e-62 1.06807190e-63 1.65834298e-11
4.78630092e-02 1.67222361e-11 1.65834298e-11 1.38806275e-13 3.62711379e-55 2.10808246e-56 1.65834298e-11
5.49540874e-02 1.67552614e-11 1.65834298e-11 1.71831634e-13 6.16572904e-49 4.20520222e-50 1.65834298e-11
6.30957344e-02 1.67862679e-11 1.65834298e-11 2.02838156e-13 2.02220667e-43 1.50110385e-44 1.65834298e-11
7.24435960e-02 1.67783183e-11 1.65834298e-11 1.94888506e-13 1.17948048e-38 8.03379604e-40 1.65834298e-11
8.31763771e-02 1.67731956e-11 1.65834298e-11 1.89765812e-13 1.22054376e-34 8.12739549e-36 1.65834298e-11
9.54992586e-02 1.67820149e-11 1.65834298e-11 1.98585161e-13 3.47962793e-31 2.41645200e-32 1.65834298e-11
1.09647820e-01 1.60507446e-11 1.58370587e-11 2.13685867e-13 2.99813514e-28 2.34970399e-29 1.58370587e-11
1.25892541e-01 1.49699490e-11 1.47800032e-11 1.89945810e-13 9.80344111e-26 7.68645812e-27 1.47800032e-11
1.44543977e-01 1.39702064e-11 1.37935015e-11 1.76704865e-13 1.34633907e-23 1.05788205e-24 1.37935015e-11
1.65958691e-01 1.30608141e-11 1.28728446e-11 1.87969462e-13 6.88893047e-22 6.03545915e-23 1.28728446e-11
1.90546072e-01 1.22266522e-11 1.20136376e-11 2.13014553e-13 1.46616465e-20 1.50457985e-21 1.20136376e-11
2.18776162e-01 1.14190362e-11 1.12117790e-11 2.07257037e-13 1.73980165e-19 1.80878057e-20 1.12117790e-11
2.51188643e-01 1.07172130e-11 1.04634409e-11 2.53769943e-13 2.14397003e-18 2.76804738e-19 1.04634409e-11
2.88403150e-01 9.99885138e-12 9.76505125e-12 2.33782186e-13 1.79376042e-17 2.32377393e-18 9.76505125e-12
3.31131121e-01 9.32739634e-12 9.11327608e-12 2.14017183e-13 1.03078488e-16 1.31144430e-17 9.11327608e-12
3.80189396e-01 8.69998317e-12 8.50500410e-12 1.94547672e-13 4.31403889e-16 5.45852144e-17 8.50500410e-12
4.36515832e-01 8.12205867e-12 7.93733165e-12 1.83353230e-13 1.37379223e-15 1.73038734e-16 7.93733165e-12
5.01187234e-01 7.58457074e-12 7.40754890e-12 1.73514048e-13 3.50778792e-15 4.55505319e-16 7.40754890e-12
5.75439937e-01 7.08284034e-12 6.91312687e-12 1.62016512e-13 7.69695656e-15 1.07540609e-15 6.91312687e-12
6.60693448e-01 6.61798336e-12 6.45170538e-12 1.50441228e-13 1.58367517e-14 2.54591380e-15 6.45170538e-12
7.58577575e-01 6.19271640e-12 6.02108180e-12 1.38197017e-13 3.34375878e-14 6.34862482e-15 6.02108180e-12
8.70963590e-01 5.81789512e-12 5.61920048e-12 1.25417390e-13 7.32772499e-14 1.55607931e-14 5.61920048e-12
1.00000000e+00 5.51397488e-12 5.24414302e-12 1.11506634e-13 1.58325231e-13 3.46092931e-14 5.24414302e-12
1.14815362e+00 5.31462421e-12 4.89411902e-12 9.34207043e-14 3.27084486e-13 6.80177395e-14 4.89411902e-12
1.31825674e+00 5.26668204e-12 4.56745763e-12 7.50891275e-14 6.24135282e-13 1.16047897e-13 4.56745763e-12
1.51356125e+00 5.40371294e-12 4.26259947e-12 6.01165748e-14 1.08099689e-12 1.74929376e-13 4.26259947e-12
1.73780083e+00 5.69758904e-12 3.97808929e-12 4.58252420e-14 1.67367451e-12 2.25875433e-13 3.97808929e-12
1.99526231e+00 6.06384107e-12 3.71256894e-12 3.39080283e-14 2.31736410e-12 2.48126614e-13 3.71256894e-12
2.29086765e+00 6.41286965e-12 3.46477093e-12 2.48531754e-14 2.92324555e-12 2.40780842e-13 3.46477093e-12
2.63026799e+00 6.66345760e-12 3.23351237e-12 1.73188371e-14 3.41262639e-12 2.12556000e-13 3.23351237e-12
3.01995172e+00 6.72895341e-12 3.01768933e-12 1.20935476e-14 3.69917053e-12 1.72020263e-13 3.01768933e-12
3.46736850e+00 6.63022089e-12 2.81627154e-12 8.14436737e-15 3.80580498e-12 1.30036559e-13 2.81627154e-12
3.98107171e+00 6.37446586e-12 2.62829753e-12 5.47733972e-15 3.74069099e-12 9.14858627e-14 2.62829753e-12
4.57088190e+00 5.99922638e-12 2.45286997e-12 3.59012462e-15 3.54276628e-12 6.03601309e-14 2.45286997e-12
5.24807460e+00 5.31062576e-12 2.02814751e-12 2.01678651e-15 3.28046146e-12 3.77273946e-14 2.02814751e-12
6.02559586e+00 4.35055009e-12 1.33998377e-12 8.51613825e-16 3.00971471e-12 2.22961264e-14 1.33998377e-12
6.70000000e+00 3.77349047e-12 9.74709347e-13 4.26533861e-16 2.79835459e-12 1.43576645e-14 9.74709347e-13
6.92422916e+00 3.60742252e-12 8.83049889e-13 3.45778280e-16 2.72402685e-12 1.23133809e-14 8.83049889e-13
7.15596261e+00 3.48513058e-12 8.00009879e-13 2.68131562e-16 2.68485257e-12 1.05944158e-14 8.00009879e-13
7.39545150e+00 3.42081455e-12 7.24778763e-13 2.11475472e-16 2.69582431e-12 9.05736846e-15 7.24778763e-13
7.64295536e+00 3.53205960e-12 6.56622211e-13 1.48472153e-16 2.87528892e-12 7.81726848e-15 6.56622211e-13
7.89874245e+00 3.89072790e-12 5.94874946e-13 9.53334981e-17 3.29575762e-12 6.57107291e-15 5.94874946e-13
8.16308998e+00 4.40078543e-12 5.38934254e-13 5.81849546e-17 3.86179300e-12 5.55661366e-15 5.38934254e-13
8.43628443e+00 5.09984822e-12 4.88254098e-13 3.43197594e-17 4.61155980e-12 4.59228031e-15 4.88254098e-13
8.71862190e+00 5.53230125e-12 4.42339790e-13 2.31587638e-17 5.08993830e-12 3.94763783e-15 4.42339790e-13
9.01040836e+00 5.97774685e-12 4.00743158e-13 1.59464509e-17 5.57698775e-12 3.45407445e-15 4.00743158e-13
9.31196005e+00 6.26512225e-12 3.63058180e-13 1.20433131e-17 5.90205203e-12 3.16344940e-15 3.63058180e-13
9.62360379e+00 6.15896734e-12 3.28917012e-13 9.94085486e-18 5.83004039e-12 2.95560787e-15 3.28917012e-13
9.94567731e+00 5.78622359e-12 2.97986401e-13 9.06300392e-18 5.48822812e-12 2.73548347e-15 2.97986401e-13
1.02785297e+01 5.36421728e-12 2.69964435e-13 8.16890054e-18 5.09424468e-12 2.52987740e-15 2.69964435e-13
1.06225216e+01 4.93619086e-12 2.44577592e-13 7.58381797e-18 4.69160568e-12 2.32291408e-15 2.44577592e-13
1.09780260e+01 4.48006759e-12 2.21578069e-13 7.02125135e-18 4.25848249e-12 2.10146962e-15 2.21578069e-13
1.13454280e+01 4.06087137e-12 2.00741370e-13 6.33126873e-18 3.86012367e-12 1.87491583e-15 2.00741370e-13
1.17251259e+01 3.72864058e-12 1.81864106e-13 5.73927721e-18 3.54677074e-12 1.67510768e-15 1.81864106e-13
1.21175312e+01 3.40721276e-12 1.64762018e-13 5.17270023e-18 3.24244557e-12 1.48149257e-15 1.64762018e-13
1.25230691e+01 3.11009980e-12 1.49268171e-13 4.66009867e-18 2.96082697e-12 1.28712111e-15 1.49268171e-13
1.29421791e+01 2.85221460e-12 1.35231331e-13 4.07697584e-18 2.71697919e-12 1.10095179e-15 1.35231331e-13
1.33753155e+01 2.63193016e-12 1.22514483e-13 3.48372703e-18 2.50941219e-12 9.41101597e-16 1.22514483e-13
1.38229477e+01 2.48644943e-12 1.10993499e-13 2.85304241e-18 2.37545308e-12 7.85676106e-16 1.10993499e-13
1.42855609e+01 2.39912771e-12 1.00555922e-13 2.26663849e-18 2.29856952e-12 6.59896248e-16 1.00555922e-13
1.47636563e+01 2.42919006e-12 9.10998706e-14 1.68335060e-18 2.33808850e-12 5.52298570e-16 9.10998706e-14
1.52577522e+01 2.48209175e-12 8.25330452e-14 1.26125740e-18 2.39955744e-12 4.69243790e-16 8.25330452e-14
1.57683840e+01 2.55560030e-12 7.47718247e-14 9.34107887e-19 2.48082754e-12 4.00235488e-16 7.47718247e-14
1.62961051e+01 2.63086079e-12 6.77404517e-14 6.95695632e-19 2.56311965e-12 3.44653780e-16 6.77404517e-14
1.68414875e+01 2.70429185e-12 6.13702932e-14 5.17298176e-19 2.64292104e-12 2.94452235e-16 6.13702932e-14
1.74051222e+01 2.75560145e-12 5.55991699e-14 3.98842920e-19 2.70000188e-12 2.55449127e-16 5.55991699e-14
1.79876201e+01 2.76866039e-12 5.03707500e-14 3.24390525e-19 2.71828932e-12 2.21239157e-16 5.03707500e-14
1.85896125e+01 2.74587419e-12 4.56339988e-14 2.61115788e-19 2.70023993e-12 1.89963245e-16 4.56339988e-14
1.92117518e+01 2.69137470e-12 4.13426810e-14 2.12013994e-19 2.65003181e-12 1.60494668e-16 4.13426810e-14
1.98547123e+01 2.60480760e-12 3.74549090e-14 1.73590192e-19 2.56735251e-12 1.32788391e-16 3.74549090e-14
2.05191907e+01 2.50890339e-12 3.39327342e-14 1.39311487e-19 2.47497052e-12 1.05040389e-16 3.39327342e-14
2.12059073e+01 2.41953183e-12 3.07417768e-14 1.05162867e-19 2.38878995e-12 7.85573179e-17 3.07417768e-14
2.19156062e+01 2.33122380e-12 2.78508898e-14 7.54390522e-20 2.30337284e-12 5.37526050e-17 2.78508898e-14
2.26490567e+01 2.25164298e-12 2.52318552e-14 4.76788921e-20 2.22641108e-12 3.25036410e-17 2.52318552e-14
2.34070535e+01 2.17452280e-12 2.28591087e-14 2.30594806e-20 2.15166366e-12 1.53288241e-17 2.28591087e-14
2.41904183e+01 2.09609212e-12 2.07094900e-14 6.09108629e-21 2.07538262e-12 4.36936473e-18 2.07094900e-14
2.50000000e+01 2.02132969e-12 1.87620165e-14 0.00000000e+00 2.00256767e-12 1.49237499e-20 1.87620165e-14
2.75422870e+01 1.79034823e-12 1.40313526e-14 0.00000000e+00 1.77631688e-12 0.00000000e+00 1.40313526e-14
3.16227766e+01 1.46333414e-12 9.27042274e-15 0.00000000e+00 1.45406372e-12 0.00000000e+00 9.27042274e-15
3.63078055e+01 1.12753511e-12 6.12490756e-15 0.00000000e+00 1.12141020e-12 0.00000000e+00 6.12490756e-15
4.16869383e+01 8.08492070e-13 4.04668630e-15 0.00000000e+00 8.04445383e-13 0.00000000e+00 4.04668630e-15
4.78630092e+01 5.41250869e-13 2.67361912e-15 0.00000000e+00 5.38577250e-13 0.00000000e+00 2.67361912e-15
5.49540874e+01 3.42108172e-13 1.76644264e-15 0.00000000e+00 3.40341729e-13 0.00000000e+00 1.76644264e-15
6.30957344e+01 2.06931410e-13 1.16707708e-15 0.00000000e+00 2.05764333e-13 0.00000000e+00 1.16707708e-15
7.24435960e+01 1.20710386e-13 7.71080178e-16 0.00000000e+00 1.19939306e-13 0.00000000e+00 7.71080178e-16
8.31763771e+01 6.86772671e-14 5.09447621e-16 0.00000000e+00 6.81678195e-14 0.00000000e+00 5.09447621e-16
9.54992586e+01 3.83683099e-14 3.36588705e-16 0.00000000e+00 3.80317212e-14 0.00000000e+00 3.36588705e-16
1.09647820e+02 2.11450153e-14 2.22381952e-16 0.00000000e+00 2.09226334e-14 0.00000000e+00 2.22381952e-16
1.25892541e+02 1.16694599e-14 1.46926299e-16 0.00000000e+00 1.15225336e-14 0.00000000e+00 1.46926299e-16
1.44543977e+02 6.41356418e-15 9.70732430e-17 0.00000000e+00 6.31649093e-15 0.00000000e+00 9.70732430e-17
1.65958691e+02 3.36036697e-15 6.41356556e-17 0.00000000e+00 3.29623132e-15 0.00000000e+00 6.41356556e-17
1.90546072e+02 1.76519347e-15 4.23740075e-17 0.00000000e+00 1.72281946e-15 0.00000000e+00 4.23740075e-17
2.18776162e+02 9.27363246e-16 2.79962291e-17 0.00000000e+00 8.99367017e-16 0.00000000e+00 2.79962291e-17
2.51188643e+02 4.86487060e-16 1.84969251e-17 0.00000000e+00 4.67990135e-16 0.00000000e+00 1.84969251e-17
2.88403150e+02 2.54632023e-16 1.22207972e-17 0.00000000e+00 2.42411226e-16 0.00000000e+00 1.22207972e-17
3.31131121e+02 1.33302789e-16 8.07420067e-18 0.00000000e+00 1.25228588e-16 0.00000000e+00 8.07420067e-18
3.80189396e+02 6.97791487e-17 5.33457148e-18 0.00000000e+00 6.44445773e-17 0.00000000e+00 5.33457148e-18
4.36515832e+02 3.66067972e-17 3.52451642e-18 0.00000000e+00 3.30822807e-17 0.00000000e+00 3.52451642e-18
5.01187234e+02 1.92640217e-17 2.32862491e-18 0.00000000e+00 1.69353968e-17 0.00000000e+00 2.32862491e-18
5.75439937e+02 1.01883035e-17 1.53850722e-18 0.00000000e+00 8.64979630e-18 0.00000000e+00 1.53850722e-18
6.60693448e+02 5.42561804e-18 1.01648164e-18 0.00000000e+00 4.40913640e-18 0.00000000e+00 1.01648164e-18
7.58577575e+02 2.91518173e-18 6.71582760e-19 0.00000000e+00 2.24359897e-18 0.00000000e+00 6.71582760e-19
8.70963590e+02 1.58335937e-18 4.43710329e-19 0.00000000e+00 1.13964904e-18 0.00000000e+00 4.43710329e-19
1.00000000e+03 5.77927109e-19 0.00000000e+00 0.00000000e+00 5.77927109e-19 0.00000000e+00 0.00000000e+00
