# column 1: lambda (micron)
# column 2: total flux; lambda*F_lambda (W/m2)
# column 3: direct stellar flux; lambda*F_lambda (W/m2)
# column 4: scattered stellar flux; lambda*F_lambda (W/m2)
# column 5: total dust emission flux; lambda*F_lambda (W/m2)
# column 6: dust emission scattered flux; lambda*F_lambda (W/m2)
# column 7: transparent flux; lambda*F_lambda (W/m2)
1.00000000e-03 1.07335633e-12 1.07335627e-12 5.56764880e-20 0.00000000e+00 0.00000000e+00 1.07335627e-12
1.14815362e-03 1.26690464e-12 1.26690456e-12 8.04219246e-20 0.00000000e+00 0.00000000e+00 1.26690456e-12
1.31825674e-03 1.49535372e-12 1.49535359e-12 1.27386115e-19 0.00000000e+00 0.00000000e+00 1.49535359e-12
1.51356125e-03 1.76499690e-12 1.76499670e-12 2.04836406e-19 0.00000000e+00 0.00000000e+00 1.76499670e-12
1.73780083e-03 2.08326240e-12 2.08326203e-12 3.76657258e-19 0.00000000e+00 0.00000000e+00 2.08326203e-12
1.99526231e-03 2.45891783e-12 2.45891716e-12 6.71658741e-19 0.00000000e+00 0.00000000e+00 2.45891716e-12
2.29086765e-03 2.90231168e-12 2.90231066e-12 1.01048089e-18 0.00000000e+00 0.00000000e+00 2.90231066e-12
2.63026799e-03 3.42565949e-12 3.42565717e-12 2.31914480e-18 0.00000000e+00 0.00000000e+00 3.42565717e-12
3.01995172e-03 4.28630920e-12 4.04337385e-12 2.42935357e-13 0.00000000e+00 0.00000000e+00 4.04337385e-12
3.46736850e-03 4.77253398e-12 4.77247759e-12 5.63914882e-17 0.00000000e+00 0.00000000e+00 4.77247759e-12
3.98107171e-03 5.64835766e-12 5.63305378e-12 1.53038799e-14 0.00000000e+00 0.00000000e+00 5.63305378e-12
4.57088190e-03 6.64947766e-12 6.64880962e-12 6.68035925e-16 0.00000000e+00 0.00000000e+00 6.64880962e-12
5.24807460e-03 7.84879375e-12 7.84772720e-12 1.06654878e-15 0.00000000e+00 0.00000000e+00 7.84772720e-12
6.02559586e-03 9.28780994e-12 9.26283435e-12 2.49755861e-14 0.00000000e+00 0.00000000e+00 9.26283435e-12
6.91830971e-03 1.09423277e-11 1.09331145e-11 9.21312421e-15 0.00000000e+00 0.00000000e+00 1.09331145e-11
7.94328235e-03 1.29080379e-11 1.29045807e-11 3.45720734e-15 8.14258212e-304 1.15536530e-306 1.29045807e-11
9.12010839e-03 1.52517583e-11 1.52315429e-11 2.02154570e-14 3.73714468e-265 4.67063216e-268 1.52315429e-11
1.04712855e-02 1.70197680e-11 1.70115517e-11 8.21630456e-15 1.64559163e-231 3.66795342e-234 1.70115517e-11
1.20226443e-02 1.70194017e-11 1.70115517e-11 7.84994401e-15 2.66710664e-202 5.20384768e-205 1.70115517e-11
1.38038426e-02 1.70201070e-11 1.70115517e-11 8.55523916e-15 7.49156705e-177 1.96179783e-179 1.70115517e-11
1.58489319e-02 1.70205303e-11 1.70115517e-11 8.97860318e-15 1.04092972e-154 3.87153724e-157 1.70115517e-11
1.81970086e-02 1.70254661e-11 1.70115517e-11 1.39143733e-14 1.89984515e-135 8.46632517e-138 1.70115517e-11
2.08929613e-02 1.70265794e-11 1.70115517e-11 1.50276484e-14 1.01215156e-118 5.45837673e-121 1.70115517e-11
2.39883292e-02 1.70273828e-11 1.70115517e-11 1.58310918e-14 3.61477167e-104 2.63664159e-106 1.70115517e-11
2.75422870e-02 1.70290897e-11 1.70115517e-11 1.75379719e-14 1.64295004e-91 1.54976505e-93 1.70115517e-11
3.16227766e-02 1.70293987e-11 1.70115517e-11 1.78470052e-14 1.62319305e-80 1.88232899e-82 1.70115517e-11
3.63078055e-02 1.70304845e-11 1.70115517e-11 1.89327733e-14 5.69346069e-71 7.62362679e-73 1.70115517e-11
4.16869383e-02 1.70345569e-11 1.70115517e-11 2.30052189e-14 1.09460515e-62 2.07753333e-64 1.70115517e-11
4.78630092e-02 1.70382377e-11 1.70115517e-11 2.66859738e-14 1.67131889e-55 4.41715604e-57 1.70115517e-11
5.49540874e-02 1.70432117e-11 1.70115517e-11 3.16599890e-14 2.80798994e-49 9.74635633e-51 1.70115517e-11
6.30957344e-02 1.70501196e-11 1.70115517e-11 3.85678378e-14 9.18361582e-44 4.14451122e-45 1.70115517e-11
7.24435960e-02 1.70484277e-11 1.70115517e-11 3.68760091e-14 5.36401312e-39 2.44752990e-40 1.70115517e-11
8.31763771e-02 1.70479256e-11 1.70115517e-11 3.63739300e-14 5.51999903e-35 2.50488409e-36 1.70115517e-11
9.54992586e-02 1.70490226e-11 1.70115517e-11 3.74708763e-14 1.56350631e-31 7.53976583e-33 1.70115517e-11
1.09647820e-01 1.62832251e-11 1.62459122e-11 3.73129027e-14 1.32979472e-28 6.83166308e-30 1.62459122e-11
1.25892541e-01 1.51941100e-11 1.51615674e-11 3.25425822e-14 4.30101900e-26 2.00136151e-27 1.51615674e-11
1.44543977e-01 1.41778930e-11 1.41495980e-11 2.82949999e-14 5.86333828e-24 2.59913983e-25 1.41495980e-11
1.65958691e-01 1.32333017e-11 1.32051732e-11 2.81285832e-14 2.97517484e-22 1.47557238e-23 1.32051732e-11
1.90546072e-01 1.23554359e-11 1.23237846e-11 3.16512130e-14 6.29996174e-21 3.96500807e-22 1.23237846e-11
2.18776162e-01 1.15341879e-11 1.15012250e-11 3.29628397e-14 7.53150395e-20 5.48936616e-21 1.15012250e-11
2.51188643e-01 1.07705443e-11 1.07335677e-11 3.69756676e-14 9.15499485e-19 8.20027436e-20 1.07335677e-11
2.88403150e-01 1.00498919e-11 1.00171482e-11 3.27361133e-14 7.59733227e-18 6.46307711e-19 1.00171482e-11
3.31131121e-01 9.37597028e-12 9.34854667e-12 2.73802105e-14 4.33998717e-17 3.44441779e-18 9.34854667e-12
3.80189396e-01 8.74901091e-12 8.72457139e-12 2.42589464e-14 1.80571631e-16 1.36574976e-17 8.72457139e-12
4.36515832e-01 8.16549067e-12 8.14224377e-12 2.26752195e-14 5.71676875e-16 4.29556693e-17 8.14224377e-12
5.01187234e-01 7.62054965e-12 7.59878402e-12 2.03389497e-14 1.42667827e-15 1.05698769e-16 7.59878402e-12
5.75439937e-01 7.11327507e-12 7.09159786e-12 1.87359587e-14 2.94124386e-15 2.18902800e-16 7.09159786e-12
6.60693448e-01 6.63977138e-12 6.61826421e-12 1.63054620e-14 5.20170989e-15 3.91335888e-16 6.61826421e-12
7.58577575e-01 6.20059108e-12 6.17652353e-12 1.57649491e-14 8.30259227e-15 6.29936768e-16 6.17652353e-12
8.70963590e-01 5.79048988e-12 5.76426715e-12 1.37858218e-14 1.24369036e-14 9.42528439e-16 5.76426715e-12
1.00000000e+00 5.40971910e-12 5.37952711e-12 1.20902291e-14 1.81017560e-14 1.35325006e-15 5.37952711e-12
1.14815362e+00 5.05767092e-12 5.02046681e-12 1.01946919e-14 2.70094197e-14 1.92855165e-15 5.02046681e-12
1.31825674e+00 4.73561566e-12 4.68537225e-12 8.48001926e-15 4.17633952e-14 2.73293170e-15 4.68537225e-12
1.51356125e+00 4.44429432e-12 4.37264380e-12 6.57041923e-15 6.50800987e-14 3.70996910e-15 4.37264380e-12
1.73780083e+00 4.18372976e-12 4.08078863e-12 5.15388145e-15 9.77872444e-14 4.58073330e-15 4.08078863e-12
1.99526231e+00 3.95021165e-12 3.80841354e-12 3.74340355e-15 1.38054707e-13 5.28366919e-15 3.80841354e-12
2.29086765e+00 3.73740265e-12 3.55421832e-12 2.61059846e-15 1.80573733e-13 5.41099152e-15 3.55421832e-12
2.63026799e+00 3.53829925e-12 3.31698953e-12 1.93481132e-15 2.19374906e-13 5.20184706e-15 3.31698953e-12
3.01995172e+00 3.34563215e-12 3.09559474e-12 1.26420206e-15 2.48773201e-13 4.57117785e-15 3.09559474e-12
3.46736850e+00 3.15624971e-12 2.88897711e-12 8.96813825e-16 2.66375789e-13 3.66558627e-15 2.88897711e-12
3.98107171e+00 2.96659244e-12 2.69615031e-12 5.51571835e-16 2.69890557e-13 2.72991493e-15 2.69615031e-12
4.57088190e+00 2.77781429e-12 2.51619387e-12 3.61537009e-16 2.61258879e-13 1.87694144e-15 2.51619387e-12
5.24807460e+00 2.32536901e-12 2.08050667e-12 1.98562634e-16 2.44663774e-13 1.23066204e-15 2.08050667e-12
6.02559586e+00 1.59935052e-12 1.37457712e-12 7.85091639e-17 2.24694883e-13 7.26690160e-16 1.37457712e-12
6.70000000e+00 1.20718087e-12 9.99872685e-13 3.91502884e-17 2.07269032e-13 4.66799679e-16 9.99872685e-13
6.92422916e+00 1.10749706e-12 9.05846924e-13 3.09093208e-17 2.01619225e-13 3.98935032e-16 9.05846924e-13
7.15596261e+00 1.01860448e-12 8.20663132e-13 2.47273588e-17 1.97916617e-13 3.41162919e-16 8.20663132e-13
7.39545150e+00 9.42947807e-13 7.43489831e-13 1.87852592e-17 1.99439191e-13 2.94498040e-16 7.43489831e-13
7.64295536e+00 8.89477391e-13 6.73573732e-13 1.32970816e-17 2.15890362e-13 2.52019888e-16 6.73573732e-13
7.89874245e+00 8.65861845e-13 6.10232385e-13 8.94194661e-18 2.55620518e-13 2.14251659e-16 6.10232385e-13
8.16308998e+00 8.67585992e-13 5.52847515e-13 5.68924581e-18 3.14732788e-13 1.81605854e-16 5.52847515e-13
8.43628443e+00 8.99375295e-13 5.00858987e-13 3.27119309e-18 3.98513036e-13 1.49465586e-16 5.00858987e-13
8.71862190e+00 9.12947968e-13 4.53759343e-13 2.02510794e-18 4.59186600e-13 1.18444568e-16 4.53759343e-13
9.01040836e+00 9.34293119e-13 4.11088843e-13 1.37185327e-18 5.23202904e-13 8.44565568e-17 4.11088843e-13
9.31196005e+00 9.47356623e-13 3.72430980e-13 0.00000000e+00 5.74925643e-13 0.00000000e+00 3.72430980e-13
9.62360379e+00 9.09396025e-13 3.37408415e-13 0.00000000e+00 5.71987611e-13 0.00000000e+00 3.37408415e-13
9.94567731e+00 8.37843300e-13 3.05679292e-13 0.00000000e+00 5.32164008e-13 0.00000000e+00 3.05679292e-13
1.02785297e+01 7.57330068e-13 2.76933904e-13 0.00000000e+00 4.80396164e-13 0.00000000e+00 2.76933904e-13
1.06225216e+01 6.82280442e-13 2.50891667e-13 0.00000000e+00 4.31388775e-13 0.00000000e+00 2.50891667e-13
1.09780260e+01 6.03341926e-13 2.27298384e-13 0.00000000e+00 3.76043543e-13 0.00000000e+00 2.27298384e-13
1.13454280e+01 5.35723966e-13 2.05923759e-13 0.00000000e+00 3.29800207e-13 0.00000000e+00 2.05923759e-13
1.17251259e+01 4.77744897e-13 1.86559155e-13 0.00000000e+00 2.91185742e-13 0.00000000e+00 1.86559155e-13
1.21175312e+01 4.25345226e-13 1.69015555e-13 0.00000000e+00 2.56329671e-13 0.00000000e+00 1.69015555e-13
1.25230691e+01 3.78390858e-13 1.53121715e-13 0.00000000e+00 2.25269142e-13 0.00000000e+00 1.53121715e-13
1.29421791e+01 3.38459847e-13 1.38722496e-13 0.00000000e+00 1.99737351e-13 0.00000000e+00 1.38722496e-13
1.33753155e+01 3.03453225e-13 1.25677347e-13 0.00000000e+00 1.77775878e-13 0.00000000e+00 1.25677347e-13
1.38229477e+01 2.77807783e-13 1.13858934e-13 0.00000000e+00 1.63948849e-13 0.00000000e+00 1.13858934e-13
1.42855609e+01 2.58979338e-13 1.03151898e-13 0.00000000e+00 1.55827440e-13 0.00000000e+00 1.03151898e-13
1.47636563e+01 2.51189666e-13 9.34517274e-14 0.00000000e+00 1.57737939e-13 0.00000000e+00 9.34517274e-14
1.52577522e+01 2.46332198e-13 8.46637387e-14 0.00000000e+00 1.61668459e-13 0.00000000e+00 8.46637387e-14
1.57683840e+01 2.43910985e-13 7.67021526e-14 0.00000000e+00 1.67208832e-13 0.00000000e+00 7.67021526e-14
1.62961051e+01 2.42625420e-13 6.94892560e-14 0.00000000e+00 1.73136164e-13 0.00000000e+00 6.94892560e-14
1.68414875e+01 2.41676781e-13 6.29546439e-14 0.00000000e+00 1.78722138e-13 0.00000000e+00 6.29546439e-14
1.74051222e+01 2.38215619e-13 5.70345319e-14 0.00000000e+00 1.81181087e-13 0.00000000e+00 5.70345319e-14
1.79876201e+01 2.33135782e-13 5.16711337e-14 0.00000000e+00 1.81464648e-13 0.00000000e+00 5.16711337e-14
1.85896125e+01 2.24732063e-13 4.68120974e-14 0.00000000e+00 1.77919965e-13 0.00000000e+00 4.68120974e-14
1.92117518e+01 2.13595541e-13 4.24099939e-14 0.00000000e+00 1.71185547e-13 0.00000000e+00 4.24099939e-14
1.98547123e+01 2.00729723e-13 3.84218542e-14 0.00000000e+00 1.62307869e-13 0.00000000e+00 3.84218542e-14
2.05191907e+01 1.87590720e-13 3.48087501e-14 0.00000000e+00 1.52781970e-13 0.00000000e+00 3.48087501e-14
2.12059073e+01 1.75664282e-13 3.15354141e-14 0.00000000e+00 1.44128868e-13 0.00000000e+00 3.15354141e-14
2.19156062e+01 1.64975371e-13 2.85698952e-14 0.00000000e+00 1.36405476e-13 0.00000000e+00 2.85698952e-14
2.26490567e+01 1.55312800e-13 2.58832470e-14 0.00000000e+00 1.29429553e-13 0.00000000e+00 2.58832470e-14
2.34070535e+01 1.46134809e-13 2.34492452e-14 0.00000000e+00 1.22685564e-13 0.00000000e+00 2.34492452e-14
2.41904183e+01 1.37893148e-13 2.12441313e-14 0.00000000e+00 1.16649017e-13 0.00000000e+00 2.12441313e-14
2.50000000e+01 1.30235556e-13 1.92463813e-14 0.00000000e+00 1.10989175e-13 0.00000000e+00 1.92463813e-14
2.75422870e+01 1.10194350e-13 1.43935895e-14 0.00000000e+00 9.58007600e-14 0.00000000e+00 1.43935895e-14
3.16227766e+01 8.61253010e-14 9.50975027e-15 0.00000000e+00 7.66155507e-14 0.00000000e+00 9.50975027e-15
3.63078055e+01 6.51308285e-14 6.28302969e-15 0.00000000e+00 5.88477988e-14 0.00000000e+00 6.28302969e-15
4.16869383e+01 4.67451425e-14 4.15115655e-15 0.00000000e+00 4.25939859e-14 0.00000000e+00 4.15115655e-15
4.78630092e+01 3.17210659e-14 2.74264194e-15 0.00000000e+00 2.89784240e-14 0.00000000e+00 2.74264194e-15
5.49540874e+01 2.05491628e-14 1.81204556e-15 0.00000000e+00 1.87371172e-14 0.00000000e+00 1.81204556e-15
6.30957344e+01 1.28100236e-14 1.19720663e-15 0.00000000e+00 1.16128170e-14 0.00000000e+00 1.19720663e-15
7.24435960e+01 7.74884032e-15 7.90986575e-16 0.00000000e+00 6.95785374e-15 0.00000000e+00 7.90986575e-16
8.31763771e+01 4.58369999e-15 5.22599647e-16 0.00000000e+00 4.06110035e-15 0.00000000e+00 5.22599647e-16
9.54992586e+01 2.66944391e-15 3.45278163e-16 0.00000000e+00 2.32416575e-15 0.00000000e+00 3.45278163e-16
1.09647820e+02 1.53726480e-15 2.28123020e-16 0.00000000e+00 1.30914178e-15 0.00000000e+00 2.28123020e-16
1.25892541e+02 8.87089862e-16 1.50719385e-16 0.00000000e+00 7.36370477e-16 0.00000000e+00 1.50719385e-16
1.44543977e+02 5.10758949e-16 9.95793099e-17 0.00000000e+00 4.11179639e-16 0.00000000e+00 9.95793099e-17
1.65958691e+02 2.84069691e-16 6.57913976e-17 0.00000000e+00 2.18278293e-16 0.00000000e+00 6.57913976e-17
1.90546072e+02 1.59260534e-16 4.34679453e-17 0.00000000e+00 1.15792589e-16 0.00000000e+00 4.34679453e-17
2.18776162e+02 8.99543199e-17 2.87189867e-17 0.00000000e+00 6.12353332e-17 0.00000000e+00 2.87189867e-17
2.51188643e+02 5.11982265e-17 1.89744463e-17 0.00000000e+00 3.22237802e-17 0.00000000e+00 1.89744463e-17
2.88403150e+02 2.93913351e-17 1.25362924e-17 0.00000000e+00 1.68550427e-17 0.00000000e+00 1.25362924e-17
3.31131121e+02 1.70639491e-17 8.28264623e-18 0.00000000e+00 8.78130284e-18 0.00000000e+00 8.28264623e-18
3.80189396e+02 1.00246745e-17 5.47229010e-18 0.00000000e+00 4.55238437e-18 0.00000000e+00 5.47229010e-18
4.36515832e+02 5.96732715e-18 3.61550621e-18 0.00000000e+00 2.35182094e-18 0.00000000e+00 3.61550621e-18
5.01187234e+02 3.59933401e-18 2.38874127e-18 0.00000000e+00 1.21059274e-18 0.00000000e+00 2.38874127e-18
5.75439937e+02 2.19949761e-18 1.57822570e-18 0.00000000e+00 6.21271905e-19 0.00000000e+00 1.57822570e-18
6.60693448e+02 1.36072289e-18 1.04272338e-18 0.00000000e+00 3.17999507e-19 0.00000000e+00 1.04272338e-18
7.58577575e+02 8.51316077e-19 6.88920507e-19 0.00000000e+00 1.62395571e-19 0.00000000e+00 6.88920507e-19
8.70963590e+02 5.37911481e-19 4.55165265e-19 0.00000000e+00 8.27462157e-20 0.00000000e+00 4.55165265e-19
1.00000000e+03 4.20746477e-20 0.00000000e+00 0.00000000e+00 4.20746477e-20 0.00000000e+00 0.00000000e+00
