# column 1: lambda (micron)
# column 2: total flux; lambda*F_lambda (W/m2)
# column 3: direct stellar flux; lambda*F_lambda (W/m2)
# column 4: scattered stellar flux; lambda*F_lambda (W/m2)
# column 5: total dust emission flux; lambda*F_lambda (W/m2)
# column 6: dust emission scattered flux; lambda*F_lambda (W/m2)
# column 7: transparent flux; lambda*F_lambda (W/m2)
1.00000000e-03 1.04634394e-12 1.04634360e-12 3.35865073e-19 0.00000000e+00 0.00000000e+00 1.04634360e-12
1.14815362e-03 1.23502147e-12 1.23502095e-12 5.23035151e-19 0.00000000e+00 0.00000000e+00 1.23502095e-12
1.31825674e-03 1.45772153e-12 1.45772071e-12 8.19655727e-19 0.00000000e+00 0.00000000e+00 1.45772071e-12
1.51356125e-03 1.72057912e-12 1.72057784e-12 1.27999607e-18 0.00000000e+00 0.00000000e+00 1.72057784e-12
1.73780083e-03 2.03083583e-12 2.03083353e-12 2.30982642e-18 0.00000000e+00 0.00000000e+00 2.03083353e-12
1.99526231e-03 2.39703884e-12 2.39703472e-12 4.12574392e-18 0.00000000e+00 0.00000000e+00 2.39703472e-12
2.29086765e-03 2.82927589e-12 2.82926954e-12 6.34658328e-18 0.00000000e+00 0.00000000e+00 2.82926954e-12
2.63026799e-03 3.33945844e-12 3.33944522e-12 1.32119842e-17 0.00000000e+00 0.00000000e+00 3.33944522e-12
3.01995172e-03 3.94163835e-12 3.94161611e-12 2.22391240e-17 0.00000000e+00 0.00000000e+00 3.94161611e-12
3.46736850e-03 4.65240809e-12 4.65237083e-12 3.72633216e-17 0.00000000e+00 0.00000000e+00 4.65237083e-12
3.98107171e-03 5.49135005e-12 5.49128930e-12 6.07514911e-17 0.00000000e+00 0.00000000e+00 5.49128930e-12
4.57088190e-03 6.48161637e-12 6.48148207e-12 1.34294712e-16 0.00000000e+00 0.00000000e+00 6.48148207e-12
5.24807460e-03 7.65046714e-12 7.65022704e-12 2.40099755e-16 0.00000000e+00 0.00000000e+00 7.65022704e-12
6.02559586e-03 9.03017540e-12 9.02972084e-12 4.54557041e-16 0.00000000e+00 0.00000000e+00 9.02972084e-12
6.91830971e-03 1.06586470e-11 1.06579658e-11 6.81188020e-16 0.00000000e+00 0.00000000e+00 1.06579658e-11
7.94328235e-03 1.25810004e-11 1.25798170e-11 1.18333565e-15 2.47145272e-303 1.73297676e-305 1.25798170e-11
9.12010839e-03 1.48500563e-11 1.48482176e-11 1.83863135e-15 1.22344351e-264 6.74128455e-267 1.48482176e-11
1.04712855e-02 1.65863506e-11 1.65834298e-11 2.92086204e-15 5.76496612e-231 3.96451524e-233 1.65834298e-11
1.20226443e-02 1.65872945e-11 1.65834298e-11 3.86466585e-15 9.93031244e-202 8.92872351e-204 1.65834298e-11
1.38038426e-02 1.65893196e-11 1.65834298e-11 5.88978280e-15 2.93128045e-176 2.48902216e-178 1.65834298e-11
1.58489319e-02 1.65926667e-11 1.65834298e-11 9.23693217e-15 4.25936826e-154 4.37868582e-156 1.65834298e-11
1.81970086e-02 1.65944121e-11 1.65834298e-11 1.09822849e-14 8.11085665e-135 1.22059418e-136 1.65834298e-11
2.08929613e-02 1.65999760e-11 1.65834298e-11 1.65461736e-14 4.46889282e-118 7.23744086e-120 1.65834298e-11
2.39883292e-02 1.66079947e-11 1.65834298e-11 2.45649273e-14 1.64758422e-103 3.46153276e-105 1.65834298e-11
2.75422870e-02 1.66126382e-11 1.65834298e-11 2.92084624e-14 7.69831687e-91 1.98604394e-92 1.65834298e-11
3.16227766e-02 1.66211848e-11 1.65834298e-11 3.77549738e-14 7.77915414e-80 2.24753583e-81 1.65834298e-11
3.63078055e-02 1.66276366e-11 1.65834298e-11 4.42068560e-14 2.78096353e-70 8.54133965e-72 1.65834298e-11
4.16869383e-02 1.66451430e-11 1.65834298e-11 6.17132630e-14 5.45926096e-62 2.21139050e-63 1.65834298e-11
4.78630092e-02 1.66655012e-11 1.65834298e-11 8.20714004e-14 8.47057517e-55 4.27525131e-56 1.65834298e-11
5.49540874e-02 1.66860351e-11 1.65834298e-11 1.02605273e-13 1.43987908e-48 8.56813250e-50 1.65834298e-11
6.30957344e-02 1.67124249e-11 1.65834298e-11 1.28995104e-13 4.71764856e-43 3.12070519e-44 1.65834298e-11
7.24435960e-02 1.67109825e-11 1.65834298e-11 1.27552695e-13 2.74911517e-38 1.69291966e-39 1.65834298e-11
8.31763771e-02 1.67096244e-11 1.65834298e-11 1.26194600e-13 2.85303615e-34 1.73392666e-35 1.65834298e-11
9.54992586e-02 1.67155967e-11 1.65834298e-11 1.32166876e-13 8.15300618e-31 5.16043465e-32 1.65834298e-11
1.09647820e-01 1.59661608e-11 1.58370587e-11 1.29102104e-13 7.04238365e-28 4.92284482e-29 1.58370587e-11
1.25892541e-01 1.48937177e-11 1.47800032e-11 1.13714539e-13 2.31359800e-25 1.62736445e-26 1.47800032e-11
1.44543977e-01 1.38947956e-11 1.37935015e-11 1.01294041e-13 3.18508095e-23 2.21209402e-24 1.37935015e-11
1.65958691e-01 1.29777335e-11 1.28728446e-11 1.04888859e-13 1.63585699e-21 1.30708270e-22 1.28728446e-11
1.90546072e-01 1.21319910e-11 1.20136376e-11 1.18353406e-13 3.48470856e-20 3.33511783e-21 1.20136376e-11
2.18776162e-01 1.13342930e-11 1.12117790e-11 1.22513610e-13 4.13137539e-19 4.02443536e-20 1.12117790e-11
2.51188643e-01 1.06048110e-11 1.04634409e-11 1.41364938e-13 5.12756638e-18 6.46998549e-19 1.04634409e-11
2.88403150e-01 9.89240070e-12 9.76505125e-12 1.27306483e-13 4.29648363e-17 5.41075699e-18 9.76505125e-12
3.31131121e-01 9.22794581e-12 9.11327608e-12 1.14422738e-13 2.46988046e-16 3.02978305e-17 9.11327608e-12
3.80189396e-01 8.61094592e-12 8.50500410e-12 1.04907128e-13 1.03469532e-15 1.26449598e-16 8.50500410e-12
4.36515832e-01 8.03739935e-12 7.93733165e-12 9.67797906e-14 3.28790965e-15 4.01031608e-16 7.93733165e-12
5.01187234e-01 7.50680158e-12 7.40754890e-12 9.10101112e-14 8.24257134e-15 9.99423520e-16 7.40754890e-12
5.75439937e-01 7.01372936e-12 6.91312687e-12 8.34560964e-14 1.71463983e-14 2.11764449e-15 6.91312687e-12
6.60693448e-01 6.56150285e-12 6.45170538e-12 7.90171226e-14 3.07803429e-14 3.88339354e-15 6.45170538e-12
7.58577575e-01 6.14479438e-12 6.02108180e-12 7.31139297e-14 5.05986547e-14 6.65167875e-15 6.02108180e-12
8.70963590e-01 5.76331758e-12 5.61920048e-12 6.47131323e-14 7.94039687e-14 1.07861205e-14 5.61920048e-12
1.00000000e+00 5.42587004e-12 5.24414302e-12 5.82953694e-14 1.23431655e-13 1.74136616e-14 5.24414302e-12
1.14815362e+00 5.13923591e-12 4.89411902e-12 4.84633058e-14 1.96653580e-13 2.71888198e-14 4.89411902e-12
1.31825674e+00 4.92610988e-12 4.56745763e-12 3.98760049e-14 3.18776253e-13 4.12175524e-14 4.56745763e-12
1.51356125e+00 4.79832025e-12 4.26259947e-12 3.07943423e-14 5.04926433e-13 5.84057585e-14 4.26259947e-12
1.73780083e+00 4.75383611e-12 3.97808929e-12 2.38359424e-14 7.51910874e-13 7.43872404e-14 3.97808929e-12
1.99526231e+00 4.76147388e-12 3.71256894e-12 1.79712157e-14 1.03093372e-12 8.31553964e-14 3.71256894e-12
2.29086765e+00 4.77616191e-12 3.46477093e-12 1.28211047e-14 1.29856987e-12 8.27867452e-14 3.46477093e-12
2.63026799e+00 4.75536141e-12 3.23351237e-12 9.24496827e-15 1.51260407e-12 7.42745897e-14 3.23351237e-12
3.01995172e+00 4.66877092e-12 3.01768933e-12 6.28704969e-15 1.64479455e-12 6.03722627e-14 3.01768933e-12
3.46736850e+00 4.51071519e-12 2.81627154e-12 4.15433505e-15 1.69028931e-12 4.51140257e-14 2.81627154e-12
3.98107171e+00 4.28020577e-12 2.62829753e-12 2.69928726e-15 1.64920895e-12 3.10900686e-14 2.62829753e-12
4.57088190e+00 4.00228132e-12 2.45286997e-12 1.62550969e-15 1.54778583e-12 1.98462177e-14 2.45286997e-12
5.24807460e+00 3.44433205e-12 2.02814751e-12 8.77522680e-16 1.41530702e-12 1.19314364e-14 2.02814751e-12
6.02559586e+00 2.61719913e-12 1.33998377e-12 3.63974910e-16 1.27685139e-12 6.78482656e-15 1.33998377e-12
6.70000000e+00 2.14356407e-12 9.74709347e-13 1.74581422e-16 1.16868014e-12 4.17405344e-15 9.74709347e-13
6.92422916e+00 2.01779958e-12 8.83049889e-13 1.40717882e-16 1.13460897e-12 3.58983214e-15 8.83049889e-13
7.15596261e+00 1.91265463e-12 8.00009879e-13 1.10699311e-16 1.11253405e-12 3.06166771e-15 8.00009879e-13
7.39545150e+00 1.84390398e-12 7.24778763e-13 8.44823554e-17 1.11904073e-12 2.60734254e-15 7.24778763e-13
7.64295536e+00 1.86115029e-12 6.56622211e-13 6.11599870e-17 1.20446692e-12 2.24526219e-15 6.56622211e-13
7.89874245e+00 2.00762139e-12 5.94874946e-13 4.16561194e-17 1.41270479e-12 1.96853775e-15 5.94874946e-13
8.16308998e+00 2.25161998e-12 5.38934254e-13 2.71587782e-17 1.71265857e-12 1.71820513e-15 5.38934254e-13
8.43628443e+00 2.60619554e-12 4.88254098e-13 1.62638783e-17 2.11792517e-12 1.41996102e-15 4.88254098e-13
8.71862190e+00 2.83314068e-12 4.42339790e-13 1.07199921e-17 2.39079017e-12 1.15690459e-15 4.42339790e-13
9.01040836e+00 3.06987031e-12 4.00743158e-13 6.51184964e-18 2.66912064e-12 8.47715947e-16 4.00743158e-13
9.31196005e+00 3.23648947e-12 3.63058180e-13 0.00000000e+00 2.87343129e-12 0.00000000e+00 3.63058180e-13
9.62360379e+00 3.17104728e-12 3.28917012e-13 0.00000000e+00 2.84213027e-12 0.00000000e+00 3.28917012e-13
9.94567731e+00 2.96292485e-12 2.97986401e-13 0.00000000e+00 2.66493845e-12 0.00000000e+00 2.97986401e-13
1.02785297e+01 2.70190261e-12 2.69964435e-13 0.00000000e+00 2.43193817e-12 0.00000000e+00 2.69964435e-13
1.06225216e+01 2.44665338e-12 2.44577592e-13 0.00000000e+00 2.20207579e-12 0.00000000e+00 2.44577592e-13
1.09780260e+01 2.17224517e-12 2.21578069e-13 0.00000000e+00 1.95066710e-12 0.00000000e+00 2.21578069e-13
1.13454280e+01 1.94005455e-12 2.00741370e-13 0.00000000e+00 1.73931318e-12 0.00000000e+00 2.00741370e-13
1.17251259e+01 1.73451572e-12 1.81864106e-13 0.00000000e+00 1.55265161e-12 0.00000000e+00 1.81864106e-13
1.21175312e+01 1.54838922e-12 1.64762018e-13 0.00000000e+00 1.38362721e-12 0.00000000e+00 1.64762018e-13
1.25230691e+01 1.38190219e-12 1.49268171e-13 0.00000000e+00 1.23263402e-12 0.00000000e+00 1.49268171e-13
1.29421791e+01 1.24005789e-12 1.35231331e-13 0.00000000e+00 1.10482656e-12 0.00000000e+00 1.35231331e-13
1.33753155e+01 1.11806874e-12 1.22514483e-13 0.00000000e+00 9.95554255e-13 0.00000000e+00 1.22514483e-13
1.38229477e+01 1.03588959e-12 1.10993499e-13 0.00000000e+00 9.24896088e-13 0.00000000e+00 1.10993499e-13
1.42855609e+01 9.84834583e-13 1.00555922e-13 0.00000000e+00 8.84278661e-13 0.00000000e+00 1.00555922e-13
1.47636563e+01 9.88854247e-13 9.10998706e-14 0.00000000e+00 8.97754376e-13 0.00000000e+00 9.10998706e-14
1.52577522e+01 1.00275528e-12 8.25330452e-14 0.00000000e+00 9.20222240e-13 0.00000000e+00 8.25330452e-14
1.57683840e+01 1.02756713e-12 7.47718247e-14 0.00000000e+00 9.52795306e-13 0.00000000e+00 7.47718247e-14
1.62961051e+01 1.05561280e-12 6.77404517e-14 0.00000000e+00 9.87872351e-13 0.00000000e+00 6.77404517e-14
1.68414875e+01 1.08140529e-12 6.13702932e-14 0.00000000e+00 1.02003500e-12 0.00000000e+00 6.13702932e-14
1.74051222e+01 1.09250093e-12 5.55991699e-14 0.00000000e+00 1.03690176e-12 0.00000000e+00 5.55991699e-14
1.79876201e+01 1.09259309e-12 5.03707500e-14 0.00000000e+00 1.04222234e-12 0.00000000e+00 5.03707500e-14
1.85896125e+01 1.07177849e-12 4.56339988e-14 0.00000000e+00 1.02614449e-12 0.00000000e+00 4.56339988e-14
1.92117518e+01 1.03469051e-12 4.13426810e-14 0.00000000e+00 9.93347832e-13 0.00000000e+00 4.13426810e-14
1.98547123e+01 9.85680995e-13 3.74549090e-14 0.00000000e+00 9.48226086e-13 0.00000000e+00 3.74549090e-14
2.05191907e+01 9.33718135e-13 3.39327342e-14 0.00000000e+00 8.99785401e-13 0.00000000e+00 3.39327342e-14
2.12059073e+01 8.82847071e-13 3.07417768e-14 0.00000000e+00 8.52105295e-13 0.00000000e+00 3.07417768e-14
2.19156062e+01 8.38296760e-13 2.78508898e-14 0.00000000e+00 8.10445871e-13 0.00000000e+00 2.78508898e-14
2.26490567e+01 7.95692001e-13 2.52318552e-14 0.00000000e+00 7.70460146e-13 0.00000000e+00 2.52318552e-14
2.34070535e+01 7.56430885e-13 2.28591087e-14 0.00000000e+00 7.33571776e-13 0.00000000e+00 2.28591087e-14
2.41904183e+01 7.19166767e-13 2.07094900e-14 0.00000000e+00 6.98457277e-13 0.00000000e+00 2.07094900e-14
2.50000000e+01 6.84529064e-13 1.87620165e-14 0.00000000e+00 6.65767048e-13 0.00000000e+00 1.87620165e-14
2.75422870e+01 5.87726536e-13 1.40313526e-14 0.00000000e+00 5.73695184e-13 0.00000000e+00 1.40313526e-14
3.16227766e+01 4.62613966e-13 9.27042274e-15 0.00000000e+00 4.53343543e-13 0.00000000e+00 9.27042274e-15
3.63078055e+01 3.47181856e-13 6.12490756e-15 0.00000000e+00 3.41056949e-13 0.00000000e+00 6.12490756e-15
4.16869383e+01 2.44066307e-13 4.04668630e-15 0.00000000e+00 2.40019620e-13 0.00000000e+00 4.04668630e-15
4.78630092e+01 1.60946984e-13 2.67361912e-15 0.00000000e+00 1.58273365e-13 0.00000000e+00 2.67361912e-15
5.49540874e+01 1.00825310e-13 1.76644264e-15 0.00000000e+00 9.90588675e-14 0.00000000e+00 1.76644264e-15
6.30957344e+01 6.07343963e-14 1.16707708e-15 0.00000000e+00 5.95673192e-14 0.00000000e+00 1.16707708e-15
7.24435960e+01 3.54638352e-14 7.71080178e-16 0.00000000e+00 3.46927550e-14 0.00000000e+00 7.71080178e-16
8.31763771e+01 2.02553361e-14 5.09447621e-16 0.00000000e+00 1.97458884e-14 0.00000000e+00 5.09447621e-16
9.54992586e+01 1.13903581e-14 3.36588705e-16 0.00000000e+00 1.10537694e-14 0.00000000e+00 3.36588705e-16
1.09647820e+02 6.33207338e-15 2.22381952e-16 0.00000000e+00 6.10969142e-15 0.00000000e+00 2.22381952e-16
1.25892541e+02 3.52898663e-15 1.46926299e-16 0.00000000e+00 3.38206033e-15 0.00000000e+00 1.46926299e-16
1.44543977e+02 1.96029364e-15 9.70732430e-17 0.00000000e+00 1.86322039e-15 0.00000000e+00 9.70732430e-17
1.65958691e+02 1.04097280e-15 6.41356556e-17 0.00000000e+00 9.76837141e-16 0.00000000e+00 6.41356556e-17
1.90546072e+02 5.55217472e-16 4.23740075e-17 0.00000000e+00 5.12843465e-16 0.00000000e+00 4.23740075e-17
2.18776162e+02 2.96834103e-16 2.79962291e-17 0.00000000e+00 2.68837874e-16 0.00000000e+00 2.79962291e-17
2.51188643e+02 1.58916821e-16 1.84969251e-17 0.00000000e+00 1.40419896e-16 0.00000000e+00 1.84969251e-17
2.88403150e+02 8.52071135e-17 1.22207972e-17 0.00000000e+00 7.29863162e-17 0.00000000e+00 1.22207972e-17
3.31131121e+02 4.58949242e-17 8.07420067e-18 0.00000000e+00 3.78207235e-17 0.00000000e+00 8.07420067e-18
3.80189396e+02 2.48514273e-17 5.33457148e-18 0.00000000e+00 1.95168558e-17 0.00000000e+00 5.33457148e-18
4.36515832e+02 1.35676204e-17 3.52451642e-18 0.00000000e+00 1.00431039e-17 0.00000000e+00 3.52451642e-18
5.01187234e+02 7.48091609e-18 2.32862491e-18 0.00000000e+00 5.15229118e-18 0.00000000e+00 2.32862491e-18
5.75439937e+02 4.17502776e-18 1.53850722e-18 0.00000000e+00 2.63652054e-18 0.00000000e+00 1.53850722e-18
6.60693448e+02 2.36265327e-18 1.01648164e-18 0.00000000e+00 1.34617163e-18 0.00000000e+00 1.01648164e-18
7.58577575e+02 1.35758609e-18 6.71582760e-19 0.00000000e+00 6.86003329e-19 0.00000000e+00 6.71582760e-19
8.70963590e+02 7.92614028e-19 4.43710329e-19 0.00000000e+00 3.48903699e-19 0.00000000e+00 4.43710329e-19
1.00000000e+03 1.77130547e-19 0.00000000e+00 0.00000000e+00 1.77130547e-19 0.00000000e+00 0.00000000e+00
