# column 1: lambda (micron)
# column 2: total flux; lambda*F_lambda (W/m2)
# column 3: direct stellar flux; lambda*F_lambda (W/m2)
# column 4: scattered stellar flux; lambda*F_lambda (W/m2)
# column 5: total dust emission flux; lambda*F_lambda (W/m2)
# column 6: dust emission scattered flux; lambda*F_lambda (W/m2)
# column 7: transparent flux; lambda*F_lambda (W/m2)
1.00000000e-03 3.57785592e-13 3.57785423e-13 1.68703291e-19 0.00000000e+00 0.00000000e+00 3.57785423e-13
1.14815362e-03 4.22301757e-13 4.22301518e-13 2.38816859e-19 0.00000000e+00 0.00000000e+00 4.22301518e-13
1.31825674e-03 4.98451556e-13 4.98451197e-13 3.58948724e-19 0.00000000e+00 0.00000000e+00 4.98451197e-13
1.51356125e-03 5.88332736e-13 5.88332233e-13 5.02425687e-19 0.00000000e+00 0.00000000e+00 5.88332233e-13
1.73780083e-03 6.94421845e-13 6.94420676e-13 1.16956161e-18 0.00000000e+00 0.00000000e+00 6.94420676e-13
1.99526231e-03 8.19640833e-13 8.19639053e-13 1.78024976e-18 0.00000000e+00 0.00000000e+00 8.19639053e-13
2.29086765e-03 9.67439587e-13 9.67436888e-13 2.69908960e-18 0.00000000e+00 0.00000000e+00 9.67436888e-13
2.63026799e-03 1.14189193e-12 1.14188572e-12 6.20749247e-18 0.00000000e+00 0.00000000e+00 1.14188572e-12
3.01995172e-03 1.34779984e-12 1.34779128e-12 8.55819248e-18 0.00000000e+00 0.00000000e+00 1.34779128e-12
3.46736850e-03 1.59084357e-12 1.59082586e-12 1.77091379e-17 0.00000000e+00 0.00000000e+00 1.59082586e-12
3.98107171e-03 1.87770861e-12 1.87768459e-12 2.40143614e-17 0.00000000e+00 0.00000000e+00 1.87768459e-12
4.57088190e-03 2.21632896e-12 2.21626987e-12 5.90831189e-17 0.00000000e+00 0.00000000e+00 2.21626987e-12
5.24807460e-03 2.61601128e-12 2.61590907e-12 1.02214698e-16 0.00000000e+00 0.00000000e+00 2.61590907e-12
6.02559586e-03 3.08781779e-12 3.08761145e-12 2.06333838e-16 0.00000000e+00 0.00000000e+00 3.08761145e-12
6.91830971e-03 3.64470660e-12 3.64437151e-12 3.35091364e-16 0.00000000e+00 0.00000000e+00 3.64437151e-12
7.94328235e-03 4.30206910e-12 4.30152690e-12 5.42201535e-16 2.67501044e-304 6.84601308e-306 4.30152690e-12
9.12010839e-03 5.07794617e-12 5.07718096e-12 7.65207873e-16 1.19920529e-265 5.66954850e-267 5.07718096e-12
1.04712855e-02 5.67156568e-12 5.67051724e-12 1.04843743e-15 4.88472606e-232 5.40718272e-234 5.67051724e-12
1.20226443e-02 5.67222812e-12 5.67051724e-12 1.71088325e-15 7.76505460e-203 2.00248873e-204 5.67051724e-12
1.38038426e-02 5.67310182e-12 5.67051724e-12 2.58458503e-15 2.11362317e-177 5.52750461e-179 5.67051724e-12
1.58489319e-02 5.67414091e-12 5.67051724e-12 3.62367034e-15 2.86094969e-155 8.34766454e-157 5.67051724e-12
1.81970086e-02 5.67540911e-12 5.67051724e-12 4.89187357e-15 5.10890152e-136 1.64828248e-137 5.67051724e-12
2.08929613e-02 5.67836974e-12 5.67051724e-12 7.85249767e-15 2.67415358e-119 9.84700881e-121 5.67051724e-12
2.39883292e-02 5.67925625e-12 5.67051724e-12 8.73900656e-15 9.39408081e-105 3.90712361e-106 5.67051724e-12
2.75422870e-02 5.68272997e-12 5.67051724e-12 1.22127300e-14 4.19661986e-92 1.87177521e-93 5.67051724e-12
3.16227766e-02 5.68714680e-12 5.67051724e-12 1.66295644e-14 4.07489297e-81 1.83200447e-82 5.67051724e-12
3.63078055e-02 5.68700856e-12 5.67051724e-12 1.64913246e-14 1.41154027e-71 6.77332491e-73 5.67051724e-12
4.16869383e-02 5.69063856e-12 5.67051724e-12 2.01213242e-14 2.67980546e-63 1.42990277e-64 5.67051724e-12
4.78630092e-02 5.69936423e-12 5.67051724e-12 2.88469938e-14 4.01756909e-56 2.33206319e-57 5.67051724e-12
5.49540874e-02 5.69880360e-12 5.67051724e-12 2.82863624e-14 6.62970877e-50 4.25482459e-51 5.67051724e-12
6.30957344e-02 5.70220800e-12 5.67051724e-12 3.16907646e-14 2.09930311e-44 1.47522409e-45 5.67051724e-12
7.24435960e-02 5.70143502e-12 5.67051724e-12 3.09177855e-14 1.17877889e-39 7.54536984e-41 5.67051724e-12
8.31763771e-02 5.69845773e-12 5.67051724e-12 2.79404930e-14 1.21140067e-35 7.60479863e-37 5.67051724e-12
9.54992586e-02 5.69816580e-12 5.67051724e-12 2.76485648e-14 3.42777871e-32 2.17207245e-33 5.67051724e-12
1.09647820e-01 5.44564492e-12 5.41530405e-12 3.03408696e-14 2.96046851e-29 1.95054969e-30 5.41530405e-12
1.25892541e-01 5.08259717e-12 5.05385580e-12 2.87413694e-14 9.75962971e-27 6.50260568e-28 5.05385580e-12
1.44543977e-01 4.74160854e-12 4.71653266e-12 2.50758872e-14 1.34231645e-24 8.19317644e-26 4.71653266e-12
1.65958691e-01 4.42893164e-12 4.40172439e-12 2.72072494e-14 6.84124600e-23 4.33097335e-24 4.40172439e-12
1.90546072e-01 4.13403132e-12 4.10792822e-12 2.61031079e-14 1.43040822e-21 1.02038591e-22 4.10792822e-12
2.18776162e-01 3.85962148e-12 3.83374167e-12 2.58797920e-14 1.67326730e-20 1.21373300e-21 3.83374167e-12
2.51188643e-01 3.60264334e-12 3.57785591e-12 2.47872285e-14 2.04159708e-19 1.62938189e-20 3.57785591e-12
2.88403150e-01 3.36360591e-12 3.33904941e-12 2.45547813e-14 1.71252364e-18 1.30544311e-19 3.33904941e-12
3.31131121e-01 3.13889645e-12 3.11618222e-12 2.27043514e-14 9.87479196e-18 7.24527755e-19 3.11618222e-12
3.80189396e-01 2.92786676e-12 2.90819046e-12 1.96350035e-14 4.12959798e-17 2.86444749e-18 2.90819046e-12
4.36515832e-01 2.73288294e-12 2.71408126e-12 1.86706504e-14 1.31030832e-16 8.69606704e-18 2.71408126e-12
5.01187234e-01 2.54971345e-12 2.53292801e-12 1.64575153e-14 3.27931670e-16 2.09050270e-17 2.53292801e-12
5.75439937e-01 2.37984155e-12 2.36386595e-12 1.53003067e-14 6.75288724e-16 4.06063514e-17 2.36386595e-12
6.60693448e-01 2.22079160e-12 2.20608807e-12 1.35136860e-14 1.18984636e-15 6.84219390e-17 2.20608807e-12
7.58577575e-01 2.07221786e-12 2.05884118e-12 1.14997308e-14 1.87694907e-15 1.00401299e-16 2.05884118e-12
8.70963590e-01 1.93433456e-12 1.92142238e-12 1.01558311e-14 2.75634783e-15 1.35598051e-16 1.92142238e-12
1.00000000e+00 1.80538274e-12 1.79317570e-12 8.27365189e-15 3.93338882e-15 1.83693475e-16 1.79317570e-12
1.14815362e+00 1.68663513e-12 1.67348894e-12 7.26761014e-15 5.87857982e-15 2.71217819e-16 1.67348894e-12
1.31825674e+00 1.57684829e-12 1.56179075e-12 5.48695539e-15 9.57058520e-15 4.44878194e-16 1.56179075e-12
1.51356125e+00 1.47881039e-12 1.45754793e-12 4.62776585e-15 1.66346943e-14 7.59598545e-16 1.45754793e-12
1.73780083e+00 1.39286362e-12 1.36026288e-12 3.55031197e-15 2.90504344e-14 1.28543565e-15 1.36026288e-12
1.99526231e+00 1.32023369e-12 1.26947118e-12 2.51229487e-15 4.82502115e-14 1.88367304e-15 1.26947118e-12
2.29086765e+00 1.26047423e-12 1.18473944e-12 1.81846176e-15 7.39163258e-14 2.37538691e-15 1.18473944e-12
2.63026799e+00 1.21112403e-12 1.10566318e-12 1.30046248e-15 1.04160393e-13 2.63835862e-15 1.10566318e-12
3.01995172e+00 1.16848045e-12 1.03186491e-12 8.91425397e-16 1.35724106e-13 2.62901538e-15 1.03186491e-12
3.46736850e+00 1.12734863e-12 9.62992369e-13 6.28551711e-16 1.63727710e-13 2.38566653e-15 9.62992369e-13
3.98107171e+00 1.08355917e-12 8.98716770e-13 4.16044307e-16 1.84426359e-13 1.93273812e-15 8.98716770e-13
4.57088190e+00 1.03485494e-12 8.38731291e-13 2.60274393e-16 1.95863378e-13 1.44913865e-15 8.38731291e-13
5.24807460e+00 8.91857594e-13 6.93502223e-13 1.40456675e-16 1.98214914e-13 9.90281132e-16 6.93502223e-13
6.02559586e+00 6.51294401e-13 4.58192375e-13 6.07998054e-17 1.93041226e-13 6.22504412e-16 4.58192375e-13
6.70000000e+00 5.18777055e-13 3.33290895e-13 2.98512773e-17 1.85456309e-13 4.10919231e-16 3.33290895e-13
6.92422916e+00 4.84277721e-13 3.01948975e-13 2.49470743e-17 1.82303800e-13 3.60307604e-16 3.01948975e-13
7.15596261e+00 4.54040201e-13 2.73554377e-13 1.84035133e-17 1.80467420e-13 3.08329271e-16 2.73554377e-13
7.39545150e+00 4.29988783e-13 2.47829944e-13 1.50607942e-17 1.82143778e-13 2.64253643e-16 2.47829944e-13
7.64295536e+00 4.18457966e-13 2.24524577e-13 1.07389563e-17 1.93922650e-13 2.23216957e-16 2.24524577e-13
7.89874245e+00 4.26831451e-13 2.03410795e-13 6.40783621e-18 2.23414248e-13 1.82830849e-16 2.03410795e-13
8.16308998e+00 4.50517870e-13 1.84282505e-13 3.94544069e-18 2.66231420e-13 1.48010914e-16 1.84282505e-13
8.43628443e+00 4.95500761e-13 1.66952996e-13 2.43609512e-18 3.28545330e-13 1.13326969e-16 1.66952996e-13
8.71862190e+00 5.25451983e-13 1.51253114e-13 1.47142086e-18 3.74197398e-13 8.81894383e-17 1.51253114e-13
9.01040836e+00 5.61942578e-13 1.37029614e-13 8.43612634e-19 4.24912120e-13 6.20474271e-17 1.37029614e-13
9.31196005e+00 5.91894506e-13 1.24143660e-13 0.00000000e+00 4.67750846e-13 0.00000000e+00 1.24143660e-13
9.62360379e+00 5.82178233e-13 1.12469472e-13 0.00000000e+00 4.69708762e-13 0.00000000e+00 1.12469472e-13
9.94567731e+00 5.45918079e-13 1.01893097e-13 0.00000000e+00 4.44024981e-13 0.00000000e+00 1.01893097e-13
1.02785297e+01 5.00284563e-13 9.23113014e-14 0.00000000e+00 4.07973262e-13 0.00000000e+00 9.23113014e-14
1.06225216e+01 4.55455379e-13 8.36305558e-14 0.00000000e+00 3.71824823e-13 0.00000000e+00 8.36305558e-14
1.09780260e+01 4.09119133e-13 7.57661279e-14 0.00000000e+00 3.33353005e-13 0.00000000e+00 7.57661279e-14
1.13454280e+01 3.66139413e-13 6.86412529e-14 0.00000000e+00 2.97498160e-13 0.00000000e+00 6.86412529e-14
1.17251259e+01 3.30874015e-13 6.21863851e-14 0.00000000e+00 2.68687630e-13 0.00000000e+00 6.21863851e-14
1.21175312e+01 2.97631531e-13 5.63385184e-14 0.00000000e+00 2.41293013e-13 0.00000000e+00 5.63385184e-14
1.25230691e+01 2.67667806e-13 5.10405718e-14 0.00000000e+00 2.16627235e-13 0.00000000e+00 5.10405718e-14
1.29421791e+01 2.42281885e-13 4.62408321e-14 0.00000000e+00 1.96041053e-13 0.00000000e+00 4.62408321e-14
1.33753155e+01 2.20382249e-13 4.18924490e-14 0.00000000e+00 1.78489800e-13 0.00000000e+00 4.18924490e-14
1.38229477e+01 2.05328283e-13 3.79529781e-14 0.00000000e+00 1.67375305e-13 0.00000000e+00 3.79529781e-14
1.42855609e+01 1.95152478e-13 3.43839660e-14 0.00000000e+00 1.60768512e-13 0.00000000e+00 3.43839660e-14
1.47636563e+01 1.94958228e-13 3.11505758e-14 0.00000000e+00 1.63807652e-13 0.00000000e+00 3.11505758e-14
1.52577522e+01 1.96508863e-13 2.82212462e-14 0.00000000e+00 1.68287617e-13 0.00000000e+00 2.82212462e-14
1.57683840e+01 1.99922132e-13 2.55673842e-14 0.00000000e+00 1.74354748e-13 0.00000000e+00 2.55673842e-14
1.62961051e+01 2.04469435e-13 2.31630853e-14 0.00000000e+00 1.81306349e-13 0.00000000e+00 2.31630853e-14
1.68414875e+01 2.08098487e-13 2.09848813e-14 0.00000000e+00 1.87113605e-13 0.00000000e+00 2.09848813e-14
1.74051222e+01 2.09838574e-13 1.90115106e-14 0.00000000e+00 1.90827063e-13 0.00000000e+00 1.90115106e-14
1.79876201e+01 2.09610464e-13 1.72237112e-14 0.00000000e+00 1.92386752e-13 0.00000000e+00 1.72237112e-14
1.85896125e+01 2.05916127e-13 1.56040325e-14 0.00000000e+00 1.90312095e-13 0.00000000e+00 1.56040325e-14
1.92117518e+01 1.99093569e-13 1.41366646e-14 0.00000000e+00 1.84956904e-13 0.00000000e+00 1.41366646e-14
1.98547123e+01 1.89977329e-13 1.28072847e-14 0.00000000e+00 1.77170044e-13 0.00000000e+00 1.28072847e-14
2.05191907e+01 1.81135117e-13 1.16029167e-14 0.00000000e+00 1.69532200e-13 0.00000000e+00 1.16029167e-14
2.12059073e+01 1.72682165e-13 1.05118047e-14 0.00000000e+00 1.62170360e-13 0.00000000e+00 1.05118047e-14
2.19156062e+01 1.64413849e-13 9.52329842e-15 0.00000000e+00 1.54890551e-13 0.00000000e+00 9.52329842e-15
2.26490567e+01 1.57592948e-13 8.62774902e-15 0.00000000e+00 1.48965199e-13 0.00000000e+00 8.62774902e-15
2.34070535e+01 1.50713129e-13 7.81641505e-15 0.00000000e+00 1.42896714e-13 0.00000000e+00 7.81641505e-15
2.41904183e+01 1.44269544e-13 7.08137710e-15 0.00000000e+00 1.37188166e-13 0.00000000e+00 7.08137710e-15
2.50000000e+01 1.38354749e-13 6.41546044e-15 0.00000000e+00 1.31939289e-13 0.00000000e+00 6.41546044e-15
2.75422870e+01 1.22149310e-13 4.79786316e-15 0.00000000e+00 1.17351447e-13 0.00000000e+00 4.79786316e-15
3.16227766e+01 1.00350715e-13 3.16991676e-15 0.00000000e+00 9.71807978e-14 0.00000000e+00 3.16991676e-15
3.63078055e+01 7.92055895e-14 2.09434323e-15 0.00000000e+00 7.71112463e-14 0.00000000e+00 2.09434323e-15
4.16869383e+01 5.89809410e-14 1.38371885e-15 0.00000000e+00 5.75972221e-14 0.00000000e+00 1.38371885e-15
4.78630092e+01 4.12256107e-14 9.14213979e-16 0.00000000e+00 4.03113967e-14 0.00000000e+00 9.14213979e-16
5.49540874e+01 2.72977059e-14 6.04015186e-16 0.00000000e+00 2.66936907e-14 0.00000000e+00 6.04015186e-16
6.30957344e+01 1.72859794e-14 3.99068876e-16 0.00000000e+00 1.68869105e-14 0.00000000e+00 3.99068876e-16
7.24435960e+01 1.05453115e-14 2.63662192e-16 0.00000000e+00 1.02816493e-14 0.00000000e+00 2.63662192e-16
8.31763771e+01 6.25015703e-15 1.74199882e-16 0.00000000e+00 6.07595715e-15 0.00000000e+00 1.74199882e-16
9.54992586e+01 3.62501586e-15 1.15092721e-16 0.00000000e+00 3.50992313e-15 0.00000000e+00 1.15092721e-16
1.09647820e+02 2.06667823e-15 7.60410067e-17 0.00000000e+00 1.99063723e-15 0.00000000e+00 7.60410067e-17
1.25892541e+02 1.17511812e-15 5.02397949e-17 0.00000000e+00 1.12487833e-15 0.00000000e+00 5.02397949e-17
1.44543977e+02 6.63212417e-16 3.31931033e-17 0.00000000e+00 6.30019314e-16 0.00000000e+00 3.31931033e-17
1.65958691e+02 3.57501738e-16 2.19304659e-17 0.00000000e+00 3.35571272e-16 0.00000000e+00 2.19304659e-17
1.90546072e+02 1.92915618e-16 1.44893151e-17 0.00000000e+00 1.78426303e-16 0.00000000e+00 1.44893151e-17
2.18776162e+02 1.04073520e-16 9.57299556e-18 0.00000000e+00 9.45005246e-17 0.00000000e+00 9.57299556e-18
2.51188643e+02 5.61115370e-17 6.32481544e-18 0.00000000e+00 4.97867216e-17 0.00000000e+00 6.32481544e-18
2.88403150e+02 3.02404535e-17 4.17876412e-18 0.00000000e+00 2.60616893e-17 0.00000000e+00 4.17876412e-18
3.31131121e+02 1.63458943e-17 2.76088208e-18 0.00000000e+00 1.35850122e-17 0.00000000e+00 2.76088208e-18
3.80189396e+02 8.86958566e-18 1.82409670e-18 0.00000000e+00 7.04548896e-18 0.00000000e+00 1.82409670e-18
4.36515832e+02 4.84594479e-18 1.20516874e-18 0.00000000e+00 3.64077605e-18 0.00000000e+00 1.20516874e-18
5.01187234e+02 2.67065771e-18 7.96247089e-19 0.00000000e+00 1.87441062e-18 0.00000000e+00 7.96247089e-19
5.75439937e+02 1.48812067e-18 5.26075235e-19 0.00000000e+00 9.62045433e-19 0.00000000e+00 5.26075235e-19
6.60693448e+02 8.40028514e-19 3.47574461e-19 0.00000000e+00 4.92454053e-19 0.00000000e+00 3.47574461e-19
7.58577575e+02 4.81135090e-19 2.29640169e-19 0.00000000e+00 2.51494922e-19 0.00000000e+00 2.29640169e-19
8.70963590e+02 2.79868088e-19 1.51721755e-19 0.00000000e+00 1.28146333e-19 0.00000000e+00 1.51721755e-19
1.00000000e+03 6.51591765e-20 0.00000000e+00 0.00000000e+00 6.51591765e-20 0.00000000e+00 0.00000000e+00
