# column 1: lambda (micron)
# column 2: total flux; lambda*F_lambda (W/m2)
# column 3: direct stellar flux; lambda*F_lambda (W/m2)
# column 4: scattered stellar flux; lambda*F_lambda (W/m2)
# column 5: total dust emission flux; lambda*F_lambda (W/m2)
# column 6: dust emission scattered flux; lambda*F_lambda (W/m2)
# column 7: transparent flux; lambda*F_lambda (W/m2)
1.00000000e-03 9.62246963e-13 9.62230311e-13 1.66515657e-17 0.00000000e+00 0.00000000e+00 9.68073281e-13
1.14815362e-03 1.13418302e-12 1.13353424e-12 6.48780129e-16 0.00000000e+00 0.00000000e+00 1.14263687e-12
1.31825674e-03 1.33514482e-12 1.33503254e-12 1.12272382e-16 0.00000000e+00 0.00000000e+00 1.34867788e-12
1.51356125e-03 1.57297021e-12 1.57290124e-12 6.89682515e-17 0.00000000e+00 0.00000000e+00 1.59187233e-12
1.73780083e-03 1.85642001e-12 1.85629777e-12 1.22239133e-16 0.00000000e+00 0.00000000e+00 1.87891976e-12
1.99526231e-03 2.18280706e-12 2.18239616e-12 4.10907584e-16 0.00000000e+00 0.00000000e+00 2.21772777e-12
2.29086765e-03 2.57382178e-12 2.57342875e-12 3.93033573e-16 0.00000000e+00 0.00000000e+00 2.61762985e-12
2.63026799e-03 3.02879279e-12 3.02722772e-12 1.56506313e-15 0.00000000e+00 0.00000000e+00 3.08964252e-12
3.01995172e-03 3.63135354e-12 3.55587470e-12 7.54788356e-14 0.00000000e+00 0.00000000e+00 3.64676883e-12
3.46736850e-03 4.18170440e-12 4.17818731e-12 3.51708956e-15 0.00000000e+00 0.00000000e+00 4.30435650e-12
3.98107171e-03 4.91484708e-12 4.91042211e-12 4.42496337e-15 0.00000000e+00 0.00000000e+00 5.08052080e-12
4.57088190e-03 5.87496834e-12 5.86196217e-12 1.30061680e-14 0.00000000e+00 0.00000000e+00 5.99664354e-12
5.24807460e-03 7.00990956e-12 6.87555881e-12 1.34350754e-13 0.00000000e+00 0.00000000e+00 7.07796211e-12
6.02559586e-03 8.13749252e-12 8.06706437e-12 7.04281525e-14 0.00000000e+00 0.00000000e+00 8.35426474e-12
6.91830971e-03 9.52775826e-12 9.47051996e-12 5.72383044e-14 0.00000000e+00 0.00000000e+00 9.86071107e-12
7.94328235e-03 1.12697089e-11 1.11261719e-11 1.43536936e-13 2.78675012e-303 7.58722359e-305 1.16388008e-11
9.12010839e-03 1.33328777e-11 1.30677197e-11 2.65157993e-13 1.56384048e-264 4.76433103e-266 1.37375167e-11
1.04712855e-02 1.47195980e-11 1.45483428e-11 1.71255207e-13 8.33953865e-231 4.15343370e-232 1.53429287e-11
1.20226443e-02 1.47452218e-11 1.45027553e-11 2.42466484e-13 1.53440611e-201 4.14662130e-203 1.53429287e-11
1.38038426e-02 1.47633898e-11 1.44488687e-11 3.14521117e-13 4.96331385e-176 1.90767662e-177 1.53429287e-11
1.58489319e-02 1.47650007e-11 1.43829203e-11 3.82080433e-13 7.70340973e-154 2.85977830e-155 1.53429287e-11
1.81970086e-02 1.47551781e-11 1.43223615e-11 4.32816613e-13 1.56834381e-134 7.67045673e-136 1.53429287e-11
2.08929613e-02 1.47814993e-11 1.42722183e-11 5.09280959e-13 9.12063811e-118 4.68381204e-119 1.53429287e-11
2.39883292e-02 1.47888193e-11 1.42075106e-11 5.81308695e-13 3.50628710e-103 1.87011267e-104 1.53429287e-11
2.75422870e-02 1.47797560e-11 1.41326132e-11 6.47142811e-13 1.70931458e-90 1.04694338e-91 1.53429287e-11
3.16227766e-02 1.47001494e-11 1.40595807e-11 6.40568728e-13 1.78252219e-79 1.10942636e-80 1.53429287e-11
3.63078055e-02 1.46600854e-11 1.40025618e-11 6.57523605e-13 6.57519570e-70 4.32928740e-71 1.53429287e-11
4.16869383e-02 1.46742818e-11 1.39534314e-11 7.20850466e-13 1.31957779e-61 9.48819417e-63 1.53429287e-11
4.78630092e-02 1.45346964e-11 1.38188950e-11 7.15801461e-13 2.07972750e-54 1.60655603e-55 1.53429287e-11
5.49540874e-02 1.43026561e-11 1.36339503e-11 6.68705824e-13 3.56440342e-48 2.81350442e-49 1.53429287e-11
6.30957344e-02 1.38109031e-11 1.31810131e-11 6.29889971e-13 1.17245823e-42 9.57583050e-44 1.53429287e-11
7.24435960e-02 1.32040278e-11 1.26639313e-11 5.40096560e-13 6.84123446e-38 5.08064177e-39 1.53429287e-11
8.31763771e-02 1.32283049e-11 1.27091098e-11 5.19195107e-13 7.18804905e-34 5.19488237e-35 1.53429287e-11
9.54992586e-02 1.33627564e-11 1.28425477e-11 5.20208721e-13 2.08074619e-30 1.52726885e-31 1.53429287e-11
1.09647820e-01 1.31799561e-11 1.26394197e-11 5.40536478e-13 1.83113581e-27 1.45924838e-28 1.46523889e-11
1.25892541e-01 1.26505637e-11 1.21081385e-11 5.42425191e-13 6.12664885e-25 4.99527632e-26 1.36744049e-11
1.44543977e-01 1.20363743e-11 1.15377004e-11 4.98673870e-13 8.55041902e-23 6.88651946e-24 1.27616972e-11
1.65958691e-01 1.14006057e-11 1.09046723e-11 4.95933413e-13 4.42901415e-21 3.93732661e-22 1.19099088e-11
1.90546072e-01 1.06194525e-11 1.01170188e-11 5.02433607e-13 9.42992318e-20 9.47377420e-21 1.11149736e-11
2.18776162e-01 9.71994210e-12 9.28930615e-12 4.30634836e-13 1.11628853e-18 1.12474720e-19 1.03730969e-11
2.51188643e-01 9.34815662e-12 8.86300067e-12 4.85142058e-13 1.38921196e-17 1.69950116e-18 9.68073733e-12
2.88403150e-01 8.86174616e-12 8.39628749e-12 4.65341043e-13 1.17634962e-16 1.45292077e-17 9.03458975e-12
3.31131121e-01 8.35123486e-12 7.90986832e-12 4.40684229e-13 6.82314351e-16 8.34801420e-17 8.43156974e-12
3.80189396e-01 7.84725385e-12 7.43959328e-12 4.04791571e-13 2.86900236e-15 3.45818103e-16 7.86879872e-12
4.36515832e-01 7.37308378e-12 6.99371985e-12 3.70209549e-13 9.15437472e-15 1.10103305e-15 7.34359025e-12
5.01187234e-01 6.94330327e-12 6.57214625e-12 3.48083204e-13 2.30738169e-14 2.78366065e-15 6.85343719e-12
5.75439937e-01 6.53924583e-12 6.17224347e-12 3.18866511e-13 4.81358519e-14 5.91513058e-15 6.39599973e-12
6.60693448e-01 6.17334634e-12 5.79270292e-12 2.93517787e-13 8.71256318e-14 1.11877787e-14 5.96909425e-12
7.58577575e-01 5.84653990e-12 5.43335882e-12 2.66776210e-13 1.46404870e-13 2.15859102e-14 5.57068288e-12
8.70963590e-01 5.57376867e-12 5.09434229e-12 2.35378977e-13 2.44047406e-13 4.26321656e-14 5.19886376e-12
1.00000000e+00 5.40188693e-12 4.77361545e-12 2.08117623e-13 4.20153860e-13 8.62785070e-14 4.85186196e-12
1.14815362e+00 5.41008529e-12 4.47050140e-12 1.77627083e-13 7.61956802e-13 1.68532567e-13 4.52802104e-12
1.31825674e+00 5.73580226e-12 4.18425824e-12 1.47823796e-13 1.40372023e-12 2.96104953e-13 4.22579511e-12
1.51356125e+00 6.48818026e-12 3.91405777e-12 1.20449103e-13 2.45367339e-12 4.73606255e-13 3.94374146e-12
1.73780083e+00 7.75462399e-12 3.65965027e-12 9.89024437e-14 3.99607127e-12 6.64325519e-13 3.68051368e-12
1.99526231e+00 9.35279014e-12 3.42042408e-12 7.81335159e-14 5.85423254e-12 8.15282850e-13 3.43485522e-12
2.29086765e+00 1.11694063e-11 3.19564427e-12 5.98071511e-14 7.91395483e-12 8.92170233e-13 3.20559341e-12
2.63026799e+00 1.29011451e-11 2.98471145e-12 4.43062779e-14 9.87212741e-12 8.83562929e-13 2.99163384e-12
3.01995172e+00 1.44113512e-11 2.78707729e-12 3.16984834e-14 1.15925755e-11 8.05286134e-13 2.79195514e-12
3.46736850e+00 1.54829774e-11 2.60211115e-12 2.17064936e-14 1.28591598e-11 6.64824409e-13 2.60560415e-12
3.98107171e+00 1.61794938e-11 2.42915815e-12 1.42986106e-14 1.37360371e-11 4.98774947e-13 2.43169128e-12
4.57088190e+00 1.63682947e-11 2.26752430e-12 9.11472266e-15 1.40916556e-11 3.35799725e-13 2.26938634e-12
5.24807460e+00 1.57798710e-11 1.87519775e-12 5.00426751e-15 1.38996690e-11 2.11169902e-13 1.87643467e-12
6.02559586e+00 1.46113220e-11 1.23906894e-12 2.07631222e-15 1.33701767e-11 1.22850154e-13 1.23974809e-12
6.70000000e+00 1.36329208e-11 9.01360247e-13 1.03161721e-15 1.27305290e-11 7.67866755e-14 9.01797527e-13
6.92422916e+00 1.33216669e-11 8.16612255e-13 8.23195772e-16 1.25042315e-11 6.57695695e-14 8.16994532e-13
7.15596261e+00 1.30543102e-11 7.39825937e-13 6.50407655e-16 1.23138338e-11 5.61319646e-14 7.40166218e-13
7.39545150e+00 1.30137298e-11 6.70247024e-13 4.98469177e-16 1.23429843e-11 4.75836286e-14 6.70562664e-13
7.64295536e+00 1.34622861e-11 6.07178668e-13 3.58813679e-16 1.28547486e-11 4.07481426e-14 6.07504471e-13
7.89874245e+00 1.45724997e-11 5.49994797e-13 2.34031063e-16 1.40222709e-11 3.40984140e-14 5.50376127e-13
8.16308998e+00 1.60550991e-11 4.98153578e-13 1.43360750e-16 1.55568022e-11 2.81665841e-14 4.98620004e-13
8.43628443e+00 1.76281296e-11 4.51143940e-13 7.94188739e-17 1.71769062e-11 2.14899015e-14 4.51730909e-13
8.71862190e+00 1.84724797e-11 4.08597848e-13 4.66725909e-17 1.80638352e-11 1.62594073e-14 4.09251158e-13
9.01040836e+00 1.90086985e-11 3.70049223e-13 2.17873768e-17 1.86386275e-11 1.06920400e-14 3.70766106e-13
9.31196005e+00 1.95127347e-11 3.35146940e-13 0.00000000e+00 1.91775878e-11 0.00000000e+00 3.35900102e-13
9.62360379e+00 1.94420543e-11 3.03612526e-13 0.00000000e+00 1.91384418e-11 0.00000000e+00 3.04312818e-13
9.94567731e+00 1.88017804e-11 2.75100594e-13 0.00000000e+00 1.85266798e-11 0.00000000e+00 2.75695930e-13
1.02785297e+01 1.81029483e-11 2.49282133e-13 0.00000000e+00 1.78536662e-11 0.00000000e+00 2.49770110e-13
1.06225216e+01 1.73763534e-11 2.25886604e-13 0.00000000e+00 1.71504668e-11 0.00000000e+00 2.26282295e-13
1.09780260e+01 1.64624692e-11 2.04693927e-13 0.00000000e+00 1.62577752e-11 0.00000000e+00 2.05003220e-13
1.13454280e+01 1.55443964e-11 1.85482459e-13 0.00000000e+00 1.53589139e-11 0.00000000e+00 1.85725182e-13
1.17251259e+01 1.46155331e-11 1.68068303e-13 0.00000000e+00 1.44474648e-11 0.00000000e+00 1.68260007e-13
1.21175312e+01 1.37332306e-11 1.52286586e-13 0.00000000e+00 1.35809440e-11 0.00000000e+00 1.52437217e-13
1.25230691e+01 1.27976782e-11 1.37984333e-13 0.00000000e+00 1.26596939e-11 0.00000000e+00 1.38102367e-13
1.29421791e+01 1.19114555e-11 1.25022396e-13 0.00000000e+00 1.17864331e-11 0.00000000e+00 1.25115533e-13
1.33753155e+01 1.10553420e-11 1.13275935e-13 0.00000000e+00 1.09420661e-11 0.00000000e+00 1.13349952e-13
1.38229477e+01 1.04691256e-11 1.02629245e-13 0.00000000e+00 1.03664963e-11 0.00000000e+00 1.02690779e-13
1.42855609e+01 1.00806951e-11 9.29804894e-14 0.00000000e+00 9.98771464e-12 0.00000000e+00 9.30339713e-14
1.47636563e+01 1.01378649e-11 8.42345096e-14 0.00000000e+00 1.00536304e-11 0.00000000e+00 8.42852675e-14
1.52577522e+01 1.03115510e-11 7.63102291e-14 0.00000000e+00 1.02352408e-11 0.00000000e+00 7.63592720e-14
1.57683840e+01 1.05048350e-11 6.91306256e-14 0.00000000e+00 1.04357044e-11 0.00000000e+00 6.91786191e-14
1.62961051e+01 1.07277282e-11 6.26263086e-14 0.00000000e+00 1.06651019e-11 0.00000000e+00 6.26732185e-14
1.68414875e+01 1.09389166e-11 5.67338231e-14 0.00000000e+00 1.08821828e-11 0.00000000e+00 5.67795711e-14
1.74051222e+01 1.10187471e-11 5.13967062e-14 0.00000000e+00 1.09673504e-11 0.00000000e+00 5.14401489e-14
1.79876201e+01 1.10007414e-11 4.65622724e-14 0.00000000e+00 1.09541791e-11 0.00000000e+00 4.66028339e-14
1.85896125e+01 1.07833042e-11 4.21837090e-14 0.00000000e+00 1.07411205e-11 0.00000000e+00 4.22204090e-14
1.92117518e+01 1.04067661e-11 3.82178609e-14 0.00000000e+00 1.03685482e-11 0.00000000e+00 3.82500974e-14
1.98547123e+01 9.97532333e-12 3.46253816e-14 0.00000000e+00 9.94069795e-12 0.00000000e+00 3.46531450e-14
2.05191907e+01 9.47113658e-12 3.13707719e-14 0.00000000e+00 9.43976581e-12 0.00000000e+00 3.13944418e-14
2.12059073e+01 8.99552782e-12 2.84220028e-14 0.00000000e+00 8.96710582e-12 0.00000000e+00 2.84421796e-14
2.19156062e+01 8.52118990e-12 2.57502585e-14 0.00000000e+00 8.49543964e-12 0.00000000e+00 2.57675415e-14
2.26490567e+01 8.05582917e-12 2.33295924e-14 0.00000000e+00 8.03249958e-12 0.00000000e+00 2.33444203e-14
2.34070535e+01 7.61031512e-12 2.11364189e-14 0.00000000e+00 7.58917870e-12 0.00000000e+00 2.11491639e-14
2.41904183e+01 7.19292900e-12 1.91493621e-14 0.00000000e+00 7.17377964e-12 0.00000000e+00 1.91603445e-14
2.50000000e+01 6.78873821e-12 1.73490651e-14 0.00000000e+00 6.77138915e-12 0.00000000e+00 1.73585491e-14
2.75422870e+01 5.65263118e-12 1.29755710e-14 0.00000000e+00 5.63965561e-12 0.00000000e+00 1.29817562e-14
3.16227766e+01 4.19585787e-12 8.57356292e-15 0.00000000e+00 4.18728431e-12 0.00000000e+00 8.57696126e-15
3.63078055e+01 2.95399454e-12 5.66488478e-15 0.00000000e+00 2.94832965e-12 0.00000000e+00 5.66674211e-15
4.16869383e+01 1.94471750e-12 3.74299116e-15 0.00000000e+00 1.94097451e-12 0.00000000e+00 3.74397938e-15
4.78630092e+01 1.20191134e-12 2.47311318e-15 0.00000000e+00 1.19943823e-12 0.00000000e+00 2.47362265e-15
5.49540874e+01 7.06557645e-13 1.63404921e-15 0.00000000e+00 7.04923596e-13 0.00000000e+00 1.63430628e-15
6.30957344e+01 4.00470129e-13 1.07964739e-15 0.00000000e+00 3.99390481e-13 0.00000000e+00 1.07977545e-15
7.24435960e+01 2.20724767e-13 7.13337229e-16 0.00000000e+00 2.20011430e-13 0.00000000e+00 7.13400564e-16
8.31763771e+01 1.19501327e-13 4.71307804e-16 0.00000000e+00 1.19030019e-13 0.00000000e+00 4.71339078e-16
9.54992586e+01 6.39496066e-14 3.11395161e-16 0.00000000e+00 6.36382114e-14 0.00000000e+00 3.11410641e-16
1.09647820e+02 3.39691145e-14 2.05739282e-16 0.00000000e+00 3.37633752e-14 0.00000000e+00 2.05746970e-16
1.25892541e+02 1.81667715e-14 1.35931799e-16 0.00000000e+00 1.80308397e-14 0.00000000e+00 1.35935675e-16
1.44543977e+02 9.71701053e-15 8.98098417e-17 0.00000000e+00 9.62720068e-15 0.00000000e+00 8.98118099e-17
1.65958691e+02 4.96805222e-15 5.93371093e-17 0.00000000e+00 4.90871511e-15 0.00000000e+00 5.93380743e-17
1.90546072e+02 2.55446616e-15 3.92037991e-17 0.00000000e+00 2.51526236e-15 0.00000000e+00 3.92042769e-17
2.18776162e+02 1.31705029e-15 2.59017708e-17 0.00000000e+00 1.29114852e-15 0.00000000e+00 2.59020089e-17
2.51188643e+02 6.79344149e-16 1.71131686e-17 0.00000000e+00 6.62230980e-16 0.00000000e+00 1.71132876e-17
2.88403150e+02 3.50128525e-16 1.13065775e-17 0.00000000e+00 3.38821947e-16 0.00000000e+00 1.13066370e-17
3.31131121e+02 1.80658134e-16 7.47019113e-18 0.00000000e+00 1.73187943e-16 0.00000000e+00 7.47022097e-18
3.80189396e+02 9.32550751e-17 4.93551109e-18 0.00000000e+00 8.83195640e-17 0.00000000e+00 4.93552605e-18
4.36515832e+02 4.82459011e-17 3.26086221e-18 0.00000000e+00 4.49850389e-17 0.00000000e+00 3.26086972e-18
5.01187234e+02 2.50285739e-17 2.15443149e-18 0.00000000e+00 2.28741424e-17 0.00000000e+00 2.15443526e-18
5.75439937e+02 1.30389250e-17 1.42341937e-18 0.00000000e+00 1.16155056e-17 0.00000000e+00 1.42342126e-18
6.60693448e+02 6.83179524e-18 9.40444150e-19 0.00000000e+00 5.89135109e-18 0.00000000e+00 9.40445101e-19
7.58577575e+02 3.60627695e-18 6.21345439e-19 0.00000000e+00 2.98493151e-18 0.00000000e+00 6.21345916e-19
8.70963590e+02 1.92108940e-18 4.10518936e-19 0.00000000e+00 1.51057046e-18 0.00000000e+00 4.10519176e-19
1.00000000e+03 7.63560843e-19 0.00000000e+00 0.00000000e+00 7.63560843e-19 0.00000000e+00 0.00000000e+00
