# column 1: lambda (micron)
# column 2: total flux; lambda*F_lambda (W/m2)
# column 3: direct stellar flux; lambda*F_lambda (W/m2)
# column 4: scattered stellar flux; lambda*F_lambda (W/m2)
# column 5: total dust emission flux; lambda*F_lambda (W/m2)
# column 6: dust emission scattered flux; lambda*F_lambda (W/m2)
# column 7: transparent flux; lambda*F_lambda (W/m2)
1.00000000e-03 1.07335637e-12 1.07335627e-12 1.02022746e-19 0.00000000e+00 0.00000000e+00 1.07335627e-12
1.14815362e-03 1.26690472e-12 1.26690456e-12 1.66068843e-19 0.00000000e+00 0.00000000e+00 1.26690456e-12
1.31825674e-03 1.49535385e-12 1.49535359e-12 2.60101829e-19 0.00000000e+00 0.00000000e+00 1.49535359e-12
1.51356125e-03 1.76499712e-12 1.76499670e-12 4.21089427e-19 0.00000000e+00 0.00000000e+00 1.76499670e-12
1.73780083e-03 2.08326277e-12 2.08326203e-12 7.48038374e-19 0.00000000e+00 0.00000000e+00 2.08326203e-12
1.99526231e-03 2.45891851e-12 2.45891716e-12 1.35139912e-18 0.00000000e+00 0.00000000e+00 2.45891716e-12
2.29086765e-03 2.90231274e-12 2.90231066e-12 2.07285544e-18 0.00000000e+00 0.00000000e+00 2.90231066e-12
2.63026799e-03 3.42566157e-12 3.42565717e-12 4.39967711e-18 0.00000000e+00 0.00000000e+00 3.42565717e-12
3.01995172e-03 4.04338095e-12 4.04337385e-12 7.10073194e-18 0.00000000e+00 0.00000000e+00 4.04337385e-12
3.46736850e-03 4.77248988e-12 4.77247759e-12 1.22929318e-17 0.00000000e+00 0.00000000e+00 4.77247759e-12
3.98107171e-03 5.63307317e-12 5.63305378e-12 1.93864908e-17 0.00000000e+00 0.00000000e+00 5.63305378e-12
4.57088190e-03 6.64885333e-12 6.64880962e-12 4.37077115e-17 0.00000000e+00 0.00000000e+00 6.64880962e-12
5.24807460e-03 7.84780801e-12 7.84772720e-12 8.08148308e-17 0.00000000e+00 0.00000000e+00 7.84772720e-12
6.02559586e-03 9.26298089e-12 9.26283435e-12 1.46539706e-16 0.00000000e+00 0.00000000e+00 9.26283435e-12
6.91830971e-03 1.09333438e-11 1.09331145e-11 2.29224344e-16 0.00000000e+00 0.00000000e+00 1.09331145e-11
7.94328235e-03 1.29049695e-11 1.29045807e-11 3.88779636e-16 0.00000000e+00 0.00000000e+00 1.29045807e-11
9.12010839e-03 1.52321445e-11 1.52315429e-11 6.01630874e-16 0.00000000e+00 0.00000000e+00 1.52315429e-11
1.04712855e-02 1.70123644e-11 1.70115517e-11 8.12666737e-16 0.00000000e+00 0.00000000e+00 1.70115517e-11
1.20226443e-02 1.70128205e-11 1.70115517e-11 1.26874517e-15 0.00000000e+00 0.00000000e+00 1.70115517e-11
1.38038426e-02 1.70132659e-11 1.70115517e-11 1.71415346e-15 4.33561375e-289 6.91688984e-291 1.70115517e-11
1.58489319e-02 1.70140981e-11 1.70115517e-11 2.54633688e-15 2.45089439e-252 4.67398180e-254 1.70115517e-11
1.81970086e-02 1.70148974e-11 1.70115517e-11 3.34572082e-15 2.38063598e-220 6.08125211e-222 1.70115517e-11
2.08929613e-02 1.70158898e-11 1.70115517e-11 4.33810746e-15 1.53319093e-192 4.29602853e-194 1.70115517e-11
2.39883292e-02 1.70184305e-11 1.70115517e-11 6.87881103e-15 2.46120911e-168 8.02346468e-170 1.70115517e-11
2.75422870e-02 1.70202080e-11 1.70115517e-11 8.65629152e-15 2.86378266e-147 1.13783940e-148 1.70115517e-11
3.16227766e-02 1.70219423e-11 1.70115517e-11 1.03905453e-14 5.93663436e-129 2.56650098e-130 1.70115517e-11
3.63078055e-02 1.70250178e-11 1.70115517e-11 1.34661143e-14 4.96392535e-113 2.31489577e-114 1.70115517e-11
4.16869383e-02 1.70304438e-11 1.70115517e-11 1.88920610e-14 3.43976177e-99 2.01888762e-100 1.70115517e-11
4.78630092e-02 1.70383586e-11 1.70115517e-11 2.68069083e-14 3.61987039e-87 2.56213890e-88 1.70115517e-11
5.49540874e-02 1.70453753e-11 1.70115517e-11 3.38235685e-14 9.91439724e-77 7.97785996e-78 1.70115517e-11
6.30957344e-02 1.70525960e-11 1.70115517e-11 4.10443168e-14 1.49326613e-67 1.30705789e-68 1.70115517e-11
7.24435960e-02 1.70511438e-11 1.70115517e-11 3.95921243e-14 1.34011408e-59 1.07681324e-60 1.70115517e-11
8.31763771e-02 1.70515994e-11 1.70115517e-11 4.00477026e-14 8.37471631e-53 6.56115255e-54 1.70115517e-11
9.54992586e-02 1.70541907e-11 1.70115517e-11 4.26390028e-14 6.33453834e-47 5.19566494e-48 1.70115517e-11
1.09647820e-01 1.62910884e-11 1.62459122e-11 4.51762820e-14 7.07771174e-42 6.38728324e-43 1.62459122e-11
1.25892541e-01 1.52013615e-11 1.51615674e-11 3.97941513e-14 1.60530724e-37 1.46158466e-38 1.51615674e-11
1.44543977e-01 1.41858265e-11 1.41495980e-11 3.62285427e-14 8.80236564e-34 7.74672297e-35 1.41495980e-11
1.65958691e-01 1.32431050e-11 1.32051732e-11 3.79318421e-14 1.12019067e-30 1.09368869e-31 1.32051732e-11
1.90546072e-01 1.23701404e-11 1.23237846e-11 4.63557664e-14 3.91077438e-28 4.50967671e-29 1.23237846e-11
2.18776162e-01 1.15488341e-11 1.15012250e-11 4.76091155e-14 5.29288928e-26 6.27999995e-27 1.15012250e-11
2.51188643e-01 1.07909549e-11 1.07335677e-11 5.73871917e-14 5.54001376e-24 8.17240505e-25 1.07335677e-11
2.88403150e-01 1.00707052e-11 1.00171482e-11 5.35570052e-14 3.00923188e-22 4.45444449e-23 1.00171482e-11
3.31131121e-01 9.39473005e-12 9.34854667e-12 4.61833712e-14 9.04839004e-21 1.34185702e-21 9.34854667e-12
3.80189396e-01 8.76689519e-12 8.72457139e-12 4.23236385e-14 1.67016389e-19 2.53588560e-20 8.72457139e-12
4.36515832e-01 8.18221422e-12 8.14224377e-12 3.99683911e-14 2.05512711e-18 3.28596462e-19 8.14224377e-12
5.01187234e-01 7.63544494e-12 7.59878402e-12 3.66430319e-14 1.78901284e-17 2.99980036e-18 7.59878402e-12
5.75439937e-01 7.12671417e-12 7.09159786e-12 3.50000959e-14 1.16213323e-16 2.00142103e-17 7.09159786e-12
6.60693448e-01 6.65139757e-12 6.61826421e-12 3.25537998e-14 5.79566110e-16 1.00795057e-16 6.61826421e-12
7.58577575e-01 6.20846625e-12 6.17652353e-12 2.96368406e-14 2.30587706e-15 3.92144628e-16 6.17652353e-12
8.70963590e-01 5.79743700e-12 5.76426715e-12 2.56759028e-14 7.49394722e-15 1.20314649e-15 5.76426715e-12
1.00000000e+00 5.42398365e-12 5.37952711e-12 2.43143335e-14 2.01422024e-14 2.97422666e-15 5.37952711e-12
1.14815362e+00 5.08767446e-12 5.02046681e-12 2.02798170e-14 4.69278336e-14 6.17494822e-15 5.02046681e-12
1.31825674e+00 4.79825228e-12 4.68537225e-12 1.68411472e-14 9.60388841e-14 1.08470773e-14 4.68537225e-12
1.51356125e+00 4.55859248e-12 4.37264380e-12 1.28062420e-14 1.73142439e-13 1.63228707e-14 4.37264380e-12
1.73780083e+00 4.36498411e-12 4.08078863e-12 9.80289154e-15 2.74392588e-13 2.08515693e-14 4.08078863e-12
1.99526231e+00 4.20054439e-12 3.80841354e-12 6.60132992e-15 3.85529522e-13 2.28339332e-14 3.80841354e-12
2.29086765e+00 4.04436141e-12 3.55421832e-12 4.69218848e-15 4.85450907e-13 2.13637173e-14 3.55421832e-12
2.63026799e+00 3.87801375e-12 3.31698953e-12 3.10267631e-15 5.57921548e-13 1.77130001e-14 3.31698953e-12
3.01995172e+00 3.69108653e-12 3.09559474e-12 1.93285925e-15 5.93558930e-13 1.32420136e-14 3.09559474e-12
3.46736850e+00 3.48337300e-12 2.88897711e-12 1.21187019e-15 5.93184020e-13 8.95742548e-15 2.88897711e-12
3.98107171e+00 3.25771110e-12 2.69615031e-12 7.10563205e-16 5.60850225e-13 5.70168134e-15 2.69615031e-12
4.57088190e+00 3.02400811e-12 2.51619387e-12 4.41404982e-16 5.07372832e-13 3.37908864e-15 2.51619387e-12
5.24807460e+00 2.52713927e-12 2.08050667e-12 2.18190445e-16 4.46414409e-13 1.88980291e-15 2.08050667e-12
6.02559586e+00 1.76281709e-12 1.37457712e-12 8.63407699e-17 3.88153628e-13 1.00330785e-15 1.37457712e-12
6.70000000e+00 1.34489823e-12 9.99872685e-13 4.19431341e-17 3.44983601e-13 5.97601051e-16 9.99872685e-13
6.92422916e+00 1.23770552e-12 9.05846924e-13 3.24029603e-17 3.31826193e-13 4.91593287e-16 9.05846924e-13
7.15596261e+00 1.14398556e-12 8.20663132e-13 2.49760421e-17 3.23297448e-13 4.12788425e-16 8.20663132e-13
7.39545150e+00 1.06821667e-12 7.43489831e-13 1.95363101e-17 3.24707303e-13 3.46474800e-16 7.43489831e-13
7.64295536e+00 1.02797049e-12 6.73573732e-13 1.34389508e-17 3.54383318e-13 3.06752793e-16 6.73573732e-13
7.89874245e+00 1.03884552e-12 6.10232385e-13 1.00239001e-17 4.28603115e-13 2.74549326e-16 6.10232385e-13
8.16308998e+00 1.09161806e-12 5.52847515e-13 6.47233497e-18 5.38764073e-13 2.48415137e-16 5.52847515e-13
8.43628443e+00 1.19690117e-12 5.00858987e-13 4.11577970e-18 6.96038069e-13 2.17600925e-16 5.00858987e-13
8.71862190e+00 1.26223422e-12 4.53759343e-13 2.89293042e-18 8.08471983e-13 1.78528255e-16 4.53759343e-13
9.01040836e+00 1.33642196e-12 4.11088843e-13 1.69582592e-18 9.25331425e-13 1.38381237e-16 4.11088843e-13
9.31196005e+00 1.39180212e-12 3.72430980e-13 0.00000000e+00 1.01937114e-12 0.00000000e+00 3.72430980e-13
9.62360379e+00 1.34919796e-12 3.37408415e-13 0.00000000e+00 1.01178955e-12 0.00000000e+00 3.37408415e-13
9.94567731e+00 1.23277329e-12 3.05679292e-13 0.00000000e+00 9.27093994e-13 0.00000000e+00 3.05679292e-13
1.02785297e+01 1.10284732e-12 2.76933904e-13 0.00000000e+00 8.25913419e-13 0.00000000e+00 2.76933904e-13
1.06225216e+01 9.80057363e-13 2.50891667e-13 0.00000000e+00 7.29165695e-13 0.00000000e+00 2.50891667e-13
1.09780260e+01 8.51680717e-13 2.27298384e-13 0.00000000e+00 6.24382333e-13 0.00000000e+00 2.27298384e-13
1.13454280e+01 7.44083075e-13 2.05923759e-13 0.00000000e+00 5.38159316e-13 0.00000000e+00 2.05923759e-13
1.17251259e+01 6.51729062e-13 1.86559155e-13 0.00000000e+00 4.65169907e-13 0.00000000e+00 1.86559155e-13
1.21175312e+01 5.70472979e-13 1.69015555e-13 0.00000000e+00 4.01457424e-13 0.00000000e+00 1.69015555e-13
1.25230691e+01 4.99949496e-13 1.53121715e-13 0.00000000e+00 3.46827781e-13 0.00000000e+00 1.53121715e-13
1.29421791e+01 4.40409901e-13 1.38722496e-13 0.00000000e+00 3.01687404e-13 0.00000000e+00 1.38722496e-13
1.33753155e+01 3.90123960e-13 1.25677347e-13 0.00000000e+00 2.64446613e-13 0.00000000e+00 1.25677347e-13
1.38229477e+01 3.54625463e-13 1.13858934e-13 0.00000000e+00 2.40766529e-13 0.00000000e+00 1.13858934e-13
1.42855609e+01 3.30389299e-13 1.03151898e-13 0.00000000e+00 2.27237401e-13 0.00000000e+00 1.03151898e-13
1.47636563e+01 3.23183140e-13 9.34517274e-14 0.00000000e+00 2.29731412e-13 0.00000000e+00 9.34517274e-14
1.52577522e+01 3.20424140e-13 8.46637387e-14 0.00000000e+00 2.35760401e-13 0.00000000e+00 8.46637387e-14
1.57683840e+01 3.21337466e-13 7.67021526e-14 0.00000000e+00 2.44635313e-13 0.00000000e+00 7.67021526e-14
1.62961051e+01 3.23191054e-13 6.94892560e-14 0.00000000e+00 2.53701798e-13 0.00000000e+00 6.94892560e-14
1.68414875e+01 3.25739184e-13 6.29546439e-14 0.00000000e+00 2.62784540e-13 0.00000000e+00 6.29546439e-14
1.74051222e+01 3.24173717e-13 5.70345319e-14 0.00000000e+00 2.67139185e-13 0.00000000e+00 5.70345319e-14
1.79876201e+01 3.19301963e-13 5.16711337e-14 0.00000000e+00 2.67630829e-13 0.00000000e+00 5.16711337e-14
1.85896125e+01 3.08846826e-13 4.68120974e-14 0.00000000e+00 2.62034729e-13 0.00000000e+00 4.68120974e-14
1.92117518e+01 2.93525925e-13 4.24099939e-14 0.00000000e+00 2.51115931e-13 0.00000000e+00 4.24099939e-14
1.98547123e+01 2.75537352e-13 3.84218542e-14 0.00000000e+00 2.37115498e-13 0.00000000e+00 3.84218542e-14
2.05191907e+01 2.57192981e-13 3.48087501e-14 0.00000000e+00 2.22384231e-13 0.00000000e+00 3.48087501e-14
2.12059073e+01 2.40421569e-13 3.15354141e-14 0.00000000e+00 2.08886155e-13 0.00000000e+00 3.15354141e-14
2.19156062e+01 2.25814650e-13 2.85698952e-14 0.00000000e+00 1.97244754e-13 0.00000000e+00 2.85698952e-14
2.26490567e+01 2.12448874e-13 2.58832470e-14 0.00000000e+00 1.86565627e-13 0.00000000e+00 2.58832470e-14
2.34070535e+01 2.00340331e-13 2.34492452e-14 0.00000000e+00 1.76891086e-13 0.00000000e+00 2.34492452e-14
2.41904183e+01 1.89500310e-13 2.12441313e-14 0.00000000e+00 1.68256179e-13 0.00000000e+00 2.12441313e-14
2.50000000e+01 1.79501664e-13 1.92463813e-14 0.00000000e+00 1.60255283e-13 0.00000000e+00 1.92463813e-14
2.75422870e+01 1.53535786e-13 1.43935895e-14 0.00000000e+00 1.39142197e-13 0.00000000e+00 1.43935895e-14
3.16227766e+01 1.22883629e-13 9.50975027e-15 0.00000000e+00 1.13373879e-13 0.00000000e+00 9.50975027e-15
3.63078055e+01 9.56223130e-14 6.28302969e-15 0.00000000e+00 8.93392833e-14 0.00000000e+00 6.28302969e-15
4.16869383e+01 7.08481276e-14 4.15115655e-15 0.00000000e+00 6.66969710e-14 0.00000000e+00 4.15115655e-15
4.78630092e+01 4.97547614e-14 2.74264194e-15 0.00000000e+00 4.70121195e-14 0.00000000e+00 2.74264194e-15
5.49540874e+01 3.34087726e-14 1.81204556e-15 0.00000000e+00 3.15967271e-14 0.00000000e+00 1.81204556e-15
6.30957344e+01 2.16217032e-14 1.19720663e-15 0.00000000e+00 2.04244965e-14 0.00000000e+00 1.19720663e-15
7.24435960e+01 1.35575933e-14 7.90986575e-16 0.00000000e+00 1.27666068e-14 0.00000000e+00 7.90986575e-16
8.31763771e+01 8.29025566e-15 5.22599647e-16 0.00000000e+00 7.76765601e-15 0.00000000e+00 5.22599647e-16
9.54992586e+01 4.96951785e-15 3.45278163e-16 0.00000000e+00 4.62423969e-15 0.00000000e+00 3.45278163e-16
1.09647820e+02 2.93000559e-15 2.28123020e-16 0.00000000e+00 2.70188257e-15 0.00000000e+00 2.28123020e-16
1.25892541e+02 1.72168261e-15 1.50719385e-16 0.00000000e+00 1.57096322e-15 0.00000000e+00 1.50719385e-16
1.44543977e+02 1.00314377e-15 9.95793099e-17 0.00000000e+00 9.03564458e-16 0.00000000e+00 9.95793099e-17
1.65958691e+02 5.58127446e-16 6.57913976e-17 0.00000000e+00 4.92336048e-16 0.00000000e+00 6.57913976e-17
1.90546072e+02 3.10709071e-16 4.34679453e-17 0.00000000e+00 2.67241125e-16 0.00000000e+00 4.34679453e-17
2.18776162e+02 1.72900897e-16 2.87189867e-17 0.00000000e+00 1.44181910e-16 0.00000000e+00 2.87189867e-17
2.51188643e+02 9.61797540e-17 1.89744463e-17 0.00000000e+00 7.72053077e-17 0.00000000e+00 1.89744463e-17
2.88403150e+02 5.35329720e-17 1.25362924e-17 0.00000000e+00 4.09966796e-17 0.00000000e+00 1.25362924e-17
3.31131121e+02 2.99221409e-17 8.28264623e-18 0.00000000e+00 2.16394946e-17 0.00000000e+00 8.28264623e-18
3.80189396e+02 1.68179081e-17 5.47229010e-18 0.00000000e+00 1.13456180e-17 0.00000000e+00 5.47229010e-18
4.36515832e+02 9.53426233e-18 3.61550621e-18 0.00000000e+00 5.91875611e-18 0.00000000e+00 3.61550621e-18
5.01187234e+02 5.46120892e-18 2.38874127e-18 0.00000000e+00 3.07246765e-18 0.00000000e+00 2.38874127e-18
5.75439937e+02 3.16653989e-18 1.57822570e-18 0.00000000e+00 1.58831419e-18 0.00000000e+00 1.57822570e-18
6.60693448e+02 1.86084746e-18 1.04272338e-18 0.00000000e+00 8.18124077e-19 0.00000000e+00 1.04272338e-18
7.58577575e+02 1.10900607e-18 6.88920507e-19 0.00000000e+00 4.20085564e-19 0.00000000e+00 6.88920507e-19
8.70963590e+02 6.70227116e-19 4.55165265e-19 0.00000000e+00 2.15061851e-19 0.00000000e+00 4.55165265e-19
1.00000000e+03 1.09802571e-19 0.00000000e+00 0.00000000e+00 1.09802571e-19 0.00000000e+00 0.00000000e+00
