# column 1: lambda (micron)
# column 2: total flux; lambda*F_lambda (W/m2)
# column 3: direct stellar flux; lambda*F_lambda (W/m2)
# column 4: scattered stellar flux; lambda*F_lambda (W/m2)
# column 5: total dust emission flux; lambda*F_lambda (W/m2)
# column 6: dust emission scattered flux; lambda*F_lambda (W/m2)
# column 7: transparent flux; lambda*F_lambda (W/m2)
1.00000000e-03 1.04634509e-12 1.04634360e-12 1.48821310e-18 0.00000000e+00 0.00000000e+00 1.04634360e-12
1.14815362e-03 1.23502323e-12 1.23502095e-12 2.28467643e-18 0.00000000e+00 0.00000000e+00 1.23502095e-12
1.31825674e-03 1.45772413e-12 1.45772071e-12 3.42261105e-18 0.00000000e+00 0.00000000e+00 1.45772071e-12
1.51356125e-03 1.72058310e-12 1.72057784e-12 5.26348909e-18 0.00000000e+00 0.00000000e+00 1.72057784e-12
1.73780083e-03 2.03084301e-12 2.03083353e-12 9.48496388e-18 0.00000000e+00 0.00000000e+00 2.03083353e-12
1.99526231e-03 2.39705143e-12 2.39703472e-12 1.67112959e-17 0.00000000e+00 0.00000000e+00 2.39703472e-12
2.29086765e-03 2.82929641e-12 2.82926954e-12 2.68652963e-17 0.00000000e+00 0.00000000e+00 2.82926954e-12
2.63026799e-03 3.33949682e-12 3.33944522e-12 5.15944980e-17 0.00000000e+00 0.00000000e+00 3.33944522e-12
3.01995172e-03 3.94170082e-12 3.94161611e-12 8.47151295e-17 0.00000000e+00 0.00000000e+00 3.94161611e-12
3.46736850e-03 4.65251249e-12 4.65237083e-12 1.41655619e-16 0.00000000e+00 0.00000000e+00 4.65237083e-12
3.98107171e-03 5.49150655e-12 5.49128930e-12 2.17249403e-16 0.00000000e+00 0.00000000e+00 5.49128930e-12
4.57088190e-03 6.48218488e-12 6.48148207e-12 7.02804791e-16 0.00000000e+00 0.00000000e+00 6.48148207e-12
5.24807460e-03 7.65111250e-12 7.65022704e-12 8.85458024e-16 0.00000000e+00 0.00000000e+00 7.65022704e-12
6.02559586e-03 9.03141900e-12 9.02972084e-12 1.69815855e-15 0.00000000e+00 0.00000000e+00 9.02972084e-12
6.91830971e-03 1.06605403e-11 1.06579658e-11 2.57449571e-15 0.00000000e+00 0.00000000e+00 1.06579658e-11
7.94328235e-03 1.25840735e-11 1.25798170e-11 4.25648608e-15 0.00000000e+00 0.00000000e+00 1.25798170e-11
9.12010839e-03 1.48558023e-11 1.48482176e-11 7.58468034e-15 0.00000000e+00 0.00000000e+00 1.48482176e-11
1.04712855e-02 1.65924532e-11 1.65834298e-11 9.02338744e-15 0.00000000e+00 0.00000000e+00 1.65834298e-11
1.20226443e-02 1.66015258e-11 1.65834298e-11 1.80959906e-14 1.97162451e-310 3.05478083e-312 1.65834298e-11
1.38038426e-02 1.66058969e-11 1.65834298e-11 2.24670706e-14 3.08090955e-271 8.07801444e-273 1.65834298e-11
1.58489319e-02 1.66244747e-11 1.65834298e-11 4.10449152e-14 3.98306624e-237 1.20511826e-238 1.65834298e-11
1.81970086e-02 1.66266264e-11 1.65834298e-11 4.31966083e-14 1.93673147e-207 7.07321953e-209 1.65834298e-11
2.08929613e-02 1.66403900e-11 1.65834298e-11 5.69602623e-14 1.23731994e-181 4.78244265e-183 1.65834298e-11
2.39883292e-02 1.66640765e-11 1.65834298e-11 8.06467162e-14 3.57247832e-159 1.52537673e-160 1.65834298e-11
2.75422870e-02 1.66803698e-11 1.65834298e-11 9.69400270e-14 1.25567580e-139 6.36197185e-141 1.65834298e-11
3.16227766e-02 1.67094090e-11 1.65834298e-11 1.25979247e-13 1.23548252e-122 6.77900983e-124 1.65834298e-11
3.63078055e-02 1.67271237e-11 1.65834298e-11 1.43693867e-13 7.28937846e-108 4.49959491e-109 1.65834298e-11
4.16869383e-02 1.67884527e-11 1.65834298e-11 2.05022899e-13 5.01371534e-95 3.81542010e-96 1.65834298e-11
4.78630092e-02 1.68539516e-11 1.65834298e-11 2.70521826e-13 7.07037955e-84 6.56237511e-85 1.65834298e-11
5.49540874e-02 1.69108369e-11 1.65834298e-11 3.27407114e-13 3.35967258e-74 3.59093607e-75 1.65834298e-11
6.30957344e-02 1.69695727e-11 1.65834298e-11 3.86142955e-13 1.10556651e-65 1.36633916e-66 1.65834298e-11
7.24435960e-02 1.69548278e-11 1.65834298e-11 3.71397996e-13 2.64002456e-58 3.19164737e-59 1.65834298e-11
8.31763771e-02 1.69457608e-11 1.65834298e-11 3.62330990e-13 5.36951431e-52 6.38474352e-53 1.65834298e-11
9.54992586e-02 1.69636520e-11 1.65834298e-11 3.80222251e-13 1.65482733e-46 2.08670339e-47 1.65834298e-11
1.09647820e-01 1.62396532e-11 1.58370587e-11 4.02594457e-13 9.95555007e-42 1.40371952e-42 1.58370587e-11
1.25892541e-01 1.51371649e-11 1.47800032e-11 3.57161699e-13 1.63222313e-37 2.40852504e-38 1.47800032e-11
1.44543977e-01 1.41216425e-11 1.37935015e-11 3.28140981e-13 8.30772169e-34 1.27446373e-34 1.37935015e-11
1.65958691e-01 1.32140818e-11 1.28728446e-11 3.41237176e-13 1.14906654e-30 2.01422965e-31 1.28728446e-11
1.90546072e-01 1.23976409e-11 1.20136376e-11 3.84003308e-13 4.73171643e-28 1.02459546e-28 1.20136376e-11
2.18776162e-01 1.15838584e-11 1.12117790e-11 3.72079423e-13 7.73567999e-26 1.84223249e-26 1.12117790e-11
2.51188643e-01 1.08917728e-11 1.04634409e-11 4.28331825e-13 1.09943672e-23 3.23377825e-24 1.04634409e-11
2.88403150e-01 1.01650322e-11 9.76505125e-12 3.99980986e-13 8.06223317e-22 2.46830551e-22 9.76505125e-12
3.31131121e-01 9.47405534e-12 9.11327608e-12 3.60779225e-13 3.25533956e-20 1.01468174e-20 9.11327608e-12
3.80189396e-01 8.82889328e-12 8.50500410e-12 3.23888409e-13 7.71684865e-19 2.42903936e-19 8.50500410e-12
4.36515832e-01 8.24297473e-12 7.93733165e-12 3.05631361e-13 1.17193003e-17 3.73326656e-18 7.93733165e-12
5.01187234e-01 7.69359523e-12 7.40754890e-12 2.85927824e-13 1.18508977e-16 3.81975567e-17 7.40754890e-12
5.75439937e-01 7.17622570e-12 6.91312687e-12 2.62260410e-13 8.38421644e-16 2.68291281e-16 6.91312687e-12
6.60693448e-01 6.70136483e-12 6.45170538e-12 2.45329416e-13 4.33003354e-15 1.36274962e-15 6.45170538e-12
7.58577575e-01 6.25748611e-12 6.02108180e-12 2.18810059e-13 1.75942524e-14 5.37104686e-15 6.02108180e-12
8.70963590e-01 5.87259826e-12 5.61920048e-12 1.96386141e-13 5.70116431e-14 1.65988412e-14 5.61920048e-12
1.00000000e+00 5.56918584e-12 5.24414302e-12 1.73205139e-13 1.51837688e-13 4.09765001e-14 5.24414302e-12
1.14815362e+00 5.39109243e-12 4.89411902e-12 1.43549338e-13 3.53424073e-13 8.64019194e-14 4.89411902e-12
1.31825674e+00 5.40507960e-12 4.56745763e-12 1.15665345e-13 7.21956623e-13 1.54680176e-13 4.56745763e-12
1.51356125e+00 5.66108356e-12 4.26259947e-12 9.09669108e-14 1.30751717e-12 2.40217807e-13 4.26259947e-12
1.73780083e+00 6.15811803e-12 3.97808929e-12 7.04228454e-14 2.10960590e-12 3.25166317e-13 3.97808929e-12
1.99526231e+00 6.79697226e-12 3.71256894e-12 5.34743803e-14 3.03092894e-12 3.74119417e-13 3.71256894e-12
2.29086765e+00 7.46278794e-12 3.46477093e-12 3.86398806e-14 3.95937713e-12 3.76442705e-13 3.46477093e-12
2.63026799e+00 8.00033298e-12 3.23351237e-12 2.71393876e-14 4.73968122e-12 3.36508275e-13 3.23351237e-12
3.01995172e+00 8.29584804e-12 3.01768933e-12 1.85806740e-14 5.25957804e-12 2.71945273e-13 3.01768933e-12
3.46736850e+00 8.34069928e-12 2.81627154e-12 1.22170838e-14 5.51221066e-12 2.01990999e-13 2.81627154e-12
3.98107171e+00 8.15671171e-12 2.62829753e-12 7.82715611e-15 5.52058702e-12 1.38449460e-13 2.62829753e-12
4.57088190e+00 7.75088488e-12 2.45286997e-12 4.86020468e-15 5.29315470e-12 8.77733076e-14 2.45286997e-12
5.24807460e+00 7.00304457e-12 2.02814751e-12 2.59500595e-15 4.97230205e-12 5.32530741e-14 2.02814751e-12
6.02559586e+00 5.96678161e-12 1.33998377e-12 1.07885866e-15 4.62571898e-12 3.04525677e-14 1.33998377e-12
6.70000000e+00 5.31208948e-12 9.74709347e-13 5.32812143e-16 4.33684732e-12 1.92561139e-14 9.74709347e-13
6.92422916e+00 5.12999412e-12 8.83049889e-13 4.20217982e-16 4.24652401e-12 1.64896952e-14 8.83049889e-13
7.15596261e+00 4.98747967e-12 8.00009879e-13 3.31703147e-16 4.18713808e-12 1.41414526e-14 8.00009879e-13
7.39545150e+00 4.94637248e-12 7.24778763e-13 2.53288455e-16 4.22134043e-12 1.20912109e-14 7.24778763e-13
7.64295536e+00 5.17267758e-12 6.56622211e-13 1.83175379e-16 4.51587220e-12 1.04103201e-14 6.56622211e-13
7.89874245e+00 5.77460590e-12 5.94874946e-13 1.21048647e-16 5.17960990e-12 9.02264521e-15 5.94874946e-13
8.16308998e+00 6.63279684e-12 5.38934254e-13 7.63205526e-17 6.09378627e-12 7.64320701e-15 5.38934254e-13
8.43628443e+00 7.82487448e-12 4.88254098e-13 4.45228752e-17 7.33657585e-12 6.22067102e-15 4.88254098e-13
8.71862190e+00 8.58861582e-12 4.42339790e-13 2.77138499e-17 8.14624832e-12 4.93506355e-15 4.42339790e-13
9.01040836e+00 9.33901057e-12 4.00743158e-13 1.52356865e-17 8.93825217e-12 3.56776827e-15 4.00743158e-13
9.31196005e+00 9.88065213e-12 3.63058180e-13 0.00000000e+00 9.51759395e-12 0.00000000e+00 3.63058180e-13
9.62360379e+00 9.85902967e-12 3.28917012e-13 0.00000000e+00 9.53011266e-12 0.00000000e+00 3.28917012e-13
9.94567731e+00 9.31123750e-12 2.97986401e-13 0.00000000e+00 9.01325110e-12 0.00000000e+00 2.97986401e-13
1.02785297e+01 8.65643648e-12 2.69964435e-13 0.00000000e+00 8.38647205e-12 0.00000000e+00 2.69964435e-13
1.06225216e+01 8.03559985e-12 2.44577592e-13 0.00000000e+00 7.79102226e-12 0.00000000e+00 2.44577592e-13
1.09780260e+01 7.33915145e-12 2.21578069e-13 0.00000000e+00 7.11757338e-12 0.00000000e+00 2.21578069e-13
1.13454280e+01 6.67762527e-12 2.00741370e-13 0.00000000e+00 6.47688390e-12 0.00000000e+00 2.00741370e-13
1.17251259e+01 6.12638099e-12 1.81864106e-13 0.00000000e+00 5.94451688e-12 0.00000000e+00 1.81864106e-13
1.21175312e+01 5.63438787e-12 1.64762018e-13 0.00000000e+00 5.46962585e-12 0.00000000e+00 1.64762018e-13
1.25230691e+01 5.15366892e-12 1.49268171e-13 0.00000000e+00 5.00440075e-12 0.00000000e+00 1.49268171e-13
1.29421791e+01 4.75253458e-12 1.35231331e-13 0.00000000e+00 4.61730325e-12 0.00000000e+00 1.35231331e-13
1.33753155e+01 4.41038495e-12 1.22514483e-13 0.00000000e+00 4.28787047e-12 0.00000000e+00 1.22514483e-13
1.38229477e+01 4.18936372e-12 1.10993499e-13 0.00000000e+00 4.07837023e-12 0.00000000e+00 1.10993499e-13
1.42855609e+01 4.08560006e-12 1.00555922e-13 0.00000000e+00 3.98504414e-12 0.00000000e+00 1.00555922e-13
1.47636563e+01 4.17560809e-12 9.10998706e-14 0.00000000e+00 4.08450822e-12 0.00000000e+00 9.10998706e-14
1.52577522e+01 4.33087306e-12 8.25330452e-14 0.00000000e+00 4.24834002e-12 0.00000000e+00 8.25330452e-14
1.57683840e+01 4.51537811e-12 7.47718247e-14 0.00000000e+00 4.44060629e-12 0.00000000e+00 7.47718247e-14
1.62961051e+01 4.70314852e-12 6.77404517e-14 0.00000000e+00 4.63540807e-12 0.00000000e+00 6.77404517e-14
1.68414875e+01 4.91085223e-12 6.13702932e-14 0.00000000e+00 4.84948193e-12 0.00000000e+00 6.13702932e-14
1.74051222e+01 5.04103768e-12 5.55991699e-14 0.00000000e+00 4.98543851e-12 0.00000000e+00 5.55991699e-14
1.79876201e+01 5.15599626e-12 5.03707500e-14 0.00000000e+00 5.10562551e-12 0.00000000e+00 5.03707500e-14
1.85896125e+01 5.16842346e-12 4.56339988e-14 0.00000000e+00 5.12278946e-12 0.00000000e+00 4.56339988e-14
1.92117518e+01 5.10948100e-12 4.13426810e-14 0.00000000e+00 5.06813832e-12 0.00000000e+00 4.13426810e-14
1.98547123e+01 4.98791420e-12 3.74549090e-14 0.00000000e+00 4.95045929e-12 0.00000000e+00 3.74549090e-14
2.05191907e+01 4.85403698e-12 3.39327342e-14 0.00000000e+00 4.82010424e-12 0.00000000e+00 3.39327342e-14
2.12059073e+01 4.72015415e-12 3.07417768e-14 0.00000000e+00 4.68941237e-12 0.00000000e+00 3.07417768e-14
2.19156062e+01 4.59970946e-12 2.78508898e-14 0.00000000e+00 4.57185857e-12 0.00000000e+00 2.78508898e-14
2.26490567e+01 4.46935969e-12 2.52318552e-14 0.00000000e+00 4.44412784e-12 0.00000000e+00 2.52318552e-14
2.34070535e+01 4.34906186e-12 2.28591087e-14 0.00000000e+00 4.32620275e-12 0.00000000e+00 2.28591087e-14
2.41904183e+01 4.22228402e-12 2.07094900e-14 0.00000000e+00 4.20157453e-12 0.00000000e+00 2.07094900e-14
2.50000000e+01 4.10605725e-12 1.87620165e-14 0.00000000e+00 4.08729524e-12 0.00000000e+00 1.87620165e-14
2.75422870e+01 3.73500994e-12 1.40313526e-14 0.00000000e+00 3.72097858e-12 0.00000000e+00 1.40313526e-14
3.16227766e+01 3.13770917e-12 9.27042274e-15 0.00000000e+00 3.12843875e-12 0.00000000e+00 9.27042274e-15
3.63078055e+01 2.48323471e-12 6.12490756e-15 0.00000000e+00 2.47710980e-12 0.00000000e+00 6.12490756e-15
4.16869383e+01 1.82290337e-12 4.04668630e-15 0.00000000e+00 1.81885668e-12 0.00000000e+00 4.04668630e-15
4.78630092e+01 1.24567987e-12 2.67361912e-15 0.00000000e+00 1.24300625e-12 0.00000000e+00 2.67361912e-15
5.49540874e+01 8.00448723e-13 1.76644264e-15 0.00000000e+00 7.98682281e-13 0.00000000e+00 1.76644264e-15
6.30957344e+01 4.91036695e-13 1.16707708e-15 0.00000000e+00 4.89869618e-13 0.00000000e+00 1.16707708e-15
7.24435960e+01 2.89949733e-13 7.71080178e-16 0.00000000e+00 2.89178653e-13 0.00000000e+00 7.71080178e-16
8.31763771e+01 1.66531728e-13 5.09447621e-16 0.00000000e+00 1.66022281e-13 0.00000000e+00 5.09447621e-16
9.54992586e+01 9.37511574e-14 3.36588705e-16 0.00000000e+00 9.34145687e-14 0.00000000e+00 3.36588705e-16
1.09647820e+02 5.19889974e-14 2.22381952e-16 0.00000000e+00 5.17666155e-14 0.00000000e+00 2.22381952e-16
1.25892541e+02 2.88201629e-14 1.46926299e-16 0.00000000e+00 2.86732366e-14 0.00000000e+00 1.46926299e-16
1.44543977e+02 1.58837687e-14 9.70732430e-17 0.00000000e+00 1.57866955e-14 0.00000000e+00 9.70732430e-17
1.65958691e+02 8.33973262e-15 6.41356556e-17 0.00000000e+00 8.27559697e-15 0.00000000e+00 6.41356556e-17
1.90546072e+02 4.38354335e-15 4.23740075e-17 0.00000000e+00 4.34116934e-15 0.00000000e+00 4.23740075e-17
2.18776162e+02 2.30100162e-15 2.79962291e-17 0.00000000e+00 2.27300539e-15 0.00000000e+00 2.79962291e-17
2.51188643e+02 1.20414115e-15 1.84969251e-17 0.00000000e+00 1.18564422e-15 0.00000000e+00 1.84969251e-17
2.88403150e+02 6.27665632e-16 1.22207972e-17 0.00000000e+00 6.15444835e-16 0.00000000e+00 1.22207972e-17
3.31131121e+02 3.26585019e-16 8.07420067e-18 0.00000000e+00 3.18510818e-16 0.00000000e+00 8.07420067e-18
3.80189396e+02 1.69495707e-16 5.33457148e-18 0.00000000e+00 1.64161136e-16 0.00000000e+00 5.33457148e-18
4.36515832e+02 8.79030012e-17 3.52451642e-18 0.00000000e+00 8.43784848e-17 0.00000000e+00 3.52451642e-18
5.01187234e+02 4.55712342e-17 2.32862491e-18 0.00000000e+00 4.32426093e-17 0.00000000e+00 2.32862491e-18
5.75439937e+02 2.36454379e-17 1.53850722e-18 0.00000000e+00 2.21069307e-17 0.00000000e+00 1.53850722e-18
6.60693448e+02 1.22942931e-17 1.01648164e-18 0.00000000e+00 1.12778114e-17 0.00000000e+00 1.01648164e-18
7.58577575e+02 6.41429122e-18 6.71582760e-19 0.00000000e+00 5.74270846e-18 0.00000000e+00 6.71582760e-19
8.70963590e+02 3.36246125e-18 4.43710329e-19 0.00000000e+00 2.91875092e-18 0.00000000e+00 4.43710329e-19
1.00000000e+03 1.48087606e-18 0.00000000e+00 0.00000000e+00 1.48087606e-18 0.00000000e+00 0.00000000e+00
