# column 1: lambda (micron)
# column 2: total flux; lambda*F_lambda (W/m2)
# column 3: direct stellar flux; lambda*F_lambda (W/m2)
# column 4: scattered stellar flux; lambda*F_lambda (W/m2)
# column 5: total dust emission flux; lambda*F_lambda (W/m2)
# column 6: dust emission scattered flux; lambda*F_lambda (W/m2)
# column 7: transparent flux; lambda*F_lambda (W/m2)
1.00000000e-03 1.04627033e-12 1.04627014e-12 1.88642266e-19 0.00000000e+00 0.00000000e+00 1.04634360e-12
1.14815362e-03 1.23490669e-12 1.23490639e-12 2.94749808e-19 0.00000000e+00 0.00000000e+00 1.23502095e-12
1.31825674e-03 1.45754925e-12 1.45754880e-12 4.45202447e-19 0.00000000e+00 0.00000000e+00 1.45772071e-12
1.51356125e-03 1.72033929e-12 1.72033861e-12 6.75827484e-19 0.00000000e+00 0.00000000e+00 1.72057784e-12
1.73780083e-03 2.03054947e-12 2.03054825e-12 1.22247249e-18 0.00000000e+00 0.00000000e+00 2.03083353e-12
1.99526231e-03 2.39659047e-12 2.39658830e-12 2.17460425e-18 0.00000000e+00 0.00000000e+00 2.39703472e-12
2.29086765e-03 2.82871411e-12 2.82871079e-12 3.32697657e-18 0.00000000e+00 0.00000000e+00 2.82926954e-12
2.63026799e-03 3.33866180e-12 3.33865491e-12 6.88729215e-18 0.00000000e+00 0.00000000e+00 3.33944522e-12
3.01995172e-03 3.94047396e-12 3.94046245e-12 1.15195297e-17 0.00000000e+00 0.00000000e+00 3.94161611e-12
3.46736850e-03 4.65078539e-12 4.65076589e-12 1.94995892e-17 0.00000000e+00 0.00000000e+00 4.65237083e-12
3.98107171e-03 5.48915133e-12 5.48912096e-12 3.03668241e-17 0.00000000e+00 0.00000000e+00 5.49128930e-12
4.57088190e-03 6.47984314e-12 6.47977477e-12 6.83696084e-17 0.00000000e+00 0.00000000e+00 6.48148207e-12
5.24807460e-03 7.64777589e-12 7.64765329e-12 1.22607271e-16 0.00000000e+00 0.00000000e+00 7.65022704e-12
6.02559586e-03 9.02631027e-12 9.02605808e-12 2.52193668e-16 0.00000000e+00 0.00000000e+00 9.02972084e-12
6.91830971e-03 1.06533253e-11 1.06529764e-11 3.48929154e-16 0.00000000e+00 0.00000000e+00 1.06579658e-11
7.94328235e-03 1.25738444e-11 1.25732469e-11 5.97493201e-16 2.05322233e-304 1.07790741e-307 1.25798170e-11
9.12010839e-03 1.48406768e-11 1.48396124e-11 1.06442703e-15 8.67762656e-266 6.31706332e-269 1.48482176e-11
1.04712855e-02 1.65745283e-11 1.65732053e-11 1.32300632e-15 3.55187180e-232 3.01654541e-235 1.65834298e-11
1.20226443e-02 1.65745687e-11 1.65726021e-11 1.96665214e-15 5.41018400e-203 7.27769744e-206 1.65834298e-11
1.38038426e-02 1.65750129e-11 1.65718866e-11 3.12624065e-15 1.43847215e-177 2.63013235e-180 1.65834298e-11
1.58489319e-02 1.65753326e-11 1.65710074e-11 4.32520984e-15 1.90594080e-155 5.73282709e-158 1.65834298e-11
1.81970086e-02 1.65763354e-11 1.65701965e-11 6.13890642e-15 3.33812975e-136 1.32312401e-138 1.65834298e-11
2.08929613e-02 1.65771676e-11 1.65695225e-11 7.64507334e-15 1.71657112e-119 9.63097230e-122 1.65834298e-11
2.39883292e-02 1.65819924e-11 1.65686493e-11 1.33430613e-14 5.94122065e-105 4.48695570e-107 1.65834298e-11
2.75422870e-02 1.65839187e-11 1.65676337e-11 1.62850462e-14 2.62832432e-92 2.61280864e-94 1.65834298e-11
3.16227766e-02 1.65845961e-11 1.65666382e-11 1.79579263e-14 2.53637268e-81 3.13289428e-83 1.65834298e-11
3.63078055e-02 1.65877480e-11 1.65658574e-11 2.18905796e-14 8.72029156e-72 1.29175747e-73 1.65834298e-11
4.16869383e-02 1.65959119e-11 1.65651821e-11 3.07297585e-14 1.64697105e-63 3.39856120e-65 1.65834298e-11
4.78630092e-02 1.66061332e-11 1.65633209e-11 4.28123141e-14 2.48004252e-56 7.34094289e-58 1.65834298e-11
5.49540874e-02 1.66180310e-11 1.65607328e-11 5.72982089e-14 4.11626265e-50 1.60173224e-51 1.65834298e-11
6.30957344e-02 1.66297914e-11 1.65542450e-11 7.55463707e-14 1.33380613e-44 6.75962935e-46 1.65834298e-11
7.24435960e-02 1.66237642e-11 1.65465634e-11 7.72007955e-14 7.73825530e-40 4.12275689e-41 1.65834298e-11
8.31763771e-02 1.66240343e-11 1.65472468e-11 7.67874769e-14 7.89291016e-36 4.21140235e-37 1.65834298e-11
9.54992586e-02 1.66320746e-11 1.65492514e-11 8.28231928e-14 2.21719935e-32 1.24630095e-33 1.65834298e-11
1.09647820e-01 1.58916317e-11 1.58099382e-11 8.16935486e-14 1.86791002e-29 1.08216851e-30 1.58370587e-11
1.25892541e-01 1.48294356e-11 1.47591657e-11 7.02698754e-14 5.99157293e-27 3.11076937e-28 1.47800032e-11
1.44543977e-01 1.38371921e-11 1.37773812e-11 5.98108897e-14 8.11167535e-25 3.96358380e-26 1.37935015e-11
1.65958691e-01 1.29225477e-11 1.28596866e-11 6.28610873e-14 4.09667814e-23 2.22871731e-24 1.28728446e-11
1.90546072e-01 1.20752232e-11 1.20005374e-11 7.46858888e-14 8.65590923e-22 5.98527551e-23 1.20136376e-11
2.18776162e-01 1.12768887e-11 1.11974390e-11 7.94496675e-14 1.03153342e-20 8.12313828e-22 1.12117790e-11
2.51188643e-01 1.05435445e-11 1.04527368e-11 9.08075761e-14 1.25047712e-19 1.20452083e-20 1.04634409e-11
2.88403150e-01 9.83804902e-12 9.75675670e-12 8.12912823e-14 1.03257880e-18 9.31753168e-20 9.76505125e-12
3.31131121e-01 9.17909322e-12 9.10652778e-12 7.25595520e-14 5.89036351e-18 5.04124148e-19 9.11327608e-12
3.80189396e-01 8.56624414e-12 8.49947334e-12 6.67463243e-14 2.44763493e-17 2.00930250e-18 8.50500410e-12
4.36515832e-01 7.99157294e-12 7.93283925e-12 5.86560744e-14 7.76245732e-17 6.31684539e-18 7.93733165e-12
5.01187234e-01 7.45903438e-12 7.40394928e-12 5.48876686e-14 1.97431274e-16 1.63857876e-17 7.40754890e-12
5.75439937e-01 6.96271048e-12 6.91027235e-12 5.20032425e-14 4.34887834e-16 3.84352883e-17 6.91312687e-12
6.60693448e-01 6.49993646e-12 6.44946131e-12 4.95561119e-14 9.19032681e-16 9.12619235e-17 6.45170538e-12
7.58577575e-01 6.06676468e-12 6.01933907e-12 4.53364922e-14 2.08912333e-15 2.42823574e-16 6.02108180e-12
8.70963590e-01 5.66324309e-12 5.61787707e-12 4.02163307e-14 5.14969300e-15 6.63273484e-16 5.61920048e-12
1.00000000e+00 5.29217534e-12 5.24315426e-12 3.63747794e-14 1.26463015e-14 1.65651881e-15 5.24414302e-12
1.14815362e+00 4.95418660e-12 4.89339343e-12 3.10040276e-14 2.97891448e-14 3.76310015e-15 4.89411902e-12
1.31825674e+00 4.65726817e-12 4.56693440e-12 2.54571900e-14 6.48765764e-14 7.51686388e-15 4.56745763e-12
1.51356125e+00 4.41044729e-12 4.26222599e-12 1.99622377e-14 1.28259063e-13 1.31626966e-14 4.26259947e-12
1.73780083e+00 4.21978025e-12 3.97782703e-12 1.57659611e-14 2.26187260e-13 1.97877024e-14 3.97808929e-12
1.99526231e+00 4.08061781e-12 3.71238766e-12 1.17480840e-14 3.56482060e-13 2.51285167e-14 3.71256894e-12
2.29086765e+00 3.98299696e-12 3.46464602e-12 8.22926712e-15 5.10121668e-13 2.82896224e-14 3.46477093e-12
2.63026799e+00 3.90563119e-12 3.23342550e-12 5.85494808e-15 6.66350741e-13 2.85432724e-14 3.23351237e-12
3.01995172e+00 3.83337211e-12 3.01762813e-12 4.05418036e-15 8.11689795e-13 2.58650004e-14 3.01768933e-12
3.46736850e+00 3.74266767e-12 2.81622773e-12 2.72719883e-15 9.23712737e-13 2.17416297e-14 2.81627154e-12
3.98107171e+00 3.62431617e-12 2.62826576e-12 1.84055776e-15 9.94209851e-13 1.68372073e-14 2.62829753e-12
4.57088190e+00 3.47428142e-12 2.45284662e-12 1.20886183e-15 1.02022593e-12 1.19949559e-14 2.45286997e-12
5.24807460e+00 3.03924091e-12 2.02813200e-12 6.66190501e-16 1.01044271e-12 8.07321141e-15 2.02814751e-12
6.02559586e+00 2.31427118e-12 1.33997526e-12 2.78657659e-16 9.74017262e-13 5.03558454e-15 1.33998377e-12
6.70000000e+00 1.90574437e-12 9.74703864e-13 1.38802590e-16 9.30901700e-13 3.32659736e-15 9.74709347e-13
6.92422916e+00 1.79923462e-12 8.83045096e-13 1.13961853e-16 9.16075564e-13 2.88656473e-15 8.83049889e-13
7.15596261e+00 1.70596624e-12 8.00005612e-13 8.83382033e-17 9.05872292e-13 2.49419476e-15 8.00009879e-13
7.39545150e+00 1.63923507e-12 7.24774805e-13 6.68026309e-17 9.14393459e-13 2.12734180e-15 7.24778763e-13
7.64295536e+00 1.63099944e-12 6.56618125e-13 4.72847000e-17 9.74334028e-13 1.81211795e-15 6.56622211e-13
7.89874245e+00 1.70720017e-12 5.94870164e-13 3.01578677e-17 1.11229985e-12 1.48632582e-15 5.94874946e-13
8.16308998e+00 1.85433455e-12 5.38928405e-13 1.86046948e-17 1.31538754e-12 1.21515154e-15 5.38934254e-13
8.43628443e+00 2.08187682e-12 4.88246736e-13 1.06978566e-17 1.59361939e-12 9.45236487e-16 4.88254098e-13
8.71862190e+00 2.24195888e-12 4.42331594e-13 6.57831451e-18 1.79962070e-12 7.47712238e-16 4.42339790e-13
9.01040836e+00 2.41311985e-12 4.00734163e-13 4.00396394e-18 2.01238168e-12 5.45138444e-16 4.00743158e-13
9.31196005e+00 2.54880874e-12 3.63048728e-13 0.00000000e+00 2.18576001e-12 0.00000000e+00 3.63058180e-13
9.62360379e+00 2.52418529e-12 3.28908223e-13 0.00000000e+00 2.19527706e-12 0.00000000e+00 3.28917012e-13
9.94567731e+00 2.38019602e-12 2.97978930e-13 0.00000000e+00 2.08221709e-12 0.00000000e+00 2.97986401e-13
1.02785297e+01 2.18962155e-12 2.69958313e-13 0.00000000e+00 1.91966323e-12 0.00000000e+00 2.69964435e-13
1.06225216e+01 2.01588752e-12 2.44572627e-13 0.00000000e+00 1.77131490e-12 0.00000000e+00 2.44577592e-13
1.09780260e+01 1.81571214e-12 2.21574189e-13 0.00000000e+00 1.59413796e-12 0.00000000e+00 2.21578069e-13
1.13454280e+01 1.64740012e-12 2.00738325e-13 0.00000000e+00 1.44666180e-12 0.00000000e+00 2.00741370e-13
1.17251259e+01 1.50153442e-12 1.81861702e-13 0.00000000e+00 1.31967272e-12 0.00000000e+00 1.81864106e-13
1.21175312e+01 1.36153436e-12 1.64760129e-13 0.00000000e+00 1.19677423e-12 0.00000000e+00 1.64762018e-13
1.25230691e+01 1.23925390e-12 1.49266691e-13 0.00000000e+00 1.08998721e-12 0.00000000e+00 1.49268171e-13
1.29421791e+01 1.13184224e-12 1.35230163e-13 0.00000000e+00 9.96612073e-13 0.00000000e+00 1.35231331e-13
1.33753155e+01 1.03877846e-12 1.22513555e-13 0.00000000e+00 9.16264908e-13 0.00000000e+00 1.22514483e-13
1.38229477e+01 9.77150025e-13 1.10992727e-13 0.00000000e+00 8.66157298e-13 0.00000000e+00 1.10993499e-13
1.42855609e+01 9.41232867e-13 1.00555251e-13 0.00000000e+00 8.40677616e-13 0.00000000e+00 1.00555922e-13
1.47636563e+01 9.46965816e-13 9.10992341e-14 0.00000000e+00 8.55866582e-13 0.00000000e+00 9.10998706e-14
1.52577522e+01 9.66443836e-13 8.25324302e-14 0.00000000e+00 8.83911406e-13 0.00000000e+00 8.25330452e-14
1.57683840e+01 9.93591143e-13 7.47712229e-14 0.00000000e+00 9.18819920e-13 0.00000000e+00 7.47718247e-14
1.62961051e+01 1.01522481e-12 6.77398635e-14 0.00000000e+00 9.47484947e-13 0.00000000e+00 6.77404517e-14
1.68414875e+01 1.04640564e-12 6.13697195e-14 0.00000000e+00 9.85035923e-13 0.00000000e+00 6.13702932e-14
1.74051222e+01 1.06149351e-12 5.55986251e-14 0.00000000e+00 1.00589489e-12 0.00000000e+00 5.55991699e-14
1.79876201e+01 1.06368503e-12 5.03702413e-14 0.00000000e+00 1.01331479e-12 0.00000000e+00 5.03707500e-14
1.85896125e+01 1.05531429e-12 4.56335386e-14 0.00000000e+00 1.00968076e-12 0.00000000e+00 4.56339988e-14
1.92117518e+01 1.02600953e-12 4.13422767e-14 0.00000000e+00 9.84667257e-13 0.00000000e+00 4.13426810e-14
1.98547123e+01 9.89555251e-13 3.74545608e-14 0.00000000e+00 9.52100690e-13 0.00000000e+00 3.74549090e-14
2.05191907e+01 9.45606708e-13 3.39324374e-14 0.00000000e+00 9.11674271e-13 0.00000000e+00 3.39327342e-14
2.12059073e+01 9.05158820e-13 3.07415238e-14 0.00000000e+00 8.74417296e-13 0.00000000e+00 3.07417768e-14
2.19156062e+01 8.69073116e-13 2.78506731e-14 0.00000000e+00 8.41222443e-13 0.00000000e+00 2.78508898e-14
2.26490567e+01 8.33552493e-13 2.52316693e-14 0.00000000e+00 8.08320824e-13 0.00000000e+00 2.52318552e-14
2.34070535e+01 8.00336510e-13 2.28589489e-14 0.00000000e+00 7.77477561e-13 0.00000000e+00 2.28591087e-14
2.41904183e+01 7.67476193e-13 2.07093523e-14 0.00000000e+00 7.46766841e-13 0.00000000e+00 2.07094900e-14
2.50000000e+01 7.36359241e-13 1.87618975e-14 0.00000000e+00 7.17597343e-13 0.00000000e+00 1.87620165e-14
2.75422870e+01 6.43977791e-13 1.40312751e-14 0.00000000e+00 6.29946516e-13 0.00000000e+00 1.40313526e-14
3.16227766e+01 5.17706869e-13 9.27038013e-15 0.00000000e+00 5.08436488e-13 0.00000000e+00 9.27042274e-15
3.63078055e+01 3.93921947e-13 6.12488428e-15 0.00000000e+00 3.87797063e-13 0.00000000e+00 6.12490756e-15
4.16869383e+01 2.79843302e-13 4.04667391e-15 0.00000000e+00 2.75796628e-13 0.00000000e+00 4.04668630e-15
4.78630092e+01 1.86506228e-13 2.67361274e-15 0.00000000e+00 1.83832615e-13 0.00000000e+00 2.67361912e-15
5.49540874e+01 1.17358870e-13 1.76643941e-15 0.00000000e+00 1.15592431e-13 0.00000000e+00 1.76644264e-15
6.30957344e+01 7.07946770e-14 1.16707547e-15 0.00000000e+00 6.96276015e-14 0.00000000e+00 1.16707708e-15
7.24435960e+01 4.12137156e-14 7.71079384e-16 0.00000000e+00 4.04426362e-14 0.00000000e+00 7.71080178e-16
8.31763771e+01 2.34106417e-14 5.09447229e-16 0.00000000e+00 2.29011945e-14 0.00000000e+00 5.09447621e-16
9.54992586e+01 1.30626225e-14 3.36588511e-16 0.00000000e+00 1.27260340e-14 0.00000000e+00 3.36588705e-16
1.09647820e+02 7.20188443e-15 2.22381856e-16 0.00000000e+00 6.97950257e-15 0.00000000e+00 2.22381952e-16
1.25892541e+02 3.97629561e-15 1.46926250e-16 0.00000000e+00 3.82936936e-15 0.00000000e+00 1.46926299e-16
1.44543977e+02 2.18847016e-15 9.70732183e-17 0.00000000e+00 2.09139694e-15 0.00000000e+00 9.70732430e-17
1.65958691e+02 1.15280225e-15 6.41356435e-17 0.00000000e+00 1.08866660e-15 0.00000000e+00 6.41356556e-17
1.90546072e+02 6.09955732e-16 4.23740015e-17 0.00000000e+00 5.67581730e-16 0.00000000e+00 4.23740075e-17
2.18776162e+02 3.23588312e-16 2.79962261e-17 0.00000000e+00 2.95592086e-16 0.00000000e+00 2.79962291e-17
2.51188643e+02 1.71973614e-16 1.84969236e-17 0.00000000e+00 1.53476690e-16 0.00000000e+00 1.84969251e-17
2.88403150e+02 9.15617570e-17 1.22207965e-17 0.00000000e+00 7.93409605e-17 0.00000000e+00 1.22207972e-17
3.31131121e+02 4.89921602e-17 8.07420029e-18 0.00000000e+00 4.09179599e-17 0.00000000e+00 8.07420067e-18
3.80189396e+02 2.63599001e-17 5.33457129e-18 0.00000000e+00 2.10253288e-17 0.00000000e+00 5.33457148e-18
4.36515832e+02 1.43029958e-17 3.52451633e-18 0.00000000e+00 1.07784795e-17 0.00000000e+00 3.52451642e-18
5.01187234e+02 7.83966520e-18 2.32862486e-18 0.00000000e+00 5.51104034e-18 0.00000000e+00 2.32862491e-18
5.75439937e+02 4.35033946e-18 1.53850720e-18 0.00000000e+00 2.81183226e-18 0.00000000e+00 1.53850722e-18
6.60693448e+02 2.44845047e-18 1.01648163e-18 0.00000000e+00 1.43196884e-18 0.00000000e+00 1.01648164e-18
7.58577575e+02 1.39965151e-18 6.71582754e-19 0.00000000e+00 7.28068760e-19 0.00000000e+00 6.71582760e-19
8.70963590e+02 8.13271272e-19 4.43710326e-19 0.00000000e+00 3.69560946e-19 0.00000000e+00 4.43710329e-19
1.00000000e+03 1.87290580e-19 0.00000000e+00 0.00000000e+00 1.87290580e-19 0.00000000e+00 0.00000000e+00
