# column 1: lambda (micron)
# column 2: total flux; lambda*F_lambda (W/m2)
# column 3: direct stellar flux; lambda*F_lambda (W/m2)
# column 4: scattered stellar flux; lambda*F_lambda (W/m2)
# column 5: total dust emission flux; lambda*F_lambda (W/m2)
# column 6: dust emission scattered flux; lambda*F_lambda (W/m2)
# column 7: transparent flux; lambda*F_lambda (W/m2)
1.00000000e-03 2.06076721e-13 2.06075710e-13 1.01094251e-18 0.00000000e+00 0.00000000e+00 2.06075710e-13
1.14815362e-03 2.43236816e-13 2.43235413e-13 1.40371921e-18 0.00000000e+00 0.00000000e+00 2.43235413e-13
1.31825674e-03 2.87098021e-13 2.87095777e-13 2.24408619e-18 0.00000000e+00 0.00000000e+00 2.87095777e-13
1.51356125e-03 3.38869142e-13 3.38865070e-13 4.07223162e-18 0.00000000e+00 0.00000000e+00 3.38865070e-13
1.73780083e-03 3.99975578e-13 3.99969435e-13 6.14270716e-18 0.00000000e+00 0.00000000e+00 3.99969435e-13
1.99526231e-03 4.72105540e-13 4.72092178e-13 1.33619713e-17 0.00000000e+00 0.00000000e+00 4.72092178e-13
2.29086765e-03 5.57234448e-13 5.57220139e-13 1.43084842e-17 0.00000000e+00 0.00000000e+00 5.57220139e-13
2.63026799e-03 6.57731288e-13 6.57698429e-13 3.28595532e-17 0.00000000e+00 0.00000000e+00 6.57698429e-13
3.01995172e-03 7.76361663e-13 7.76295028e-13 6.66356817e-17 0.00000000e+00 0.00000000e+00 7.76295028e-13
3.46736850e-03 9.16378333e-13 9.16277040e-13 1.01292183e-16 0.00000000e+00 0.00000000e+00 9.16277040e-13
3.98107171e-03 1.08168945e-12 1.08150070e-12 1.88750710e-16 0.00000000e+00 0.00000000e+00 1.08150070e-12
4.57088190e-03 1.27685867e-12 1.27651759e-12 3.41080369e-16 0.00000000e+00 0.00000000e+00 1.27651759e-12
5.24807460e-03 1.50736485e-12 1.50670006e-12 6.64792810e-16 0.00000000e+00 0.00000000e+00 1.50670006e-12
6.02559586e-03 1.77966740e-12 1.77838917e-12 1.27823278e-15 0.00000000e+00 0.00000000e+00 1.77838917e-12
6.91830971e-03 2.10123532e-12 2.09906943e-12 2.16588789e-15 0.00000000e+00 0.00000000e+00 2.09906943e-12
7.94328235e-03 2.48074370e-12 2.47757497e-12 3.16873009e-15 0.00000000e+00 0.00000000e+00 2.47757497e-12
9.12010839e-03 2.93255526e-12 2.92433286e-12 8.22239873e-15 0.00000000e+00 0.00000000e+00 2.92433286e-12
1.04712855e-02 3.27290962e-12 3.26608014e-12 6.82948511e-15 0.00000000e+00 0.00000000e+00 3.26608014e-12
1.20226443e-02 3.28407376e-12 3.26608014e-12 1.79936195e-14 0.00000000e+00 0.00000000e+00 3.26608014e-12
1.38038426e-02 3.28304637e-12 3.26608014e-12 1.69662312e-14 2.48795686e-290 7.29952193e-292 3.26608014e-12
1.58489319e-02 3.29508611e-12 3.26608014e-12 2.90059728e-14 1.45846003e-253 6.28921397e-255 3.26608014e-12
1.81970086e-02 3.29543076e-12 3.26608014e-12 2.93506245e-14 1.44088746e-221 5.67319718e-223 3.26608014e-12
2.08929613e-02 3.31366182e-12 3.26608014e-12 4.75816797e-14 9.57088347e-194 4.05508129e-195 3.26608014e-12
2.39883292e-02 3.31614523e-12 3.26608014e-12 5.00650918e-14 1.58937381e-169 7.93505798e-171 3.26608014e-12
2.75422870e-02 3.30443546e-12 3.26608014e-12 3.83553267e-14 1.89391334e-148 1.01719420e-149 3.26608014e-12
3.16227766e-02 3.31883136e-12 3.26608014e-12 5.27512237e-14 4.01444558e-130 2.08889619e-131 3.26608014e-12
3.63078055e-02 3.31684402e-12 3.26608014e-12 5.07638785e-14 3.44172564e-114 1.85341781e-115 3.26608014e-12
4.16869383e-02 3.31442327e-12 3.26608014e-12 4.83431299e-14 2.42956159e-100 1.48143003e-101 3.26608014e-12
4.78630092e-02 3.31716433e-12 3.26608014e-12 5.10841898e-14 2.57416375e-88 1.56067739e-89 3.26608014e-12
5.49540874e-02 3.31515168e-12 3.26608014e-12 4.90715403e-14 7.11311115e-78 4.59648995e-79 3.26608014e-12
6.30957344e-02 3.31083748e-12 3.26608014e-12 4.47573424e-14 1.07537695e-68 7.29559507e-70 3.26608014e-12
7.24435960e-02 3.30583696e-12 3.26608014e-12 3.97568252e-14 9.76587484e-61 6.23553890e-62 3.26608014e-12
8.31763771e-02 3.30183173e-12 3.26608014e-12 3.57515955e-14 6.17916140e-54 3.75335868e-55 3.26608014e-12
9.54992586e-02 3.30403835e-12 3.26608014e-12 3.79582084e-14 4.73863372e-48 2.93254343e-49 3.26608014e-12
1.09647820e-01 3.15923512e-12 3.11908354e-12 4.01515808e-14 5.37996694e-43 3.55466477e-44 3.11908354e-12
1.25892541e-01 2.94593021e-12 2.91089813e-12 3.50320838e-14 1.24461228e-38 8.05184728e-40 2.91089813e-12
1.44543977e-01 2.75389539e-12 2.71660820e-12 3.72871891e-14 6.97860376e-35 4.22552524e-36 2.71660820e-12
1.65958691e-01 2.57121426e-12 2.53528629e-12 3.59279709e-14 8.98261137e-32 5.68839714e-33 2.53528629e-12
1.90546072e-01 2.40200452e-12 2.36606683e-12 3.59376848e-14 3.13274040e-29 2.25398331e-30 2.36606683e-12
2.18776162e-01 2.24004466e-12 2.20814205e-12 3.19026117e-14 4.30093583e-27 3.21557650e-28 2.20814205e-12
2.51188643e-01 2.09602814e-12 2.06075806e-12 3.52700833e-14 4.66144472e-25 3.99111884e-26 2.06075806e-12
2.88403150e-01 1.95645613e-12 1.92321132e-12 3.32448095e-14 2.74323542e-23 2.33300060e-24 1.92321132e-12
3.31131121e-01 1.82374676e-12 1.79484524e-12 2.89015234e-14 9.23408830e-22 7.88726310e-23 1.79484524e-12
3.80189396e-01 1.70206816e-12 1.67504704e-12 2.70211066e-14 1.94419996e-20 1.64555644e-21 1.67504704e-12
4.36515832e-01 1.58706231e-12 1.56324485e-12 2.38171825e-14 2.73532839e-19 2.37508346e-20 1.56324485e-12
5.01187234e-01 1.48074773e-12 1.45890498e-12 2.18400603e-14 2.68576876e-18 2.39403087e-19 1.45890498e-12
5.75439937e-01 1.38014729e-12 1.36152935e-12 1.85987409e-14 1.92005746e-17 1.73261236e-18 1.36152935e-12
6.60693448e-01 1.28837648e-12 1.27065312e-12 1.76198718e-14 1.03491785e-16 9.56565110e-18 1.27065312e-12
7.58577575e-01 1.20249101e-12 1.18584249e-12 1.62083663e-14 4.40157649e-16 4.08905068e-17 1.18584249e-12
8.70963590e-01 1.12178922e-12 1.10669260e-12 1.35659875e-14 1.53062652e-15 1.41230905e-16 1.10669260e-12
1.00000000e+00 1.04916194e-12 1.03282563e-12 1.19157820e-14 4.42052895e-15 3.96217585e-16 1.03282563e-12
1.14815362e+00 9.84910435e-13 9.63888963e-13 9.80685975e-15 1.12146124e-14 9.50630349e-16 9.63888963e-13
1.31825674e+00 9.32873880e-13 8.99553520e-13 8.16687783e-15 2.51534821e-14 1.95520313e-15 8.99553520e-13
1.51356125e+00 8.96117932e-13 8.39512191e-13 6.62697410e-15 4.99787666e-14 3.43372654e-15 8.39512191e-13
1.73780083e+00 8.75762219e-13 7.83478363e-13 4.84530079e-15 8.74385551e-14 5.12196791e-15 7.83478363e-13
1.99526231e+00 8.70641333e-13 7.31184552e-13 3.68327912e-15 1.35773502e-13 6.38881789e-15 7.31184552e-13
2.29086765e+00 8.74684960e-13 6.82381128e-13 2.63759461e-15 1.89666238e-13 6.83241329e-15 6.82381128e-13
2.63026799e+00 8.79681426e-13 6.36835122e-13 1.85491971e-15 2.40991384e-13 6.48077151e-15 6.36835122e-13
3.01995172e+00 8.79061527e-13 5.94329117e-13 1.24136422e-15 2.83491046e-13 5.61081369e-15 5.94329117e-13
3.46736850e+00 8.66815559e-13 5.54660204e-13 8.07109977e-16 3.11348245e-13 4.37795077e-15 5.54660204e-13
3.98107171e+00 8.39988214e-13 5.17639021e-13 5.59367312e-16 3.21789826e-13 3.18309572e-15 5.17639021e-13
4.57088190e+00 7.98878274e-13 4.83088843e-13 3.33950462e-16 3.15455480e-13 2.12323987e-15 4.83088843e-13
5.24807460e+00 6.96285336e-13 3.99440428e-13 1.81228549e-16 2.96663679e-13 1.31833448e-15 3.99440428e-13
6.02559586e+00 5.35585386e-13 2.63907674e-13 8.15917031e-17 2.71596121e-13 7.65967180e-16 2.63907674e-13
6.70000000e+00 4.41706265e-13 1.91967457e-13 3.79603670e-17 2.49700848e-13 4.66813375e-16 1.91967457e-13
6.92422916e+00 4.16301394e-13 1.73915272e-13 3.05340153e-17 2.42355588e-13 4.00985530e-16 1.73915272e-13
7.15596261e+00 3.95257869e-13 1.57560674e-13 2.37998582e-17 2.37673395e-13 3.42592610e-16 1.57560674e-13
7.39545150e+00 3.81392588e-13 1.42744025e-13 1.84234402e-17 2.38630139e-13 2.88533563e-16 1.42744025e-13
7.64295536e+00 3.86171160e-13 1.29320701e-13 1.26078177e-17 2.56837851e-13 2.46240723e-16 1.29320701e-13
7.89874245e+00 4.18530978e-13 1.17159675e-13 8.12297420e-18 3.01363180e-13 2.07172392e-16 1.17159675e-13
8.16308998e+00 4.73392340e-13 1.06142245e-13 5.22998653e-18 3.67244866e-13 1.71673324e-16 1.06142245e-13
8.43628443e+00 5.54410374e-13 9.61608686e-14 3.00931049e-18 4.58246496e-13 1.37436730e-16 9.61608686e-14
8.71862190e+00 6.11059311e-13 8.71181185e-14 1.85609849e-18 5.23939337e-13 1.05510266e-16 8.71181185e-14
9.01040836e+00 6.70397384e-13 7.89257281e-14 1.17332983e-18 5.91470483e-13 7.62371895e-17 7.89257281e-14
9.31196005e+00 7.16470819e-13 7.15037315e-14 0.00000000e+00 6.44967088e-13 0.00000000e+00 7.15037315e-14
9.62360379e+00 7.06125883e-13 6.47796826e-14 0.00000000e+00 6.41346201e-13 0.00000000e+00 6.47796826e-14
9.94567731e+00 6.57039069e-13 5.86879481e-14 0.00000000e+00 5.98351121e-13 0.00000000e+00 5.86879481e-14
1.02785297e+01 5.94611990e-13 5.31690665e-14 0.00000000e+00 5.41442923e-13 0.00000000e+00 5.31690665e-14
1.06225216e+01 5.34854224e-13 4.81691679e-14 0.00000000e+00 4.86685056e-13 0.00000000e+00 4.81691679e-14
1.09780260e+01 4.70768117e-13 4.36394486e-14 0.00000000e+00 4.27128668e-13 0.00000000e+00 4.36394486e-14
1.13454280e+01 4.15438224e-13 3.95356937e-14 0.00000000e+00 3.75902530e-13 0.00000000e+00 3.95356937e-14
1.17251259e+01 3.68545718e-13 3.58178467e-14 0.00000000e+00 3.32727871e-13 0.00000000e+00 3.58178467e-14
1.21175312e+01 3.26449728e-13 3.24496176e-14 0.00000000e+00 2.94000110e-13 0.00000000e+00 3.24496176e-14
1.25230691e+01 2.88457763e-13 2.93981291e-14 0.00000000e+00 2.59059634e-13 0.00000000e+00 2.93981291e-14
1.29421791e+01 2.56392800e-13 2.66335956e-14 0.00000000e+00 2.29759205e-13 0.00000000e+00 2.66335956e-14
1.33753155e+01 2.29757004e-13 2.41290327e-14 0.00000000e+00 2.05627971e-13 0.00000000e+00 2.41290327e-14
1.38229477e+01 2.11983069e-13 2.18599931e-14 0.00000000e+00 1.90123075e-13 0.00000000e+00 2.18599931e-14
1.42855609e+01 2.00922269e-13 1.98043289e-14 0.00000000e+00 1.81117940e-13 0.00000000e+00 1.98043289e-14
1.47636563e+01 2.01505764e-13 1.79419747e-14 0.00000000e+00 1.83563789e-13 0.00000000e+00 1.79419747e-14
1.52577522e+01 2.04740404e-13 1.62547521e-14 0.00000000e+00 1.88485652e-13 0.00000000e+00 1.62547521e-14
1.57683840e+01 2.09823752e-13 1.47261920e-14 0.00000000e+00 1.95097560e-13 0.00000000e+00 1.47261920e-14
1.62961051e+01 2.15188107e-13 1.33413743e-14 0.00000000e+00 2.01846733e-13 0.00000000e+00 1.33413743e-14
1.68414875e+01 2.21022747e-13 1.20867817e-14 0.00000000e+00 2.08935966e-13 0.00000000e+00 1.20867817e-14
1.74051222e+01 2.23914692e-13 1.09501681e-14 0.00000000e+00 2.12964524e-13 0.00000000e+00 1.09501681e-14
1.79876201e+01 2.24246326e-13 9.92043915e-15 0.00000000e+00 2.14325886e-13 0.00000000e+00 9.92043915e-15
1.85896125e+01 2.20354153e-13 8.98754353e-15 0.00000000e+00 2.11366610e-13 0.00000000e+00 8.98754353e-15
1.92117518e+01 2.13025910e-13 8.14237531e-15 0.00000000e+00 2.04883535e-13 0.00000000e+00 8.14237531e-15
1.98547123e+01 2.03621688e-13 7.37668479e-15 0.00000000e+00 1.96245003e-13 0.00000000e+00 7.37668479e-15
2.05191907e+01 1.94088145e-13 6.68299807e-15 0.00000000e+00 1.87405147e-13 0.00000000e+00 6.68299807e-15
2.12059073e+01 1.84826792e-13 6.05454408e-15 0.00000000e+00 1.78772248e-13 0.00000000e+00 6.05454408e-15
2.19156062e+01 1.77463788e-13 5.48518847e-15 0.00000000e+00 1.71978599e-13 0.00000000e+00 5.48518847e-15
2.26490567e+01 1.70233533e-13 4.96937378e-15 0.00000000e+00 1.65264160e-13 0.00000000e+00 4.96937378e-15
2.34070535e+01 1.63597284e-13 4.50206513e-15 0.00000000e+00 1.59095219e-13 0.00000000e+00 4.50206513e-15
2.41904183e+01 1.57933164e-13 4.07870113e-15 0.00000000e+00 1.53854462e-13 0.00000000e+00 4.07870113e-15
2.50000000e+01 1.52590013e-13 3.69514932e-15 0.00000000e+00 1.48894864e-13 0.00000000e+00 3.69514932e-15
2.75422870e+01 1.39175963e-13 2.76345259e-15 0.00000000e+00 1.36412510e-13 0.00000000e+00 2.76345259e-15
3.16227766e+01 1.22226752e-13 1.82579502e-15 0.00000000e+00 1.20400957e-13 0.00000000e+00 1.82579502e-15
3.63078055e+01 1.04757601e-13 1.20629081e-15 0.00000000e+00 1.03551310e-13 0.00000000e+00 1.20629081e-15
4.16869383e+01 8.58146720e-14 7.96988434e-16 0.00000000e+00 8.50176836e-14 0.00000000e+00 7.96988434e-16
4.78630092e+01 6.66399705e-14 5.26565037e-16 0.00000000e+00 6.61134055e-14 0.00000000e+00 5.26565037e-16
5.49540874e+01 4.91794305e-14 3.47898070e-16 0.00000000e+00 4.88315324e-14 0.00000000e+00 3.47898070e-16
6.30957344e+01 3.46202571e-14 2.29853975e-16 0.00000000e+00 3.43904032e-14 0.00000000e+00 2.29853975e-16
7.24435960e+01 2.33641350e-14 1.51863015e-16 0.00000000e+00 2.32122720e-14 0.00000000e+00 1.51863015e-16
8.31763771e+01 1.51803553e-14 1.00334899e-16 0.00000000e+00 1.50800204e-14 0.00000000e+00 1.00334899e-16
9.54992586e+01 9.55579895e-15 6.62906105e-17 0.00000000e+00 9.48950834e-15 0.00000000e+00 6.62906105e-17
1.09647820e+02 5.85162687e-15 4.37977720e-17 0.00000000e+00 5.80782910e-15 0.00000000e+00 4.37977720e-17
1.25892541e+02 3.53556752e-15 2.89369010e-17 0.00000000e+00 3.50663062e-15 0.00000000e+00 2.89369010e-17
1.44543977e+02 2.09977522e-15 1.91184209e-17 0.00000000e+00 2.08065680e-15 0.00000000e+00 1.91184209e-17
1.65958691e+02 1.17852209e-15 1.26314154e-17 0.00000000e+00 1.16589068e-15 0.00000000e+00 1.26314154e-17
1.90546072e+02 6.55862772e-16 8.34549342e-18 0.00000000e+00 6.47517278e-16 0.00000000e+00 8.34549342e-18
2.18776162e+02 3.61505628e-16 5.51381282e-18 0.00000000e+00 3.55991815e-16 0.00000000e+00 5.51381282e-18
2.51188643e+02 1.97263827e-16 3.64294000e-18 0.00000000e+00 1.93620887e-16 0.00000000e+00 3.64294000e-18
2.88403150e+02 1.06572796e-16 2.40686659e-18 0.00000000e+00 1.04165929e-16 0.00000000e+00 2.40686659e-18
3.31131121e+02 5.71772894e-17 1.59020099e-18 0.00000000e+00 5.55870884e-17 0.00000000e+00 1.59020099e-18
3.80189396e+02 3.04644404e-17 1.05063537e-18 0.00000000e+00 2.94138050e-17 0.00000000e+00 1.05063537e-18
4.36515832e+02 1.61580521e-17 6.94147908e-19 0.00000000e+00 1.54639042e-17 0.00000000e+00 6.94147908e-19
5.01187234e+02 8.53882490e-18 4.58618975e-19 0.00000000e+00 8.08020593e-18 0.00000000e+00 4.58618975e-19
5.75439937e+02 4.50330410e-18 3.03006552e-19 0.00000000e+00 4.20029754e-18 0.00000000e+00 3.03006552e-19
6.60693448e+02 2.37397664e-18 2.00194443e-19 0.00000000e+00 2.17378220e-18 0.00000000e+00 2.00194443e-19
7.58577575e+02 1.25295213e-18 1.32267157e-19 0.00000000e+00 1.12068497e-18 0.00000000e+00 1.32267157e-19
8.70963590e+02 6.63093550e-19 8.73880441e-20 0.00000000e+00 5.75705506e-19 0.00000000e+00 8.73880441e-20
1.00000000e+03 2.94800032e-19 0.00000000e+00 0.00000000e+00 2.94800032e-19 0.00000000e+00 0.00000000e+00
