# column 1: lambda (micron)
# column 2: total flux; lambda*F_lambda (W/m2)
# column 3: direct stellar flux; lambda*F_lambda (W/m2)
# column 4: scattered stellar flux; lambda*F_lambda (W/m2)
# column 5: total dust emission flux; lambda*F_lambda (W/m2)
# column 6: dust emission scattered flux; lambda*F_lambda (W/m2)
# column 7: transparent flux; lambda*F_lambda (W/m2)
1.00000000e-03 1.04085967e-12 1.04075818e-12 1.01488024e-16 0.00000000e+00 0.00000000e+00 1.04634360e-12
1.14815362e-03 1.24881356e-12 1.22631856e-12 2.24950017e-14 0.00000000e+00 0.00000000e+00 1.23502095e-12
1.31825674e-03 1.44504463e-12 1.44467373e-12 3.70900790e-16 0.00000000e+00 0.00000000e+00 1.45772071e-12
1.51356125e-03 1.70253260e-12 1.70243674e-12 9.58647848e-17 0.00000000e+00 0.00000000e+00 1.72057784e-12
1.73780083e-03 2.00940677e-12 2.00920110e-12 2.05671187e-16 0.00000000e+00 0.00000000e+00 2.03083353e-12
1.99526231e-03 2.36359212e-12 2.36324093e-12 3.51186760e-16 0.00000000e+00 0.00000000e+00 2.39703472e-12
2.29086765e-03 2.78768327e-12 2.78698995e-12 6.93318908e-16 0.00000000e+00 0.00000000e+00 2.82926954e-12
2.63026799e-03 3.28123129e-12 3.27973209e-12 1.49919274e-15 0.00000000e+00 0.00000000e+00 3.33944522e-12
3.01995172e-03 3.85720465e-12 3.85463222e-12 2.57242437e-15 0.00000000e+00 0.00000000e+00 3.94161611e-12
3.46736850e-03 4.54273481e-12 4.53159812e-12 1.11366894e-14 0.00000000e+00 0.00000000e+00 4.65237083e-12
3.98107171e-03 5.47197739e-12 5.32842583e-12 1.43551569e-13 0.00000000e+00 0.00000000e+00 5.49128930e-12
4.57088190e-03 6.36580211e-12 6.35261338e-12 1.31887331e-14 0.00000000e+00 0.00000000e+00 6.48148207e-12
5.24807460e-03 7.48322856e-12 7.45648908e-12 2.67394860e-14 0.00000000e+00 0.00000000e+00 7.65022704e-12
6.02559586e-03 8.79591207e-12 8.75472202e-12 4.11900535e-14 0.00000000e+00 0.00000000e+00 9.02972084e-12
6.91830971e-03 1.05440209e-11 1.02842364e-11 2.59784476e-13 0.00000000e+00 0.00000000e+00 1.06579658e-11
7.94328235e-03 1.23893975e-11 1.20886843e-11 3.00713237e-13 1.29923930e-303 8.76703692e-305 1.25798170e-11
9.12010839e-03 1.43556004e-11 1.42063262e-11 1.49274136e-13 7.45216329e-265 2.49592262e-266 1.48482176e-11
1.04712855e-02 1.60534686e-11 1.58218100e-11 2.31658589e-13 4.09855789e-231 1.14462825e-232 1.65834298e-11
1.20226443e-02 1.60039227e-11 1.57779699e-11 2.25952828e-13 8.06727836e-202 1.92676839e-203 1.65834298e-11
1.38038426e-02 1.60255707e-11 1.57261281e-11 2.99442586e-13 2.73016454e-176 1.05052446e-177 1.65834298e-11
1.58489319e-02 1.59904633e-11 1.56626518e-11 3.27811469e-13 4.36273543e-154 1.26429195e-155 1.65834298e-11
1.81970086e-02 1.59565742e-11 1.56043335e-11 3.52240737e-13 9.09683024e-135 2.83695526e-136 1.65834298e-11
2.08929613e-02 1.59378353e-11 1.55560237e-11 3.81811578e-13 5.43375773e-118 2.00659572e-119 1.65834298e-11
2.39883292e-02 1.59333509e-11 1.54936528e-11 4.39698088e-13 2.13725301e-103 7.90343101e-105 1.65834298e-11
2.75422870e-02 1.58885194e-11 1.54214191e-11 4.67100304e-13 1.05783334e-90 4.31498204e-92 1.65834298e-11
3.16227766e-02 1.58452567e-11 1.53509413e-11 4.94315308e-13 1.12258012e-79 4.55035415e-81 1.65834298e-11
3.63078055e-02 1.57636187e-11 1.52958875e-11 4.67731241e-13 4.19096056e-70 1.69456923e-71 1.65834298e-11
4.16869383e-02 1.57434149e-11 1.52484294e-11 4.94985563e-13 8.52588262e-62 3.90928059e-63 1.65834298e-11
4.78630092e-02 1.56220690e-11 1.51183730e-11 5.03695975e-13 1.35984369e-54 6.86399389e-56 1.65834298e-11
5.49540874e-02 1.54028201e-11 1.49393470e-11 4.63473112e-13 2.35506533e-48 1.27380726e-49 1.65834298e-11
6.30957344e-02 1.49288556e-11 1.44997064e-11 4.29149191e-13 7.81945677e-43 4.43827589e-44 1.65834298e-11
7.24435960e-02 1.43740008e-11 1.39956551e-11 3.78345725e-13 4.64263027e-38 2.55400126e-39 1.65834298e-11
8.31763771e-02 1.43945302e-11 1.40397889e-11 3.54741330e-13 4.91930050e-34 2.60523669e-35 1.65834298e-11
9.54992586e-02 1.45202013e-11 1.41700352e-11 3.50166061e-13 1.42686930e-30 7.75824869e-32 1.65834298e-11
1.09647820e-01 1.42487240e-11 1.38973331e-11 3.51390870e-13 1.25852941e-27 7.15390710e-29 1.58370587e-11
1.25892541e-01 1.36252576e-11 1.32729142e-11 3.52343422e-13 4.20925690e-25 2.33204797e-26 1.47800032e-11
1.44543977e-01 1.29398726e-11 1.26171209e-11 3.22751739e-13 5.87719132e-23 2.98140016e-24 1.37935015e-11
1.65958691e-01 1.22176708e-11 1.19074008e-11 3.10269954e-13 3.04594097e-21 1.66908889e-22 1.28728446e-11
1.90546072e-01 1.13594628e-11 1.10548692e-11 3.04593464e-13 6.47738841e-20 4.01968929e-21 1.20136376e-11
2.18776162e-01 1.04228064e-11 1.01695941e-11 2.53211595e-13 7.70920004e-19 5.04066264e-20 1.12117790e-11
2.51188643e-01 9.94082050e-12 9.67807154e-12 2.62739466e-13 9.50288203e-18 7.35198968e-19 1.04634409e-11
2.88403150e-01 9.40088556e-12 9.15253246e-12 2.48273083e-13 8.00195860e-17 5.76865335e-18 9.76505125e-12
3.31131121e-01 8.84456348e-12 8.61291490e-12 2.31182347e-13 4.66236755e-16 3.31894763e-17 9.11327608e-12
3.80189396e-01 8.30136660e-12 8.09353744e-12 2.05861991e-13 1.96716735e-15 1.35224045e-16 8.50500410e-12
4.36515832e-01 7.79944496e-12 7.60206020e-12 1.91118686e-13 6.26607370e-15 4.17629234e-16 7.93733165e-12
5.01187234e-01 7.32900204e-12 7.13810161e-12 1.75098273e-13 1.58021513e-14 1.04011668e-15 7.40754890e-12
5.75439937e-01 6.88430984e-12 6.69886906e-12 1.52667785e-13 3.27730021e-14 2.15989782e-15 6.91312687e-12
6.60693448e-01 6.47677102e-12 6.28285624e-12 1.35261707e-13 5.86530763e-14 4.28007861e-15 6.45170538e-12
7.58577575e-01 6.10869212e-12 5.88966749e-12 1.22068158e-13 9.69564794e-14 8.99654281e-15 6.02108180e-12
8.70963590e-01 5.78111989e-12 5.51920387e-12 1.06359268e-13 1.55556759e-13 2.01858084e-14 5.61920048e-12
1.00000000e+00 5.52246072e-12 5.16930135e-12 9.37381444e-14 2.59421227e-13 4.52310600e-14 5.24414302e-12
1.14815362e+00 5.37883912e-12 4.83911334e-12 8.00668835e-14 4.59658890e-13 9.52839769e-14 4.89411902e-12
1.31825674e+00 5.43662317e-12 4.52774283e-12 6.73149500e-14 8.41565387e-13 1.77530332e-13 4.56745763e-12
1.51356125e+00 5.80535839e-12 4.23422171e-12 5.65491449e-14 1.51458753e-12 2.93639589e-13 4.26259947e-12
1.73780083e+00 6.55900674e-12 3.95814592e-12 4.71347031e-14 2.55372612e-12 4.28560594e-13 3.97808929e-12
1.99526231e+00 7.69516533e-12 3.69877536e-12 4.06291207e-14 3.95576084e-12 5.55035096e-13 3.71256894e-12
2.29086765e+00 9.27996470e-12 3.45526195e-12 3.44756201e-14 5.79022713e-12 6.61487297e-13 3.46477093e-12
2.63026799e+00 1.11272918e-11 3.22689655e-12 2.83533906e-14 7.87204190e-12 7.18787099e-13 3.23351237e-12
3.01995172e+00 1.30563964e-11 3.01302764e-12 2.28506522e-14 1.00205181e-11 7.33750636e-13 3.01768933e-12
3.46736850e+00 1.51055492e-11 2.81293343e-12 1.75863416e-14 1.22750294e-11 6.90956362e-13 2.81627154e-12
3.98107171e+00 1.68889468e-11 2.62587676e-12 1.31473444e-14 1.42499227e-11 6.02981021e-13 2.62829753e-12
4.57088190e+00 1.86305240e-11 2.45109055e-12 9.30863466e-15 1.61701248e-11 4.78791386e-13 2.45286997e-12
5.24807460e+00 1.95242373e-11 2.02696548e-12 5.58052840e-15 1.74916913e-11 3.41332124e-13 2.02814751e-12
6.02559586e+00 1.94411664e-11 1.33933477e-12 2.52480500e-15 1.80993069e-11 2.22686142e-13 1.33998377e-12
6.70000000e+00 1.91009107e-11 9.74291475e-13 1.32086070e-15 1.81252983e-11 1.49513748e-13 9.74709347e-13
6.92422916e+00 1.88920789e-11 8.82684580e-13 1.06941685e-15 1.80083249e-11 1.30633258e-13 8.83049889e-13
7.15596261e+00 1.87293115e-11 7.99684703e-13 8.48691284e-16 1.79287781e-11 1.13126974e-13 8.00009879e-13
7.39545150e+00 1.86709121e-11 7.24477133e-13 6.47818649e-16 1.79457872e-11 9.58372359e-14 7.24778763e-13
7.64295536e+00 1.87815432e-11 6.56310868e-13 4.44100134e-16 1.81247882e-11 7.77321916e-14 6.56622211e-13
7.89874245e+00 1.92094930e-11 5.94510537e-13 2.62265236e-16 1.86147202e-11 5.91829478e-14 5.94874946e-13
8.16308998e+00 1.93211316e-11 5.38488520e-13 1.42205440e-16 1.87825008e-11 4.26993094e-14 5.38934254e-13
8.43628443e+00 1.92684978e-11 4.87693156e-13 7.10434299e-17 1.87807336e-11 2.87546260e-14 4.88254098e-13
8.71862190e+00 1.91424395e-11 4.41715437e-13 4.10770593e-17 1.87006829e-11 2.06044676e-14 4.42339790e-13
9.01040836e+00 1.87608212e-11 4.00058037e-13 2.28861286e-17 1.83607403e-11 1.41820148e-14 4.00743158e-13
9.31196005e+00 1.84355840e-11 3.62338375e-13 0.00000000e+00 1.80732456e-11 0.00000000e+00 3.63058180e-13
9.62360379e+00 1.85858743e-11 3.28247733e-13 0.00000000e+00 1.82576265e-11 0.00000000e+00 3.28917012e-13
9.94567731e+00 1.84822674e-11 2.97417434e-13 0.00000000e+00 1.81848499e-11 0.00000000e+00 2.97986401e-13
1.02785297e+01 1.85320686e-11 2.69498078e-13 0.00000000e+00 1.82625706e-11 0.00000000e+00 2.69964435e-13
1.06225216e+01 1.84713767e-11 2.44199437e-13 0.00000000e+00 1.82271773e-11 0.00000000e+00 2.44577592e-13
1.09780260e+01 1.83274563e-11 2.21282487e-13 0.00000000e+00 1.81061738e-11 0.00000000e+00 2.21578069e-13
1.13454280e+01 1.80987743e-11 2.00509409e-13 0.00000000e+00 1.78982649e-11 0.00000000e+00 2.00741370e-13
1.17251259e+01 1.77745675e-11 1.81680904e-13 0.00000000e+00 1.75928866e-11 0.00000000e+00 1.81864106e-13
1.21175312e+01 1.73807124e-11 1.64618068e-13 0.00000000e+00 1.72160943e-11 0.00000000e+00 1.64762018e-13
1.25230691e+01 1.69505938e-11 1.49155374e-13 0.00000000e+00 1.68014384e-11 0.00000000e+00 1.49268171e-13
1.29421791e+01 1.63286360e-11 1.35142326e-13 0.00000000e+00 1.61934936e-11 0.00000000e+00 1.35231331e-13
1.33753155e+01 1.55768303e-11 1.22443751e-13 0.00000000e+00 1.54543866e-11 0.00000000e+00 1.22514483e-13
1.38229477e+01 1.49938835e-11 1.10934695e-13 0.00000000e+00 1.48829488e-11 0.00000000e+00 1.10993499e-13
1.42855609e+01 1.45018109e-11 1.00504813e-13 0.00000000e+00 1.44013061e-11 0.00000000e+00 1.00555922e-13
1.47636563e+01 1.43760983e-11 9.10513653e-14 0.00000000e+00 1.42850469e-11 0.00000000e+00 9.10998706e-14
1.52577522e+01 1.43285264e-11 8.24861787e-14 0.00000000e+00 1.42460403e-11 0.00000000e+00 8.25330452e-14
1.57683840e+01 1.42418907e-11 7.47259608e-14 0.00000000e+00 1.41671647e-11 0.00000000e+00 7.47718247e-14
1.62961051e+01 1.42320222e-11 6.76956233e-14 0.00000000e+00 1.41643266e-11 0.00000000e+00 6.77404517e-14
1.68414875e+01 1.40727605e-11 6.13265749e-14 0.00000000e+00 1.40114340e-11 0.00000000e+00 6.13702932e-14
1.74051222e+01 1.38442984e-11 5.55576546e-14 0.00000000e+00 1.37887408e-11 0.00000000e+00 5.55991699e-14
1.79876201e+01 1.36115382e-11 5.03319880e-14 0.00000000e+00 1.35612062e-11 0.00000000e+00 5.03707500e-14
1.85896125e+01 1.31877756e-11 4.55989270e-14 0.00000000e+00 1.31421767e-11 0.00000000e+00 4.56339988e-14
1.92117518e+01 1.26790960e-11 4.13118747e-14 0.00000000e+00 1.26377841e-11 0.00000000e+00 4.13426810e-14
1.98547123e+01 1.21384850e-11 3.74283774e-14 0.00000000e+00 1.21010566e-11 0.00000000e+00 3.74549090e-14
2.05191907e+01 1.15332014e-11 3.39101146e-14 0.00000000e+00 1.14992913e-11 0.00000000e+00 3.39327342e-14
2.12059073e+01 1.08697181e-11 3.07224953e-14 0.00000000e+00 1.08389956e-11 0.00000000e+00 3.07417768e-14
2.19156062e+01 1.03621474e-11 2.78343737e-14 0.00000000e+00 1.03343130e-11 0.00000000e+00 2.78508898e-14
2.26490567e+01 9.75664837e-12 2.52176854e-14 0.00000000e+00 9.73143068e-12 0.00000000e+00 2.52318552e-14
2.34070535e+01 9.17198640e-12 2.28469294e-14 0.00000000e+00 9.14913947e-12 0.00000000e+00 2.28591087e-14
2.41904183e+01 8.64419958e-12 2.06989950e-14 0.00000000e+00 8.62350059e-12 0.00000000e+00 2.07094900e-14
2.50000000e+01 8.10427646e-12 1.87529534e-14 0.00000000e+00 8.08552350e-12 0.00000000e+00 1.87620165e-14
2.75422870e+01 6.62612953e-12 1.40254420e-14 0.00000000e+00 6.61210409e-12 0.00000000e+00 1.40313526e-14
3.16227766e+01 4.81673418e-12 9.26717526e-15 0.00000000e+00 4.80746700e-12 0.00000000e+00 9.27042274e-15
3.63078055e+01 3.31730494e-12 6.12313269e-15 0.00000000e+00 3.31118181e-12 0.00000000e+00 6.12490756e-15
4.16869383e+01 2.16703181e-12 4.04574195e-15 0.00000000e+00 2.16298606e-12 0.00000000e+00 4.04668630e-15
4.78630092e+01 1.33173395e-12 2.67313227e-15 0.00000000e+00 1.32906082e-12 0.00000000e+00 2.67361912e-15
5.49540874e+01 7.79127101e-13 1.76619698e-15 0.00000000e+00 7.77360904e-13 0.00000000e+00 1.76644264e-15
6.30957344e+01 4.39748567e-13 1.16695471e-15 0.00000000e+00 4.38581612e-13 0.00000000e+00 1.16707708e-15
7.24435960e+01 2.41302520e-13 7.71019655e-16 0.00000000e+00 2.40531500e-13 0.00000000e+00 7.71080178e-16
8.31763771e+01 1.29643489e-13 5.09417736e-16 0.00000000e+00 1.29134072e-13 0.00000000e+00 5.09447621e-16
9.54992586e+01 6.88746585e-14 3.36573913e-16 0.00000000e+00 6.85380846e-14 0.00000000e+00 3.36588705e-16
1.09647820e+02 3.62947254e-14 2.22374605e-16 0.00000000e+00 3.60723508e-14 0.00000000e+00 2.22381952e-16
1.25892541e+02 1.92498303e-14 1.46922595e-16 0.00000000e+00 1.91029077e-14 0.00000000e+00 1.46926299e-16
1.44543977e+02 1.02114001e-14 9.70713623e-17 0.00000000e+00 1.01143288e-14 0.00000000e+00 9.70732430e-17
1.65958691e+02 5.18829313e-15 6.41347335e-17 0.00000000e+00 5.12415840e-15 0.00000000e+00 6.41356556e-17
1.90546072e+02 2.65169725e-15 4.23735508e-17 0.00000000e+00 2.60932370e-15 0.00000000e+00 4.23740075e-17
2.18776162e+02 1.35940559e-15 2.79960016e-17 0.00000000e+00 1.33140959e-15 0.00000000e+00 2.79962291e-17
2.51188643e+02 6.97683472e-16 1.84968114e-17 0.00000000e+00 6.79186661e-16 0.00000000e+00 1.84969251e-17
2.88403150e+02 3.58004704e-16 1.22207404e-17 0.00000000e+00 3.45783964e-16 0.00000000e+00 1.22207972e-17
3.31131121e+02 1.84046141e-16 8.07417216e-18 0.00000000e+00 1.75971969e-16 0.00000000e+00 8.07420067e-18
3.80189396e+02 9.47202425e-17 5.33455718e-18 0.00000000e+00 8.93856853e-17 0.00000000e+00 5.33457148e-18
4.36515832e+02 4.88917803e-17 3.52450925e-18 0.00000000e+00 4.53672711e-17 0.00000000e+00 3.52451642e-18
5.01187234e+02 2.53254041e-17 2.32862131e-18 0.00000000e+00 2.29967828e-17 0.00000000e+00 2.32862491e-18
5.75439937e+02 1.31840342e-17 1.53850541e-18 0.00000000e+00 1.16455288e-17 0.00000000e+00 1.53850722e-18
6.60693448e+02 6.90873838e-18 1.01648073e-18 0.00000000e+00 5.89225764e-18 0.00000000e+00 1.01648164e-18
7.58577575e+02 3.65057742e-18 6.71582303e-19 0.00000000e+00 2.97899512e-18 0.00000000e+00 6.71582760e-19
8.70963590e+02 1.94843100e-18 4.43710100e-19 0.00000000e+00 1.50472090e-18 0.00000000e+00 4.43710329e-19
1.00000000e+03 7.59348891e-19 0.00000000e+00 0.00000000e+00 7.59348891e-19 0.00000000e+00 0.00000000e+00
