# column 1: lambda (micron)
# column 2: total flux; lambda*F_lambda (W/m2)
# column 3: direct stellar flux; lambda*F_lambda (W/m2)
# column 4: scattered stellar flux; lambda*F_lambda (W/m2)
# column 5: total dust emission flux; lambda*F_lambda (W/m2)
# column 6: dust emission scattered flux; lambda*F_lambda (W/m2)
# column 7: transparent flux; lambda*F_lambda (W/m2)
1.00000000e-03 1.07335650e-12 1.07335627e-12 2.27240999e-19 0.00000000e+00 0.00000000e+00 1.07335627e-12
1.14815362e-03 1.26690491e-12 1.26690456e-12 3.53196078e-19 0.00000000e+00 0.00000000e+00 1.26690456e-12
1.31825674e-03 1.49535415e-12 1.49535359e-12 5.56726240e-19 0.00000000e+00 0.00000000e+00 1.49535359e-12
1.51356125e-03 1.76499767e-12 1.76499670e-12 9.74796328e-19 0.00000000e+00 0.00000000e+00 1.76499670e-12
1.73780083e-03 2.08326908e-12 2.08326203e-12 7.05357273e-18 0.00000000e+00 0.00000000e+00 2.08326203e-12
1.99526231e-03 3.22192264e-12 2.45891716e-12 7.63005482e-13 0.00000000e+00 0.00000000e+00 2.45891716e-12
2.29086765e-03 2.90232796e-12 2.90231066e-12 1.72971866e-17 0.00000000e+00 0.00000000e+00 2.90231066e-12
2.63026799e-03 3.42581131e-12 3.42565717e-12 1.54142277e-16 0.00000000e+00 0.00000000e+00 3.42565717e-12
3.01995172e-03 4.04356158e-12 4.04337385e-12 1.87736464e-16 0.00000000e+00 0.00000000e+00 4.04337385e-12
3.46736850e-03 4.77262858e-12 4.77247759e-12 1.50986526e-16 0.00000000e+00 0.00000000e+00 4.77247759e-12
3.98107171e-03 5.63706584e-12 5.63305378e-12 4.01205449e-15 0.00000000e+00 0.00000000e+00 5.63305378e-12
4.57088190e-03 6.64942073e-12 6.64880962e-12 6.11113127e-16 0.00000000e+00 0.00000000e+00 6.64880962e-12
5.24807460e-03 7.84868123e-12 7.84772720e-12 9.54032913e-16 0.00000000e+00 0.00000000e+00 7.84772720e-12
6.02559586e-03 9.26466858e-12 9.26283435e-12 1.83422502e-15 0.00000000e+00 0.00000000e+00 9.26283435e-12
6.91830971e-03 1.09377641e-11 1.09331145e-11 4.64957933e-15 0.00000000e+00 0.00000000e+00 1.09331145e-11
7.94328235e-03 1.29379985e-11 1.29045807e-11 3.34177978e-14 3.64514581e-303 7.16833134e-306 1.29045807e-11
9.12010839e-03 1.52546880e-11 1.52315429e-11 2.31450715e-14 1.72319967e-264 6.83915312e-267 1.52315429e-11
1.04712855e-02 1.70527439e-11 1.70115517e-11 4.11921717e-14 7.75885199e-231 2.47734063e-233 1.70115517e-11
1.20226443e-02 1.70463939e-11 1.70115517e-11 3.48421654e-14 1.28905303e-201 8.75848162e-204 1.70115517e-11
1.38038426e-02 1.70452413e-11 1.70115517e-11 3.36895655e-14 3.68129950e-176 2.17075926e-178 1.70115517e-11
1.58489319e-02 1.70406658e-11 1.70115517e-11 2.91140884e-14 5.20380026e-154 4.45099609e-156 1.70115517e-11
1.81970086e-02 1.70389330e-11 1.70115517e-11 2.73812362e-14 9.64170821e-135 1.02842306e-136 1.70115517e-11
2.08929613e-02 1.70482345e-11 1.70115517e-11 3.66827822e-14 5.20038895e-118 6.27465857e-120 1.70115517e-11
2.39883292e-02 1.70548038e-11 1.70115517e-11 4.32520414e-14 1.88119691e-103 3.10789675e-105 1.70115517e-11
2.75422870e-02 1.70564975e-11 1.70115517e-11 4.49458055e-14 8.64265566e-91 1.78391492e-92 1.70115517e-11
3.16227766e-02 1.70595658e-11 1.70115517e-11 4.80140794e-14 8.61349923e-80 2.03519475e-81 1.70115517e-11
3.63078055e-02 1.70648164e-11 1.70115517e-11 5.32646402e-14 3.04803543e-70 8.38590065e-72 1.70115517e-11
4.16869383e-02 1.70753011e-11 1.70115517e-11 6.37493750e-14 5.91576514e-62 2.16942967e-63 1.70115517e-11
4.78630092e-02 1.70918159e-11 1.70115517e-11 8.02641554e-14 9.12054096e-55 4.45393887e-56 1.70115517e-11
5.49540874e-02 1.71079292e-11 1.70115517e-11 9.63774612e-14 1.54036725e-48 9.01496581e-50 1.70115517e-11
6.30957344e-02 1.71271277e-11 1.70115517e-11 1.15575983e-13 5.04128961e-43 3.43278235e-44 1.70115517e-11
7.24435960e-02 1.71315584e-11 1.70115517e-11 1.20006723e-13 2.93024925e-38 1.85075106e-39 1.70115517e-11
8.31763771e-02 1.71290643e-11 1.70115517e-11 1.17512534e-13 3.02259381e-34 1.88692728e-35 1.70115517e-11
9.54992586e-02 1.71314815e-11 1.70115517e-11 1.19929818e-13 8.59924164e-31 5.66507491e-32 1.70115517e-11
1.09647820e-01 1.63643956e-11 1.62459122e-11 1.18483452e-13 7.37780855e-28 5.34891469e-29 1.62459122e-11
1.25892541e-01 1.52644650e-11 1.51615674e-11 1.02897582e-13 2.40635132e-25 1.73731832e-26 1.51615674e-11
1.44543977e-01 1.42403628e-11 1.41495980e-11 9.07648307e-14 3.29132883e-23 2.30985407e-24 1.41495980e-11
1.65958691e-01 1.32958115e-11 1.32051732e-11 9.06383601e-14 1.67855750e-21 1.29977680e-22 1.32051732e-11
1.90546072e-01 1.24257695e-11 1.23237846e-11 1.01984856e-13 3.57080594e-20 3.34992464e-21 1.23237846e-11
2.18776162e-01 1.16100653e-11 1.15012250e-11 1.08839828e-13 4.25181347e-19 4.25734139e-20 1.15012250e-11
2.51188643e-01 1.08534400e-11 1.07335677e-11 1.19867069e-13 5.22673784e-18 6.46662447e-19 1.07335677e-11
2.88403150e-01 1.01247888e-11 1.00171482e-11 1.07597158e-13 4.34283792e-17 5.14584879e-18 1.00171482e-11
3.31131121e-01 9.44289192e-12 9.34854667e-12 9.40967149e-14 2.48534373e-16 2.81710886e-17 9.34854667e-12
3.80189396e-01 8.81061675e-12 8.72457139e-12 8.50100954e-14 1.03526595e-15 1.13501995e-16 8.72457139e-12
4.36515832e-01 8.22229912e-12 8.14224377e-12 7.67785703e-14 3.27677404e-15 3.53053525e-16 8.14224377e-12
5.01187234e-01 7.67940035e-12 7.59878402e-12 7.24247905e-14 8.19154026e-15 8.79388719e-16 7.59878402e-12
5.75439937e-01 7.17536299e-12 7.09159786e-12 6.69179111e-14 1.68472154e-14 1.77115777e-15 7.09159786e-12
6.60693448e-01 6.70798195e-12 6.61826421e-12 5.99873411e-14 2.97304000e-14 3.10921144e-15 6.61826421e-12
7.58577575e-01 6.27838247e-12 6.17652353e-12 5.46761742e-14 4.71827658e-14 4.88786340e-15 6.17652353e-12
8.70963590e-01 5.88345254e-12 5.76426715e-12 4.91583878e-14 7.00269968e-14 7.18277362e-15 5.76426715e-12
1.00000000e+00 5.52277821e-12 5.37952711e-12 4.26589712e-14 1.00592126e-13 1.01937315e-14 5.37952711e-12
1.14815362e+00 5.20480987e-12 5.02046681e-12 3.64631220e-14 1.47879932e-13 1.48877311e-14 5.02046681e-12
1.31825674e+00 4.93986140e-12 4.68537225e-12 2.98196814e-14 2.24669473e-13 2.15583797e-14 4.68537225e-12
1.51356125e+00 4.74152680e-12 4.37264380e-12 2.40801636e-14 3.44802835e-13 3.07984605e-14 4.37264380e-12
1.73780083e+00 4.60902962e-12 4.08078863e-12 1.86561702e-14 5.09584819e-13 4.02653051e-14 4.08078863e-12
1.99526231e+00 4.53068545e-12 3.80841354e-12 1.40595834e-14 7.08212327e-13 4.80086473e-14 3.80841354e-12
2.29086765e+00 4.47720344e-12 3.55421832e-12 1.00535713e-14 9.12931554e-13 5.06130375e-14 3.55421832e-12
2.63026799e+00 4.41543715e-12 3.31698953e-12 7.17557567e-15 1.09127204e-12 4.76229548e-14 3.31698953e-12
3.01995172e+00 4.32450477e-12 3.09559474e-12 4.99019067e-15 1.22391984e-12 4.14308776e-14 3.09559474e-12
3.46736850e+00 4.18881168e-12 2.88897711e-12 3.40538648e-15 1.29642919e-12 3.27438045e-14 2.88897711e-12
3.98107171e+00 4.00416529e-12 2.69615031e-12 2.15744036e-15 1.30585754e-12 2.36506751e-14 2.69615031e-12
4.57088190e+00 3.78183638e-12 2.51619387e-12 1.38954790e-15 1.26425296e-12 1.57953744e-14 2.51619387e-12
5.24807460e+00 3.26525709e-12 2.08050667e-12 7.49177114e-16 1.18400125e-12 9.89431159e-15 2.08050667e-12
6.02559586e+00 2.46623094e-12 1.37457712e-12 3.11211568e-16 1.09134261e-12 5.79501976e-15 1.37457712e-12
6.70000000e+00 2.01022047e-12 9.99872685e-13 1.52811117e-16 1.01019497e-12 3.66248066e-15 9.99872685e-13
6.92422916e+00 1.88936671e-12 9.05846924e-13 1.21298479e-16 9.83398489e-13 3.13277250e-15 9.05846924e-13
7.15596261e+00 1.78762781e-12 8.20663132e-13 9.47280644e-17 9.66869952e-13 2.67524883e-15 8.20663132e-13
7.39545150e+00 1.71542357e-12 7.43489831e-13 7.27518674e-17 9.71860990e-13 2.30298833e-15 7.43489831e-13
7.64295536e+00 1.71671680e-12 6.73573732e-13 5.20438527e-17 1.04309102e-12 1.97278278e-15 6.73573732e-13
7.89874245e+00 1.82294208e-12 6.10232385e-13 3.44766274e-17 1.21267522e-12 1.69137054e-15 6.10232385e-13
8.16308998e+00 2.00699772e-12 5.52847515e-13 2.14821615e-17 1.45412872e-12 1.42974400e-15 5.52847515e-13
8.43628443e+00 2.28016741e-12 5.00858987e-13 1.24090932e-17 1.77929602e-12 1.16016260e-15 5.00858987e-13
8.71862190e+00 2.46370442e-12 4.53759343e-13 8.02565735e-18 2.00993705e-12 9.15124182e-16 4.53759343e-13
9.01040836e+00 2.64405626e-12 4.11088843e-13 4.80456817e-18 2.23296261e-12 6.61689227e-16 4.11088843e-13
9.31196005e+00 2.77070467e-12 3.72430980e-13 0.00000000e+00 2.39827369e-12 0.00000000e+00 3.72430980e-13
9.62360379e+00 2.71391742e-12 3.37408415e-13 0.00000000e+00 2.37650901e-12 0.00000000e+00 3.37408415e-13
9.94567731e+00 2.53407839e-12 3.05679292e-13 0.00000000e+00 2.22839909e-12 0.00000000e+00 3.05679292e-13
1.02785297e+01 2.31442020e-12 2.76933904e-13 0.00000000e+00 2.03748629e-12 0.00000000e+00 2.76933904e-13
1.06225216e+01 2.10525747e-12 2.50891667e-13 0.00000000e+00 1.85436580e-12 0.00000000e+00 2.50891667e-13
1.09780260e+01 1.87502045e-12 2.27298384e-13 0.00000000e+00 1.64772206e-12 0.00000000e+00 2.27298384e-13
1.13454280e+01 1.67534955e-12 2.05923759e-13 0.00000000e+00 1.46942579e-12 0.00000000e+00 2.05923759e-13
1.17251259e+01 1.50575543e-12 1.86559155e-13 0.00000000e+00 1.31919627e-12 0.00000000e+00 1.86559155e-13
1.21175312e+01 1.34845405e-12 1.69015555e-13 0.00000000e+00 1.17943850e-12 0.00000000e+00 1.69015555e-13
1.25230691e+01 1.20698009e-12 1.53121715e-13 0.00000000e+00 1.05385838e-12 0.00000000e+00 1.53121715e-13
1.29421791e+01 1.08404049e-12 1.38722496e-13 0.00000000e+00 9.45317990e-13 0.00000000e+00 1.38722496e-13
1.33753155e+01 9.78768308e-13 1.25677347e-13 0.00000000e+00 8.53090961e-13 0.00000000e+00 1.25677347e-13
1.38229477e+01 9.07354689e-13 1.13858934e-13 0.00000000e+00 7.93495755e-13 0.00000000e+00 1.13858934e-13
1.42855609e+01 8.61190938e-13 1.03151898e-13 0.00000000e+00 7.58039040e-13 0.00000000e+00 1.03151898e-13
1.47636563e+01 8.58870405e-13 9.34517274e-14 0.00000000e+00 7.65418677e-13 0.00000000e+00 9.34517274e-14
1.52577522e+01 8.68362488e-13 8.46637387e-14 0.00000000e+00 7.83698749e-13 0.00000000e+00 8.46637387e-14
1.57683840e+01 8.83231937e-13 7.67021526e-14 0.00000000e+00 8.06529784e-13 0.00000000e+00 7.67021526e-14
1.62961051e+01 9.03222436e-13 6.94892560e-14 0.00000000e+00 8.33733180e-13 0.00000000e+00 6.94892560e-14
1.68414875e+01 9.19618097e-13 6.29546439e-14 0.00000000e+00 8.56663453e-13 0.00000000e+00 6.29546439e-14
1.74051222e+01 9.23141668e-13 5.70345319e-14 0.00000000e+00 8.66107136e-13 0.00000000e+00 5.70345319e-14
1.79876201e+01 9.18796461e-13 5.16711337e-14 0.00000000e+00 8.67125327e-13 0.00000000e+00 5.16711337e-14
1.85896125e+01 8.98944175e-13 4.68120974e-14 0.00000000e+00 8.52132078e-13 0.00000000e+00 4.68120974e-14
1.92117518e+01 8.63322318e-13 4.24099939e-14 0.00000000e+00 8.20912324e-13 0.00000000e+00 4.24099939e-14
1.98547123e+01 8.20267259e-13 3.84218542e-14 0.00000000e+00 7.81845405e-13 0.00000000e+00 3.84218542e-14
2.05191907e+01 7.76170689e-13 3.48087501e-14 0.00000000e+00 7.41361938e-13 0.00000000e+00 3.48087501e-14
2.12059073e+01 7.31956463e-13 3.15354141e-14 0.00000000e+00 7.00421049e-13 0.00000000e+00 3.15354141e-14
2.19156062e+01 6.93670497e-13 2.85698952e-14 0.00000000e+00 6.65100602e-13 0.00000000e+00 2.85698952e-14
2.26490567e+01 6.56324563e-13 2.58832470e-14 0.00000000e+00 6.30441316e-13 0.00000000e+00 2.58832470e-14
2.34070535e+01 6.21569197e-13 2.34492452e-14 0.00000000e+00 5.98119952e-13 0.00000000e+00 2.34492452e-14
2.41904183e+01 5.90422822e-13 2.12441313e-14 0.00000000e+00 5.69178691e-13 0.00000000e+00 2.12441313e-14
2.50000000e+01 5.59165238e-13 1.92463813e-14 0.00000000e+00 5.39918856e-13 0.00000000e+00 1.92463813e-14
2.75422870e+01 4.75199580e-13 1.43935895e-14 0.00000000e+00 4.60805990e-13 0.00000000e+00 1.43935895e-14
3.16227766e+01 3.67043013e-13 9.50975027e-15 0.00000000e+00 3.57533263e-13 0.00000000e+00 9.50975027e-15
3.63078055e+01 2.70503924e-13 6.28302969e-15 0.00000000e+00 2.64220895e-13 0.00000000e+00 6.28302969e-15
4.16869383e+01 1.86469729e-13 4.15115655e-15 0.00000000e+00 1.82318573e-13 0.00000000e+00 4.15115655e-15
4.78630092e+01 1.20778386e-13 2.74264194e-15 0.00000000e+00 1.18035744e-13 0.00000000e+00 2.74264194e-15
5.49540874e+01 7.42591451e-14 1.81204556e-15 0.00000000e+00 7.24470996e-14 0.00000000e+00 1.81204556e-15
6.30957344e+01 4.38829392e-14 1.19720663e-15 0.00000000e+00 4.26857325e-14 0.00000000e+00 1.19720663e-15
7.24435960e+01 2.51819340e-14 7.90986575e-16 0.00000000e+00 2.43909474e-14 0.00000000e+00 7.90986575e-16
8.31763771e+01 1.41459301e-14 5.22599647e-16 0.00000000e+00 1.36233304e-14 0.00000000e+00 5.22599647e-16
9.54992586e+01 7.83848032e-15 3.45278163e-16 0.00000000e+00 7.49320216e-15 0.00000000e+00 3.45278163e-16
1.09647820e+02 4.30264764e-15 2.28123020e-16 0.00000000e+00 4.07452462e-15 0.00000000e+00 2.28123020e-16
1.25892541e+02 2.37306988e-15 1.50719385e-16 0.00000000e+00 2.22235050e-15 0.00000000e+00 1.50719385e-16
1.44543977e+02 1.30791021e-15 9.95793099e-17 0.00000000e+00 1.20833090e-15 0.00000000e+00 9.95793099e-17
1.65958691e+02 6.91979144e-16 6.57913976e-17 0.00000000e+00 6.26187746e-16 0.00000000e+00 6.57913976e-17
1.90546072e+02 3.68847812e-16 4.34679453e-17 0.00000000e+00 3.25379866e-16 0.00000000e+00 4.34679453e-17
2.18776162e+02 1.97745052e-16 2.87189867e-17 0.00000000e+00 1.69026065e-16 0.00000000e+00 2.87189867e-17
2.51188643e+02 1.06566727e-16 1.89744463e-17 0.00000000e+00 8.75922803e-17 0.00000000e+00 1.89744463e-17
2.88403150e+02 5.77511145e-17 1.25362924e-17 0.00000000e+00 4.52148222e-17 0.00000000e+00 1.25362924e-17
3.31131121e+02 3.15716215e-17 8.28264623e-18 0.00000000e+00 2.32889752e-17 0.00000000e+00 8.28264623e-18
3.80189396e+02 1.74275233e-17 5.47229010e-18 0.00000000e+00 1.19552332e-17 0.00000000e+00 5.47229010e-18
4.36515832e+02 9.73957107e-18 3.61550621e-18 0.00000000e+00 6.12406485e-18 0.00000000e+00 3.61550621e-18
5.01187234e+02 5.51807006e-18 2.38874127e-18 0.00000000e+00 3.12932880e-18 0.00000000e+00 2.38874127e-18
5.75439937e+02 3.17406713e-18 1.57822570e-18 0.00000000e+00 1.59584142e-18 0.00000000e+00 1.57822570e-18
6.60693448e+02 1.85510648e-18 1.04272338e-18 0.00000000e+00 8.12383102e-19 0.00000000e+00 1.04272338e-18
7.58577575e+02 1.10183421e-18 6.88920507e-19 0.00000000e+00 4.12913700e-19 0.00000000e+00 6.88920507e-19
8.70963590e+02 6.64701606e-19 4.55165265e-19 0.00000000e+00 2.09536341e-19 0.00000000e+00 4.55165265e-19
1.00000000e+03 1.06168649e-19 0.00000000e+00 0.00000000e+00 1.06168649e-19 0.00000000e+00 0.00000000e+00
