# column 1: lambda (micron)
# column 2: total flux; lambda*F_lambda (W/m2)
# column 3: direct stellar flux; lambda*F_lambda (W/m2)
# column 4: scattered stellar flux; lambda*F_lambda (W/m2)
# column 5: total dust emission flux; lambda*F_lambda (W/m2)
# column 6: dust emission scattered flux; lambda*F_lambda (W/m2)
# column 7: transparent flux; lambda*F_lambda (W/m2)
1.00000000e-03 8.46529510e-13 8.46529401e-13 1.08960961e-19 0.00000000e+00 0.00000000e+00 8.46529401e-13
1.14815362e-03 9.99176299e-13 9.99176121e-13 1.77966557e-19 0.00000000e+00 0.00000000e+00 9.99176121e-13
1.31825674e-03 1.17934847e-12 1.17934819e-12 2.73365589e-19 0.00000000e+00 0.00000000e+00 1.17934819e-12
1.51356125e-03 1.39200946e-12 1.39200901e-12 4.46785806e-19 0.00000000e+00 0.00000000e+00 1.39200901e-12
1.73780083e-03 1.64301775e-12 1.64301696e-12 7.95537278e-19 0.00000000e+00 0.00000000e+00 1.64301696e-12
1.99526231e-03 1.93928829e-12 1.93928682e-12 1.47216535e-18 0.00000000e+00 0.00000000e+00 1.93928682e-12
2.29086765e-03 2.28898257e-12 2.28898025e-12 2.31119421e-18 0.00000000e+00 0.00000000e+00 2.28898025e-12
2.63026799e-03 2.70173523e-12 2.70173063e-12 4.60525996e-18 0.00000000e+00 0.00000000e+00 2.70173063e-12
3.01995172e-03 3.18891643e-12 3.18890841e-12 8.01957522e-18 0.00000000e+00 0.00000000e+00 3.18890841e-12
3.46736850e-03 3.76394700e-12 3.76393440e-12 1.25987089e-17 0.00000000e+00 0.00000000e+00 3.76393440e-12
3.98107171e-03 4.44267038e-12 4.44264945e-12 2.09343050e-17 0.00000000e+00 0.00000000e+00 4.44264945e-12
4.57088190e-03 5.24379418e-12 5.24375082e-12 4.33563761e-17 0.00000000e+00 0.00000000e+00 5.24375082e-12
5.24807460e-03 6.18939023e-12 6.18930730e-12 8.29286330e-17 0.00000000e+00 0.00000000e+00 6.18930730e-12
6.02559586e-03 7.30551373e-12 7.30536713e-12 1.46595610e-16 0.00000000e+00 0.00000000e+00 7.30536713e-12
6.91830971e-03 8.62292578e-12 8.62267558e-12 2.50208425e-16 0.00000000e+00 0.00000000e+00 8.62267558e-12
7.94328235e-03 1.01779419e-11 1.01775219e-11 4.19953339e-16 0.00000000e+00 0.00000000e+00 1.01775219e-11
9.12010839e-03 1.20133941e-11 1.20127391e-11 6.54928931e-16 0.00000000e+00 0.00000000e+00 1.20127391e-11
1.04712855e-02 1.34174754e-11 1.34165878e-11 8.87602357e-16 0.00000000e+00 0.00000000e+00 1.34165878e-11
1.20226443e-02 1.34179410e-11 1.34165878e-11 1.35311497e-15 0.00000000e+00 0.00000000e+00 1.34165878e-11
1.38038426e-02 1.34189143e-11 1.34165878e-11 2.32647568e-15 8.74619109e-289 1.04805848e-290 1.34165878e-11
1.58489319e-02 1.34192917e-11 1.34165878e-11 2.70390647e-15 3.85665423e-252 8.57641738e-254 1.34165878e-11
1.81970086e-02 1.34201987e-11 1.34165878e-11 3.61091018e-15 2.98693227e-220 6.28403731e-222 1.34165878e-11
2.08929613e-02 1.34216420e-11 1.34165878e-11 5.05416475e-15 1.59912572e-192 3.98208276e-194 1.34165878e-11
2.39883292e-02 1.34244408e-11 1.34165878e-11 7.85293119e-15 2.19023513e-168 6.24676083e-170 1.34165878e-11
2.75422870e-02 1.34266413e-11 1.34165878e-11 1.00534251e-14 2.22471259e-147 7.61576323e-149 1.34165878e-11
3.16227766e-02 1.34284740e-11 1.34165878e-11 1.18861825e-14 4.12306914e-129 1.58109506e-130 1.34165878e-11
3.63078055e-02 1.34311071e-11 1.34165878e-11 1.45192645e-14 3.13323609e-113 1.29871292e-114 1.34165878e-11
4.16869383e-02 1.34376717e-11 1.34165878e-11 2.10838935e-14 1.99964526e-99 1.03615141e-100 1.34165878e-11
4.78630092e-02 1.34457290e-11 1.34165878e-11 2.91411433e-14 1.96453622e-87 1.26110178e-88 1.34165878e-11
5.49540874e-02 1.34544990e-11 1.34165878e-11 3.79111869e-14 5.08648608e-77 3.79568635e-78 1.34165878e-11
6.30957344e-02 1.34627184e-11 1.34165878e-11 4.61305398e-14 7.31911860e-68 6.43165093e-69 1.34165878e-11
7.24435960e-02 1.34622508e-11 1.34165878e-11 4.56629107e-14 6.32678532e-60 5.42555787e-61 1.34165878e-11
8.31763771e-02 1.34624801e-11 1.34165878e-11 4.58922902e-14 3.82524944e-53 3.23052306e-54 1.34165878e-11
9.54992586e-02 1.34643839e-11 1.34165878e-11 4.77960837e-14 2.80565186e-47 2.43880737e-48 1.34165878e-11
1.09647820e-01 1.28606261e-11 1.28127470e-11 4.78791515e-14 3.05238835e-42 2.76919166e-43 1.28127470e-11
1.25892541e-01 1.20000822e-11 1.19575512e-11 4.25310416e-14 6.75739846e-38 5.78176395e-39 1.19575512e-11
1.44543977e-01 1.11977564e-11 1.11594361e-11 3.83202739e-14 3.64648583e-34 2.97108125e-35 1.11594361e-11
1.65958691e-01 1.04543507e-11 1.04145917e-11 3.97589582e-14 4.55690155e-31 3.92530336e-32 1.04145917e-11
1.90546072e-01 9.76490325e-12 9.71946251e-12 4.54407323e-14 1.57175958e-28 1.62232954e-29 9.71946251e-12
2.18776162e-01 9.11639895e-12 9.07073019e-12 4.56687541e-14 2.12577317e-26 2.37163406e-27 9.07073019e-12
2.51188643e-01 8.52032697e-12 8.46529796e-12 5.50290014e-14 2.22135765e-24 2.88718256e-25 8.46529796e-12
2.88403150e-01 7.94823468e-12 7.90027573e-12 4.79589475e-14 1.23267282e-22 1.56806528e-23 7.90027573e-12
3.31131121e-01 7.41491178e-12 7.37296631e-12 4.19454751e-14 3.86223985e-21 4.82547022e-22 7.37296631e-12
3.80189396e-01 6.91955181e-12 6.88085251e-12 3.86992187e-14 7.52468094e-20 9.39007629e-21 6.88085251e-12
4.36515832e-01 6.45713124e-12 6.42158520e-12 3.55450605e-14 9.78520206e-19 1.23710544e-19 6.42158520e-12
5.01187234e-01 6.02478799e-12 5.99297201e-12 3.18070607e-14 8.91989443e-18 1.13132828e-18 5.99297201e-12
5.75439937e-01 5.62372142e-12 5.59296690e-12 3.06951078e-14 5.94146390e-17 7.45444948e-18 5.59296690e-12
6.60693448e-01 5.24756504e-12 5.21966041e-12 2.76048319e-14 2.99791713e-16 3.74526910e-17 5.21966041e-12
7.58577575e-01 4.89685822e-12 4.87127053e-12 2.43922417e-14 1.19544323e-15 1.45644574e-16 4.87127053e-12
8.70963590e-01 4.57250150e-12 4.54613417e-12 2.24822412e-14 3.88508125e-15 4.53484773e-16 4.54613417e-12
1.00000000e+00 4.27158925e-12 4.24269927e-12 1.83501054e-14 1.05398724e-14 1.15874717e-15 4.24269927e-12
1.14815362e+00 4.00074000e-12 3.95951734e-12 1.61960614e-14 2.50266026e-14 2.55757436e-15 3.95951734e-12
1.31825674e+00 3.76109479e-12 3.69523659e-12 1.29735915e-14 5.28846102e-14 4.84012018e-15 3.69523659e-12
1.51356125e+00 3.55851481e-12 3.44859544e-12 1.01439368e-14 9.97754404e-14 7.98452272e-15 3.44859544e-12
1.73780083e+00 3.39259682e-12 3.21841652e-12 7.44682065e-15 1.66733480e-13 1.12481016e-14 3.21841652e-12
1.99526231e+00 3.25754445e-12 3.00360106e-12 5.53330791e-15 2.48410077e-13 1.35410936e-14 3.00360106e-12
2.29086765e+00 3.13947451e-12 2.80312361e-12 3.80257023e-15 3.32548327e-13 1.37895087e-14 2.80312361e-12
2.63026799e+00 3.02401654e-12 2.61602716e-12 2.57267846e-15 4.05416698e-13 1.23239304e-14 2.61602716e-12
3.01995172e+00 2.89827018e-12 2.44141860e-12 1.66738439e-15 4.55184191e-13 9.97569984e-15 2.44141860e-12
3.46736850e+00 2.75583067e-12 2.27846441e-12 1.05884407e-15 4.76307418e-13 7.21236546e-15 2.27846441e-12
3.98107171e+00 2.59464842e-12 2.12638671e-12 6.61663284e-16 4.67600042e-13 4.82391889e-15 2.12638671e-12
4.57088190e+00 2.42085371e-12 1.98445954e-12 3.94721867e-16 4.35999451e-13 2.95087882e-15 1.98445954e-12
5.24807460e+00 2.03212438e-12 1.64084388e-12 2.16673046e-16 3.91063826e-13 1.69741926e-15 1.64084388e-12
6.02559586e+00 1.42787656e-12 1.08409480e-12 8.42038204e-17 3.43697562e-13 9.13853025e-16 1.08409480e-12
6.70000000e+00 1.09569739e-12 7.88574724e-13 3.96911403e-17 3.07082972e-13 5.38276612e-16 7.88574724e-13
6.92422916e+00 1.00995680e-12 7.14418944e-13 3.23174951e-17 2.95505536e-13 4.54691929e-16 7.14418944e-13
7.15596261e+00 9.35327549e-13 6.47236606e-13 2.41304964e-17 2.88066813e-13 3.80818617e-16 6.47236606e-13
7.39545150e+00 8.75759598e-13 5.86371942e-13 1.93948657e-17 2.89368261e-13 3.22697400e-16 5.86371942e-13
7.64295536e+00 8.46681347e-13 5.31230854e-13 1.41811422e-17 3.15436312e-13 2.80201957e-16 5.31230854e-13
7.89874245e+00 8.61611068e-13 4.81275108e-13 9.88325475e-18 3.80326076e-13 2.48615353e-16 4.81275108e-13
8.16308998e+00 9.12888134e-13 4.36017088e-13 6.03192797e-18 4.76865014e-13 2.19677130e-16 4.36017088e-13
8.43628443e+00 1.00837817e-12 3.95015029e-13 3.61054747e-18 6.13359529e-13 1.86091098e-16 3.95015029e-13
8.71862190e+00 1.06829549e-12 3.57868711e-13 2.46879481e-18 7.10424311e-13 1.50662332e-16 3.57868711e-13
9.01040836e+00 1.13613767e-12 3.24215549e-13 1.57687367e-18 8.11920543e-13 1.16527251e-16 3.24215549e-13
9.31196005e+00 1.18508293e-12 2.93727053e-13 0.00000000e+00 8.91355873e-13 0.00000000e+00 2.93727053e-13
9.62360379e+00 1.14887889e-12 2.66105627e-13 0.00000000e+00 8.82773262e-13 0.00000000e+00 2.66105627e-13
9.94567731e+00 1.05501982e-12 2.41081657e-13 0.00000000e+00 8.13938159e-13 0.00000000e+00 2.41081657e-13
1.02785297e+01 9.43289263e-13 2.18410884e-13 0.00000000e+00 7.24878379e-13 0.00000000e+00 2.18410884e-13
1.06225216e+01 8.39785528e-13 1.97872020e-13 0.00000000e+00 6.41913509e-13 0.00000000e+00 1.97872020e-13
1.09780260e+01 7.30283719e-13 1.79264583e-13 0.00000000e+00 5.51019136e-13 0.00000000e+00 1.79264583e-13
1.13454280e+01 6.37226983e-13 1.62406948e-13 0.00000000e+00 4.74820035e-13 0.00000000e+00 1.62406948e-13
1.17251259e+01 5.58545950e-13 1.47134567e-13 0.00000000e+00 4.11411383e-13 0.00000000e+00 1.47134567e-13
1.21175312e+01 4.89008909e-13 1.33298366e-13 0.00000000e+00 3.55710543e-13 0.00000000e+00 1.33298366e-13
1.25230691e+01 4.28440401e-13 1.20763289e-13 0.00000000e+00 3.07677112e-13 0.00000000e+00 1.20763289e-13
1.29421791e+01 3.76944643e-13 1.09406983e-13 0.00000000e+00 2.67537660e-13 0.00000000e+00 1.09406983e-13
1.33753155e+01 3.33527156e-13 9.91185987e-14 0.00000000e+00 2.34408557e-13 0.00000000e+00 9.91185987e-14
1.38229477e+01 3.03272918e-13 8.97977103e-14 0.00000000e+00 2.13475207e-13 0.00000000e+00 8.97977103e-14
1.42855609e+01 2.82791904e-13 8.13533371e-14 0.00000000e+00 2.01438567e-13 0.00000000e+00 8.13533371e-14
1.47636563e+01 2.77502915e-13 7.37030537e-14 0.00000000e+00 2.03799861e-13 0.00000000e+00 7.37030537e-14
1.52577522e+01 2.75870625e-13 6.67721855e-14 0.00000000e+00 2.09098439e-13 0.00000000e+00 6.67721855e-14
1.57683840e+01 2.77548582e-13 6.04930805e-14 0.00000000e+00 2.17055502e-13 0.00000000e+00 6.04930805e-14
1.62961051e+01 2.79778856e-13 5.48044484e-14 0.00000000e+00 2.24974407e-13 0.00000000e+00 5.48044484e-14
1.68414875e+01 2.82809848e-13 4.96507622e-14 0.00000000e+00 2.33159086e-13 0.00000000e+00 4.96507622e-14
1.74051222e+01 2.82101227e-13 4.49817171e-14 0.00000000e+00 2.37119510e-13 0.00000000e+00 4.49817171e-14
1.79876201e+01 2.78932158e-13 4.07517384e-14 0.00000000e+00 2.38180419e-13 0.00000000e+00 4.07517384e-14
1.85896125e+01 2.70303388e-13 3.69195372e-14 0.00000000e+00 2.33383850e-13 0.00000000e+00 3.69195372e-14
1.92117518e+01 2.57829199e-13 3.34477076e-14 0.00000000e+00 2.24381492e-13 0.00000000e+00 3.34477076e-14
1.98547123e+01 2.42888627e-13 3.03023610e-14 0.00000000e+00 2.12586266e-13 0.00000000e+00 3.03023610e-14
2.05191907e+01 2.27689897e-13 2.74527957e-14 0.00000000e+00 2.00237102e-13 0.00000000e+00 2.74527957e-14
2.12059073e+01 2.13958705e-13 2.48711970e-14 0.00000000e+00 1.89087508e-13 0.00000000e+00 2.48711970e-14
2.19156062e+01 2.01969585e-13 2.25323660e-14 0.00000000e+00 1.79437219e-13 0.00000000e+00 2.25323660e-14
2.26490567e+01 1.91271374e-13 2.04134733e-14 0.00000000e+00 1.70857901e-13 0.00000000e+00 2.04134733e-14
2.34070535e+01 1.81624633e-13 1.84938366e-14 0.00000000e+00 1.63130796e-13 0.00000000e+00 1.84938366e-14
2.41904183e+01 1.72765088e-13 1.67547181e-14 0.00000000e+00 1.56010370e-13 0.00000000e+00 1.67547181e-14
2.50000000e+01 1.64885983e-13 1.51791424e-14 0.00000000e+00 1.49706841e-13 0.00000000e+00 1.51791424e-14
2.75422870e+01 1.44675711e-13 1.13518661e-14 0.00000000e+00 1.33323845e-13 0.00000000e+00 1.13518661e-14
3.16227766e+01 1.20831449e-13 7.50010357e-15 0.00000000e+00 1.13331345e-13 0.00000000e+00 7.50010357e-15
3.63078055e+01 9.89280269e-14 4.95526929e-15 0.00000000e+00 9.39727576e-14 0.00000000e+00 4.95526929e-15
4.16869383e+01 7.74565779e-14 3.27391395e-15 0.00000000e+00 7.41826639e-14 0.00000000e+00 3.27391395e-15
4.78630092e+01 5.75301871e-14 2.16305350e-15 0.00000000e+00 5.53671336e-14 0.00000000e+00 2.16305350e-15
5.49540874e+01 4.07216784e-14 1.42911527e-15 0.00000000e+00 3.92925631e-14 0.00000000e+00 1.42911527e-15
6.30957344e+01 2.76395100e-14 9.44207098e-16 0.00000000e+00 2.66953029e-14 0.00000000e+00 9.44207098e-16
7.24435960e+01 1.80626345e-14 6.23831443e-16 0.00000000e+00 1.74388031e-14 0.00000000e+00 6.23831443e-16
8.31763771e+01 1.14367791e-14 4.12161347e-16 0.00000000e+00 1.10246178e-14 0.00000000e+00 4.12161347e-16
9.54992586e+01 7.05160463e-15 2.72312302e-16 0.00000000e+00 6.77929233e-15 0.00000000e+00 2.72312302e-16
1.09647820e+02 4.25005803e-15 1.79914953e-16 0.00000000e+00 4.07014307e-15 0.00000000e+00 1.79914953e-16
1.25892541e+02 2.53898588e-15 1.18868631e-16 0.00000000e+00 2.42011725e-15 0.00000000e+00 1.18868631e-16
1.44543977e+02 1.49649484e-15 7.85357256e-17 0.00000000e+00 1.41795911e-15 0.00000000e+00 7.85357256e-17
1.65958691e+02 8.37403121e-16 5.18880394e-17 0.00000000e+00 7.85515081e-16 0.00000000e+00 5.18880394e-17
1.90546072e+02 4.66518048e-16 3.42820876e-17 0.00000000e+00 4.32235961e-16 0.00000000e+00 3.42820876e-17
2.18776162e+02 2.58493456e-16 2.26499507e-17 0.00000000e+00 2.35843505e-16 0.00000000e+00 2.26499507e-17
2.51188643e+02 1.42444563e-16 1.49646740e-17 0.00000000e+00 1.27479889e-16 0.00000000e+00 1.49646740e-17
2.88403150e+02 7.81145663e-17 9.88706207e-18 0.00000000e+00 6.82275042e-17 0.00000000e+00 9.88706207e-18
3.31131121e+02 4.27848417e-17 6.53231713e-18 0.00000000e+00 3.62525245e-17 0.00000000e+00 6.53231713e-18
3.80189396e+02 2.34296791e-17 4.31585913e-18 0.00000000e+00 1.91138199e-17 0.00000000e+00 4.31585913e-18
4.36515832e+02 1.28699041e-17 2.85145985e-18 0.00000000e+00 1.00184442e-17 0.00000000e+00 2.85145985e-18
5.01187234e+02 7.10549387e-18 1.88394084e-18 0.00000000e+00 5.22155303e-18 0.00000000e+00 1.88394084e-18
5.75439937e+02 3.95320149e-18 1.24470737e-18 0.00000000e+00 2.70849412e-18 0.00000000e+00 1.24470737e-18
6.60693448e+02 2.22154254e-18 8.22370004e-19 0.00000000e+00 1.39917253e-18 0.00000000e+00 8.22370004e-19
7.58577575e+02 1.26355907e-18 5.43334473e-19 0.00000000e+00 7.20224596e-19 0.00000000e+00 5.43334473e-19
8.70963590e+02 7.28477896e-19 3.58977527e-19 0.00000000e+00 3.69500369e-19 0.00000000e+00 3.58977527e-19
1.00000000e+03 1.88996924e-19 0.00000000e+00 0.00000000e+00 1.88996924e-19 0.00000000e+00 0.00000000e+00
