# column 1: lambda (micron)
# column 2: total flux; lambda*F_lambda (W/m2)
# column 3: direct stellar flux; lambda*F_lambda (W/m2)
# column 4: scattered stellar flux; lambda*F_lambda (W/m2)
# column 5: total dust emission flux; lambda*F_lambda (W/m2)
# column 6: dust emission scattered flux; lambda*F_lambda (W/m2)
# column 7: transparent flux; lambda*F_lambda (W/m2)
1.00000000e-03 9.68073581e-13 9.68073281e-13 3.00317719e-19 0.00000000e+00 0.00000000e+00 9.68073281e-13
1.14815362e-03 1.14263736e-12 1.14263687e-12 4.88213265e-19 0.00000000e+00 0.00000000e+00 1.14263687e-12
1.31825674e-03 1.34867859e-12 1.34867788e-12 7.11067614e-19 0.00000000e+00 0.00000000e+00 1.34867788e-12
1.51356125e-03 1.59187344e-12 1.59187233e-12 1.11055082e-18 0.00000000e+00 0.00000000e+00 1.59187233e-12
1.73780083e-03 1.87892187e-12 1.87891976e-12 2.10695819e-18 0.00000000e+00 0.00000000e+00 1.87891976e-12
1.99526231e-03 2.21773141e-12 2.21772777e-12 3.64494523e-18 0.00000000e+00 0.00000000e+00 2.21772777e-12
2.29086765e-03 2.61763555e-12 2.61762985e-12 5.70332081e-18 0.00000000e+00 0.00000000e+00 2.61762985e-12
2.63026799e-03 3.08965410e-12 3.08964252e-12 1.15751126e-17 0.00000000e+00 0.00000000e+00 3.08964252e-12
3.01995172e-03 3.64678755e-12 3.64676883e-12 1.87182595e-17 0.00000000e+00 0.00000000e+00 3.64676883e-12
3.46736850e-03 4.30438802e-12 4.30435650e-12 3.15237088e-17 0.00000000e+00 0.00000000e+00 4.30435650e-12
3.98107171e-03 5.08057144e-12 5.08052080e-12 5.06386478e-17 0.00000000e+00 0.00000000e+00 5.08052080e-12
4.57088190e-03 5.99675548e-12 5.99664354e-12 1.11944781e-16 0.00000000e+00 0.00000000e+00 5.99664354e-12
5.24807460e-03 7.07815969e-12 7.07796211e-12 1.97580025e-16 0.00000000e+00 0.00000000e+00 7.07796211e-12
6.02559586e-03 8.35463218e-12 8.35426474e-12 3.67440448e-16 0.00000000e+00 0.00000000e+00 8.35426474e-12
6.91830971e-03 9.86128572e-12 9.86071107e-12 5.74648165e-16 0.00000000e+00 0.00000000e+00 9.86071107e-12
7.94328235e-03 1.16397656e-11 1.16388008e-11 9.64890526e-16 0.00000000e+00 0.00000000e+00 1.16388008e-11
9.12010839e-03 1.37390818e-11 1.37375167e-11 1.56513385e-15 0.00000000e+00 0.00000000e+00 1.37375167e-11
1.04712855e-02 1.53450571e-11 1.53429287e-11 2.12844155e-15 0.00000000e+00 0.00000000e+00 1.53429287e-11
1.20226443e-02 1.53460494e-11 1.53429287e-11 3.12074105e-15 0.00000000e+00 0.00000000e+00 1.53429287e-11
1.38038426e-02 1.53476169e-11 1.53429287e-11 4.68822779e-15 1.12268897e-289 1.43497506e-290 1.53429287e-11
1.58489319e-02 1.53498873e-11 1.53429287e-11 6.95861841e-15 5.87065629e-253 7.57361082e-254 1.53429287e-11
1.81970086e-02 1.53512293e-11 1.53429287e-11 8.30068454e-15 5.48964033e-221 7.86127905e-222 1.53429287e-11
2.08929613e-02 1.53551611e-11 1.53429287e-11 1.22324815e-14 3.36747932e-193 4.04655009e-194 1.53429287e-11
2.39883292e-02 1.53603537e-11 1.53429287e-11 1.74250366e-14 5.30158113e-169 5.70232300e-170 1.53429287e-11
2.75422870e-02 1.53669236e-11 1.53429287e-11 2.39949341e-14 6.24636684e-148 6.82537883e-149 1.53429287e-11
3.16227766e-02 1.53721285e-11 1.53429287e-11 2.91998762e-14 1.31976487e-129 1.30941160e-130 1.53429287e-11
3.63078055e-02 1.53754757e-11 1.53429287e-11 3.25470620e-14 1.14405475e-113 1.05914791e-114 1.53429287e-11
4.16869383e-02 1.53900482e-11 1.53429287e-11 4.71195011e-14 8.33099743e-100 8.03223619e-101 1.53429287e-11
4.78630092e-02 1.54064527e-11 1.53429287e-11 6.35239970e-14 9.25049728e-88 9.48975609e-89 1.53429287e-11
5.49540874e-02 1.54253807e-11 1.53429287e-11 8.24520448e-14 2.70417215e-77 3.02564788e-78 1.53429287e-11
6.30957344e-02 1.54466025e-11 1.53429287e-11 1.03673821e-13 4.38836160e-68 5.36264722e-69 1.53429287e-11
7.24435960e-02 1.54448689e-11 1.53429287e-11 1.01940195e-13 4.27645616e-60 5.19062058e-61 1.53429287e-11
8.31763771e-02 1.54471250e-11 1.53429287e-11 1.04196309e-13 2.98957208e-53 3.65108698e-54 1.53429287e-11
9.54992586e-02 1.54508426e-11 1.53429287e-11 1.07913933e-13 2.55276659e-47 3.30010833e-48 1.53429287e-11
1.09647820e-01 1.47626553e-11 1.46523889e-11 1.10266426e-13 3.31454982e-42 4.66616084e-43 1.46523889e-11
1.25892541e-01 1.37743238e-11 1.36744049e-11 9.99188184e-14 8.77506419e-38 1.24938579e-38 1.36744049e-11
1.44543977e-01 1.28492938e-11 1.27616972e-11 8.75965975e-14 5.71044353e-34 7.98027763e-35 1.27616972e-11
1.65958691e-01 1.19993807e-11 1.19099088e-11 8.94719212e-14 8.71412087e-31 1.36756242e-31 1.19099088e-11
1.90546072e-01 1.12190176e-11 1.11149736e-11 1.04043935e-13 3.61097281e-28 6.83474156e-29 1.11149736e-11
2.18776162e-01 1.04792421e-11 1.03730969e-11 1.06145171e-13 5.72886563e-26 1.19318209e-26 1.03730969e-11
2.51188643e-01 9.80641931e-12 9.68073733e-12 1.25681972e-13 7.49568687e-24 1.84558893e-24 9.68073733e-12
2.88403150e-01 9.14596480e-12 9.03458975e-12 1.11375052e-13 4.91834814e-22 1.19516526e-22 9.03458975e-12
3.31131121e-01 8.53248051e-12 8.43156974e-12 1.00910748e-13 1.74642213e-20 4.14363681e-21 8.43156974e-12
3.80189396e-01 7.95988958e-12 7.86879872e-12 9.10904860e-14 3.66217952e-19 8.49216880e-20 7.86879872e-12
4.36515832e-01 7.42903347e-12 7.34359025e-12 8.54383274e-14 4.88727831e-18 1.12475816e-18 7.34359025e-12
5.01187234e-01 6.93366126e-12 6.85343719e-12 8.01801966e-14 4.38745237e-17 9.97971148e-18 6.85343719e-12
5.75439937e-01 6.47140693e-12 6.39599973e-12 7.51285134e-14 2.78683527e-16 6.24997371e-17 6.39599973e-12
6.60693448e-01 6.04214174e-12 5.96909425e-12 7.17195038e-14 1.32797689e-15 2.92558861e-16 5.96909425e-12
7.58577575e-01 5.63976326e-12 5.57068288e-12 6.41169316e-14 4.96344726e-15 1.06209750e-15 5.57068288e-12
8.70963590e-01 5.27264271e-12 5.19886376e-12 5.85948096e-14 1.51841443e-14 3.10800864e-15 5.19886376e-12
1.00000000e+00 4.94138030e-12 4.85186196e-12 5.06513455e-14 3.88669890e-14 7.48121015e-15 4.85186196e-12
1.14815362e+00 4.65936344e-12 4.52802104e-12 4.39796382e-14 8.73627531e-14 1.52184724e-14 4.52802104e-12
1.31825674e+00 4.43658833e-12 4.22579511e-12 3.58840378e-14 1.74909175e-13 2.66762962e-14 4.22579511e-12
1.51356125e+00 4.28656240e-12 3.94374146e-12 2.83532494e-14 3.14467687e-13 4.09490262e-14 3.94374146e-12
1.73780083e+00 4.20587181e-12 3.68051368e-12 2.18443231e-14 5.03513806e-13 5.40613471e-14 3.68051368e-12
1.99526231e+00 4.17524739e-12 3.43485522e-12 1.57939076e-14 7.24598263e-13 6.11733295e-14 3.43485522e-12
2.29086765e+00 4.15894984e-12 3.20559341e-12 1.13078374e-14 9.42048597e-13 6.02391097e-14 3.20559341e-12
2.63026799e+00 4.12594538e-12 2.99163384e-12 7.91302745e-15 1.12639852e-12 5.35962730e-14 2.99163384e-12
3.01995172e+00 4.04653440e-12 2.79195514e-12 5.54791207e-15 1.24903135e-12 4.30110044e-14 2.79195514e-12
3.46736850e+00 3.91335410e-12 2.60560415e-12 3.64277939e-15 1.30410717e-12 3.19885399e-14 2.60560415e-12
3.98107171e+00 3.72054411e-12 2.43169128e-12 2.36214343e-15 1.28649069e-12 2.17099761e-14 2.43169128e-12
4.57088190e+00 3.48557754e-12 2.26938634e-12 1.50386350e-15 1.21468734e-12 1.37934867e-14 2.26938634e-12
5.24807460e+00 2.99040075e-12 1.87643467e-12 7.88935994e-16 1.11317714e-12 8.20853268e-15 1.87643467e-12
6.02559586e+00 2.24772523e-12 1.23974809e-12 3.38674544e-16 1.00763847e-12 4.66510705e-15 1.23974809e-12
6.70000000e+00 1.82627304e-12 9.01797527e-13 1.62192885e-16 9.24313318e-13 2.92499949e-15 9.01797527e-13
6.92422916e+00 1.71526096e-12 8.16994532e-13 1.33855296e-16 8.98132569e-13 2.47544279e-15 8.16994532e-13
7.15596261e+00 1.62158988e-12 7.40166218e-13 1.04033281e-16 8.81319634e-13 2.09958983e-15 7.40166218e-13
7.39545150e+00 1.55876372e-12 6.70562664e-13 7.84162481e-17 8.88122636e-13 1.81012147e-15 6.70562664e-13
7.64295536e+00 1.56721396e-12 6.07504471e-13 5.68786701e-17 9.59652615e-13 1.55854214e-15 6.07504471e-13
7.89874245e+00 1.67933860e-12 5.50376127e-13 3.75905625e-17 1.12892488e-12 1.33738555e-15 5.50376127e-13
8.16308998e+00 1.87225440e-12 4.98620004e-13 2.32677503e-17 1.37361112e-12 1.14820500e-15 4.98620004e-13
8.43628443e+00 2.15929288e-12 4.51730909e-13 1.37833089e-17 1.70754819e-12 9.42762693e-16 4.51730909e-13
8.71862190e+00 2.35225124e-12 4.09251158e-13 8.83249366e-18 1.94299125e-12 7.58895022e-16 4.09251158e-13
9.01040836e+00 2.56004200e-12 3.70766106e-13 5.46284779e-18 2.18927043e-12 5.59903882e-16 3.70766106e-13
9.31196005e+00 2.71891321e-12 3.35900102e-13 0.00000000e+00 2.38301311e-12 0.00000000e+00 3.35900102e-13
9.62360379e+00 2.67241060e-12 3.04312818e-13 0.00000000e+00 2.36809778e-12 0.00000000e+00 3.04312818e-13
9.94567731e+00 2.49024643e-12 2.75695930e-13 0.00000000e+00 2.21455050e-12 0.00000000e+00 2.75695930e-13
1.02785297e+01 2.26508260e-12 2.49770110e-13 0.00000000e+00 2.01531249e-12 0.00000000e+00 2.49770110e-13
1.06225216e+01 2.05411056e-12 2.26282295e-13 0.00000000e+00 1.82782826e-12 0.00000000e+00 2.26282295e-13
1.09780260e+01 1.82510069e-12 2.05003220e-13 0.00000000e+00 1.62009747e-12 0.00000000e+00 2.05003220e-13
1.13454280e+01 1.62567517e-12 1.85725182e-13 0.00000000e+00 1.43994998e-12 0.00000000e+00 1.85725182e-13
1.17251259e+01 1.45673474e-12 1.68260007e-13 0.00000000e+00 1.28847473e-12 0.00000000e+00 1.68260007e-13
1.21175312e+01 1.30665940e-12 1.52437217e-13 0.00000000e+00 1.15422219e-12 0.00000000e+00 1.52437217e-13
1.25230691e+01 1.17091632e-12 1.38102367e-13 0.00000000e+00 1.03281395e-12 0.00000000e+00 1.38102367e-13
1.29421791e+01 1.05688913e-12 1.25115533e-13 0.00000000e+00 9.31773594e-13 0.00000000e+00 1.25115533e-13
1.33753155e+01 9.61006679e-13 1.13349952e-13 0.00000000e+00 8.47656727e-13 0.00000000e+00 1.13349952e-13
1.38229477e+01 8.97282234e-13 1.02690779e-13 0.00000000e+00 7.94591454e-13 0.00000000e+00 1.02690779e-13
1.42855609e+01 8.60876490e-13 9.30339713e-14 0.00000000e+00 7.67842519e-13 0.00000000e+00 9.30339713e-14
1.47636563e+01 8.71226078e-13 8.42852675e-14 0.00000000e+00 7.86940810e-13 0.00000000e+00 8.42852675e-14
1.52577522e+01 8.93434586e-13 7.63592720e-14 0.00000000e+00 8.17075314e-13 0.00000000e+00 7.63592720e-14
1.57683840e+01 9.23839366e-13 6.91786191e-14 0.00000000e+00 8.54660747e-13 0.00000000e+00 6.91786191e-14
1.62961051e+01 9.59865687e-13 6.26732185e-14 0.00000000e+00 8.97192468e-13 0.00000000e+00 6.26732185e-14
1.68414875e+01 9.94339337e-13 5.67795711e-14 0.00000000e+00 9.37559766e-13 0.00000000e+00 5.67795711e-14
1.74051222e+01 1.01647138e-12 5.14401489e-14 0.00000000e+00 9.65031235e-13 0.00000000e+00 5.14401489e-14
1.79876201e+01 1.03277456e-12 4.66028339e-14 0.00000000e+00 9.86171725e-13 0.00000000e+00 4.66028339e-14
1.85896125e+01 1.03119109e-12 4.22204090e-14 0.00000000e+00 9.88970678e-13 0.00000000e+00 4.22204090e-14
1.92117518e+01 1.01039376e-12 3.82500974e-14 0.00000000e+00 9.72143667e-13 0.00000000e+00 3.82500974e-14
1.98547123e+01 9.80132405e-13 3.46531450e-14 0.00000000e+00 9.45479260e-13 0.00000000e+00 3.46531450e-14
2.05191907e+01 9.46560506e-13 3.13944418e-14 0.00000000e+00 9.15166065e-13 0.00000000e+00 3.13944418e-14
2.12059073e+01 9.15834002e-13 2.84421796e-14 0.00000000e+00 8.87391823e-13 0.00000000e+00 2.84421796e-14
2.19156062e+01 8.88688127e-13 2.57675415e-14 0.00000000e+00 8.62920586e-13 0.00000000e+00 2.57675415e-14
2.26490567e+01 8.63630488e-13 2.33444203e-14 0.00000000e+00 8.40286068e-13 0.00000000e+00 2.33444203e-14
2.34070535e+01 8.40633506e-13 2.11491639e-14 0.00000000e+00 8.19484342e-13 0.00000000e+00 2.11491639e-14
2.41904183e+01 8.20434895e-13 1.91603445e-14 0.00000000e+00 8.01274551e-13 0.00000000e+00 1.91603445e-14
2.50000000e+01 7.99103424e-13 1.73585491e-14 0.00000000e+00 7.81744875e-13 0.00000000e+00 1.73585491e-14
2.75422870e+01 7.41583657e-13 1.29817562e-14 0.00000000e+00 7.28601901e-13 0.00000000e+00 1.29817562e-14
3.16227766e+01 6.53625823e-13 8.57696126e-15 0.00000000e+00 6.45048862e-13 0.00000000e+00 8.57696126e-15
3.63078055e+01 5.49504295e-13 5.66674211e-15 0.00000000e+00 5.43837553e-13 0.00000000e+00 5.66674211e-15
4.16869383e+01 4.33452128e-13 3.74397938e-15 0.00000000e+00 4.29708149e-13 0.00000000e+00 3.74397938e-15
4.78630092e+01 3.19214434e-13 2.47362265e-15 0.00000000e+00 3.16740811e-13 0.00000000e+00 2.47362265e-15
5.49540874e+01 2.21097226e-13 1.63430628e-15 0.00000000e+00 2.19462919e-13 0.00000000e+00 1.63430628e-15
6.30957344e+01 1.45741522e-13 1.07977545e-15 0.00000000e+00 1.44661747e-13 0.00000000e+00 1.07977545e-15
7.24435960e+01 9.20083350e-14 7.13400564e-16 0.00000000e+00 9.12949345e-14 0.00000000e+00 7.13400564e-16
8.31763771e+01 5.61608889e-14 4.71339078e-16 0.00000000e+00 5.56895498e-14 0.00000000e+00 4.71339078e-16
9.54992586e+01 3.33843698e-14 3.11410641e-16 0.00000000e+00 3.30729592e-14 0.00000000e+00 3.11410641e-16
1.09647820e+02 1.94204693e-14 2.05746970e-16 0.00000000e+00 1.92147223e-14 0.00000000e+00 2.05746970e-16
1.25892541e+02 1.12210414e-14 1.35935675e-16 0.00000000e+00 1.10851057e-14 0.00000000e+00 1.35935675e-16
1.44543977e+02 6.41069252e-15 8.98118099e-17 0.00000000e+00 6.32088071e-15 0.00000000e+00 8.98118099e-17
1.65958691e+02 3.47813609e-15 5.93380743e-17 0.00000000e+00 3.41879802e-15 0.00000000e+00 5.93380743e-17
1.90546072e+02 1.88109384e-15 3.92042769e-17 0.00000000e+00 1.84188956e-15 0.00000000e+00 3.92042769e-17
2.18776162e+02 1.01258903e-15 2.59020089e-17 0.00000000e+00 9.86687023e-16 0.00000000e+00 2.59020089e-17
2.51188643e+02 5.41983779e-16 1.71132876e-17 0.00000000e+00 5.24870491e-16 0.00000000e+00 1.71132876e-17
2.88403150e+02 2.88358787e-16 1.13066370e-17 0.00000000e+00 2.77052150e-16 0.00000000e+00 1.13066370e-17
3.31131121e+02 1.52927403e-16 7.47022097e-18 0.00000000e+00 1.45457183e-16 0.00000000e+00 7.47022097e-18
3.80189396e+02 8.08371928e-17 4.93552605e-18 0.00000000e+00 7.59016668e-17 0.00000000e+00 4.93552605e-18
4.36515832e+02 4.26912062e-17 3.26086972e-18 0.00000000e+00 3.94303365e-17 0.00000000e+00 3.26086972e-18
5.01187234e+02 2.25475899e-17 2.15443526e-18 0.00000000e+00 2.03931546e-17 0.00000000e+00 2.15443526e-18
5.75439937e+02 1.19314143e-17 1.42342126e-18 0.00000000e+00 1.05079931e-17 0.00000000e+00 1.42342126e-18
6.60693448e+02 6.33760555e-18 9.40445101e-19 0.00000000e+00 5.39716045e-18 0.00000000e+00 9.40445101e-19
7.58577575e+02 3.38574482e-18 6.21345916e-19 0.00000000e+00 2.76439890e-18 0.00000000e+00 6.21345916e-19
8.70963590e+02 1.82266432e-18 4.10519176e-19 0.00000000e+00 1.41214514e-18 0.00000000e+00 4.10519176e-19
1.00000000e+03 7.19616389e-19 0.00000000e+00 0.00000000e+00 7.19616389e-19 0.00000000e+00 0.00000000e+00
