# column 1: lambda (micron)
# column 2: total flux; lambda*F_lambda (W/m2)
# column 3: direct stellar flux; lambda*F_lambda (W/m2)
# column 4: scattered stellar flux; lambda*F_lambda (W/m2)
# column 5: total dust emission flux; lambda*F_lambda (W/m2)
# column 6: dust emission scattered flux; lambda*F_lambda (W/m2)
# column 7: transparent flux; lambda*F_lambda (W/m2)
1.00000000e-03 1.04563539e-12 1.04563433e-12 1.05798683e-18 0.00000000e+00 0.00000000e+00 1.04634360e-12
1.14815362e-03 1.23391657e-12 1.23391503e-12 1.53256439e-18 0.00000000e+00 0.00000000e+00 1.23502095e-12
1.31825674e-03 1.45607857e-12 1.45606129e-12 1.72759488e-17 0.00000000e+00 0.00000000e+00 1.45772071e-12
1.51356125e-03 1.71827851e-12 1.71826889e-12 9.61984339e-18 0.00000000e+00 0.00000000e+00 1.72057784e-12
1.73780083e-03 2.02810194e-12 2.02808008e-12 2.18671890e-17 0.00000000e+00 0.00000000e+00 2.03083353e-12
1.99526231e-03 2.39617968e-12 2.39272679e-12 3.45289678e-15 0.00000000e+00 0.00000000e+00 2.39703472e-12
2.29086765e-03 2.82392443e-12 2.82387785e-12 4.65811798e-17 0.00000000e+00 0.00000000e+00 2.82926954e-12
2.63026799e-03 3.33205720e-12 3.33182042e-12 2.36777797e-16 0.00000000e+00 0.00000000e+00 3.33944522e-12
3.01995172e-03 3.93114851e-12 3.93048843e-12 6.60082288e-16 0.00000000e+00 0.00000000e+00 3.94161611e-12
3.46736850e-03 4.63753108e-12 4.63689382e-12 6.37263923e-16 0.00000000e+00 0.00000000e+00 4.65237083e-12
3.98107171e-03 5.47149868e-12 5.47038383e-12 1.11485194e-15 0.00000000e+00 0.00000000e+00 5.49128930e-12
4.57088190e-03 6.50567426e-12 6.46501215e-12 4.06621121e-14 0.00000000e+00 0.00000000e+00 6.48148207e-12
5.24807460e-03 7.67481526e-12 7.62540656e-12 4.94087014e-14 0.00000000e+00 0.00000000e+00 7.65022704e-12
6.02559586e-03 9.02365309e-12 8.99440889e-12 2.92442001e-14 0.00000000e+00 0.00000000e+00 9.02972084e-12
6.91830971e-03 1.06247916e-11 1.06098768e-11 1.49148952e-14 0.00000000e+00 0.00000000e+00 1.06579658e-11
7.94328235e-03 1.25494582e-11 1.25165080e-11 3.29502344e-14 4.38462270e-303 2.94152142e-305 1.25798170e-11
9.12010839e-03 1.47840078e-11 1.47653185e-11 1.86893804e-14 2.04702088e-264 1.15493027e-266 1.48482176e-11
1.04712855e-02 1.65265607e-11 1.64849477e-11 4.16130096e-14 9.15311202e-231 5.58286459e-233 1.65834298e-11
1.20226443e-02 1.65169812e-11 1.64791538e-11 3.78274840e-14 1.50915142e-201 1.37414876e-203 1.65834298e-11
1.38038426e-02 1.65102565e-11 1.64722842e-11 3.79723191e-14 4.28457318e-176 3.83970988e-178 1.65834298e-11
1.58489319e-02 1.65002582e-11 1.64638459e-11 3.64123392e-14 6.03258433e-154 7.95493248e-156 1.65834298e-11
1.81970086e-02 1.64946177e-11 1.64560670e-11 3.85507876e-14 1.11039603e-134 1.50635013e-136 1.65834298e-11
2.08929613e-02 1.64929818e-11 1.64496038e-11 4.33780603e-14 5.98150049e-118 1.05364750e-119 1.65834298e-11
2.39883292e-02 1.64896908e-11 1.64412334e-11 4.84573939e-14 2.15149671e-103 4.34109966e-105 1.65834298e-11
2.75422870e-02 1.64815508e-11 1.64315026e-11 5.00481924e-14 9.86791343e-91 2.55224685e-92 1.65834298e-11
3.16227766e-02 1.64791305e-11 1.64219699e-11 5.71606164e-14 9.81684738e-80 2.99042418e-81 1.65834298e-11
3.63078055e-02 1.64742338e-11 1.64144968e-11 5.97369885e-14 3.46520726e-70 1.17800473e-71 1.65834298e-11
4.16869383e-02 1.64824228e-11 1.64080359e-11 7.43869061e-14 6.71506700e-62 2.91596707e-63 1.65834298e-11
4.78630092e-02 1.64797470e-11 1.63902396e-11 8.95074359e-14 1.03250429e-54 5.72087929e-56 1.65834298e-11
5.49540874e-02 1.64716162e-11 1.63655226e-11 1.06093590e-13 1.73856971e-48 1.12091337e-49 1.65834298e-11
6.30957344e-02 1.64281212e-11 1.63037085e-11 1.24412695e-13 5.65935364e-43 4.03474552e-44 1.65834298e-11
7.24435960e-02 1.63520663e-11 1.62307909e-11 1.21275382e-13 3.26820418e-38 2.07613426e-39 1.65834298e-11
8.31763771e-02 1.63587367e-11 1.62372663e-11 1.21470354e-13 3.37044087e-34 2.13366415e-35 1.65834298e-11
9.54992586e-02 1.63816749e-11 1.62562731e-11 1.25401806e-13 9.57931499e-31 6.37665536e-32 1.65834298e-11
1.09647820e-01 1.57013301e-11 1.55770689e-11 1.24261193e-13 8.24112672e-28 6.23535087e-29 1.58370587e-11
1.25892541e-01 1.46919140e-11 1.45799842e-11 1.11929753e-13 2.69465613e-25 2.05325748e-26 1.47800032e-11
1.44543977e-01 1.37359570e-11 1.36386006e-11 9.73564354e-14 3.70069420e-23 2.85957605e-24 1.37935015e-11
1.65958691e-01 1.28493200e-11 1.27463286e-11 1.02991486e-13 1.89300430e-21 1.65405708e-22 1.28728446e-11
1.90546072e-01 1.20024897e-11 1.18877144e-11 1.14775228e-13 4.02726438e-20 4.18736794e-21 1.20136376e-11
2.18776162e-01 1.11907981e-11 1.10740518e-11 1.16745793e-13 4.77536767e-19 5.16286319e-20 1.12117790e-11
2.51188643e-01 1.04988196e-11 1.03605198e-11 1.38293959e-13 5.92248271e-18 8.17714214e-19 1.04634409e-11
2.88403150e-01 9.80792310e-12 9.68523855e-12 1.22634952e-13 4.95991399e-17 6.89877747e-18 9.76505125e-12
3.31131121e-01 9.15830656e-12 9.04831124e-12 1.09710780e-13 2.84536026e-16 3.86999671e-17 9.11327608e-12
3.80189396e-01 8.55380234e-12 8.45173963e-12 1.00875750e-13 1.18695242e-15 1.57980075e-16 8.50500410e-12
4.36515832e-01 7.99085670e-12 7.89405132e-12 9.30438644e-14 3.76151238e-15 4.97177116e-16 7.93733165e-12
5.01187234e-01 7.47004025e-12 7.37285775e-12 8.77618435e-14 9.42066268e-15 1.25274215e-15 7.40754890e-12
5.75439937e-01 6.98735447e-12 6.88560790e-12 8.23239243e-14 1.94226538e-14 2.56785839e-15 6.91312687e-12
6.60693448e-01 6.54141876e-12 6.43006533e-12 7.69465473e-14 3.44068834e-14 4.60000329e-15 6.45170538e-12
7.58577575e-01 6.13008977e-12 6.00427203e-12 7.08897837e-14 5.49279507e-14 7.43404358e-15 6.02108180e-12
8.70963590e-01 5.75042782e-12 5.60643235e-12 6.18080381e-14 8.21874372e-14 1.11336934e-14 5.61920048e-12
1.00000000e+00 5.40946704e-12 5.23460170e-12 5.53561734e-14 1.19509169e-13 1.62701451e-14 5.24414302e-12
1.14815362e+00 5.10978885e-12 4.88711590e-12 4.57817496e-14 1.76891195e-13 2.32632883e-14 4.89411902e-12
1.31825674e+00 4.86864332e-12 4.56240695e-12 3.67265445e-14 2.69509830e-13 3.25150681e-14 4.56745763e-12
1.51356125e+00 4.69486637e-12 4.25899380e-12 2.68058786e-14 4.09066690e-13 4.30995746e-14 4.26259947e-12
1.73780083e+00 4.58995490e-12 3.97555712e-12 2.03005740e-14 5.94097209e-13 5.14003264e-14 3.97808929e-12
1.99526231e+00 4.53089428e-12 3.71081859e-12 1.43391794e-14 8.05736510e-13 5.45745301e-14 3.71256894e-12
2.29086765e+00 4.48176124e-12 3.46356479e-12 9.48489002e-15 1.00871155e-12 5.07157805e-14 3.46477093e-12
2.63026799e+00 4.41400995e-12 3.23267346e-12 6.21283906e-15 1.17512364e-12 4.31758859e-14 3.23351237e-12
3.01995172e+00 4.30432952e-12 3.01709834e-12 4.03566922e-15 1.28319551e-12 3.47923076e-14 3.01768933e-12
3.46736850e+00 4.14506672e-12 2.81584842e-12 2.63557481e-15 1.32658272e-12 2.64351395e-14 2.81627154e-12
3.98107171e+00 3.94667616e-12 2.62799072e-12 1.62193589e-15 1.31706350e-12 1.94045801e-14 2.62829753e-12
4.57088190e+00 3.71314106e-12 2.45264447e-12 1.08921791e-15 1.25940737e-12 1.37094461e-14 2.45286997e-12
5.24807460e+00 3.20846061e-12 2.02799772e-12 5.87821448e-16 1.17987507e-12 9.24958027e-15 2.02814751e-12
6.02559586e+00 2.42976032e-12 1.33990153e-12 2.49624112e-16 1.08960916e-12 5.81527186e-15 1.33998377e-12
6.70000000e+00 1.98938514e-12 9.74656397e-13 1.27169245e-16 1.01460158e-12 3.90312143e-15 9.74709347e-13
6.92422916e+00 1.87295888e-12 8.83003599e-13 1.04286178e-16 9.89850990e-13 3.39994855e-15 8.83049889e-13
7.15596261e+00 1.77226439e-12 7.99968675e-13 8.18198642e-17 9.72213892e-13 2.94743475e-15 8.00009879e-13
7.39545150e+00 1.70385651e-12 7.24740542e-13 6.22137376e-17 9.79053749e-13 2.50986335e-15 7.24778763e-13
7.64295536e+00 1.69937395e-12 6.56582758e-13 4.36938598e-17 1.04274750e-12 2.09545090e-15 6.56622211e-13
7.89874245e+00 1.79866071e-12 5.94828767e-13 2.84139863e-17 1.20380352e-12 1.70211828e-15 5.94874946e-13
8.16308998e+00 1.97423165e-12 5.38877764e-13 1.77543648e-17 1.43533613e-12 1.39450058e-15 5.38934254e-13
8.43628443e+00 2.25341590e-12 4.88182997e-13 1.08189565e-17 1.76522208e-12 1.14805067e-15 4.88254098e-13
8.71862190e+00 2.42787861e-12 4.42260642e-13 7.64107485e-18 1.98561033e-12 9.89076102e-16 4.42339790e-13
9.01040836e+00 2.63337939e-12 4.00656295e-13 5.63609192e-18 2.23271745e-12 8.93428262e-16 4.00743158e-13
9.31196005e+00 2.77764606e-12 3.62966909e-13 4.45029539e-18 2.41467470e-12 8.36384721e-16 3.63058180e-13
9.62360379e+00 2.73609970e-12 3.28832145e-13 3.61465207e-18 2.40726394e-12 7.81096939e-16 3.28917012e-13
9.94567731e+00 2.52909944e-12 2.97914259e-13 3.13567950e-18 2.23118205e-12 7.11738707e-16 2.97986401e-13
1.02785297e+01 2.30118108e-12 2.69905308e-13 2.87009853e-18 2.03127290e-12 6.54665694e-16 2.69964435e-13
1.06225216e+01 2.06945914e-12 2.44529651e-13 2.52152037e-18 1.82492697e-12 5.91740452e-16 2.44577592e-13
1.09780260e+01 1.83623052e-12 2.21540600e-13 2.28361698e-18 1.61468764e-12 5.30730952e-16 2.21578069e-13
1.13454280e+01 1.63664427e-12 2.00711968e-13 2.04027006e-18 1.43593026e-12 4.72260639e-16 2.00741370e-13
1.17251259e+01 1.46203689e-12 1.81840886e-13 1.76857831e-18 1.28019424e-12 4.18645329e-16 1.81864106e-13
1.21175312e+01 1.31092684e-12 1.64743774e-13 1.52004805e-18 1.14618155e-12 3.71877936e-16 1.64762018e-13
1.25230691e+01 1.17513190e-12 1.49253876e-13 1.37511202e-18 1.02587665e-12 3.25528036e-16 1.49268171e-13
1.29421791e+01 1.05844060e-12 1.35220051e-13 1.16803242e-18 9.23219383e-13 2.82859852e-16 1.35231331e-13
1.33753155e+01 9.59904476e-13 1.22505520e-13 9.98142764e-19 8.37397958e-13 2.44282319e-16 1.22514483e-13
1.38229477e+01 8.89726597e-13 1.10986047e-13 8.18563481e-19 7.78739731e-13 2.04120763e-16 1.10993499e-13
1.42855609e+01 8.46360276e-13 1.00549445e-13 6.58866610e-19 7.45810172e-13 1.70659988e-16 1.00555922e-13
1.47636563e+01 8.38210054e-13 9.10937240e-14 4.84773025e-19 7.47115845e-13 1.40943509e-16 9.10998706e-14
1.52577522e+01 8.40800261e-13 8.25271062e-14 3.50182632e-19 7.58272805e-13 1.17229301e-16 8.25330452e-14
1.57683840e+01 8.51012687e-13 7.47660126e-14 2.52617781e-19 7.76246422e-13 9.81557732e-17 7.47718247e-14
1.62961051e+01 8.57915354e-13 6.77347708e-14 1.87086708e-19 7.90180396e-13 8.27882966e-17 6.77404517e-14
1.68414875e+01 8.67334652e-13 6.13647528e-14 1.43710919e-19 8.05969756e-13 6.93203986e-17 6.13702932e-14
1.74051222e+01 8.63654890e-13 5.55939086e-14 1.07362720e-19 8.08060874e-13 5.94686397e-17 5.55991699e-14
1.79876201e+01 8.54964483e-13 5.03658376e-14 8.61247109e-20 8.04598559e-13 4.99078866e-17 5.03707500e-14
1.85896125e+01 8.30650194e-13 4.56295541e-14 6.76180753e-20 7.85020573e-13 4.31217238e-17 4.56339988e-14
1.92117518e+01 7.98172448e-13 4.13387769e-14 5.43630699e-20 7.56833617e-13 3.66903127e-17 4.13426810e-14
1.98547123e+01 7.52824533e-13 3.74515466e-14 4.43140797e-20 7.15372942e-13 3.13747334e-17 3.74549090e-14
2.05191907e+01 7.10693118e-13 3.39298677e-14 3.68581682e-20 6.76763214e-13 2.56609890e-17 3.39327342e-14
2.12059073e+01 6.72766425e-13 3.07393334e-14 2.95540032e-20 6.42027062e-13 1.98656825e-17 3.07417768e-14
2.19156062e+01 6.35192566e-13 2.78487968e-14 2.19149290e-20 6.07343747e-13 1.50178930e-17 2.78508898e-14
2.26490567e+01 5.98960636e-13 2.52300596e-14 1.58702786e-20 5.73730561e-13 1.02660784e-17 2.52318552e-14
2.34070535e+01 5.68429027e-13 2.28575654e-14 9.60810054e-21 5.45571452e-13 6.05742387e-18 2.28591087e-14
2.41904183e+01 5.37405104e-13 2.07081601e-14 4.39539397e-21 5.16696940e-13 2.56855184e-18 2.07094900e-14
2.50000000e+01 5.07735852e-13 1.87608680e-14 1.98281085e-22 4.88974984e-13 1.50890421e-19 1.87620165e-14
2.75422870e+01 4.30588490e-13 1.40306037e-14 0.00000000e+00 4.16557886e-13 0.00000000e+00 1.40313526e-14
3.16227766e+01 3.31086808e-13 9.27001125e-15 0.00000000e+00 3.21816796e-13 0.00000000e+00 9.27042274e-15
3.63078055e+01 2.42967525e-13 6.12468268e-15 0.00000000e+00 2.36842843e-13 0.00000000e+00 6.12490756e-15
4.16869383e+01 1.68040909e-13 4.04656665e-15 0.00000000e+00 1.63994342e-13 0.00000000e+00 4.04668630e-15
4.78630092e+01 1.09458353e-13 2.67355744e-15 0.00000000e+00 1.06784795e-13 0.00000000e+00 2.67361912e-15
5.49540874e+01 6.76645997e-14 1.76641151e-15 0.00000000e+00 6.58981882e-14 0.00000000e+00 1.76644264e-15
6.30957344e+01 4.02414090e-14 1.16706157e-15 0.00000000e+00 3.90743474e-14 0.00000000e+00 1.16707708e-15
7.24435960e+01 2.31985835e-14 7.71072510e-16 0.00000000e+00 2.24275110e-14 0.00000000e+00 7.71080178e-16
8.31763771e+01 1.30778229e-14 5.09443835e-16 0.00000000e+00 1.25683790e-14 0.00000000e+00 5.09447621e-16
9.54992586e+01 7.26434273e-15 3.36586831e-16 0.00000000e+00 6.92775590e-15 0.00000000e+00 3.36588705e-16
1.09647820e+02 3.99375880e-15 2.22381022e-16 0.00000000e+00 3.77137777e-15 0.00000000e+00 2.22381952e-16
1.25892541e+02 2.20477843e-15 1.46925830e-16 0.00000000e+00 2.05785260e-15 0.00000000e+00 1.46926299e-16
1.44543977e+02 1.21651243e-15 9.70730047e-17 0.00000000e+00 1.11943943e-15 0.00000000e+00 9.70732430e-17
1.65958691e+02 6.44161172e-16 6.41355388e-17 0.00000000e+00 5.80025634e-16 0.00000000e+00 6.41356556e-17
1.90546072e+02 3.43651383e-16 4.23739496e-17 0.00000000e+00 3.01277434e-16 0.00000000e+00 4.23740075e-17
2.18776162e+02 1.84429253e-16 2.79962003e-17 0.00000000e+00 1.56433053e-16 0.00000000e+00 2.79962291e-17
2.51188643e+02 9.95182617e-17 1.84969107e-17 0.00000000e+00 8.10213509e-17 0.00000000e+00 1.84969251e-17
2.88403150e+02 5.40185861e-17 1.22207900e-17 0.00000000e+00 4.17977961e-17 0.00000000e+00 1.22207972e-17
3.31131121e+02 2.95910350e-17 8.07419706e-18 0.00000000e+00 2.15168379e-17 0.00000000e+00 8.07420067e-18
3.80189396e+02 1.63737987e-17 5.33456967e-18 0.00000000e+00 1.10392291e-17 0.00000000e+00 5.33457148e-18
4.36515832e+02 9.17649935e-18 3.52451552e-18 0.00000000e+00 5.65198383e-18 0.00000000e+00 3.52451642e-18
5.01187234e+02 5.21536177e-18 2.32862445e-18 0.00000000e+00 2.88673731e-18 0.00000000e+00 2.32862491e-18
5.75439937e+02 3.00998577e-18 1.53850699e-18 0.00000000e+00 1.47147878e-18 0.00000000e+00 1.53850722e-18
6.60693448e+02 1.76525300e-18 1.01648153e-18 0.00000000e+00 7.48771476e-19 0.00000000e+00 1.01648164e-18
7.58577575e+02 1.05202956e-18 6.71582702e-19 0.00000000e+00 3.80446863e-19 0.00000000e+00 6.71582760e-19
8.70963590e+02 6.36708406e-19 4.43710300e-19 0.00000000e+00 1.92998106e-19 0.00000000e+00 4.43710329e-19
1.00000000e+03 9.77605512e-20 0.00000000e+00 0.00000000e+00 9.77605512e-20 0.00000000e+00 0.00000000e+00
