# column 1: lambda (micron)
# column 2: total flux; lambda*F_lambda (W/m2)
# column 3: direct stellar flux; lambda*F_lambda (W/m2)
# column 4: scattered stellar flux; lambda*F_lambda (W/m2)
# column 5: total dust emission flux; lambda*F_lambda (W/m2)
# column 6: dust emission scattered flux; lambda*F_lambda (W/m2)
# column 7: transparent flux; lambda*F_lambda (W/m2)
1.00000000e-03 6.93994395e-13 6.93993746e-13 6.49806674e-19 0.00000000e+00 0.00000000e+00 6.93993746e-13
1.14815362e-03 8.19136149e-13 8.19135139e-13 1.00953329e-18 0.00000000e+00 0.00000000e+00 8.19135139e-13
1.31825674e-03 9.66843626e-13 9.66842108e-13 1.51828093e-18 0.00000000e+00 0.00000000e+00 9.66842108e-13
1.51356125e-03 1.14118604e-12 1.14118369e-12 2.35282207e-18 0.00000000e+00 0.00000000e+00 1.14118369e-12
1.73780083e-03 1.34696684e-12 1.34696266e-12 4.18075020e-18 0.00000000e+00 0.00000000e+00 1.34696266e-12
1.99526231e-03 1.58985527e-12 1.58984782e-12 7.44572765e-18 0.00000000e+00 0.00000000e+00 1.58984782e-12
2.29086765e-03 1.87654160e-12 1.87653019e-12 1.14091354e-17 0.00000000e+00 0.00000000e+00 1.87653019e-12
2.63026799e-03 2.21493128e-12 2.21490731e-12 2.39662427e-17 0.00000000e+00 0.00000000e+00 2.21490731e-12
3.01995172e-03 2.61433836e-12 2.61430080e-12 3.75541754e-17 0.00000000e+00 0.00000000e+00 2.61430080e-12
3.46736850e-03 3.08577499e-12 3.08571319e-12 6.18034221e-17 0.00000000e+00 0.00000000e+00 3.08571319e-12
3.98107171e-03 3.64223308e-12 3.64213095e-12 1.02133454e-16 0.00000000e+00 0.00000000e+00 3.64213095e-12
4.57088190e-03 4.29911961e-12 4.29888232e-12 2.37290336e-16 0.00000000e+00 0.00000000e+00 4.29888232e-12
5.24807460e-03 5.07446933e-12 5.07405951e-12 4.09822550e-16 0.00000000e+00 0.00000000e+00 5.07405951e-12
6.02559586e-03 5.98976093e-12 5.98901715e-12 7.43783867e-16 0.00000000e+00 0.00000000e+00 5.98901715e-12
6.91830971e-03 7.07009692e-12 7.06896053e-12 1.13639640e-15 0.00000000e+00 0.00000000e+00 7.06896053e-12
7.94328235e-03 8.34558955e-12 8.34363998e-12 1.94956884e-15 0.00000000e+00 0.00000000e+00 8.34363998e-12
9.12010839e-03 9.85124840e-12 9.84817045e-12 3.07794793e-15 0.00000000e+00 0.00000000e+00 9.84817045e-12
1.04712855e-02 1.10034674e-11 1.09990604e-11 4.40696517e-15 0.00000000e+00 0.00000000e+00 1.09990604e-11
1.20226443e-02 1.10053702e-11 1.09990604e-11 6.30975756e-15 5.29356718e-312 9.93016789e-313 1.09990604e-11
1.38038426e-02 1.10150952e-11 1.09990604e-11 1.60347412e-14 1.26888673e-272 2.21593344e-273 1.09990604e-11
1.58489319e-02 1.10127442e-11 1.09990604e-11 1.36837589e-14 2.41274182e-238 4.23184979e-239 1.09990604e-11
1.81970086e-02 1.10180360e-11 1.09990604e-11 1.89755368e-14 1.64763988e-208 3.00207874e-209 1.09990604e-11
2.08929613e-02 1.10273260e-11 1.09990604e-11 2.82655513e-14 1.43156208e-182 2.78358855e-183 1.09990604e-11
2.39883292e-02 1.10331427e-11 1.09990604e-11 3.40822260e-14 5.27433926e-160 1.02434204e-160 1.09990604e-11
2.75422870e-02 1.10438687e-11 1.09990604e-11 4.48082761e-14 2.30459439e-140 4.76614812e-141 1.09990604e-11
3.16227766e-02 1.10539667e-11 1.09990604e-11 5.49062242e-14 2.67995088e-123 5.37328145e-124 1.09990604e-11
3.63078055e-02 1.10605099e-11 1.09990604e-11 6.14494738e-14 1.82808260e-108 3.57224596e-109 1.09990604e-11
4.16869383e-02 1.10859129e-11 1.09990604e-11 8.68524231e-14 1.43848312e-95 2.93543397e-96 1.09990604e-11
4.78630092e-02 1.11029265e-11 1.09990604e-11 1.03866085e-13 2.16302727e-84 4.33489348e-85 1.09990604e-11
5.49540874e-02 1.11233872e-11 1.09990604e-11 1.24326805e-13 1.08058956e-74 2.20166770e-75 1.09990604e-11
6.30957344e-02 1.11401684e-11 1.09990604e-11 1.41107911e-13 3.45679608e-66 7.21399482e-67 1.09990604e-11
7.24435960e-02 1.11306809e-11 1.09990604e-11 1.31620475e-13 8.87522168e-59 1.65344408e-59 1.09990604e-11
8.31763771e-02 1.11295313e-11 1.09990604e-11 1.30470825e-13 2.83846597e-52 4.48176249e-53 1.09990604e-11
9.54992586e-02 1.11296529e-11 1.09990604e-11 1.30592445e-13 1.55944901e-46 2.24327335e-47 1.09990604e-11
1.09647820e-01 1.06407607e-11 1.05040253e-11 1.36735440e-13 1.56894870e-41 2.23653468e-42 1.05040253e-11
1.25892541e-01 9.93247219e-12 9.80292679e-12 1.29545399e-13 3.46140636e-37 4.64730517e-38 9.80292679e-12
1.44543977e-01 9.26249552e-12 9.14862359e-12 1.13871933e-13 1.93687774e-33 2.50084779e-34 9.14862359e-12
1.65958691e-01 8.66205247e-12 8.53799231e-12 1.24060155e-13 2.57831041e-30 3.55425632e-31 8.53799231e-12
1.90546072e-01 8.10431462e-12 7.96811805e-12 1.36196579e-13 9.51045614e-28 1.54972539e-28 7.96811805e-12
2.18776162e-01 7.56383058e-12 7.43628044e-12 1.27550148e-13 1.36867426e-25 2.39909714e-26 7.43628044e-12
2.51188643e-01 7.08407067e-12 6.93994070e-12 1.44129975e-13 1.59346760e-23 3.35309120e-24 6.93994070e-12
2.88403150e-01 6.60739428e-12 6.47672950e-12 1.30664778e-13 9.58390036e-22 2.01843586e-22 6.47672950e-12
3.31131121e-01 6.16637715e-12 6.04443567e-12 1.21941457e-13 3.14616473e-20 6.52961886e-21 6.04443567e-12
3.80189396e-01 5.75348773e-12 5.64099558e-12 1.12491526e-13 6.20523068e-19 1.28105492e-19 5.64099558e-12
4.36515832e-01 5.36600705e-12 5.26448339e-12 1.01515789e-13 7.87878870e-18 1.63019052e-18 5.26448339e-12
5.01187234e-01 5.00612619e-12 4.91310176e-12 9.29564421e-14 6.79856015e-17 1.42092078e-17 4.91310176e-12
5.75439937e-01 4.67395209e-12 4.58517335e-12 8.83574109e-14 4.21329138e-16 8.74774713e-17 4.58517335e-12
6.60693448e-01 4.36292805e-12 4.27913275e-12 8.18358579e-14 1.95944490e-15 4.05202473e-16 4.27913275e-12
7.58577575e-01 4.07373507e-12 3.99351904e-12 7.29767245e-14 7.23930880e-15 1.46699298e-15 3.99351904e-12
8.70963590e-01 3.81406483e-12 3.72696882e-12 6.51692237e-14 2.19267868e-14 4.29565960e-15 3.72696882e-12
1.00000000e+00 3.59083858e-12 3.47820968e-12 5.70065020e-14 5.56223986e-14 1.01724991e-14 3.47820968e-12
1.14815362e+00 3.41884527e-12 3.24605414e-12 4.81310391e-14 1.24660089e-13 2.09536834e-14 3.24605414e-12
1.31825674e+00 3.31644278e-12 3.02939399e-12 3.85842706e-14 2.48464517e-13 3.70400027e-14 3.02939399e-12
1.51356125e+00 3.29976192e-12 2.82719497e-12 3.02865843e-14 4.42280366e-13 5.67623098e-14 2.82719497e-12
1.73780083e+00 3.36678466e-12 2.63849186e-12 2.39901185e-14 7.04302675e-13 7.60124580e-14 2.63849186e-12
1.99526231e+00 3.48097350e-12 2.46238388e-12 1.76973465e-14 1.00089227e-12 8.69088954e-14 2.46238388e-12
2.29086765e+00 3.59419071e-12 2.29803035e-12 1.28621753e-14 1.28329818e-12 8.55702853e-14 2.29803035e-12
2.63026799e+00 3.66218916e-12 2.14464670e-12 8.85193334e-15 1.50869053e-12 7.53033228e-14 2.14464670e-12
3.01995172e+00 3.64868630e-12 2.00150076e-12 6.07798750e-15 1.64110755e-12 5.94847164e-14 2.00150076e-12
3.46736850e+00 3.54864701e-12 1.86790919e-12 3.99455522e-15 1.67674326e-12 4.31373247e-14 1.86790919e-12
3.98107171e+00 3.36362096e-12 1.74323429e-12 2.60602528e-15 1.61778064e-12 2.86967138e-14 1.74323429e-12
4.57088190e+00 3.11857253e-12 1.62688090e-12 1.63715422e-15 1.49005448e-12 1.78701529e-14 1.62688090e-12
5.24807460e+00 2.68149153e-12 1.34518114e-12 8.50601981e-16 1.33545978e-12 1.03596235e-14 1.34518114e-12
6.02559586e+00 2.07002489e-12 8.88752369e-13 3.51125498e-16 1.18092139e-12 5.70579519e-15 8.88752369e-13
6.70000000e+00 1.71131851e-12 6.46481889e-13 1.75086072e-16 1.06466154e-12 3.49998819e-15 6.46481889e-13
6.92422916e+00 1.61408389e-12 5.85688198e-13 1.37148608e-16 1.02825855e-12 2.97247766e-15 5.85688198e-13
7.15596261e+00 1.53641405e-12 5.30611407e-13 1.08142326e-16 1.00569450e-12 2.54730750e-15 5.30611407e-13
7.39545150e+00 1.49056835e-12 4.80713913e-13 8.47500827e-17 1.00976969e-12 2.19970912e-15 4.80713913e-13
7.64295536e+00 1.52929943e-12 4.35508666e-13 6.14051245e-17 1.09372936e-12 1.94084701e-15 4.35508666e-13
7.89874245e+00 1.69048604e-12 3.94554418e-13 4.10905351e-17 1.29589053e-12 1.73984083e-15 3.94554418e-13
8.16308998e+00 1.94100260e-12 3.57451415e-13 2.67954506e-17 1.58352439e-12 1.59731622e-15 3.57451415e-13
8.43628443e+00 2.29844435e-12 3.23837494e-13 1.65649206e-17 1.97459029e-12 1.43950373e-15 3.23837494e-13
8.71862190e+00 2.53016965e-12 2.93384550e-13 1.12636023e-17 2.23677384e-12 1.29707998e-15 2.93384550e-13
9.01040836e+00 2.75875051e-12 2.65795332e-13 7.99367222e-18 2.49294719e-12 1.17400104e-15 2.65795332e-13
9.31196005e+00 2.93698268e-12 2.40800541e-13 6.26277033e-18 2.69617588e-12 1.11076995e-15 2.40800541e-13
9.62360379e+00 2.88257940e-12 2.18156204e-13 5.17152128e-18 2.66441802e-12 1.03798326e-15 2.18156204e-13
9.94567731e+00 2.67400350e-12 1.97641289e-13 4.55912762e-18 2.47635766e-12 9.38750391e-16 1.97641289e-13
1.02785297e+01 2.42477740e-12 1.79055550e-13 4.23094023e-18 2.24571762e-12 8.41799516e-16 1.79055550e-13
1.06225216e+01 2.18250106e-12 1.62217572e-13 3.93467059e-18 2.02027956e-12 7.51943194e-16 1.62217572e-13
1.09780260e+01 1.92324012e-12 1.46962999e-13 3.49552264e-18 1.77627362e-12 6.45807658e-16 1.46962999e-13
1.13454280e+01 1.70008629e-12 1.33142932e-13 3.06552866e-18 1.56694030e-12 5.52023392e-16 1.33142932e-13
1.17251259e+01 1.51318798e-12 1.20622472e-13 2.74759708e-18 1.39256276e-12 4.71973273e-16 1.20622472e-13
1.21175312e+01 1.34225240e-12 1.09279408e-13 2.43759836e-18 1.23297055e-12 3.95296559e-16 1.09279408e-13
1.25230691e+01 1.19164851e-12 9.90030204e-14 2.12858291e-18 1.09264336e-12 3.28452910e-16 9.90030204e-14
1.29421791e+01 1.06679559e-12 8.96930008e-14 1.80322912e-18 9.77100787e-13 2.69808019e-16 8.96930008e-14
1.33753155e+01 9.59851319e-13 8.12584743e-14 1.50507818e-18 8.78591340e-13 2.20375328e-16 8.12584743e-14
1.38229477e+01 8.90478754e-13 7.36171115e-14 1.17427772e-18 8.16860468e-13 1.78471700e-16 7.36171115e-14
1.42855609e+01 8.48692074e-13 6.66943252e-14 9.40386058e-19 7.81996809e-13 1.46715356e-16 6.66943252e-14
1.47636563e+01 8.56921664e-13 6.04225420e-14 7.22685625e-19 7.96498399e-13 1.22838914e-16 6.04225420e-14
1.52577522e+01 8.75927246e-13 5.47405431e-14 5.26940245e-19 8.21186176e-13 1.04554393e-16 5.47405431e-14
1.57683840e+01 9.03947718e-13 4.95928665e-14 3.91771107e-19 8.54354460e-13 8.91303473e-17 4.95928665e-14
1.62961051e+01 9.33992260e-13 4.49292657e-14 3.02186898e-19 8.89062692e-13 7.77006928e-17 4.49292657e-14
1.68414875e+01 9.64881448e-13 4.07042194e-14 2.28175619e-19 9.24177000e-13 6.60807356e-17 4.07042194e-14
1.74051222e+01 9.81704158e-13 3.68764869e-14 1.74278341e-19 9.44827497e-13 5.69497730e-17 3.68764869e-14
1.79876201e+01 9.91300675e-13 3.34087056e-14 1.37974230e-19 9.57891831e-13 4.77486519e-17 3.34087056e-14
1.85896125e+01 9.83135182e-13 3.02670267e-14 1.12148122e-19 9.52868043e-13 3.99683518e-17 3.02670267e-14
1.92117518e+01 9.57675564e-13 2.74207841e-14 8.67287390e-20 9.30254693e-13 3.27418611e-17 2.74207841e-14
1.98547123e+01 9.24622753e-13 2.48421957e-14 6.80541556e-20 8.99780489e-13 2.55075285e-17 2.48421957e-14
2.05191907e+01 8.85517951e-13 2.25060919e-14 5.11374004e-20 8.63011808e-13 1.85239880e-17 2.25060919e-14
2.12059073e+01 8.52530420e-13 2.03896700e-14 3.50996754e-20 8.32140715e-13 1.23154485e-17 2.03896700e-14
2.19156062e+01 8.20758435e-13 1.84722717e-14 2.10462165e-20 8.02286142e-13 7.39297057e-18 1.84722717e-14
2.26490567e+01 7.92321460e-13 1.67351811e-14 9.08179508e-21 7.75586270e-13 3.58866003e-18 1.67351811e-14
2.34070535e+01 7.66278219e-13 1.51614426e-14 2.26717256e-21 7.51116774e-13 1.09980869e-18 1.51614426e-14
2.41904183e+01 7.41939012e-13 1.37356949e-14 1.31691306e-22 7.28203317e-13 1.16154601e-19 1.37356949e-14
2.50000000e+01 7.19007706e-13 1.24440213e-14 0.00000000e+00 7.06563685e-13 0.00000000e+00 1.24440213e-14
2.75422870e+01 6.54323232e-13 9.30637977e-15 0.00000000e+00 6.45016852e-13 0.00000000e+00 9.30637977e-15
3.16227766e+01 5.62199283e-13 6.14866414e-15 0.00000000e+00 5.56050618e-13 0.00000000e+00 6.14866414e-15
3.63078055e+01 4.60254066e-13 4.06238211e-15 0.00000000e+00 4.56191684e-13 0.00000000e+00 4.06238211e-15
4.16869383e+01 3.52875197e-13 2.68398924e-15 0.00000000e+00 3.50191208e-13 0.00000000e+00 2.68398924e-15
4.78630092e+01 2.52585681e-13 1.77329411e-15 0.00000000e+00 2.50812387e-13 0.00000000e+00 1.77329411e-15
5.49540874e+01 1.70822598e-13 1.17160380e-15 0.00000000e+00 1.69650995e-13 0.00000000e+00 1.17160380e-15
6.30957344e+01 1.10008519e-13 7.74070953e-16 0.00000000e+00 1.09234448e-13 0.00000000e+00 7.74070953e-16
7.24435960e+01 6.81617982e-14 5.11423607e-16 0.00000000e+00 6.76503746e-14 0.00000000e+00 5.11423607e-16
8.31763771e+01 4.09444014e-14 3.37894226e-16 0.00000000e+00 4.06065072e-14 0.00000000e+00 3.37894226e-16
9.54992586e+01 2.40178251e-14 2.23244502e-16 0.00000000e+00 2.37945806e-14 0.00000000e+00 2.23244502e-16
1.09647820e+02 1.38230966e-14 1.47496179e-16 0.00000000e+00 1.36756005e-14 0.00000000e+00 1.47496179e-16
1.25892541e+02 7.92063081e-15 9.74497594e-17 0.00000000e+00 7.82318105e-15 0.00000000e+00 9.74497594e-17
1.44543977e+02 4.49556794e-15 6.43844175e-17 0.00000000e+00 4.43118352e-15 0.00000000e+00 6.43844175e-17
1.65958691e+02 2.42387553e-15 4.25383628e-17 0.00000000e+00 2.38133716e-15 0.00000000e+00 4.25383628e-17
1.90546072e+02 1.30457363e-15 2.81048176e-17 0.00000000e+00 1.27646881e-15 0.00000000e+00 2.81048176e-17
2.18776162e+02 6.99557478e-16 1.85686688e-17 0.00000000e+00 6.80988809e-16 0.00000000e+00 1.85686688e-17
2.51188643e+02 3.73305935e-16 1.22681978e-17 0.00000000e+00 3.61037738e-16 0.00000000e+00 1.22681978e-17
2.88403150e+02 1.98147455e-16 8.10551794e-18 0.00000000e+00 1.90041937e-16 0.00000000e+00 8.10551794e-18
3.31131121e+02 1.04899210e-16 5.35526259e-18 0.00000000e+00 9.95439473e-17 0.00000000e+00 5.35526259e-18
3.80189396e+02 5.53818868e-17 3.53818691e-18 0.00000000e+00 5.18436999e-17 0.00000000e+00 3.53818691e-18
4.36515832e+02 2.92264074e-17 2.33765691e-18 0.00000000e+00 2.68887505e-17 0.00000000e+00 2.33765691e-18
5.01187234e+02 1.54320980e-17 1.54447460e-18 0.00000000e+00 1.38876234e-17 0.00000000e+00 1.54447460e-18
5.75439937e+02 8.16819859e-18 1.02042425e-18 0.00000000e+00 7.14777434e-18 0.00000000e+00 1.02042425e-18
6.60693448e+02 4.34189251e-18 6.74187617e-19 0.00000000e+00 3.66770489e-18 0.00000000e+00 6.74187617e-19
7.58577575e+02 2.32246843e-18 4.45431341e-19 0.00000000e+00 1.87703709e-18 0.00000000e+00 4.45431341e-19
8.70963590e+02 1.25247616e-18 2.94293569e-19 0.00000000e+00 9.58182590e-19 0.00000000e+00 2.94293569e-19
1.00000000e+03 4.87991133e-19 0.00000000e+00 0.00000000e+00 4.87991133e-19 0.00000000e+00 0.00000000e+00
