# column 1: lambda (micron)
# column 2: total flux; lambda*F_lambda (W/m2)
# column 3: direct stellar flux; lambda*F_lambda (W/m2)
# column 4: scattered stellar flux; lambda*F_lambda (W/m2)
# column 5: total dust emission flux; lambda*F_lambda (W/m2)
# column 6: dust emission scattered flux; lambda*F_lambda (W/m2)
# column 7: transparent flux; lambda*F_lambda (W/m2)
1.00000000e-03 5.25636789e-13 5.25636674e-13 1.15484352e-19 0.00000000e+00 0.00000000e+00 5.25636674e-13
1.14815362e-03 6.20419986e-13 6.20419813e-13 1.72621730e-19 0.00000000e+00 0.00000000e+00 6.20419813e-13
1.31825674e-03 7.32294567e-13 7.32294308e-13 2.59229062e-19 0.00000000e+00 0.00000000e+00 7.32294308e-13
1.51356125e-03 8.64342485e-13 8.64342083e-13 4.01797580e-19 0.00000000e+00 0.00000000e+00 8.64342083e-13
1.73780083e-03 1.02020148e-12 1.02020080e-12 6.79723569e-19 0.00000000e+00 0.00000000e+00 1.02020080e-12
1.99526231e-03 1.20416531e-12 1.20416405e-12 1.25712979e-18 0.00000000e+00 0.00000000e+00 1.20416405e-12
2.29086765e-03 1.42130164e-12 1.42129968e-12 1.95528478e-18 0.00000000e+00 0.00000000e+00 1.42129968e-12
2.63026799e-03 1.67759321e-12 1.67758934e-12 3.87215326e-18 0.00000000e+00 0.00000000e+00 1.67758934e-12
3.01995172e-03 1.98010031e-12 1.98009332e-12 6.99351005e-18 0.00000000e+00 0.00000000e+00 1.98009332e-12
3.46736850e-03 2.33715554e-12 2.33714500e-12 1.05360478e-17 0.00000000e+00 0.00000000e+00 2.33714500e-12
3.98107171e-03 2.75859776e-12 2.75858048e-12 1.72825538e-17 0.00000000e+00 0.00000000e+00 2.75858048e-12
4.57088190e-03 3.25605107e-12 3.25600946e-12 4.16085553e-17 0.00000000e+00 0.00000000e+00 3.25600946e-12
5.24807460e-03 3.84320931e-12 3.84313516e-12 7.41477104e-17 0.00000000e+00 0.00000000e+00 3.84313516e-12
6.02559586e-03 4.53626502e-12 4.53613173e-12 1.33285502e-16 0.00000000e+00 0.00000000e+00 4.53613173e-12
6.91830971e-03 5.35429790e-12 5.35408989e-12 2.08003773e-16 0.00000000e+00 0.00000000e+00 5.35408989e-12
7.94328235e-03 6.31996208e-12 6.31954278e-12 4.19296569e-16 0.00000000e+00 0.00000000e+00 6.31954278e-12
9.12010839e-03 7.45968882e-12 7.45908676e-12 6.02067845e-16 0.00000000e+00 0.00000000e+00 7.45908676e-12
1.04712855e-02 8.33153565e-12 8.33078048e-12 7.55173047e-16 0.00000000e+00 0.00000000e+00 8.33078048e-12
1.20226443e-02 8.33219745e-12 8.33078048e-12 1.41696987e-15 0.00000000e+00 0.00000000e+00 8.33078048e-12
1.38038426e-02 8.33252306e-12 8.33078048e-12 1.74258193e-15 1.69318244e-291 6.71579308e-294 8.33078048e-12
1.58489319e-02 8.33325602e-12 8.33078048e-12 2.47554538e-15 1.11412264e-254 6.98593587e-257 8.33078048e-12
1.81970086e-02 8.33368909e-12 8.33078048e-12 2.90861517e-15 1.22974363e-222 9.34899667e-225 8.33078048e-12
2.08929613e-02 8.33555355e-12 8.33078048e-12 4.77307778e-15 8.89236698e-195 8.64352065e-197 8.33078048e-12
2.39883292e-02 8.33720900e-12 8.33078048e-12 6.42852452e-15 1.57632438e-170 1.85552546e-172 8.33078048e-12
2.75422870e-02 8.34063208e-12 8.33078048e-12 9.85159968e-15 1.99481815e-149 2.78757846e-151 8.33078048e-12
3.16227766e-02 8.34143956e-12 8.33078048e-12 1.06590797e-14 4.46558523e-131 7.35453958e-133 8.33078048e-12
3.63078055e-02 8.34251019e-12 8.33078048e-12 1.17297107e-14 3.99063172e-115 7.39561223e-117 8.33078048e-12
4.16869383e-02 8.34731309e-12 8.33078048e-12 1.65326103e-14 2.91589635e-101 7.26018717e-103 8.33078048e-12
4.78630092e-02 8.35485880e-12 8.33078048e-12 2.40783198e-14 3.22010211e-89 1.02959590e-90 8.33078048e-12
5.49540874e-02 8.35840617e-12 8.33078048e-12 2.76256898e-14 9.22259504e-79 3.55377929e-80 8.33078048e-12
6.30957344e-02 8.36262321e-12 8.33078048e-12 3.18427392e-14 1.45927849e-69 6.72365247e-71 8.33078048e-12
7.24435960e-02 8.36428977e-12 8.33078048e-12 3.35092930e-14 1.38407134e-61 6.54507596e-63 8.33078048e-12
8.31763771e-02 8.36300471e-12 8.33078048e-12 3.22242386e-14 8.91142247e-55 4.15525701e-56 8.33078048e-12
9.54992586e-02 8.36386595e-12 8.33078048e-12 3.30854744e-14 6.86867902e-49 3.24021621e-50 8.33078048e-12
1.09647820e-01 7.99006299e-12 7.95583672e-12 3.42262681e-14 7.71687963e-44 3.72330722e-45 7.95583672e-12
1.25892541e-01 7.45498624e-12 7.42481883e-12 3.01674071e-14 1.76464913e-39 8.15539012e-41 7.42481883e-12
1.44543977e-01 6.95542584e-12 6.92924411e-12 2.61817348e-14 9.79769366e-36 4.26405439e-37 6.92924411e-12
1.65958691e-01 6.49284452e-12 6.46674687e-12 2.60976546e-14 1.25423233e-32 5.59269053e-34 6.46674687e-12
1.90546072e-01 6.06593012e-12 6.03511933e-12 3.08107902e-14 4.45543130e-30 2.41733668e-31 6.03511933e-12
2.18776162e-01 5.66114925e-12 5.63230107e-12 2.88481872e-14 6.32146094e-28 3.69489341e-29 5.63230107e-12
2.51188643e-01 5.29048282e-12 5.25636919e-12 3.41136300e-14 6.89607150e-26 4.72070544e-27 5.25636919e-12
2.88403150e-01 4.93476015e-12 4.90552916e-12 2.92309925e-14 4.17642807e-24 2.81135550e-25 4.90552916e-12
3.31131121e-01 4.60295974e-12 4.57810618e-12 2.48535524e-14 1.47364044e-22 9.64949706e-24 4.57810618e-12
3.80189396e-01 4.29504204e-12 4.27253728e-12 2.25047522e-14 3.30809730e-21 2.19779767e-22 4.27253728e-12
4.36515832e-01 4.00761002e-12 3.98736380e-12 2.02461719e-14 4.97878946e-20 3.44893940e-21 3.98736380e-12
5.01187234e-01 3.73981477e-12 3.72122441e-12 1.85898403e-14 5.22515026e-19 3.86855946e-20 3.72122441e-12
5.75439937e-01 3.49039536e-12 3.47284869e-12 1.75426907e-14 3.98461070e-18 3.13661627e-19 3.47284869e-12
6.60693448e-01 3.25663618e-12 3.24105097e-12 1.55621658e-14 2.30444292e-17 1.98803990e-18 3.24105097e-12
7.58577575e-01 3.03857993e-12 3.02472476e-12 1.37489312e-14 1.06236224e-16 9.80249959e-18 3.02472476e-12
8.70963590e-01 2.83583083e-12 2.82283739e-12 1.25893283e-14 4.04111871e-16 3.92816392e-17 2.82283739e-12
1.00000000e+00 2.64590510e-12 2.63442513e-12 1.01836186e-14 1.29634511e-15 1.28529901e-16 2.63442513e-12
1.14815362e+00 2.47105566e-12 2.45858859e-12 8.81757892e-15 3.64949526e-15 3.51929503e-16 2.45858859e-12
1.31825674e+00 2.31115771e-12 2.29448837e-12 7.56044000e-15 9.10889825e-15 8.10322097e-16 2.29448837e-12
1.51356125e+00 2.16744396e-12 2.14134114e-12 6.14603711e-15 1.99567856e-14 1.56408228e-15 2.14134114e-12
1.73780083e+00 2.04096193e-12 1.99841583e-12 4.33808792e-15 3.82080095e-14 2.49991734e-15 1.99841583e-12
1.99526231e+00 1.93258384e-12 1.86503017e-12 3.30869293e-15 6.42449743e-14 3.33613729e-15 1.86503017e-12
2.29086765e+00 1.83893100e-12 1.74054743e-12 2.36407528e-15 9.60195017e-14 3.71423822e-15 1.74054743e-12
2.63026799e+00 1.75614125e-12 1.62437337e-12 1.61501237e-15 1.30152863e-13 3.67286643e-15 1.62437337e-12
3.01995172e+00 1.67936757e-12 1.51595343e-12 1.08694721e-15 1.62327191e-13 3.28524399e-15 1.51595343e-12
3.46736850e+00 1.60515490e-12 1.41477006e-12 7.42647609e-16 1.89642185e-13 2.74122718e-15 1.41477006e-12
3.98107171e+00 1.52878519e-12 1.32034025e-12 4.96371967e-16 2.07948574e-13 2.08201664e-15 1.32034025e-12
4.57088190e+00 1.44987304e-12 1.23221321e-12 3.28041815e-16 2.17331782e-13 1.47500970e-15 1.23221321e-12
5.24807460e+00 1.23690591e-12 1.01885146e-12 1.66016845e-16 2.17888434e-13 9.68219655e-16 1.01885146e-12
6.02559586e+00 8.85187100e-13 6.73148485e-13 7.06469884e-17 2.11967968e-13 6.02764522e-16 6.73148485e-13
6.70000000e+00 6.93547363e-13 4.89650796e-13 3.58451713e-17 2.03860722e-13 3.89677703e-16 4.89650796e-13
6.92422916e+00 6.44163745e-13 4.43605145e-13 2.92463806e-17 2.00529354e-13 3.40787300e-16 4.43605145e-13
7.15596261e+00 6.00695498e-13 4.01889522e-13 2.13418738e-17 1.98784633e-13 2.93969707e-16 4.01889522e-13
7.39545150e+00 5.65270561e-13 3.64096743e-13 1.72946035e-17 2.01156524e-13 2.50340604e-16 3.64096743e-13
7.64295536e+00 5.44555787e-13 3.29857910e-13 1.18028687e-17 2.14686074e-13 2.09344620e-16 3.29857910e-13
7.89874245e+00 5.46756006e-13 2.98838820e-13 7.88295210e-18 2.47909304e-13 1.73316634e-16 2.98838820e-13
8.16308998e+00 5.68364741e-13 2.70736695e-13 4.76417194e-18 2.97623282e-13 1.40471051e-16 2.70736695e-13
8.43628443e+00 6.14891534e-13 2.45277229e-13 2.71337953e-18 3.69611591e-13 1.11593669e-16 2.45277229e-13
8.71862190e+00 6.47169819e-13 2.22211915e-13 1.71094501e-18 4.24956193e-13 8.64386665e-17 2.22211915e-13
9.01040836e+00 6.87560388e-13 2.01315610e-13 1.01429652e-18 4.86243764e-13 6.30415439e-17 2.01315610e-13
9.31196005e+00 7.20879063e-13 1.82384346e-13 0.00000000e+00 5.38494717e-13 0.00000000e+00 1.82384346e-13
9.62360379e+00 7.10482333e-13 1.65233336e-13 0.00000000e+00 5.45248997e-13 0.00000000e+00 1.65233336e-13
9.94567731e+00 6.66742854e-13 1.49695167e-13 0.00000000e+00 5.17047686e-13 0.00000000e+00 1.49695167e-13
1.02785297e+01 6.12306295e-13 1.35618173e-13 0.00000000e+00 4.76688123e-13 0.00000000e+00 1.35618173e-13
1.06225216e+01 5.58469337e-13 1.22864947e-13 0.00000000e+00 4.35604389e-13 0.00000000e+00 1.22864947e-13
1.09780260e+01 5.00945740e-13 1.11311006e-13 0.00000000e+00 3.89634734e-13 0.00000000e+00 1.11311006e-13
1.13454280e+01 4.50477110e-13 1.00843571e-13 0.00000000e+00 3.49633539e-13 0.00000000e+00 1.00843571e-13
1.17251259e+01 4.06785147e-13 9.13604705e-14 0.00000000e+00 3.15424677e-13 0.00000000e+00 9.13604705e-14
1.21175312e+01 3.66264000e-13 8.27691389e-14 0.00000000e+00 2.83494861e-13 0.00000000e+00 8.27691389e-14
1.25230691e+01 3.30416625e-13 7.49857166e-14 0.00000000e+00 2.55430908e-13 0.00000000e+00 7.49857166e-14
1.29421791e+01 2.99581731e-13 6.79342298e-14 0.00000000e+00 2.31647501e-13 0.00000000e+00 6.79342298e-14
1.33753155e+01 2.73404725e-13 6.15458488e-14 0.00000000e+00 2.11858876e-13 0.00000000e+00 6.15458488e-14
1.38229477e+01 2.55193023e-13 5.57582167e-14 0.00000000e+00 1.99434806e-13 0.00000000e+00 5.57582167e-14
1.42855609e+01 2.43527067e-13 5.05148403e-14 0.00000000e+00 1.93012227e-13 0.00000000e+00 5.05148403e-14
1.47636563e+01 2.43560286e-13 4.57645392e-14 0.00000000e+00 1.97795747e-13 0.00000000e+00 4.57645392e-14
1.52577522e+01 2.47328986e-13 4.14609457e-14 0.00000000e+00 2.05868041e-13 0.00000000e+00 4.14609457e-14
1.57683840e+01 2.53606305e-13 3.75620523e-14 0.00000000e+00 2.16044253e-13 0.00000000e+00 3.75620523e-14
1.62961051e+01 2.60554805e-13 3.40298020e-14 0.00000000e+00 2.26525003e-13 0.00000000e+00 3.40298020e-14
1.68414875e+01 2.68446248e-13 3.08297166e-14 0.00000000e+00 2.37616532e-13 0.00000000e+00 3.08297166e-14
1.74051222e+01 2.73195220e-13 2.79305599e-14 0.00000000e+00 2.45264660e-13 0.00000000e+00 2.79305599e-14
1.79876201e+01 2.75160431e-13 2.53040334e-14 0.00000000e+00 2.49856397e-13 0.00000000e+00 2.53040334e-14
1.85896125e+01 2.72872137e-13 2.29244994e-14 0.00000000e+00 2.49947637e-13 0.00000000e+00 2.29244994e-14
1.92117518e+01 2.65761587e-13 2.07687314e-14 0.00000000e+00 2.44992856e-13 0.00000000e+00 2.07687314e-14
1.98547123e+01 2.55822486e-13 1.88156870e-14 0.00000000e+00 2.37006799e-13 0.00000000e+00 1.88156870e-14
2.05191907e+01 2.45172273e-13 1.70463024e-14 0.00000000e+00 2.28125970e-13 0.00000000e+00 1.70463024e-14
2.12059073e+01 2.35398885e-13 1.54433068e-14 0.00000000e+00 2.19955578e-13 0.00000000e+00 1.54433068e-14
2.19156062e+01 2.26834627e-13 1.39910532e-14 0.00000000e+00 2.12843574e-13 0.00000000e+00 1.39910532e-14
2.26490567e+01 2.18821755e-13 1.26753663e-14 0.00000000e+00 2.06146389e-13 0.00000000e+00 1.26753663e-14
2.34070535e+01 2.11312568e-13 1.14834036e-14 0.00000000e+00 1.99829165e-13 0.00000000e+00 1.14834036e-14
2.41904183e+01 2.04638108e-13 1.04035303e-14 0.00000000e+00 1.94234578e-13 0.00000000e+00 1.04035303e-14
2.50000000e+01 1.98358667e-13 9.42520591e-15 0.00000000e+00 1.88933461e-13 0.00000000e+00 9.42520591e-15
2.75422870e+01 1.80982921e-13 7.04872996e-15 0.00000000e+00 1.73934191e-13 0.00000000e+00 7.04872996e-15
3.16227766e+01 1.58380767e-13 4.65704970e-15 0.00000000e+00 1.53723718e-13 0.00000000e+00 4.65704970e-15
3.63078055e+01 1.34541686e-13 3.07688223e-15 0.00000000e+00 1.31464804e-13 0.00000000e+00 3.07688223e-15
4.16869383e+01 1.09303662e-13 2.03287593e-15 0.00000000e+00 1.07270786e-13 0.00000000e+00 2.03287593e-15
4.78630092e+01 8.41495046e-14 1.34310781e-15 0.00000000e+00 8.28063968e-14 0.00000000e+00 1.34310781e-15
5.49540874e+01 6.16476173e-14 8.87382527e-16 0.00000000e+00 6.07602348e-14 0.00000000e+00 8.87382527e-16
6.30957344e+01 4.32436429e-14 5.86287821e-16 0.00000000e+00 4.26573551e-14 0.00000000e+00 5.86287821e-16
7.24435960e+01 2.90852156e-14 3.87356522e-16 0.00000000e+00 2.86978591e-14 0.00000000e+00 3.87356522e-16
8.31763771e+01 1.88677988e-14 2.55923916e-16 0.00000000e+00 1.86118749e-14 0.00000000e+00 2.55923916e-16
9.54992586e+01 1.18678474e-14 1.69087255e-16 0.00000000e+00 1.16987602e-14 0.00000000e+00 1.69087255e-16
1.09647820e+02 7.26161113e-15 1.11714841e-16 0.00000000e+00 7.14989629e-15 0.00000000e+00 1.11714841e-16
1.25892541e+02 4.38658579e-15 7.38092637e-17 0.00000000e+00 4.31277653e-15 0.00000000e+00 7.38092637e-17
1.44543977e+02 2.60511258e-15 4.87652969e-17 0.00000000e+00 2.55634728e-15 0.00000000e+00 4.87652969e-17
1.65958691e+02 1.46426276e-15 3.22189122e-17 0.00000000e+00 1.43204385e-15 0.00000000e+00 3.22189122e-17
1.90546072e+02 8.16265632e-16 2.12868242e-17 0.00000000e+00 7.94978808e-16 0.00000000e+00 2.12868242e-17
2.18776162e+02 4.50956813e-16 1.40640653e-17 0.00000000e+00 4.36892748e-16 0.00000000e+00 1.40640653e-17
2.51188643e+02 2.46834796e-16 9.29203577e-18 0.00000000e+00 2.37542760e-16 0.00000000e+00 9.29203577e-18
2.88403150e+02 1.33894653e-16 6.13918715e-18 0.00000000e+00 1.27755466e-16 0.00000000e+00 6.13918715e-18
3.31131121e+02 7.22105246e-17 4.05612073e-18 0.00000000e+00 6.81544039e-17 0.00000000e+00 4.05612073e-18
3.80189396e+02 3.87350700e-17 2.67985239e-18 0.00000000e+00 3.60552177e-17 0.00000000e+00 2.67985239e-18
4.36515832e+02 2.07215467e-17 1.77056092e-18 0.00000000e+00 1.89509858e-17 0.00000000e+00 1.77056092e-18
5.01187234e+02 1.10701844e-17 1.16979800e-18 0.00000000e+00 9.90038640e-18 0.00000000e+00 1.16979800e-18
5.75439937e+02 5.91852893e-18 7.72877871e-19 0.00000000e+00 5.14565106e-18 0.00000000e+00 7.72877871e-19
6.60693448e+02 3.17324206e-18 5.10635346e-19 0.00000000e+00 2.66260672e-18 0.00000000e+00 5.10635346e-19
7.58577575e+02 1.70988628e-18 3.37373427e-19 0.00000000e+00 1.37251285e-18 0.00000000e+00 3.37373427e-19
8.70963590e+02 9.27886107e-19 2.22900413e-19 0.00000000e+00 7.04985694e-19 0.00000000e+00 2.22900413e-19
1.00000000e+03 3.60963145e-19 0.00000000e+00 0.00000000e+00 3.60963145e-19 0.00000000e+00 0.00000000e+00
