# column 1: lambda (micron)
# column 2: total flux; lambda*F_lambda (W/m2)
# column 3: direct stellar flux; lambda*F_lambda (W/m2)
# column 4: scattered stellar flux; lambda*F_lambda (W/m2)
# column 5: total dust emission flux; lambda*F_lambda (W/m2)
# column 6: dust emission scattered flux; lambda*F_lambda (W/m2)
# column 7: transparent flux; lambda*F_lambda (W/m2)
1.00000000e-03 8.46531886e-13 8.46529401e-13 2.48536244e-18 0.00000000e+00 0.00000000e+00 8.46529401e-13
1.14815362e-03 9.99179833e-13 9.99176121e-13 3.71255068e-18 0.00000000e+00 0.00000000e+00 9.99176121e-13
1.31825674e-03 1.17935400e-12 1.17934819e-12 5.80158885e-18 0.00000000e+00 0.00000000e+00 1.17934819e-12
1.51356125e-03 1.39201771e-12 1.39200901e-12 8.70150529e-18 0.00000000e+00 0.00000000e+00 1.39200901e-12
1.73780083e-03 1.64303266e-12 1.64301696e-12 1.57046556e-17 0.00000000e+00 0.00000000e+00 1.64301696e-12
1.99526231e-03 1.93931393e-12 1.93928682e-12 2.71132104e-17 0.00000000e+00 0.00000000e+00 1.93928682e-12
2.29086765e-03 2.28902407e-12 2.28898025e-12 4.38156123e-17 0.00000000e+00 0.00000000e+00 2.28898025e-12
2.63026799e-03 2.70181719e-12 2.70173063e-12 8.65648327e-17 0.00000000e+00 0.00000000e+00 2.70173063e-12
3.01995172e-03 3.18905930e-12 3.18890841e-12 1.50884301e-16 0.00000000e+00 0.00000000e+00 3.18890841e-12
3.46736850e-03 3.76417950e-12 3.76393440e-12 2.45096785e-16 0.00000000e+00 0.00000000e+00 3.76393440e-12
3.98107171e-03 4.44304081e-12 4.44264945e-12 3.91357550e-16 0.00000000e+00 0.00000000e+00 4.44264945e-12
4.57088190e-03 5.24461498e-12 5.24375082e-12 8.64158084e-16 0.00000000e+00 0.00000000e+00 5.24375082e-12
5.24807460e-03 6.19090510e-12 6.18930730e-12 1.59779416e-15 0.00000000e+00 0.00000000e+00 6.18930730e-12
6.02559586e-03 7.30815814e-12 7.30536713e-12 2.79101309e-15 0.00000000e+00 0.00000000e+00 7.30536713e-12
6.91830971e-03 8.62736365e-12 8.62267558e-12 4.68806992e-15 0.00000000e+00 0.00000000e+00 8.62267558e-12
7.94328235e-03 1.01856457e-11 1.01775219e-11 8.12380198e-15 0.00000000e+00 0.00000000e+00 1.01775219e-11
9.12010839e-03 1.20248179e-11 1.20127391e-11 1.20787505e-14 0.00000000e+00 0.00000000e+00 1.20127391e-11
1.04712855e-02 1.34376711e-11 1.34165878e-11 2.10832900e-14 0.00000000e+00 0.00000000e+00 1.34165878e-11
1.20226443e-02 1.34415053e-11 1.34165878e-11 2.49174227e-14 1.08181284e-311 7.63366760e-313 1.34165878e-11
1.38038426e-02 1.34562240e-11 1.34165878e-11 3.96361204e-14 2.34489747e-272 7.80306385e-274 1.34165878e-11
1.58489319e-02 1.34774592e-11 1.34165878e-11 6.08713494e-14 4.29890903e-238 2.33216375e-239 1.34165878e-11
1.81970086e-02 1.34977364e-11 1.34165878e-11 8.11485685e-14 2.78975580e-208 1.62126336e-209 1.34165878e-11
2.08929613e-02 1.35153662e-11 1.34165878e-11 9.87783253e-14 2.29910528e-182 1.38775073e-183 1.34165878e-11
2.39883292e-02 1.35570296e-11 1.34165878e-11 1.40441806e-13 8.33524603e-160 5.76330148e-161 1.34165878e-11
2.75422870e-02 1.35925992e-11 1.34165878e-11 1.76011375e-13 3.56912752e-140 2.81966076e-141 1.34165878e-11
3.16227766e-02 1.36261992e-11 1.34165878e-11 2.09611339e-13 4.17496292e-123 3.56768279e-124 1.34165878e-11
3.63078055e-02 1.36568584e-11 1.34165878e-11 2.40270556e-13 2.85878285e-108 2.60323339e-109 1.34165878e-11
4.16869383e-02 1.37307043e-11 1.34165878e-11 3.14116449e-13 2.24494657e-95 2.40009662e-96 1.34165878e-11
4.78630092e-02 1.38083119e-11 1.34165878e-11 3.91724032e-13 3.51280945e-84 4.06680324e-85 1.34165878e-11
5.49540874e-02 1.38495044e-11 1.34165878e-11 4.32916604e-13 1.82842123e-74 2.25695313e-75 1.34165878e-11
6.30957344e-02 1.38783301e-11 1.34165878e-11 4.61742225e-13 6.43989651e-66 8.24723248e-67 1.34165878e-11
7.24435960e-02 1.38337409e-11 1.34165878e-11 4.17153013e-13 1.65285959e-58 1.95825066e-59 1.34165878e-11
8.31763771e-02 1.38230316e-11 1.34165878e-11 4.06443760e-13 3.74665239e-52 4.45204309e-53 1.34165878e-11
9.54992586e-02 1.38309672e-11 1.34165878e-11 4.14379375e-13 1.34983803e-46 1.78622005e-47 1.34165878e-11
1.09647820e-01 1.32503169e-11 1.28127470e-11 4.37569966e-13 1.00049108e-41 1.57749253e-42 1.28127470e-11
1.25892541e-01 1.23781615e-11 1.19575512e-11 4.20610315e-13 2.00195407e-37 3.36644367e-38 1.19575512e-11
1.44543977e-01 1.15450017e-11 1.11594361e-11 3.85565580e-13 1.15113884e-33 1.93417352e-34 1.11594361e-11
1.65958691e-01 1.08014231e-11 1.04145917e-11 3.86831331e-13 1.68015723e-30 3.13936608e-31 1.04145917e-11
1.90546072e-01 1.01381299e-11 9.71946251e-12 4.18667355e-13 6.88750666e-28 1.51843854e-28 9.71946251e-12
2.18776162e-01 9.45860662e-12 9.07073019e-12 3.87876425e-13 1.10280837e-25 2.60007785e-26 9.07073019e-12
2.51188643e-01 8.89803036e-12 8.46529796e-12 4.32732399e-13 1.48304671e-23 4.20931699e-24 8.46529796e-12
2.88403150e-01 8.30989912e-12 7.90027573e-12 4.09623383e-13 1.02884743e-21 3.01419105e-22 7.90027573e-12
3.31131121e-01 7.74431790e-12 7.37296631e-12 3.71351554e-13 3.91642538e-20 1.16983094e-20 7.37296631e-12
3.80189396e-01 7.22245216e-12 6.88085251e-12 3.41598755e-13 8.94419010e-19 2.74078214e-19 6.88085251e-12
4.36515832e-01 6.73753849e-12 6.42158520e-12 3.15940151e-13 1.31360552e-17 4.07974149e-18 6.42158520e-12
5.01187234e-01 6.28363496e-12 5.99297201e-12 2.90533357e-13 1.29592397e-16 4.10988000e-17 5.99297201e-12
5.75439937e-01 5.85534906e-12 5.59296690e-12 2.61480697e-13 9.01463058e-16 2.86429809e-16 5.59296690e-12
6.60693448e-01 5.46195286e-12 5.21966041e-12 2.37633394e-13 4.65905064e-15 1.45985442e-15 5.21966041e-12
7.58577575e-01 5.10498770e-12 4.87127053e-12 2.15000117e-13 1.87170536e-14 5.72198387e-15 4.87127053e-12
8.70963590e-01 4.79702091e-12 4.54613417e-12 1.90556347e-13 6.03303916e-14 1.76826906e-14 4.54613417e-12
1.00000000e+00 4.56536134e-12 4.24269927e-12 1.61669628e-13 1.60992446e-13 4.38547842e-14 4.24269927e-12
1.14815362e+00 4.46300788e-12 3.95951734e-12 1.31297534e-13 3.72193012e-13 9.20715582e-14 3.95951734e-12
1.31825674e+00 4.55632919e-12 3.69523659e-12 1.05054521e-13 7.56038087e-13 1.63470415e-13 3.69523659e-12
1.51356125e+00 4.90272025e-12 3.44859544e-12 8.43938340e-14 1.36973098e-12 2.54382603e-13 3.44859544e-12
1.73780083e+00 5.48450302e-12 3.21841652e-12 6.53585835e-14 2.20072792e-12 3.37716557e-13 3.21841652e-12
1.99526231e+00 6.23037431e-12 3.00360106e-12 4.91921339e-14 3.17758112e-12 3.92194062e-13 3.00360106e-12
2.29086765e+00 6.98303429e-12 2.80312361e-12 3.58115116e-14 4.14409917e-12 3.94017516e-13 2.80312361e-12
2.63026799e+00 7.61863703e-12 2.61602716e-12 2.59921984e-14 4.97661767e-12 3.57212078e-13 2.61602716e-12
3.01995172e+00 8.02184909e-12 2.44141860e-12 1.83374192e-14 5.56209307e-12 2.96822623e-13 2.44141860e-12
3.46736850e+00 8.18220775e-12 2.27846441e-12 1.26125301e-14 5.89113081e-12 2.26349498e-13 2.27846441e-12
3.98107171e+00 8.04256258e-12 2.12638671e-12 8.46283533e-15 5.90771303e-12 1.58966910e-13 2.12638671e-12
4.57088190e+00 7.67491262e-12 1.98445954e-12 5.49287321e-15 5.68496020e-12 1.04970673e-13 1.98445954e-12
5.24807460e+00 6.99741009e-12 1.64084388e-12 3.02678881e-15 5.35353942e-12 6.46996065e-14 1.64084388e-12
6.02559586e+00 6.04254282e-12 1.08409480e-12 1.29669396e-15 4.95715133e-12 3.82004058e-14 1.08409480e-12
6.70000000e+00 5.44419009e-12 7.88574724e-13 6.53770396e-16 4.65496160e-12 2.44630569e-14 7.88574724e-13
6.92422916e+00 5.26118307e-12 7.14418944e-13 5.21439766e-16 4.54624269e-12 2.11188443e-14 7.14418944e-13
7.15596261e+00 5.13585113e-12 6.47236606e-13 4.12386353e-16 4.48820213e-12 1.81526195e-14 6.47236606e-13
7.39545150e+00 5.10408457e-12 5.86371942e-13 3.15416511e-16 4.51739721e-12 1.54684161e-14 5.86371942e-13
7.64295536e+00 5.33521603e-12 5.31230854e-13 2.25288522e-16 4.80375988e-12 1.31414561e-14 5.31230854e-13
7.89874245e+00 5.93094087e-12 4.81275108e-13 1.42488034e-16 5.44952328e-12 1.09251330e-14 4.81275108e-13
8.16308998e+00 6.75278562e-12 4.36017088e-13 8.63638396e-17 6.31668216e-12 8.94354675e-15 4.36017088e-13
8.43628443e+00 7.82940399e-12 3.95015029e-13 4.94527713e-17 7.43433951e-12 7.08348017e-15 3.95015029e-13
8.71862190e+00 8.52919212e-12 3.57868711e-13 3.08760623e-17 8.17129254e-12 5.60273200e-15 3.57868711e-13
9.01040836e+00 9.16830166e-12 3.24215549e-13 1.86889743e-17 8.84406742e-12 4.18849682e-15 3.24215549e-13
9.31196005e+00 9.68424663e-12 2.93727053e-13 0.00000000e+00 9.39051958e-12 0.00000000e+00 2.93727053e-13
9.62360379e+00 9.54491506e-12 2.66105627e-13 0.00000000e+00 9.27880943e-12 0.00000000e+00 2.66105627e-13
9.94567731e+00 9.06607052e-12 2.41081657e-13 0.00000000e+00 8.82498887e-12 0.00000000e+00 2.41081657e-13
1.02785297e+01 8.45781108e-12 2.18410884e-13 0.00000000e+00 8.23940019e-12 0.00000000e+00 2.18410884e-13
1.06225216e+01 7.82334309e-12 1.97872020e-13 0.00000000e+00 7.62547107e-12 0.00000000e+00 1.97872020e-13
1.09780260e+01 7.18267521e-12 1.79264583e-13 0.00000000e+00 7.00341063e-12 0.00000000e+00 1.79264583e-13
1.13454280e+01 6.61996848e-12 1.62406948e-13 0.00000000e+00 6.45756153e-12 0.00000000e+00 1.62406948e-13
1.17251259e+01 6.13419577e-12 1.47134567e-13 0.00000000e+00 5.98706121e-12 0.00000000e+00 1.47134567e-13
1.21175312e+01 5.67894029e-12 1.33298366e-13 0.00000000e+00 5.54564192e-12 0.00000000e+00 1.33298366e-13
1.25230691e+01 5.26539153e-12 1.20763289e-13 0.00000000e+00 5.14462824e-12 0.00000000e+00 1.20763289e-13
1.29421791e+01 4.89561243e-12 1.09406983e-13 0.00000000e+00 4.78620544e-12 0.00000000e+00 1.09406983e-13
1.33753155e+01 4.59436173e-12 9.91185987e-14 0.00000000e+00 4.49524313e-12 0.00000000e+00 9.91185987e-14
1.38229477e+01 4.40579822e-12 8.97977103e-14 0.00000000e+00 4.31600051e-12 0.00000000e+00 8.97977103e-14
1.42855609e+01 4.32933304e-12 8.13533371e-14 0.00000000e+00 4.24797970e-12 0.00000000e+00 8.13533371e-14
1.47636563e+01 4.42409010e-12 7.37030537e-14 0.00000000e+00 4.35038705e-12 0.00000000e+00 7.37030537e-14
1.52577522e+01 4.57354961e-12 6.67721855e-14 0.00000000e+00 4.50677743e-12 0.00000000e+00 6.67721855e-14
1.57683840e+01 4.75721627e-12 6.04930805e-14 0.00000000e+00 4.69672319e-12 0.00000000e+00 6.04930805e-14
1.62961051e+01 4.95754591e-12 5.48044484e-14 0.00000000e+00 4.90274146e-12 0.00000000e+00 5.48044484e-14
1.68414875e+01 5.15128807e-12 4.96507622e-14 0.00000000e+00 5.10163730e-12 0.00000000e+00 4.96507622e-14
1.74051222e+01 5.29342524e-12 4.49817171e-14 0.00000000e+00 5.24844352e-12 0.00000000e+00 4.49817171e-14
1.79876201e+01 5.40555720e-12 4.07517384e-14 0.00000000e+00 5.36480546e-12 0.00000000e+00 4.07517384e-14
1.85896125e+01 5.45233613e-12 3.69195372e-14 0.00000000e+00 5.41541659e-12 0.00000000e+00 3.69195372e-14
1.92117518e+01 5.43015833e-12 3.34477076e-14 0.00000000e+00 5.39671062e-12 0.00000000e+00 3.34477076e-14
1.98547123e+01 5.35368780e-12 3.03023610e-14 0.00000000e+00 5.32338544e-12 0.00000000e+00 3.03023610e-14
2.05191907e+01 5.27435968e-12 2.74527957e-14 0.00000000e+00 5.24690689e-12 0.00000000e+00 2.74527957e-14
2.12059073e+01 5.18079448e-12 2.48711970e-14 0.00000000e+00 5.15592328e-12 0.00000000e+00 2.48711970e-14
2.19156062e+01 5.08024084e-12 2.25323660e-14 0.00000000e+00 5.05770847e-12 0.00000000e+00 2.25323660e-14
2.26490567e+01 5.01356801e-12 2.04134733e-14 0.00000000e+00 4.99315454e-12 0.00000000e+00 2.04134733e-14
2.34070535e+01 4.90934592e-12 1.84938366e-14 0.00000000e+00 4.89085208e-12 0.00000000e+00 1.84938366e-14
2.41904183e+01 4.82204785e-12 1.67547181e-14 0.00000000e+00 4.80529313e-12 0.00000000e+00 1.67547181e-14
2.50000000e+01 4.70816987e-12 1.51791424e-14 0.00000000e+00 4.69299073e-12 0.00000000e+00 1.51791424e-14
2.75422870e+01 4.39616993e-12 1.13518661e-14 0.00000000e+00 4.38481807e-12 0.00000000e+00 1.13518661e-14
3.16227766e+01 3.81298613e-12 7.50010357e-15 0.00000000e+00 3.80548602e-12 0.00000000e+00 7.50010357e-15
3.63078055e+01 3.08791128e-12 4.95526929e-15 0.00000000e+00 3.08295602e-12 0.00000000e+00 4.95526929e-15
4.16869383e+01 2.32373268e-12 3.27391395e-15 0.00000000e+00 2.32045877e-12 0.00000000e+00 3.27391395e-15
4.78630092e+01 1.62304992e-12 2.16305350e-15 0.00000000e+00 1.62088686e-12 0.00000000e+00 2.16305350e-15
5.49540874e+01 1.06263757e-12 1.42911527e-15 0.00000000e+00 1.06120846e-12 0.00000000e+00 1.42911527e-15
6.30957344e+01 6.61502166e-13 9.44207098e-16 0.00000000e+00 6.60557959e-13 0.00000000e+00 9.44207098e-16
7.24435960e+01 3.95312940e-13 6.23831443e-16 0.00000000e+00 3.94689108e-13 0.00000000e+00 6.23831443e-16
8.31763771e+01 2.29271595e-13 4.12161347e-16 0.00000000e+00 2.28859434e-13 0.00000000e+00 4.12161347e-16
9.54992586e+01 1.30028460e-13 2.72312302e-16 0.00000000e+00 1.29756148e-13 0.00000000e+00 2.72312302e-16
1.09647820e+02 7.25014951e-14 1.79914953e-16 0.00000000e+00 7.23215802e-14 0.00000000e+00 1.79914953e-16
1.25892541e+02 4.03686010e-14 1.18868631e-16 0.00000000e+00 4.02497323e-14 0.00000000e+00 1.18868631e-16
1.44543977e+02 2.23199316e-14 7.85357256e-17 0.00000000e+00 2.22413958e-14 0.00000000e+00 7.85357256e-17
1.65958691e+02 1.17483638e-14 5.18880394e-17 0.00000000e+00 1.16964757e-14 0.00000000e+00 5.18880394e-17
1.90546072e+02 6.18587368e-15 3.42820876e-17 0.00000000e+00 6.15159160e-15 0.00000000e+00 3.42820876e-17
2.18776162e+02 3.25011311e-15 2.26499507e-17 0.00000000e+00 3.22746316e-15 0.00000000e+00 2.26499507e-17
2.51188643e+02 1.70132216e-15 1.49646740e-17 0.00000000e+00 1.68635748e-15 0.00000000e+00 1.49646740e-17
2.88403150e+02 8.86404550e-16 9.88706207e-18 0.00000000e+00 8.76517488e-16 0.00000000e+00 9.88706207e-18
3.31131121e+02 4.60649410e-16 6.53231713e-18 0.00000000e+00 4.54117093e-16 0.00000000e+00 6.53231713e-18
3.80189396e+02 2.38578033e-16 4.31585913e-18 0.00000000e+00 2.34262174e-16 0.00000000e+00 4.31585913e-18
4.36515832e+02 1.23351942e-16 2.85145985e-18 0.00000000e+00 1.20500483e-16 0.00000000e+00 2.85145985e-18
5.01187234e+02 6.36766040e-17 1.88394084e-18 0.00000000e+00 6.17926631e-17 0.00000000e+00 1.88394084e-18
5.75439937e+02 3.28512801e-17 1.24470737e-18 0.00000000e+00 3.16065728e-17 0.00000000e+00 1.24470737e-18
6.60693448e+02 1.69533646e-17 8.22370004e-19 0.00000000e+00 1.61309946e-17 0.00000000e+00 8.22370004e-19
7.58577575e+02 8.76025388e-18 5.43334473e-19 0.00000000e+00 8.21691940e-18 0.00000000e+00 5.43334473e-19
8.70963590e+02 4.53654633e-18 3.58977527e-19 0.00000000e+00 4.17756881e-18 0.00000000e+00 3.58977527e-19
1.00000000e+03 2.12010078e-18 0.00000000e+00 0.00000000e+00 2.12010078e-18 0.00000000e+00 0.00000000e+00
