# column 1: lambda (micron)
# column 2: total flux; lambda*F_lambda (W/m2)
# column 3: direct stellar flux; lambda*F_lambda (W/m2)
# column 4: scattered stellar flux; lambda*F_lambda (W/m2)
# column 5: total dust emission flux; lambda*F_lambda (W/m2)
# column 6: dust emission scattered flux; lambda*F_lambda (W/m2)
# column 7: transparent flux; lambda*F_lambda (W/m2)
1.00000000e-03 6.93994454e-13 6.93993746e-13 7.07945265e-19 0.00000000e+00 0.00000000e+00 6.93993746e-13
1.14815362e-03 8.19136301e-13 8.19135139e-13 1.16223686e-18 0.00000000e+00 0.00000000e+00 8.19135139e-13
1.31825674e-03 9.66843801e-13 9.66842108e-13 1.69292562e-18 0.00000000e+00 0.00000000e+00 9.66842108e-13
1.51356125e-03 1.14118637e-12 1.14118369e-12 2.68342339e-18 0.00000000e+00 0.00000000e+00 1.14118369e-12
1.73780083e-03 1.34696746e-12 1.34696266e-12 4.80435293e-18 0.00000000e+00 0.00000000e+00 1.34696266e-12
1.99526231e-03 1.58985607e-12 1.58984782e-12 8.25109478e-18 0.00000000e+00 0.00000000e+00 1.58984782e-12
2.29086765e-03 1.87654315e-12 1.87653019e-12 1.29596395e-17 0.00000000e+00 0.00000000e+00 1.87653019e-12
2.63026799e-03 2.21493294e-12 2.21490731e-12 2.56305382e-17 0.00000000e+00 0.00000000e+00 2.21490731e-12
3.01995172e-03 2.61434406e-12 2.61430080e-12 4.32525218e-17 0.00000000e+00 0.00000000e+00 2.61430080e-12
3.46736850e-03 3.08578267e-12 3.08571319e-12 6.94806311e-17 0.00000000e+00 0.00000000e+00 3.08571319e-12
3.98107171e-03 3.64224265e-12 3.64213095e-12 1.11694458e-16 0.00000000e+00 0.00000000e+00 3.64213095e-12
4.57088190e-03 4.29914818e-12 4.29888232e-12 2.65858356e-16 0.00000000e+00 0.00000000e+00 4.29888232e-12
5.24807460e-03 5.07451997e-12 5.07405951e-12 4.60460075e-16 0.00000000e+00 0.00000000e+00 5.07405951e-12
6.02559586e-03 5.98998510e-12 5.98901715e-12 9.67949506e-16 0.00000000e+00 0.00000000e+00 5.98901715e-12
6.91830971e-03 7.07027063e-12 7.06896053e-12 1.31010101e-15 0.00000000e+00 0.00000000e+00 7.06896053e-12
7.94328235e-03 8.34577759e-12 8.34363998e-12 2.13760597e-15 0.00000000e+00 0.00000000e+00 8.34363998e-12
9.12010839e-03 9.85165431e-12 9.84817045e-12 3.48386316e-15 0.00000000e+00 0.00000000e+00 9.84817045e-12
1.04712855e-02 1.10043350e-11 1.09990604e-11 5.27454749e-15 0.00000000e+00 0.00000000e+00 1.09990604e-11
1.20226443e-02 1.10062206e-11 1.09990604e-11 7.16011712e-15 4.13560086e-311 2.60662034e-312 1.09990604e-11
1.38038426e-02 1.10099439e-11 1.09990604e-11 1.08834657e-14 1.09373544e-271 7.46374354e-273 1.09990604e-11
1.58489319e-02 1.10170896e-11 1.09990604e-11 1.80291817e-14 2.15845397e-237 7.39637465e-239 1.09990604e-11
1.81970086e-02 1.10279551e-11 1.09990604e-11 2.88946633e-14 1.58386226e-207 8.09174054e-209 1.09990604e-11
2.08929613e-02 1.10274396e-11 1.09990604e-11 2.83791476e-14 1.43050040e-181 6.96124752e-183 1.09990604e-11
2.39883292e-02 1.10376759e-11 1.09990604e-11 3.86154129e-14 5.64554020e-159 3.26743763e-160 1.09990604e-11
2.75422870e-02 1.10476255e-11 1.09990604e-11 4.85650357e-14 2.58984208e-139 1.72592501e-140 1.09990604e-11
3.16227766e-02 1.10575254e-11 1.09990604e-11 5.84649087e-14 3.20895339e-122 2.29844545e-123 1.09990604e-11
3.63078055e-02 1.10665314e-11 1.09990604e-11 6.74709843e-14 2.30421134e-107 1.69970041e-108 1.09990604e-11
4.16869383e-02 1.10931975e-11 1.09990604e-11 9.41371050e-14 1.88989416e-94 1.65023060e-95 1.09990604e-11
4.78630092e-02 1.11164200e-11 1.09990604e-11 1.17359572e-13 3.07788043e-83 3.02761084e-84 1.09990604e-11
5.49540874e-02 1.11327587e-11 1.09990604e-11 1.33698268e-13 1.65865453e-73 1.76725358e-74 1.09990604e-11
6.30957344e-02 1.11449365e-11 1.09990604e-11 1.45876017e-13 6.03515101e-65 6.87445649e-66 1.09990604e-11
7.24435960e-02 1.11317560e-11 1.09990604e-11 1.32695582e-13 1.57767221e-57 1.62477983e-58 1.09990604e-11
8.31763771e-02 1.11302386e-11 1.09990604e-11 1.31178182e-13 3.45124163e-51 3.48856304e-52 1.09990604e-11
9.54992586e-02 1.11333845e-11 1.09990604e-11 1.34324085e-13 1.08184511e-45 1.14776110e-46 1.09990604e-11
1.09647820e-01 1.06474613e-11 1.05040253e-11 1.43436030e-13 5.95313754e-41 7.00263809e-42 1.05040253e-11
1.25892541e-01 9.93674805e-12 9.80292679e-12 1.33821251e-13 7.95176211e-37 9.66225544e-38 9.80292679e-12
1.44543977e-01 9.27411871e-12 9.14862359e-12 1.25495120e-13 3.05331038e-33 3.75974562e-34 9.14862359e-12
1.65958691e-01 8.66854108e-12 8.53799231e-12 1.30548765e-13 3.15481812e-30 4.35536235e-31 8.53799231e-12
1.90546072e-01 8.10781291e-12 7.96811805e-12 1.39694863e-13 9.87395542e-28 1.59897606e-28 7.96811805e-12
2.18776162e-01 7.56534449e-12 7.43628044e-12 1.29064054e-13 1.27291223e-25 2.14840280e-26 7.43628044e-12
2.51188643e-01 7.09530537e-12 6.93994070e-12 1.55364674e-13 1.41987883e-23 2.96377552e-24 6.93994070e-12
2.88403150e-01 6.62167240e-12 6.47672950e-12 1.44942894e-13 8.43568618e-22 1.79973711e-22 6.47672950e-12
3.31131121e-01 6.17294415e-12 6.04443567e-12 1.28508458e-13 2.79923480e-20 6.03478450e-21 6.04443567e-12
3.80189396e-01 5.76009683e-12 5.64099558e-12 1.19100683e-13 5.64473789e-19 1.23359443e-19 5.64099558e-12
4.36515832e-01 5.37338380e-12 5.26448339e-12 1.08893020e-13 7.39232901e-18 1.64391787e-18 5.26448339e-12
5.01187234e-01 5.01654625e-12 4.91310176e-12 1.03378314e-13 6.61768371e-17 1.48107350e-17 4.91310176e-12
5.75439937e-01 4.67931787e-12 4.58517335e-12 9.37201432e-14 4.24373873e-16 9.51149537e-17 4.58517335e-12
6.60693448e-01 4.36704118e-12 4.27913275e-12 8.58608768e-14 2.04755016e-15 4.50088213e-16 4.27913275e-12
7.58577575e-01 4.08006643e-12 3.99351904e-12 7.87730648e-14 7.77432457e-15 1.67441845e-15 3.99351904e-12
8.70963590e-01 3.82125400e-12 3.72696882e-12 7.01818420e-14 2.41033402e-14 4.94067906e-15 3.72696882e-12
1.00000000e+00 3.60071774e-12 3.47820968e-12 5.96901022e-14 6.28179596e-14 1.21303576e-14 3.47820968e-12
1.14815362e+00 3.43909846e-12 3.24605414e-12 5.08582162e-14 1.42186098e-13 2.47469791e-14 3.24605414e-12
1.31825674e+00 3.35668108e-12 3.02939399e-12 4.07954114e-14 2.86491681e-13 4.37946189e-14 3.02939399e-12
1.51356125e+00 3.37500598e-12 2.82719497e-12 3.30440748e-14 5.14766934e-13 6.77947204e-14 2.82719497e-12
1.73780083e+00 3.47830016e-12 2.63849186e-12 2.54813871e-14 8.14326905e-13 8.93436835e-14 2.63849186e-12
1.99526231e+00 3.63675374e-12 2.46238388e-12 1.90057631e-14 1.15536409e-12 1.01559441e-13 2.46238388e-12
2.29086765e+00 3.78449897e-12 2.29803035e-12 1.37619219e-14 1.47270671e-12 9.98178588e-14 2.29803035e-12
2.63026799e+00 3.86666584e-12 2.14464670e-12 9.65016340e-15 1.71236897e-12 8.73486479e-14 2.14464670e-12
3.01995172e+00 3.85538834e-12 2.00150076e-12 6.32703022e-15 1.84756055e-12 6.83861412e-14 2.00150076e-12
3.46736850e+00 3.75044173e-12 1.86790919e-12 4.20891060e-15 1.87832363e-12 4.91920405e-14 1.86790919e-12
3.98107171e+00 3.55606667e-12 1.74323429e-12 2.64137445e-15 1.81019101e-12 3.25009982e-14 1.74323429e-12
4.57088190e+00 3.30001457e-12 1.62688090e-12 1.58947733e-15 1.67154420e-12 2.00005933e-14 1.62688090e-12
5.24807460e+00 2.84888405e-12 1.34518114e-12 8.46387681e-16 1.50285652e-12 1.15885685e-14 1.34518114e-12
6.02559586e+00 2.22268845e-12 8.88752369e-13 3.41388602e-16 1.33359470e-12 6.41333835e-15 8.88752369e-13
6.70000000e+00 1.85152054e-12 6.46481889e-13 1.64352433e-16 1.20487430e-12 3.86337531e-15 6.46481889e-13
6.92422916e+00 1.75133444e-12 5.85688198e-13 1.30485229e-16 1.16551576e-12 3.25644558e-15 5.85688198e-13
7.15596261e+00 1.66951274e-12 5.30611407e-13 1.03736669e-16 1.13879760e-12 2.77773781e-15 5.30611407e-13
7.39545150e+00 1.62331343e-12 4.80713913e-13 7.90038377e-17 1.14252051e-12 2.34926344e-15 4.80713913e-13
7.64295536e+00 1.66896595e-12 4.35508666e-13 5.73352937e-17 1.23339995e-12 2.04304724e-15 4.35508666e-13
7.89874245e+00 1.84820484e-12 3.94554418e-13 3.95355849e-17 1.45361089e-12 1.79723596e-15 3.94554418e-13
8.16308998e+00 2.12790271e-12 3.57451415e-13 2.50075910e-17 1.77042629e-12 1.59320027e-15 3.57451415e-13
8.43628443e+00 2.51941047e-12 3.23837494e-13 1.60508556e-17 2.19555692e-12 1.33309815e-15 3.23837494e-13
8.71862190e+00 2.77604988e-12 2.93384550e-13 1.02218471e-17 2.48265511e-12 1.07719794e-15 2.93384550e-13
9.01040836e+00 3.02731647e-12 2.65795332e-13 6.03992809e-18 2.76151510e-12 7.92846724e-16 2.65795332e-13
9.31196005e+00 3.21493903e-12 2.40800541e-13 0.00000000e+00 2.97413849e-12 0.00000000e+00 2.40800541e-13
9.62360379e+00 3.16063731e-12 2.18156204e-13 0.00000000e+00 2.94248110e-12 0.00000000e+00 2.18156204e-13
9.94567731e+00 2.93309406e-12 1.97641289e-13 0.00000000e+00 2.73545277e-12 0.00000000e+00 1.97641289e-13
1.02785297e+01 2.66031665e-12 1.79055550e-13 0.00000000e+00 2.48126110e-12 0.00000000e+00 1.79055550e-13
1.06225216e+01 2.40095383e-12 1.62217572e-13 0.00000000e+00 2.23873626e-12 0.00000000e+00 1.62217572e-13
1.09780260e+01 2.12671979e-12 1.46962999e-13 0.00000000e+00 1.97975679e-12 0.00000000e+00 1.46962999e-13
1.13454280e+01 1.88222413e-12 1.33142932e-13 0.00000000e+00 1.74908120e-12 0.00000000e+00 1.33142932e-13
1.17251259e+01 1.67579589e-12 1.20622472e-13 0.00000000e+00 1.55517342e-12 0.00000000e+00 1.20622472e-13
1.21175312e+01 1.48634313e-12 1.09279408e-13 0.00000000e+00 1.37706372e-12 0.00000000e+00 1.09279408e-13
1.25230691e+01 1.31774249e-12 9.90030204e-14 0.00000000e+00 1.21873947e-12 0.00000000e+00 9.90030204e-14
1.29421791e+01 1.17697042e-12 8.96930008e-14 0.00000000e+00 1.08727742e-12 0.00000000e+00 8.96930008e-14
1.33753155e+01 1.05461581e-12 8.12584743e-14 0.00000000e+00 9.73357331e-13 0.00000000e+00 8.12584743e-14
1.38229477e+01 9.74515646e-13 7.36171115e-14 0.00000000e+00 9.00898535e-13 0.00000000e+00 7.36171115e-14
1.42855609e+01 9.27793772e-13 6.66943252e-14 0.00000000e+00 8.61099447e-13 0.00000000e+00 6.66943252e-14
1.47636563e+01 9.32806568e-13 6.04225420e-14 0.00000000e+00 8.72384026e-13 0.00000000e+00 6.04225420e-14
1.52577522e+01 9.49826668e-13 5.47405431e-14 0.00000000e+00 8.95086125e-13 0.00000000e+00 5.47405431e-14
1.57683840e+01 9.75155106e-13 4.95928665e-14 0.00000000e+00 9.25562240e-13 0.00000000e+00 4.95928665e-14
1.62961051e+01 1.00329821e-12 4.49292657e-14 0.00000000e+00 9.58368948e-13 0.00000000e+00 4.49292657e-14
1.68414875e+01 1.03252241e-12 4.07042194e-14 0.00000000e+00 9.91818187e-13 0.00000000e+00 4.07042194e-14
1.74051222e+01 1.04507828e-12 3.68764869e-14 0.00000000e+00 1.00820179e-12 0.00000000e+00 3.68764869e-14
1.79876201e+01 1.04784126e-12 3.34087056e-14 0.00000000e+00 1.01443256e-12 0.00000000e+00 3.34087056e-14
1.85896125e+01 1.03019491e-12 3.02670267e-14 0.00000000e+00 9.99927881e-13 0.00000000e+00 3.02670267e-14
1.92117518e+01 9.95235884e-13 2.74207841e-14 0.00000000e+00 9.67815100e-13 0.00000000e+00 2.74207841e-14
1.98547123e+01 9.50703105e-13 2.48421957e-14 0.00000000e+00 9.25860909e-13 0.00000000e+00 2.48421957e-14
2.05191907e+01 9.01663152e-13 2.25060919e-14 0.00000000e+00 8.79157060e-13 0.00000000e+00 2.25060919e-14
2.12059073e+01 8.56181300e-13 2.03896700e-14 0.00000000e+00 8.35791630e-13 0.00000000e+00 2.03896700e-14
2.19156062e+01 8.15096373e-13 1.84722717e-14 0.00000000e+00 7.96624101e-13 0.00000000e+00 1.84722717e-14
2.26490567e+01 7.77617537e-13 1.67351811e-14 0.00000000e+00 7.60882356e-13 0.00000000e+00 1.67351811e-14
2.34070535e+01 7.42183431e-13 1.51614426e-14 0.00000000e+00 7.27021988e-13 0.00000000e+00 1.51614426e-14
2.41904183e+01 7.09355645e-13 1.37356949e-14 0.00000000e+00 6.95619950e-13 0.00000000e+00 1.37356949e-14
2.50000000e+01 6.78234535e-13 1.24440213e-14 0.00000000e+00 6.65790513e-13 0.00000000e+00 1.24440213e-14
2.75422870e+01 5.93075272e-13 9.30637977e-15 0.00000000e+00 5.83768893e-13 0.00000000e+00 9.30637977e-15
3.16227766e+01 4.80431014e-13 6.14866414e-15 0.00000000e+00 4.74282350e-13 0.00000000e+00 6.14866414e-15
3.63078055e+01 3.71187022e-13 4.06238211e-15 0.00000000e+00 3.67124640e-13 0.00000000e+00 4.06238211e-15
4.16869383e+01 2.69342013e-13 2.68398924e-15 0.00000000e+00 2.66658024e-13 0.00000000e+00 2.68398924e-15
4.78630092e+01 1.83092378e-13 1.77329411e-15 0.00000000e+00 1.81319084e-13 0.00000000e+00 1.77329411e-15
5.49540874e+01 1.18083695e-13 1.17160380e-15 0.00000000e+00 1.16912091e-13 0.00000000e+00 1.17160380e-15
6.30957344e+01 7.30577871e-14 7.74070953e-16 0.00000000e+00 7.22837161e-14 0.00000000e+00 7.74070953e-16
7.24435960e+01 4.37115429e-14 5.11423607e-16 0.00000000e+00 4.32001193e-14 0.00000000e+00 5.11423607e-16
8.31763771e+01 2.55092176e-14 3.37894226e-16 0.00000000e+00 2.51713234e-14 0.00000000e+00 3.37894226e-16
9.54992586e+01 1.46114444e-14 2.23244502e-16 0.00000000e+00 1.43881999e-14 0.00000000e+00 2.23244502e-16
1.09647820e+02 8.24903039e-15 1.47496179e-16 0.00000000e+00 8.10153421e-15 0.00000000e+00 1.47496179e-16
1.25892541e+02 4.65454058e-15 9.74497594e-17 0.00000000e+00 4.55709082e-15 0.00000000e+00 9.74497594e-17
1.44543977e+02 2.61000152e-15 6.43844175e-17 0.00000000e+00 2.54561710e-15 0.00000000e+00 6.43844175e-17
1.65958691e+02 1.39377528e-15 4.25383628e-17 0.00000000e+00 1.35123692e-15 0.00000000e+00 4.25383628e-17
1.90546072e+02 7.45075733e-16 2.81048176e-17 0.00000000e+00 7.16970915e-16 0.00000000e+00 2.81048176e-17
2.18776162e+02 3.97854157e-16 1.85686688e-17 0.00000000e+00 3.79285488e-16 0.00000000e+00 1.85686688e-17
2.51188643e+02 2.11945325e-16 1.22681978e-17 0.00000000e+00 1.99677127e-16 0.00000000e+00 1.22681978e-17
2.88403150e+02 1.12593649e-16 8.10551794e-18 0.00000000e+00 1.04488131e-16 0.00000000e+00 8.10551794e-18
3.31131121e+02 5.98159769e-17 5.35526259e-18 0.00000000e+00 5.44607143e-17 0.00000000e+00 5.35526259e-18
3.80189396e+02 3.17829560e-17 3.53818691e-18 0.00000000e+00 2.82447691e-17 0.00000000e+00 3.53818691e-18
4.36515832e+02 1.69348394e-17 2.33765691e-18 0.00000000e+00 1.45971825e-17 0.00000000e+00 2.33765691e-18
5.01187234e+02 9.06097109e-18 1.54447460e-18 0.00000000e+00 7.51649649e-18 0.00000000e+00 1.54447460e-18
5.75439937e+02 4.87910535e-18 1.02042425e-18 0.00000000e+00 3.85868110e-18 0.00000000e+00 1.02042425e-18
6.60693448e+02 2.64983478e-18 6.74187617e-19 0.00000000e+00 1.97564716e-18 0.00000000e+00 6.74187617e-19
7.58577575e+02 1.45462225e-18 4.45431341e-19 0.00000000e+00 1.00919091e-18 0.00000000e+00 4.45431341e-19
8.70963590e+02 8.08633597e-19 2.94293569e-19 0.00000000e+00 5.14340029e-19 0.00000000e+00 2.94293569e-19
1.00000000e+03 2.61585817e-19 0.00000000e+00 0.00000000e+00 2.61585817e-19 0.00000000e+00 0.00000000e+00
