# column 1: lambda (micron)
# column 2: total flux; lambda*F_lambda (W/m2)
# column 3: direct stellar flux; lambda*F_lambda (W/m2)
# column 4: scattered stellar flux; lambda*F_lambda (W/m2)
# column 5: total dust emission flux; lambda*F_lambda (W/m2)
# column 6: dust emission scattered flux; lambda*F_lambda (W/m2)
# column 7: transparent flux; lambda*F_lambda (W/m2)
1.00000000e-03 1.07336134e-12 1.07335627e-12 5.07380207e-18 0.00000000e+00 0.00000000e+00 1.07335627e-12
1.14815362e-03 1.26691234e-12 1.26690456e-12 7.78653216e-18 0.00000000e+00 0.00000000e+00 1.26690456e-12
1.31825674e-03 1.49536539e-12 1.49535359e-12 1.17959197e-17 0.00000000e+00 0.00000000e+00 1.49535359e-12
1.51356125e-03 1.76501504e-12 1.76499670e-12 1.83379095e-17 0.00000000e+00 0.00000000e+00 1.76499670e-12
1.73780083e-03 2.08329498e-12 2.08326203e-12 3.29507294e-17 0.00000000e+00 0.00000000e+00 2.08326203e-12
1.99526231e-03 2.45897292e-12 2.45891716e-12 5.57595770e-17 0.00000000e+00 0.00000000e+00 2.45891716e-12
2.29086765e-03 2.90239689e-12 2.90231066e-12 8.62266631e-17 0.00000000e+00 0.00000000e+00 2.90231066e-12
2.63026799e-03 3.42582967e-12 3.42565717e-12 1.72498090e-16 0.00000000e+00 0.00000000e+00 3.42565717e-12
3.01995172e-03 4.04365592e-12 4.04337385e-12 2.82071573e-16 0.00000000e+00 0.00000000e+00 4.04337385e-12
3.46736850e-03 4.77294492e-12 4.77247759e-12 4.67326922e-16 0.00000000e+00 0.00000000e+00 4.77247759e-12
3.98107171e-03 5.63382749e-12 5.63305378e-12 7.73704219e-16 0.00000000e+00 0.00000000e+00 5.63305378e-12
4.57088190e-03 6.65049985e-12 6.64880962e-12 1.69023069e-15 0.00000000e+00 0.00000000e+00 6.64880962e-12
5.24807460e-03 7.85070305e-12 7.84772720e-12 2.97585032e-15 0.00000000e+00 0.00000000e+00 7.84772720e-12
6.02559586e-03 9.29491702e-12 9.26283435e-12 3.20826713e-14 0.00000000e+00 0.00000000e+00 9.26283435e-12
6.91830971e-03 1.09415538e-11 1.09331145e-11 8.43930285e-15 0.00000000e+00 0.00000000e+00 1.09331145e-11
7.94328235e-03 1.29190704e-11 1.29045807e-11 1.44896623e-14 0.00000000e+00 0.00000000e+00 1.29045807e-11
9.12010839e-03 1.52644779e-11 1.52315429e-11 3.29350619e-14 0.00000000e+00 0.00000000e+00 1.52315429e-11
1.04712855e-02 1.70452489e-11 1.70115517e-11 3.36971662e-14 0.00000000e+00 0.00000000e+00 1.70115517e-11
1.20226443e-02 1.70667878e-11 1.70115517e-11 5.52360879e-14 0.00000000e+00 0.00000000e+00 1.70115517e-11
1.38038426e-02 1.70958249e-11 1.70115517e-11 8.42732016e-14 1.72971122e-290 7.41848773e-292 1.70115517e-11
1.58489319e-02 1.71153734e-11 1.70115517e-11 1.03821730e-13 1.08469005e-253 5.72119386e-255 1.70115517e-11
1.81970086e-02 1.71561398e-11 1.70115517e-11 1.44588049e-13 1.16247171e-221 6.91366256e-223 1.70115517e-11
2.08929613e-02 1.71933823e-11 1.70115517e-11 1.81830538e-13 8.38666806e-194 5.75132001e-195 1.70115517e-11
2.39883292e-02 1.72614748e-11 1.70115517e-11 2.49923111e-13 1.51871021e-169 1.11420990e-170 1.70115517e-11
2.75422870e-02 1.73399844e-11 1.70115517e-11 3.28432691e-13 2.04680228e-148 1.84276699e-149 1.70115517e-11
3.16227766e-02 1.74156216e-11 1.70115517e-11 4.04069874e-13 4.97295656e-130 4.84610079e-131 1.70115517e-11
3.63078055e-02 1.74755445e-11 1.70115517e-11 4.63992813e-13 4.94609412e-114 5.22170029e-115 1.70115517e-11
4.16869383e-02 1.76254275e-11 1.70115517e-11 6.13875832e-13 4.14127151e-100 5.25338782e-101 1.70115517e-11
4.78630092e-02 1.78084639e-11 1.70115517e-11 7.96912148e-13 5.29117719e-88 8.00956636e-89 1.70115517e-11
5.49540874e-02 1.79279583e-11 1.70115517e-11 9.16406586e-13 1.73882922e-77 2.90592137e-78 1.70115517e-11
6.30957344e-02 1.79962710e-11 1.70115517e-11 9.84719293e-13 3.09087122e-68 5.66306082e-69 1.70115517e-11
7.24435960e-02 1.79013156e-11 1.70115517e-11 8.89763908e-13 3.22720239e-60 5.69141371e-61 1.70115517e-11
8.31763771e-02 1.78770290e-11 1.70115517e-11 8.65477241e-13 2.40614130e-53 4.15759772e-54 1.70115517e-11
9.54992586e-02 1.78948441e-11 1.70115517e-11 8.83292397e-13 2.17676928e-47 3.90538754e-48 1.70115517e-11
1.09647820e-01 1.71718832e-11 1.62459122e-11 9.25971080e-13 2.99669863e-42 5.76395076e-43 1.62459122e-11
1.25892541e-01 1.60569331e-11 1.51615674e-11 8.95365724e-13 8.42538931e-38 1.65351298e-38 1.51615674e-11
1.44543977e-01 1.49567376e-11 1.41495980e-11 8.07139664e-13 5.79344063e-34 1.14050267e-34 1.41495980e-11
1.65958691e-01 1.40236067e-11 1.32051732e-11 8.18433540e-13 9.44785064e-31 2.05360245e-31 1.32051732e-11
1.90546072e-01 1.31814926e-11 1.23237846e-11 8.57707995e-13 4.23823981e-28 1.07718824e-28 1.23237846e-11
2.18776162e-01 1.22879009e-11 1.15012250e-11 7.86675904e-13 7.18731040e-26 1.89504436e-26 1.15012250e-11
2.51188643e-01 1.15998176e-11 1.07335677e-11 8.66249886e-13 1.10710221e-23 3.50752454e-24 1.07335677e-11
2.88403150e-01 1.08328779e-11 1.00171482e-11 8.15729623e-13 8.75848413e-22 2.86107224e-22 1.00171482e-11
3.31131121e-01 1.00921438e-11 9.34854667e-12 7.43597131e-13 3.73378836e-20 1.24058321e-20 9.34854667e-12
3.80189396e-01 9.40781235e-12 8.72457139e-12 6.83240026e-13 9.36693926e-19 3.15910348e-19 8.72457139e-12
4.36515832e-01 8.77162168e-12 8.14224377e-12 6.29363035e-13 1.48709656e-17 5.02490739e-18 8.14224377e-12
5.01187234e-01 8.16977577e-12 7.59878402e-12 5.70836364e-13 1.55391933e-16 5.18579747e-17 7.59878402e-12
5.75439937e-01 7.61620605e-12 7.09159786e-12 5.23466271e-13 1.14191522e-15 3.79248640e-16 7.09159786e-12
6.60693448e-01 7.09232598e-12 6.61826421e-12 4.68002538e-13 6.05923490e-15 1.94279113e-15 6.61826421e-12
7.58577575e-01 6.61867289e-12 6.17652353e-12 4.17050979e-13 2.50983746e-14 7.81626428e-15 6.17652353e-12
8.70963590e-01 6.20727202e-12 5.76426715e-12 3.60005625e-13 8.29992443e-14 2.45299901e-14 5.76426715e-12
1.00000000e+00 5.91110762e-12 5.37952711e-12 3.04216413e-13 2.27364091e-13 6.32217169e-14 5.37952711e-12
1.14815362e+00 5.80943570e-12 5.02046681e-12 2.49691607e-13 5.39277284e-13 1.34968746e-13 5.02046681e-12
1.31825674e+00 6.01551580e-12 4.68537225e-12 1.98120318e-13 1.13202323e-12 2.50571445e-13 4.68537225e-12
1.51356125e+00 6.64055848e-12 4.37264380e-12 1.55047234e-13 2.11286745e-12 4.07012766e-13 4.37264380e-12
1.73780083e+00 7.69718357e-12 4.08078863e-12 1.21860368e-13 3.49453457e-12 5.68079316e-13 4.08078863e-12
1.99526231e+00 9.06584757e-12 3.80841354e-12 9.25446891e-14 5.16488934e-12 6.84473954e-13 3.80841354e-12
2.29086765e+00 1.05389280e-11 3.55421832e-12 6.67330369e-14 6.91797667e-12 7.18290950e-13 3.55421832e-12
2.63026799e+00 1.18836420e-11 3.31698953e-12 4.65353569e-14 8.52011709e-12 6.63160205e-13 3.31698953e-12
3.01995172e+00 1.28823010e-11 3.09559474e-12 3.17653863e-14 9.75494090e-12 5.57453962e-13 3.09559474e-12
3.46736850e+00 1.35068842e-11 2.88897711e-12 2.08962560e-14 1.05970108e-11 4.28440885e-13 2.88897711e-12
3.98107171e+00 1.36180066e-11 2.69615031e-12 1.33915904e-14 1.09084647e-11 3.00859145e-13 2.69615031e-12
4.57088190e+00 1.33693046e-11 2.51619387e-12 8.16530208e-15 1.08449454e-11 1.95988629e-13 2.51619387e-12
5.24807460e+00 1.25817777e-11 2.08050667e-12 4.36954669e-15 1.04969015e-11 1.21494661e-13 2.08050667e-12
6.02559586e+00 1.13984143e-11 1.37457712e-12 1.79149591e-15 1.00220457e-11 7.16944501e-14 1.37457712e-12
6.70000000e+00 1.05915124e-11 9.99872685e-13 8.73117129e-16 9.59076662e-12 4.55697174e-14 9.99872685e-13
6.92422916e+00 1.03408622e-11 9.05846924e-13 6.91765456e-16 9.43432348e-12 3.95033085e-14 9.05846924e-13
7.15596261e+00 1.01839526e-11 8.20663132e-13 5.43631212e-16 9.36274586e-12 3.39256934e-14 8.20663132e-13
7.39545150e+00 1.01868764e-11 7.43489831e-13 4.15858045e-16 9.44297074e-12 2.89365001e-14 7.43489831e-13
7.64295536e+00 1.06905166e-11 6.73573732e-13 3.00012983e-16 1.00166429e-11 2.49721848e-14 6.73573732e-13
7.89874245e+00 1.19007786e-11 6.10232385e-13 1.96328011e-16 1.12903499e-11 2.13411757e-14 6.10232385e-13
8.16308998e+00 1.36237619e-11 5.52847515e-13 1.23948598e-16 1.30707905e-11 1.80632300e-14 5.52847515e-13
8.43628443e+00 1.58204289e-11 5.00858987e-13 7.04117692e-17 1.53194995e-11 1.45591267e-14 5.00858987e-13
8.71862190e+00 1.72981265e-11 4.53759343e-13 4.19316482e-17 1.68443252e-11 1.14856524e-14 4.53759343e-13
9.01040836e+00 1.86880175e-11 4.11088843e-13 2.08468268e-17 1.82769078e-11 8.01405496e-15 4.11088843e-13
9.31196005e+00 1.97490106e-11 3.72430980e-13 0.00000000e+00 1.93765796e-11 0.00000000e+00 3.72430980e-13
9.62360379e+00 1.96104303e-11 3.37408415e-13 0.00000000e+00 1.92730219e-11 0.00000000e+00 3.37408415e-13
9.94567731e+00 1.87678329e-11 3.05679292e-13 0.00000000e+00 1.84621536e-11 0.00000000e+00 3.05679292e-13
1.02785297e+01 1.77064882e-11 2.76933904e-13 0.00000000e+00 1.74295543e-11 0.00000000e+00 2.76933904e-13
1.06225216e+01 1.66420945e-11 2.50891667e-13 0.00000000e+00 1.63912029e-11 0.00000000e+00 2.50891667e-13
1.09780260e+01 1.54446434e-11 2.27298384e-13 0.00000000e+00 1.52173450e-11 0.00000000e+00 2.27298384e-13
1.13454280e+01 1.42995604e-11 2.05923759e-13 0.00000000e+00 1.40936366e-11 0.00000000e+00 2.05923759e-13
1.17251259e+01 1.33296151e-11 1.86559155e-13 0.00000000e+00 1.31430559e-11 0.00000000e+00 1.86559155e-13
1.21175312e+01 1.24157726e-11 1.69015555e-13 0.00000000e+00 1.22467571e-11 0.00000000e+00 1.69015555e-13
1.25230691e+01 1.15220158e-11 1.53121715e-13 0.00000000e+00 1.13688941e-11 0.00000000e+00 1.53121715e-13
1.29421791e+01 1.07808308e-11 1.38722496e-13 0.00000000e+00 1.06421083e-11 0.00000000e+00 1.38722496e-13
1.33753155e+01 1.01220753e-11 1.25677347e-13 0.00000000e+00 9.99639790e-12 0.00000000e+00 1.25677347e-13
1.38229477e+01 9.67526934e-12 1.13858934e-13 0.00000000e+00 9.56141040e-12 0.00000000e+00 1.13858934e-13
1.42855609e+01 9.49517252e-12 1.03151898e-13 0.00000000e+00 9.39202063e-12 0.00000000e+00 1.03151898e-13
1.47636563e+01 9.71554632e-12 9.34517274e-14 0.00000000e+00 9.62209459e-12 0.00000000e+00 9.34517274e-14
1.52577522e+01 1.00609066e-11 8.46637387e-14 0.00000000e+00 9.97624290e-12 0.00000000e+00 8.46637387e-14
1.57683840e+01 1.04419263e-11 7.67021526e-14 0.00000000e+00 1.03652241e-11 0.00000000e+00 7.67021526e-14
1.62961051e+01 1.08532131e-11 6.94892560e-14 0.00000000e+00 1.07837238e-11 0.00000000e+00 6.94892560e-14
1.68414875e+01 1.12880108e-11 6.29546439e-14 0.00000000e+00 1.12250561e-11 0.00000000e+00 6.29546439e-14
1.74051222e+01 1.15451914e-11 5.70345319e-14 0.00000000e+00 1.14881568e-11 0.00000000e+00 5.70345319e-14
1.79876201e+01 1.17109012e-11 5.16711337e-14 0.00000000e+00 1.16592301e-11 0.00000000e+00 5.16711337e-14
1.85896125e+01 1.17386698e-11 4.68120974e-14 0.00000000e+00 1.16918577e-11 0.00000000e+00 4.68120974e-14
1.92117518e+01 1.15867263e-11 4.24099939e-14 0.00000000e+00 1.15443163e-11 0.00000000e+00 4.24099939e-14
1.98547123e+01 1.13313192e-11 3.84218542e-14 0.00000000e+00 1.12928974e-11 0.00000000e+00 3.84218542e-14
2.05191907e+01 1.09631071e-11 3.48087501e-14 0.00000000e+00 1.09282983e-11 0.00000000e+00 3.48087501e-14
2.12059073e+01 1.06421125e-11 3.15354141e-14 0.00000000e+00 1.06105771e-11 0.00000000e+00 3.15354141e-14
2.19156062e+01 1.03154169e-11 2.85698952e-14 0.00000000e+00 1.02868470e-11 0.00000000e+00 2.85698952e-14
2.26490567e+01 1.00014741e-11 2.58832470e-14 0.00000000e+00 9.97559089e-12 0.00000000e+00 2.58832470e-14
2.34070535e+01 9.68093604e-12 2.34492452e-14 0.00000000e+00 9.65748679e-12 0.00000000e+00 2.34492452e-14
2.41904183e+01 9.34468258e-12 2.12441313e-14 0.00000000e+00 9.32343845e-12 0.00000000e+00 2.12441313e-14
2.50000000e+01 9.02910665e-12 1.92463813e-14 0.00000000e+00 9.00986027e-12 0.00000000e+00 1.92463813e-14
2.75422870e+01 8.01290932e-12 1.43935895e-14 0.00000000e+00 7.99851573e-12 0.00000000e+00 1.43935895e-14
3.16227766e+01 6.51529538e-12 9.50975027e-15 0.00000000e+00 6.50578563e-12 0.00000000e+00 9.50975027e-15
3.63078055e+01 4.95011733e-12 6.28302969e-15 0.00000000e+00 4.94383430e-12 0.00000000e+00 6.28302969e-15
4.16869383e+01 3.51192965e-12 4.15115655e-15 0.00000000e+00 3.50777849e-12 0.00000000e+00 4.15115655e-15
4.78630092e+01 2.31398782e-12 2.74264194e-15 0.00000000e+00 2.31124518e-12 0.00000000e+00 2.74264194e-15
5.49540874e+01 1.44045099e-12 1.81204556e-15 0.00000000e+00 1.43863895e-12 0.00000000e+00 1.81204556e-15
6.30957344e+01 8.57270294e-13 1.19720663e-15 0.00000000e+00 8.56073087e-13 0.00000000e+00 1.19720663e-15
7.24435960e+01 4.92889253e-13 7.90986575e-16 0.00000000e+00 4.92098267e-13 0.00000000e+00 7.90986575e-16
8.31763771e+01 2.76441236e-13 5.22599647e-16 0.00000000e+00 2.75918637e-13 0.00000000e+00 5.22599647e-16
9.54992586e+01 1.52417840e-13 3.45278163e-16 0.00000000e+00 1.52072562e-13 0.00000000e+00 3.45278163e-16
1.09647820e+02 8.29902060e-14 2.28123020e-16 0.00000000e+00 8.27620830e-14 0.00000000e+00 2.28123020e-16
1.25892541e+02 4.52874092e-14 1.50719385e-16 0.00000000e+00 4.51366898e-14 0.00000000e+00 1.50719385e-16
1.44543977e+02 2.46259925e-14 9.95793099e-17 0.00000000e+00 2.45264132e-14 0.00000000e+00 9.95793099e-17
1.65958691e+02 1.27708087e-14 6.57913976e-17 0.00000000e+00 1.27050174e-14 0.00000000e+00 6.57913976e-17
1.90546072e+02 6.64062470e-15 4.34679453e-17 0.00000000e+00 6.59715675e-15 0.00000000e+00 4.34679453e-17
2.18776162e+02 3.45314749e-15 2.87189867e-17 0.00000000e+00 3.42442850e-15 0.00000000e+00 2.87189867e-17
2.51188643e+02 1.79202279e-15 1.89744463e-17 0.00000000e+00 1.77304834e-15 0.00000000e+00 1.89744463e-17
2.88403150e+02 9.26984873e-16 1.25362924e-17 0.00000000e+00 9.14448581e-16 0.00000000e+00 1.25362924e-17
3.31131121e+02 4.78935004e-16 8.28264623e-18 0.00000000e+00 4.70652357e-16 0.00000000e+00 8.28264623e-18
3.80189396e+02 2.46893472e-16 5.47229010e-18 0.00000000e+00 2.41421182e-16 0.00000000e+00 5.47229010e-18
4.36515832e+02 1.27197176e-16 3.61550621e-18 0.00000000e+00 1.23581669e-16 0.00000000e+00 3.61550621e-18
5.01187234e+02 6.54988130e-17 2.38874127e-18 0.00000000e+00 6.31100717e-17 0.00000000e+00 2.38874127e-18
5.75439937e+02 3.37437303e-17 1.57822570e-18 0.00000000e+00 3.21655046e-17 0.00000000e+00 1.57822570e-18
6.60693448e+02 1.74086813e-17 1.04272338e-18 0.00000000e+00 1.63659579e-17 0.00000000e+00 1.04272338e-18
7.58577575e+02 9.00353671e-18 6.88920507e-19 0.00000000e+00 8.31461621e-18 0.00000000e+00 6.88920507e-19
8.70963590e+02 4.67277690e-18 4.55165265e-19 0.00000000e+00 4.21761163e-18 0.00000000e+00 4.55165265e-19
1.00000000e+03 2.13622645e-18 0.00000000e+00 0.00000000e+00 2.13622645e-18 0.00000000e+00 0.00000000e+00
