# column 1: lambda (micron)
# column 2: total flux; lambda*F_lambda (W/m2)
# column 3: direct stellar flux; lambda*F_lambda (W/m2)
# column 4: scattered stellar flux; lambda*F_lambda (W/m2)
# column 5: total dust emission flux; lambda*F_lambda (W/m2)
# column 6: dust emission scattered flux; lambda*F_lambda (W/m2)
# column 7: transparent flux; lambda*F_lambda (W/m2)
1.00000000e-03 1.07335691e-12 1.07335627e-12 6.42518677e-19 0.00000000e+00 0.00000000e+00 1.07335627e-12
1.14815362e-03 1.26690552e-12 1.26690456e-12 9.66258060e-19 0.00000000e+00 0.00000000e+00 1.26690456e-12
1.31825674e-03 1.49535508e-12 1.49535359e-12 1.49036781e-18 0.00000000e+00 0.00000000e+00 1.49535359e-12
1.51356125e-03 1.76499892e-12 1.76499670e-12 2.22300481e-18 0.00000000e+00 0.00000000e+00 1.76499670e-12
1.73780083e-03 2.08326612e-12 2.08326203e-12 4.09241637e-18 0.00000000e+00 0.00000000e+00 2.08326203e-12
1.99526231e-03 2.45892429e-12 2.45891716e-12 7.13270011e-18 0.00000000e+00 0.00000000e+00 2.45891716e-12
2.29086765e-03 2.90232186e-12 2.90231066e-12 1.11941017e-17 0.00000000e+00 0.00000000e+00 2.90231066e-12
2.63026799e-03 3.42567882e-12 3.42565717e-12 2.16555930e-17 0.00000000e+00 0.00000000e+00 3.42565717e-12
3.01995172e-03 4.04341100e-12 4.04337385e-12 3.71529080e-17 0.00000000e+00 0.00000000e+00 4.04337385e-12
3.46736850e-03 4.77253879e-12 4.77247759e-12 6.12032889e-17 0.00000000e+00 0.00000000e+00 4.77247759e-12
3.98107171e-03 5.63314990e-12 5.63305378e-12 9.61164413e-17 0.00000000e+00 0.00000000e+00 5.63305378e-12
4.57088190e-03 6.64902780e-12 6.64880962e-12 2.18184883e-16 0.00000000e+00 0.00000000e+00 6.64880962e-12
5.24807460e-03 7.84812574e-12 7.84772720e-12 3.98541732e-16 0.00000000e+00 0.00000000e+00 7.84772720e-12
6.02559586e-03 9.26359130e-12 9.26283435e-12 7.56943861e-16 0.00000000e+00 0.00000000e+00 9.26283435e-12
6.91830971e-03 1.09342033e-11 1.09331145e-11 1.08875303e-15 0.00000000e+00 0.00000000e+00 1.09331145e-11
7.94328235e-03 1.29064802e-11 1.29045807e-11 1.89949813e-15 0.00000000e+00 0.00000000e+00 1.29045807e-11
9.12010839e-03 1.52344923e-11 1.52315429e-11 2.94943538e-15 0.00000000e+00 0.00000000e+00 1.52315429e-11
1.04712855e-02 1.70205172e-11 1.70115517e-11 8.96548145e-15 0.00000000e+00 0.00000000e+00 1.70115517e-11
1.20226443e-02 1.70181784e-11 1.70115517e-11 6.62670451e-15 0.00000000e+00 0.00000000e+00 1.70115517e-11
1.38038426e-02 1.70208187e-11 1.70115517e-11 9.26700004e-15 4.81884494e-279 1.87676664e-280 1.70115517e-11
1.58489319e-02 1.70243621e-11 1.70115517e-11 1.28104318e-14 5.46390991e-244 2.11711437e-245 1.70115517e-11
1.81970086e-02 1.70304045e-11 1.70115517e-11 1.88527801e-14 1.76064804e-213 7.27687463e-215 1.70115517e-11
2.08929613e-02 1.70395227e-11 1.70115517e-11 2.79709719e-14 5.89168475e-187 2.88770161e-188 1.70115517e-11
2.39883292e-02 1.70462355e-11 1.70115517e-11 3.46837962e-14 7.15400937e-164 3.80948001e-165 1.70115517e-11
2.75422870e-02 1.70566123e-11 1.70115517e-11 4.50605556e-14 8.75573417e-144 5.05904819e-145 1.70115517e-11
3.16227766e-02 1.70672845e-11 1.70115517e-11 5.57327891e-14 2.56426152e-126 1.63166036e-127 1.70115517e-11
3.63078055e-02 1.70765418e-11 1.70115517e-11 6.49901001e-14 3.89754516e-111 2.65569036e-112 1.70115517e-11
4.16869383e-02 1.71036260e-11 1.70115517e-11 9.20743266e-14 6.12478749e-98 5.00924314e-99 1.70115517e-11
4.78630092e-02 1.71388971e-11 1.70115517e-11 1.27345384e-13 1.77002818e-86 1.72824647e-87 1.70115517e-11
5.49540874e-02 1.71737133e-11 1.70115517e-11 1.62161594e-13 1.58225901e-76 1.79718601e-77 1.70115517e-11
6.30957344e-02 1.72059218e-11 1.70115517e-11 1.94370042e-13 9.10026696e-68 1.19693084e-68 1.70115517e-11
7.24435960e-02 1.72035631e-11 1.70115517e-11 1.92011385e-13 3.70382560e-60 4.88622251e-61 1.70115517e-11
8.31763771e-02 1.72010059e-11 1.70115517e-11 1.89454217e-13 1.32993428e-53 1.67385630e-54 1.70115517e-11
9.54992586e-02 1.72126503e-11 1.70115517e-11 2.01098596e-13 7.54148147e-48 9.62646440e-49 1.70115517e-11
1.09647820e-01 1.64520329e-11 1.62459122e-11 2.06120793e-13 8.15295908e-43 1.12186065e-43 1.62459122e-11
1.25892541e-01 1.53461492e-11 1.51615674e-11 1.84581772e-13 2.13149904e-38 3.04399613e-39 1.51615674e-11
1.44543977e-01 1.43161390e-11 1.41495980e-11 1.66541008e-13 1.51591436e-34 2.26440113e-35 1.41495980e-11
1.65958691e-01 1.33810743e-11 1.32051732e-11 1.75901109e-13 2.67059840e-31 4.66999797e-32 1.32051732e-11
1.90546072e-01 1.25230973e-11 1.23237846e-11 1.99312613e-13 1.30407048e-28 2.75750033e-29 1.23237846e-11
2.18776162e-01 1.17012271e-11 1.15012250e-11 2.00002027e-13 2.44800862e-26 5.67920763e-27 1.15012250e-11
2.51188643e-01 1.09683241e-11 1.07335677e-11 2.34756360e-13 4.01056617e-24 1.12650783e-24 1.07335677e-11
2.88403150e-01 1.02381240e-11 1.00171482e-11 2.20975753e-13 3.30319438e-22 9.49847904e-23 1.00171482e-11
3.31131121e-01 9.53954984e-12 9.34854667e-12 1.91003157e-13 1.43546669e-20 4.13587554e-21 9.34854667e-12
3.80189396e-01 8.90205007e-12 8.72457139e-12 1.77478319e-13 3.64324207e-19 1.04867081e-19 8.72457139e-12
4.36515832e-01 8.30258768e-12 8.14224377e-12 1.60338140e-13 5.76584511e-18 1.65518679e-18 8.14224377e-12
5.01187234e-01 7.74766114e-12 7.59878402e-12 1.48817287e-13 5.98373289e-17 1.70022328e-17 7.59878402e-12
5.75439937e-01 7.23455025e-12 7.09159786e-12 1.42518909e-13 4.33472426e-16 1.20268205e-16 7.09159786e-12
6.60693448e-01 6.75522395e-12 6.61826421e-12 1.34666700e-13 2.29304450e-15 6.19184084e-16 6.61826421e-12
7.58577575e-01 6.30777386e-12 6.17652353e-12 1.21922395e-13 9.32792609e-15 2.43888501e-15 6.17652353e-12
8.70963590e-01 5.90614505e-12 5.76426715e-12 1.11217291e-13 3.06606077e-14 7.55548145e-15 5.76426715e-12
1.00000000e+00 5.55941274e-12 5.37952711e-12 9.71943944e-14 8.26912379e-14 1.88578003e-14 5.37952711e-12
1.14815362e+00 5.29601184e-12 5.02046681e-12 8.26989792e-14 1.92846052e-13 3.96466619e-14 5.02046681e-12
1.31825674e+00 5.14961745e-12 4.68537225e-12 6.64180955e-14 3.97827110e-13 7.08584121e-14 4.68537225e-12
1.51356125e+00 5.15289367e-12 4.37264380e-12 5.25812223e-14 7.27668647e-13 1.10618146e-13 4.37264380e-12
1.73780083e+00 5.30159859e-12 4.08078863e-12 4.06177215e-14 1.18019224e-12 1.49461775e-13 4.08078863e-12
1.99526231e+00 5.55224979e-12 3.80841354e-12 3.05093988e-14 1.71332685e-12 1.73602864e-13 3.80841354e-12
2.29086765e+00 5.82294603e-12 3.55421832e-12 2.23989693e-14 2.24632875e-12 1.77077866e-13 3.55421832e-12
2.63026799e+00 6.04251681e-12 3.31698953e-12 1.58820983e-14 2.70964518e-12 1.62818026e-13 3.31698953e-12
3.01995172e+00 6.14705149e-12 3.09559474e-12 1.13467437e-14 3.04011000e-12 1.36705623e-13 3.09559474e-12
3.46736850e+00 6.11239579e-12 2.88897711e-12 7.91109531e-15 3.21550759e-12 1.06140151e-13 2.88897711e-12
3.98107171e+00 5.93424785e-12 2.69615031e-12 5.28781655e-15 3.23280972e-12 7.57204899e-14 2.69615031e-12
4.57088190e+00 5.63949500e-12 2.51619387e-12 3.43373116e-15 3.11986740e-12 5.04780655e-14 2.51619387e-12
5.24807460e+00 5.00407231e-12 2.08050667e-12 1.92987110e-15 2.92163577e-12 3.16795053e-14 2.08050667e-12
6.02559586e+00 4.07883805e-12 1.37457712e-12 8.18563315e-16 2.70344237e-12 1.87160667e-14 1.37457712e-12
6.70000000e+00 3.51486310e-12 9.99872685e-13 4.10347040e-16 2.51458007e-12 1.20977533e-14 9.99872685e-13
6.92422916e+00 3.36763406e-12 9.05846924e-13 3.30890041e-16 2.46145625e-12 1.04588104e-14 9.05846924e-13
7.15596261e+00 3.24221341e-12 8.20663132e-13 2.61395986e-16 2.42128889e-12 8.96674199e-15 8.20663132e-13
7.39545150e+00 3.18562016e-12 7.43489831e-13 2.02272798e-16 2.44192805e-12 7.63778766e-15 7.43489831e-13
7.64295536e+00 3.28208830e-12 6.73573732e-13 1.42440628e-16 2.60837212e-12 6.53894723e-15 6.73573732e-13
7.89874245e+00 3.61210610e-12 6.10232385e-13 9.02152448e-17 3.00178350e-12 5.42824598e-15 6.10232385e-13
8.16308998e+00 4.09723454e-12 5.52847515e-13 5.48547135e-17 3.54433217e-12 4.46941758e-15 5.52847515e-13
8.43628443e+00 4.75731534e-12 5.00858987e-13 3.07901167e-17 4.25642556e-12 3.51067569e-15 5.00858987e-13
8.71862190e+00 5.17484452e-12 4.53759343e-13 1.96195328e-17 4.72106556e-12 2.79880276e-15 4.53759343e-13
9.01040836e+00 5.61523852e-12 4.11088843e-13 1.23909044e-17 5.20413729e-12 2.14795500e-15 4.11088843e-13
9.31196005e+00 5.93149221e-12 3.72430980e-13 0.00000000e+00 5.55906123e-12 0.00000000e+00 3.72430980e-13
9.62360379e+00 5.87262272e-12 3.37408415e-13 0.00000000e+00 5.53521431e-12 0.00000000e+00 3.37408415e-13
9.94567731e+00 5.52914397e-12 3.05679292e-13 0.00000000e+00 5.22346468e-12 0.00000000e+00 3.05679292e-13
1.02785297e+01 5.11120336e-12 2.76933904e-13 0.00000000e+00 4.83426946e-12 0.00000000e+00 2.76933904e-13
1.06225216e+01 4.71889809e-12 2.50891667e-13 0.00000000e+00 4.46800642e-12 0.00000000e+00 2.50891667e-13
1.09780260e+01 4.25643277e-12 2.27298384e-13 0.00000000e+00 4.02913439e-12 0.00000000e+00 2.27298384e-13
1.13454280e+01 3.88158480e-12 2.05923759e-13 0.00000000e+00 3.67566104e-12 0.00000000e+00 2.05923759e-13
1.17251259e+01 3.56122374e-12 1.86559155e-13 0.00000000e+00 3.37466458e-12 0.00000000e+00 1.86559155e-13
1.21175312e+01 3.23744098e-12 1.69015555e-13 0.00000000e+00 3.06842542e-12 0.00000000e+00 1.69015555e-13
1.25230691e+01 2.97406285e-12 1.53121715e-13 0.00000000e+00 2.82094113e-12 0.00000000e+00 1.53121715e-13
1.29421791e+01 2.73473911e-12 1.38722496e-13 0.00000000e+00 2.59601661e-12 0.00000000e+00 1.38722496e-13
1.33753155e+01 2.53762071e-12 1.25677347e-13 0.00000000e+00 2.41194337e-12 0.00000000e+00 1.25677347e-13
1.38229477e+01 2.40770892e-12 1.13858934e-13 0.00000000e+00 2.29384999e-12 0.00000000e+00 1.13858934e-13
1.42855609e+01 2.35111591e-12 1.03151898e-13 0.00000000e+00 2.24796402e-12 0.00000000e+00 1.03151898e-13
1.47636563e+01 2.38737472e-12 9.34517274e-14 0.00000000e+00 2.29392299e-12 0.00000000e+00 9.34517274e-14
1.52577522e+01 2.45804321e-12 8.46637387e-14 0.00000000e+00 2.37337947e-12 0.00000000e+00 8.46637387e-14
1.57683840e+01 2.55336101e-12 7.67021526e-14 0.00000000e+00 2.47665886e-12 0.00000000e+00 7.67021526e-14
1.62961051e+01 2.65069462e-12 6.94892560e-14 0.00000000e+00 2.58120537e-12 0.00000000e+00 6.94892560e-14
1.68414875e+01 2.75445429e-12 6.29546439e-14 0.00000000e+00 2.69149964e-12 0.00000000e+00 6.29546439e-14
1.74051222e+01 2.81868039e-12 5.70345319e-14 0.00000000e+00 2.76164586e-12 0.00000000e+00 5.70345319e-14
1.79876201e+01 2.86446401e-12 5.16711337e-14 0.00000000e+00 2.81279288e-12 0.00000000e+00 5.16711337e-14
1.85896125e+01 2.87613852e-12 4.68120974e-14 0.00000000e+00 2.82932642e-12 0.00000000e+00 4.68120974e-14
1.92117518e+01 2.83145305e-12 4.24099939e-14 0.00000000e+00 2.78904306e-12 0.00000000e+00 4.24099939e-14
1.98547123e+01 2.77543163e-12 3.84218542e-14 0.00000000e+00 2.73700977e-12 0.00000000e+00 3.84218542e-14
2.05191907e+01 2.69444227e-12 3.48087501e-14 0.00000000e+00 2.65963352e-12 0.00000000e+00 3.48087501e-14
2.12059073e+01 2.62503067e-12 3.15354141e-14 0.00000000e+00 2.59349525e-12 0.00000000e+00 3.15354141e-14
2.19156062e+01 2.55519103e-12 2.85698952e-14 0.00000000e+00 2.52662113e-12 0.00000000e+00 2.85698952e-14
2.26490567e+01 2.49838328e-12 2.58832470e-14 0.00000000e+00 2.47250004e-12 0.00000000e+00 2.58832470e-14
2.34070535e+01 2.43108727e-12 2.34492452e-14 0.00000000e+00 2.40763802e-12 0.00000000e+00 2.34492452e-14
2.41904183e+01 2.37005046e-12 2.12441313e-14 0.00000000e+00 2.34880633e-12 0.00000000e+00 2.12441313e-14
2.50000000e+01 2.30480432e-12 1.92463813e-14 0.00000000e+00 2.28555794e-12 0.00000000e+00 1.92463813e-14
2.75422870e+01 2.10242316e-12 1.43935895e-14 0.00000000e+00 2.08802957e-12 0.00000000e+00 1.43935895e-14
3.16227766e+01 1.78085959e-12 9.50975027e-15 0.00000000e+00 1.77134984e-12 0.00000000e+00 9.50975027e-15
3.63078055e+01 1.42527725e-12 6.28302969e-15 0.00000000e+00 1.41899422e-12 0.00000000e+00 6.28302969e-15
4.16869383e+01 1.05581570e-12 4.15115655e-15 0.00000000e+00 1.05166455e-12 0.00000000e+00 4.15115655e-15
4.78630092e+01 7.27600780e-13 2.74264194e-15 0.00000000e+00 7.24858138e-13 0.00000000e+00 2.74264194e-15
5.49540874e+01 4.72958674e-13 1.81204556e-15 0.00000000e+00 4.71146628e-13 0.00000000e+00 1.81204556e-15
6.30957344e+01 2.92693808e-13 1.19720663e-15 0.00000000e+00 2.91496602e-13 0.00000000e+00 1.19720663e-15
7.24435960e+01 1.74106862e-13 7.90986575e-16 0.00000000e+00 1.73315875e-13 0.00000000e+00 7.90986575e-16
8.31763771e+01 1.00614094e-13 5.22599647e-16 0.00000000e+00 1.00091495e-13 0.00000000e+00 5.22599647e-16
9.54992586e+01 5.69185948e-14 3.45278163e-16 0.00000000e+00 5.65733167e-14 0.00000000e+00 3.45278163e-16
1.09647820e+02 3.16982136e-14 2.28123020e-16 0.00000000e+00 3.14700906e-14 0.00000000e+00 2.28123020e-16
1.25892541e+02 1.76286252e-14 1.50719385e-16 0.00000000e+00 1.74779058e-14 0.00000000e+00 1.50719385e-16
1.44543977e+02 9.74382800e-15 9.95793099e-17 0.00000000e+00 9.64424869e-15 0.00000000e+00 9.95793099e-17
1.65958691e+02 5.13189442e-15 6.57913976e-17 0.00000000e+00 5.06610302e-15 0.00000000e+00 6.57913976e-17
1.90546072e+02 2.70507403e-15 4.34679453e-17 0.00000000e+00 2.66160608e-15 0.00000000e+00 4.34679453e-17
2.18776162e+02 1.42399609e-15 2.87189867e-17 0.00000000e+00 1.39527711e-15 0.00000000e+00 2.87189867e-17
2.51188643e+02 7.47507069e-16 1.89744463e-17 0.00000000e+00 7.28532623e-16 0.00000000e+00 1.89744463e-17
2.88403150e+02 3.90962960e-16 1.25362924e-17 0.00000000e+00 3.78426668e-16 0.00000000e+00 1.25362924e-17
3.31131121e+02 2.04250017e-16 8.28264623e-18 0.00000000e+00 1.95967371e-16 0.00000000e+00 8.28264623e-18
3.80189396e+02 1.06521309e-16 5.47229010e-18 0.00000000e+00 1.01049019e-16 0.00000000e+00 5.47229010e-18
4.36515832e+02 5.55755870e-17 3.61550621e-18 0.00000000e+00 5.19600808e-17 0.00000000e+00 3.61550621e-18
5.01187234e+02 2.90254199e-17 2.38874127e-18 0.00000000e+00 2.66366786e-17 0.00000000e+00 2.38874127e-18
5.75439937e+02 1.51992591e-17 1.57822570e-18 0.00000000e+00 1.36210334e-17 0.00000000e+00 1.57822570e-18
6.60693448e+02 7.99292457e-18 1.04272338e-18 0.00000000e+00 6.95020118e-18 0.00000000e+00 1.04272338e-18
7.58577575e+02 4.22857894e-18 6.88920507e-19 0.00000000e+00 3.53965843e-18 0.00000000e+00 6.88920507e-19
8.70963590e+02 2.25446445e-18 4.55165265e-19 0.00000000e+00 1.79929919e-18 0.00000000e+00 4.55165265e-19
1.00000000e+03 9.13011936e-19 0.00000000e+00 0.00000000e+00 9.13011936e-19 0.00000000e+00 0.00000000e+00
