# column 1: lambda (micron)
# column 2: total flux; lambda*F_lambda (W/m2)
# column 3: direct stellar flux; lambda*F_lambda (W/m2)
# column 4: scattered stellar flux; lambda*F_lambda (W/m2)
# column 5: total dust emission flux; lambda*F_lambda (W/m2)
# column 6: dust emission scattered flux; lambda*F_lambda (W/m2)
# column 7: transparent flux; lambda*F_lambda (W/m2)
1.00000000e-03 8.46499132e-13 8.46497228e-13 1.90306705e-18 0.00000000e+00 0.00000000e+00 8.46529401e-13
1.14815362e-03 9.99128930e-13 9.99125951e-13 2.97846796e-18 0.00000000e+00 0.00000000e+00 9.99176121e-13
1.31825674e-03 1.17927759e-12 1.17927291e-12 4.67983018e-18 0.00000000e+00 0.00000000e+00 1.17934819e-12
1.51356125e-03 1.39191161e-12 1.39190424e-12 7.36589349e-18 0.00000000e+00 0.00000000e+00 1.39200901e-12
1.73780083e-03 1.64290462e-12 1.64289202e-12 1.25944664e-17 0.00000000e+00 0.00000000e+00 1.64301696e-12
1.99526231e-03 1.93911468e-12 1.93909131e-12 2.33645213e-17 0.00000000e+00 0.00000000e+00 1.93928682e-12
2.29086765e-03 2.28877122e-12 2.28873555e-12 3.56725878e-17 0.00000000e+00 0.00000000e+00 2.28898025e-12
2.63026799e-03 2.70145510e-12 2.70138451e-12 7.05908466e-17 0.00000000e+00 0.00000000e+00 2.70173063e-12
3.01995172e-03 3.18852616e-12 3.18840315e-12 1.23009183e-16 0.00000000e+00 0.00000000e+00 3.18890841e-12
3.46736850e-03 3.76343658e-12 3.76323149e-12 2.05093879e-16 0.00000000e+00 0.00000000e+00 3.76393440e-12
3.98107171e-03 4.44203027e-12 4.44169978e-12 3.30488718e-16 0.00000000e+00 0.00000000e+00 4.44264945e-12
4.57088190e-03 5.24373286e-12 5.24300309e-12 7.29765071e-16 0.00000000e+00 0.00000000e+00 5.24375082e-12
5.24807460e-03 6.18955385e-12 6.18818008e-12 1.37376940e-15 0.00000000e+00 0.00000000e+00 6.18930730e-12
6.02559586e-03 7.30627427e-12 7.30376294e-12 2.51133130e-15 0.00000000e+00 0.00000000e+00 7.30536713e-12
6.91830971e-03 8.67599872e-12 8.62049030e-12 5.55084156e-14 0.00000000e+00 0.00000000e+00 8.62267558e-12
7.94328235e-03 1.01812588e-11 1.01746443e-11 6.61449276e-15 5.16717600e-304 1.10170889e-306 1.01775219e-11
9.12010839e-03 1.20210151e-11 1.20089701e-11 1.20450249e-14 2.22218821e-265 8.73585220e-268 1.20127391e-11
1.04712855e-02 1.34272031e-11 1.34121096e-11 1.50935016e-14 9.22141392e-232 3.50839824e-234 1.34165878e-11
1.20226443e-02 1.34478950e-11 1.34118453e-11 3.60496336e-14 1.42420324e-202 8.73337259e-205 1.34165878e-11
1.38038426e-02 1.34463926e-11 1.34115319e-11 3.48606671e-14 3.84452460e-177 4.34986491e-179 1.34165878e-11
1.58489319e-02 1.34664839e-11 1.34111467e-11 5.53371979e-14 5.13646787e-155 5.97835236e-157 1.34165878e-11
1.81970086e-02 1.34754582e-11 1.34107915e-11 6.46666844e-14 9.10020877e-136 1.48651624e-137 1.34165878e-11
2.08929613e-02 1.35045297e-11 1.34104962e-11 9.40335127e-14 4.72860165e-119 1.00830167e-120 1.34165878e-11
2.39883292e-02 1.35276215e-11 1.34101137e-11 1.17507839e-13 1.65421826e-104 4.62844150e-106 1.34165878e-11
2.75422870e-02 1.35681237e-11 1.34096687e-11 1.58455037e-13 7.38657781e-92 2.54535699e-93 1.34165878e-11
3.16227766e-02 1.36005830e-11 1.34092325e-11 1.91350507e-13 7.20004202e-81 3.04058366e-82 1.34165878e-11
3.63078055e-02 1.36297956e-11 1.34088904e-11 2.20905107e-13 2.49226605e-71 1.18082790e-72 1.34165878e-11
4.16869383e-02 1.36997247e-11 1.34085946e-11 2.91130095e-13 4.75941769e-63 2.87212575e-64 1.34165878e-11
4.78630092e-02 1.37669019e-11 1.34077790e-11 3.59122844e-13 7.21947694e-56 5.28899275e-57 1.34165878e-11
5.49540874e-02 1.38214476e-11 1.34066450e-11 4.14802670e-13 1.20215241e-49 1.00524009e-50 1.34165878e-11
6.30957344e-02 1.38384480e-11 1.34038017e-11 4.34646257e-13 3.88554349e-44 3.57077164e-45 1.34165878e-11
7.24435960e-02 1.37959781e-11 1.34004346e-11 3.95543485e-13 2.23145736e-39 1.89907881e-40 1.34165878e-11
8.31763771e-02 1.37930629e-11 1.34007342e-11 3.92328728e-13 2.27132841e-35 1.85353112e-36 1.34165878e-11
9.54992586e-02 1.38021163e-11 1.34016129e-11 4.00503424e-13 6.39291246e-32 5.38933304e-33 1.34165878e-11
1.09647820e-01 1.32179100e-11 1.28008653e-11 4.17044644e-13 5.44106239e-29 5.03616025e-30 1.28127470e-11
1.25892541e-01 1.23458700e-11 1.19484228e-11 3.97447153e-13 1.76039322e-26 1.62520368e-27 1.19575512e-11
1.44543977e-01 1.15087257e-11 1.11523746e-11 3.56351146e-13 2.39009139e-24 2.15183728e-25 1.11594361e-11
1.65958691e-01 1.07749982e-11 1.04088280e-11 3.66170120e-13 1.21232333e-22 1.18497388e-23 1.04145917e-11
1.90546072e-01 1.01003857e-11 9.71372405e-12 3.86661641e-13 2.55863639e-21 2.82932382e-22 9.71946251e-12
2.18776162e-01 9.41889960e-12 9.06444842e-12 3.54451153e-13 3.02842475e-20 3.44547548e-21 9.07073019e-12
2.51188643e-01 8.86944919e-12 8.46060917e-12 4.08839655e-13 3.69972781e-19 5.02419559e-20 8.46529796e-12
2.88403150e-01 8.26259471e-12 7.89664257e-12 3.65949067e-13 3.07386748e-18 4.12270613e-19 7.90027573e-12
3.31131121e-01 7.70963713e-12 7.37001050e-12 3.39609077e-13 1.75519688e-17 2.26730421e-18 7.37296631e-12
3.80189396e-01 7.18797638e-12 6.87843005e-12 3.09473114e-13 7.32082663e-17 9.22057986e-18 6.88085251e-12
4.36515832e-01 6.69761374e-12 6.41961757e-12 2.77758048e-13 2.38113483e-16 3.11911182e-17 6.42158520e-12
5.01187234e-01 6.24381621e-12 5.99139544e-12 2.51766296e-13 6.54473880e-16 9.75494425e-17 5.99297201e-12
5.75439937e-01 5.82274637e-12 5.59171669e-12 2.29255367e-13 1.77431361e-15 3.44495081e-16 5.59296690e-12
6.60693448e-01 5.42899784e-12 5.21867758e-12 2.05107621e-13 5.21263634e-15 1.28765162e-15 5.21966041e-12
7.58577575e-01 5.07159620e-12 4.87050728e-12 1.85038097e-13 1.60508243e-14 4.42725405e-15 4.87127053e-12
8.70963590e-01 4.75138980e-12 4.54555458e-12 1.59470146e-13 4.63650747e-14 1.28263023e-14 4.54613417e-12
1.00000000e+00 4.49557076e-12 4.24226624e-12 1.35220864e-13 1.18083653e-13 3.12190830e-14 4.24269927e-12
1.14815362e+00 4.33962536e-12 3.95919957e-12 1.13829835e-13 2.66595958e-13 6.31622666e-14 3.95951734e-12
1.31825674e+00 4.32775765e-12 3.69500744e-12 9.20702124e-14 5.40679994e-13 1.11067496e-13 3.69523659e-12
1.51356125e+00 4.50042646e-12 3.44843187e-12 7.19078165e-14 9.80086773e-13 1.70929383e-13 3.44859544e-12
1.73780083e+00 4.86094366e-12 3.21830167e-12 5.51301933e-14 1.58751180e-12 2.26718680e-13 3.21841652e-12
1.99526231e+00 5.36098380e-12 3.00352167e-12 4.13146296e-14 2.31614749e-12 2.60231434e-13 3.00360106e-12
2.29086765e+00 5.90135996e-12 2.80306891e-12 2.99135873e-14 3.06837746e-12 2.63671411e-13 2.80312361e-12
2.63026799e+00 6.41282294e-12 2.61598912e-12 2.15556346e-14 3.77527818e-12 2.42426337e-13 2.61602716e-12
3.01995172e+00 6.78568655e-12 2.44139180e-12 1.55107969e-14 4.32878395e-12 2.03992444e-13 2.44141860e-12
3.46736850e+00 7.00047447e-12 2.27844522e-12 1.08294784e-14 4.71119977e-12 1.61348669e-13 2.27846441e-12
3.98107171e+00 7.03417301e-12 2.12637280e-12 7.45063264e-15 4.90034958e-12 1.20260617e-13 2.12638671e-12
4.57088190e+00 6.88333783e-12 1.98444932e-12 4.91785168e-15 4.89397066e-12 8.38080751e-14 1.98445954e-12
5.24807460e+00 6.42888123e-12 1.64083708e-12 2.78219035e-15 4.78526195e-12 5.58000336e-14 1.64084388e-12
6.02559586e+00 5.69318271e-12 1.08409107e-12 1.22307965e-15 4.60786856e-12 3.51869026e-14 1.08409480e-12
6.70000000e+00 5.22955525e-12 7.88572323e-13 6.24953363e-16 4.44035797e-12 2.38483725e-14 7.88574724e-13
6.92422916e+00 5.08926392e-12 7.14416845e-13 5.10158811e-16 4.37433692e-12 2.08920307e-14 7.14418944e-13
7.15596261e+00 4.98918030e-12 6.47234738e-13 3.99322402e-16 4.34154624e-12 1.81796308e-14 6.47236606e-13
7.39545150e+00 4.98122141e-12 5.86370209e-13 3.06839321e-16 4.39454437e-12 1.55568303e-14 5.86371942e-13
7.64295536e+00 5.15970416e-12 5.31229065e-13 2.13632858e-16 4.62826146e-12 1.30198603e-14 5.31230854e-13
7.89874245e+00 5.64212363e-12 4.81273014e-13 1.31345378e-16 5.16071927e-12 1.03388115e-14 4.81275108e-13
8.16308998e+00 6.32757044e-12 4.36014526e-13 7.63394291e-17 5.89147957e-12 8.03719252e-15 4.36017088e-13
8.43628443e+00 7.27393171e-12 3.95011805e-13 4.18941109e-17 6.87887801e-12 6.08485636e-15 3.95015029e-13
8.71862190e+00 7.92350567e-12 3.57865122e-13 2.63838546e-17 7.56561416e-12 4.78054997e-15 3.57868711e-13
9.01040836e+00 8.57352884e-12 3.24211609e-13 1.62940153e-17 8.24930094e-12 3.63748563e-15 3.24215549e-13
9.31196005e+00 9.04624192e-12 2.93722914e-13 0.00000000e+00 8.75251900e-12 0.00000000e+00 2.93727053e-13
9.62360379e+00 9.00918076e-12 2.66101778e-13 0.00000000e+00 8.74307899e-12 0.00000000e+00 2.66105627e-13
9.94567731e+00 8.60142178e-12 2.41078385e-13 0.00000000e+00 8.36034339e-12 0.00000000e+00 2.41081657e-13
1.02785297e+01 8.07832821e-12 2.18408203e-13 0.00000000e+00 7.85992001e-12 0.00000000e+00 2.18410884e-13
1.06225216e+01 7.56290134e-12 1.97869846e-13 0.00000000e+00 7.36503149e-12 0.00000000e+00 1.97872020e-13
1.09780260e+01 6.96637239e-12 1.79262884e-13 0.00000000e+00 6.78710951e-12 0.00000000e+00 1.79264583e-13
1.13454280e+01 6.50107497e-12 1.62405615e-13 0.00000000e+00 6.33866935e-12 0.00000000e+00 1.62406948e-13
1.17251259e+01 6.11415117e-12 1.47133514e-13 0.00000000e+00 5.96701765e-12 0.00000000e+00 1.47134567e-13
1.21175312e+01 5.74141236e-12 1.33297538e-13 0.00000000e+00 5.60811483e-12 0.00000000e+00 1.33298366e-13
1.25230691e+01 5.41257796e-12 1.20762641e-13 0.00000000e+00 5.29181532e-12 0.00000000e+00 1.20763289e-13
1.29421791e+01 5.11628803e-12 1.09406472e-13 0.00000000e+00 5.00688156e-12 0.00000000e+00 1.09406983e-13
1.33753155e+01 4.90075766e-12 9.91181922e-14 0.00000000e+00 4.80163946e-12 0.00000000e+00 9.91185987e-14
1.38229477e+01 4.76787496e-12 8.97973724e-14 0.00000000e+00 4.67807758e-12 0.00000000e+00 8.97977103e-14
1.42855609e+01 4.71513272e-12 8.13530434e-14 0.00000000e+00 4.63377968e-12 0.00000000e+00 8.13533371e-14
1.47636563e+01 4.84534981e-12 7.37027749e-14 0.00000000e+00 4.77164703e-12 0.00000000e+00 7.37030537e-14
1.52577522e+01 5.00199158e-12 6.67719162e-14 0.00000000e+00 4.93521966e-12 0.00000000e+00 6.67721855e-14
1.57683840e+01 5.19461084e-12 6.04928170e-14 0.00000000e+00 5.13411802e-12 0.00000000e+00 6.04930805e-14
1.62961051e+01 5.37809184e-12 5.48041907e-14 0.00000000e+00 5.32328765e-12 0.00000000e+00 5.48044484e-14
1.68414875e+01 5.57099465e-12 4.96505110e-14 0.00000000e+00 5.52134414e-12 0.00000000e+00 4.96507622e-14
1.74051222e+01 5.69798731e-12 4.49814785e-14 0.00000000e+00 5.65300583e-12 0.00000000e+00 4.49817171e-14
1.79876201e+01 5.81381430e-12 4.07515156e-14 0.00000000e+00 5.77306278e-12 0.00000000e+00 4.07517384e-14
1.85896125e+01 5.86742525e-12 3.69193357e-14 0.00000000e+00 5.83050592e-12 0.00000000e+00 3.69195372e-14
1.92117518e+01 5.85144879e-12 3.34475306e-14 0.00000000e+00 5.81800126e-12 0.00000000e+00 3.34477076e-14
1.98547123e+01 5.79195065e-12 3.03022085e-14 0.00000000e+00 5.76164844e-12 0.00000000e+00 3.03023610e-14
2.05191907e+01 5.70961429e-12 2.74526657e-14 0.00000000e+00 5.68216162e-12 0.00000000e+00 2.74527957e-14
2.12059073e+01 5.59379444e-12 2.48710862e-14 0.00000000e+00 5.56892335e-12 0.00000000e+00 2.48711970e-14
2.19156062e+01 5.51785022e-12 2.25322711e-14 0.00000000e+00 5.49531795e-12 0.00000000e+00 2.25323660e-14
2.26490567e+01 5.41811781e-12 2.04133919e-14 0.00000000e+00 5.39770442e-12 0.00000000e+00 2.04134733e-14
2.34070535e+01 5.31893913e-12 1.84937666e-14 0.00000000e+00 5.30044536e-12 0.00000000e+00 1.84938366e-14
2.41904183e+01 5.21451186e-12 1.67546578e-14 0.00000000e+00 5.19775720e-12 0.00000000e+00 1.67547181e-14
2.50000000e+01 5.10141835e-12 1.51790903e-14 0.00000000e+00 5.08623926e-12 0.00000000e+00 1.51791424e-14
2.75422870e+01 4.69483143e-12 1.13518322e-14 0.00000000e+00 4.68347960e-12 0.00000000e+00 1.13518661e-14
3.16227766e+01 4.00003124e-12 7.50008491e-15 0.00000000e+00 3.99253116e-12 0.00000000e+00 7.50010357e-15
3.63078055e+01 3.19955219e-12 4.95525909e-15 0.00000000e+00 3.19459693e-12 0.00000000e+00 4.95526929e-15
4.16869383e+01 2.36992210e-12 3.27390853e-15 0.00000000e+00 2.36664819e-12 0.00000000e+00 3.27391395e-15
4.78630092e+01 1.63474492e-12 2.16305070e-15 0.00000000e+00 1.63258187e-12 0.00000000e+00 2.16305350e-15
5.49540874e+01 1.06012246e-12 1.42911386e-15 0.00000000e+00 1.05869335e-12 0.00000000e+00 1.42911527e-15
6.30957344e+01 6.53897356e-13 9.44206395e-16 0.00000000e+00 6.52953150e-13 0.00000000e+00 9.44207098e-16
7.24435960e+01 3.86448545e-13 6.23831095e-16 0.00000000e+00 3.85824714e-13 0.00000000e+00 6.23831443e-16
8.31763771e+01 2.22095863e-13 4.12161175e-16 0.00000000e+00 2.21683702e-13 0.00000000e+00 4.12161347e-16
9.54992586e+01 1.24730096e-13 2.72312217e-16 0.00000000e+00 1.24457784e-13 0.00000000e+00 2.72312302e-16
1.09647820e+02 6.89125269e-14 1.79914911e-16 0.00000000e+00 6.87326120e-14 0.00000000e+00 1.79914953e-16
1.25892541e+02 3.80191672e-14 1.18868610e-16 0.00000000e+00 3.79002986e-14 0.00000000e+00 1.18868631e-16
1.44543977e+02 2.08561991e-14 7.85357148e-17 0.00000000e+00 2.07776634e-14 0.00000000e+00 7.85357256e-17
1.65958691e+02 1.09000574e-14 5.18880341e-17 0.00000000e+00 1.08481694e-14 0.00000000e+00 5.18880394e-17
1.90546072e+02 5.70298602e-15 3.42820850e-17 0.00000000e+00 5.66870393e-15 0.00000000e+00 3.42820876e-17
2.18776162e+02 2.97935635e-15 2.26499494e-17 0.00000000e+00 2.95670640e-15 0.00000000e+00 2.26499507e-17
2.51188643e+02 1.55166116e-15 1.49646734e-17 0.00000000e+00 1.53669648e-15 0.00000000e+00 1.49646740e-17
2.88403150e+02 8.04963107e-16 9.88706175e-18 0.00000000e+00 7.95076045e-16 0.00000000e+00 9.88706207e-18
3.31131121e+02 4.16782192e-16 6.53231697e-18 0.00000000e+00 4.10249875e-16 0.00000000e+00 6.53231713e-18
3.80189396e+02 2.15182693e-16 4.31585905e-18 0.00000000e+00 2.10866834e-16 0.00000000e+00 4.31585913e-18
4.36515832e+02 1.10974554e-16 2.85145981e-18 0.00000000e+00 1.08123094e-16 0.00000000e+00 2.85145985e-18
5.01187234e+02 5.71758701e-17 1.88394082e-18 0.00000000e+00 5.52919293e-17 0.00000000e+00 1.88394084e-18
5.75439937e+02 2.94576425e-17 1.24470736e-18 0.00000000e+00 2.82129351e-17 0.00000000e+00 1.24470737e-18
6.60693448e+02 1.51907799e-17 8.22369998e-19 0.00000000e+00 1.43684099e-17 0.00000000e+00 8.22370004e-19
7.58577575e+02 7.84881168e-18 5.43334471e-19 0.00000000e+00 7.30547721e-18 0.00000000e+00 5.43334473e-19
8.70963590e+02 4.06714021e-18 3.58977525e-19 0.00000000e+00 3.70816268e-18 0.00000000e+00 3.58977527e-19
1.00000000e+03 1.87920922e-18 0.00000000e+00 0.00000000e+00 1.87920922e-18 0.00000000e+00 0.00000000e+00
