# column 1: lambda (micron)
# column 2: total flux; lambda*F_lambda (W/m2)
# column 3: direct stellar flux; lambda*F_lambda (W/m2)
# column 4: scattered stellar flux; lambda*F_lambda (W/m2)
# column 5: total dust emission flux; lambda*F_lambda (W/m2)
# column 6: dust emission scattered flux; lambda*F_lambda (W/m2)
# column 7: transparent flux; lambda*F_lambda (W/m2)
1.00000000e-03 6.93995192e-13 6.93993746e-13 1.44669652e-18 0.00000000e+00 0.00000000e+00 6.93993746e-13
1.14815362e-03 8.19137351e-13 8.19135139e-13 2.21172240e-18 0.00000000e+00 0.00000000e+00 8.19135139e-13
1.31825674e-03 9.66845430e-13 9.66842108e-13 3.32254616e-18 0.00000000e+00 0.00000000e+00 9.66842108e-13
1.51356125e-03 1.14118892e-12 1.14118369e-12 5.22969997e-18 0.00000000e+00 0.00000000e+00 1.14118369e-12
1.73780083e-03 1.34697206e-12 1.34696266e-12 9.39659965e-18 0.00000000e+00 0.00000000e+00 1.34696266e-12
1.99526231e-03 1.58986401e-12 1.58984782e-12 1.61833752e-17 0.00000000e+00 0.00000000e+00 1.58984782e-12
2.29086765e-03 1.87655695e-12 1.87653019e-12 2.67521044e-17 0.00000000e+00 0.00000000e+00 1.87653019e-12
2.63026799e-03 2.21495777e-12 2.21490731e-12 5.04550486e-17 0.00000000e+00 0.00000000e+00 2.21490731e-12
3.01995172e-03 2.61438728e-12 2.61430080e-12 8.64801960e-17 0.00000000e+00 0.00000000e+00 2.61430080e-12
3.46736850e-03 3.08585661e-12 3.08571319e-12 1.43423566e-16 0.00000000e+00 0.00000000e+00 3.08571319e-12
3.98107171e-03 3.64236128e-12 3.64213095e-12 2.30325216e-16 0.00000000e+00 0.00000000e+00 3.64213095e-12
4.57088190e-03 4.29941742e-12 4.29888232e-12 5.35105383e-16 0.00000000e+00 0.00000000e+00 4.29888232e-12
5.24807460e-03 5.07500043e-12 5.07405951e-12 9.40918887e-16 0.00000000e+00 0.00000000e+00 5.07405951e-12
6.02559586e-03 5.99069633e-12 5.98901715e-12 1.67918236e-15 0.00000000e+00 0.00000000e+00 5.98901715e-12
6.91830971e-03 7.07165580e-12 7.06896053e-12 2.69527090e-15 0.00000000e+00 0.00000000e+00 7.06896053e-12
7.94328235e-03 8.34806632e-12 8.34363998e-12 4.42633914e-15 0.00000000e+00 0.00000000e+00 8.34363998e-12
9.12010839e-03 9.85568861e-12 9.84817045e-12 7.51816486e-15 0.00000000e+00 0.00000000e+00 9.84817045e-12
1.04712855e-02 1.10089712e-11 1.09990604e-11 9.91077617e-15 0.00000000e+00 0.00000000e+00 1.09990604e-11
1.20226443e-02 1.10141037e-11 1.09990604e-11 1.50433014e-14 1.84656589e-312 9.66638196e-314 1.09990604e-11
1.38038426e-02 1.10205375e-11 1.09990604e-11 2.14770213e-14 4.49918565e-273 2.36516703e-274 1.09990604e-11
1.58489319e-02 1.10307273e-11 1.09990604e-11 3.16668463e-14 8.64931096e-239 5.00306998e-240 1.09990604e-11
1.81970086e-02 1.10400957e-11 1.09990604e-11 4.10352582e-14 5.94985692e-209 3.95680139e-210 1.09990604e-11
2.08929613e-02 1.10583051e-11 1.09990604e-11 5.92446572e-14 5.14318182e-183 3.66424826e-184 1.09990604e-11
2.39883292e-02 1.10770713e-11 1.09990604e-11 7.80108459e-14 1.92785111e-160 1.47923651e-161 1.09990604e-11
2.75422870e-02 1.10967849e-11 1.09990604e-11 9.77244590e-14 8.46874507e-141 6.93655975e-142 1.09990604e-11
3.16227766e-02 1.11240646e-11 1.09990604e-11 1.25004113e-13 1.01521440e-123 8.90840082e-125 1.09990604e-11
3.63078055e-02 1.11393497e-11 1.09990604e-11 1.40289301e-13 7.07580500e-109 6.41153365e-110 1.09990604e-11
4.16869383e-02 1.11862827e-11 1.09990604e-11 1.87222239e-13 5.63982649e-96 5.81340211e-97 1.09990604e-11
4.78630092e-02 1.12188917e-11 1.09990604e-11 2.19831273e-13 8.93917209e-85 1.00810318e-85 1.09990604e-11
5.49540874e-02 1.12489379e-11 1.09990604e-11 2.49877429e-13 4.68610712e-75 5.57944894e-76 1.09990604e-11
6.30957344e-02 1.12623584e-11 1.09990604e-11 2.63297909e-13 1.66008870e-66 2.12016074e-67 1.09990604e-11
7.24435960e-02 1.12368290e-11 1.09990604e-11 2.37768562e-13 4.38839635e-59 5.58619619e-60 1.09990604e-11
8.31763771e-02 1.12314702e-11 1.09990604e-11 2.32409772e-13 1.11260594e-52 1.43933891e-53 1.09990604e-11
9.54992586e-02 1.12332392e-11 1.09990604e-11 2.34178751e-13 4.89274382e-47 7.14489966e-48 1.09990604e-11
1.09647820e-01 1.07566947e-11 1.05040253e-11 2.52669368e-13 4.51175272e-42 7.54030518e-43 1.05040253e-11
1.25892541e-01 1.00426513e-11 9.80292679e-12 2.39724472e-13 1.03366028e-37 1.76657024e-38 9.80292679e-12
1.44543977e-01 9.36667090e-12 9.14862359e-12 2.18047306e-13 6.32190038e-34 1.06453076e-34 9.14862359e-12
1.65958691e-01 8.76352856e-12 8.53799231e-12 2.25536251e-13 9.48968022e-31 1.77890242e-31 8.53799231e-12
1.90546072e-01 8.21188933e-12 7.96811805e-12 2.43771287e-13 3.96111705e-28 8.81041560e-29 7.96811805e-12
2.18776162e-01 7.65810145e-12 7.43628044e-12 2.21821014e-13 6.39963369e-26 1.54263343e-26 7.43628044e-12
2.51188643e-01 7.19595829e-12 6.93994070e-12 2.56017586e-13 8.81267075e-24 2.53683086e-24 6.93994070e-12
2.88403150e-01 6.70943194e-12 6.47672950e-12 2.32702439e-13 6.17118150e-22 1.78532699e-22 6.47672950e-12
3.31131121e-01 6.25967411e-12 6.04443567e-12 2.15238419e-13 2.35023165e-20 6.77922634e-21 6.04443567e-12
3.80189396e-01 5.83686174e-12 5.64099558e-12 1.95865621e-13 5.35343550e-19 1.54225092e-19 5.64099558e-12
4.36515832e-01 5.45035390e-12 5.26448339e-12 1.85862812e-13 7.70054388e-18 2.23322058e-18 5.26448339e-12
5.01187234e-01 5.07955522e-12 4.91310176e-12 1.66379062e-13 7.43972390e-17 2.15244802e-17 4.91310176e-12
5.75439937e-01 4.74241452e-12 4.58517335e-12 1.56731626e-13 5.09542201e-16 1.45302906e-16 4.58517335e-12
6.60693448e-01 4.42201960e-12 4.27913275e-12 1.40336704e-13 2.55014987e-15 7.13671894e-16 4.27913275e-12
7.58577575e-01 4.12887070e-12 3.99351904e-12 1.25283626e-13 1.00680304e-14 2.73163426e-15 3.99351904e-12
8.70963590e-01 3.86918682e-12 3.72696882e-12 1.10151564e-13 3.20664365e-14 8.25787880e-15 3.72696882e-12
1.00000000e+00 3.66035482e-12 3.47820968e-12 9.71749023e-14 8.49702412e-14 2.04861465e-14 3.47820968e-12
1.14815362e+00 3.52017745e-12 3.24605414e-12 7.96566967e-14 1.94466607e-13 4.21476150e-14 3.24605414e-12
1.31825674e+00 3.48905278e-12 3.02939399e-12 6.41647874e-14 3.95494008e-13 7.53559486e-14 3.02939399e-12
1.51356125e+00 3.59420857e-12 2.82719497e-12 5.18714459e-14 7.15142151e-13 1.16091465e-13 2.82719497e-12
1.73780083e+00 3.83099358e-12 2.63849186e-12 3.94213532e-14 1.15308036e-12 1.55474161e-13 2.63849186e-12
1.99526231e+00 4.15654841e-12 2.46238388e-12 3.00408476e-14 1.66412368e-12 1.77789639e-13 2.46238388e-12
2.29086765e+00 4.48899463e-12 2.29803035e-12 2.20070881e-14 2.16895719e-12 1.77887609e-13 2.29803035e-12
2.63026799e+00 4.75521158e-12 2.14464670e-12 1.58625709e-14 2.59470230e-12 1.57483371e-13 2.14464670e-12
3.01995172e+00 4.89566822e-12 2.00150076e-12 1.08486136e-14 2.88331885e-12 1.27766466e-13 2.00150076e-12
3.46736850e+00 4.89828143e-12 1.86790919e-12 7.41160145e-15 3.02296063e-12 9.55761707e-14 1.86790919e-12
3.98107171e+00 4.75825993e-12 1.74323429e-12 4.83614726e-15 3.01018950e-12 6.59445613e-14 1.74323429e-12
4.57088190e+00 4.50198206e-12 1.62688090e-12 3.10411511e-15 2.87199705e-12 4.20979610e-14 1.62688090e-12
5.24807460e+00 4.01910420e-12 1.34518114e-12 1.68759889e-15 2.67223546e-12 2.56139872e-14 1.34518114e-12
6.02559586e+00 3.34109485e-12 8.88752369e-13 7.01981373e-16 2.45164050e-12 1.48268297e-14 8.88752369e-13
6.70000000e+00 2.92235675e-12 6.46481889e-13 3.47121010e-16 2.27552774e-12 9.30252391e-15 6.46481889e-13
6.92422916e+00 2.80689985e-12 5.85688198e-13 2.80266037e-16 2.22093139e-12 7.97945812e-15 5.85688198e-13
7.15596261e+00 2.71555335e-12 5.30611407e-13 2.22127948e-16 2.18471982e-12 6.82507974e-15 5.30611407e-13
7.39545150e+00 2.67944685e-12 4.80713913e-13 1.69675806e-16 2.19856326e-12 5.83502137e-15 4.80713913e-13
7.64295536e+00 2.78965651e-12 4.35508666e-13 1.22885930e-16 2.35402496e-12 5.02164075e-15 4.35508666e-13
7.89874245e+00 3.10867575e-12 3.94554418e-13 7.96526122e-17 2.71404168e-12 4.24075148e-15 3.94554418e-13
8.16308998e+00 3.56972558e-12 3.57451415e-13 4.83405252e-17 3.21222583e-12 3.56559467e-15 3.57451415e-13
8.43628443e+00 4.21146257e-12 3.23837494e-13 2.84992589e-17 3.88759658e-12 2.86931751e-15 3.23837494e-13
8.71862190e+00 4.61065778e-12 2.93384550e-13 1.77931181e-17 4.31725543e-12 2.28419669e-15 2.93384550e-13
9.01040836e+00 5.02893937e-12 2.65795332e-13 1.06488293e-17 4.76313339e-12 1.68414977e-15 2.65795332e-13
9.31196005e+00 5.34908008e-12 2.40800541e-13 0.00000000e+00 5.10827954e-12 0.00000000e+00 2.40800541e-13
9.62360379e+00 5.30736099e-12 2.18156204e-13 0.00000000e+00 5.08920479e-12 0.00000000e+00 2.18156204e-13
9.94567731e+00 4.97384778e-12 1.97641289e-13 0.00000000e+00 4.77620649e-12 0.00000000e+00 1.97641289e-13
1.02785297e+01 4.59093505e-12 1.79055550e-13 0.00000000e+00 4.41187950e-12 0.00000000e+00 1.79055550e-13
1.06225216e+01 4.20546709e-12 1.62217572e-13 0.00000000e+00 4.04324952e-12 0.00000000e+00 1.62217572e-13
1.09780260e+01 3.81077891e-12 1.46962999e-13 0.00000000e+00 3.66381591e-12 0.00000000e+00 1.46962999e-13
1.13454280e+01 3.43349488e-12 1.33142932e-13 0.00000000e+00 3.30035194e-12 0.00000000e+00 1.33142932e-13
1.17251259e+01 3.14372837e-12 1.20622472e-13 0.00000000e+00 3.02310590e-12 0.00000000e+00 1.20622472e-13
1.21175312e+01 2.85318337e-12 1.09279408e-13 0.00000000e+00 2.74390396e-12 0.00000000e+00 1.09279408e-13
1.25230691e+01 2.60534246e-12 9.90030204e-14 0.00000000e+00 2.50633944e-12 0.00000000e+00 9.90030204e-14
1.29421791e+01 2.38115993e-12 8.96930008e-14 0.00000000e+00 2.29146693e-12 0.00000000e+00 8.96930008e-14
1.33753155e+01 2.20184078e-12 8.12584743e-14 0.00000000e+00 2.12058231e-12 0.00000000e+00 8.12584743e-14
1.38229477e+01 2.08254927e-12 7.36171115e-14 0.00000000e+00 2.00893215e-12 0.00000000e+00 7.36171115e-14
1.42855609e+01 2.02522762e-12 6.66943252e-14 0.00000000e+00 1.95853329e-12 0.00000000e+00 6.66943252e-14
1.47636563e+01 2.06800811e-12 6.04225420e-14 0.00000000e+00 2.00758557e-12 0.00000000e+00 6.04225420e-14
1.52577522e+01 2.13148141e-12 5.47405431e-14 0.00000000e+00 2.07674087e-12 0.00000000e+00 5.47405431e-14
1.57683840e+01 2.21505656e-12 4.95928665e-14 0.00000000e+00 2.16546369e-12 0.00000000e+00 4.95928665e-14
1.62961051e+01 2.31144844e-12 4.49292657e-14 0.00000000e+00 2.26651918e-12 0.00000000e+00 4.49292657e-14
1.68414875e+01 2.39898614e-12 4.07042194e-14 0.00000000e+00 2.35828192e-12 0.00000000e+00 4.07042194e-14
1.74051222e+01 2.46502531e-12 3.68764869e-14 0.00000000e+00 2.42814882e-12 0.00000000e+00 3.68764869e-14
1.79876201e+01 2.50932426e-12 3.34087056e-14 0.00000000e+00 2.47591555e-12 0.00000000e+00 3.34087056e-14
1.85896125e+01 2.51699421e-12 3.02670267e-14 0.00000000e+00 2.48672719e-12 0.00000000e+00 3.02670267e-14
1.92117518e+01 2.49259002e-12 2.74207841e-14 0.00000000e+00 2.46516924e-12 0.00000000e+00 2.74207841e-14
1.98547123e+01 2.44551370e-12 2.48421957e-14 0.00000000e+00 2.42067150e-12 0.00000000e+00 2.48421957e-14
2.05191907e+01 2.38553257e-12 2.25060919e-14 0.00000000e+00 2.36302648e-12 0.00000000e+00 2.25060919e-14
2.12059073e+01 2.32590737e-12 2.03896700e-14 0.00000000e+00 2.30551770e-12 0.00000000e+00 2.03896700e-14
2.19156062e+01 2.27698422e-12 1.84722717e-14 0.00000000e+00 2.25851195e-12 0.00000000e+00 1.84722717e-14
2.26490567e+01 2.22873169e-12 1.67351811e-14 0.00000000e+00 2.21199651e-12 0.00000000e+00 1.67351811e-14
2.34070535e+01 2.18500668e-12 1.51614426e-14 0.00000000e+00 2.16984524e-12 0.00000000e+00 1.51614426e-14
2.41904183e+01 2.13683065e-12 1.37356949e-14 0.00000000e+00 2.12309495e-12 0.00000000e+00 1.37356949e-14
2.50000000e+01 2.09188999e-12 1.24440213e-14 0.00000000e+00 2.07944597e-12 0.00000000e+00 1.24440213e-14
2.75422870e+01 1.94993842e-12 9.30637977e-15 0.00000000e+00 1.94063204e-12 0.00000000e+00 9.30637977e-15
3.16227766e+01 1.70743352e-12 6.14866414e-15 0.00000000e+00 1.70128486e-12 0.00000000e+00 6.14866414e-15
3.63078055e+01 1.41060370e-12 4.06238211e-15 0.00000000e+00 1.40654131e-12 0.00000000e+00 4.06238211e-15
4.16869383e+01 1.08223241e-12 2.68398924e-15 0.00000000e+00 1.07954842e-12 0.00000000e+00 2.68398924e-15
4.78630092e+01 7.72347947e-13 1.77329411e-15 0.00000000e+00 7.70574653e-13 0.00000000e+00 1.77329411e-15
5.49540874e+01 5.16546363e-13 1.17160380e-15 0.00000000e+00 5.15374760e-13 0.00000000e+00 1.17160380e-15
6.30957344e+01 3.28431513e-13 7.74070953e-16 0.00000000e+00 3.27657442e-13 0.00000000e+00 7.74070953e-16
7.24435960e+01 2.00220272e-13 5.11423607e-16 0.00000000e+00 1.99708849e-13 0.00000000e+00 5.11423607e-16
8.31763771e+01 1.18265225e-13 3.37894226e-16 0.00000000e+00 1.17927331e-13 0.00000000e+00 3.37894226e-16
9.54992586e+01 6.82028482e-14 2.23244502e-16 0.00000000e+00 6.79796037e-14 0.00000000e+00 2.23244502e-16
1.09647820e+02 3.86121162e-14 1.47496179e-16 0.00000000e+00 3.84646200e-14 0.00000000e+00 1.47496179e-16
1.25892541e+02 2.17798357e-14 9.74497594e-17 0.00000000e+00 2.16823859e-14 0.00000000e+00 9.74497594e-17
1.44543977e+02 1.21851109e-14 6.43844175e-17 0.00000000e+00 1.21207265e-14 0.00000000e+00 6.43844175e-17
1.65958691e+02 6.48141439e-15 4.25383628e-17 0.00000000e+00 6.43887603e-15 0.00000000e+00 4.25383628e-17
1.90546072e+02 3.44427997e-15 2.81048176e-17 0.00000000e+00 3.41617515e-15 0.00000000e+00 2.81048176e-17
2.18776162e+02 1.82445021e-15 1.85686688e-17 0.00000000e+00 1.80588154e-15 0.00000000e+00 1.85686688e-17
2.51188643e+02 9.62063222e-16 1.22681978e-17 0.00000000e+00 9.49795024e-16 0.00000000e+00 1.22681978e-17
2.88403150e+02 5.04579351e-16 8.10551794e-18 0.00000000e+00 4.96473833e-16 0.00000000e+00 8.10551794e-18
3.31131121e+02 2.63829006e-16 5.35526259e-18 0.00000000e+00 2.58473743e-16 0.00000000e+00 5.35526259e-18
3.80189396e+02 1.37442522e-16 3.53818691e-18 0.00000000e+00 1.33904335e-16 0.00000000e+00 3.53818691e-18
4.36515832e+02 7.14679342e-17 2.33765691e-18 0.00000000e+00 6.91302773e-17 0.00000000e+00 2.33765691e-18
5.01187234e+02 3.71064175e-17 1.54447460e-18 0.00000000e+00 3.55619429e-17 0.00000000e+00 1.54447460e-18
5.75439937e+02 1.92598047e-17 1.02042425e-18 0.00000000e+00 1.82393805e-17 0.00000000e+00 1.02042425e-18
6.60693448e+02 1.00050527e-17 6.74187617e-19 0.00000000e+00 9.33086504e-18 0.00000000e+00 6.74187617e-19
7.58577575e+02 5.20820687e-18 4.45431341e-19 0.00000000e+00 4.76277552e-18 0.00000000e+00 4.45431341e-19
8.70963590e+02 2.72003014e-18 2.94293569e-19 0.00000000e+00 2.42573657e-18 0.00000000e+00 2.94293569e-19
1.00000000e+03 1.23295104e-18 0.00000000e+00 0.00000000e+00 1.23295104e-18 0.00000000e+00 0.00000000e+00
