# column 1: lambda (micron)
# column 2: total flux; lambda*F_lambda (W/m2)
# column 3: direct stellar flux; lambda*F_lambda (W/m2)
# column 4: scattered stellar flux; lambda*F_lambda (W/m2)
# column 5: total dust emission flux; lambda*F_lambda (W/m2)
# column 6: dust emission scattered flux; lambda*F_lambda (W/m2)
# column 7: transparent flux; lambda*F_lambda (W/m2)
1.00000000e-03 8.46529488e-13 8.46529401e-13 8.71124779e-20 0.00000000e+00 0.00000000e+00 8.46529401e-13
1.14815362e-03 9.99176264e-13 9.99176121e-13 1.43697181e-19 0.00000000e+00 0.00000000e+00 9.99176121e-13
1.31825674e-03 1.17934844e-12 1.17934819e-12 2.43192083e-19 0.00000000e+00 0.00000000e+00 1.17934819e-12
1.51356125e-03 1.39200937e-12 1.39200901e-12 3.62311299e-19 0.00000000e+00 0.00000000e+00 1.39200901e-12
1.73780083e-03 1.64301763e-12 1.64301696e-12 6.73749511e-19 0.00000000e+00 0.00000000e+00 1.64301696e-12
1.99526231e-03 1.93928804e-12 1.93928682e-12 1.22195547e-18 0.00000000e+00 0.00000000e+00 1.93928682e-12
2.29086765e-03 2.28898223e-12 2.28898025e-12 1.97200914e-18 0.00000000e+00 0.00000000e+00 2.28898025e-12
2.63026799e-03 2.70173441e-12 2.70173063e-12 3.78464413e-18 0.00000000e+00 0.00000000e+00 2.70173063e-12
3.01995172e-03 3.18891493e-12 3.18890841e-12 6.52089056e-18 0.00000000e+00 0.00000000e+00 3.18890841e-12
3.46736850e-03 3.76394555e-12 3.76393440e-12 1.11476901e-17 0.00000000e+00 0.00000000e+00 3.76393440e-12
3.98107171e-03 4.44266802e-12 4.44264945e-12 1.85732030e-17 0.00000000e+00 0.00000000e+00 4.44264945e-12
4.57088190e-03 5.24378995e-12 5.24375082e-12 3.91244827e-17 0.00000000e+00 0.00000000e+00 5.24375082e-12
5.24807460e-03 6.18937911e-12 6.18930730e-12 7.18045693e-17 0.00000000e+00 0.00000000e+00 6.18930730e-12
6.02559586e-03 7.30550117e-12 7.30536713e-12 1.34044133e-16 0.00000000e+00 0.00000000e+00 7.30536713e-12
6.91830971e-03 8.62289398e-12 8.62267558e-12 2.18406256e-16 0.00000000e+00 0.00000000e+00 8.62267558e-12
7.94328235e-03 1.01780709e-11 1.01775219e-11 5.48979759e-16 8.29802619e-304 2.11584909e-306 1.01775219e-11
9.12010839e-03 1.20133305e-11 1.20127391e-11 5.91403965e-16 4.30257502e-265 2.48010253e-267 1.20127391e-11
1.04712855e-02 1.34173962e-11 1.34165878e-11 8.08347361e-16 2.09362293e-231 6.91590016e-234 1.34165878e-11
1.20226443e-02 1.34177740e-11 1.34165878e-11 1.18611641e-15 3.71713385e-202 1.55312656e-204 1.34165878e-11
1.38038426e-02 1.34183470e-11 1.34165878e-11 1.75916286e-15 1.13000132e-176 6.32313854e-179 1.34165878e-11
1.58489319e-02 1.34194597e-11 1.34165878e-11 2.87187191e-15 1.67904930e-154 9.51179047e-157 1.34165878e-11
1.81970086e-02 1.34203205e-11 1.34165878e-11 3.73269387e-15 3.25571321e-135 2.45914277e-137 1.34165878e-11
2.08929613e-02 1.34243340e-11 1.34165878e-11 7.74619863e-15 1.82637201e-118 1.53869354e-120 1.34165878e-11
2.39883292e-02 1.34238935e-11 1.34165878e-11 7.30568138e-15 6.82602307e-104 7.40568350e-106 1.34165878e-11
2.75422870e-02 1.34259172e-11 1.34165878e-11 9.32937422e-15 3.22894273e-91 4.46979763e-93 1.34165878e-11
3.16227766e-02 1.34281365e-11 1.34165878e-11 1.15486329e-14 3.30108946e-80 5.35031775e-82 1.34165878e-11
3.63078055e-02 1.34302981e-11 1.34165878e-11 1.37102215e-14 1.19299599e-70 2.16787585e-72 1.34165878e-11
4.16869383e-02 1.34358541e-11 1.34165878e-11 1.92662971e-14 2.35602126e-62 5.85819780e-64 1.34165878e-11
4.78630092e-02 1.34447598e-11 1.34165878e-11 2.81719730e-14 3.68280436e-55 1.23602543e-56 1.34165878e-11
5.49540874e-02 1.34533727e-11 1.34165878e-11 3.67848912e-14 6.31162631e-49 2.69728339e-50 1.34165878e-11
6.30957344e-02 1.34655282e-11 1.34165878e-11 4.89403255e-14 2.09627479e-43 1.11687827e-44 1.34165878e-11
7.24435960e-02 1.34698341e-11 1.34165878e-11 5.32462222e-14 1.24056766e-38 6.73570723e-40 1.34165878e-11
8.31763771e-02 1.34668232e-11 1.34165878e-11 5.02353162e-14 1.29409968e-34 7.01945258e-36 1.34165878e-11
9.54992586e-02 1.34678255e-11 1.34165878e-11 5.12376492e-14 3.70608584e-31 2.08219351e-32 1.34165878e-11
1.09647820e-01 1.28636621e-11 1.28127470e-11 5.09151718e-14 3.18754618e-28 1.87841760e-29 1.28127470e-11
1.25892541e-01 1.19993098e-11 1.19575512e-11 4.17585609e-14 1.04194547e-25 5.67988731e-27 1.19575512e-11
1.44543977e-01 1.11948705e-11 1.11594361e-11 3.54344083e-14 1.43111742e-23 7.31840308e-25 1.11594361e-11
1.65958691e-01 1.04500072e-11 1.04145917e-11 3.54154890e-14 7.32203810e-22 4.19367591e-23 1.04145917e-11
1.90546072e-01 9.76246434e-12 9.71946251e-12 4.30018049e-14 1.55997302e-20 1.11121054e-21 9.71946251e-12
2.18776162e-01 9.11507254e-12 9.07073019e-12 4.43421593e-14 1.87094571e-19 1.50499044e-20 9.07073019e-12
2.51188643e-01 8.51369710e-12 8.46529796e-12 4.83968483e-14 2.28983861e-18 2.24457252e-19 8.46529796e-12
2.88403150e-01 7.94291148e-12 7.90027573e-12 4.26166534e-14 1.90923163e-17 1.78767930e-18 7.90027573e-12
3.31131121e-01 7.41078325e-12 7.37296631e-12 3.77074360e-14 1.09507072e-16 9.65705636e-18 7.37296631e-12
3.80189396e-01 6.91374587e-12 6.88085251e-12 3.24360888e-14 4.57265413e-16 3.87340984e-17 6.88085251e-12
4.36515832e-01 6.45238475e-12 6.42158520e-12 2.93484941e-14 1.45105623e-15 1.21550891e-16 6.42158520e-12
5.01187234e-01 6.02328418e-12 5.99297201e-12 2.66788117e-14 3.63336127e-15 3.04902352e-16 5.99297201e-12
5.75439937e-01 5.62640054e-12 5.59296690e-12 2.59578764e-14 7.47576233e-15 6.18475823e-16 5.59296690e-12
6.60693448e-01 5.25649695e-12 5.21966041e-12 2.37007464e-14 1.31357868e-14 1.09427273e-15 5.21966041e-12
7.58577575e-01 4.91268207e-12 4.87127053e-12 2.08934545e-14 2.05180875e-14 1.69400786e-15 4.87127053e-12
8.70963590e-01 4.59409832e-12 4.54613417e-12 1.85964250e-14 2.93677226e-14 2.41924540e-15 4.54613417e-12
1.00000000e+00 4.29777979e-12 4.24269927e-12 1.57301862e-14 3.93503317e-14 3.11906543e-15 4.24269927e-12
1.14815362e+00 4.02497370e-12 3.95951734e-12 1.32086464e-14 5.22477123e-14 3.90906189e-15 3.95951734e-12
1.31825674e+00 3.77693191e-12 3.69523659e-12 1.06403925e-14 7.10549290e-14 4.99477750e-15 3.69523659e-12
1.51356125e+00 3.55625761e-12 3.44859544e-12 8.18712928e-15 9.94750425e-14 6.37660272e-15 3.44859544e-12
1.73780083e+00 3.36448242e-12 3.21841652e-12 6.49302328e-15 1.39572878e-13 7.68256261e-15 3.21841652e-12
1.99526231e+00 3.19828983e-12 3.00360106e-12 4.49180891e-15 1.90196955e-13 8.88115145e-15 3.00360106e-12
2.29086765e+00 3.05226300e-12 2.80312361e-12 3.21716624e-15 2.45922229e-13 9.16954057e-15 2.80312361e-12
2.63026799e+00 2.91613504e-12 2.61602716e-12 2.32226321e-15 2.97785618e-13 8.47459069e-15 2.61602716e-12
3.01995172e+00 2.78088968e-12 2.44141860e-12 1.50294137e-15 3.37968138e-13 7.11222834e-15 2.44141860e-12
3.46736850e+00 2.64075231e-12 2.27846441e-12 9.62820340e-16 3.61325075e-13 5.45732811e-15 2.27846441e-12
3.98107171e+00 2.49029170e-12 2.12638671e-12 6.36965505e-16 3.63268030e-13 3.83326454e-15 2.12638671e-12
4.57088190e+00 2.33182496e-12 1.98445954e-12 3.72867651e-16 3.46992555e-13 2.43010313e-15 1.98445954e-12
5.24807460e+00 1.95980997e-12 1.64084388e-12 1.92697040e-16 3.18773391e-13 1.46633605e-15 1.64084388e-12
6.02559586e+00 1.37020888e-12 1.08409480e-12 8.02018809e-17 2.86033881e-13 8.15932522e-16 1.08409480e-12
6.70000000e+00 1.04763518e-12 7.88574724e-13 3.90196602e-17 2.59021435e-13 4.99264815e-16 7.88574724e-13
6.92422916e+00 9.64819331e-13 7.14418944e-13 3.00643644e-17 2.50370322e-13 4.22791025e-16 7.14418944e-13
7.15596261e+00 8.92065644e-13 6.47236606e-13 2.56289434e-17 2.44803409e-13 3.58145937e-16 6.47236606e-13
7.39545150e+00 8.32338162e-13 5.86371942e-13 1.80756436e-17 2.45948144e-13 3.00164792e-16 5.86371942e-13
7.64295536e+00 7.98337312e-13 5.31230854e-13 1.35389678e-17 2.67092919e-13 2.61330548e-16 5.31230854e-13
7.89874245e+00 8.00565593e-13 4.81275108e-13 9.49575201e-18 3.19280989e-13 2.28838736e-16 4.81275108e-13
8.16308998e+00 8.33140604e-13 4.36017088e-13 5.85853981e-18 3.97117657e-13 1.99041924e-16 4.36017088e-13
8.43628443e+00 9.01875788e-13 3.95015029e-13 3.79994460e-18 5.06856959e-13 1.66541450e-16 3.95015029e-13
8.71862190e+00 9.43074764e-13 3.57868711e-13 2.40950429e-18 5.85203643e-13 1.34530041e-16 3.57868711e-13
9.01040836e+00 9.92182728e-13 3.24215549e-13 1.49091264e-18 6.67965689e-13 9.83591923e-17 3.24215549e-13
9.31196005e+00 1.02914055e-12 2.93727053e-13 0.00000000e+00 7.35413499e-13 0.00000000e+00 2.93727053e-13
9.62360379e+00 9.96867459e-13 2.66105627e-13 0.00000000e+00 7.30761833e-13 0.00000000e+00 2.66105627e-13
9.94567731e+00 9.15316774e-13 2.41081657e-13 0.00000000e+00 6.74235117e-13 0.00000000e+00 2.41081657e-13
1.02785297e+01 8.23939551e-13 2.18410884e-13 0.00000000e+00 6.05528667e-13 0.00000000e+00 2.18410884e-13
1.06225216e+01 7.36870058e-13 1.97872020e-13 0.00000000e+00 5.38998038e-13 0.00000000e+00 1.97872020e-13
1.09780260e+01 6.46007720e-13 1.79264583e-13 0.00000000e+00 4.66743136e-13 0.00000000e+00 1.79264583e-13
1.13454280e+01 5.67374866e-13 1.62406948e-13 0.00000000e+00 4.04967918e-13 0.00000000e+00 1.62406948e-13
1.17251259e+01 5.00543863e-13 1.47134567e-13 0.00000000e+00 3.53409296e-13 0.00000000e+00 1.47134567e-13
1.21175312e+01 4.41149897e-13 1.33298366e-13 0.00000000e+00 3.07851532e-13 0.00000000e+00 1.33298366e-13
1.25230691e+01 3.88775701e-13 1.20763289e-13 0.00000000e+00 2.68012411e-13 0.00000000e+00 1.20763289e-13
1.29421791e+01 3.44386038e-13 1.09406983e-13 0.00000000e+00 2.34979055e-13 0.00000000e+00 1.09406983e-13
1.33753155e+01 3.06459446e-13 9.91185987e-14 0.00000000e+00 2.07340847e-13 0.00000000e+00 9.91185987e-14
1.38229477e+01 2.79660815e-13 8.97977103e-14 0.00000000e+00 1.89863104e-13 0.00000000e+00 8.97977103e-14
1.42855609e+01 2.60972572e-13 8.13533371e-14 0.00000000e+00 1.79619235e-13 0.00000000e+00 8.13533371e-14
1.47636563e+01 2.55338201e-13 7.37030537e-14 0.00000000e+00 1.81635148e-13 0.00000000e+00 7.37030537e-14
1.52577522e+01 2.53381627e-13 6.67721855e-14 0.00000000e+00 1.86609442e-13 0.00000000e+00 6.67721855e-14
1.57683840e+01 2.53989140e-13 6.04930805e-14 0.00000000e+00 1.93496060e-13 0.00000000e+00 6.04930805e-14
1.62961051e+01 2.55536179e-13 5.48044484e-14 0.00000000e+00 2.00731730e-13 0.00000000e+00 5.48044484e-14
1.68414875e+01 2.57593963e-13 4.96507622e-14 0.00000000e+00 2.07943201e-13 0.00000000e+00 4.96507622e-14
1.74051222e+01 2.56275140e-13 4.49817171e-14 0.00000000e+00 2.11293422e-13 0.00000000e+00 4.49817171e-14
1.79876201e+01 2.52926134e-13 4.07517384e-14 0.00000000e+00 2.12174395e-13 0.00000000e+00 4.07517384e-14
1.85896125e+01 2.45374264e-13 3.69195372e-14 0.00000000e+00 2.08454727e-13 0.00000000e+00 3.69195372e-14
1.92117518e+01 2.33742929e-13 3.34477076e-14 0.00000000e+00 2.00295222e-13 0.00000000e+00 3.34477076e-14
1.98547123e+01 2.20300501e-13 3.03023610e-14 0.00000000e+00 1.89998140e-13 0.00000000e+00 3.03023610e-14
2.05191907e+01 2.06624010e-13 2.74527957e-14 0.00000000e+00 1.79171214e-13 0.00000000e+00 2.74527957e-14
2.12059073e+01 1.94136358e-13 2.48711970e-14 0.00000000e+00 1.69265162e-13 0.00000000e+00 2.48711970e-14
2.19156062e+01 1.83229809e-13 2.25323660e-14 0.00000000e+00 1.60697443e-13 0.00000000e+00 2.25323660e-14
2.26490567e+01 1.73162685e-13 2.04134733e-14 0.00000000e+00 1.52749212e-13 0.00000000e+00 2.04134733e-14
2.34070535e+01 1.64141583e-13 1.84938366e-14 0.00000000e+00 1.45647747e-13 0.00000000e+00 1.84938366e-14
2.41904183e+01 1.55885105e-13 1.67547181e-14 0.00000000e+00 1.39130387e-13 0.00000000e+00 1.67547181e-14
2.50000000e+01 1.48489941e-13 1.51791424e-14 0.00000000e+00 1.33310798e-13 0.00000000e+00 1.51791424e-14
2.75422870e+01 1.28743388e-13 1.13518661e-14 0.00000000e+00 1.17391522e-13 0.00000000e+00 1.13518661e-14
3.16227766e+01 1.05250977e-13 7.50010357e-15 0.00000000e+00 9.77508736e-14 0.00000000e+00 7.50010357e-15
3.63078055e+01 8.36479732e-14 4.95526929e-15 0.00000000e+00 7.86927039e-14 0.00000000e+00 4.95526929e-15
4.16869383e+01 6.32123380e-14 3.27391395e-15 0.00000000e+00 5.99384241e-14 0.00000000e+00 3.27391395e-15
4.78630092e+01 4.52038145e-14 2.16305350e-15 0.00000000e+00 4.30407610e-14 0.00000000e+00 2.16305350e-15
5.49540874e+01 3.07966658e-14 1.42911527e-15 0.00000000e+00 2.93675505e-14 0.00000000e+00 1.42911527e-15
6.30957344e+01 2.01351406e-14 9.44207098e-16 0.00000000e+00 1.91909335e-14 0.00000000e+00 9.44207098e-16
7.24435960e+01 1.27079919e-14 6.23831443e-16 0.00000000e+00 1.20841605e-14 0.00000000e+00 6.23831443e-16
8.31763771e+01 7.79763949e-15 4.12161347e-16 0.00000000e+00 7.38547814e-15 0.00000000e+00 4.12161347e-16
9.54992586e+01 4.67771495e-15 2.72312302e-16 0.00000000e+00 4.40540265e-15 0.00000000e+00 2.72312302e-16
1.09647820e+02 2.75448701e-15 1.79914953e-16 0.00000000e+00 2.57457205e-15 0.00000000e+00 1.79914953e-16
1.25892541e+02 1.61440458e-15 1.18868631e-16 0.00000000e+00 1.49553595e-15 0.00000000e+00 1.18868631e-16
1.44543977e+02 9.37254830e-16 7.85357256e-17 0.00000000e+00 8.58719104e-16 0.00000000e+00 7.85357256e-17
1.65958691e+02 5.19156094e-16 5.18880394e-17 0.00000000e+00 4.67268055e-16 0.00000000e+00 5.18880394e-17
1.90546072e+02 2.87497811e-16 3.42820876e-17 0.00000000e+00 2.53215723e-16 0.00000000e+00 3.42820876e-17
2.18776162e+02 1.59024113e-16 2.26499507e-17 0.00000000e+00 1.36374163e-16 0.00000000e+00 2.26499507e-17
2.51188643e+02 8.78645161e-17 1.49646740e-17 0.00000000e+00 7.28998421e-17 0.00000000e+00 1.49646740e-17
2.88403150e+02 4.85345362e-17 9.88706207e-18 0.00000000e+00 3.86474741e-17 0.00000000e+00 9.88706207e-18
3.31131121e+02 2.69014661e-17 6.53231713e-18 0.00000000e+00 2.03691489e-17 0.00000000e+00 6.53231713e-18
3.80189396e+02 1.49810190e-17 4.31585913e-18 0.00000000e+00 1.06651599e-17 0.00000000e+00 4.31585913e-18
4.36515832e+02 8.40848159e-18 2.85145985e-18 0.00000000e+00 5.55702174e-18 0.00000000e+00 2.85145985e-18
5.01187234e+02 4.76549922e-18 1.88394084e-18 0.00000000e+00 2.88155838e-18 0.00000000e+00 1.88394084e-18
5.75439937e+02 2.73290456e-18 1.24470737e-18 0.00000000e+00 1.48819719e-18 0.00000000e+00 1.24470737e-18
6.60693448e+02 1.58827362e-18 8.22370004e-19 0.00000000e+00 7.65903615e-19 0.00000000e+00 8.22370004e-19
7.58577575e+02 9.36311782e-19 5.43334473e-19 0.00000000e+00 3.92977309e-19 0.00000000e+00 5.43334473e-19
8.70963590e+02 5.60028386e-19 3.58977527e-19 0.00000000e+00 2.01050859e-19 0.00000000e+00 3.58977527e-19
1.00000000e+03 1.02589822e-19 0.00000000e+00 0.00000000e+00 1.02589822e-19 0.00000000e+00 0.00000000e+00
