# column 1: lambda (micron)
# column 2: total flux; lambda*F_lambda (W/m2)
# column 3: direct stellar flux; lambda*F_lambda (W/m2)
# column 4: scattered stellar flux; lambda*F_lambda (W/m2)
# column 5: total dust emission flux; lambda*F_lambda (W/m2)
# column 6: dust emission scattered flux; lambda*F_lambda (W/m2)
# column 7: transparent flux; lambda*F_lambda (W/m2)
1.00000000e-03 1.04634557e-12 1.04634360e-12 1.96950788e-18 0.00000000e+00 0.00000000e+00 1.04634360e-12
1.14815362e-03 1.23502403e-12 1.23502095e-12 3.08632733e-18 0.00000000e+00 0.00000000e+00 1.23502095e-12
1.31825674e-03 1.45772544e-12 1.45772071e-12 4.72913957e-18 0.00000000e+00 0.00000000e+00 1.45772071e-12
1.51356125e-03 1.72058492e-12 1.72057784e-12 7.08002292e-18 0.00000000e+00 0.00000000e+00 1.72057784e-12
1.73780083e-03 2.03084632e-12 2.03083353e-12 1.27974630e-17 0.00000000e+00 0.00000000e+00 2.03083353e-12
1.99526231e-03 2.39705705e-12 2.39703472e-12 2.23318374e-17 0.00000000e+00 0.00000000e+00 2.39703472e-12
2.29086765e-03 2.82930412e-12 2.82926954e-12 3.45830969e-17 0.00000000e+00 0.00000000e+00 2.82926954e-12
2.63026799e-03 3.33951485e-12 3.33944522e-12 6.96222354e-17 0.00000000e+00 0.00000000e+00 3.33944522e-12
3.01995172e-03 3.94178973e-12 3.94161611e-12 1.73617329e-16 0.00000000e+00 0.00000000e+00 3.94161611e-12
3.46736850e-03 4.65256218e-12 4.65237083e-12 1.91344538e-16 0.00000000e+00 0.00000000e+00 4.65237083e-12
3.98107171e-03 5.49160196e-12 5.49128930e-12 3.12666382e-16 0.00000000e+00 0.00000000e+00 5.49128930e-12
4.57088190e-03 6.48216892e-12 6.48148207e-12 6.86847511e-16 0.00000000e+00 0.00000000e+00 6.48148207e-12
5.24807460e-03 7.65145458e-12 7.65022704e-12 1.22753996e-15 0.00000000e+00 0.00000000e+00 7.65022704e-12
6.02559586e-03 9.03192581e-12 9.02972084e-12 2.20496747e-15 0.00000000e+00 0.00000000e+00 9.02972084e-12
6.91830971e-03 1.06615377e-11 1.06579658e-11 3.57182854e-15 0.00000000e+00 0.00000000e+00 1.06579658e-11
7.94328235e-03 1.25859825e-11 1.25798170e-11 6.16551607e-15 1.85202915e-304 7.09355355e-307 1.25798170e-11
9.12010839e-03 1.48580240e-11 1.48482176e-11 9.80635781e-15 7.71166800e-266 1.26449363e-268 1.48482176e-11
1.04712855e-02 1.66035492e-11 1.65834298e-11 2.01193874e-14 3.12329946e-232 6.45630591e-235 1.65834298e-11
1.20226443e-02 1.66037681e-11 1.65834298e-11 2.03383021e-14 4.71566121e-203 1.52025232e-205 1.65834298e-11
1.38038426e-02 1.66148479e-11 1.65834298e-11 3.14181635e-14 1.24648600e-177 7.58356982e-180 1.65834298e-11
1.58489319e-02 1.66308899e-11 1.65834298e-11 4.74600914e-14 1.64087812e-155 1.30326026e-157 1.65834298e-11
1.81970086e-02 1.66433285e-11 1.65834298e-11 5.98987216e-14 2.85450660e-136 2.39366129e-138 1.65834298e-11
2.08929613e-02 1.66685117e-11 1.65834298e-11 8.50819101e-14 1.46400443e-119 1.87401913e-121 1.65834298e-11
2.39883292e-02 1.66997355e-11 1.65834298e-11 1.16305720e-13 5.05760127e-105 8.88052155e-107 1.65834298e-11
2.75422870e-02 1.67370217e-11 1.65834298e-11 1.53591903e-13 2.23434886e-92 5.05406593e-94 1.65834298e-11
3.16227766e-02 1.67737209e-11 1.65834298e-11 1.90291131e-13 2.15560618e-81 6.08686116e-83 1.65834298e-11
3.63078055e-02 1.68074103e-11 1.65834298e-11 2.23980466e-13 7.40513011e-72 2.43682659e-73 1.65834298e-11
4.16869383e-02 1.68842767e-11 1.65834298e-11 3.00846965e-13 1.40481114e-63 6.39052553e-65 1.65834298e-11
4.78630092e-02 1.70006440e-11 1.65834298e-11 4.17214260e-13 2.12625612e-56 1.30307472e-57 1.65834298e-11
5.49540874e-02 1.70863201e-11 1.65834298e-11 5.02890331e-13 3.54475007e-50 2.70482687e-51 1.65834298e-11
6.30957344e-02 1.71607026e-11 1.65834298e-11 5.77272765e-13 1.15257045e-44 1.06443699e-45 1.65834298e-11
7.24435960e-02 1.71399365e-11 1.65834298e-11 5.56506729e-13 6.64842370e-40 6.04970074e-41 1.65834298e-11
8.31763771e-02 1.71266879e-11 1.65834298e-11 5.43258082e-13 6.75816448e-36 6.02946888e-37 1.65834298e-11
9.54992586e-02 1.71417256e-11 1.65834298e-11 5.58295784e-13 1.89845821e-32 1.76670251e-33 1.65834298e-11
1.09647820e-01 1.64183536e-11 1.58370587e-11 5.81294881e-13 1.60274424e-29 1.56409574e-30 1.58370587e-11
1.25892541e-01 1.52969124e-11 1.47800032e-11 5.16909250e-13 5.13331929e-27 4.68752917e-28 1.47800032e-11
1.44543977e-01 1.42606835e-11 1.37935015e-11 4.67181945e-13 6.93959064e-25 6.09294116e-26 1.37935015e-11
1.65958691e-01 1.33444992e-11 1.28728446e-11 4.71654606e-13 3.51308464e-23 3.36920648e-24 1.28728446e-11
1.90546072e-01 1.25235200e-11 1.20136376e-11 5.09882416e-13 7.44666950e-22 8.44288663e-23 1.20136376e-11
2.18776162e-01 1.17047065e-11 1.12117790e-11 4.92927549e-13 8.86933158e-21 1.08623012e-21 1.12117790e-11
2.51188643e-01 1.10064994e-11 1.04634409e-11 5.43058376e-13 1.08198461e-19 1.56922024e-20 1.04634409e-11
2.88403150e-01 1.02510158e-11 9.76505125e-12 4.85963637e-13 8.94379479e-19 1.25527581e-19 9.76505125e-12
3.31131121e-01 9.55350306e-12 9.11327608e-12 4.40221890e-13 5.09560761e-18 6.85355615e-19 9.11327608e-12
3.80189396e-01 8.90376214e-12 8.50500410e-12 3.98736714e-13 2.13331804e-17 2.82456803e-18 8.50500410e-12
4.36515832e-01 8.29745980e-12 7.93733165e-12 3.60057503e-13 7.06501478e-17 9.80158983e-18 7.93733165e-12
5.01187234e-01 7.73717982e-12 7.40754890e-12 3.29418665e-13 2.12255590e-16 3.52720317e-17 7.40754890e-12
5.75439937e-01 7.20907606e-12 6.91312687e-12 2.95244926e-13 7.04265344e-16 1.49513834e-16 6.91312687e-12
6.60693448e-01 6.72185183e-12 6.45170538e-12 2.67449177e-13 2.69727270e-15 6.72089681e-16 6.45170538e-12
7.58577575e-01 6.27069045e-12 6.02108180e-12 2.39451222e-13 1.01574324e-14 2.62759562e-15 6.02108180e-12
8.70963590e-01 5.85960114e-12 5.61920048e-12 2.06551517e-13 3.38491419e-14 8.55228429e-15 5.61920048e-12
1.00000000e+00 5.51620265e-12 5.24414302e-12 1.76709622e-13 9.53500168e-14 2.24794076e-14 5.24414302e-12
1.14815362e+00 5.27296427e-12 4.89411902e-12 1.43998894e-13 2.34846356e-13 5.04639718e-14 4.89411902e-12
1.31825674e+00 5.20180403e-12 4.56745763e-12 1.15853449e-13 5.18492955e-13 9.80109848e-14 4.56745763e-12
1.51356125e+00 5.37081840e-12 4.26259947e-12 9.11845182e-14 1.01703440e-12 1.65551692e-13 4.26259947e-12
1.73780083e+00 5.81349492e-12 3.97808929e-12 6.86521881e-14 1.76675344e-12 2.41667499e-13 3.97808929e-12
1.99526231e+00 6.51802302e-12 3.71256894e-12 5.23059555e-14 2.75314812e-12 3.06909360e-13 3.71256894e-12
2.29086765e+00 7.40483360e-12 3.46477093e-12 3.85244590e-14 3.90153821e-12 3.39673937e-13 3.46477093e-12
2.63026799e+00 8.33880036e-12 3.23351237e-12 2.75255962e-14 5.07776240e-12 3.35519249e-13 3.23351237e-12
3.01995172e+00 9.20579876e-12 3.01768933e-12 1.92296788e-14 6.16887975e-12 3.02366942e-13 3.01768933e-12
3.46736850e+00 9.87616782e-12 2.81627154e-12 1.28776382e-14 7.04701864e-12 2.51723984e-13 2.81627154e-12
3.98107171e+00 1.02919294e-11 2.62829753e-12 8.49874127e-15 7.65513313e-12 1.91833830e-13 2.62829753e-12
4.57088190e+00 1.04399784e-11 2.45286997e-12 5.40741579e-15 7.98170105e-12 1.36111924e-13 2.45286997e-12
5.24807460e+00 1.00817751e-11 2.02814751e-12 2.94029296e-15 8.05068733e-12 9.04281084e-14 2.02814751e-12
6.02559586e+00 9.27389920e-12 1.33998377e-12 1.22623463e-15 7.93268920e-12 5.65437359e-14 1.33998377e-12
6.70000000e+00 8.70045015e-12 9.74709347e-13 6.11417767e-16 7.72512939e-12 3.75478523e-14 9.74709347e-13
6.92422916e+00 8.52380673e-12 8.83049889e-13 4.83600341e-16 7.64027324e-12 3.26727792e-14 8.83049889e-13
7.15596261e+00 8.40329765e-12 8.00009879e-13 3.80571428e-16 7.60290720e-12 2.83781168e-14 8.00009879e-13
7.39545150e+00 8.37812244e-12 7.24778763e-13 2.89608563e-16 7.65305407e-12 2.42379397e-14 7.24778763e-13
7.64295536e+00 8.68492474e-12 6.56622211e-13 2.09380503e-16 8.02809315e-12 2.04596729e-14 6.56622211e-13
7.89874245e+00 9.47296372e-12 5.94874946e-13 1.32146304e-16 8.87795663e-12 1.67042199e-14 5.94874946e-13
8.16308998e+00 1.05762826e-11 5.38934254e-13 8.02848810e-17 1.00372680e-11 1.34851943e-14 5.38934254e-13
8.43628443e+00 1.19872835e-11 4.88254098e-13 4.45597820e-17 1.14989848e-11 1.02652322e-14 4.88254098e-13
8.71862190e+00 1.29609766e-11 4.42339790e-13 2.67570995e-17 1.25186100e-11 7.96113019e-15 4.42339790e-13
9.01040836e+00 1.37962584e-11 4.00743158e-13 1.42731279e-17 1.33955010e-11 5.69778664e-15 4.00743158e-13
9.31196005e+00 1.44517132e-11 3.63058180e-13 0.00000000e+00 1.40886550e-11 0.00000000e+00 3.63058180e-13
9.62360379e+00 1.44515015e-11 3.28917012e-13 0.00000000e+00 1.41225844e-11 0.00000000e+00 3.28917012e-13
9.94567731e+00 1.38779110e-11 2.97986401e-13 0.00000000e+00 1.35799246e-11 0.00000000e+00 2.97986401e-13
1.02785297e+01 1.30980805e-11 2.69964435e-13 0.00000000e+00 1.28281160e-11 0.00000000e+00 2.69964435e-13
1.06225216e+01 1.23813780e-11 2.44577592e-13 0.00000000e+00 1.21368004e-11 0.00000000e+00 2.44577592e-13
1.09780260e+01 1.14893070e-11 2.21578069e-13 0.00000000e+00 1.12677289e-11 0.00000000e+00 2.21578069e-13
1.13454280e+01 1.06956240e-11 2.00741370e-13 0.00000000e+00 1.04948826e-11 0.00000000e+00 2.00741370e-13
1.17251259e+01 1.00441503e-11 1.81864106e-13 0.00000000e+00 9.86228619e-12 0.00000000e+00 1.81864106e-13
1.21175312e+01 9.33856979e-12 1.64762018e-13 0.00000000e+00 9.17380777e-12 0.00000000e+00 1.64762018e-13
1.25230691e+01 8.68122148e-12 1.49268171e-13 0.00000000e+00 8.53195331e-12 0.00000000e+00 1.49268171e-13
1.29421791e+01 8.10877727e-12 1.35231331e-13 0.00000000e+00 7.97354594e-12 0.00000000e+00 1.35231331e-13
1.33753155e+01 7.57958300e-12 1.22514483e-13 0.00000000e+00 7.45706852e-12 0.00000000e+00 1.22514483e-13
1.38229477e+01 7.20668001e-12 1.10993499e-13 0.00000000e+00 7.09568651e-12 0.00000000e+00 1.10993499e-13
1.42855609e+01 6.95380736e-12 1.00555922e-13 0.00000000e+00 6.85325144e-12 0.00000000e+00 1.00555922e-13
1.47636563e+01 6.98547903e-12 9.10998706e-14 0.00000000e+00 6.89437916e-12 0.00000000e+00 9.10998706e-14
1.52577522e+01 7.07813650e-12 8.25330452e-14 0.00000000e+00 6.99560346e-12 0.00000000e+00 8.25330452e-14
1.57683840e+01 7.19886122e-12 7.47718247e-14 0.00000000e+00 7.12408940e-12 0.00000000e+00 7.47718247e-14
1.62961051e+01 7.32204480e-12 6.77404517e-14 0.00000000e+00 7.25430435e-12 0.00000000e+00 6.77404517e-14
1.68414875e+01 7.38229852e-12 6.13702932e-14 0.00000000e+00 7.32092822e-12 0.00000000e+00 6.13702932e-14
1.74051222e+01 7.37439382e-12 5.55991699e-14 0.00000000e+00 7.31879465e-12 0.00000000e+00 5.55991699e-14
1.79876201e+01 7.31339028e-12 5.03707500e-14 0.00000000e+00 7.26301953e-12 0.00000000e+00 5.03707500e-14
1.85896125e+01 7.14501500e-12 4.56339988e-14 0.00000000e+00 7.09938100e-12 0.00000000e+00 4.56339988e-14
1.92117518e+01 6.90215084e-12 4.13426810e-14 0.00000000e+00 6.86080816e-12 0.00000000e+00 4.13426810e-14
1.98547123e+01 6.58457098e-12 3.74549090e-14 0.00000000e+00 6.54711607e-12 0.00000000e+00 3.74549090e-14
2.05191907e+01 6.25691748e-12 3.39327342e-14 0.00000000e+00 6.22298474e-12 0.00000000e+00 3.39327342e-14
2.12059073e+01 5.92952748e-12 3.07417768e-14 0.00000000e+00 5.89878570e-12 0.00000000e+00 3.07417768e-14
2.19156062e+01 5.61484153e-12 2.78508898e-14 0.00000000e+00 5.58699064e-12 0.00000000e+00 2.78508898e-14
2.26490567e+01 5.32836962e-12 2.52318552e-14 0.00000000e+00 5.30313776e-12 0.00000000e+00 2.52318552e-14
2.34070535e+01 5.03278071e-12 2.28591087e-14 0.00000000e+00 5.00992160e-12 0.00000000e+00 2.28591087e-14
2.41904183e+01 4.74477406e-12 2.07094900e-14 0.00000000e+00 4.72406457e-12 0.00000000e+00 2.07094900e-14
2.50000000e+01 4.47629283e-12 1.87620165e-14 0.00000000e+00 4.45753081e-12 0.00000000e+00 1.87620165e-14
2.75422870e+01 3.71979866e-12 1.40313526e-14 0.00000000e+00 3.70576731e-12 0.00000000e+00 1.40313526e-14
3.16227766e+01 2.76291587e-12 9.27042274e-15 0.00000000e+00 2.75364544e-12 0.00000000e+00 9.27042274e-15
3.63078055e+01 1.94138246e-12 6.12490756e-15 0.00000000e+00 1.93525755e-12 0.00000000e+00 6.12490756e-15
4.16869383e+01 1.28571365e-12 4.04668630e-15 0.00000000e+00 1.28166697e-12 0.00000000e+00 4.04668630e-15
4.78630092e+01 7.98992752e-13 2.67361912e-15 0.00000000e+00 7.96319133e-13 0.00000000e+00 2.67361912e-15
5.49540874e+01 4.72763081e-13 1.76644264e-15 0.00000000e+00 4.70996639e-13 0.00000000e+00 1.76644264e-15
6.30957344e+01 2.69243327e-13 1.16707708e-15 0.00000000e+00 2.68076250e-13 0.00000000e+00 1.16707708e-15
7.24435960e+01 1.48952826e-13 7.71080178e-16 0.00000000e+00 1.48181746e-13 0.00000000e+00 7.71080178e-16
8.31763771e+01 8.07648730e-14 5.09447621e-16 0.00000000e+00 8.02554254e-14 0.00000000e+00 5.09447621e-16
9.54992586e+01 4.32570770e-14 3.36588705e-16 0.00000000e+00 4.29204882e-14 0.00000000e+00 3.36588705e-16
1.09647820e+02 2.29629524e-14 2.22381952e-16 0.00000000e+00 2.27405704e-14 0.00000000e+00 2.22381952e-16
1.25892541e+02 1.22675982e-14 1.46926299e-16 0.00000000e+00 1.21206719e-14 0.00000000e+00 1.46926299e-16
1.44543977e+02 6.55321338e-15 9.70732430e-17 0.00000000e+00 6.45614013e-15 0.00000000e+00 9.70732430e-17
1.65958691e+02 3.34915136e-15 6.41356556e-17 0.00000000e+00 3.28501570e-15 0.00000000e+00 6.41356556e-17
1.90546072e+02 1.72172585e-15 4.23740075e-17 0.00000000e+00 1.67935184e-15 0.00000000e+00 4.23740075e-17
2.18776162e+02 8.88090621e-16 2.79962291e-17 0.00000000e+00 8.60094392e-16 0.00000000e+00 2.79962291e-17
2.51188643e+02 4.58712225e-16 1.84969251e-17 0.00000000e+00 4.40215300e-16 0.00000000e+00 1.84969251e-17
2.88403150e+02 2.36996641e-16 1.22207972e-17 0.00000000e+00 2.24775843e-16 0.00000000e+00 1.22207972e-17
3.31131121e+02 1.22752987e-16 8.07420067e-18 0.00000000e+00 1.14678786e-16 0.00000000e+00 8.07420067e-18
3.80189396e+02 6.37164591e-17 5.33457148e-18 0.00000000e+00 5.83818877e-17 0.00000000e+00 5.33457148e-18
4.36515832e+02 3.32151763e-17 3.52451642e-18 0.00000000e+00 2.96906598e-17 0.00000000e+00 3.52451642e-18
5.01187234e+02 1.74047125e-17 2.32862491e-18 0.00000000e+00 1.50760876e-17 0.00000000e+00 2.32862491e-18
5.75439937e+02 9.18472348e-18 1.53850722e-18 0.00000000e+00 7.64621626e-18 0.00000000e+00 1.53850722e-18
6.60693448e+02 4.89033436e-18 1.01648164e-18 0.00000000e+00 3.87385272e-18 0.00000000e+00 1.01648164e-18
7.58577575e+02 2.63240090e-18 6.71582760e-19 0.00000000e+00 1.96081814e-18 0.00000000e+00 6.71582760e-19
8.70963590e+02 1.43515579e-18 4.43710329e-19 0.00000000e+00 9.91445460e-19 0.00000000e+00 4.43710329e-19
1.00000000e+03 5.00772001e-19 0.00000000e+00 0.00000000e+00 5.00772001e-19 0.00000000e+00 0.00000000e+00
