# column 1: lambda (micron)
# column 2: total flux; lambda*F_lambda (W/m2)
# column 3: direct stellar flux; lambda*F_lambda (W/m2)
# column 4: scattered stellar flux; lambda*F_lambda (W/m2)
# column 5: total dust emission flux; lambda*F_lambda (W/m2)
# column 6: dust emission scattered flux; lambda*F_lambda (W/m2)
# column 7: transparent flux; lambda*F_lambda (W/m2)
1.00000000e-03 1.07336455e-12 1.07335627e-12 8.28414200e-18 0.00000000e+00 0.00000000e+00 1.07335627e-12
1.14815362e-03 1.26691719e-12 1.26690456e-12 1.26328984e-17 0.00000000e+00 0.00000000e+00 1.26690456e-12
1.31825674e-03 1.49537221e-12 1.49535359e-12 1.86158233e-17 0.00000000e+00 0.00000000e+00 1.49535359e-12
1.51356125e-03 1.76502593e-12 1.76499670e-12 2.92278034e-17 0.00000000e+00 0.00000000e+00 1.76499670e-12
1.73780083e-03 2.08331422e-12 2.08326203e-12 5.21912871e-17 0.00000000e+00 0.00000000e+00 2.08326203e-12
1.99526231e-03 2.45900782e-12 2.45891716e-12 9.06648336e-17 0.00000000e+00 0.00000000e+00 2.45891716e-12
2.29086765e-03 2.90245452e-12 2.90231066e-12 1.43858798e-16 0.00000000e+00 0.00000000e+00 2.90231066e-12
2.63026799e-03 3.42594876e-12 3.42565717e-12 2.91595002e-16 0.00000000e+00 0.00000000e+00 3.42565717e-12
3.01995172e-03 4.04386803e-12 4.04337385e-12 4.94179675e-16 0.00000000e+00 0.00000000e+00 4.04337385e-12
3.46736850e-03 4.77329661e-12 4.77247759e-12 8.19018505e-16 0.00000000e+00 0.00000000e+00 4.77247759e-12
3.98107171e-03 5.63440635e-12 5.63305378e-12 1.35257195e-15 0.00000000e+00 0.00000000e+00 5.63305378e-12
4.57088190e-03 6.65436191e-12 6.64880962e-12 5.55229089e-15 0.00000000e+00 0.00000000e+00 6.64880962e-12
5.24807460e-03 7.85280968e-12 7.84772720e-12 5.08248434e-15 0.00000000e+00 0.00000000e+00 7.84772720e-12
6.02559586e-03 9.27236609e-12 9.26283435e-12 9.53173240e-15 0.00000000e+00 0.00000000e+00 9.26283435e-12
6.91830971e-03 1.09597063e-11 1.09331145e-11 2.65917743e-14 0.00000000e+00 0.00000000e+00 1.09331145e-11
7.94328235e-03 1.29340450e-11 1.29045807e-11 2.94643497e-14 1.57853476e-304 4.65765209e-307 1.29045807e-11
9.12010839e-03 1.52766521e-11 1.52315429e-11 4.51092208e-14 6.86863347e-266 3.03966825e-268 1.52315429e-11
1.04712855e-02 1.70722442e-11 1.70115517e-11 6.06925279e-14 2.88324843e-232 1.58918012e-234 1.70115517e-11
1.20226443e-02 1.71123707e-11 1.70115517e-11 1.00818993e-13 4.49740616e-203 3.88295755e-205 1.70115517e-11
1.38038426e-02 1.71486844e-11 1.70115517e-11 1.37132690e-13 1.22067956e-177 1.37902414e-179 1.70115517e-11
1.58489319e-02 1.72082615e-11 1.70115517e-11 1.96709800e-13 1.65242056e-155 2.94192145e-157 1.70115517e-11
1.81970086e-02 1.72710345e-11 1.70115517e-11 2.59482820e-13 2.94726294e-136 6.74861003e-138 1.70115517e-11
2.08929613e-02 1.73747140e-11 1.70115517e-11 3.63162241e-13 1.54229793e-119 4.58004879e-121 1.70115517e-11
2.39883292e-02 1.74848692e-11 1.70115517e-11 4.73317494e-13 5.44665129e-105 2.22293865e-106 1.70115517e-11
2.75422870e-02 1.76228979e-11 1.70115517e-11 6.11346205e-13 2.45153743e-92 1.24589782e-93 1.70115517e-11
3.16227766e-02 1.77319705e-11 1.70115517e-11 7.20418753e-13 2.40275091e-81 1.44636545e-82 1.70115517e-11
3.63078055e-02 1.78050733e-11 1.70115517e-11 7.93521573e-13 8.33797249e-72 5.39436593e-73 1.70115517e-11
4.16869383e-02 1.80027419e-11 1.70115517e-11 9.91190223e-13 1.60223702e-63 1.29132457e-64 1.70115517e-11
4.78630092e-02 1.81342078e-11 1.70115517e-11 1.12265610e-12 2.43320635e-56 2.23633634e-57 1.70115517e-11
5.49540874e-02 1.81734763e-11 1.70115517e-11 1.16192458e-12 4.01651208e-50 3.67751845e-51 1.70115517e-11
6.30957344e-02 1.80787034e-11 1.70115517e-11 1.06715169e-12 1.28553567e-44 1.13144194e-45 1.70115517e-11
7.24435960e-02 1.78522334e-11 1.70115517e-11 8.40681724e-13 7.36394753e-40 5.57965072e-41 1.70115517e-11
8.31763771e-02 1.78156049e-11 1.70115517e-11 8.04053183e-13 7.51133783e-36 5.48675436e-37 1.70115517e-11
9.54992586e-02 1.78239145e-11 1.70115517e-11 8.12362787e-13 2.10992391e-32 1.54633678e-33 1.70115517e-11
1.09647820e-01 1.71522691e-11 1.62459122e-11 9.06356986e-13 1.79985204e-29 1.51583405e-30 1.62459122e-11
1.25892541e-01 1.61262227e-11 1.51615674e-11 9.64655338e-13 5.86103174e-27 5.28915056e-28 1.51615674e-11
1.44543977e-01 1.50439042e-11 1.41495980e-11 8.94306197e-13 7.96426504e-25 7.08726175e-26 1.41495980e-11
1.65958691e-01 1.40864988e-11 1.32051732e-11 8.81325616e-13 4.04401460e-23 3.95262849e-24 1.32051732e-11
1.90546072e-01 1.31872224e-11 1.23237846e-11 8.63437771e-13 8.45923945e-22 8.60153509e-23 1.23237846e-11
2.18776162e-01 1.22137603e-11 1.15012250e-11 7.12535275e-13 9.90979617e-21 9.37505838e-22 1.15012250e-11
2.51188643e-01 1.14917234e-11 1.07335677e-11 7.58155568e-13 1.20192833e-19 1.33841940e-20 1.07335677e-11
2.88403150e-01 1.07433539e-11 1.00171482e-11 7.26204632e-13 1.00339172e-18 1.14249962e-19 1.00171482e-11
3.31131121e-01 1.00358297e-11 9.34854667e-12 6.87277300e-13 5.75603095e-18 6.42922093e-19 9.34854667e-12
3.80189396e-01 9.35305162e-12 8.72457139e-12 6.28455823e-13 2.44046540e-17 2.77348090e-18 8.72457139e-12
4.36515832e-01 8.70125219e-12 8.14224377e-12 5.58924199e-13 8.42201817e-17 1.08388442e-17 8.14224377e-12
5.01187234e-01 8.09180219e-12 7.59878402e-12 4.92736648e-13 2.81525261e-16 4.85605045e-17 7.59878402e-12
5.75439937e-01 7.52177068e-12 7.09159786e-12 4.29080166e-13 1.09265194e-15 2.45814463e-16 7.09159786e-12
6.60693448e-01 6.98422440e-12 6.61826421e-12 3.61467931e-13 4.49225912e-15 1.11242329e-15 6.61826421e-12
7.58577575e-01 6.50598782e-12 6.17652353e-12 3.12355125e-13 1.71091596e-14 4.30575295e-15 6.17652353e-12
8.70963590e-01 6.07797954e-12 5.76426715e-12 2.58080305e-13 5.56320827e-14 1.33012292e-14 5.76426715e-12
1.00000000e+00 5.73833957e-12 5.37952711e-12 2.07599492e-13 1.51212966e-13 3.30641099e-14 5.37952711e-12
1.14815362e+00 5.55024289e-12 5.02046681e-12 1.66590882e-13 3.63185199e-13 7.09472112e-14 5.02046681e-12
1.31825674e+00 5.58746276e-12 4.68537225e-12 1.25917122e-13 7.76173397e-13 1.32495795e-13 4.68537225e-12
1.51356125e+00 5.95642302e-12 4.37264380e-12 9.92782530e-14 1.48450097e-12 2.19241661e-13 4.37264380e-12
1.73780083e+00 6.70206469e-12 4.08078863e-12 7.72347978e-14 2.54404126e-12 3.11283792e-13 4.08078863e-12
1.99526231e+00 7.79122034e-12 3.80841354e-12 6.00686460e-14 3.92273815e-12 3.95643389e-13 3.80841354e-12
2.29086765e+00 9.14451457e-12 3.55421832e-12 4.59584195e-14 5.54433784e-12 4.42737021e-13 3.55421832e-12
2.63026799e+00 1.05781890e-11 3.31698953e-12 3.45188639e-14 7.22668063e-12 4.53690249e-13 3.31698953e-12
3.01995172e+00 1.19475543e-11 3.09559474e-12 2.58043979e-14 8.82615520e-12 4.27708414e-13 3.09559474e-12
3.46736850e+00 1.30245291e-11 2.88897711e-12 1.90555345e-14 1.01164965e-11 3.75243850e-13 2.88897711e-12
3.98107171e+00 1.38699710e-11 2.69615031e-12 1.36358688e-14 1.11601848e-11 3.10119383e-13 2.69615031e-12
4.57088190e+00 1.43514767e-11 2.51619387e-12 9.50979976e-15 1.18257730e-11 2.39828840e-13 2.51619387e-12
5.24807460e+00 1.42631053e-11 2.08050667e-12 5.57184735e-15 1.21770268e-11 1.71728895e-13 2.08050667e-12
6.02559586e+00 1.37405476e-11 1.37457712e-12 2.49356168e-15 1.23634769e-11 1.17115310e-13 1.37457712e-12
6.70000000e+00 1.33493307e-11 9.99872685e-13 1.30477844e-15 1.23481533e-11 8.35488545e-14 9.99872685e-13
6.92422916e+00 1.32372305e-11 9.05846924e-13 1.05887384e-15 1.23303247e-11 7.43957772e-14 9.05846924e-13
7.15596261e+00 1.32252457e-11 8.20663132e-13 8.37130090e-16 1.24037455e-11 6.58635125e-14 8.20663132e-13
7.39545150e+00 1.32843355e-11 7.43489831e-13 6.39200333e-16 1.25402064e-11 5.65484426e-14 7.43489831e-13
7.64295536e+00 1.35489955e-11 6.73573732e-13 4.36979681e-16 1.28749848e-11 4.60281642e-14 6.73573732e-13
7.89874245e+00 1.43300566e-11 6.10232385e-13 2.59603521e-16 1.37195646e-11 3.46473050e-14 6.10232385e-13
8.16308998e+00 1.53173772e-11 5.52847515e-13 1.44445904e-16 1.47643852e-11 2.53689623e-14 5.52847515e-13
8.43628443e+00 1.64838089e-11 5.00858987e-13 7.43871006e-17 1.59828755e-11 1.76963317e-14 5.00858987e-13
8.71862190e+00 1.73177095e-11 4.53759343e-13 4.47689005e-17 1.68639054e-11 1.35403274e-14 4.53759343e-13
9.01040836e+00 1.83109719e-11 4.11088843e-13 2.64940632e-17 1.78998565e-11 1.02270801e-14 4.11088843e-13
9.31196005e+00 1.88202033e-11 3.72430980e-13 0.00000000e+00 1.84477723e-11 0.00000000e+00 3.72430980e-13
9.62360379e+00 1.88202807e-11 3.37408415e-13 0.00000000e+00 1.84828723e-11 0.00000000e+00 3.37408415e-13
9.94567731e+00 1.80965404e-11 3.05679292e-13 0.00000000e+00 1.77908611e-11 0.00000000e+00 3.05679292e-13
1.02785297e+01 1.76960814e-11 2.76933904e-13 0.00000000e+00 1.74191475e-11 0.00000000e+00 2.76933904e-13
1.06225216e+01 1.71208605e-11 2.50891667e-13 0.00000000e+00 1.68699688e-11 0.00000000e+00 2.50891667e-13
1.09780260e+01 1.66860257e-11 2.27298384e-13 0.00000000e+00 1.64587273e-11 0.00000000e+00 2.27298384e-13
1.13454280e+01 1.63929762e-11 2.05923759e-13 0.00000000e+00 1.61870524e-11 0.00000000e+00 2.05923759e-13
1.17251259e+01 1.60504618e-11 1.86559155e-13 0.00000000e+00 1.58639027e-11 0.00000000e+00 1.86559155e-13
1.21175312e+01 1.58666864e-11 1.69015555e-13 0.00000000e+00 1.56976708e-11 0.00000000e+00 1.69015555e-13
1.25230691e+01 1.56454193e-11 1.53121715e-13 0.00000000e+00 1.54922976e-11 0.00000000e+00 1.53121715e-13
1.29421791e+01 1.55321715e-11 1.38722496e-13 0.00000000e+00 1.53934490e-11 0.00000000e+00 1.38722496e-13
1.33753155e+01 1.54489723e-11 1.25677347e-13 0.00000000e+00 1.53232949e-11 0.00000000e+00 1.25677347e-13
1.38229477e+01 1.53023483e-11 1.13858934e-13 0.00000000e+00 1.51884894e-11 0.00000000e+00 1.13858934e-13
1.42855609e+01 1.54130436e-11 1.03151898e-13 0.00000000e+00 1.53098917e-11 0.00000000e+00 1.03151898e-13
1.47636563e+01 1.56392154e-11 9.34517274e-14 0.00000000e+00 1.55457636e-11 0.00000000e+00 9.34517274e-14
1.52577522e+01 1.60629281e-11 8.46637387e-14 0.00000000e+00 1.59782644e-11 0.00000000e+00 8.46637387e-14
1.57683840e+01 1.65289588e-11 7.67021526e-14 0.00000000e+00 1.64522566e-11 0.00000000e+00 7.67021526e-14
1.62961051e+01 1.69314203e-11 6.94892560e-14 0.00000000e+00 1.68619310e-11 0.00000000e+00 6.94892560e-14
1.68414875e+01 1.71672209e-11 6.29546439e-14 0.00000000e+00 1.71042663e-11 0.00000000e+00 6.29546439e-14
1.74051222e+01 1.75010117e-11 5.70345319e-14 0.00000000e+00 1.74439772e-11 0.00000000e+00 5.70345319e-14
1.79876201e+01 1.75973668e-11 5.16711337e-14 0.00000000e+00 1.75456956e-11 0.00000000e+00 5.16711337e-14
1.85896125e+01 1.76681493e-11 4.68120974e-14 0.00000000e+00 1.76213372e-11 0.00000000e+00 4.68120974e-14
1.92117518e+01 1.76799956e-11 4.24099939e-14 0.00000000e+00 1.76375856e-11 0.00000000e+00 4.24099939e-14
1.98547123e+01 1.74582668e-11 3.84218542e-14 0.00000000e+00 1.74198449e-11 0.00000000e+00 3.84218542e-14
2.05191907e+01 1.74118201e-11 3.48087501e-14 0.00000000e+00 1.73770114e-11 0.00000000e+00 3.48087501e-14
2.12059073e+01 1.72351571e-11 3.15354141e-14 0.00000000e+00 1.72036217e-11 0.00000000e+00 3.15354141e-14
2.19156062e+01 1.68437236e-11 2.85698952e-14 0.00000000e+00 1.68151537e-11 0.00000000e+00 2.85698952e-14
2.26490567e+01 1.65445853e-11 2.58832470e-14 0.00000000e+00 1.65187020e-11 0.00000000e+00 2.58832470e-14
2.34070535e+01 1.61428440e-11 2.34492452e-14 0.00000000e+00 1.61193947e-11 0.00000000e+00 2.34492452e-14
2.41904183e+01 1.57838032e-11 2.12441313e-14 0.00000000e+00 1.57625591e-11 0.00000000e+00 2.12441313e-14
2.50000000e+01 1.53399971e-11 1.92463813e-14 0.00000000e+00 1.53207507e-11 0.00000000e+00 1.92463813e-14
2.75422870e+01 1.38434892e-11 1.43935895e-14 0.00000000e+00 1.38290956e-11 0.00000000e+00 1.43935895e-14
3.16227766e+01 1.14697470e-11 9.50975027e-15 0.00000000e+00 1.14602373e-11 0.00000000e+00 9.50975027e-15
3.63078055e+01 8.88440078e-12 6.28302969e-15 0.00000000e+00 8.87811775e-12 0.00000000e+00 6.28302969e-15
4.16869383e+01 6.44588392e-12 4.15115655e-15 0.00000000e+00 6.44173276e-12 0.00000000e+00 4.15115655e-15
4.78630092e+01 4.35468433e-12 2.74264194e-15 0.00000000e+00 4.35194169e-12 0.00000000e+00 2.74264194e-15
5.49540874e+01 2.76995760e-12 1.81204556e-15 0.00000000e+00 2.76814556e-12 0.00000000e+00 1.81204556e-15
6.30957344e+01 1.68100462e-12 1.19720663e-15 0.00000000e+00 1.67980741e-12 0.00000000e+00 1.19720663e-15
7.24435960e+01 9.79838948e-13 7.90986575e-16 0.00000000e+00 9.79047961e-13 0.00000000e+00 7.90986575e-16
8.31763771e+01 5.54287738e-13 5.22599647e-16 0.00000000e+00 5.53765138e-13 0.00000000e+00 5.22599647e-16
9.54992586e+01 3.06927038e-13 3.45278163e-16 0.00000000e+00 3.06581760e-13 0.00000000e+00 3.45278163e-16
1.09647820e+02 1.67242919e-13 2.28123020e-16 0.00000000e+00 1.67014796e-13 0.00000000e+00 2.28123020e-16
1.25892541e+02 9.11728417e-14 1.50719385e-16 0.00000000e+00 9.10221223e-14 0.00000000e+00 1.50719385e-16
1.44543977e+02 4.94383790e-14 9.95793099e-17 0.00000000e+00 4.93387997e-14 0.00000000e+00 9.95793099e-17
1.65958691e+02 2.55974730e-14 6.57913976e-17 0.00000000e+00 2.55316817e-14 0.00000000e+00 6.57913976e-17
1.90546072e+02 1.32746580e-14 4.34679453e-17 0.00000000e+00 1.32311900e-14 0.00000000e+00 4.34679453e-17
2.18776162e+02 6.87811390e-15 2.87189867e-17 0.00000000e+00 6.84939491e-15 0.00000000e+00 2.87189867e-17
2.51188643e+02 3.55573760e-15 1.89744463e-17 0.00000000e+00 3.53676315e-15 0.00000000e+00 1.89744463e-17
2.88403150e+02 1.83171823e-15 1.25362924e-17 0.00000000e+00 1.81918193e-15 0.00000000e+00 1.25362924e-17
3.31131121e+02 9.42013309e-16 8.28264623e-18 0.00000000e+00 9.33730663e-16 0.00000000e+00 8.28264623e-18
3.80189396e+02 4.83270122e-16 5.47229010e-18 0.00000000e+00 4.77797832e-16 0.00000000e+00 5.47229010e-18
4.36515832e+02 2.47648685e-16 3.61550621e-18 0.00000000e+00 2.44033179e-16 0.00000000e+00 3.61550621e-18
5.01187234e+02 1.26748396e-16 2.38874127e-18 0.00000000e+00 1.24359655e-16 0.00000000e+00 2.38874127e-18
5.75439937e+02 6.48415423e-17 1.57822570e-18 0.00000000e+00 6.32633166e-17 0.00000000e+00 1.57822570e-18
6.60693448e+02 3.31763394e-17 1.04272338e-18 0.00000000e+00 3.21336160e-17 0.00000000e+00 1.04272338e-18
7.58577575e+02 1.69895108e-17 6.88920507e-19 0.00000000e+00 1.63005903e-17 0.00000000e+00 6.88920507e-19
8.70963590e+02 8.71235108e-18 4.55165265e-19 0.00000000e+00 8.25718582e-18 0.00000000e+00 4.55165265e-19
1.00000000e+03 4.17721081e-18 0.00000000e+00 0.00000000e+00 4.17721081e-18 0.00000000e+00 0.00000000e+00
