# column 1: lambda (micron)
# column 2: total flux; lambda*F_lambda (W/m2)
# column 3: direct stellar flux; lambda*F_lambda (W/m2)
# column 4: scattered stellar flux; lambda*F_lambda (W/m2)
# column 5: total dust emission flux; lambda*F_lambda (W/m2)
# column 6: dust emission scattered flux; lambda*F_lambda (W/m2)
# column 7: transparent flux; lambda*F_lambda (W/m2)
1.00000000e-03 9.67082562e-13 9.67080061e-13 2.50079109e-18 0.00000000e+00 0.00000000e+00 9.68073281e-13
1.14815362e-03 1.14109215e-12 1.14108831e-12 3.84177387e-18 0.00000000e+00 0.00000000e+00 1.14263687e-12
1.31825674e-03 1.34636017e-12 1.34635441e-12 5.76665417e-18 0.00000000e+00 0.00000000e+00 1.34867788e-12
1.51356125e-03 1.58864839e-12 1.58863958e-12 8.81384698e-18 0.00000000e+00 0.00000000e+00 1.59187233e-12
1.73780083e-03 1.87508061e-12 1.87506468e-12 1.59331286e-17 0.00000000e+00 0.00000000e+00 1.87891976e-12
1.99526231e-03 2.21175769e-12 2.21169695e-12 6.07383791e-17 0.00000000e+00 0.00000000e+00 2.21772777e-12
2.29086765e-03 2.61015405e-12 2.61008206e-12 7.19959296e-17 0.00000000e+00 0.00000000e+00 2.61762985e-12
2.63026799e-03 3.07927728e-12 3.07896965e-12 3.07625156e-16 0.00000000e+00 0.00000000e+00 3.08964252e-12
3.01995172e-03 3.63194550e-12 3.63119494e-12 7.50559957e-16 0.00000000e+00 0.00000000e+00 3.64676883e-12
3.46736850e-03 4.28880259e-12 4.28269825e-12 6.10433937e-15 0.00000000e+00 0.00000000e+00 4.30435650e-12
3.98107171e-03 5.05317001e-12 5.05126970e-12 1.90030708e-15 0.00000000e+00 0.00000000e+00 5.08052080e-12
4.57088190e-03 5.97590879e-12 5.97359118e-12 2.31761292e-15 0.00000000e+00 0.00000000e+00 5.99664354e-12
5.24807460e-03 7.05017080e-12 7.04322806e-12 6.94273851e-15 0.00000000e+00 0.00000000e+00 7.07796211e-12
6.02559586e-03 8.30983244e-12 8.30485727e-12 4.97516851e-15 0.00000000e+00 0.00000000e+00 8.35426474e-12
6.91830971e-03 9.81708384e-12 9.79343662e-12 2.36472141e-14 0.00000000e+00 0.00000000e+00 9.86071107e-12
7.94328235e-03 1.15889153e-11 1.15502462e-11 3.86691270e-14 0.00000000e+00 0.00000000e+00 1.16388008e-11
9.12010839e-03 1.36567101e-11 1.36215766e-11 3.51335093e-14 0.00000000e+00 0.00000000e+00 1.37375167e-11
1.04712855e-02 1.52607132e-11 1.52052073e-11 5.55059386e-14 0.00000000e+00 0.00000000e+00 1.53429287e-11
1.20226443e-02 1.52529863e-11 1.51971180e-11 5.58683487e-14 1.97762489e-310 4.01176956e-312 1.53429287e-11
1.38038426e-02 1.52506725e-11 1.51875288e-11 6.31437799e-14 3.73752644e-271 9.46324194e-273 1.53429287e-11
1.58489319e-02 1.52603804e-11 1.51757526e-11 8.46278190e-14 5.71255024e-237 1.47861957e-238 1.53429287e-11
1.81970086e-02 1.52817483e-11 1.51648993e-11 1.16848940e-13 3.22157075e-207 1.01366688e-208 1.53429287e-11
2.08929613e-02 1.52828174e-11 1.51558838e-11 1.26933525e-13 2.35573627e-181 9.22150732e-183 1.53429287e-11
2.39883292e-02 1.53099610e-11 1.51442107e-11 1.65750293e-13 7.62050972e-159 3.37366582e-160 1.53429287e-11
2.75422870e-02 1.53204249e-11 1.51306442e-11 1.89780723e-13 2.96041905e-139 1.57726391e-140 1.53429287e-11
3.16227766e-02 1.53420519e-11 1.51173579e-11 2.24694010e-13 3.17727119e-122 1.86098385e-123 1.53429287e-11
3.63078055e-02 1.53604198e-11 1.51069449e-11 2.53474971e-13 2.02007171e-107 1.32104494e-108 1.53429287e-11
4.16869383e-02 1.54208295e-11 1.50979442e-11 3.22885327e-13 1.48618750e-94 1.21229032e-95 1.53429287e-11
4.78630092e-02 1.54824501e-11 1.50731618e-11 4.09288259e-13 2.22953593e-83 2.28197269e-84 1.53429287e-11
5.49540874e-02 1.55105481e-11 1.50387649e-11 4.71783258e-13 1.11895317e-73 1.33901035e-74 1.53429287e-11
6.30957344e-02 1.54808255e-11 1.49528592e-11 5.27966205e-13 3.86928156e-65 5.38315485e-66 1.53429287e-11
7.24435960e-02 1.53468010e-11 1.48517376e-11 4.95063345e-13 9.59688794e-58 1.28171611e-58 1.53429287e-11
8.31763771e-02 1.53423061e-11 1.48607082e-11 4.81597920e-13 2.01678711e-51 2.64922568e-52 1.53429287e-11
9.54992586e-02 1.53805636e-11 1.48870496e-11 4.93513972e-13 6.26562499e-46 8.53563626e-47 1.53429287e-11
1.09647820e-01 1.47987329e-11 1.42897924e-11 5.08940501e-13 3.61483291e-41 5.31680790e-42 1.46523889e-11
1.25892541e-01 1.38677845e-11 1.33952387e-11 4.72545847e-13 5.37434666e-37 8.01040991e-38 1.36744049e-11
1.44543977e-01 1.29668505e-11 1.25453733e-11 4.21477209e-13 2.39468830e-33 3.62500029e-34 1.27616972e-11
1.65958691e-01 1.21624053e-11 1.17331612e-11 4.29244092e-13 2.91596137e-30 5.00795086e-31 1.19099088e-11
1.90546072e-01 1.14049140e-11 1.09390840e-11 4.65830038e-13 1.06026696e-27 2.16838946e-28 1.11149736e-11
2.18776162e-01 1.06148814e-11 1.01808091e-11 4.34072244e-13 1.54229241e-25 3.32845948e-26 1.03730969e-11
2.51188643e-01 1.00281750e-11 9.53695292e-12 4.91222078e-13 1.94959026e-23 5.20172874e-24 9.68073733e-12
2.88403150e-01 9.38304703e-12 8.92304077e-12 4.60006257e-13 1.28098387e-21 3.52062870e-22 9.03458975e-12
3.31131121e-01 8.75607473e-12 8.34074818e-12 4.15326506e-13 4.67406474e-20 1.31107882e-20 8.43156974e-12
3.80189396e-01 8.18135848e-12 7.79431778e-12 3.87039660e-13 1.03646616e-18 2.97473882e-19 7.86879872e-12
4.36515832e-01 7.63696924e-12 7.28305772e-12 3.53896569e-13 1.49580559e-17 4.40635746e-18 7.34359025e-12
5.01187234e-01 7.13840352e-12 6.80490798e-12 3.33349425e-13 1.46114823e-16 4.37063375e-17 6.85343719e-12
5.75439937e-01 6.66030228e-12 6.35749667e-12 3.01782018e-13 1.02358826e-15 3.06995393e-16 6.39599973e-12
6.60693448e-01 6.22073891e-12 5.93881178e-12 2.76594869e-13 5.33226196e-15 1.59928729e-15 5.96909425e-12
7.58577575e-01 5.81793186e-12 5.54715637e-12 2.48972046e-13 2.18034429e-14 6.42864482e-15 5.57068288e-12
8.70963590e-01 5.47505709e-12 5.18099142e-12 2.22026792e-13 7.20388775e-14 2.04559601e-14 5.19886376e-12
1.00000000e+00 5.22592141e-12 4.83850484e-12 1.89609207e-13 1.97807364e-13 5.28820737e-14 4.85186196e-12
1.14815362e+00 5.14318242e-12 4.51821623e-12 1.56286728e-13 4.68679468e-13 1.14474532e-13 4.52802104e-12
1.31825674e+00 5.32961854e-12 4.21872325e-12 1.26489597e-13 9.84405699e-13 2.13100412e-13 4.22579511e-12
1.51356125e+00 5.86520725e-12 3.93869253e-12 9.97497841e-14 1.82676494e-12 3.39573581e-13 3.94374146e-12
1.73780083e+00 6.72310268e-12 3.67696775e-12 7.67823201e-14 2.96935261e-12 4.65414410e-13 3.68051368e-12
1.99526231e+00 7.80989276e-12 3.43240401e-12 5.82187998e-14 4.31926994e-12 5.50433297e-13 3.43485522e-12
2.29086765e+00 8.89848169e-12 3.20390427e-12 4.26832683e-14 5.65189416e-12 5.70709488e-13 3.20559341e-12
2.63026799e+00 9.76340394e-12 2.99045896e-12 3.06615873e-14 6.74228339e-12 5.27539773e-13 2.99163384e-12
3.01995172e+00 1.03342173e-11 2.79112746e-12 2.13152507e-14 7.52177458e-12 4.44901027e-13 2.79195514e-12
3.46736850e+00 1.05095076e-11 2.60501155e-12 1.42455612e-14 7.89025054e-12 3.40556262e-13 2.60560415e-12
3.98107171e+00 1.03300322e-11 2.43126157e-12 9.31392394e-15 7.88945669e-12 2.39926706e-13 2.43169128e-12
4.57088190e+00 9.87223927e-12 2.26907051e-12 5.81907701e-15 7.59734969e-12 1.54803150e-13 2.26938634e-12
5.24807460e+00 8.99140719e-12 1.87622488e-12 3.13634774e-15 7.11204596e-12 9.33107299e-14 1.87643467e-12
6.02559586e+00 7.77143888e-12 1.23963291e-12 1.28798223e-15 6.53051799e-12 5.28656135e-14 1.23974809e-12
6.70000000e+00 6.95554548e-12 9.01723368e-13 6.34700172e-16 6.05318742e-12 3.26996445e-14 9.01797527e-13
6.92422916e+00 6.71653188e-12 8.16929701e-13 5.06879292e-16 5.89909530e-12 2.78810128e-14 8.16994532e-13
7.15596261e+00 6.53528213e-12 7.40108509e-13 3.97623005e-16 5.79477600e-12 2.36480115e-14 7.40166218e-13
7.39545150e+00 6.47847605e-12 6.70509134e-13 3.04162628e-16 5.80766275e-12 2.00841523e-14 6.70562664e-13
7.64295536e+00 6.77039595e-12 6.07449216e-13 2.23218694e-16 6.16272352e-12 1.74076462e-14 6.07504471e-13
7.89874245e+00 7.55145472e-12 5.50311451e-13 1.49349791e-16 7.00099392e-12 1.50673612e-14 5.50376127e-13
8.16308998e+00 8.62560126e-12 4.98540886e-13 9.39982335e-17 8.12696637e-12 1.28081287e-14 4.98620004e-13
8.43628443e+00 9.90441088e-12 4.51631329e-13 5.50544644e-17 9.45272450e-12 1.04109166e-14 4.51730909e-13
8.71862190e+00 1.07138408e-11 4.09140310e-13 3.45170355e-17 1.03046660e-11 8.18860652e-15 4.09251158e-13
9.01040836e+00 1.13907213e-11 3.70644455e-13 1.88007895e-17 1.10200581e-11 5.81365745e-15 3.70766106e-13
9.31196005e+00 1.19315966e-11 3.35772278e-13 0.00000000e+00 1.15958243e-11 0.00000000e+00 3.35900102e-13
9.62360379e+00 1.16967478e-11 3.04193963e-13 0.00000000e+00 1.13925538e-11 0.00000000e+00 3.04312818e-13
9.94567731e+00 1.11536748e-11 2.75594895e-13 0.00000000e+00 1.08780799e-11 0.00000000e+00 2.75695930e-13
1.02785297e+01 1.04254577e-11 2.49687302e-13 0.00000000e+00 1.01757704e-11 0.00000000e+00 2.49770110e-13
1.06225216e+01 9.67590080e-12 2.26215153e-13 0.00000000e+00 9.44968565e-12 0.00000000e+00 2.26282295e-13
1.09780260e+01 8.87317760e-12 2.04950744e-13 0.00000000e+00 8.66822686e-12 0.00000000e+00 2.05003220e-13
1.13454280e+01 8.13303953e-12 1.85684004e-13 0.00000000e+00 7.94735553e-12 0.00000000e+00 1.85725182e-13
1.17251259e+01 7.48522043e-12 1.68227486e-13 0.00000000e+00 7.31699294e-12 0.00000000e+00 1.68260007e-13
1.21175312e+01 6.82897884e-12 1.52411666e-13 0.00000000e+00 6.67656718e-12 0.00000000e+00 1.52437217e-13
1.25230691e+01 6.23144213e-12 1.38082346e-13 0.00000000e+00 6.09335978e-12 0.00000000e+00 1.38102367e-13
1.29421791e+01 5.68434394e-12 1.25099736e-13 0.00000000e+00 5.55924420e-12 0.00000000e+00 1.25115533e-13
1.33753155e+01 5.20478067e-12 1.13337398e-13 0.00000000e+00 5.09144327e-12 0.00000000e+00 1.13349952e-13
1.38229477e+01 4.87547416e-12 1.02680343e-13 0.00000000e+00 4.77279382e-12 0.00000000e+00 1.02690779e-13
1.42855609e+01 4.68905947e-12 9.30249008e-14 0.00000000e+00 4.59603457e-12 0.00000000e+00 9.30339713e-14
1.47636563e+01 4.73531394e-12 8.42766589e-14 0.00000000e+00 4.65103728e-12 0.00000000e+00 8.42852675e-14
1.52577522e+01 4.83571243e-12 7.63509541e-14 0.00000000e+00 4.75936147e-12 0.00000000e+00 7.63592720e-14
1.57683840e+01 4.97704112e-12 6.91704790e-14 0.00000000e+00 4.90787065e-12 0.00000000e+00 6.91786191e-14
1.62961051e+01 5.12642102e-12 6.26652621e-14 0.00000000e+00 5.06375575e-12 0.00000000e+00 6.26732185e-14
1.68414875e+01 5.26585544e-12 5.67718115e-14 0.00000000e+00 5.20908363e-12 0.00000000e+00 5.67795711e-14
1.74051222e+01 5.33899898e-12 5.14327802e-14 0.00000000e+00 5.28756620e-12 0.00000000e+00 5.14401489e-14
1.79876201e+01 5.36458539e-12 4.65959538e-14 0.00000000e+00 5.31798944e-12 0.00000000e+00 4.66028339e-14
1.85896125e+01 5.29214025e-12 4.22141840e-14 0.00000000e+00 5.24992607e-12 0.00000000e+00 4.22204090e-14
1.92117518e+01 5.13534382e-12 3.82446295e-14 0.00000000e+00 5.09709919e-12 0.00000000e+00 3.82500974e-14
1.98547123e+01 4.93381621e-12 3.46484359e-14 0.00000000e+00 4.89916777e-12 0.00000000e+00 3.46531450e-14
2.05191907e+01 4.69623998e-12 3.13904271e-14 0.00000000e+00 4.66484956e-12 0.00000000e+00 3.13944418e-14
2.12059073e+01 4.47422904e-12 2.84387574e-14 0.00000000e+00 4.44579029e-12 0.00000000e+00 2.84421796e-14
2.19156062e+01 4.25811576e-12 2.57646102e-14 0.00000000e+00 4.23235114e-12 0.00000000e+00 2.57675415e-14
2.26490567e+01 4.06849003e-12 2.33419054e-14 0.00000000e+00 4.04514813e-12 0.00000000e+00 2.33444203e-14
2.34070535e+01 3.87799295e-12 2.11470023e-14 0.00000000e+00 3.85684595e-12 0.00000000e+00 2.11491639e-14
2.41904183e+01 3.69108325e-12 1.91584819e-14 0.00000000e+00 3.67192477e-12 0.00000000e+00 1.91603445e-14
2.50000000e+01 3.51660661e-12 1.73569406e-14 0.00000000e+00 3.49924967e-12 0.00000000e+00 1.73585491e-14
2.75422870e+01 3.02029057e-12 1.29807072e-14 0.00000000e+00 3.00730987e-12 0.00000000e+00 1.29817562e-14
3.16227766e+01 2.35780848e-12 8.57638494e-15 0.00000000e+00 2.34923210e-12 0.00000000e+00 8.57696126e-15
3.63078055e+01 1.74154240e-12 5.66642714e-15 0.00000000e+00 1.73587597e-12 0.00000000e+00 5.66674211e-15
4.16869383e+01 1.20169429e-12 3.74381180e-15 0.00000000e+00 1.19795048e-12 0.00000000e+00 3.74397938e-15
4.78630092e+01 7.75138276e-13 2.47353625e-15 0.00000000e+00 7.72664739e-13 0.00000000e+00 2.47362265e-15
5.49540874e+01 4.74383795e-13 1.63426268e-15 0.00000000e+00 4.72749533e-13 0.00000000e+00 1.63430628e-15
6.30957344e+01 2.78852480e-13 1.07975373e-15 0.00000000e+00 2.77772726e-13 0.00000000e+00 1.07977545e-15
7.24435960e+01 1.58963326e-13 7.13389825e-16 0.00000000e+00 1.58249936e-13 0.00000000e+00 7.13400564e-16
8.31763771e+01 8.87046934e-14 4.71333775e-16 0.00000000e+00 8.82333596e-14 0.00000000e+00 4.71339078e-16
9.54992586e+01 4.87733872e-14 3.11408016e-16 0.00000000e+00 4.84619792e-14 0.00000000e+00 3.11410641e-16
1.09647820e+02 2.65420253e-14 2.05745666e-16 0.00000000e+00 2.63362796e-14 0.00000000e+00 2.05746970e-16
1.25892541e+02 1.44965743e-14 1.35935018e-16 0.00000000e+00 1.43606392e-14 0.00000000e+00 1.35935675e-16
1.44543977e+02 7.89783468e-15 8.98114762e-17 0.00000000e+00 7.80802321e-15 0.00000000e+00 8.98118099e-17
1.65958691e+02 4.10493906e-15 5.93379107e-17 0.00000000e+00 4.04560115e-15 0.00000000e+00 5.93380743e-17
1.90546072e+02 2.14146599e-15 3.92041959e-17 0.00000000e+00 2.10226179e-15 0.00000000e+00 3.92042769e-17
2.18776162e+02 1.11819313e-15 2.59019685e-17 0.00000000e+00 1.09229116e-15 0.00000000e+00 2.59020089e-17
2.51188643e+02 5.83267553e-16 1.71132674e-17 0.00000000e+00 5.66154286e-16 0.00000000e+00 1.71132876e-17
2.88403150e+02 3.03619400e-16 1.13066269e-17 0.00000000e+00 2.92312773e-16 0.00000000e+00 1.13066370e-17
3.31131121e+02 1.58072831e-16 7.47021591e-18 0.00000000e+00 1.50602615e-16 0.00000000e+00 7.47022097e-18
3.80189396e+02 8.22641576e-17 4.93552351e-18 0.00000000e+00 7.73286341e-17 0.00000000e+00 4.93552605e-18
4.36515832e+02 4.28820176e-17 3.26086845e-18 0.00000000e+00 3.96211491e-17 0.00000000e+00 3.26086972e-18
5.01187234e+02 2.24049334e-17 2.15443462e-18 0.00000000e+00 2.02504987e-17 0.00000000e+00 2.15443526e-18
5.75439937e+02 1.17525148e-17 1.42342094e-18 0.00000000e+00 1.03290938e-17 0.00000000e+00 1.42342126e-18
6.60693448e+02 6.19959297e-18 9.40444939e-19 0.00000000e+00 5.25914803e-18 0.00000000e+00 9.40445101e-19
7.58577575e+02 3.29489512e-18 6.21345835e-19 0.00000000e+00 2.67354928e-18 0.00000000e+00 6.21345916e-19
8.70963590e+02 1.76744513e-18 4.10519135e-19 0.00000000e+00 1.35692599e-18 0.00000000e+00 4.10519176e-19
1.00000000e+03 6.87627808e-19 0.00000000e+00 0.00000000e+00 6.87627808e-19 0.00000000e+00 0.00000000e+00
