# column 1: lambda (micron)
# column 2: total flux; lambda*F_lambda (W/m2)
# column 3: direct stellar flux; lambda*F_lambda (W/m2)
# column 4: scattered stellar flux; lambda*F_lambda (W/m2)
# column 5: total dust emission flux; lambda*F_lambda (W/m2)
# column 6: dust emission scattered flux; lambda*F_lambda (W/m2)
# column 7: transparent flux; lambda*F_lambda (W/m2)
1.00000000e-03 3.57787473e-13 3.57785423e-13 2.04955516e-18 0.00000000e+00 0.00000000e+00 3.57785423e-13
1.14815362e-03 4.22304571e-13 4.22301518e-13 3.05260552e-18 0.00000000e+00 0.00000000e+00 4.22301518e-13
1.31825674e-03 4.98456114e-13 4.98451197e-13 4.91689114e-18 0.00000000e+00 0.00000000e+00 4.98451197e-13
1.51356125e-03 5.88339649e-13 5.88332233e-13 7.41537212e-18 0.00000000e+00 0.00000000e+00 5.88332233e-13
1.73780083e-03 6.94434003e-13 6.94420676e-13 1.33279099e-17 0.00000000e+00 0.00000000e+00 6.94420676e-13
1.99526231e-03 8.19666663e-13 8.19639053e-13 2.76095098e-17 0.00000000e+00 0.00000000e+00 8.19639053e-13
2.29086765e-03 9.67471888e-13 9.67436888e-13 3.49999438e-17 0.00000000e+00 0.00000000e+00 9.67436888e-13
2.63026799e-03 1.14196490e-12 1.14188572e-12 7.91777736e-17 0.00000000e+00 0.00000000e+00 1.14188572e-12
3.01995172e-03 1.34792363e-12 1.34779128e-12 1.32347774e-16 0.00000000e+00 0.00000000e+00 1.34779128e-12
3.46736850e-03 1.59104872e-12 1.59082586e-12 2.22855851e-16 0.00000000e+00 0.00000000e+00 1.59082586e-12
3.98107171e-03 1.87805083e-12 1.87768459e-12 3.66231911e-16 0.00000000e+00 0.00000000e+00 1.87768459e-12
4.57088190e-03 2.21703941e-12 2.21626987e-12 7.69539533e-16 0.00000000e+00 0.00000000e+00 2.21626987e-12
5.24807460e-03 2.69106099e-12 2.61590907e-12 7.51519224e-14 0.00000000e+00 0.00000000e+00 2.61590907e-12
6.02559586e-03 3.09014192e-12 3.08761145e-12 2.53047216e-15 0.00000000e+00 0.00000000e+00 3.08761145e-12
6.91830971e-03 3.64820786e-12 3.64437151e-12 3.83634838e-15 0.00000000e+00 0.00000000e+00 3.64437151e-12
7.94328235e-03 4.30760308e-12 4.30152690e-12 6.07618621e-15 0.00000000e+00 0.00000000e+00 4.30152690e-12
9.12010839e-03 5.08812492e-12 5.07718096e-12 1.09439542e-14 0.00000000e+00 0.00000000e+00 5.07718096e-12
1.04712855e-02 5.68574959e-12 5.67051724e-12 1.52323517e-14 0.00000000e+00 0.00000000e+00 5.67051724e-12
1.20226443e-02 5.69323713e-12 5.67051724e-12 2.27198939e-14 0.00000000e+00 0.00000000e+00 5.67051724e-12
1.38038426e-02 5.70476412e-12 5.67051724e-12 3.42468851e-14 7.91160093e-279 1.03017185e-280 5.67051724e-12
1.58489319e-02 5.71460372e-12 5.67051724e-12 4.40864788e-14 1.02041317e-243 1.97324448e-245 5.67051724e-12
1.81970086e-02 5.72618609e-12 5.67051724e-12 5.56688538e-14 3.64796224e-213 6.99726993e-215 5.67051724e-12
2.08929613e-02 5.74653938e-12 5.67051724e-12 7.60221438e-14 1.33718781e-186 3.40128434e-188 5.67051724e-12
2.39883292e-02 5.75231844e-12 5.67051724e-12 8.18012008e-14 1.76744867e-163 5.70704263e-165 5.67051724e-12
2.75422870e-02 5.77563478e-12 5.67051724e-12 1.05117537e-13 2.33678345e-143 9.58532877e-145 5.67051724e-12
3.16227766e-02 5.77887282e-12 5.67051724e-12 1.08355583e-13 7.28813508e-126 3.33426224e-127 5.67051724e-12
3.63078055e-02 5.78265733e-12 5.67051724e-12 1.12140090e-13 1.17004414e-110 5.76409769e-112 5.67051724e-12
4.16869383e-02 5.78321337e-12 5.67051724e-12 1.12696133e-13 1.92203274e-97 1.13634622e-98 5.67051724e-12
4.78630092e-02 5.78618749e-12 5.67051724e-12 1.15670249e-13 5.77523911e-86 3.73162263e-87 5.67051724e-12
5.49540874e-02 5.78021047e-12 5.67051724e-12 1.09693234e-13 5.38589319e-76 4.01066020e-77 5.67051724e-12
6.30957344e-02 5.77141677e-12 5.67051724e-12 1.00899534e-13 3.24790940e-67 2.65072261e-68 5.67051724e-12
7.24435960e-02 5.75339526e-12 5.67051724e-12 8.28780231e-14 1.36421249e-59 1.04324080e-60 5.67051724e-12
8.31763771e-02 5.75008087e-12 5.67051724e-12 7.95636339e-14 4.61455597e-53 3.54488227e-54 5.67051724e-12
9.54992586e-02 5.75431416e-12 5.67051724e-12 8.37969194e-14 2.21783068e-47 1.79597150e-48 5.67051724e-12
1.09647820e-01 5.50474711e-12 5.41530405e-12 8.94430593e-14 1.87116315e-42 1.71292285e-43 5.41530405e-12
1.25892541e-01 5.14644334e-12 5.05385580e-12 9.25875412e-14 3.73275571e-38 3.55900722e-39 5.05385580e-12
1.44543977e-01 4.79919842e-12 4.71653266e-12 8.26657615e-14 2.02762061e-34 1.94035800e-35 4.71653266e-12
1.65958691e-01 4.48959827e-12 4.40172439e-12 8.78738779e-14 2.78573790e-31 3.05679788e-32 4.40172439e-12
1.90546072e-01 4.19372899e-12 4.10792822e-12 8.58007711e-14 1.10240520e-28 1.42768342e-29 4.10792822e-12
2.18776162e-01 3.91178361e-12 3.83374167e-12 7.80419363e-14 1.77057120e-26 2.50908319e-27 3.83374167e-12
2.51188643e-01 3.66581458e-12 3.57785591e-12 8.79586739e-14 2.34268154e-24 4.16888467e-25 3.57785591e-12
2.88403150e-01 3.42120276e-12 3.33904941e-12 8.21533492e-14 1.64347825e-22 2.97396140e-23 3.33904941e-12
3.31131121e-01 3.19240929e-12 3.11618222e-12 7.62270600e-14 6.34323206e-21 1.16584592e-21 3.11618222e-12
3.80189396e-01 2.98125339e-12 2.90819046e-12 7.30627839e-14 1.46681412e-19 2.72256603e-20 2.90819046e-12
4.36515832e-01 2.78150594e-12 2.71408126e-12 6.74225334e-14 2.14476732e-18 3.99747516e-19 2.71408126e-12
5.01187234e-01 2.59704372e-12 2.53292801e-12 6.40944837e-14 2.12316946e-17 3.96461361e-18 2.53292801e-12
5.75439937e-01 2.42129051e-12 2.36386595e-12 5.72765525e-14 1.48000256e-16 2.74944164e-17 2.36386595e-12
6.60693448e-01 2.26075597e-12 2.20608807e-12 5.39038078e-14 7.64095630e-16 1.39405860e-16 2.20608807e-12
7.58577575e-01 2.10892352e-12 2.05884118e-12 4.69894525e-14 3.09288745e-15 5.50798597e-16 2.05884118e-12
8.70963590e-01 1.97458789e-12 1.92142238e-12 4.30280814e-14 1.01374229e-14 1.72660955e-15 1.92142238e-12
1.00000000e+00 1.85839905e-12 1.79317570e-12 3.76485501e-14 2.75747938e-14 4.35953471e-15 1.79317570e-12
1.14815362e+00 1.77099911e-12 1.67348894e-12 3.19104858e-14 6.55996912e-14 9.47065945e-15 1.67348894e-12
1.31825674e+00 1.72688007e-12 1.56179075e-12 2.66070171e-14 1.38482308e-13 1.77088117e-14 1.56179075e-12
1.51356125e+00 1.74044395e-12 1.45754793e-12 2.15551159e-14 2.61340899e-13 2.90822161e-14 1.45754793e-12
1.73780083e+00 1.81408018e-12 1.36026288e-12 1.70424082e-14 4.36774898e-13 4.09005388e-14 1.36026288e-12
1.99526231e+00 1.92993035e-12 1.26947118e-12 1.28416314e-14 6.47617540e-13 4.91803855e-14 1.26947118e-12
2.29086765e+00 2.06858407e-12 1.18473944e-12 9.62583299e-15 8.74218802e-13 5.20951986e-14 1.18473944e-12
2.63026799e+00 2.18262004e-12 1.10566318e-12 6.87876313e-15 1.07007810e-12 4.86510229e-14 1.10566318e-12
3.01995172e+00 2.25316200e-12 1.03186491e-12 4.83384190e-15 1.21646325e-12 4.10506825e-14 1.03186491e-12
3.46736850e+00 2.25594512e-12 9.62992369e-13 3.21118360e-15 1.28974157e-12 3.14793663e-14 9.62992369e-13
3.98107171e+00 2.19238797e-12 8.98716770e-13 2.11287484e-15 1.29155832e-12 2.17883719e-14 8.98716770e-13
4.57088190e+00 2.06612238e-12 8.38731291e-13 1.33720278e-15 1.22605388e-12 1.40034054e-14 8.38731291e-13
5.24807460e+00 1.82454189e-12 6.93502223e-13 7.43866923e-16 1.13029580e-12 8.45703714e-15 6.93502223e-13
6.02559586e+00 1.47980925e-12 4.58192375e-13 3.01618638e-16 1.02131526e-12 4.82393512e-15 4.58192375e-13
6.70000000e+00 1.26750070e-12 3.33290895e-13 1.45914882e-16 9.34063894e-13 2.96568691e-15 3.33290895e-13
6.92422916e+00 1.20825498e-12 3.01948975e-13 1.18709367e-16 9.06187294e-13 2.52947632e-15 3.01948975e-13
7.15596261e+00 1.16125256e-12 2.73554377e-13 9.37206416e-17 8.87604458e-13 2.15513175e-15 2.73554377e-13
7.39545150e+00 1.14063360e-12 2.47829944e-13 7.07799607e-17 8.92732873e-13 1.82345790e-15 2.47829944e-13
7.64295536e+00 1.18293095e-12 2.24524577e-13 5.14283591e-17 9.58354943e-13 1.57104501e-15 2.24524577e-13
7.89874245e+00 1.32002023e-12 2.03410795e-13 3.39513624e-17 1.11657549e-12 1.36488232e-15 2.03410795e-13
8.16308998e+00 1.52404807e-12 1.84282505e-13 2.12007613e-17 1.33974437e-12 1.16380486e-15 1.84282505e-13
8.43628443e+00 1.80180647e-12 1.66952996e-13 1.23868315e-17 1.63484109e-12 9.38202745e-16 1.66952996e-13
8.71862190e+00 1.97759877e-12 1.51253114e-13 7.85371972e-18 1.82633781e-12 7.36159425e-16 1.51253114e-13
9.01040836e+00 2.14865699e-12 1.37029614e-13 4.51243245e-18 2.01162287e-12 5.24562144e-16 1.37029614e-13
9.31196005e+00 2.26765447e-12 1.24143660e-13 0.00000000e+00 2.14351081e-12 0.00000000e+00 1.24143660e-13
9.62360379e+00 2.22594996e-12 1.12469472e-13 0.00000000e+00 2.11348049e-12 0.00000000e+00 1.12469472e-13
9.94567731e+00 2.07437409e-12 1.01893097e-13 0.00000000e+00 1.97248100e-12 0.00000000e+00 1.01893097e-13
1.02785297e+01 1.89440406e-12 9.23113014e-14 0.00000000e+00 1.80209276e-12 0.00000000e+00 9.23113014e-14
1.06225216e+01 1.71943159e-12 8.36305558e-14 0.00000000e+00 1.63580103e-12 0.00000000e+00 8.36305558e-14
1.09780260e+01 1.53050549e-12 7.57661279e-14 0.00000000e+00 1.45473936e-12 0.00000000e+00 7.57661279e-14
1.13454280e+01 1.36626150e-12 6.86412529e-14 0.00000000e+00 1.29762025e-12 0.00000000e+00 6.86412529e-14
1.17251259e+01 1.22783665e-12 6.21863851e-14 0.00000000e+00 1.16565027e-12 0.00000000e+00 6.21863851e-14
1.21175312e+01 1.10041221e-12 5.63385184e-14 0.00000000e+00 1.04407369e-12 0.00000000e+00 5.63385184e-14
1.25230691e+01 9.87293239e-13 5.10405718e-14 0.00000000e+00 9.36252667e-13 0.00000000e+00 5.10405718e-14
1.29421791e+01 8.90377488e-13 4.62408321e-14 0.00000000e+00 8.44136656e-13 0.00000000e+00 4.62408321e-14
1.33753155e+01 8.07998007e-13 4.18924490e-14 0.00000000e+00 7.66105558e-13 0.00000000e+00 4.18924490e-14
1.38229477e+01 7.52647372e-13 3.79529781e-14 0.00000000e+00 7.14694393e-13 0.00000000e+00 3.79529781e-14
1.42855609e+01 7.20645141e-13 3.43839660e-14 0.00000000e+00 6.86261175e-13 0.00000000e+00 3.43839660e-14
1.47636563e+01 7.26220058e-13 3.11505758e-14 0.00000000e+00 6.95069482e-13 0.00000000e+00 3.11505758e-14
1.52577522e+01 7.40288907e-13 2.82212462e-14 0.00000000e+00 7.12067661e-13 0.00000000e+00 2.82212462e-14
1.57683840e+01 7.59767650e-13 2.55673842e-14 0.00000000e+00 7.34200266e-13 0.00000000e+00 2.55673842e-14
1.62961051e+01 7.81001991e-13 2.31630853e-14 0.00000000e+00 7.57838906e-13 0.00000000e+00 2.31630853e-14
1.68414875e+01 7.99682521e-13 2.09848813e-14 0.00000000e+00 7.78697640e-13 0.00000000e+00 2.09848813e-14
1.74051222e+01 8.11382455e-13 1.90115106e-14 0.00000000e+00 7.92370944e-13 0.00000000e+00 1.90115106e-14
1.79876201e+01 8.13755048e-13 1.72237112e-14 0.00000000e+00 7.96531337e-13 0.00000000e+00 1.72237112e-14
1.85896125e+01 8.04259098e-13 1.56040325e-14 0.00000000e+00 7.88655066e-13 0.00000000e+00 1.56040325e-14
1.92117518e+01 7.82652999e-13 1.41366646e-14 0.00000000e+00 7.68516335e-13 0.00000000e+00 1.41366646e-14
1.98547123e+01 7.53497290e-13 1.28072847e-14 0.00000000e+00 7.40690006e-13 0.00000000e+00 1.28072847e-14
2.05191907e+01 7.23093653e-13 1.16029167e-14 0.00000000e+00 7.11490736e-13 0.00000000e+00 1.16029167e-14
2.12059073e+01 6.94281240e-13 1.05118047e-14 0.00000000e+00 6.83769435e-13 0.00000000e+00 1.05118047e-14
2.19156062e+01 6.67673238e-13 9.52329842e-15 0.00000000e+00 6.58149940e-13 0.00000000e+00 9.52329842e-15
2.26490567e+01 6.42160657e-13 8.62774902e-15 0.00000000e+00 6.33532908e-13 0.00000000e+00 8.62774902e-15
2.34070535e+01 6.18965093e-13 7.81641505e-15 0.00000000e+00 6.11148678e-13 0.00000000e+00 7.81641505e-15
2.41904183e+01 5.97540491e-13 7.08137710e-15 0.00000000e+00 5.90459114e-13 0.00000000e+00 7.08137710e-15
2.50000000e+01 5.76776896e-13 6.41546044e-15 0.00000000e+00 5.70361435e-13 0.00000000e+00 6.41546044e-15
2.75422870e+01 5.15774134e-13 4.79786316e-15 0.00000000e+00 5.10976271e-13 0.00000000e+00 4.79786316e-15
3.16227766e+01 4.31338752e-13 3.16991676e-15 0.00000000e+00 4.28168836e-13 0.00000000e+00 3.16991676e-15
3.63078055e+01 3.42470245e-13 2.09434323e-15 0.00000000e+00 3.40375902e-13 0.00000000e+00 2.09434323e-15
4.16869383e+01 2.54341776e-13 1.38371885e-15 0.00000000e+00 2.52958057e-13 0.00000000e+00 1.38371885e-15
4.78630092e+01 1.76264890e-13 9.14213979e-16 0.00000000e+00 1.75350676e-13 0.00000000e+00 9.14213979e-16
5.49540874e+01 1.15292986e-13 6.04015186e-16 0.00000000e+00 1.14688970e-13 0.00000000e+00 6.04015186e-16
6.30957344e+01 7.20442218e-14 3.99068876e-16 0.00000000e+00 7.16451529e-14 0.00000000e+00 3.99068876e-16
7.24435960e+01 4.33549958e-14 2.63662192e-16 0.00000000e+00 4.30913336e-14 0.00000000e+00 2.63662192e-16
8.31763771e+01 2.53537881e-14 1.74199882e-16 0.00000000e+00 2.51795882e-14 0.00000000e+00 1.74199882e-16
9.54992586e+01 1.45207434e-14 1.15092721e-16 0.00000000e+00 1.44056507e-14 0.00000000e+00 1.15092721e-16
1.09647820e+02 8.18315328e-15 7.60410067e-17 0.00000000e+00 8.10711227e-15 0.00000000e+00 7.60410067e-17
1.25892541e+02 4.60276530e-15 5.02397949e-17 0.00000000e+00 4.55252551e-15 0.00000000e+00 5.02397949e-17
1.44543977e+02 2.57068875e-15 3.31931033e-17 0.00000000e+00 2.53749565e-15 0.00000000e+00 3.31931033e-17
1.65958691e+02 1.36646015e-15 2.19304659e-17 0.00000000e+00 1.34452969e-15 0.00000000e+00 2.19304659e-17
1.90546072e+02 7.26472669e-16 1.44893151e-17 0.00000000e+00 7.11983354e-16 0.00000000e+00 1.44893151e-17
2.18776162e+02 3.85467842e-16 9.57299556e-18 0.00000000e+00 3.75894846e-16 0.00000000e+00 9.57299556e-18
2.51188643e+02 2.03830298e-16 6.32481544e-18 0.00000000e+00 1.97505482e-16 0.00000000e+00 6.32481544e-18
2.88403150e+02 1.07343007e-16 4.17876412e-18 0.00000000e+00 1.03164243e-16 0.00000000e+00 4.17876412e-18
3.31131121e+02 5.64421078e-17 2.76088208e-18 0.00000000e+00 5.36812257e-17 0.00000000e+00 2.76088208e-18
3.80189396e+02 2.96223990e-17 1.82409670e-18 0.00000000e+00 2.77983023e-17 0.00000000e+00 1.82409670e-18
4.36515832e+02 1.55521141e-17 1.20516874e-18 0.00000000e+00 1.43469454e-17 0.00000000e+00 1.20516874e-18
5.01187234e+02 8.17491570e-18 7.96247089e-19 0.00000000e+00 7.37866861e-18 0.00000000e+00 7.96247089e-19
5.75439937e+02 4.30989941e-18 5.26075235e-19 0.00000000e+00 3.78382417e-18 0.00000000e+00 5.26075235e-19
6.60693448e+02 2.28305222e-18 3.47574461e-19 0.00000000e+00 1.93547776e-18 0.00000000e+00 3.47574461e-19
7.58577575e+02 1.21747635e-18 2.29640169e-19 0.00000000e+00 9.87836180e-19 0.00000000e+00 2.29640169e-19
8.70963590e+02 6.54804246e-19 1.51721755e-19 0.00000000e+00 5.03082491e-19 0.00000000e+00 1.51721755e-19
1.00000000e+03 2.55693355e-19 0.00000000e+00 0.00000000e+00 2.55693355e-19 0.00000000e+00 0.00000000e+00
