# column 1: lambda (micron)
# column 2: total flux; lambda*F_lambda (W/m2)
# column 3: direct stellar flux; lambda*F_lambda (W/m2)
# column 4: scattered stellar flux; lambda*F_lambda (W/m2)
# column 5: total dust emission flux; lambda*F_lambda (W/m2)
# column 6: dust emission scattered flux; lambda*F_lambda (W/m2)
# column 7: transparent flux; lambda*F_lambda (W/m2)
1.00000000e-03 1.07335648e-12 1.07335627e-12 2.11120592e-19 0.00000000e+00 0.00000000e+00 1.07335627e-12
1.14815362e-03 1.26690489e-12 1.26690456e-12 3.38720132e-19 0.00000000e+00 0.00000000e+00 1.26690456e-12
1.31825674e-03 1.49535410e-12 1.49535359e-12 5.09294429e-19 0.00000000e+00 0.00000000e+00 1.49535359e-12
1.51356125e-03 1.76499748e-12 1.76499670e-12 7.84451515e-19 0.00000000e+00 0.00000000e+00 1.76499670e-12
1.73780083e-03 2.08326343e-12 2.08326203e-12 1.40579296e-18 0.00000000e+00 0.00000000e+00 2.08326203e-12
1.99526231e-03 2.45891966e-12 2.45891716e-12 2.49555421e-18 0.00000000e+00 0.00000000e+00 2.45891716e-12
2.29086765e-03 2.90231440e-12 2.90231066e-12 3.73469838e-18 0.00000000e+00 0.00000000e+00 2.90231066e-12
2.63026799e-03 3.42566494e-12 3.42565717e-12 7.76911976e-18 0.00000000e+00 0.00000000e+00 3.42565717e-12
3.01995172e-03 4.04338670e-12 4.04337385e-12 1.28509038e-17 0.00000000e+00 0.00000000e+00 4.04337385e-12
3.46736850e-03 4.77249922e-12 4.77247759e-12 2.16313548e-17 0.00000000e+00 0.00000000e+00 4.77247759e-12
3.98107171e-03 5.63308799e-12 5.63305378e-12 3.42115684e-17 0.00000000e+00 0.00000000e+00 5.63305378e-12
4.57088190e-03 6.64888767e-12 6.64880962e-12 7.80466135e-17 0.00000000e+00 0.00000000e+00 6.64880962e-12
5.24807460e-03 7.84786867e-12 7.84772720e-12 1.41469317e-16 0.00000000e+00 0.00000000e+00 7.84772720e-12
6.02559586e-03 9.26307915e-12 9.26283435e-12 2.44797217e-16 0.00000000e+00 0.00000000e+00 9.26283435e-12
6.91830971e-03 1.09335311e-11 1.09331145e-11 4.16617464e-16 0.00000000e+00 0.00000000e+00 1.09331145e-11
7.94328235e-03 1.29052507e-11 1.29045807e-11 6.70032998e-16 1.13366648e-304 6.42722078e-308 1.29045807e-11
9.12010839e-03 1.52326392e-11 1.52315429e-11 1.09626615e-15 4.66395349e-266 3.97454105e-269 1.52315429e-11
1.04712855e-02 1.70130078e-11 1.70115517e-11 1.45611963e-15 1.86481969e-232 2.01729248e-235 1.70115517e-11
1.20226443e-02 1.70137143e-11 1.70115517e-11 2.16254191e-15 2.78332311e-203 4.85437250e-206 1.70115517e-11
1.38038426e-02 1.70158127e-11 1.70115517e-11 4.26096391e-15 7.27021004e-178 1.69584768e-180 1.70115517e-11
1.58489319e-02 1.70157724e-11 1.70115517e-11 4.22071183e-15 9.48330583e-156 3.23734402e-158 1.70115517e-11
1.81970086e-02 1.70174114e-11 1.70115517e-11 5.85966984e-15 1.63842407e-136 6.98300799e-139 1.70115517e-11
2.08929613e-02 1.70198163e-11 1.70115517e-11 8.26459978e-15 8.32793491e-120 5.06833342e-122 1.70115517e-11
2.39883292e-02 1.70238792e-11 1.70115517e-11 1.23274925e-14 2.85300124e-105 2.29623930e-107 1.70115517e-11
2.75422870e-02 1.70279967e-11 1.70115517e-11 1.64449908e-14 1.25122613e-92 1.33919397e-94 1.70115517e-11
3.16227766e-02 1.70315110e-11 1.70115517e-11 1.99592613e-14 1.19906432e-81 1.66874136e-83 1.70115517e-11
3.63078055e-02 1.70353419e-11 1.70115517e-11 2.37901855e-14 4.09308142e-72 6.55815942e-74 1.70115517e-11
4.16869383e-02 1.70460587e-11 1.70115517e-11 3.45070317e-14 7.69292667e-64 1.75829141e-65 1.70115517e-11
4.78630092e-02 1.70585968e-11 1.70115517e-11 4.70450845e-14 1.15268234e-56 3.68546748e-58 1.70115517e-11
5.49540874e-02 1.70728083e-11 1.70115517e-11 6.12565422e-14 1.90437881e-50 7.83645421e-52 1.70115517e-11
6.30957344e-02 1.70893650e-11 1.70115517e-11 7.78132580e-14 6.14946072e-45 3.28061524e-46 1.70115517e-11
7.24435960e-02 1.70933974e-11 1.70115517e-11 8.18456630e-14 3.54951127e-40 1.92780210e-41 1.70115517e-11
8.31763771e-02 1.70940378e-11 1.70115517e-11 8.24860687e-14 3.61149447e-36 1.98165182e-37 1.70115517e-11
9.54992586e-02 1.70972486e-11 1.70115517e-11 8.56969055e-14 1.01090338e-32 5.74110222e-34 1.70115517e-11
1.09647820e-01 1.63303741e-11 1.62459122e-11 8.44619414e-14 8.50034635e-30 4.99930240e-31 1.62459122e-11
1.25892541e-01 1.52362601e-11 1.51615674e-11 7.46927261e-14 2.72338911e-27 1.45797893e-28 1.51615674e-11
1.44543977e-01 1.42135610e-11 1.41495980e-11 6.39630353e-14 3.67788764e-25 1.82890851e-26 1.41495980e-11
1.65958691e-01 1.32732942e-11 1.32051732e-11 6.81210288e-14 1.85367623e-23 1.01439071e-24 1.32051732e-11
1.90546072e-01 1.24029501e-11 1.23237846e-11 7.91654797e-14 3.90415779e-22 2.64318893e-23 1.23237846e-11
2.18776162e-01 1.15859444e-11 1.15012250e-11 8.47193515e-14 4.64437186e-21 3.56376402e-22 1.15012250e-11
2.51188643e-01 1.08301139e-11 1.07335677e-11 9.65460983e-14 5.60829660e-20 5.14174000e-21 1.07335677e-11
2.88403150e-01 1.01059643e-11 1.00171482e-11 8.88156003e-14 4.63670885e-19 4.05106896e-20 1.00171482e-11
3.31131121e-01 9.42658025e-12 9.34854667e-12 7.80309269e-14 2.64728392e-18 2.20901764e-19 9.34854667e-12
3.80189396e-01 8.79516994e-12 8.72457139e-12 7.05875084e-14 1.10457995e-17 8.89391831e-19 8.72457139e-12
4.36515832e-01 8.20799472e-12 8.14224377e-12 6.57151224e-14 3.58295864e-17 2.99701682e-18 8.14224377e-12
5.01187234e-01 7.66166053e-12 7.59878402e-12 6.27784304e-14 9.80833656e-17 9.16616753e-18 7.59878402e-12
5.75439937e-01 7.15035513e-12 7.09159786e-12 5.84961418e-14 2.61127092e-16 3.12290095e-17 7.09159786e-12
6.60693448e-01 6.67308010e-12 6.61826421e-12 5.40727844e-14 7.43110789e-16 1.10736684e-16 6.61826421e-12
7.58577575e-01 6.23028928e-12 6.17652353e-12 5.15432229e-14 2.22252642e-15 3.76343825e-16 6.17652353e-12
8.70963590e-01 5.81690784e-12 5.76426715e-12 4.63214029e-14 6.31928377e-15 1.10107087e-15 5.76426715e-12
1.00000000e+00 5.43609054e-12 5.37952711e-12 4.05154441e-14 1.60479826e-14 2.69703546e-15 5.37952711e-12
1.14815362e+00 5.09127041e-12 5.02046681e-12 3.42127622e-14 3.65908348e-14 5.65072687e-15 5.02046681e-12
1.31825674e+00 4.79046796e-12 4.68537225e-12 2.92232710e-14 7.58724453e-14 1.03959240e-14 4.68537225e-12
1.51356125e+00 4.53796569e-12 4.37264380e-12 2.29117926e-14 1.42410098e-13 1.66753036e-14 4.37264380e-12
1.73780083e+00 4.33737190e-12 4.08078863e-12 1.75821775e-14 2.39001088e-13 2.31100942e-14 4.08078863e-12
1.99526231e+00 4.18364914e-12 3.80841354e-12 1.26667040e-14 3.62568898e-13 2.79147943e-14 3.80841354e-12
2.29086765e+00 4.06413805e-12 3.55421832e-12 9.28783076e-15 5.00631902e-13 2.92015587e-14 3.55421832e-12
2.63026799e+00 3.96356177e-12 3.31698953e-12 6.65304486e-15 6.39919196e-13 2.78907096e-14 3.31698953e-12
3.01995172e+00 3.86160111e-12 3.09559474e-12 4.55480166e-15 7.61451562e-13 2.43509077e-14 3.09559474e-12
3.46736850e+00 3.74966124e-12 2.88897711e-12 3.01810428e-15 8.57666028e-13 1.96904950e-14 2.88897711e-12
3.98107171e+00 3.61416756e-12 2.69615031e-12 1.99564745e-15 9.16021606e-13 1.48872764e-14 2.69615031e-12
4.57088190e+00 3.45362243e-12 2.51619387e-12 1.29691123e-15 9.36131641e-13 1.04207026e-14 2.51619387e-12
5.24807460e+00 3.00762687e-12 2.08050667e-12 7.35336638e-16 9.26384868e-13 6.89342593e-15 2.08050667e-12
6.02559586e+00 2.27039091e-12 1.37457712e-12 3.06095916e-16 8.95507689e-13 4.31598414e-15 1.37457712e-12
6.70000000e+00 1.86137585e-12 9.99872685e-13 1.53426907e-16 8.61349734e-13 2.85334674e-15 9.99872685e-13
6.92422916e+00 1.75480015e-12 9.05846924e-13 1.22281983e-16 8.48830941e-13 2.49801826e-15 9.05846924e-13
7.15596261e+00 1.66392280e-12 8.20663132e-13 9.72551905e-17 8.43162413e-13 2.14310726e-15 8.20663132e-13
7.39545150e+00 1.59490669e-12 7.43489831e-13 7.69653859e-17 8.51339890e-13 1.84741994e-15 7.43489831e-13
7.64295536e+00 1.58388177e-12 6.73573732e-13 5.43672181e-17 9.10253671e-13 1.56494189e-15 6.73573732e-13
7.89874245e+00 1.65285588e-12 6.10232385e-13 3.45203381e-17 1.04258898e-12 1.28626993e-15 6.10232385e-13
8.16308998e+00 1.78804454e-12 5.52847515e-13 2.05908495e-17 1.23517643e-12 1.04704275e-15 5.52847515e-13
8.43628443e+00 2.01322788e-12 5.00858987e-13 1.17322890e-17 1.51235716e-12 8.29062415e-16 5.00858987e-13
8.71862190e+00 2.17099579e-12 4.53759343e-13 7.41249153e-18 1.71722904e-12 6.58491729e-16 4.53759343e-13
9.01040836e+00 2.35426350e-12 4.11088843e-13 4.57663188e-18 1.94317008e-12 4.90733921e-16 4.11088843e-13
9.31196005e+00 2.49992277e-12 3.72430980e-13 0.00000000e+00 2.12749179e-12 0.00000000e+00 3.72430980e-13
9.62360379e+00 2.48355818e-12 3.37408415e-13 0.00000000e+00 2.14614976e-12 0.00000000e+00 3.37408415e-13
9.94567731e+00 2.34346892e-12 3.05679292e-13 0.00000000e+00 2.03778963e-12 0.00000000e+00 3.05679292e-13
1.02785297e+01 2.16055473e-12 2.76933904e-13 0.00000000e+00 1.88362082e-12 0.00000000e+00 2.76933904e-13
1.06225216e+01 1.99911436e-12 2.50891667e-13 0.00000000e+00 1.74822269e-12 0.00000000e+00 2.50891667e-13
1.09780260e+01 1.80328618e-12 2.27298384e-13 0.00000000e+00 1.57598779e-12 0.00000000e+00 2.27298384e-13
1.13454280e+01 1.63360168e-12 2.05923759e-13 0.00000000e+00 1.42767793e-12 0.00000000e+00 2.05923759e-13
1.17251259e+01 1.48688275e-12 1.86559155e-13 0.00000000e+00 1.30032359e-12 0.00000000e+00 1.86559155e-13
1.21175312e+01 1.35890570e-12 1.69015555e-13 0.00000000e+00 1.18989015e-12 0.00000000e+00 1.69015555e-13
1.25230691e+01 1.23665955e-12 1.53121715e-13 0.00000000e+00 1.08353783e-12 0.00000000e+00 1.53121715e-13
1.29421791e+01 1.13710458e-12 1.38722496e-13 0.00000000e+00 9.98382088e-13 0.00000000e+00 1.38722496e-13
1.33753155e+01 1.04706876e-12 1.25677347e-13 0.00000000e+00 9.21391409e-13 0.00000000e+00 1.25677347e-13
1.38229477e+01 9.91082014e-13 1.13858934e-13 0.00000000e+00 8.77223080e-13 0.00000000e+00 1.13858934e-13
1.42855609e+01 9.56713365e-13 1.03151898e-13 0.00000000e+00 8.53561467e-13 0.00000000e+00 1.03151898e-13
1.47636563e+01 9.74061507e-13 9.34517274e-14 0.00000000e+00 8.80609779e-13 0.00000000e+00 9.34517274e-14
1.52577522e+01 9.98379704e-13 8.46637387e-14 0.00000000e+00 9.13715966e-13 0.00000000e+00 8.46637387e-14
1.57683840e+01 1.03309844e-12 7.67021526e-14 0.00000000e+00 9.56396292e-13 0.00000000e+00 7.67021526e-14
1.62961051e+01 1.07434779e-12 6.94892560e-14 0.00000000e+00 1.00485854e-12 0.00000000e+00 6.94892560e-14
1.68414875e+01 1.11584260e-12 6.29546439e-14 0.00000000e+00 1.05288796e-12 0.00000000e+00 6.29546439e-14
1.74051222e+01 1.14102366e-12 5.70345319e-14 0.00000000e+00 1.08398913e-12 0.00000000e+00 5.70345319e-14
1.79876201e+01 1.16301813e-12 5.16711337e-14 0.00000000e+00 1.11134699e-12 0.00000000e+00 5.16711337e-14
1.85896125e+01 1.15818184e-12 4.68120974e-14 0.00000000e+00 1.11136975e-12 0.00000000e+00 4.68120974e-14
1.92117518e+01 1.14105644e-12 4.24099939e-14 0.00000000e+00 1.09864645e-12 0.00000000e+00 4.24099939e-14
1.98547123e+01 1.11312581e-12 3.84218542e-14 0.00000000e+00 1.07470396e-12 0.00000000e+00 3.84218542e-14
2.05191907e+01 1.08110050e-12 3.48087501e-14 0.00000000e+00 1.04629175e-12 0.00000000e+00 3.48087501e-14
2.12059073e+01 1.04543773e-12 3.15354141e-14 0.00000000e+00 1.01390231e-12 0.00000000e+00 3.15354141e-14
2.19156062e+01 1.01948689e-12 2.85698952e-14 0.00000000e+00 9.90916992e-13 0.00000000e+00 2.85698952e-14
2.26490567e+01 9.89575264e-13 2.58832470e-14 0.00000000e+00 9.63692017e-13 0.00000000e+00 2.58832470e-14
2.34070535e+01 9.62423781e-13 2.34492452e-14 0.00000000e+00 9.38974535e-13 0.00000000e+00 2.34492452e-14
2.41904183e+01 9.38075725e-13 2.12441313e-14 0.00000000e+00 9.16831594e-13 0.00000000e+00 2.12441313e-14
2.50000000e+01 9.12509340e-13 1.92463813e-14 0.00000000e+00 8.93262959e-13 0.00000000e+00 1.92463813e-14
2.75422870e+01 8.37662863e-13 1.43935895e-14 0.00000000e+00 8.23269274e-13 0.00000000e+00 1.43935895e-14
3.16227766e+01 7.26315865e-13 9.50975027e-15 0.00000000e+00 7.16806115e-13 0.00000000e+00 9.50975027e-15
3.63078055e+01 5.96995100e-13 6.28302969e-15 0.00000000e+00 5.90712070e-13 0.00000000e+00 6.28302969e-15
4.16869383e+01 4.56941465e-13 4.15115655e-15 0.00000000e+00 4.52790308e-13 0.00000000e+00 4.15115655e-15
4.78630092e+01 3.27535073e-13 2.74264194e-15 0.00000000e+00 3.24792431e-13 0.00000000e+00 2.74264194e-15
5.49540874e+01 2.20795810e-13 1.81204556e-15 0.00000000e+00 2.18983765e-13 0.00000000e+00 1.81204556e-15
6.30957344e+01 1.41534385e-13 1.19720663e-15 0.00000000e+00 1.40337178e-13 0.00000000e+00 1.19720663e-15
7.24435960e+01 8.70651626e-14 7.90986575e-16 0.00000000e+00 8.62741761e-14 0.00000000e+00 7.90986575e-16
8.31763771e+01 5.18669291e-14 5.22599647e-16 0.00000000e+00 5.13443294e-14 0.00000000e+00 5.22599647e-16
9.54992586e+01 3.01457752e-14 3.45278163e-16 0.00000000e+00 2.98004970e-14 0.00000000e+00 3.45278163e-16
1.09647820e+02 1.71985439e-14 2.28123020e-16 0.00000000e+00 1.69704209e-14 0.00000000e+00 2.28123020e-16
1.25892541e+02 9.76317178e-15 1.50719385e-16 0.00000000e+00 9.61245240e-15 0.00000000e+00 1.50719385e-16
1.44543977e+02 5.49370694e-15 9.95793099e-17 0.00000000e+00 5.39412763e-15 0.00000000e+00 9.95793099e-17
1.65958691e+02 2.94287774e-15 6.57913976e-17 0.00000000e+00 2.87708634e-15 0.00000000e+00 6.57913976e-17
1.90546072e+02 1.57504994e-15 4.34679453e-17 0.00000000e+00 1.53158200e-15 0.00000000e+00 4.34679453e-17
2.18776162e+02 8.40522563e-16 2.87189867e-17 0.00000000e+00 8.11803577e-16 0.00000000e+00 2.87189867e-17
2.51188643e+02 4.46875978e-16 1.89744463e-17 0.00000000e+00 4.27901532e-16 0.00000000e+00 1.89744463e-17
2.88403150e+02 2.36624297e-16 1.25362924e-17 0.00000000e+00 2.24088005e-16 0.00000000e+00 1.25362924e-17
3.31131121e+02 1.25129708e-16 8.28264623e-18 0.00000000e+00 1.16847062e-16 0.00000000e+00 8.28264623e-18
3.80189396e+02 6.60838485e-17 5.47229010e-18 0.00000000e+00 6.06115584e-17 0.00000000e+00 5.47229010e-18
4.36515832e+02 3.49422593e-17 3.61550621e-18 0.00000000e+00 3.13267530e-17 0.00000000e+00 3.61550621e-18
5.01187234e+02 1.85188304e-17 2.38874127e-18 0.00000000e+00 1.61300891e-17 0.00000000e+00 2.38874127e-18
5.75439937e+02 9.85779882e-18 1.57822570e-18 0.00000000e+00 8.27957311e-18 0.00000000e+00 1.57822570e-18
6.60693448e+02 5.28121783e-18 1.04272338e-18 0.00000000e+00 4.23849445e-18 0.00000000e+00 1.04272338e-18
7.58577575e+02 2.85361159e-18 6.88920507e-19 0.00000000e+00 2.16469108e-18 0.00000000e+00 6.88920507e-19
8.70963590e+02 1.55820640e-18 4.55165265e-19 0.00000000e+00 1.10304114e-18 0.00000000e+00 4.55165265e-19
1.00000000e+03 5.60885836e-19 0.00000000e+00 0.00000000e+00 5.60885836e-19 0.00000000e+00 0.00000000e+00
