# column 1: lambda (micron)
# column 2: total flux; lambda*F_lambda (W/m2)
# column 3: direct stellar flux; lambda*F_lambda (W/m2)
# column 4: scattered stellar flux; lambda*F_lambda (W/m2)
# column 5: total dust emission flux; lambda*F_lambda (W/m2)
# column 6: dust emission scattered flux; lambda*F_lambda (W/m2)
# column 7: transparent flux; lambda*F_lambda (W/m2)
1.00000000e-03 1.04634409e-12 1.04634360e-12 4.83283455e-19 0.00000000e+00 0.00000000e+00 1.04634360e-12
1.14815362e-03 1.23502170e-12 1.23502095e-12 7.52875149e-19 0.00000000e+00 0.00000000e+00 1.23502095e-12
1.31825674e-03 1.45772185e-12 1.45772071e-12 1.13699966e-18 0.00000000e+00 0.00000000e+00 1.45772071e-12
1.51356125e-03 1.72057960e-12 1.72057784e-12 1.76517225e-18 0.00000000e+00 0.00000000e+00 1.72057784e-12
1.73780083e-03 2.03083669e-12 2.03083353e-12 3.16249643e-18 0.00000000e+00 0.00000000e+00 2.03083353e-12
1.99526231e-03 2.39704041e-12 2.39703472e-12 5.69315991e-18 0.00000000e+00 0.00000000e+00 2.39703472e-12
2.29086765e-03 2.82927837e-12 2.82926954e-12 8.82463478e-18 0.00000000e+00 0.00000000e+00 2.82926954e-12
2.63026799e-03 3.33946278e-12 3.33944522e-12 1.75523348e-17 0.00000000e+00 0.00000000e+00 3.33944522e-12
3.01995172e-03 3.94164668e-12 3.94161611e-12 3.05681993e-17 0.00000000e+00 0.00000000e+00 3.94161611e-12
3.46736850e-03 4.65242087e-12 4.65237083e-12 5.00416561e-17 0.00000000e+00 0.00000000e+00 4.65237083e-12
3.98107171e-03 5.49136723e-12 5.49128930e-12 7.79318734e-17 0.00000000e+00 0.00000000e+00 5.49128930e-12
4.57088190e-03 6.48165611e-12 6.48148207e-12 1.74040648e-16 0.00000000e+00 0.00000000e+00 6.48148207e-12
5.24807460e-03 7.65054190e-12 7.65022704e-12 3.14857485e-16 0.00000000e+00 0.00000000e+00 7.65022704e-12
6.02559586e-03 9.03029595e-12 9.02972084e-12 5.75103735e-16 0.00000000e+00 0.00000000e+00 9.02972084e-12
6.91830971e-03 1.06588676e-11 1.06579658e-11 9.01758319e-16 0.00000000e+00 0.00000000e+00 1.06579658e-11
7.94328235e-03 1.25813246e-11 1.25798170e-11 1.50760295e-15 1.59545971e-304 1.08779517e-307 1.25798170e-11
9.12010839e-03 1.48506049e-11 1.48482176e-11 2.38731961e-15 6.89941490e-266 6.67949688e-269 1.48482176e-11
1.04712855e-02 1.65868097e-11 1.65834298e-11 3.37992543e-15 2.88108634e-232 3.43021319e-235 1.65834298e-11
1.20226443e-02 1.65886005e-11 1.65834298e-11 5.17075171e-15 4.46516245e-203 7.51519995e-206 1.65834298e-11
1.38038426e-02 1.65907671e-11 1.65834298e-11 7.33727872e-15 1.20572438e-177 3.06342862e-180 1.65834298e-11
1.58489319e-02 1.65973030e-11 1.65834298e-11 1.38732233e-14 1.61880169e-155 6.11552928e-158 1.65834298e-11
1.81970086e-02 1.65983852e-11 1.65834298e-11 1.49553946e-14 2.86799632e-136 1.36797224e-138 1.65834298e-11
2.08929613e-02 1.66038443e-11 1.65834298e-11 2.04145173e-14 1.49071412e-119 1.06681739e-121 1.65834298e-11
2.39883292e-02 1.66122494e-11 1.65834298e-11 2.88195975e-14 5.20951808e-105 5.23288138e-107 1.65834298e-11
2.75422870e-02 1.66211460e-11 1.65834298e-11 3.77162577e-14 2.32330247e-92 3.00226838e-94 1.65834298e-11
3.16227766e-02 1.66311709e-11 1.65834298e-11 4.77410712e-14 2.25955299e-81 3.72838705e-83 1.65834298e-11
3.63078055e-02 1.66392658e-11 1.65834298e-11 5.58359748e-14 7.81798436e-72 1.52780392e-73 1.65834298e-11
4.16869383e-02 1.66625509e-11 1.65834298e-11 7.91211588e-14 1.48778825e-63 4.14225791e-65 1.65834298e-11
4.78630092e-02 1.66932788e-11 1.65834298e-11 1.09849019e-13 2.25598470e-56 8.85269991e-58 1.65834298e-11
5.49540874e-02 1.67229443e-11 1.65834298e-11 1.39514551e-13 3.76808363e-50 1.91581009e-51 1.65834298e-11
6.30957344e-02 1.67592032e-11 1.65834298e-11 1.75773367e-13 1.22801866e-44 7.94960051e-46 1.65834298e-11
7.24435960e-02 1.67597609e-11 1.65834298e-11 1.76331151e-13 7.13820355e-40 4.73768747e-41 1.65834298e-11
8.31763771e-02 1.67591427e-11 1.65834298e-11 1.75712875e-13 7.29665938e-36 4.82604922e-37 1.65834298e-11
9.54992586e-02 1.67650229e-11 1.65834298e-11 1.81593107e-13 2.05397898e-32 1.41446943e-33 1.65834298e-11
1.09647820e-01 1.60253850e-11 1.58370587e-11 1.88326257e-13 1.73671106e-29 1.25392168e-30 1.58370587e-11
1.25892541e-01 1.49447490e-11 1.47800032e-11 1.64745837e-13 5.57852829e-27 3.68455766e-28 1.47800032e-11
1.44543977e-01 1.39390586e-11 1.37935015e-11 1.45557078e-13 7.56250560e-25 4.76035097e-26 1.37935015e-11
1.65958691e-01 1.30214605e-11 1.28728446e-11 1.48615869e-13 3.82706434e-23 2.64545831e-24 1.28728446e-11
1.90546072e-01 1.21906066e-11 1.20136376e-11 1.76968999e-13 8.11163824e-22 6.93624886e-23 1.20136376e-11
2.18776162e-01 1.13927844e-11 1.12117790e-11 1.81005403e-13 9.69042190e-21 9.33067474e-22 1.12117790e-11
2.51188643e-01 1.06683785e-11 1.04634409e-11 2.04937481e-13 1.17975160e-19 1.37538692e-20 1.04634409e-11
2.88403150e-01 9.95093177e-12 9.76505125e-12 1.85879544e-13 9.76992488e-19 1.09963223e-19 9.76505125e-12
3.31131121e-01 9.27694952e-12 9.11327608e-12 1.63667868e-13 5.56877807e-18 5.92092972e-19 9.11327608e-12
3.80189396e-01 8.65251083e-12 8.50500410e-12 1.47483501e-13 2.32327648e-17 2.40357287e-18 8.50500410e-12
4.36515832e-01 8.07629660e-12 7.93733165e-12 1.38890164e-13 7.47886889e-17 7.90168134e-18 7.93733165e-12
5.01187234e-01 7.53017953e-12 7.40754890e-12 1.22427633e-13 2.02997023e-16 2.42599986e-17 7.40754890e-12
5.75439937e-01 7.03058470e-12 6.91312687e-12 1.16920975e-13 5.36858136e-16 8.04069161e-17 6.91312687e-12
6.60693448e-01 6.55987981e-12 6.45170538e-12 1.06609303e-13 1.56512097e-15 2.97830050e-16 6.45170538e-12
7.58577575e-01 6.12576411e-12 6.02108180e-12 9.97294667e-14 4.95284612e-15 1.05369137e-15 6.02108180e-12
8.70963590e-01 5.72357372e-12 5.61920048e-12 8.93935038e-14 1.49797307e-14 3.19663291e-15 5.61920048e-12
1.00000000e+00 5.36115527e-12 5.24414302e-12 7.66115303e-14 4.04007281e-14 8.18054247e-15 5.24414302e-12
1.14815362e+00 5.05630156e-12 4.89411902e-12 6.56791914e-14 9.65033462e-14 1.77235656e-14 4.89411902e-12
1.31825674e+00 4.82926890e-12 4.56745763e-12 5.34305724e-14 2.08380704e-13 3.36208136e-14 4.56745763e-12
1.51356125e+00 4.70483523e-12 4.26259947e-12 4.23549257e-14 3.99880830e-13 5.53282872e-14 4.26259947e-12
1.73780083e+00 4.69486823e-12 3.97808929e-12 3.27768204e-14 6.84002122e-13 7.83580601e-14 3.97808929e-12
1.99526231e+00 4.78674973e-12 3.71256894e-12 2.40031617e-14 1.05017763e-12 9.76801630e-14 3.71256894e-12
2.29086765e+00 4.94026869e-12 3.46477093e-12 1.77916499e-14 1.45770611e-12 1.05188491e-13 3.46477093e-12
2.63026799e+00 5.11289208e-12 3.23351237e-12 1.24800195e-14 1.86689969e-12 1.02624836e-13 3.23351237e-12
3.01995172e+00 5.24233734e-12 3.01768933e-12 8.73193061e-15 2.21591608e-12 9.08486394e-14 3.01768933e-12
3.46736850e+00 5.31375604e-12 2.81627154e-12 6.11491256e-15 2.49136959e-12 7.44963781e-14 2.81627154e-12
3.98107171e+00 5.28269205e-12 2.62829753e-12 3.99560052e-15 2.65039891e-12 5.66422247e-14 2.62829753e-12
4.57088190e+00 5.15619794e-12 2.45286997e-12 2.56741693e-15 2.70076055e-12 3.98223767e-14 2.45286997e-12
5.24807460e+00 4.68938593e-12 2.02814751e-12 1.41400774e-15 2.65982441e-12 2.63330294e-14 2.02814751e-12
6.02559586e+00 3.90819729e-12 1.33998377e-12 6.10101756e-16 2.56760341e-12 1.64329064e-14 1.33998377e-12
6.70000000e+00 3.44186548e-12 9.74709347e-13 3.05357494e-16 2.46685078e-12 1.09473625e-14 9.74709347e-13
6.92422916e+00 3.31249713e-12 8.83049889e-13 2.42933474e-16 2.42920431e-12 9.53230591e-15 8.83049889e-13
7.15596261e+00 3.20898350e-12 8.00009879e-13 1.88511822e-16 2.40878511e-12 8.20279546e-15 8.00009879e-13
7.39545150e+00 3.15365393e-12 7.24778763e-13 1.46619498e-16 2.42872855e-12 7.08146934e-15 7.24778763e-13
7.64295536e+00 3.22639044e-12 6.56622211e-13 1.02978235e-16 2.56966525e-12 5.95959723e-15 6.56622211e-13
7.89874245e+00 3.50044259e-12 5.94874946e-13 6.51111211e-17 2.90550253e-12 4.88440596e-15 5.94874946e-13
8.16308998e+00 3.91277422e-12 5.38934254e-13 3.97784391e-17 3.37380019e-12 3.94585067e-15 5.38934254e-13
8.43628443e+00 4.48799082e-12 4.88254098e-13 2.22420262e-17 3.99971448e-12 3.04738221e-15 4.88254098e-13
8.71862190e+00 4.88267445e-12 4.42339790e-13 1.34946192e-17 4.44032117e-12 2.40674533e-15 4.42339790e-13
9.01040836e+00 5.27157134e-12 4.00743158e-13 8.29040165e-18 4.87081990e-12 1.76039196e-15 4.00743158e-13
9.31196005e+00 5.59097561e-12 3.63058180e-13 0.00000000e+00 5.22791743e-12 0.00000000e+00 3.63058180e-13
9.62360379e+00 5.55197731e-12 3.28917012e-13 0.00000000e+00 5.22306030e-12 0.00000000e+00 3.28917012e-13
9.94567731e+00 5.29679191e-12 2.97986401e-13 0.00000000e+00 4.99880551e-12 0.00000000e+00 2.97986401e-13
1.02785297e+01 4.94024736e-12 2.69964435e-13 0.00000000e+00 4.67028292e-12 0.00000000e+00 2.69964435e-13
1.06225216e+01 4.57206227e-12 2.44577592e-13 0.00000000e+00 4.32748468e-12 0.00000000e+00 2.44577592e-13
1.09780260e+01 4.17898615e-12 2.21578069e-13 0.00000000e+00 3.95740808e-12 0.00000000e+00 2.21578069e-13
1.13454280e+01 3.84303682e-12 2.00741370e-13 0.00000000e+00 3.64229545e-12 0.00000000e+00 2.00741370e-13
1.17251259e+01 3.52802304e-12 1.81864106e-13 0.00000000e+00 3.34615894e-12 0.00000000e+00 1.81864106e-13
1.21175312e+01 3.25095708e-12 1.64762018e-13 0.00000000e+00 3.08619506e-12 0.00000000e+00 1.64762018e-13
1.25230691e+01 3.00044611e-12 1.49268171e-13 0.00000000e+00 2.85117794e-12 0.00000000e+00 1.49268171e-13
1.29421791e+01 2.77314595e-12 1.35231331e-13 0.00000000e+00 2.63791462e-12 0.00000000e+00 1.35231331e-13
1.33753155e+01 2.57507659e-12 1.22514483e-13 0.00000000e+00 2.45256211e-12 0.00000000e+00 1.22514483e-13
1.38229477e+01 2.44102163e-12 1.10993499e-13 0.00000000e+00 2.33002813e-12 0.00000000e+00 1.10993499e-13
1.42855609e+01 2.37611558e-12 1.00555922e-13 0.00000000e+00 2.27555966e-12 0.00000000e+00 1.00555922e-13
1.47636563e+01 2.40471986e-12 9.10998706e-14 0.00000000e+00 2.31361999e-12 0.00000000e+00 9.10998706e-14
1.52577522e+01 2.45486984e-12 8.25330452e-14 0.00000000e+00 2.37233680e-12 0.00000000e+00 8.25330452e-14
1.57683840e+01 2.52628393e-12 7.47718247e-14 0.00000000e+00 2.45151210e-12 0.00000000e+00 7.47718247e-14
1.62961051e+01 2.59421939e-12 6.77404517e-14 0.00000000e+00 2.52647894e-12 0.00000000e+00 6.77404517e-14
1.68414875e+01 2.66112186e-12 6.13702932e-14 0.00000000e+00 2.59975157e-12 0.00000000e+00 6.13702932e-14
1.74051222e+01 2.68459308e-12 5.55991699e-14 0.00000000e+00 2.62899391e-12 0.00000000e+00 5.55991699e-14
1.79876201e+01 2.69865042e-12 5.03707500e-14 0.00000000e+00 2.64827967e-12 0.00000000e+00 5.03707500e-14
1.85896125e+01 2.65302588e-12 4.56339988e-14 0.00000000e+00 2.60739188e-12 0.00000000e+00 4.56339988e-14
1.92117518e+01 2.59041611e-12 4.13426810e-14 0.00000000e+00 2.54907343e-12 0.00000000e+00 4.13426810e-14
1.98547123e+01 2.49992647e-12 3.74549090e-14 0.00000000e+00 2.46247156e-12 0.00000000e+00 3.74549090e-14
2.05191907e+01 2.39558626e-12 3.39327342e-14 0.00000000e+00 2.36165353e-12 0.00000000e+00 3.39327342e-14
2.12059073e+01 2.29593401e-12 3.07417768e-14 0.00000000e+00 2.26519223e-12 0.00000000e+00 3.07417768e-14
2.19156062e+01 2.19649776e-12 2.78508898e-14 0.00000000e+00 2.16864687e-12 0.00000000e+00 2.78508898e-14
2.26490567e+01 2.10658778e-12 2.52318552e-14 0.00000000e+00 2.08135593e-12 0.00000000e+00 2.52318552e-14
2.34070535e+01 2.01719238e-12 2.28591087e-14 0.00000000e+00 1.99433327e-12 0.00000000e+00 2.28591087e-14
2.41904183e+01 1.92346964e-12 2.07094900e-14 0.00000000e+00 1.90276015e-12 0.00000000e+00 2.07094900e-14
2.50000000e+01 1.83595970e-12 1.87620165e-14 0.00000000e+00 1.81719769e-12 0.00000000e+00 1.87620165e-14
2.75422870e+01 1.58277716e-12 1.40313526e-14 0.00000000e+00 1.56874581e-12 0.00000000e+00 1.40313526e-14
3.16227766e+01 1.23757267e-12 9.27042274e-15 0.00000000e+00 1.22830225e-12 0.00000000e+00 9.27042274e-15
3.63078055e+01 9.12993742e-13 6.12490756e-15 0.00000000e+00 9.06868834e-13 0.00000000e+00 6.12490756e-15
4.16869383e+01 6.32083971e-13 4.04668630e-15 0.00000000e+00 6.28037285e-13 0.00000000e+00 4.04668630e-15
4.78630092e+01 4.08598722e-13 2.67361912e-15 0.00000000e+00 4.05925102e-13 0.00000000e+00 2.67361912e-15
5.49540874e+01 2.50428938e-13 1.76644264e-15 0.00000000e+00 2.48662495e-13 0.00000000e+00 1.76644264e-15
6.30957344e+01 1.47256245e-13 1.16707708e-15 0.00000000e+00 1.46089168e-13 0.00000000e+00 1.16707708e-15
7.24435960e+01 8.37620454e-14 7.71080178e-16 0.00000000e+00 8.29909652e-14 0.00000000e+00 7.71080178e-16
8.31763771e+01 4.65961532e-14 5.09447621e-16 0.00000000e+00 4.60867056e-14 0.00000000e+00 5.09447621e-16
9.54992586e+01 2.54944000e-14 3.36588705e-16 0.00000000e+00 2.51578113e-14 0.00000000e+00 3.36588705e-16
1.09647820e+02 1.37945722e-14 2.22381952e-16 0.00000000e+00 1.35721903e-14 0.00000000e+00 2.22381952e-16
1.25892541e+02 7.49289600e-15 1.46926299e-16 0.00000000e+00 7.34596970e-15 0.00000000e+00 1.46926299e-16
1.44543977e+02 4.06140712e-15 9.70732430e-17 0.00000000e+00 3.96433388e-15 0.00000000e+00 9.70732430e-17
1.65958691e+02 2.10518790e-15 6.41356556e-17 0.00000000e+00 2.04105224e-15 0.00000000e+00 6.41356556e-17
1.90546072e+02 1.09654770e-15 4.23740075e-17 0.00000000e+00 1.05417369e-15 0.00000000e+00 4.23740075e-17
2.18776162e+02 5.72567348e-16 2.79962291e-17 0.00000000e+00 5.44571119e-16 0.00000000e+00 2.79962291e-17
2.51188643e+02 2.99270738e-16 1.84969251e-17 0.00000000e+00 2.80773813e-16 0.00000000e+00 1.84969251e-17
2.88403150e+02 1.56506594e-16 1.22207972e-17 0.00000000e+00 1.44285797e-16 0.00000000e+00 1.22207972e-17
3.31131121e+02 8.20919795e-17 8.07420067e-18 0.00000000e+00 7.40177788e-17 0.00000000e+00 8.07420067e-18
3.80189396e+02 4.31953953e-17 5.33457148e-18 0.00000000e+00 3.78608238e-17 0.00000000e+00 5.33457148e-18
4.36515832e+02 2.28574364e-17 3.52451642e-18 0.00000000e+00 1.93329200e-17 0.00000000e+00 3.52451642e-18
5.01187234e+02 1.21801993e-17 2.32862491e-18 0.00000000e+00 9.85157440e-18 0.00000000e+00 2.32862491e-18
5.75439937e+02 6.55015139e-18 1.53850722e-18 0.00000000e+00 5.01164417e-18 0.00000000e+00 1.53850722e-18
6.60693448e+02 3.56224719e-18 1.01648164e-18 0.00000000e+00 2.54576555e-18 0.00000000e+00 1.01648164e-18
7.58577575e+02 1.96308753e-18 6.71582760e-19 0.00000000e+00 1.29150477e-18 0.00000000e+00 6.71582760e-19
8.70963590e+02 1.09801173e-18 4.43710329e-19 0.00000000e+00 6.54301399e-19 0.00000000e+00 4.43710329e-19
1.00000000e+03 3.31045777e-19 0.00000000e+00 0.00000000e+00 3.31045777e-19 0.00000000e+00 0.00000000e+00
