# column 1: lambda (micron)
# column 2: total flux; lambda*F_lambda (W/m2)
# column 3: direct stellar flux; lambda*F_lambda (W/m2)
# column 4: scattered stellar flux; lambda*F_lambda (W/m2)
# column 5: total dust emission flux; lambda*F_lambda (W/m2)
# column 6: dust emission scattered flux; lambda*F_lambda (W/m2)
# column 7: transparent flux; lambda*F_lambda (W/m2)
1.00000000e-03 1.07335861e-12 1.07335627e-12 2.34291076e-18 0.00000000e+00 0.00000000e+00 1.07335627e-12
1.14815362e-03 1.26690808e-12 1.26690456e-12 3.52438603e-18 0.00000000e+00 0.00000000e+00 1.26690456e-12
1.31825674e-03 1.49535896e-12 1.49535359e-12 5.36658400e-18 0.00000000e+00 0.00000000e+00 1.49535359e-12
1.51356125e-03 1.76500514e-12 1.76499670e-12 8.44369742e-18 0.00000000e+00 0.00000000e+00 1.76499670e-12
1.73780083e-03 2.08327688e-12 2.08326203e-12 1.48491732e-17 0.00000000e+00 0.00000000e+00 2.08326203e-12
1.99526231e-03 2.45894299e-12 2.45891716e-12 2.58333556e-17 0.00000000e+00 0.00000000e+00 2.45891716e-12
2.29086765e-03 2.90235134e-12 2.90231066e-12 4.06737297e-17 0.00000000e+00 0.00000000e+00 2.90231066e-12
2.63026799e-03 3.42573898e-12 3.42565717e-12 8.18126705e-17 0.00000000e+00 0.00000000e+00 3.42565717e-12
3.01995172e-03 4.04351038e-12 4.04337385e-12 1.36533853e-16 0.00000000e+00 0.00000000e+00 4.04337385e-12
3.46736850e-03 4.77270481e-12 4.77247759e-12 2.27221525e-16 0.00000000e+00 0.00000000e+00 4.77247759e-12
3.98107171e-03 5.63341541e-12 5.63305378e-12 3.61628885e-16 0.00000000e+00 0.00000000e+00 5.63305378e-12
4.57088190e-03 6.64960636e-12 6.64880962e-12 7.96735913e-16 0.00000000e+00 0.00000000e+00 6.64880962e-12
5.24807460e-03 7.84915100e-12 7.84772720e-12 1.42380529e-15 0.00000000e+00 0.00000000e+00 7.84772720e-12
6.02559586e-03 9.26548007e-12 9.26283435e-12 2.64571191e-15 0.00000000e+00 0.00000000e+00 9.26283435e-12
6.91830971e-03 1.09401264e-11 1.09331145e-11 7.01184169e-15 0.00000000e+00 0.00000000e+00 1.09331145e-11
7.94328235e-03 1.29114640e-11 1.29045807e-11 6.88327957e-15 5.00115457e-304 6.87560760e-307 1.29045807e-11
9.12010839e-03 1.52445802e-11 1.52315429e-11 1.30373038e-14 2.09488840e-265 3.92051175e-268 1.52315429e-11
1.04712855e-02 1.70296270e-11 1.70115517e-11 1.80752776e-14 8.51129685e-232 2.21198824e-234 1.70115517e-11
1.20226443e-02 1.70361014e-11 1.70115517e-11 2.45496350e-14 1.29328445e-202 9.86436397e-205 1.70115517e-11
1.38038426e-02 1.70482391e-11 1.70115517e-11 3.66873770e-14 3.40727214e-177 1.72493449e-179 1.70115517e-11
1.58489319e-02 1.70655419e-11 1.70115517e-11 5.39901536e-14 4.49595451e-155 3.33418077e-157 1.70115517e-11
1.81970086e-02 1.70788574e-11 1.70115517e-11 6.73057226e-14 7.85226154e-136 7.98174553e-138 1.70115517e-11
2.08929613e-02 1.71037120e-11 1.70115517e-11 9.21602973e-14 4.03397510e-119 5.97869964e-121 1.70115517e-11
2.39883292e-02 1.71364360e-11 1.70115517e-11 1.24884282e-13 1.39670747e-104 2.87104218e-106 1.70115517e-11
2.75422870e-02 1.71802018e-11 1.70115517e-11 1.68650117e-13 6.17992890e-92 1.61114702e-93 1.70115517e-11
3.16227766e-02 1.72238943e-11 1.70115517e-11 2.12342570e-13 5.97734160e-81 1.98702203e-82 1.70115517e-11
3.63078055e-02 1.72530443e-11 1.70115517e-11 2.41492630e-13 2.05501032e-71 7.78316140e-73 1.70115517e-11
4.16869383e-02 1.73463874e-11 1.70115517e-11 3.34835653e-13 3.90849112e-63 2.03821315e-64 1.70115517e-11
4.78630092e-02 1.74560982e-11 1.70115517e-11 4.44546467e-13 5.91820493e-56 4.00635672e-57 1.70115517e-11
5.49540874e-02 1.75530175e-11 1.70115517e-11 5.41465825e-13 9.86979622e-50 8.14234853e-51 1.70115517e-11
6.30957344e-02 1.76393045e-11 1.70115517e-11 6.27752828e-13 3.20323204e-44 3.09137215e-45 1.70115517e-11
7.24435960e-02 1.76064180e-11 1.70115517e-11 5.94866247e-13 1.84299458e-39 1.70736363e-40 1.70115517e-11
8.31763771e-02 1.76043904e-11 1.70115517e-11 5.92838659e-13 1.87473451e-35 1.70925032e-36 1.70115517e-11
9.54992586e-02 1.76177799e-11 1.70115517e-11 6.06228203e-13 5.26626975e-32 4.98406830e-33 1.70115517e-11
1.09647820e-01 1.68666862e-11 1.62459122e-11 6.20774089e-13 4.45800367e-29 4.51155683e-30 1.62459122e-11
1.25892541e-01 1.57294818e-11 1.51615674e-11 5.67914439e-13 1.43353638e-26 1.40798038e-27 1.51615674e-11
1.44543977e-01 1.46610201e-11 1.41495980e-11 5.11422092e-13 1.93795151e-24 1.83006322e-25 1.41495980e-11
1.65958691e-01 1.37317421e-11 1.32051732e-11 5.26568896e-13 9.80849946e-23 1.00104760e-23 1.32051732e-11
1.90546072e-01 1.29030564e-11 1.23237846e-11 5.79271799e-13 2.08070762e-21 2.49645403e-22 1.23237846e-11
2.18776162e-01 1.20508511e-11 1.15012250e-11 5.49626038e-13 2.46784132e-20 3.09201153e-21 1.15012250e-11
2.51188643e-01 1.13597304e-11 1.07335677e-11 6.26162375e-13 3.01734001e-19 4.50470952e-20 1.07335677e-11
2.88403150e-01 1.05917446e-11 1.00171482e-11 5.74593824e-13 2.50212295e-18 3.65642160e-19 1.00171482e-11
3.31131121e-01 9.86475763e-12 9.34854667e-12 5.16196590e-13 1.43637736e-17 2.03881106e-18 9.34854667e-12
3.80189396e-01 9.19830613e-12 8.72457139e-12 4.73673470e-13 6.12730801e-17 8.62096737e-18 8.72457139e-12
4.36515832e-01 8.56903243e-12 8.14224377e-12 4.26577952e-13 2.10711152e-16 3.03684812e-17 8.14224377e-12
5.01187234e-01 7.99541768e-12 7.59878402e-12 3.95977698e-13 6.55968071e-16 1.03114920e-16 7.59878402e-12
5.75439937e-01 7.45124715e-12 7.09159786e-12 3.57546044e-13 2.10324207e-15 3.96270729e-16 7.09159786e-12
6.60693448e-01 6.95025064e-12 6.61826421e-12 3.25042414e-13 6.94402023e-15 1.49896279e-15 6.61826421e-12
7.58577575e-01 6.48727291e-12 6.17652353e-12 2.88750408e-13 2.19989664e-14 5.14653723e-15 6.17652353e-12
8.70963590e-01 6.07922747e-12 5.76426715e-12 2.52338848e-13 6.26214674e-14 1.46727181e-14 5.76426715e-12
1.00000000e+00 5.74968724e-12 5.37952711e-12 2.13129331e-13 1.57030798e-13 3.57042281e-14 5.37952711e-12
1.14815362e+00 5.54778364e-12 5.02046681e-12 1.75540577e-13 3.51776248e-13 7.46387870e-14 5.02046681e-12
1.31825674e+00 5.53555843e-12 4.68537225e-12 1.37040255e-13 7.13145929e-13 1.34174967e-13 4.68537225e-12
1.51356125e+00 5.78988578e-12 4.37264380e-12 1.08498934e-13 1.30874305e-12 2.14314921e-13 4.37264380e-12
1.73780083e+00 6.31328975e-12 4.08078863e-12 8.33092478e-14 2.14919187e-12 2.96370163e-13 4.08078863e-12
1.99526231e+00 7.07368822e-12 3.80841354e-12 6.22442071e-14 3.20303047e-12 3.55584341e-13 3.80841354e-12
2.29086765e+00 7.96205708e-12 3.55421832e-12 4.54695954e-14 4.36236917e-12 3.76110461e-13 3.55421832e-12
2.63026799e+00 8.83261282e-12 3.31698953e-12 3.24918418e-14 5.48313145e-12 3.61034313e-13 3.31698953e-12
3.01995172e+00 9.57820509e-12 3.09559474e-12 2.28929407e-14 6.45971741e-12 3.16178277e-13 3.09559474e-12
3.46736850e+00 1.00665015e-11 2.88897711e-12 1.57667921e-14 7.16175762e-12 2.57507254e-13 2.88897711e-12
3.98107171e+00 1.03370511e-11 2.69615031e-12 1.06494802e-14 7.63025135e-12 1.94705581e-13 2.69615031e-12
4.57088190e+00 1.03129955e-11 2.51619387e-12 6.93398940e-15 7.78986767e-12 1.38725986e-13 2.51619387e-12
5.24807460e+00 9.83058809e-12 2.08050667e-12 3.88726129e-15 7.74619416e-12 9.26160462e-14 2.08050667e-12
6.02559586e+00 8.95265721e-12 1.37457712e-12 1.66390196e-15 7.57641619e-12 5.90311983e-14 1.37457712e-12
6.70000000e+00 8.39098688e-12 9.99872685e-13 8.40689608e-16 7.39027350e-12 3.99273417e-14 9.99872685e-13
6.92422916e+00 8.22037407e-12 9.05846924e-13 6.86665470e-16 7.31384048e-12 3.52163222e-14 9.05846924e-13
7.15596261e+00 8.11314867e-12 8.20663132e-13 5.35899337e-16 7.29194964e-12 3.06426133e-14 8.20663132e-13
7.39545150e+00 8.10761885e-12 7.43489831e-13 4.09340504e-16 7.36371968e-12 2.63417226e-14 7.43489831e-13
7.64295536e+00 8.42877897e-12 6.73573732e-13 2.88156587e-16 7.75491708e-12 2.21208050e-14 6.73573732e-13
7.89874245e+00 9.24817692e-12 6.10232385e-13 1.82829887e-16 8.63776170e-12 1.77412843e-14 6.10232385e-13
8.16308998e+00 1.04182997e-11 5.52847515e-13 1.07430098e-16 9.86534472e-12 1.40675368e-14 5.52847515e-13
8.43628443e+00 1.19402110e-11 5.00858987e-13 5.99222700e-17 1.14392921e-11 1.07382113e-14 5.00858987e-13
8.71862190e+00 1.30292548e-11 4.53759343e-13 3.74648894e-17 1.25754580e-11 8.54109121e-15 4.53759343e-13
9.01040836e+00 1.40587939e-11 4.11088843e-13 2.23282929e-17 1.36476827e-11 6.43017561e-15 4.11088843e-13
9.31196005e+00 1.49553222e-11 3.72430980e-13 0.00000000e+00 1.45828912e-11 0.00000000e+00 3.72430980e-13
9.62360379e+00 1.48278871e-11 3.37408415e-13 0.00000000e+00 1.44904787e-11 0.00000000e+00 3.37408415e-13
9.94567731e+00 1.42933327e-11 3.05679292e-13 0.00000000e+00 1.39876534e-11 0.00000000e+00 3.05679292e-13
1.02785297e+01 1.34932719e-11 2.76933904e-13 0.00000000e+00 1.32163380e-11 0.00000000e+00 2.76933904e-13
1.06225216e+01 1.27140765e-11 2.50891667e-13 0.00000000e+00 1.24631848e-11 0.00000000e+00 2.50891667e-13
1.09780260e+01 1.19056293e-11 2.27298384e-13 0.00000000e+00 1.16783310e-11 0.00000000e+00 2.27298384e-13
1.13454280e+01 1.11597187e-11 2.05923759e-13 0.00000000e+00 1.09537950e-11 0.00000000e+00 2.05923759e-13
1.17251259e+01 1.05037579e-11 1.86559155e-13 0.00000000e+00 1.03171988e-11 0.00000000e+00 1.86559155e-13
1.21175312e+01 9.87931220e-12 1.69015555e-13 0.00000000e+00 9.71029665e-12 0.00000000e+00 1.69015555e-13
1.25230691e+01 9.36295568e-12 1.53121715e-13 0.00000000e+00 9.20983397e-12 0.00000000e+00 1.53121715e-13
1.29421791e+01 8.89470196e-12 1.38722496e-13 0.00000000e+00 8.75597946e-12 0.00000000e+00 1.38722496e-13
1.33753155e+01 8.50323737e-12 1.25677347e-13 0.00000000e+00 8.37756002e-12 0.00000000e+00 1.25677347e-13
1.38229477e+01 8.26938297e-12 1.13858934e-13 0.00000000e+00 8.15552404e-12 0.00000000e+00 1.13858934e-13
1.42855609e+01 8.18676196e-12 1.03151898e-13 0.00000000e+00 8.08361006e-12 0.00000000e+00 1.03151898e-13
1.47636563e+01 8.37747605e-12 9.34517274e-14 0.00000000e+00 8.28402432e-12 0.00000000e+00 9.34517274e-14
1.52577522e+01 8.61015320e-12 8.46637387e-14 0.00000000e+00 8.52548946e-12 0.00000000e+00 8.46637387e-14
1.57683840e+01 8.91870029e-12 7.67021526e-14 0.00000000e+00 8.84199813e-12 0.00000000e+00 7.67021526e-14
1.62961051e+01 9.23159105e-12 6.94892560e-14 0.00000000e+00 9.16210179e-12 0.00000000e+00 6.94892560e-14
1.68414875e+01 9.51146352e-12 6.29546439e-14 0.00000000e+00 9.44850887e-12 0.00000000e+00 6.29546439e-14
1.74051222e+01 9.70046777e-12 5.70345319e-14 0.00000000e+00 9.64343324e-12 0.00000000e+00 5.70345319e-14
1.79876201e+01 9.85198237e-12 5.16711337e-14 0.00000000e+00 9.80031124e-12 0.00000000e+00 5.16711337e-14
1.85896125e+01 9.85705353e-12 4.68120974e-14 0.00000000e+00 9.81024143e-12 0.00000000e+00 4.68120974e-14
1.92117518e+01 9.78467614e-12 4.24099939e-14 0.00000000e+00 9.74226615e-12 0.00000000e+00 4.24099939e-14
1.98547123e+01 9.57184356e-12 3.84218542e-14 0.00000000e+00 9.53342171e-12 0.00000000e+00 3.84218542e-14
2.05191907e+01 9.39991437e-12 3.48087501e-14 0.00000000e+00 9.36510562e-12 0.00000000e+00 3.48087501e-14
2.12059073e+01 9.13975288e-12 3.15354141e-14 0.00000000e+00 9.10821746e-12 0.00000000e+00 3.15354141e-14
2.19156062e+01 8.95361839e-12 2.85698952e-14 0.00000000e+00 8.92504849e-12 0.00000000e+00 2.85698952e-14
2.26490567e+01 8.69224385e-12 2.58832470e-14 0.00000000e+00 8.66636060e-12 0.00000000e+00 2.58832470e-14
2.34070535e+01 8.46761134e-12 2.34492452e-14 0.00000000e+00 8.44416209e-12 0.00000000e+00 2.34492452e-14
2.41904183e+01 8.23810896e-12 2.12441313e-14 0.00000000e+00 8.21686483e-12 0.00000000e+00 2.12441313e-14
2.50000000e+01 7.97451050e-12 1.92463813e-14 0.00000000e+00 7.95526412e-12 0.00000000e+00 1.92463813e-14
2.75422870e+01 7.15337328e-12 1.43935895e-14 0.00000000e+00 7.13897969e-12 0.00000000e+00 1.43935895e-14
3.16227766e+01 5.89606161e-12 9.50975027e-15 0.00000000e+00 5.88655186e-12 0.00000000e+00 9.50975027e-15
3.63078055e+01 4.54889067e-12 6.28302969e-15 0.00000000e+00 4.54260764e-12 0.00000000e+00 6.28302969e-15
4.16869383e+01 3.26914315e-12 4.15115655e-15 0.00000000e+00 3.26499199e-12 0.00000000e+00 4.15115655e-15
4.78630092e+01 2.19259861e-12 2.74264194e-15 0.00000000e+00 2.18985597e-12 0.00000000e+00 2.74264194e-15
5.49540874e+01 1.38557409e-12 1.81204556e-15 0.00000000e+00 1.38376205e-12 0.00000000e+00 1.81204556e-15
6.30957344e+01 8.35637242e-13 1.19720663e-15 0.00000000e+00 8.34440035e-13 0.00000000e+00 1.19720663e-15
7.24435960e+01 4.84868958e-13 7.90986575e-16 0.00000000e+00 4.84077971e-13 0.00000000e+00 7.90986575e-16
8.31763771e+01 2.73855817e-13 5.22599647e-16 0.00000000e+00 2.73333217e-13 0.00000000e+00 5.22599647e-16
9.54992586e+01 1.51621452e-13 3.45278163e-16 0.00000000e+00 1.51276174e-13 0.00000000e+00 3.45278163e-16
1.09647820e+02 8.28037128e-14 2.28123020e-16 0.00000000e+00 8.25755898e-14 0.00000000e+00 2.28123020e-16
1.25892541e+02 4.52306834e-14 1.50719385e-16 0.00000000e+00 4.50799640e-14 0.00000000e+00 1.50719385e-16
1.44543977e+02 2.45974963e-14 9.95793099e-17 0.00000000e+00 2.44979169e-14 0.00000000e+00 9.95793099e-17
1.65958691e+02 1.27635170e-14 6.57913976e-17 0.00000000e+00 1.26977256e-14 0.00000000e+00 6.57913976e-17
1.90546072e+02 6.63582436e-15 4.34679453e-17 0.00000000e+00 6.59235641e-15 0.00000000e+00 4.34679453e-17
2.18776162e+02 3.44856445e-15 2.87189867e-17 0.00000000e+00 3.41984547e-15 0.00000000e+00 2.87189867e-17
2.51188643e+02 1.78844894e-15 1.89744463e-17 0.00000000e+00 1.76947450e-15 0.00000000e+00 1.89744463e-17
2.88403150e+02 9.24375616e-16 1.25362924e-17 0.00000000e+00 9.11839324e-16 0.00000000e+00 1.25362924e-17
3.31131121e+02 4.77191493e-16 8.28264623e-18 0.00000000e+00 4.68908847e-16 0.00000000e+00 8.28264623e-18
3.80189396e+02 2.45805485e-16 5.47229010e-18 0.00000000e+00 2.40333195e-16 0.00000000e+00 5.47229010e-18
4.36515832e+02 1.26543365e-16 3.61550621e-18 0.00000000e+00 1.22927859e-16 0.00000000e+00 3.61550621e-18
5.01187234e+02 6.51173437e-17 2.38874127e-18 0.00000000e+00 6.27286024e-17 0.00000000e+00 2.38874127e-18
5.75439937e+02 3.35270264e-17 1.57822570e-18 0.00000000e+00 3.19488007e-17 0.00000000e+00 1.57822570e-18
6.60693448e+02 1.72882711e-17 1.04272338e-18 0.00000000e+00 1.62455477e-17 0.00000000e+00 1.04272338e-18
7.58577575e+02 8.93763472e-18 6.88920507e-19 0.00000000e+00 8.24871421e-18 0.00000000e+00 6.88920507e-19
8.70963590e+02 4.63716309e-18 4.55165265e-19 0.00000000e+00 4.18199782e-18 0.00000000e+00 4.55165265e-19
1.00000000e+03 2.11719820e-18 0.00000000e+00 0.00000000e+00 2.11719820e-18 0.00000000e+00 0.00000000e+00
