# column 1: lambda (micron)
# column 2: total flux; lambda*F_lambda (W/m2)
# column 3: direct stellar flux; lambda*F_lambda (W/m2)
# column 4: scattered stellar flux; lambda*F_lambda (W/m2)
# column 5: total dust emission flux; lambda*F_lambda (W/m2)
# column 6: dust emission scattered flux; lambda*F_lambda (W/m2)
# column 7: transparent flux; lambda*F_lambda (W/m2)
1.00000000e-03 8.46531166e-13 8.46529401e-13 1.76486015e-18 0.00000000e+00 0.00000000e+00 8.46529401e-13
1.14815362e-03 9.99178817e-13 9.99176121e-13 2.69672796e-18 0.00000000e+00 0.00000000e+00 9.99176121e-13
1.31825674e-03 1.17935226e-12 1.17934819e-12 4.06926463e-18 0.00000000e+00 0.00000000e+00 1.17934819e-12
1.51356125e-03 1.39201526e-12 1.39200901e-12 6.24718580e-18 0.00000000e+00 0.00000000e+00 1.39200901e-12
1.73780083e-03 1.64302819e-12 1.64301696e-12 1.12306681e-17 0.00000000e+00 0.00000000e+00 1.64301696e-12
1.99526231e-03 1.93930712e-12 1.93928682e-12 2.03031135e-17 0.00000000e+00 0.00000000e+00 1.93928682e-12
2.29086765e-03 2.28901140e-12 2.28898025e-12 3.11489165e-17 0.00000000e+00 0.00000000e+00 2.28898025e-12
2.63026799e-03 2.70179274e-12 2.70173063e-12 6.21143976e-17 0.00000000e+00 0.00000000e+00 2.70173063e-12
3.01995172e-03 3.18901249e-12 3.18890841e-12 1.04076353e-16 0.00000000e+00 0.00000000e+00 3.18890841e-12
3.46736850e-03 3.76410876e-12 3.76393440e-12 1.74355420e-16 0.00000000e+00 0.00000000e+00 3.76393440e-12
3.98107171e-03 4.44294528e-12 4.44264945e-12 2.95835390e-16 0.00000000e+00 0.00000000e+00 4.44264945e-12
4.57088190e-03 5.24437042e-12 5.24375082e-12 6.19594426e-16 0.00000000e+00 0.00000000e+00 5.24375082e-12
5.24807460e-03 6.19043007e-12 6.18930730e-12 1.12276528e-15 0.00000000e+00 0.00000000e+00 6.18930730e-12
6.02559586e-03 7.30740762e-12 7.30536713e-12 2.04048762e-15 0.00000000e+00 0.00000000e+00 7.30536713e-12
6.91830971e-03 8.62589344e-12 8.62267558e-12 3.21786737e-15 0.00000000e+00 0.00000000e+00 8.62267558e-12
7.94328235e-03 1.01833366e-11 1.01775219e-11 5.81471860e-15 0.00000000e+00 0.00000000e+00 1.01775219e-11
9.12010839e-03 1.20223021e-11 1.20127391e-11 9.56296471e-15 0.00000000e+00 0.00000000e+00 1.20127391e-11
1.04712855e-02 1.34309295e-11 1.34165878e-11 1.43416757e-14 0.00000000e+00 0.00000000e+00 1.34165878e-11
1.20226443e-02 1.34372592e-11 1.34165878e-11 2.06714069e-14 0.00000000e+00 0.00000000e+00 1.34165878e-11
1.38038426e-02 1.34439863e-11 1.34165878e-11 2.73984578e-14 2.24900258e-279 2.13087676e-281 1.34165878e-11
1.58489319e-02 1.34715409e-11 1.34165878e-11 5.49530745e-14 2.34765936e-244 2.20632983e-246 1.34165878e-11
1.81970086e-02 1.34716153e-11 1.34165878e-11 5.50274883e-14 7.11933296e-214 8.83812723e-216 1.34165878e-11
2.08929613e-02 1.35053157e-11 1.34165878e-11 8.87279057e-14 2.28309062e-187 4.28334775e-189 1.34165878e-11
2.39883292e-02 1.35188634e-11 1.34165878e-11 1.02275579e-13 2.71789402e-164 6.61138702e-166 1.34165878e-11
2.75422870e-02 1.35525886e-11 1.34165878e-11 1.36000762e-13 3.32277079e-144 1.05709144e-145 1.34165878e-11
3.16227766e-02 1.35879271e-11 1.34165878e-11 1.71339227e-13 9.83114551e-127 3.82562627e-128 1.34165878e-11
3.63078055e-02 1.36104762e-11 1.34165878e-11 1.93888408e-13 1.52699988e-111 7.14743834e-113 1.34165878e-11
4.16869383e-02 1.36778621e-11 1.34165878e-11 2.61274242e-13 2.46457331e-98 1.50022508e-99 1.34165878e-11
4.78630092e-02 1.37548804e-11 1.34165878e-11 3.38292593e-13 7.44092126e-87 5.78283624e-88 1.34165878e-11
5.49540874e-02 1.38122906e-11 1.34165878e-11 3.95702758e-13 7.15547623e-77 6.99457656e-78 1.34165878e-11
6.30957344e-02 1.38418996e-11 1.34165878e-11 4.25311765e-13 4.73225909e-68 5.85453569e-69 1.34165878e-11
7.24435960e-02 1.38135993e-11 1.34165878e-11 3.97011472e-13 2.38674211e-60 3.37087976e-61 1.34165878e-11
8.31763771e-02 1.38094082e-11 1.34165878e-11 3.92820387e-13 1.12774285e-53 1.89680382e-54 1.34165878e-11
9.54992586e-02 1.38178590e-11 1.34165878e-11 4.01271163e-13 8.20976014e-48 1.59745430e-48 1.34165878e-11
1.09647820e-01 1.32285840e-11 1.28127470e-11 4.15837016e-13 1.06713046e-42 2.32912851e-43 1.28127470e-11
1.25892541e-01 1.23439229e-11 1.19575512e-11 3.86371725e-13 3.05588414e-38 6.79548853e-39 1.19575512e-11
1.44543977e-01 1.15032078e-11 1.11594361e-11 3.43771688e-13 2.22034733e-34 4.90405434e-35 1.11594361e-11
1.65958691e-01 1.07610845e-11 1.04145917e-11 3.46492787e-13 3.90663211e-31 9.48868654e-32 1.04145917e-11
1.90546072e-01 1.00869696e-11 9.71946251e-12 3.67507056e-13 1.87738221e-28 5.37479957e-29 9.71946251e-12
2.18776162e-01 9.42969139e-12 9.07073019e-12 3.58961201e-13 3.38835270e-26 1.02680853e-26 9.07073019e-12
2.51188643e-01 8.85095366e-12 8.46529796e-12 3.85655697e-13 5.58878438e-24 1.98620548e-24 8.46529796e-12
2.88403150e-01 8.25510076e-12 7.90027573e-12 3.54825024e-13 4.46672031e-22 1.58828053e-22 7.90027573e-12
3.31131121e-01 7.69163989e-12 7.37296631e-12 3.18673569e-13 1.89796734e-20 6.70775747e-21 7.37296631e-12
3.80189396e-01 7.16978582e-12 6.88085251e-12 2.88932831e-13 4.74578949e-19 1.67243663e-19 6.88085251e-12
4.36515832e-01 6.68013588e-12 6.42158520e-12 2.58543373e-13 7.30856150e-18 2.51712185e-18 6.42158520e-12
5.01187234e-01 6.22867040e-12 5.99297201e-12 2.35624357e-13 7.40360617e-17 2.53167823e-17 5.99297201e-12
5.75439937e-01 5.81158661e-12 5.59296690e-12 2.18094655e-13 5.25053246e-16 1.75691845e-16 5.59296690e-12
6.60693448e-01 5.41814731e-12 5.21966041e-12 1.95765289e-13 2.72160917e-15 8.83530513e-16 5.21966041e-12
7.58577575e-01 5.05701297e-12 4.87127053e-12 1.74857620e-13 1.08848227e-14 3.38704015e-15 4.87127053e-12
8.70963590e-01 4.73487664e-12 4.54613417e-12 1.53591732e-13 3.51507374e-14 1.02811143e-14 4.54613417e-12
1.00000000e+00 4.46798807e-12 4.24269927e-12 1.32301769e-13 9.29870294e-14 2.49329669e-14 4.24269927e-12
1.14815362e+00 4.28407166e-12 3.95951734e-12 1.10463103e-13 2.14091219e-13 5.12984407e-14 3.95951734e-12
1.31825674e+00 4.21981236e-12 3.69523659e-12 8.90800092e-14 4.35495769e-13 9.00912150e-14 3.69523659e-12
1.51356125e+00 4.30983214e-12 3.44859544e-12 7.06474230e-14 7.90589284e-13 1.37971698e-13 3.44859544e-12
1.73780083e+00 4.56625789e-12 3.21841652e-12 5.44511480e-14 1.29339022e-12 1.84979146e-13 3.21841652e-12
1.99526231e+00 4.94572383e-12 3.00360106e-12 4.14925598e-14 1.90063021e-12 2.13839639e-13 3.00360106e-12
2.29086765e+00 5.37869511e-12 2.80312361e-12 3.03106470e-14 2.54526086e-12 2.17155663e-13 2.80312361e-12
2.63026799e+00 5.79522114e-12 2.61602716e-12 2.14305269e-14 3.15776345e-12 1.99390735e-13 2.61602716e-12
3.01995172e+00 6.13155368e-12 2.44141860e-12 1.48044926e-14 3.67533059e-12 1.67848995e-13 2.44141860e-12
3.46736850e+00 6.34970253e-12 2.27846441e-12 1.00332017e-14 4.06120492e-12 1.32697001e-13 2.27846441e-12
3.98107171e+00 6.42311665e-12 2.12638671e-12 6.55529002e-15 4.29017465e-12 9.72848118e-14 2.12638671e-12
4.57088190e+00 6.36559321e-12 1.98445954e-12 4.12226559e-15 4.37701140e-12 6.65009072e-14 1.98445954e-12
5.24807460e+00 5.98834432e-12 1.64084388e-12 2.27596775e-15 4.34522448e-12 4.34477062e-14 1.64084388e-12
6.02559586e+00 5.33700619e-12 1.08409480e-12 9.42804606e-16 4.25196858e-12 2.69005423e-14 1.08409480e-12
6.70000000e+00 4.91288574e-12 7.88574724e-13 4.71590217e-16 4.12383942e-12 1.78298116e-14 7.88574724e-13
6.92422916e+00 4.78745275e-12 7.14418944e-13 3.75198662e-16 4.07265860e-12 1.55703669e-14 7.14418944e-13
7.15596261e+00 4.69884591e-12 6.47236606e-13 2.93500099e-16 4.05131580e-12 1.34040072e-14 6.47236606e-13
7.39545150e+00 4.69046852e-12 5.86371942e-13 2.26845983e-16 4.10386973e-12 1.15818338e-14 5.86371942e-13
7.64295536e+00 4.86686766e-12 5.31230854e-13 1.60836332e-16 4.33547597e-12 9.85337201e-15 5.31230854e-13
7.89874245e+00 5.34473159e-12 4.81275108e-13 1.04229814e-16 4.86335225e-12 8.10733789e-15 4.81275108e-13
8.16308998e+00 6.04193119e-12 4.36017088e-13 6.33021416e-17 5.60585080e-12 6.61665366e-15 4.36017088e-13
8.43628443e+00 6.99427910e-12 3.95015029e-13 3.63308884e-17 6.59922774e-12 5.15533344e-15 3.95015029e-13
8.71862190e+00 7.64303654e-12 3.57868711e-13 2.22428868e-17 7.28514559e-12 4.06794138e-15 3.57868711e-13
9.01040836e+00 8.33963272e-12 3.24215549e-13 1.22475652e-17 8.01540492e-12 2.91815809e-15 3.24215549e-13
9.31196005e+00 8.88239605e-12 2.93727053e-13 0.00000000e+00 8.58866900e-12 0.00000000e+00 2.93727053e-13
9.62360379e+00 8.88049595e-12 2.66105627e-13 0.00000000e+00 8.61439032e-12 0.00000000e+00 2.66105627e-13
9.94567731e+00 8.47041372e-12 2.41081657e-13 0.00000000e+00 8.22933207e-12 0.00000000e+00 2.41081657e-13
1.02785297e+01 7.97515279e-12 2.18410884e-13 0.00000000e+00 7.75674191e-12 0.00000000e+00 2.18410884e-13
1.06225216e+01 7.46463577e-12 1.97872020e-13 0.00000000e+00 7.26676375e-12 0.00000000e+00 1.97872020e-13
1.09780260e+01 6.89365729e-12 1.79264583e-13 0.00000000e+00 6.71439271e-12 0.00000000e+00 1.79264583e-13
1.13454280e+01 6.40306026e-12 1.62406948e-13 0.00000000e+00 6.24065331e-12 0.00000000e+00 1.62406948e-13
1.17251259e+01 5.96334569e-12 1.47134567e-13 0.00000000e+00 5.81621112e-12 0.00000000e+00 1.47134567e-13
1.21175312e+01 5.56029869e-12 1.33298366e-13 0.00000000e+00 5.42700032e-12 0.00000000e+00 1.33298366e-13
1.25230691e+01 5.18570356e-12 1.20763289e-13 0.00000000e+00 5.06494027e-12 0.00000000e+00 1.20763289e-13
1.29421791e+01 4.86191035e-12 1.09406983e-13 0.00000000e+00 4.75250337e-12 0.00000000e+00 1.09406983e-13
1.33753155e+01 4.58314022e-12 9.91185987e-14 0.00000000e+00 4.48402163e-12 0.00000000e+00 9.91185987e-14
1.38229477e+01 4.40216944e-12 8.97977103e-14 0.00000000e+00 4.31237173e-12 0.00000000e+00 8.97977103e-14
1.42855609e+01 4.32477381e-12 8.13533371e-14 0.00000000e+00 4.24342047e-12 0.00000000e+00 8.13533371e-14
1.47636563e+01 4.43342310e-12 7.37030537e-14 0.00000000e+00 4.35972004e-12 0.00000000e+00 7.37030537e-14
1.52577522e+01 4.57010748e-12 6.67721855e-14 0.00000000e+00 4.50333530e-12 0.00000000e+00 6.67721855e-14
1.57683840e+01 4.75130165e-12 6.04930805e-14 0.00000000e+00 4.69080857e-12 0.00000000e+00 6.04930805e-14
1.62961051e+01 4.91738445e-12 5.48044484e-14 0.00000000e+00 4.86258000e-12 0.00000000e+00 5.48044484e-14
1.68414875e+01 5.12104428e-12 4.96507622e-14 0.00000000e+00 5.07139351e-12 0.00000000e+00 4.96507622e-14
1.74051222e+01 5.24260068e-12 4.49817171e-14 0.00000000e+00 5.19761896e-12 0.00000000e+00 4.49817171e-14
1.79876201e+01 5.32358327e-12 4.07517384e-14 0.00000000e+00 5.28283154e-12 0.00000000e+00 4.07517384e-14
1.85896125e+01 5.31670944e-12 3.69195372e-14 0.00000000e+00 5.27978990e-12 0.00000000e+00 3.69195372e-14
1.92117518e+01 5.24144626e-12 3.34477076e-14 0.00000000e+00 5.20799855e-12 0.00000000e+00 3.34477076e-14
1.98547123e+01 5.14918927e-12 3.03023610e-14 0.00000000e+00 5.11888691e-12 0.00000000e+00 3.03023610e-14
2.05191907e+01 5.01341208e-12 2.74527957e-14 0.00000000e+00 4.98595929e-12 0.00000000e+00 2.74527957e-14
2.12059073e+01 4.86314549e-12 2.48711970e-14 0.00000000e+00 4.83827429e-12 0.00000000e+00 2.48711970e-14
2.19156062e+01 4.72389417e-12 2.25323660e-14 0.00000000e+00 4.70136181e-12 0.00000000e+00 2.25323660e-14
2.26490567e+01 4.57950241e-12 2.04134733e-14 0.00000000e+00 4.55908894e-12 0.00000000e+00 2.04134733e-14
2.34070535e+01 4.45339311e-12 1.84938366e-14 0.00000000e+00 4.43489927e-12 0.00000000e+00 1.84938366e-14
2.41904183e+01 4.30480784e-12 1.67547181e-14 0.00000000e+00 4.28805312e-12 0.00000000e+00 1.67547181e-14
2.50000000e+01 4.17383879e-12 1.51791424e-14 0.00000000e+00 4.15865965e-12 0.00000000e+00 1.51791424e-14
2.75422870e+01 3.73025877e-12 1.13518661e-14 0.00000000e+00 3.71890691e-12 0.00000000e+00 1.13518661e-14
3.16227766e+01 3.05340238e-12 7.50010357e-15 0.00000000e+00 3.04590227e-12 0.00000000e+00 7.50010357e-15
3.63078055e+01 2.34555503e-12 4.95526929e-15 0.00000000e+00 2.34059976e-12 0.00000000e+00 4.95526929e-15
4.16869383e+01 1.68030872e-12 3.27391395e-15 0.00000000e+00 1.67703481e-12 0.00000000e+00 3.27391395e-15
4.78630092e+01 1.11873471e-12 2.16305350e-15 0.00000000e+00 1.11657166e-12 0.00000000e+00 2.16305350e-15
5.49540874e+01 7.02893656e-13 1.42911527e-15 0.00000000e+00 7.01464541e-13 0.00000000e+00 1.42911527e-15
6.30957344e+01 4.22084401e-13 9.44207098e-16 0.00000000e+00 4.21140194e-13 0.00000000e+00 9.44207098e-16
7.24435960e+01 2.44396240e-13 6.23831443e-16 0.00000000e+00 2.43772408e-13 0.00000000e+00 6.23831443e-16
8.31763771e+01 1.37897974e-13 4.12161347e-16 0.00000000e+00 1.37485813e-13 0.00000000e+00 4.12161347e-16
9.54992586e+01 7.63887401e-14 2.72312302e-16 0.00000000e+00 7.61164278e-14 0.00000000e+00 2.72312302e-16
1.09647820e+02 4.17524724e-14 1.79914953e-16 0.00000000e+00 4.15725574e-14 0.00000000e+00 1.79914953e-16
1.25892541e+02 2.28483415e-14 1.18868631e-16 0.00000000e+00 2.27294729e-14 0.00000000e+00 1.18868631e-16
1.44543977e+02 1.24549904e-14 7.85357256e-17 0.00000000e+00 1.23764547e-14 0.00000000e+00 7.85357256e-17
1.65958691e+02 6.47473425e-15 5.18880394e-17 0.00000000e+00 6.42284621e-15 0.00000000e+00 5.18880394e-17
1.90546072e+02 3.37439866e-15 3.42820876e-17 0.00000000e+00 3.34011657e-15 0.00000000e+00 3.42820876e-17
2.18776162e+02 1.75829453e-15 2.26499507e-17 0.00000000e+00 1.73564458e-15 0.00000000e+00 2.26499507e-17
2.51188643e+02 9.14408545e-16 1.49646740e-17 0.00000000e+00 8.99443871e-16 0.00000000e+00 1.49646740e-17
2.88403150e+02 4.74089482e-16 9.88706207e-18 0.00000000e+00 4.64202420e-16 0.00000000e+00 9.88706207e-18
3.31131121e+02 2.45575312e-16 6.53231713e-18 0.00000000e+00 2.39042995e-16 0.00000000e+00 6.53231713e-18
3.80189396e+02 1.26986130e-16 4.31585913e-18 0.00000000e+00 1.22670271e-16 0.00000000e+00 4.31585913e-18
4.36515832e+02 6.56664357e-17 2.85145985e-18 0.00000000e+00 6.28149759e-17 0.00000000e+00 2.85145985e-18
5.01187234e+02 3.39709550e-17 1.88394084e-18 0.00000000e+00 3.20870142e-17 0.00000000e+00 1.88394084e-18
5.75439937e+02 1.76020660e-17 1.24470737e-18 0.00000000e+00 1.63573587e-17 0.00000000e+00 1.24470737e-18
6.60693448e+02 9.14653286e-18 8.22370004e-19 0.00000000e+00 8.32416286e-18 0.00000000e+00 8.22370004e-19
7.58577575e+02 4.77300488e-18 5.43334473e-19 0.00000000e+00 4.22967041e-18 0.00000000e+00 5.43334473e-19
8.70963590e+02 2.50473404e-18 3.58977527e-19 0.00000000e+00 2.14575652e-18 0.00000000e+00 3.58977527e-19
1.00000000e+03 1.08693212e-18 0.00000000e+00 0.00000000e+00 1.08693212e-18 0.00000000e+00 0.00000000e+00
