# column 1: lambda (micron)
# column 2: total flux; lambda*F_lambda (W/m2)
# column 3: direct stellar flux; lambda*F_lambda (W/m2)
# column 4: scattered stellar flux; lambda*F_lambda (W/m2)
# column 5: total dust emission flux; lambda*F_lambda (W/m2)
# column 6: dust emission scattered flux; lambda*F_lambda (W/m2)
# column 7: transparent flux; lambda*F_lambda (W/m2)
1.00000000e-03 8.46533691e-13 8.46529401e-13 4.28959837e-18 0.00000000e+00 0.00000000e+00 8.46529401e-13
1.14815362e-03 9.99184248e-13 9.99176121e-13 8.12754695e-18 0.00000000e+00 0.00000000e+00 9.99176121e-13
1.31825674e-03 1.17936169e-12 1.17934819e-12 1.35009101e-17 0.00000000e+00 0.00000000e+00 1.17934819e-12
1.51356125e-03 1.39202799e-12 1.39200901e-12 1.89818538e-17 0.00000000e+00 0.00000000e+00 1.39200901e-12
1.73780083e-03 1.64304936e-12 1.64301696e-12 3.23993753e-17 0.00000000e+00 0.00000000e+00 1.64301696e-12
1.99526231e-03 1.94827819e-12 1.93928682e-12 8.99137141e-15 0.00000000e+00 0.00000000e+00 1.93928682e-12
2.29086765e-03 2.28905999e-12 2.28898025e-12 7.97353313e-17 0.00000000e+00 0.00000000e+00 2.28898025e-12
2.63026799e-03 2.70191769e-12 2.70173063e-12 1.87064448e-16 0.00000000e+00 0.00000000e+00 2.70173063e-12
3.01995172e-03 3.18933524e-12 3.18890841e-12 4.26828440e-16 0.00000000e+00 0.00000000e+00 3.18890841e-12
3.46736850e-03 3.76481013e-12 3.76393440e-12 8.75724041e-16 0.00000000e+00 0.00000000e+00 3.76393440e-12
3.98107171e-03 4.44602056e-12 4.44264945e-12 3.37111178e-15 0.00000000e+00 0.00000000e+00 4.44264945e-12
4.57088190e-03 5.34732092e-12 5.24375082e-12 1.03570096e-13 0.00000000e+00 0.00000000e+00 5.24375082e-12
5.24807460e-03 6.21130910e-12 6.18930730e-12 2.20017979e-14 0.00000000e+00 0.00000000e+00 6.18930730e-12
6.02559586e-03 7.33245133e-12 7.30536713e-12 2.70842003e-14 0.00000000e+00 0.00000000e+00 7.30536713e-12
6.91830971e-03 8.63693794e-12 8.62267558e-12 1.42623666e-14 0.00000000e+00 0.00000000e+00 8.62267558e-12
7.94328235e-03 1.02472904e-11 1.01775219e-11 6.97684954e-14 0.00000000e+00 0.00000000e+00 1.01775219e-11
9.12010839e-03 1.20709693e-11 1.20127391e-11 5.82301371e-14 0.00000000e+00 0.00000000e+00 1.20127391e-11
1.04712855e-02 1.34932763e-11 1.34165878e-11 7.66884222e-14 0.00000000e+00 0.00000000e+00 1.34165878e-11
1.20226443e-02 1.34977018e-11 1.34165878e-11 8.11139588e-14 0.00000000e+00 0.00000000e+00 1.34165878e-11
1.38038426e-02 1.35058459e-11 1.34165878e-11 8.92580133e-14 2.88077929e-291 1.14884690e-292 1.34165878e-11
1.58489319e-02 1.35397968e-11 1.34165878e-11 1.23208943e-13 2.74278519e-254 1.36429958e-255 1.34165878e-11
1.81970086e-02 1.35415926e-11 1.34165878e-11 1.25004728e-13 4.23713442e-222 2.26815179e-223 1.34165878e-11
2.08929613e-02 1.35813600e-11 1.34165878e-11 1.64772208e-13 4.20627609e-194 2.90120225e-195 1.34165878e-11
2.39883292e-02 1.36053392e-11 1.34165878e-11 1.88751384e-13 9.91871115e-170 7.97759473e-171 1.34165878e-11
2.75422870e-02 1.36352908e-11 1.34165878e-11 2.18702956e-13 1.62466274e-148 1.40313082e-149 1.34165878e-11
3.16227766e-02 1.36737764e-11 1.34165878e-11 2.57188576e-13 4.64982342e-130 4.30745992e-131 1.34165878e-11
3.63078055e-02 1.36957290e-11 1.34165878e-11 2.79141206e-13 5.19257154e-114 4.94658673e-115 1.34165878e-11
4.16869383e-02 1.37591260e-11 1.34165878e-11 3.42538152e-13 4.73946400e-100 5.42365772e-101 1.34165878e-11
4.78630092e-02 1.38099344e-11 1.34165878e-11 3.93346545e-13 6.37826050e-88 8.12240333e-89 1.34165878e-11
5.49540874e-02 1.38386372e-11 1.34165878e-11 4.22049314e-13 2.19164343e-77 3.06065585e-78 1.34165878e-11
6.30957344e-02 1.38528276e-11 1.34165878e-11 4.36239714e-13 4.02362671e-68 6.02802282e-69 1.34165878e-11
7.24435960e-02 1.38004124e-11 1.34165878e-11 3.83824553e-13 4.32535561e-60 6.09768606e-61 1.34165878e-11
8.31763771e-02 1.37830485e-11 1.34165878e-11 3.66460632e-13 3.28316026e-53 4.60869214e-54 1.34165878e-11
9.54992586e-02 1.37916768e-11 1.34165878e-11 3.75088940e-13 3.00749572e-47 4.41657184e-48 1.34165878e-11
1.09647820e-01 1.32098611e-11 1.28127470e-11 3.97114155e-13 4.14415244e-42 6.66459805e-43 1.28127470e-11
1.25892541e-01 1.23510978e-11 1.19575512e-11 3.93546596e-13 1.15200724e-37 1.91065836e-38 1.19575512e-11
1.44543977e-01 1.15265232e-11 1.11594361e-11 3.67087108e-13 7.78734240e-34 1.27862005e-34 1.11594361e-11
1.65958691e-01 1.07829285e-11 1.04145917e-11 3.68336743e-13 1.24359678e-30 2.29752617e-31 1.04145917e-11
1.90546072e-01 1.01181769e-11 9.71946251e-12 3.98714363e-13 5.44884400e-28 1.20081518e-28 9.71946251e-12
2.18776162e-01 9.42794568e-12 9.07073019e-12 3.57215485e-13 9.12907948e-26 2.14724046e-26 9.07073019e-12
2.51188643e-01 8.87968641e-12 8.46529796e-12 4.14388448e-13 1.32216337e-23 3.81004055e-24 8.46529796e-12
2.88403150e-01 8.28960147e-12 7.90027573e-12 3.89325732e-13 9.74457947e-22 2.90754963e-22 7.90027573e-12
3.31131121e-01 7.73676727e-12 7.37296631e-12 3.63800930e-13 3.91274813e-20 1.17991875e-20 7.37296631e-12
3.80189396e-01 7.21643830e-12 6.88085251e-12 3.35584849e-13 9.38426162e-19 2.87782668e-19 6.88085251e-12
4.36515832e-01 6.73699474e-12 6.42158520e-12 3.15395235e-13 1.43082671e-17 4.44064709e-18 6.42158520e-12
5.01187234e-01 6.28212007e-12 5.99297201e-12 2.89003327e-13 1.44735082e-16 4.53439174e-17 5.99297201e-12
5.75439937e-01 5.86193303e-12 5.59296690e-12 2.67931712e-13 1.03442005e-15 3.20642085e-16 5.59296690e-12
6.60693448e-01 5.47549369e-12 5.21966041e-12 2.50400532e-13 5.43274205e-15 1.66877258e-15 5.21966041e-12
7.58577575e-01 5.11765352e-12 4.87127053e-12 2.24283138e-13 2.20998482e-14 6.63297805e-15 4.87127053e-12
8.70963590e-01 4.81552771e-12 4.54613417e-12 1.97042061e-13 7.23514750e-14 2.08444595e-14 4.54613417e-12
1.00000000e+00 4.60739212e-12 4.24269927e-12 1.69538373e-13 1.95154480e-13 5.25779739e-14 4.24269927e-12
1.14815362e+00 4.55490615e-12 3.95951734e-12 1.41704663e-13 4.53684143e-13 1.12240653e-13 3.95951734e-12
1.31825674e+00 4.74047175e-12 3.69523659e-12 1.14990413e-13 9.30244748e-13 2.02834338e-13 3.69523659e-12
1.51356125e+00 5.21643021e-12 3.44859544e-12 9.09048689e-14 1.67692991e-12 3.18056407e-13 3.44859544e-12
1.73780083e+00 5.98480119e-12 3.21841652e-12 7.16235955e-14 2.69476107e-12 4.29699168e-13 3.21841652e-12
1.99526231e+00 6.93719699e-12 3.00360106e-12 5.49005923e-14 3.87869533e-12 5.05851400e-13 3.00360106e-12
2.29086765e+00 7.87143722e-12 2.80312361e-12 4.08282014e-14 5.02748541e-12 5.15177402e-13 2.80312361e-12
2.63026799e+00 8.63307378e-12 2.61602716e-12 2.92727700e-14 5.98777385e-12 4.69889591e-13 2.61602716e-12
3.01995172e+00 9.06732964e-12 2.44141860e-12 2.04881120e-14 6.60542293e-12 3.82781439e-13 2.44141860e-12
3.46736850e+00 9.18664556e-12 2.27846441e-12 1.37991106e-14 6.89438204e-12 2.88174715e-13 2.27846441e-12
3.98107171e+00 8.93578587e-12 2.12638671e-12 8.98595532e-15 6.80041320e-12 1.97824447e-13 2.12638671e-12
4.57088190e+00 8.44473212e-12 1.98445954e-12 5.64751043e-15 6.45462507e-12 1.26066432e-13 1.98445954e-12
5.24807460e+00 7.60438302e-12 1.64084388e-12 3.07452491e-15 5.96046462e-12 7.52216164e-14 1.64084388e-12
6.02559586e+00 6.53000225e-12 1.08409480e-12 1.26486769e-15 5.44464258e-12 4.21077571e-14 1.08409480e-12
6.70000000e+00 5.82177148e-12 7.88574724e-13 6.29198558e-16 5.03256755e-12 2.60778825e-14 7.88574724e-13
6.92422916e+00 5.61687356e-12 7.14418944e-13 5.00368174e-16 4.90195425e-12 2.23973490e-14 7.14418944e-13
7.15596261e+00 5.46591724e-12 6.47236606e-13 3.91642853e-16 4.81828899e-12 1.90941027e-14 6.47236606e-13
7.39545150e+00 5.42702739e-12 5.86371942e-13 3.02400328e-16 4.84035305e-12 1.63583126e-14 5.86371942e-13
7.64295536e+00 5.68824651e-12 5.31230854e-13 2.21677032e-16 5.15679398e-12 1.42271993e-14 5.31230854e-13
7.89874245e+00 6.35649248e-12 4.81275108e-13 1.47121041e-16 5.87507025e-12 1.24484372e-14 4.81275108e-13
8.16308998e+00 7.30432000e-12 4.36017088e-13 9.47599682e-17 6.86820816e-12 1.08478490e-14 4.36017088e-13
8.43628443e+00 8.46466808e-12 3.95015029e-13 5.75298105e-17 8.06959552e-12 9.20789147e-15 3.95015029e-13
8.71862190e+00 9.19741358e-12 3.57868711e-13 3.87317787e-17 8.83950614e-12 7.91557407e-15 3.57868711e-13
9.01040836e+00 9.82121994e-12 3.24215549e-13 2.66381417e-17 9.49697776e-12 6.89632696e-15 3.24215549e-13
9.31196005e+00 1.01941596e-11 2.93727053e-13 2.01863200e-17 9.90041233e-12 6.26297577e-15 2.93727053e-13
9.62360379e+00 1.00989681e-11 2.66105627e-13 1.70099150e-17 9.83284549e-12 5.84035064e-15 2.66105627e-13
9.94567731e+00 9.54252006e-12 2.41081657e-13 1.50329389e-17 9.30142337e-12 5.37920812e-15 2.41081657e-13
1.02785297e+01 8.89852073e-12 2.18410884e-13 1.37506689e-17 8.68009609e-12 4.94910828e-15 2.18410884e-13
1.06225216e+01 8.25891114e-12 1.97872020e-13 1.27837786e-17 8.06102634e-12 4.54039960e-15 1.97872020e-13
1.09780260e+01 7.56450879e-12 1.79264583e-13 1.17474574e-17 7.38523245e-12 4.06589264e-15 1.79264583e-13
1.13454280e+01 6.92821447e-12 1.62406948e-13 1.06595262e-17 6.76579686e-12 3.58761645e-15 1.62406948e-13
1.17251259e+01 6.35274140e-12 1.47134567e-13 9.54856165e-18 6.20559728e-12 3.14731328e-15 1.47134567e-13
1.21175312e+01 5.84547245e-12 1.33298366e-13 8.46549296e-18 5.71216562e-12 2.71530656e-15 1.33298366e-13
1.25230691e+01 5.34997256e-12 1.20763289e-13 7.48377184e-18 5.22920179e-12 2.29951244e-15 1.20763289e-13
1.29421791e+01 4.90894219e-12 1.09406983e-13 6.34386452e-18 4.79952886e-12 1.92794683e-15 1.09406983e-13
1.33753155e+01 4.53377013e-12 9.91185987e-14 5.36992702e-18 4.43464616e-12 1.59913383e-15 9.91185987e-14
1.38229477e+01 4.29687267e-12 8.97977103e-14 4.34968753e-18 4.20707061e-12 1.31928492e-15 8.97977103e-14
1.42855609e+01 4.16703518e-12 8.13533371e-14 3.39889439e-18 4.08567844e-12 1.08946319e-15 8.13533371e-14
1.47636563e+01 4.23010917e-12 7.37030537e-14 2.55715669e-18 4.15640356e-12 9.12982653e-16 7.37030537e-14
1.52577522e+01 4.35103174e-12 6.67721855e-14 1.93500342e-18 4.28425762e-12 7.78744837e-16 6.67721855e-14
1.57683840e+01 4.50555310e-12 6.04930805e-14 1.43502248e-18 4.44505858e-12 6.68142754e-16 6.04930805e-14
1.62961051e+01 4.66903402e-12 5.48044484e-14 1.06950465e-18 4.61422850e-12 5.70988754e-16 5.48044484e-14
1.68414875e+01 4.83476974e-12 4.96507622e-14 8.04871306e-19 4.78511818e-12 4.89811799e-16 4.96507622e-14
1.74051222e+01 4.93407825e-12 4.49817171e-14 6.16874901e-19 4.88909592e-12 4.18207304e-16 4.49817171e-14
1.79876201e+01 5.00816427e-12 4.07517384e-14 4.73584226e-19 4.96741206e-12 3.50632959e-16 4.07517384e-14
1.85896125e+01 4.99803045e-12 3.69195372e-14 3.74032949e-19 4.96111054e-12 2.90404279e-16 3.69195372e-14
1.92117518e+01 4.91806717e-12 3.34477076e-14 2.91660043e-19 4.88461917e-12 2.34774349e-16 3.34477076e-14
1.98547123e+01 4.79106320e-12 3.03023610e-14 2.20615449e-19 4.76076061e-12 1.77039120e-16 3.03023610e-14
2.05191907e+01 4.64212860e-12 2.74527957e-14 1.55452357e-19 4.61467565e-12 1.25799226e-16 2.74527957e-14
2.12059073e+01 4.47946967e-12 2.48711970e-14 9.87844800e-20 4.45459838e-12 8.17411772e-17 2.48711970e-14
2.19156062e+01 4.34146042e-12 2.25323660e-14 5.34605511e-20 4.31892800e-12 4.60434021e-17 2.25323660e-14
2.26490567e+01 4.20918536e-12 2.04134733e-14 2.14870094e-20 4.18877187e-12 2.03897922e-17 2.04134733e-14
2.34070535e+01 4.07824223e-12 1.84938366e-14 3.93228512e-21 4.05974839e-12 5.83866404e-18 1.84938366e-14
2.41904183e+01 3.94430937e-12 1.67547181e-14 1.16463760e-22 3.92755465e-12 5.81287024e-19 1.67547181e-14
2.50000000e+01 3.81330045e-12 1.51791424e-14 0.00000000e+00 3.79812131e-12 0.00000000e+00 1.51791424e-14
2.75422870e+01 3.42415775e-12 1.13518661e-14 0.00000000e+00 3.41280588e-12 0.00000000e+00 1.13518661e-14
3.16227766e+01 2.82738440e-12 7.50010357e-15 0.00000000e+00 2.81988429e-12 0.00000000e+00 7.50010357e-15
3.63078055e+01 2.20119946e-12 4.95526929e-15 0.00000000e+00 2.19624419e-12 0.00000000e+00 4.95526929e-15
4.16869383e+01 1.58948306e-12 3.27391395e-15 0.00000000e+00 1.58620915e-12 0.00000000e+00 3.27391395e-15
4.78630092e+01 1.06896667e-12 2.16305350e-15 0.00000000e+00 1.06680362e-12 0.00000000e+00 2.16305350e-15
5.49540874e+01 6.78221042e-13 1.42911527e-15 0.00000000e+00 6.76791927e-13 0.00000000e+00 1.42911527e-15
6.30957344e+01 4.11067554e-13 9.44207098e-16 0.00000000e+00 4.10123347e-13 0.00000000e+00 9.44207098e-16
7.24435960e+01 2.40439115e-13 6.23831443e-16 0.00000000e+00 2.39815284e-13 0.00000000e+00 6.23831443e-16
8.31763771e+01 1.37025865e-13 4.12161347e-16 0.00000000e+00 1.36613704e-13 0.00000000e+00 4.12161347e-16
9.54992586e+01 7.66674761e-14 2.72312302e-16 0.00000000e+00 7.63951638e-14 0.00000000e+00 2.72312302e-16
1.09647820e+02 4.22966462e-14 1.79914953e-16 0.00000000e+00 4.21167313e-14 0.00000000e+00 1.79914953e-16
1.25892541e+02 2.33583449e-14 1.18868631e-16 0.00000000e+00 2.32394763e-14 0.00000000e+00 1.18868631e-16
1.44543977e+02 1.28369917e-14 7.85357256e-17 0.00000000e+00 1.27584559e-14 0.00000000e+00 7.85357256e-17
1.65958691e+02 6.72046121e-15 5.18880394e-17 0.00000000e+00 6.66857317e-15 0.00000000e+00 5.18880394e-17
1.90546072e+02 3.52473551e-15 3.42820876e-17 0.00000000e+00 3.49045342e-15 0.00000000e+00 3.42820876e-17
2.18776162e+02 1.84700987e-15 2.26499507e-17 0.00000000e+00 1.82435992e-15 0.00000000e+00 2.26499507e-17
2.51188643e+02 9.65294386e-16 1.49646740e-17 0.00000000e+00 9.50329712e-16 0.00000000e+00 1.49646740e-17
2.88403150e+02 5.02603252e-16 9.88706207e-18 0.00000000e+00 4.92716190e-16 0.00000000e+00 9.88706207e-18
3.31131121e+02 2.61282863e-16 6.53231713e-18 0.00000000e+00 2.54750546e-16 0.00000000e+00 6.53231713e-18
3.80189396e+02 1.35513831e-16 4.31585913e-18 0.00000000e+00 1.31197972e-16 0.00000000e+00 4.31585913e-18
4.36515832e+02 7.02436238e-17 2.85145985e-18 0.00000000e+00 6.73921639e-17 0.00000000e+00 2.85145985e-18
5.01187234e+02 3.64027532e-17 1.88394084e-18 0.00000000e+00 3.45188123e-17 0.00000000e+00 1.88394084e-18
5.75439937e+02 1.88839876e-17 1.24470737e-18 0.00000000e+00 1.76392802e-17 0.00000000e+00 1.24470737e-18
6.60693448e+02 9.81767337e-18 8.22370004e-19 0.00000000e+00 8.99530337e-18 0.00000000e+00 8.22370004e-19
7.58577575e+02 5.12234596e-18 5.43334473e-19 0.00000000e+00 4.57901149e-18 0.00000000e+00 5.43334473e-19
8.70963590e+02 2.68567055e-18 3.58977527e-19 0.00000000e+00 2.32669302e-18 0.00000000e+00 3.58977527e-19
1.00000000e+03 1.18022584e-18 0.00000000e+00 0.00000000e+00 1.18022584e-18 0.00000000e+00 0.00000000e+00
