# column 1: lambda (micron)
# column 2: total flux; lambda*F_lambda (W/m2)
# column 3: direct stellar flux; lambda*F_lambda (W/m2)
# column 4: scattered stellar flux; lambda*F_lambda (W/m2)
# column 5: total dust emission flux; lambda*F_lambda (W/m2)
# column 6: dust emission scattered flux; lambda*F_lambda (W/m2)
# column 7: transparent flux; lambda*F_lambda (W/m2)
1.00000000e-03 1.07284313e-12 1.07284306e-12 7.32144954e-20 0.00000000e+00 0.00000000e+00 1.07335627e-12
1.14815362e-03 1.26610442e-12 1.26610431e-12 1.09810102e-19 0.00000000e+00 0.00000000e+00 1.26690456e-12
1.31825674e-03 1.49415296e-12 1.49415279e-12 1.70751285e-19 0.00000000e+00 0.00000000e+00 1.49535359e-12
1.51356125e-03 1.76332610e-12 1.76332583e-12 2.65307109e-19 0.00000000e+00 0.00000000e+00 1.76499670e-12
1.73780083e-03 2.08126998e-12 2.08126949e-12 4.86517868e-19 0.00000000e+00 0.00000000e+00 2.08326203e-12
1.99526231e-03 2.45580037e-12 2.45579952e-12 8.44506959e-19 0.00000000e+00 0.00000000e+00 2.45891716e-12
2.29086765e-03 2.89841006e-12 2.89840865e-12 1.40347761e-18 0.00000000e+00 0.00000000e+00 2.90231066e-12
2.63026799e-03 3.42014166e-12 3.42013873e-12 2.93071279e-18 0.00000000e+00 0.00000000e+00 3.42565717e-12
3.01995172e-03 4.03532542e-12 4.03531956e-12 5.86516391e-18 0.00000000e+00 0.00000000e+00 4.04337385e-12
3.46736850e-03 4.76169346e-12 4.76127439e-12 4.19073224e-16 0.00000000e+00 0.00000000e+00 4.77247759e-12
3.98107171e-03 5.61829494e-12 5.61792007e-12 3.74878834e-16 0.00000000e+00 0.00000000e+00 5.63305378e-12
4.57088190e-03 6.63692224e-12 6.63688907e-12 3.31613034e-17 0.00000000e+00 0.00000000e+00 6.64880962e-12
5.24807460e-03 7.83069274e-12 7.82976085e-12 9.31889093e-16 0.00000000e+00 0.00000000e+00 7.84772720e-12
6.02559586e-03 9.28795767e-12 9.23727121e-12 5.06864584e-14 0.00000000e+00 0.00000000e+00 9.26283435e-12
6.91830971e-03 1.09047393e-11 1.08982986e-11 6.44070047e-15 0.00000000e+00 0.00000000e+00 1.09331145e-11
7.94328235e-03 1.28722910e-11 1.28587422e-11 1.35487154e-14 4.53678009e-304 3.00743207e-307 1.29045807e-11
9.12010839e-03 1.51793903e-11 1.51715154e-11 7.87490554e-15 2.22130949e-265 2.44489676e-268 1.52315429e-11
1.04712855e-02 1.69454430e-11 1.69402369e-11 5.20617019e-15 1.03337622e-231 1.27589710e-234 1.70115517e-11
1.20226443e-02 1.69467880e-11 1.69360373e-11 1.07506132e-14 1.76017329e-202 3.60811681e-205 1.70115517e-11
1.38038426e-02 1.69413698e-11 1.69310576e-11 1.03122377e-14 5.16008394e-177 1.62178350e-179 1.70115517e-11
1.58489319e-02 1.69371336e-11 1.69249399e-11 1.21937273e-14 7.43235080e-155 2.49019849e-157 1.70115517e-11
1.81970086e-02 1.69323349e-11 1.69192994e-11 1.30354729e-14 1.40199794e-135 6.92188573e-138 1.70115517e-11
2.08929613e-02 1.69291379e-11 1.69146123e-11 1.45255647e-14 7.68089683e-119 4.48379724e-121 1.70115517e-11
2.39883292e-02 1.69246543e-11 1.69085414e-11 1.61128939e-14 2.80950114e-104 2.05044455e-106 1.70115517e-11
2.75422870e-02 1.69179818e-11 1.69014826e-11 1.64991524e-14 1.30420702e-91 1.21576090e-93 1.70115517e-11
3.16227766e-02 1.69129121e-11 1.68945663e-11 1.83458242e-14 1.31332331e-80 1.58304445e-82 1.70115517e-11
3.63078055e-02 1.69091742e-11 1.68891435e-11 2.00307511e-14 4.68165314e-71 6.51418721e-73 1.70115517e-11
4.16869383e-02 1.69086337e-11 1.68844546e-11 2.41791129e-14 9.13004421e-63 1.80130406e-64 1.70115517e-11
4.78630092e-02 1.69021295e-11 1.68715364e-11 3.05930627e-14 1.41138710e-55 3.85161923e-57 1.70115517e-11
5.49540874e-02 1.68898711e-11 1.68535877e-11 3.62834104e-14 2.39717750e-49 8.57603294e-51 1.70115517e-11
6.30957344e-02 1.68534254e-11 1.68086651e-11 4.47602259e-14 7.91362381e-44 3.65064837e-45 1.70115517e-11
7.24435960e-02 1.68014808e-11 1.67556087e-11 4.58720894e-14 4.66130468e-39 2.18271528e-40 1.70115517e-11
8.31763771e-02 1.68048753e-11 1.67603232e-11 4.45521485e-14 4.83189844e-35 2.26242309e-36 1.70115517e-11
9.54992586e-02 1.68197639e-11 1.67741580e-11 4.56059106e-14 1.37710033e-31 6.85113804e-33 1.70115517e-11
1.09647820e-01 1.61023202e-11 1.60573498e-11 4.49704157e-14 1.17710369e-28 6.19973770e-30 1.62459122e-11
1.25892541e-01 1.50546287e-11 1.50165623e-11 3.80663635e-14 3.82332166e-26 1.81909174e-27 1.51615674e-11
1.44543977e-01 1.40704678e-11 1.40373400e-11 3.31278809e-14 5.23002401e-24 2.34625215e-25 1.41495980e-11
1.65958691e-01 1.31473078e-11 1.31135050e-11 3.38027866e-14 2.66437633e-22 1.34738202e-23 1.32051732e-11
1.90546072e-01 1.22701800e-11 1.22325372e-11 3.76428715e-14 5.66336413e-21 3.65810426e-22 1.23237846e-11
2.18776162e-01 1.14412482e-11 1.14013973e-11 3.98507541e-14 6.78906195e-20 5.05997934e-21 1.15012250e-11
2.51188643e-01 1.07048260e-11 1.06589953e-11 4.58298651e-14 8.28481300e-19 7.67887193e-20 1.07335677e-11
2.88403150e-01 9.99833337e-12 9.95933351e-12 3.89929670e-14 6.88632488e-18 6.05195330e-19 1.00171482e-11
3.31131121e-01 9.33541312e-12 9.30149473e-12 3.38789365e-14 3.94516058e-17 3.28242717e-18 9.34854667e-12
3.80189396e-01 8.71588734e-12 8.68599860e-12 2.97242806e-14 1.64464324e-16 1.31223525e-17 8.72457139e-12
4.36515832e-01 8.13872920e-12 8.11090500e-12 2.73030713e-14 5.21136480e-16 4.08933007e-17 8.14224377e-12
5.01187234e-01 7.59944603e-12 7.57366742e-12 2.44722838e-14 1.30632549e-15 1.03680391e-16 7.59878402e-12
5.75439937e-01 7.09727050e-12 7.07167604e-12 2.28887029e-14 2.70576283e-15 2.17653368e-16 7.09159786e-12
6.60693448e-01 6.62863152e-12 6.60259976e-12 2.12049880e-14 4.82676676e-15 3.96959352e-16 6.61826421e-12
7.58577575e-01 6.19262743e-12 6.16435657e-12 2.04465462e-14 7.82431278e-15 6.55798346e-16 6.17652353e-12
8.70963590e-01 5.78530415e-12 5.75502624e-12 1.82221158e-14 1.20557878e-14 1.02084817e-15 5.76426715e-12
1.00000000e+00 5.40690905e-12 5.37262206e-12 1.59071905e-14 1.83797973e-14 1.56818358e-15 5.37952711e-12
1.14815362e+00 5.05771730e-12 5.01539895e-12 1.31909149e-14 2.91274410e-14 2.38566428e-15 5.02046681e-12
1.31825674e+00 4.73993190e-12 4.68171745e-12 1.01713161e-14 4.80431332e-14 3.65778749e-15 4.68537225e-12
1.51356125e+00 4.45793795e-12 4.37003475e-12 8.63109874e-15 7.92721065e-14 5.37701367e-15 4.37264380e-12
1.73780083e+00 4.20988847e-12 4.07895642e-12 6.43127768e-15 1.24500774e-13 7.25600863e-15 4.08078863e-12
1.99526231e+00 3.99329835e-12 3.80714706e-12 4.76140958e-15 1.81389881e-13 8.75681553e-15 3.80841354e-12
2.29086765e+00 3.79928390e-12 3.55334562e-12 3.31905562e-15 2.42619222e-13 9.16481687e-15 3.55421832e-12
2.63026799e+00 3.61768173e-12 3.31638255e-12 2.41433412e-15 2.98884843e-13 8.59477861e-15 3.31698953e-12
3.01995172e+00 3.43839777e-12 3.09516715e-12 1.62209033e-15 3.41608535e-13 7.27046612e-15 3.09559474e-12
3.46736850e+00 3.25515030e-12 2.88867097e-12 1.00558234e-15 3.65473748e-13 5.58984026e-15 2.88897711e-12
3.98107171e+00 3.06402233e-12 2.69592833e-12 6.32457806e-16 3.67461543e-13 3.89627681e-15 2.69615031e-12
4.57088190e+00 2.86693596e-12 2.51603072e-12 3.97604405e-16 3.50507641e-13 2.56216790e-15 2.51619387e-12
5.24807460e+00 2.40249345e-12 2.08039829e-12 2.04863285e-16 3.21890296e-13 1.53226190e-15 2.08050667e-12
6.02559586e+00 1.66330673e-12 1.37451762e-12 8.71281862e-17 2.88701976e-13 8.66097376e-16 1.37457712e-12
6.70000000e+00 1.26116695e-12 9.99834375e-13 4.23915868e-17 2.61290183e-13 5.24836652e-16 9.99872685e-13
6.92422916e+00 1.15847660e-12 9.05813433e-13 3.26893775e-17 2.52630476e-13 4.44878642e-16 9.05846924e-13
7.15596261e+00 1.06755829e-12 8.20633320e-13 2.66991650e-17 2.46898268e-13 3.76841628e-16 8.20663132e-13
7.39545150e+00 9.91653430e-13 7.43462178e-13 2.03562194e-17 2.48170896e-13 3.19951653e-16 7.43489831e-13
7.64295536e+00 9.43010154e-13 6.73545188e-13 1.46710015e-17 2.69450295e-13 2.77586705e-16 6.73573732e-13
7.89874245e+00 9.32780559e-13 6.10198974e-13 9.85543712e-18 3.22571730e-13 2.43759231e-16 6.10232385e-13
8.16308998e+00 9.54324687e-13 5.52806643e-13 6.10767823e-18 4.01511936e-13 2.09133084e-16 5.52847515e-13
8.43628443e+00 1.01329617e-12 5.00807544e-13 3.70296888e-18 5.12484919e-13 1.75661754e-16 5.00858987e-13
8.71862190e+00 1.04718599e-12 4.53702078e-13 2.53630122e-18 5.93481376e-13 1.40615675e-16 4.53759343e-13
9.01040836e+00 1.08839438e-12 4.11025995e-13 1.55419448e-18 6.77366835e-13 1.05897168e-16 4.11088843e-13
9.31196005e+00 1.11745152e-12 3.72364942e-13 0.00000000e+00 7.45086577e-13 0.00000000e+00 3.72430980e-13
9.62360379e+00 1.07781808e-12 3.37347011e-13 0.00000000e+00 7.40471068e-13 0.00000000e+00 3.37408415e-13
9.94567731e+00 9.90980039e-13 3.05627094e-13 0.00000000e+00 6.85352945e-13 0.00000000e+00 3.05679292e-13
1.02785297e+01 8.91762438e-13 2.76891124e-13 0.00000000e+00 6.14871314e-13 0.00000000e+00 2.76933904e-13
1.06225216e+01 7.98704020e-13 2.50856981e-13 0.00000000e+00 5.47847039e-13 0.00000000e+00 2.50891667e-13
1.09780260e+01 7.00050411e-13 2.27271274e-13 0.00000000e+00 4.72779137e-13 0.00000000e+00 2.27298384e-13
1.13454280e+01 6.16416611e-13 2.05902486e-13 0.00000000e+00 4.10514125e-13 0.00000000e+00 2.05923759e-13
1.17251259e+01 5.44826213e-13 1.86542355e-13 0.00000000e+00 3.58283858e-13 0.00000000e+00 1.86559155e-13
1.21175312e+01 4.80868676e-13 1.69002355e-13 0.00000000e+00 3.11866320e-13 0.00000000e+00 1.69015555e-13
1.25230691e+01 4.24582843e-13 1.53111373e-13 0.00000000e+00 2.71471471e-13 0.00000000e+00 1.53121715e-13
1.29421791e+01 3.76642335e-13 1.38714336e-13 0.00000000e+00 2.37927999e-13 0.00000000e+00 1.38722496e-13
1.33753155e+01 3.35739421e-13 1.25670862e-13 0.00000000e+00 2.10068559e-13 0.00000000e+00 1.25677347e-13
1.38229477e+01 3.06116173e-13 1.13853543e-13 0.00000000e+00 1.92262630e-13 0.00000000e+00 1.13858934e-13
1.42855609e+01 2.85277913e-13 1.03147212e-13 0.00000000e+00 1.82130701e-13 0.00000000e+00 1.03151898e-13
1.47636563e+01 2.77922169e-13 9.34472803e-14 0.00000000e+00 1.84474889e-13 0.00000000e+00 9.34517274e-14
1.52577522e+01 2.74123075e-13 8.46594418e-14 0.00000000e+00 1.89463633e-13 0.00000000e+00 8.46637387e-14
1.57683840e+01 2.73258950e-13 7.66979475e-14 0.00000000e+00 1.96561003e-13 0.00000000e+00 7.67021526e-14
1.62961051e+01 2.73490661e-13 6.94851458e-14 0.00000000e+00 2.04005515e-13 0.00000000e+00 6.94892560e-14
1.68414875e+01 2.74444514e-13 6.29506353e-14 0.00000000e+00 2.11493879e-13 0.00000000e+00 6.29546439e-14
1.74051222e+01 2.71792902e-13 5.70307252e-14 0.00000000e+00 2.14762177e-13 0.00000000e+00 5.70345319e-14
1.79876201e+01 2.67579360e-13 5.16675795e-14 0.00000000e+00 2.15911780e-13 0.00000000e+00 5.16711337e-14
1.85896125e+01 2.58693138e-13 4.68088816e-14 0.00000000e+00 2.11884257e-13 0.00000000e+00 4.68120974e-14
1.92117518e+01 2.46242312e-13 4.24071692e-14 0.00000000e+00 2.03835143e-13 0.00000000e+00 4.24099939e-14
1.98547123e+01 2.32105696e-13 3.84194215e-14 0.00000000e+00 1.93686275e-13 0.00000000e+00 3.84218542e-14
2.05191907e+01 2.17578987e-13 3.48066761e-14 0.00000000e+00 1.82772310e-13 0.00000000e+00 3.48087501e-14
2.12059073e+01 2.04244223e-13 3.15336463e-14 0.00000000e+00 1.72710577e-13 0.00000000e+00 3.15354141e-14
2.19156062e+01 1.92586961e-13 2.85683810e-14 0.00000000e+00 1.64018581e-13 0.00000000e+00 2.85698952e-14
2.26490567e+01 1.81867603e-13 2.58819479e-14 0.00000000e+00 1.55985655e-13 0.00000000e+00 2.58832470e-14
2.34070535e+01 1.72262832e-13 2.34481285e-14 0.00000000e+00 1.48814703e-13 0.00000000e+00 2.34492452e-14
2.41904183e+01 1.63438923e-13 2.12431691e-14 0.00000000e+00 1.42195754e-13 0.00000000e+00 2.12441313e-14
2.50000000e+01 1.55494701e-13 1.92455504e-14 0.00000000e+00 1.36249151e-13 0.00000000e+00 1.92463813e-14
2.75422870e+01 1.34641866e-13 1.43930476e-14 0.00000000e+00 1.20248818e-13 0.00000000e+00 1.43935895e-14
3.16227766e+01 1.09904593e-13 9.50945255e-15 0.00000000e+00 1.00395141e-13 0.00000000e+00 9.50975027e-15
3.63078055e+01 8.73812435e-14 6.28286699e-15 0.00000000e+00 8.10983766e-14 0.00000000e+00 6.28302969e-15
4.16869383e+01 6.62581295e-14 4.15106998e-15 0.00000000e+00 6.21070595e-14 0.00000000e+00 4.15115655e-15
4.78630092e+01 4.75988750e-14 2.74259731e-15 0.00000000e+00 4.48562777e-14 0.00000000e+00 2.74264194e-15
5.49540874e+01 3.25858488e-14 1.81202304e-15 0.00000000e+00 3.07738258e-14 0.00000000e+00 1.81204556e-15
6.30957344e+01 2.14271556e-14 1.19719541e-15 0.00000000e+00 2.02299602e-14 0.00000000e+00 1.19720663e-15
7.24435960e+01 1.36045822e-14 7.90981027e-16 0.00000000e+00 1.28136012e-14 0.00000000e+00 7.90986575e-16
8.31763771e+01 8.39111303e-15 5.22596908e-16 0.00000000e+00 7.86851612e-15 0.00000000e+00 5.22599647e-16
9.54992586e+01 5.05982102e-15 3.45276807e-16 0.00000000e+00 4.71454421e-15 0.00000000e+00 3.45278163e-16
1.09647820e+02 2.99390338e-15 2.28122347e-16 0.00000000e+00 2.76578104e-15 0.00000000e+00 2.28123020e-16
1.25892541e+02 1.76265941e-15 1.50719045e-16 0.00000000e+00 1.61194036e-15 0.00000000e+00 1.50719385e-16
1.44543977e+02 1.02765727e-15 9.95791375e-17 0.00000000e+00 9.28078130e-16 0.00000000e+00 9.95793099e-17
1.65958691e+02 5.72091465e-16 6.57913131e-17 0.00000000e+00 5.06300151e-16 0.00000000e+00 6.57913976e-17
1.90546072e+02 3.18425372e-16 4.34679035e-17 0.00000000e+00 2.74957469e-16 0.00000000e+00 4.34679453e-17
2.18776162e+02 1.77070205e-16 2.87189658e-17 0.00000000e+00 1.48351239e-16 0.00000000e+00 2.87189867e-17
2.51188643e+02 9.83974390e-17 1.89744359e-17 0.00000000e+00 7.94230031e-17 0.00000000e+00 1.89744463e-17
2.88403150e+02 5.46959870e-17 1.25362872e-17 0.00000000e+00 4.21596999e-17 0.00000000e+00 1.25362924e-17
3.31131121e+02 3.05270559e-17 8.28264362e-18 0.00000000e+00 2.22444123e-17 0.00000000e+00 8.28264623e-18
3.80189396e+02 1.71302688e-17 5.47228879e-18 0.00000000e+00 1.16579800e-17 0.00000000e+00 5.47229010e-18
4.36515832e+02 9.69461470e-18 3.61550556e-18 0.00000000e+00 6.07910915e-18 0.00000000e+00 3.61550621e-18
5.01187234e+02 5.54315187e-18 2.38874094e-18 0.00000000e+00 3.15441093e-18 0.00000000e+00 2.38874127e-18
5.75439937e+02 3.20827203e-18 1.57822554e-18 0.00000000e+00 1.63004649e-18 0.00000000e+00 1.57822570e-18
6.60693448e+02 1.88204485e-18 1.04272330e-18 0.00000000e+00 8.39321554e-19 0.00000000e+00 1.04272338e-18
7.58577575e+02 1.11974877e-18 6.88920465e-19 0.00000000e+00 4.30828306e-19 0.00000000e+00 6.88920507e-19
8.70963590e+02 6.75661594e-19 4.55165244e-19 0.00000000e+00 2.20496350e-19 0.00000000e+00 4.55165265e-19
1.00000000e+03 1.12547278e-19 0.00000000e+00 0.00000000e+00 1.12547278e-19 0.00000000e+00 0.00000000e+00
