# column 1: lambda (micron)
# column 2: total flux; lambda*F_lambda (W/m2)
# column 3: direct stellar flux; lambda*F_lambda (W/m2)
# column 4: scattered stellar flux; lambda*F_lambda (W/m2)
# column 5: total dust emission flux; lambda*F_lambda (W/m2)
# column 6: dust emission scattered flux; lambda*F_lambda (W/m2)
# column 7: transparent flux; lambda*F_lambda (W/m2)
1.00000000e-03 1.04634457e-12 1.04634360e-12 9.64586878e-19 0.00000000e+00 0.00000000e+00 1.04634360e-12
1.14815362e-03 1.23502241e-12 1.23502095e-12 1.46072814e-18 0.00000000e+00 0.00000000e+00 1.23502095e-12
1.31825674e-03 1.45772296e-12 1.45772071e-12 2.24755938e-18 0.00000000e+00 0.00000000e+00 1.45772071e-12
1.51356125e-03 1.72058115e-12 1.72057784e-12 3.31885218e-18 0.00000000e+00 0.00000000e+00 1.72057784e-12
1.73780083e-03 2.03083959e-12 2.03083353e-12 6.06265927e-18 0.00000000e+00 0.00000000e+00 2.03083353e-12
1.99526231e-03 2.39704515e-12 2.39703472e-12 1.04312113e-17 0.00000000e+00 0.00000000e+00 2.39703472e-12
2.29086765e-03 2.82928583e-12 2.82926954e-12 1.62846654e-17 0.00000000e+00 0.00000000e+00 2.82926954e-12
2.63026799e-03 3.33947736e-12 3.33944522e-12 3.21353231e-17 0.00000000e+00 0.00000000e+00 3.33944522e-12
3.01995172e-03 3.94166834e-12 3.94161611e-12 5.22333656e-17 0.00000000e+00 0.00000000e+00 3.94161611e-12
3.46736850e-03 4.65245563e-12 4.65237083e-12 8.47984191e-17 0.00000000e+00 0.00000000e+00 4.65237083e-12
3.98107171e-03 5.49142308e-12 5.49128930e-12 1.33786702e-16 0.00000000e+00 0.00000000e+00 5.49128930e-12
4.57088190e-03 6.48180806e-12 6.48148207e-12 3.25990262e-16 0.00000000e+00 0.00000000e+00 6.48148207e-12
5.24807460e-03 7.65079128e-12 7.65022704e-12 5.64241862e-16 0.00000000e+00 0.00000000e+00 7.65022704e-12
6.02559586e-03 9.03077521e-12 9.02972084e-12 1.05437001e-15 0.00000000e+00 0.00000000e+00 9.02972084e-12
6.91830971e-03 1.06594662e-11 1.06579658e-11 1.50031396e-15 0.00000000e+00 0.00000000e+00 1.06579658e-11
7.94328235e-03 1.25823116e-11 1.25798170e-11 2.49462299e-15 0.00000000e+00 0.00000000e+00 1.25798170e-11
9.12010839e-03 1.48522613e-11 1.48482176e-11 4.04367223e-15 0.00000000e+00 0.00000000e+00 1.48482176e-11
1.04712855e-02 1.65890421e-11 1.65834298e-11 5.61229282e-15 0.00000000e+00 0.00000000e+00 1.65834298e-11
1.20226443e-02 1.65916092e-11 1.65834298e-11 8.17943125e-15 4.41898182e-312 4.93662571e-314 1.65834298e-11
1.38038426e-02 1.66017988e-11 1.65834298e-11 1.83690003e-14 1.53953625e-272 1.61094050e-274 1.65834298e-11
1.58489319e-02 1.66017510e-11 1.65834298e-11 1.83211863e-14 4.03728219e-238 5.04733552e-240 1.65834298e-11
1.81970086e-02 1.66100566e-11 1.65834298e-11 2.66267830e-14 3.62875489e-208 5.53614733e-210 1.65834298e-11
2.08929613e-02 1.66195090e-11 1.65834298e-11 3.60792306e-14 3.97464861e-182 7.48373944e-184 1.65834298e-11
2.39883292e-02 1.66277310e-11 1.65834298e-11 4.43011706e-14 1.83943087e-159 4.75612748e-161 1.65834298e-11
2.75422870e-02 1.66394781e-11 1.65834298e-11 5.60483213e-14 9.71083816e-140 3.01298144e-141 1.65834298e-11
3.16227766e-02 1.66557187e-11 1.65834298e-11 7.22888846e-14 1.36934618e-122 5.25969979e-124 1.65834298e-11
3.63078055e-02 1.66705128e-11 1.65834298e-11 8.70829920e-14 1.09914123e-107 4.69590447e-109 1.65834298e-11
4.16869383e-02 1.67004518e-11 1.65834298e-11 1.17022026e-13 9.90067173e-95 5.59078122e-96 1.65834298e-11
4.78630092e-02 1.67406500e-11 1.65834298e-11 1.57220208e-13 1.77215635e-83 1.29736085e-84 1.65834298e-11
5.49540874e-02 1.67794937e-11 1.65834298e-11 1.96063923e-13 1.04188744e-73 9.24815561e-75 1.65834298e-11
6.30957344e-02 1.68102973e-11 1.65834298e-11 2.26867562e-13 4.15275971e-65 4.28454180e-66 1.65834298e-11
7.24435960e-02 1.67913174e-11 1.65834298e-11 2.07887625e-13 1.17873136e-57 1.16114697e-58 1.65834298e-11
8.31763771e-02 1.67933907e-11 1.65834298e-11 2.09960956e-13 2.72221299e-51 2.65456900e-52 1.65834298e-11
9.54992586e-02 1.68062274e-11 1.65834298e-11 2.22797595e-13 8.99713523e-46 9.31415817e-47 1.65834298e-11
1.09647820e-01 1.60712165e-11 1.58370587e-11 2.34157805e-13 5.21910497e-41 6.01189655e-42 1.58370587e-11
1.25892541e-01 1.49936522e-11 1.47800032e-11 2.13649011e-13 7.35268062e-37 8.62796964e-38 1.47800032e-11
1.44543977e-01 1.39902807e-11 1.37935015e-11 1.96779179e-13 2.99725644e-33 3.64282880e-34 1.37935015e-11
1.65958691e-01 1.30835222e-11 1.28728446e-11 2.10677605e-13 3.27227304e-30 4.67844519e-31 1.28728446e-11
1.90546072e-01 1.22508700e-11 1.20136376e-11 2.37232445e-13 1.08163307e-27 1.87739482e-28 1.20136376e-11
2.18776162e-01 1.14419061e-11 1.12117790e-11 2.30127167e-13 1.47235728e-25 2.74703723e-26 1.12117790e-11
2.51188643e-01 1.07413378e-11 1.04634409e-11 2.77896910e-13 1.72269215e-23 4.13386852e-24 1.04634409e-11
2.88403150e-01 1.00257603e-11 9.76505125e-12 2.60709004e-13 1.06754682e-21 2.67078023e-22 9.76505125e-12
3.31131121e-01 9.34967284e-12 9.11327608e-12 2.36396723e-13 3.74911524e-20 9.65561236e-21 9.11327608e-12
3.80189396e-01 8.72725985e-12 8.50500410e-12 2.22254945e-13 8.06941776e-19 2.11355371e-19 8.50500410e-12
4.36515832e-01 8.14627248e-12 7.93733165e-12 2.08929542e-13 1.12925571e-17 3.04836100e-18 7.93733165e-12
5.01187234e-01 7.60225488e-12 7.40754890e-12 1.94598176e-13 1.07803345e-16 2.92017672e-17 7.40754890e-12
5.75439937e-01 7.09824117e-12 6.91312687e-12 1.84375813e-13 7.38489697e-16 2.01599530e-16 6.91312687e-12
6.60693448e-01 6.62833179e-12 6.45170538e-12 1.72870388e-13 3.75601719e-15 1.02355552e-15 6.45170538e-12
7.58577575e-01 6.19282129e-12 6.02108180e-12 1.56874719e-13 1.48647739e-14 3.94620024e-15 6.02108180e-12
8.70963590e-01 5.80749798e-12 5.61920048e-12 1.40269489e-13 4.80280130e-14 1.21695439e-14 5.61920048e-12
1.00000000e+00 5.49629253e-12 5.24414302e-12 1.24006564e-13 1.28142950e-13 3.06174339e-14 5.24414302e-12
1.14815362e+00 5.29116822e-12 4.89411902e-12 1.02902121e-13 2.94147074e-13 6.38997319e-14 4.89411902e-12
1.31825674e+00 5.25540360e-12 4.56745763e-12 8.28368227e-14 6.05109155e-13 1.15818498e-13 4.56745763e-12
1.51356125e+00 5.43501622e-12 4.26259947e-12 6.47819847e-14 1.10763476e-12 1.82853753e-13 4.26259947e-12
1.73780083e+00 5.80369864e-12 3.97808929e-12 4.96684092e-14 1.77594093e-12 2.43800039e-13 3.97808929e-12
1.99526231e+00 6.32377375e-12 3.71256894e-12 3.77140042e-14 2.57349081e-12 2.85667245e-13 3.71256894e-12
2.29086765e+00 6.83324475e-12 3.46477093e-12 2.76630026e-14 3.34081082e-12 2.90119924e-13 3.46477093e-12
2.63026799e+00 7.24280891e-12 3.23351237e-12 1.98623100e-14 3.98943422e-12 2.68540066e-13 3.23351237e-12
3.01995172e+00 7.42691076e-12 3.01768933e-12 1.40333182e-14 4.39518812e-12 2.23791193e-13 3.01768933e-12
3.46736850e+00 7.41450312e-12 2.81627154e-12 9.74590035e-15 4.58848567e-12 1.72965725e-13 2.81627154e-12
3.98107171e+00 7.17559437e-12 2.62829753e-12 6.40555203e-15 4.54089129e-12 1.23400496e-13 2.62829753e-12
4.57088190e+00 6.79620732e-12 2.45286997e-12 4.07869045e-15 4.33925866e-12 8.11527890e-14 2.45286997e-12
5.24807460e+00 6.06912321e-12 2.02814751e-12 2.19980302e-15 4.03877590e-12 5.03305807e-14 2.02814751e-12
6.02559586e+00 5.05305647e-12 1.33998377e-12 9.45187246e-16 3.71212752e-12 2.93554417e-14 1.33998377e-12
6.70000000e+00 4.41793148e-12 9.74709347e-13 4.67900407e-16 3.44275423e-12 1.84646555e-14 9.74709347e-13
6.92422916e+00 4.23705464e-12 8.83049889e-13 3.72047906e-16 3.35363271e-12 1.58182878e-14 8.83049889e-13
7.15596261e+00 4.09440027e-12 8.00009879e-13 2.91306469e-16 3.29409908e-12 1.35339384e-14 8.00009879e-13
7.39545150e+00 4.03760765e-12 7.24778763e-13 2.25614270e-16 3.31260327e-12 1.15742819e-14 7.24778763e-13
7.64295536e+00 4.18408350e-12 6.56622211e-13 1.63265741e-16 3.52729802e-12 9.92475983e-15 6.56622211e-13
7.89874245e+00 4.63664711e-12 5.94874946e-13 1.05617629e-16 4.04166654e-12 8.38093460e-15 5.94874946e-13
8.16308998e+00 5.28830121e-12 5.38934254e-13 6.65067770e-17 4.74930045e-12 7.07572719e-15 5.38934254e-13
8.43628443e+00 6.14385569e-12 4.88254098e-13 3.82055028e-17 5.65556339e-12 5.69568753e-15 4.88254098e-13
8.71862190e+00 6.66151021e-12 4.42339790e-13 2.46794213e-17 6.21914574e-12 4.53581206e-15 4.42339790e-13
9.01040836e+00 7.17021010e-12 4.00743158e-13 1.57069565e-17 6.76945124e-12 3.43330180e-15 4.00743158e-13
9.31196005e+00 7.49192147e-12 3.63058180e-13 0.00000000e+00 7.12886329e-12 0.00000000e+00 3.63058180e-13
9.62360379e+00 7.40755279e-12 3.28917012e-13 0.00000000e+00 7.07863578e-12 0.00000000e+00 3.28917012e-13
9.94567731e+00 7.00954751e-12 2.97986401e-13 0.00000000e+00 6.71156111e-12 0.00000000e+00 2.97986401e-13
1.02785297e+01 6.53029738e-12 2.69964435e-13 0.00000000e+00 6.26033294e-12 0.00000000e+00 2.69964435e-13
1.06225216e+01 6.02015876e-12 2.44577592e-13 0.00000000e+00 5.77558117e-12 0.00000000e+00 2.44577592e-13
1.09780260e+01 5.49052467e-12 2.21578069e-13 0.00000000e+00 5.26894660e-12 0.00000000e+00 2.21578069e-13
1.13454280e+01 4.99100105e-12 2.00741370e-13 0.00000000e+00 4.79025968e-12 0.00000000e+00 2.00741370e-13
1.17251259e+01 4.55869208e-12 1.81864106e-13 0.00000000e+00 4.37682797e-12 0.00000000e+00 1.81864106e-13
1.21175312e+01 4.14922474e-12 1.64762018e-13 0.00000000e+00 3.98446272e-12 0.00000000e+00 1.64762018e-13
1.25230691e+01 3.77503176e-12 1.49268171e-13 0.00000000e+00 3.62576359e-12 0.00000000e+00 1.49268171e-13
1.29421791e+01 3.42866513e-12 1.35231331e-13 0.00000000e+00 3.29343380e-12 0.00000000e+00 1.35231331e-13
1.33753155e+01 3.14543275e-12 1.22514483e-13 0.00000000e+00 3.02291827e-12 0.00000000e+00 1.22514483e-13
1.38229477e+01 2.94215091e-12 1.10993499e-13 0.00000000e+00 2.83115741e-12 0.00000000e+00 1.10993499e-13
1.42855609e+01 2.83006692e-12 1.00555922e-13 0.00000000e+00 2.72951100e-12 0.00000000e+00 1.00555922e-13
1.47636563e+01 2.85820399e-12 9.10998706e-14 0.00000000e+00 2.76710412e-12 0.00000000e+00 9.10998706e-14
1.52577522e+01 2.92177828e-12 8.25330452e-14 0.00000000e+00 2.83924523e-12 0.00000000e+00 8.25330452e-14
1.57683840e+01 3.01370061e-12 7.47718247e-14 0.00000000e+00 2.93892879e-12 0.00000000e+00 7.47718247e-14
1.62961051e+01 3.10524804e-12 6.77404517e-14 0.00000000e+00 3.03750759e-12 0.00000000e+00 6.77404517e-14
1.68414875e+01 3.19098730e-12 6.13702932e-14 0.00000000e+00 3.12961701e-12 0.00000000e+00 6.13702932e-14
1.74051222e+01 3.24494617e-12 5.55991699e-14 0.00000000e+00 3.18934700e-12 0.00000000e+00 5.55991699e-14
1.79876201e+01 3.26227344e-12 5.03707500e-14 0.00000000e+00 3.21190269e-12 0.00000000e+00 5.03707500e-14
1.85896125e+01 3.22742928e-12 4.56339988e-14 0.00000000e+00 3.18179528e-12 0.00000000e+00 4.56339988e-14
1.92117518e+01 3.12958759e-12 4.13426810e-14 0.00000000e+00 3.08824491e-12 0.00000000e+00 4.13426810e-14
1.98547123e+01 3.01401093e-12 3.74549090e-14 0.00000000e+00 2.97655602e-12 0.00000000e+00 3.74549090e-14
2.05191907e+01 2.88533366e-12 3.39327342e-14 0.00000000e+00 2.85140092e-12 0.00000000e+00 3.39327342e-14
2.12059073e+01 2.74953421e-12 3.07417768e-14 0.00000000e+00 2.71879244e-12 0.00000000e+00 3.07417768e-14
2.19156062e+01 2.63282143e-12 2.78508898e-14 0.00000000e+00 2.60497054e-12 0.00000000e+00 2.78508898e-14
2.26490567e+01 2.51823797e-12 2.52318552e-14 0.00000000e+00 2.49300611e-12 0.00000000e+00 2.52318552e-14
2.34070535e+01 2.40842644e-12 2.28591087e-14 0.00000000e+00 2.38556733e-12 0.00000000e+00 2.28591087e-14
2.41904183e+01 2.30400533e-12 2.07094900e-14 0.00000000e+00 2.28329585e-12 0.00000000e+00 2.07094900e-14
2.50000000e+01 2.20543257e-12 1.87620165e-14 0.00000000e+00 2.18667055e-12 0.00000000e+00 1.87620165e-14
2.75422870e+01 1.92283250e-12 1.40313526e-14 0.00000000e+00 1.90880114e-12 0.00000000e+00 1.40313526e-14
3.16227766e+01 1.54074634e-12 9.27042274e-15 0.00000000e+00 1.53147592e-12 0.00000000e+00 9.27042274e-15
3.63078055e+01 1.17232289e-12 6.12490756e-15 0.00000000e+00 1.16619798e-12 0.00000000e+00 6.12490756e-15
4.16869383e+01 8.33632135e-13 4.04668630e-15 0.00000000e+00 8.29585449e-13 0.00000000e+00 4.04668630e-15
4.78630092e+01 5.54722957e-13 2.67361912e-15 0.00000000e+00 5.52049338e-13 0.00000000e+00 2.67361912e-15
5.49540874e+01 3.49811225e-13 1.76644264e-15 0.00000000e+00 3.48044783e-13 0.00000000e+00 1.76644264e-15
6.30957344e+01 2.11542925e-13 1.16707708e-15 0.00000000e+00 2.10375848e-13 0.00000000e+00 1.16707708e-15
7.24435960e+01 1.23734836e-13 7.71080178e-16 0.00000000e+00 1.22963756e-13 0.00000000e+00 7.71080178e-16
8.31763771e+01 7.06519896e-14 5.09447621e-16 0.00000000e+00 7.01425420e-14 0.00000000e+00 5.09447621e-16
9.54992586e+01 3.96575902e-14 3.36588705e-16 0.00000000e+00 3.93210015e-14 0.00000000e+00 3.36588705e-16
1.09647820e+02 2.19730694e-14 2.22381952e-16 0.00000000e+00 2.17506875e-14 0.00000000e+00 2.22381952e-16
1.25892541e+02 1.21898377e-14 1.46926299e-16 0.00000000e+00 1.20429114e-14 0.00000000e+00 1.46926299e-16
1.44543977e+02 6.73069237e-15 9.70732430e-17 0.00000000e+00 6.63361913e-15 0.00000000e+00 9.70732430e-17
1.65958691e+02 3.54284132e-15 6.41356556e-17 0.00000000e+00 3.47870566e-15 0.00000000e+00 6.41356556e-17
1.90546072e+02 1.86866836e-15 4.23740075e-17 0.00000000e+00 1.82629436e-15 0.00000000e+00 4.23740075e-17
2.18776162e+02 9.85224322e-16 2.79962291e-17 0.00000000e+00 9.57228093e-16 0.00000000e+00 2.79962291e-17
2.51188643e+02 5.18399722e-16 1.84969251e-17 0.00000000e+00 4.99902797e-16 0.00000000e+00 1.84969251e-17
2.88403150e+02 2.71994951e-16 1.22207972e-17 0.00000000e+00 2.59774153e-16 0.00000000e+00 1.22207972e-17
3.31131121e+02 1.42655706e-16 8.07420067e-18 0.00000000e+00 1.34581506e-16 0.00000000e+00 8.07420067e-18
3.80189396e+02 7.47683631e-17 5.33457148e-18 0.00000000e+00 6.94337916e-17 0.00000000e+00 5.33457148e-18
4.36515832e+02 3.92468815e-17 3.52451642e-18 0.00000000e+00 3.57223651e-17 0.00000000e+00 3.52451642e-18
5.01187234e+02 2.06512488e-17 2.32862491e-18 0.00000000e+00 1.83226239e-17 0.00000000e+00 2.32862491e-18
5.75439937e+02 1.09128432e-17 1.53850722e-18 0.00000000e+00 9.37433600e-18 0.00000000e+00 1.53850722e-18
6.60693448e+02 5.80209846e-18 1.01648164e-18 0.00000000e+00 4.78561682e-18 0.00000000e+00 1.01648164e-18
7.58577575e+02 3.10994177e-18 6.71582760e-19 0.00000000e+00 2.43835901e-18 0.00000000e+00 6.71582760e-19
8.70963590e+02 1.68370076e-18 4.43710329e-19 0.00000000e+00 1.23999043e-18 0.00000000e+00 4.43710329e-19
1.00000000e+03 6.29438913e-19 0.00000000e+00 0.00000000e+00 6.29438913e-19 0.00000000e+00 0.00000000e+00
