# column 1: lambda (micron)
# column 2: total flux; lambda*F_lambda (W/m2)
# column 3: direct stellar flux; lambda*F_lambda (W/m2)
# column 4: scattered stellar flux; lambda*F_lambda (W/m2)
# column 5: total dust emission flux; lambda*F_lambda (W/m2)
# column 6: dust emission scattered flux; lambda*F_lambda (W/m2)
# column 7: transparent flux; lambda*F_lambda (W/m2)
1.00000000e-03 5.25636763e-13 5.25636674e-13 8.89730439e-20 0.00000000e+00 0.00000000e+00 5.25636674e-13
1.14815362e-03 6.20419952e-13 6.20419813e-13 1.38847932e-19 0.00000000e+00 0.00000000e+00 6.20419813e-13
1.31825674e-03 7.32294525e-13 7.32294308e-13 2.16773408e-19 0.00000000e+00 0.00000000e+00 7.32294308e-13
1.51356125e-03 8.64342426e-13 8.64342083e-13 3.42782881e-19 0.00000000e+00 0.00000000e+00 8.64342083e-13
1.73780083e-03 1.02020146e-12 1.02020080e-12 6.64458016e-19 0.00000000e+00 0.00000000e+00 1.02020080e-12
1.99526231e-03 1.20416516e-12 1.20416405e-12 1.11031408e-18 0.00000000e+00 0.00000000e+00 1.20416405e-12
2.29086765e-03 1.42130161e-12 1.42129968e-12 1.92670275e-18 0.00000000e+00 0.00000000e+00 1.42129968e-12
2.63026799e-03 1.67759270e-12 1.67758934e-12 3.36015986e-18 0.00000000e+00 0.00000000e+00 1.67758934e-12
3.01995172e-03 1.98009947e-12 1.98009332e-12 6.14879240e-18 0.00000000e+00 0.00000000e+00 1.98009332e-12
3.46736850e-03 2.33715515e-12 2.33714500e-12 1.01422102e-17 0.00000000e+00 0.00000000e+00 2.33714500e-12
3.98107171e-03 2.75859585e-12 2.75858048e-12 1.53762445e-17 0.00000000e+00 0.00000000e+00 2.75858048e-12
4.57088190e-03 3.25604364e-12 3.25600946e-12 3.41754445e-17 0.00000000e+00 0.00000000e+00 3.25600946e-12
5.24807460e-03 3.84320271e-12 3.84313516e-12 6.75519300e-17 0.00000000e+00 0.00000000e+00 3.84313516e-12
6.02559586e-03 4.53625796e-12 4.53613173e-12 1.26229324e-16 0.00000000e+00 0.00000000e+00 4.53613173e-12
6.91830971e-03 5.35428977e-12 5.35408989e-12 1.99878471e-16 0.00000000e+00 0.00000000e+00 5.35408989e-12
7.94328235e-03 6.31985851e-12 6.31954278e-12 3.15721971e-16 9.64952085e-304 1.78367490e-305 6.31954278e-12
9.12010839e-03 7.45966142e-12 7.45908676e-12 5.74660645e-16 4.12905268e-265 3.27227959e-267 7.45908676e-12
1.04712855e-02 8.33157763e-12 8.33078048e-12 7.97157678e-16 1.75768942e-231 4.46273856e-233 8.33078048e-12
1.20226443e-02 8.33184708e-12 8.33078048e-12 1.06660219e-15 2.71297970e-202 5.70134550e-204 8.33078048e-12
1.38038426e-02 8.33476424e-12 8.33078048e-12 3.98376847e-15 7.34421032e-177 1.78508088e-178 8.33078048e-12
1.58489319e-02 8.33341460e-12 8.33078048e-12 2.63411971e-15 9.84166561e-155 2.40131002e-156 8.33078048e-12
1.81970086e-02 8.33373681e-12 8.33078048e-12 2.95633719e-15 1.74741656e-135 4.91110367e-137 8.33078048e-12
2.08929613e-02 8.33507431e-12 8.33078048e-12 4.29383269e-15 9.06912274e-119 2.66501287e-120 8.33078048e-12
2.39883292e-02 8.33616446e-12 8.33078048e-12 5.38398232e-15 3.16225679e-104 9.89473110e-106 8.33078048e-12
2.75422870e-02 8.33840289e-12 8.33078048e-12 7.62241432e-15 1.41184123e-91 5.22334033e-93 8.33078048e-12
3.16227766e-02 8.34058492e-12 8.33078048e-12 9.80444822e-15 1.36874402e-80 5.36127001e-82 8.33078048e-12
3.63078055e-02 8.34209789e-12 8.33078048e-12 1.13174098e-14 4.72019775e-71 1.92258705e-72 8.33078048e-12
4.16869383e-02 8.34666298e-12 8.33078048e-12 1.58825058e-14 8.97199763e-63 4.31875345e-64 8.33078048e-12
4.78630092e-02 8.35061181e-12 8.33078048e-12 1.98313313e-14 1.34585192e-55 7.33968751e-57 8.33078048e-12
5.49540874e-02 8.35482794e-12 8.33078048e-12 2.40474621e-14 2.21904602e-49 1.33175163e-50 8.33078048e-12
6.30957344e-02 8.35917970e-12 8.33078048e-12 2.83992286e-14 7.05912157e-44 4.79800579e-45 8.33078048e-12
7.24435960e-02 8.36209129e-12 8.33078048e-12 3.13108187e-14 3.99897400e-39 2.58623349e-40 8.33078048e-12
8.31763771e-02 8.36128579e-12 8.33078048e-12 3.05053103e-14 4.08591696e-35 2.60102155e-36 8.33078048e-12
9.54992586e-02 8.36042184e-12 8.33078048e-12 2.96413655e-14 1.15521931e-31 7.40849992e-33 8.33078048e-12
1.09647820e-01 7.98548658e-12 7.95583672e-12 2.96498598e-14 9.91052961e-29 6.51560486e-30 7.95583672e-12
1.25892541e-01 7.45099988e-12 7.42481883e-12 2.61810409e-14 3.24670850e-26 2.08197848e-27 7.42481883e-12
1.44543977e-01 6.95410834e-12 6.92924411e-12 2.48642347e-14 4.44982194e-24 2.66112851e-25 6.92924411e-12
1.65958691e-01 6.49103596e-12 6.46674687e-12 2.42890896e-14 2.25788933e-22 1.38906882e-23 6.46674687e-12
1.90546072e-01 6.06047048e-12 6.03511933e-12 2.53511531e-14 4.73187195e-21 3.35472427e-22 6.03511933e-12
2.18776162e-01 5.65747558e-12 5.63230107e-12 2.51744592e-14 5.55541642e-20 4.10083647e-21 5.63230107e-12
2.51188643e-01 5.28516415e-12 5.25636919e-12 2.87942828e-14 6.74414468e-19 5.42217873e-20 5.25636919e-12
2.88403150e-01 4.93228830e-12 4.90552916e-12 2.67535008e-14 5.64174217e-18 4.36295527e-19 4.90552916e-12
3.31131121e-01 4.60204407e-12 4.57810618e-12 2.39054568e-14 3.24320074e-17 2.39451254e-18 4.57810618e-12
3.80189396e-01 4.29302127e-12 4.27253728e-12 2.03486464e-14 1.35339217e-16 9.45762693e-18 4.27253728e-12
4.36515832e-01 4.00569266e-12 3.98736380e-12 1.79002556e-14 4.28604887e-16 2.88380621e-17 3.98736380e-12
5.01187234e-01 3.73844110e-12 3.72122441e-12 1.61470621e-14 1.06962454e-15 6.86586302e-17 3.72122441e-12
5.75439937e-01 3.48989960e-12 3.47284869e-12 1.48566276e-14 2.19428326e-15 1.32937940e-16 3.47284869e-12
6.60693448e-01 3.25844473e-12 3.24105097e-12 1.35619987e-14 3.83175737e-15 2.21246838e-16 3.24105097e-12
7.58577575e-01 3.04283201e-12 3.02472476e-12 1.21771818e-14 5.93007226e-15 3.21433000e-16 3.02472476e-12
8.70963590e-01 2.84240933e-12 2.82283739e-12 1.12172354e-14 8.35470621e-15 4.36642211e-16 2.82283739e-12
1.00000000e+00 2.65404359e-12 2.63442513e-12 8.72323074e-15 1.08952288e-14 5.17983573e-16 2.63442513e-12
1.14815362e+00 2.48018947e-12 2.45858859e-12 7.64203202e-15 1.39588492e-14 6.14652333e-16 2.45858859e-12
1.31825674e+00 2.31922054e-12 2.29448837e-12 6.28225654e-15 1.84499087e-14 7.87844756e-16 2.29448837e-12
1.51356125e+00 2.17193345e-12 2.14134114e-12 4.58945081e-15 2.60028589e-14 1.11912092e-15 2.14134114e-12
1.73780083e+00 2.04096048e-12 1.99841583e-12 3.90359433e-15 3.86410527e-14 1.59891626e-15 1.99841583e-12
1.99526231e+00 1.92569756e-12 1.86503017e-12 2.81559615e-15 5.78517908e-14 2.16664399e-15 1.86503017e-12
2.29086765e+00 1.82641485e-12 1.74054743e-12 1.97157074e-15 8.38958573e-14 2.63840069e-15 1.74054743e-12
2.63026799e+00 1.74000560e-12 1.62437337e-12 1.32353883e-15 1.14308686e-13 2.89650865e-15 1.62437337e-12
3.01995172e+00 1.66219762e-12 1.51595343e-12 9.69242389e-16 1.45274940e-13 2.83827688e-15 1.51595343e-12
3.46736850e+00 1.58875143e-12 1.41477006e-12 6.70430759e-16 1.73310941e-13 2.53879219e-15 1.41477006e-12
3.98107171e+00 1.51419007e-12 1.32034025e-12 4.54558771e-16 1.93395261e-13 2.08558385e-15 1.32034025e-12
4.57088190e+00 1.43652326e-12 1.23221321e-12 2.78590772e-16 2.04031460e-13 1.54092949e-15 1.23221321e-12
5.24807460e+00 1.22405640e-12 1.01885146e-12 1.63602438e-16 2.05041336e-13 1.04765359e-15 1.01885146e-12
6.02559586e+00 8.72430338e-13 6.73148485e-13 6.58375867e-17 1.99216015e-13 6.66228172e-16 6.73148485e-13
6.70000000e+00 6.80490012e-13 4.89650796e-13 3.47729160e-17 1.90804443e-13 4.42739540e-16 4.89650796e-13
6.92422916e+00 6.31267444e-13 4.43605145e-13 2.64444785e-17 1.87635855e-13 3.86216884e-16 4.43605145e-13
7.15596261e+00 5.87552232e-13 4.01889522e-13 2.11002007e-17 1.85641610e-13 3.34583575e-16 4.01889522e-13
7.39545150e+00 5.51452257e-13 3.64096743e-13 1.62261627e-17 1.87339289e-13 2.80470429e-16 3.64096743e-13
7.64295536e+00 5.29584654e-13 3.29857910e-13 1.14172156e-17 1.99715326e-13 2.38783713e-16 3.29857910e-13
7.89874245e+00 5.29278122e-13 2.98838820e-13 7.11407127e-18 2.30432189e-13 1.96310397e-16 2.98838820e-13
8.16308998e+00 5.46101267e-13 2.70736695e-13 4.41231372e-18 2.75360160e-13 1.57998331e-16 2.70736695e-13
8.43628443e+00 5.85717895e-13 2.45277229e-13 2.52984977e-18 3.40438136e-13 1.22541243e-16 2.45277229e-13
8.71862190e+00 6.10746515e-13 2.22211915e-13 1.49151489e-18 3.88533109e-13 9.45556927e-17 2.22211915e-13
9.01040836e+00 6.41121361e-13 2.01315610e-13 9.63863709e-19 4.39804787e-13 6.76539699e-17 2.01315610e-13
9.31196005e+00 6.67994790e-13 1.82384346e-13 0.00000000e+00 4.85610444e-13 0.00000000e+00 1.82384346e-13
9.62360379e+00 6.56044713e-13 1.65233336e-13 0.00000000e+00 4.90811378e-13 0.00000000e+00 1.65233336e-13
9.94567731e+00 6.10598614e-13 1.49695167e-13 0.00000000e+00 4.60903447e-13 0.00000000e+00 1.49695167e-13
1.02785297e+01 5.59011458e-13 1.35618173e-13 0.00000000e+00 4.23393285e-13 0.00000000e+00 1.35618173e-13
1.06225216e+01 5.09331551e-13 1.22864947e-13 0.00000000e+00 3.86466603e-13 0.00000000e+00 1.22864947e-13
1.09780260e+01 4.56077036e-13 1.11311006e-13 0.00000000e+00 3.44766030e-13 0.00000000e+00 1.11311006e-13
1.13454280e+01 4.10137746e-13 1.00843571e-13 0.00000000e+00 3.09294174e-13 0.00000000e+00 1.00843571e-13
1.17251259e+01 3.68393462e-13 9.13604705e-14 0.00000000e+00 2.77032991e-13 0.00000000e+00 9.13604705e-14
1.21175312e+01 3.31915809e-13 8.27691389e-14 0.00000000e+00 2.49146670e-13 0.00000000e+00 8.27691389e-14
1.25230691e+01 2.99036056e-13 7.49857166e-14 0.00000000e+00 2.24050340e-13 0.00000000e+00 7.49857166e-14
1.29421791e+01 2.70130548e-13 6.79342298e-14 0.00000000e+00 2.02196318e-13 0.00000000e+00 6.79342298e-14
1.33753155e+01 2.45745821e-13 6.15458488e-14 0.00000000e+00 1.84199972e-13 0.00000000e+00 6.15458488e-14
1.38229477e+01 2.28443492e-13 5.57582167e-14 0.00000000e+00 1.72685275e-13 0.00000000e+00 5.57582167e-14
1.42855609e+01 2.16739483e-13 5.05148403e-14 0.00000000e+00 1.66224643e-13 0.00000000e+00 5.05148403e-14
1.47636563e+01 2.14961208e-13 4.57645392e-14 0.00000000e+00 1.69196669e-13 0.00000000e+00 4.57645392e-14
1.52577522e+01 2.15547481e-13 4.14609457e-14 0.00000000e+00 1.74086535e-13 0.00000000e+00 4.14609457e-14
1.57683840e+01 2.18153520e-13 3.75620523e-14 0.00000000e+00 1.80591468e-13 0.00000000e+00 3.75620523e-14
1.62961051e+01 2.21639727e-13 3.40298020e-14 0.00000000e+00 1.87609925e-13 0.00000000e+00 3.40298020e-14
1.68414875e+01 2.25627963e-13 3.08297166e-14 0.00000000e+00 1.94798247e-13 0.00000000e+00 3.08297166e-14
1.74051222e+01 2.26443219e-13 2.79305599e-14 0.00000000e+00 1.98512659e-13 0.00000000e+00 2.79305599e-14
1.79876201e+01 2.25622928e-13 2.53040334e-14 0.00000000e+00 2.00318895e-13 0.00000000e+00 2.53040334e-14
1.85896125e+01 2.21084257e-13 2.29244994e-14 0.00000000e+00 1.98159758e-13 0.00000000e+00 2.29244994e-14
1.92117518e+01 2.13262906e-13 2.07687314e-14 0.00000000e+00 1.92494174e-13 0.00000000e+00 2.07687314e-14
1.98547123e+01 2.03988735e-13 1.88156870e-14 0.00000000e+00 1.85173048e-13 0.00000000e+00 1.88156870e-14
2.05191907e+01 1.94114983e-13 1.70463024e-14 0.00000000e+00 1.77068680e-13 0.00000000e+00 1.70463024e-14
2.12059073e+01 1.85188971e-13 1.54433068e-14 0.00000000e+00 1.69745664e-13 0.00000000e+00 1.54433068e-14
2.19156062e+01 1.76215058e-13 1.39910532e-14 0.00000000e+00 1.62224004e-13 0.00000000e+00 1.39910532e-14
2.26490567e+01 1.68338563e-13 1.26753663e-14 0.00000000e+00 1.55663197e-13 0.00000000e+00 1.26753663e-14
2.34070535e+01 1.61371103e-13 1.14834036e-14 0.00000000e+00 1.49887699e-13 0.00000000e+00 1.14834036e-14
2.41904183e+01 1.54695065e-13 1.04035303e-14 0.00000000e+00 1.44291535e-13 0.00000000e+00 1.04035303e-14
2.50000000e+01 1.48271954e-13 9.42520591e-15 0.00000000e+00 1.38846748e-13 0.00000000e+00 9.42520591e-15
2.75422870e+01 1.30734855e-13 7.04872996e-15 0.00000000e+00 1.23686125e-13 0.00000000e+00 7.04872996e-15
3.16227766e+01 1.07574207e-13 4.65704970e-15 0.00000000e+00 1.02917157e-13 0.00000000e+00 4.65704970e-15
3.63078055e+01 8.50586306e-14 3.07688223e-15 0.00000000e+00 8.19817484e-14 0.00000000e+00 3.07688223e-15
4.16869383e+01 6.33678603e-14 2.03287593e-15 0.00000000e+00 6.13349844e-14 0.00000000e+00 2.03287593e-15
4.78630092e+01 4.44266616e-14 1.34310781e-15 0.00000000e+00 4.30835538e-14 0.00000000e+00 1.34310781e-15
5.49540874e+01 2.94581162e-14 8.87382527e-16 0.00000000e+00 2.85707337e-14 0.00000000e+00 8.87382527e-16
6.30957344e+01 1.87024416e-14 5.86287821e-16 0.00000000e+00 1.81161538e-14 0.00000000e+00 5.86287821e-16
7.24435960e+01 1.14285203e-14 3.87356522e-16 0.00000000e+00 1.10411638e-14 0.00000000e+00 3.87356522e-16
8.31763771e+01 6.78849071e-15 2.55923916e-16 0.00000000e+00 6.53256679e-15 0.00000000e+00 2.55923916e-16
9.54992586e+01 3.94506516e-15 1.69087255e-16 0.00000000e+00 3.77597791e-15 0.00000000e+00 1.69087255e-16
1.09647820e+02 2.25516996e-15 1.11714841e-16 0.00000000e+00 2.14345512e-15 0.00000000e+00 1.11714841e-16
1.25892541e+02 1.28602645e-15 7.38092637e-17 0.00000000e+00 1.21221719e-15 0.00000000e+00 7.38092637e-17
1.44543977e+02 7.28228530e-16 4.87652969e-17 0.00000000e+00 6.79463233e-16 0.00000000e+00 4.87652969e-17
1.65958691e+02 3.94275481e-16 3.22189122e-17 0.00000000e+00 3.62056568e-16 0.00000000e+00 3.22189122e-17
1.90546072e+02 2.13865071e-16 2.12868242e-17 0.00000000e+00 1.92578246e-16 0.00000000e+00 2.12868242e-17
2.18776162e+02 1.16108337e-16 1.40640653e-17 0.00000000e+00 1.02044272e-16 0.00000000e+00 1.40640653e-17
2.51188643e+02 6.30690141e-17 9.29203577e-18 0.00000000e+00 5.37769783e-17 0.00000000e+00 9.29203577e-18
2.88403150e+02 3.42972558e-17 6.13918715e-18 0.00000000e+00 2.81580687e-17 0.00000000e+00 6.13918715e-18
3.31131121e+02 1.87380093e-17 4.05612073e-18 0.00000000e+00 1.46818886e-17 0.00000000e+00 4.05612073e-18
3.80189396e+02 1.02958631e-17 2.67985239e-18 0.00000000e+00 7.61601071e-18 0.00000000e+00 2.67985239e-18
4.36515832e+02 5.70683190e-18 1.77056092e-18 0.00000000e+00 3.93627099e-18 0.00000000e+00 1.77056092e-18
5.01187234e+02 3.19667703e-18 1.16979800e-18 0.00000000e+00 2.02687904e-18 0.00000000e+00 1.16979800e-18
5.75439937e+02 1.81332923e-18 7.72877871e-19 0.00000000e+00 1.04045136e-18 0.00000000e+00 7.72877871e-19
6.60693448e+02 1.04329009e-18 5.10635346e-19 0.00000000e+00 5.32654743e-19 0.00000000e+00 5.10635346e-19
7.58577575e+02 6.09427651e-19 3.37373427e-19 0.00000000e+00 2.72054224e-19 0.00000000e+00 3.37373427e-19
8.70963590e+02 3.61535451e-19 2.22900413e-19 0.00000000e+00 1.38635038e-19 0.00000000e+00 2.22900413e-19
1.00000000e+03 7.04984686e-20 0.00000000e+00 0.00000000e+00 7.04984686e-20 0.00000000e+00 0.00000000e+00
