# column 1: lambda (micron)
# column 2: total flux; lambda*F_lambda (W/m2)
# column 3: direct stellar flux; lambda*F_lambda (W/m2)
# column 4: scattered stellar flux; lambda*F_lambda (W/m2)
# column 5: total dust emission flux; lambda*F_lambda (W/m2)
# column 6: dust emission scattered flux; lambda*F_lambda (W/m2)
# column 7: transparent flux; lambda*F_lambda (W/m2)
1.00000000e-03 5.25589705e-13 5.25589231e-13 4.74093907e-19 0.00000000e+00 0.00000000e+00 5.25636674e-13
1.14815362e-03 6.20346623e-13 6.20345831e-13 7.91240097e-19 0.00000000e+00 0.00000000e+00 6.20419813e-13
1.31825674e-03 7.32184385e-13 7.32183287e-13 1.09816550e-18 0.00000000e+00 0.00000000e+00 7.32294308e-13
1.51356125e-03 8.64189429e-13 8.64187593e-13 1.83600751e-18 0.00000000e+00 0.00000000e+00 8.64342083e-13
1.73780083e-03 1.02001969e-12 1.02001656e-12 3.12435125e-18 0.00000000e+00 0.00000000e+00 1.02020080e-12
1.99526231e-03 1.20388134e-12 1.20387576e-12 5.58546373e-18 0.00000000e+00 0.00000000e+00 1.20416405e-12
2.29086765e-03 1.42094736e-12 1.42093884e-12 8.52572620e-18 0.00000000e+00 0.00000000e+00 1.42129968e-12
2.63026799e-03 1.67709807e-12 1.67707896e-12 1.91104741e-17 0.00000000e+00 0.00000000e+00 1.67758934e-12
3.01995172e-03 1.97937963e-12 1.97934830e-12 3.13296776e-17 0.00000000e+00 0.00000000e+00 1.98009332e-12
3.46736850e-03 2.33616449e-12 2.33610856e-12 5.59284137e-17 0.00000000e+00 0.00000000e+00 2.33714500e-12
3.98107171e-03 2.75726483e-12 2.75718021e-12 8.46221939e-17 0.00000000e+00 0.00000000e+00 2.75858048e-12
4.57088190e-03 3.25509173e-12 3.25490690e-12 1.84834299e-16 0.00000000e+00 0.00000000e+00 3.25600946e-12
5.24807460e-03 3.84179645e-12 3.84147307e-12 3.23382615e-16 0.00000000e+00 0.00000000e+00 3.84313516e-12
6.02559586e-03 4.53437718e-12 4.53376640e-12 6.10783054e-16 0.00000000e+00 0.00000000e+00 4.53613173e-12
6.91830971e-03 5.35179596e-12 5.35086785e-12 9.28111902e-16 0.00000000e+00 0.00000000e+00 5.35408989e-12
7.94328235e-03 6.31692704e-12 6.31530003e-12 1.62700962e-15 2.05598255e-304 4.24628786e-307 6.31954278e-12
9.12010839e-03 7.45898595e-12 7.45352980e-12 5.45615225e-15 8.68290109e-266 1.34837930e-268 7.45908676e-12
1.04712855e-02 8.32796965e-12 8.32417793e-12 3.79171847e-15 3.55515765e-232 7.10347330e-235 8.33078048e-12
1.20226443e-02 8.32970966e-12 8.32378843e-12 5.92123363e-15 5.44796207e-203 4.63185340e-205 8.33078048e-12
1.38038426e-02 8.33178037e-12 8.32332645e-12 8.45391536e-15 1.44157273e-177 6.09462803e-180 8.33078048e-12
1.58489319e-02 8.33425177e-12 8.32275876e-12 1.14930110e-14 1.91160143e-155 1.19321855e-157 8.33078048e-12
1.81970086e-02 8.33740216e-12 8.32223520e-12 1.51669678e-14 3.35569798e-136 3.18096124e-138 8.33078048e-12
2.08929613e-02 8.34311714e-12 8.32180003e-12 2.13171064e-14 1.72652308e-119 2.01509129e-121 8.33078048e-12
2.39883292e-02 8.35188178e-12 8.32123623e-12 3.06455441e-14 5.99044067e-105 9.60474133e-107 8.33078048e-12
2.75422870e-02 8.35987201e-12 8.32058049e-12 3.92915279e-14 2.65724468e-92 5.59649129e-94 8.33078048e-12
3.16227766e-02 8.36987511e-12 8.31993776e-12 4.99373445e-14 2.56809040e-81 6.40230043e-83 8.33078048e-12
3.63078055e-02 8.37544499e-12 8.31943368e-12 5.60113079e-14 8.83807652e-72 2.50288789e-73 8.33078048e-12
4.16869383e-02 8.38856400e-12 8.31899771e-12 6.95662913e-14 1.67599064e-63 6.36493078e-65 8.33078048e-12
4.78630092e-02 8.40344978e-12 8.31779608e-12 8.56536957e-14 2.52795352e-56 1.22424193e-57 8.33078048e-12
5.49540874e-02 8.41449253e-12 8.31612528e-12 9.83672543e-14 4.19857899e-50 2.44593187e-51 8.33078048e-12
6.30957344e-02 8.41746380e-12 8.31193722e-12 1.05526579e-13 1.35640042e-44 9.09469611e-46 8.33078048e-12
7.24435960e-02 8.40605884e-12 8.30697914e-12 9.90797002e-14 7.82531924e-40 5.05768134e-41 8.33078048e-12
8.31763771e-02 8.40336559e-12 8.30742022e-12 9.59453759e-14 7.97138480e-36 5.05459197e-37 8.33078048e-12
9.54992586e-02 8.41025914e-12 8.30871401e-12 1.01545135e-13 2.23747853e-32 1.46510899e-33 8.33078048e-12
1.09647820e-01 8.04333625e-12 7.93832613e-12 1.05010115e-13 1.88964372e-29 1.31033175e-30 7.95583672e-12
1.25892541e-01 7.50949125e-12 7.41136438e-12 9.81268705e-14 6.08593208e-27 4.08467357e-28 7.42481883e-12
1.44543977e-01 7.00503918e-12 6.91883506e-12 8.62041138e-14 8.23531098e-25 5.23402804e-26 6.92924411e-12
1.65958691e-01 6.54609752e-12 6.45825044e-12 8.78470841e-14 4.15773418e-23 2.85358416e-24 6.46674687e-12
1.90546072e-01 6.12085258e-12 6.02666030e-12 9.41922888e-14 8.76497876e-22 7.10853818e-23 6.03511933e-12
2.18776162e-01 5.71169264e-12 5.62304179e-12 8.86508347e-14 1.03849080e-20 8.86146621e-22 5.63230107e-12
2.51188643e-01 5.34677977e-12 5.24945730e-12 9.73223442e-14 1.25438397e-19 1.24796072e-20 5.25636919e-12
2.88403150e-01 4.98764797e-12 4.90017305e-12 8.74738763e-14 1.03690749e-18 9.77860836e-20 4.90552916e-12
3.31131121e-01 4.65407749e-12 4.57374848e-12 8.03230742e-14 5.93310265e-18 5.48336783e-19 4.57810618e-12
3.80189396e-01 4.34415298e-12 4.26896577e-12 7.51625898e-14 2.46219651e-17 2.16069020e-18 4.27253728e-12
4.36515832e-01 4.04764516e-12 3.98446276e-12 6.31043974e-14 7.79985461e-17 6.71445362e-18 3.98736380e-12
5.01187234e-01 3.77672360e-12 3.71889988e-12 5.76257889e-14 1.97930919e-16 1.70255543e-17 3.72122441e-12
5.75439937e-01 3.52498411e-12 3.47100530e-12 5.35448708e-14 4.33935685e-16 3.86123646e-17 3.47284869e-12
6.60693448e-01 3.28714844e-12 3.23960179e-12 4.66346046e-14 9.12046329e-16 8.99197092e-17 3.24105097e-12
7.58577575e-01 3.06831094e-12 3.02359932e-12 4.26569150e-14 2.05469847e-15 2.34189592e-16 3.02472476e-12
8.70963590e-01 2.86328635e-12 2.82198274e-12 3.62803860e-14 5.02322409e-15 6.29484124e-16 2.82283739e-12
1.00000000e+00 2.67802435e-12 2.63378660e-12 3.19767048e-14 1.22610480e-14 1.56235551e-15 2.63442513e-12
1.14815362e+00 2.51373484e-12 2.45812000e-12 2.67997628e-14 2.88150829e-14 3.52407205e-15 2.45858859e-12
1.31825674e+00 2.37840262e-12 2.29415047e-12 2.15791975e-14 6.26729550e-14 6.98870548e-15 2.29448837e-12
1.51356125e+00 2.28219249e-12 2.14109994e-12 1.69880510e-14 1.24104501e-13 1.22106243e-14 2.14134114e-12
1.73780083e+00 2.23130472e-12 1.99824646e-12 1.36954738e-14 2.19362792e-13 1.84207423e-14 1.99841583e-12
1.99526231e+00 2.22122866e-12 1.86491310e-12 1.03804114e-14 3.45935153e-13 2.34040213e-14 1.86503017e-12
2.29086765e+00 2.24306528e-12 1.74046676e-12 7.27629279e-15 4.95322231e-13 2.62095611e-14 1.74054743e-12
2.63026799e+00 2.27552575e-12 1.62431727e-12 5.22769154e-15 6.45980790e-13 2.63834783e-14 1.62437337e-12
3.01995172e+00 2.30159330e-12 1.51591391e-12 3.64563404e-15 7.82033750e-13 2.39248687e-14 1.51595343e-12
3.46736850e+00 2.30631229e-12 1.41474177e-12 2.49398673e-15 8.89076536e-13 2.00401527e-14 1.41477006e-12
3.98107171e+00 2.27363797e-12 1.32031973e-12 1.70443541e-15 9.51613805e-13 1.56089020e-14 1.32034025e-12
4.57088190e+00 2.20464348e-12 1.23219813e-12 1.12448203e-15 9.71320867e-13 1.11036584e-14 1.23221321e-12
5.24807460e+00 1.97942398e-12 1.01884145e-12 6.23415743e-16 9.59959120e-13 7.53082151e-15 1.01885146e-12
6.02559586e+00 1.59889390e-12 6.73142986e-13 2.64286683e-16 9.25486625e-13 4.71648935e-15 6.73148485e-13
6.70000000e+00 1.37361410e-12 4.89647255e-13 1.31544717e-16 8.83835301e-13 3.13123192e-15 4.89650796e-13
6.92422916e+00 1.31365989e-12 4.43602049e-13 1.08357469e-16 8.69949479e-13 2.71054698e-15 4.43605145e-13
7.15596261e+00 1.26199715e-12 4.01886767e-13 8.37278344e-17 8.60026658e-13 2.34859366e-15 4.01889522e-13
7.39545150e+00 1.23168381e-12 3.64094187e-13 6.31165758e-17 8.67526510e-13 2.00200543e-15 3.64096743e-13
7.64295536e+00 1.24936826e-12 3.29855272e-13 4.46241052e-17 9.19468363e-13 1.69384334e-15 3.29857910e-13
7.89874245e+00 1.34250544e-12 2.98835732e-13 2.79352111e-17 1.04364177e-12 1.36696064e-15 2.98838820e-13
8.16308998e+00 1.49268657e-12 2.70732917e-13 1.72302111e-17 1.22193642e-12 1.10269529e-15 2.70736695e-13
8.43628443e+00 1.71131586e-12 2.45272474e-13 9.65912460e-18 1.46603373e-12 8.46190152e-16 2.45277229e-13
8.71862190e+00 1.86569772e-12 2.22206622e-13 5.90420430e-18 1.64348519e-12 6.57245418e-16 2.22211915e-13
9.01040836e+00 2.02319308e-12 2.01309801e-13 3.50378473e-18 1.82187978e-12 4.73625956e-16 2.01315610e-13
9.31196005e+00 2.15406227e-12 1.82378242e-13 0.00000000e+00 1.97168402e-12 0.00000000e+00 1.82384346e-13
9.62360379e+00 2.13773656e-12 1.65227660e-13 0.00000000e+00 1.97250890e-12 0.00000000e+00 1.65233336e-13
9.94567731e+00 2.01548547e-12 1.49690342e-13 0.00000000e+00 1.86579513e-12 0.00000000e+00 1.49695167e-13
1.02785297e+01 1.85411401e-12 1.35614219e-13 0.00000000e+00 1.71849979e-12 0.00000000e+00 1.35618173e-13
1.06225216e+01 1.71251959e-12 1.22861741e-13 0.00000000e+00 1.58965785e-12 0.00000000e+00 1.22864947e-13
1.09780260e+01 1.54430675e-12 1.11308500e-13 0.00000000e+00 1.43299825e-12 0.00000000e+00 1.11311006e-13
1.13454280e+01 1.40437369e-12 1.00841605e-13 0.00000000e+00 1.30353208e-12 0.00000000e+00 1.00843571e-13
1.17251259e+01 1.28091815e-12 9.13589176e-14 0.00000000e+00 1.18955923e-12 0.00000000e+00 9.13604705e-14
1.21175312e+01 1.16925909e-12 8.27679188e-14 0.00000000e+00 1.08649117e-12 0.00000000e+00 8.27691389e-14
1.25230691e+01 1.06887080e-12 7.49847607e-14 0.00000000e+00 9.93886038e-13 0.00000000e+00 7.49857166e-14
1.29421791e+01 9.82299922e-13 6.79334755e-14 0.00000000e+00 9.14366447e-13 0.00000000e+00 6.79342298e-14
1.33753155e+01 9.05719552e-13 6.15452494e-14 0.00000000e+00 8.44174302e-13 0.00000000e+00 6.15458488e-14
1.38229477e+01 8.57962357e-13 5.57577184e-14 0.00000000e+00 8.02204638e-13 0.00000000e+00 5.57582167e-14
1.42855609e+01 8.30413471e-13 5.05144072e-14 0.00000000e+00 7.79899063e-13 0.00000000e+00 5.05148403e-14
1.47636563e+01 8.36312296e-13 4.57641282e-14 0.00000000e+00 7.90548168e-13 0.00000000e+00 4.57645392e-14
1.52577522e+01 8.55430030e-13 4.14605485e-14 0.00000000e+00 8.13969482e-13 0.00000000e+00 4.14609457e-14
1.57683840e+01 8.80517197e-13 3.75616636e-14 0.00000000e+00 8.42955533e-13 0.00000000e+00 3.75620523e-14
1.62961051e+01 9.01166223e-13 3.40294221e-14 0.00000000e+00 8.67136801e-13 0.00000000e+00 3.40298020e-14
1.68414875e+01 9.25772419e-13 3.08293461e-14 0.00000000e+00 8.94943073e-13 0.00000000e+00 3.08297166e-14
1.74051222e+01 9.41079995e-13 2.79302081e-14 0.00000000e+00 9.13149787e-13 0.00000000e+00 2.79305599e-14
1.79876201e+01 9.43873564e-13 2.53037049e-14 0.00000000e+00 9.18569859e-13 0.00000000e+00 2.53040334e-14
1.85896125e+01 9.38381489e-13 2.29242022e-14 0.00000000e+00 9.15457287e-13 0.00000000e+00 2.29244994e-14
1.92117518e+01 9.13283282e-13 2.07684704e-14 0.00000000e+00 8.92514812e-13 0.00000000e+00 2.07687314e-14
1.98547123e+01 8.86854676e-13 1.88154622e-14 0.00000000e+00 8.68039214e-13 0.00000000e+00 1.88156870e-14
2.05191907e+01 8.49573427e-13 1.70461108e-14 0.00000000e+00 8.32527316e-13 0.00000000e+00 1.70463024e-14
2.12059073e+01 8.17426526e-13 1.54431434e-14 0.00000000e+00 8.01983382e-13 0.00000000e+00 1.54433068e-14
2.19156062e+01 7.87470138e-13 1.39909133e-14 0.00000000e+00 7.73479225e-13 0.00000000e+00 1.39910532e-14
2.26490567e+01 7.61443868e-13 1.26752462e-14 0.00000000e+00 7.48768621e-13 0.00000000e+00 1.26753663e-14
2.34070535e+01 7.33067271e-13 1.14833004e-14 0.00000000e+00 7.21583971e-13 0.00000000e+00 1.14834036e-14
2.41904183e+01 7.05296999e-13 1.04034414e-14 0.00000000e+00 6.94893558e-13 0.00000000e+00 1.04035303e-14
2.50000000e+01 6.79267502e-13 9.42512911e-15 0.00000000e+00 6.69842373e-13 0.00000000e+00 9.42520591e-15
2.75422870e+01 5.99911934e-13 7.04867988e-15 0.00000000e+00 5.92863255e-13 0.00000000e+00 7.04872996e-15
3.16227766e+01 4.87792276e-13 4.65702219e-15 0.00000000e+00 4.83135254e-13 0.00000000e+00 4.65704970e-15
3.63078055e+01 3.75662022e-13 3.07686719e-15 0.00000000e+00 3.72585155e-13 0.00000000e+00 3.07688223e-15
4.16869383e+01 2.69082269e-13 2.03286793e-15 0.00000000e+00 2.67049401e-13 0.00000000e+00 2.03287593e-15
4.78630092e+01 1.80634736e-13 1.34310368e-15 0.00000000e+00 1.79291632e-13 0.00000000e+00 1.34310781e-15
5.49540874e+01 1.14313304e-13 8.87380446e-16 0.00000000e+00 1.13425923e-13 0.00000000e+00 8.87382527e-16
6.30957344e+01 6.92062452e-14 5.86286785e-16 0.00000000e+00 6.86199584e-14 0.00000000e+00 5.86287821e-16
7.24435960e+01 4.04285983e-14 3.87356010e-16 0.00000000e+00 4.00412423e-14 0.00000000e+00 3.87356522e-16
8.31763771e+01 2.29827122e-14 2.55923663e-16 0.00000000e+00 2.27267886e-14 0.00000000e+00 2.55923916e-16
9.54992586e+01 1.28265878e-14 1.69087129e-16 0.00000000e+00 1.26575007e-14 0.00000000e+00 1.69087255e-16
1.09647820e+02 7.06096585e-15 1.11714779e-16 0.00000000e+00 6.94925107e-15 0.00000000e+00 1.11714841e-16
1.25892541e+02 3.89144421e-15 7.38092323e-17 0.00000000e+00 3.81763497e-15 0.00000000e+00 7.38092637e-17
1.44543977e+02 2.13516427e-15 4.87652810e-17 0.00000000e+00 2.08639899e-15 0.00000000e+00 4.87652969e-17
1.65958691e+02 1.11892847e-15 3.22189044e-17 0.00000000e+00 1.08670957e-15 0.00000000e+00 3.22189122e-17
1.90546072e+02 5.88126910e-16 2.12868203e-17 0.00000000e+00 5.66840090e-16 0.00000000e+00 2.12868242e-17
2.18776162e+02 3.09361761e-16 1.40640633e-17 0.00000000e+00 2.95297698e-16 0.00000000e+00 1.40640653e-17
2.51188643e+02 1.62656287e-16 9.29203481e-18 0.00000000e+00 1.53364252e-16 0.00000000e+00 9.29203577e-18
2.88403150e+02 8.54385073e-17 6.13918667e-18 0.00000000e+00 7.92993206e-17 0.00000000e+00 6.13918715e-18
3.31131121e+02 4.49558338e-17 4.05612049e-18 0.00000000e+00 4.08997134e-17 0.00000000e+00 4.05612073e-18
3.80189396e+02 2.36984650e-17 2.67985227e-18 0.00000000e+00 2.10186127e-17 0.00000000e+00 2.67985239e-18
4.36515832e+02 1.25464286e-17 1.77056085e-18 0.00000000e+00 1.07758678e-17 0.00000000e+00 1.77056092e-18
5.01187234e+02 6.67984172e-18 1.16979797e-18 0.00000000e+00 5.51004375e-18 0.00000000e+00 1.16979800e-18
5.75439937e+02 3.58430857e-18 7.72877856e-19 0.00000000e+00 2.81143072e-18 0.00000000e+00 7.72877871e-19
6.60693448e+02 1.94245026e-18 5.10635338e-19 0.00000000e+00 1.43181492e-18 0.00000000e+00 5.10635346e-19
7.58577575e+02 1.06538398e-18 3.37373423e-19 0.00000000e+00 7.28010555e-19 0.00000000e+00 3.37373427e-19
8.70963590e+02 5.92437578e-19 2.22900411e-19 0.00000000e+00 3.69537167e-19 0.00000000e+00 2.22900413e-19
1.00000000e+03 1.87281343e-19 0.00000000e+00 0.00000000e+00 1.87281343e-19 0.00000000e+00 0.00000000e+00
