# column 1: lambda (micron)
# column 2: total flux; lambda*F_lambda (W/m2)
# column 3: direct stellar flux; lambda*F_lambda (W/m2)
# column 4: scattered stellar flux; lambda*F_lambda (W/m2)
# column 5: total dust emission flux; lambda*F_lambda (W/m2)
# column 6: dust emission scattered flux; lambda*F_lambda (W/m2)
# column 7: transparent flux; lambda*F_lambda (W/m2)
1.00000000e-03 6.94043294e-13 6.93993746e-13 4.95487312e-17 0.00000000e+00 0.00000000e+00 6.93993746e-13
1.14815362e-03 8.19139353e-13 8.19135139e-13 4.21369411e-18 0.00000000e+00 0.00000000e+00 8.19135139e-13
1.31825674e-03 9.66857442e-13 9.66842108e-13 1.53340420e-17 0.00000000e+00 0.00000000e+00 9.66842108e-13
1.51356125e-03 1.14151887e-12 1.14118369e-12 3.35181819e-16 0.00000000e+00 0.00000000e+00 1.14118369e-12
1.73780083e-03 1.34705710e-12 1.34696266e-12 9.44427078e-17 0.00000000e+00 0.00000000e+00 1.34696266e-12
1.99526231e-03 1.58990604e-12 1.58984782e-12 5.82146339e-17 0.00000000e+00 0.00000000e+00 1.58984782e-12
2.29086765e-03 1.87661715e-12 1.87653019e-12 8.69558083e-17 0.00000000e+00 0.00000000e+00 1.87653019e-12
2.63026799e-03 2.21534365e-12 2.21490731e-12 4.36340324e-16 0.00000000e+00 0.00000000e+00 2.21490731e-12
3.01995172e-03 2.61538594e-12 2.61430080e-12 1.08513749e-15 0.00000000e+00 0.00000000e+00 2.61430080e-12
3.46736850e-03 3.08896665e-12 3.08571319e-12 3.25346006e-15 0.00000000e+00 0.00000000e+00 3.08571319e-12
3.98107171e-03 3.64381805e-12 3.64213095e-12 1.68710088e-15 0.00000000e+00 0.00000000e+00 3.64213095e-12
4.57088190e-03 4.30090911e-12 4.29888232e-12 2.02679116e-15 0.00000000e+00 0.00000000e+00 4.29888232e-12
5.24807460e-03 5.07703994e-12 5.07405951e-12 2.98043256e-15 0.00000000e+00 0.00000000e+00 5.07405951e-12
6.02559586e-03 6.02426783e-12 5.98901715e-12 3.52506802e-14 0.00000000e+00 0.00000000e+00 5.98901715e-12
6.91830971e-03 7.09280703e-12 7.06896053e-12 2.38464988e-14 0.00000000e+00 0.00000000e+00 7.06896053e-12
7.94328235e-03 8.38178109e-12 8.34363998e-12 3.81411127e-14 4.01274958e-304 2.13970531e-306 8.34363998e-12
9.12010839e-03 9.90827452e-12 9.84817045e-12 6.01040711e-14 2.51958675e-265 2.59855303e-267 9.84817045e-12
1.04712855e-02 1.10697013e-11 1.09990604e-11 7.06408506e-14 1.45262629e-231 1.74011769e-233 1.09990604e-11
1.20226443e-02 1.10984023e-11 1.09990604e-11 9.93418425e-14 2.99732880e-202 5.69451607e-204 1.09990604e-11
1.38038426e-02 1.11041436e-11 1.09990604e-11 1.05083201e-13 1.02575669e-176 1.43300500e-178 1.09990604e-11
1.58489319e-02 1.11193756e-11 1.09990604e-11 1.20315117e-13 1.70262975e-154 2.64444152e-156 1.09990604e-11
1.81970086e-02 1.11122193e-11 1.09990604e-11 1.13158881e-13 3.63536542e-135 6.90640237e-137 1.09990604e-11
2.08929613e-02 1.11224908e-11 1.09990604e-11 1.23430340e-13 2.22049700e-118 4.98578590e-120 1.09990604e-11
2.39883292e-02 1.11372584e-11 1.09990604e-11 1.38197909e-13 8.91725703e-104 2.20911732e-105 1.09990604e-11
2.75422870e-02 1.11450791e-11 1.09990604e-11 1.46018632e-13 4.49778667e-91 1.33489870e-92 1.09990604e-11
3.16227766e-02 1.11512763e-11 1.09990604e-11 1.52215863e-13 4.86754131e-80 1.69325301e-81 1.09990604e-11
3.63078055e-02 1.11450162e-11 1.09990604e-11 1.45955726e-13 1.84787583e-70 7.13758989e-72 1.09990604e-11
4.16869383e-02 1.11703007e-11 1.09990604e-11 1.71240241e-13 3.81705019e-62 1.86043676e-63 1.09990604e-11
4.78630092e-02 1.11891354e-11 1.09990604e-11 1.90074954e-13 6.20483553e-55 3.80766689e-56 1.09990604e-11
5.49540874e-02 1.12046609e-11 1.09990604e-11 2.05600460e-13 1.09634749e-48 7.77916354e-50 1.09990604e-11
6.30957344e-02 1.12162926e-11 1.09990604e-11 2.17232134e-13 3.71190088e-43 2.91553505e-44 1.09990604e-11
7.24435960e-02 1.12077185e-11 1.09990604e-11 2.08658091e-13 2.22782606e-38 1.68446159e-39 1.09990604e-11
8.31763771e-02 1.12029155e-11 1.09990604e-11 2.03855022e-13 2.36981932e-34 1.76281460e-35 1.09990604e-11
9.54992586e-02 1.11952678e-11 1.09990604e-11 1.96207323e-13 6.92489043e-31 5.30327966e-32 1.09990604e-11
1.09647820e-01 1.07024006e-11 1.05040253e-11 1.98375267e-13 6.11252285e-28 5.11392598e-29 1.05040253e-11
1.25892541e-01 9.98880934e-12 9.80292679e-12 1.85882548e-13 2.04006968e-25 1.68367636e-26 9.80292679e-12
1.44543977e-01 9.30636212e-12 9.14862359e-12 1.57738532e-13 2.84909857e-23 2.29720549e-24 9.14862359e-12
1.65958691e-01 8.69372111e-12 8.53799231e-12 1.55728795e-13 1.47877133e-21 1.30738798e-22 8.53799231e-12
1.90546072e-01 8.13292612e-12 7.96811805e-12 1.64808045e-13 3.18778446e-20 3.34847513e-21 7.96811805e-12
2.18776162e-01 7.58725954e-12 7.43628044e-12 1.50978726e-13 3.81750031e-19 4.10817601e-20 7.43628044e-12
2.51188643e-01 7.10425730e-12 6.93994070e-12 1.64311829e-13 4.77034978e-18 6.38233265e-19 6.93994070e-12
2.88403150e-01 6.62463156e-12 6.47672950e-12 1.47861811e-13 4.02442676e-17 5.33452652e-18 6.47672950e-12
3.31131121e-01 6.18151726e-12 6.04443567e-12 1.36848606e-13 2.32983802e-16 3.01723083e-17 6.04443567e-12
3.80189396e-01 5.76540867e-12 5.64099558e-12 1.23435084e-13 9.78007032e-16 1.22966795e-16 5.64099558e-12
4.36515832e-01 5.37752224e-12 5.26448339e-12 1.09914638e-13 3.12421866e-15 3.92162708e-16 5.26448339e-12
5.01187234e-01 5.02024931e-12 4.91310176e-12 9.92576417e-14 7.88990919e-15 1.00369021e-15 4.91310176e-12
5.75439937e-01 4.69241422e-12 4.58517335e-12 9.08112217e-14 1.64296536e-14 2.09354161e-15 4.58517335e-12
6.60693448e-01 4.38823630e-12 4.27913275e-12 7.95597740e-14 2.95437793e-14 3.82195754e-15 4.27913275e-12
7.58577575e-01 4.11367967e-12 3.99351904e-12 7.16681069e-14 4.84925192e-14 6.36983771e-15 3.99351904e-12
8.70963590e-01 3.86599772e-12 3.72696882e-12 6.30282206e-14 7.60006787e-14 1.03365715e-14 3.72696882e-12
1.00000000e+00 3.64935600e-12 3.47820968e-12 5.35119607e-14 1.17634356e-13 1.63762839e-14 3.47820968e-12
1.14815362e+00 3.47760914e-12 3.24605414e-12 4.46914825e-14 1.86863513e-13 2.55661390e-14 3.24605414e-12
1.31825674e+00 3.36749520e-12 3.02939399e-12 3.55146680e-14 3.02586546e-13 3.84561506e-14 3.02939399e-12
1.51356125e+00 3.33555399e-12 2.82719497e-12 2.83469215e-14 4.80012098e-13 5.38926487e-14 2.82719497e-12
1.73780083e+00 3.37704936e-12 2.63849186e-12 2.20750144e-14 7.16482479e-13 6.85010317e-14 2.63849186e-12
1.99526231e+00 3.46553763e-12 2.46238388e-12 1.64122548e-14 9.86741498e-13 7.70426804e-14 2.46238388e-12
2.29086765e+00 3.55809979e-12 2.29803035e-12 1.21042227e-14 1.24796522e-12 7.64237726e-14 2.29803035e-12
2.63026799e+00 3.60699887e-12 2.14464670e-12 8.42581238e-15 1.45392635e-12 6.87103351e-14 2.14464670e-12
3.01995172e+00 3.58910077e-12 2.00150076e-12 5.92102890e-15 1.58167898e-12 5.62777862e-14 2.00150076e-12
3.46736850e+00 3.50179432e-12 1.86790919e-12 4.08022637e-15 1.62980490e-12 4.27975832e-14 1.86790919e-12
3.98107171e+00 3.33987784e-12 1.74323429e-12 2.55618318e-15 1.59408737e-12 3.01920464e-14 1.74323429e-12
4.57088190e+00 3.13024023e-12 1.62688090e-12 1.64388689e-15 1.50171544e-12 1.93982845e-14 1.62688090e-12
5.24807460e+00 2.72107891e-12 1.34518114e-12 8.81035600e-16 1.37501673e-12 1.18742783e-14 1.34518114e-12
6.02559586e+00 2.13376560e-12 8.88752369e-13 3.74138184e-16 1.24463910e-12 6.77607956e-15 8.88752369e-13
6.70000000e+00 1.78701005e-12 6.46481889e-13 1.80316985e-16 1.14034784e-12 4.24482132e-15 6.46481889e-13
6.92422916e+00 1.69402004e-12 5.85688198e-13 1.45368274e-16 1.10818647e-12 3.64849017e-15 5.85688198e-13
7.15596261e+00 1.61606537e-12 5.30611407e-13 1.12412013e-16 1.08534155e-12 3.11521519e-15 5.30611407e-13
7.39545150e+00 1.57260745e-12 4.80713913e-13 8.78148059e-17 1.09180572e-12 2.66039447e-15 4.80713913e-13
7.64295536e+00 1.60934578e-12 4.35508666e-13 6.31075085e-17 1.17377400e-12 2.29904545e-15 4.35508666e-13
7.89874245e+00 1.76293566e-12 3.94554418e-13 4.27678176e-17 1.36833847e-12 1.98197123e-15 3.94554418e-13
8.16308998e+00 2.00338418e-12 3.57451415e-13 2.69866738e-17 1.64590578e-12 1.68143113e-15 3.57451415e-13
8.43628443e+00 2.33853063e-12 3.23837494e-13 1.60693823e-17 2.01467706e-12 1.36752285e-15 3.23837494e-13
8.71862190e+00 2.55816125e-12 2.93384550e-13 1.01004755e-17 2.26476660e-12 1.09538817e-15 2.93384550e-13
9.01040836e+00 2.77264092e-12 2.65795332e-13 6.29434119e-18 2.50683930e-12 8.14111088e-16 2.65795332e-13
9.31196005e+00 2.92053787e-12 2.40800541e-13 0.00000000e+00 2.67973733e-12 0.00000000e+00 2.40800541e-13
9.62360379e+00 2.87665166e-12 2.18156204e-13 0.00000000e+00 2.65849546e-12 0.00000000e+00 2.18156204e-13
9.94567731e+00 2.67728102e-12 1.97641289e-13 0.00000000e+00 2.47963974e-12 0.00000000e+00 1.97641289e-13
1.02785297e+01 2.44597835e-12 1.79055550e-13 0.00000000e+00 2.26692280e-12 0.00000000e+00 1.79055550e-13
1.06225216e+01 2.22569987e-12 1.62217572e-13 0.00000000e+00 2.06348230e-12 0.00000000e+00 1.62217572e-13
1.09780260e+01 1.98468921e-12 1.46962999e-13 0.00000000e+00 1.83772621e-12 0.00000000e+00 1.46962999e-13
1.13454280e+01 1.77241677e-12 1.33142932e-13 0.00000000e+00 1.63927384e-12 0.00000000e+00 1.33142932e-13
1.17251259e+01 1.59382239e-12 1.20622472e-13 0.00000000e+00 1.47319992e-12 0.00000000e+00 1.20622472e-13
1.21175312e+01 1.42586657e-12 1.09279408e-13 0.00000000e+00 1.31658716e-12 0.00000000e+00 1.09279408e-13
1.25230691e+01 1.27901138e-12 9.90030204e-14 0.00000000e+00 1.18000836e-12 0.00000000e+00 9.90030204e-14
1.29421791e+01 1.15366392e-12 8.96930008e-14 0.00000000e+00 1.06397092e-12 0.00000000e+00 8.96930008e-14
1.33753155e+01 1.04324575e-12 8.12584743e-14 0.00000000e+00 9.61987276e-13 0.00000000e+00 8.12584743e-14
1.38229477e+01 9.70114042e-13 7.36171115e-14 0.00000000e+00 8.96496930e-13 0.00000000e+00 7.36171115e-14
1.42855609e+01 9.25208504e-13 6.66943252e-14 0.00000000e+00 8.58514179e-13 0.00000000e+00 6.66943252e-14
1.47636563e+01 9.30383850e-13 6.04225420e-14 0.00000000e+00 8.69961308e-13 0.00000000e+00 6.04225420e-14
1.52577522e+01 9.46145190e-13 5.47405431e-14 0.00000000e+00 8.91404647e-13 0.00000000e+00 5.47405431e-14
1.57683840e+01 9.67868629e-13 4.95928665e-14 0.00000000e+00 9.18275763e-13 0.00000000e+00 4.95928665e-14
1.62961051e+01 9.93824576e-13 4.49292657e-14 0.00000000e+00 9.48895310e-13 0.00000000e+00 4.49292657e-14
1.68414875e+01 1.01723533e-12 4.07042194e-14 0.00000000e+00 9.76531110e-13 0.00000000e+00 4.07042194e-14
1.74051222e+01 1.03039619e-12 3.68764869e-14 0.00000000e+00 9.93519699e-13 0.00000000e+00 3.68764869e-14
1.79876201e+01 1.03168816e-12 3.34087056e-14 0.00000000e+00 9.98279457e-13 0.00000000e+00 3.34087056e-14
1.85896125e+01 1.01227058e-12 3.02670267e-14 0.00000000e+00 9.82003556e-13 0.00000000e+00 3.02670267e-14
1.92117518e+01 9.79656615e-13 2.74207841e-14 0.00000000e+00 9.52235831e-13 0.00000000e+00 2.74207841e-14
1.98547123e+01 9.37155277e-13 2.48421957e-14 0.00000000e+00 9.12313081e-13 0.00000000e+00 2.48421957e-14
2.05191907e+01 8.89777156e-13 2.25060919e-14 0.00000000e+00 8.67271064e-13 0.00000000e+00 2.25060919e-14
2.12059073e+01 8.46536546e-13 2.03896700e-14 0.00000000e+00 8.26146876e-13 0.00000000e+00 2.03896700e-14
2.19156062e+01 8.06329517e-13 1.84722717e-14 0.00000000e+00 7.87857245e-13 0.00000000e+00 1.84722717e-14
2.26490567e+01 7.67863773e-13 1.67351811e-14 0.00000000e+00 7.51128592e-13 0.00000000e+00 1.67351811e-14
2.34070535e+01 7.33806516e-13 1.51614426e-14 0.00000000e+00 7.18645074e-13 0.00000000e+00 1.51614426e-14
2.41904183e+01 6.99858909e-13 1.37356949e-14 0.00000000e+00 6.86123214e-13 0.00000000e+00 1.37356949e-14
2.50000000e+01 6.68574301e-13 1.24440213e-14 0.00000000e+00 6.56130279e-13 0.00000000e+00 1.24440213e-14
2.75422870e+01 5.80332920e-13 9.30637977e-15 0.00000000e+00 5.71026540e-13 0.00000000e+00 9.30637977e-15
3.16227766e+01 4.63488047e-13 6.14866414e-15 0.00000000e+00 4.57339383e-13 0.00000000e+00 6.14866414e-15
3.63078055e+01 3.52077703e-13 4.06238211e-15 0.00000000e+00 3.48015320e-13 0.00000000e+00 4.06238211e-15
4.16869383e+01 2.50717831e-13 2.68398924e-15 0.00000000e+00 2.48033842e-13 0.00000000e+00 2.68398924e-15
4.78630092e+01 1.67122850e-13 1.77329411e-15 0.00000000e+00 1.65349556e-13 0.00000000e+00 1.77329411e-15
5.49540874e+01 1.05705438e-13 1.17160380e-15 0.00000000e+00 1.04533834e-13 0.00000000e+00 1.17160380e-15
6.30957344e+01 6.41552748e-14 7.74070953e-16 0.00000000e+00 6.33812038e-14 0.00000000e+00 7.74070953e-16
7.24435960e+01 3.77027730e-14 5.11423607e-16 0.00000000e+00 3.71913494e-14 0.00000000e+00 5.11423607e-16
8.31763771e+01 2.16305818e-14 3.37894226e-16 0.00000000e+00 2.12926876e-14 0.00000000e+00 3.37894226e-16
9.54992586e+01 1.22020116e-14 2.23244502e-16 0.00000000e+00 1.19787671e-14 0.00000000e+00 2.23244502e-16
1.09647820e+02 6.79647442e-15 1.47496179e-16 0.00000000e+00 6.64897824e-15 0.00000000e+00 1.47496179e-16
1.25892541e+02 3.79030430e-15 9.74497594e-17 0.00000000e+00 3.69285454e-15 0.00000000e+00 9.74497594e-17
1.44543977e+02 2.10464602e-15 6.43844175e-17 0.00000000e+00 2.04026160e-15 0.00000000e+00 6.43844175e-17
1.65958691e+02 1.11492965e-15 4.25383628e-17 0.00000000e+00 1.07239129e-15 0.00000000e+00 4.25383628e-17
1.90546072e+02 5.92280793e-16 2.81048176e-17 0.00000000e+00 5.64175976e-16 0.00000000e+00 2.81048176e-17
2.18776162e+02 3.14839175e-16 1.85686688e-17 0.00000000e+00 2.96270506e-16 0.00000000e+00 1.85686688e-17
2.51188643e+02 1.67250033e-16 1.22681978e-17 0.00000000e+00 1.54981835e-16 0.00000000e+00 1.22681978e-17
2.88403150e+02 8.87600975e-17 8.10551794e-18 0.00000000e+00 8.06545796e-17 0.00000000e+00 8.10551794e-18
3.31131121e+02 4.71932358e-17 5.35526259e-18 0.00000000e+00 4.18379732e-17 0.00000000e+00 5.35526259e-18
3.80189396e+02 2.51472320e-17 3.53818691e-18 0.00000000e+00 2.16090451e-17 0.00000000e+00 3.53818691e-18
4.36515832e+02 1.34659050e-17 2.33765691e-18 0.00000000e+00 1.11282481e-17 0.00000000e+00 2.33765691e-18
5.01187234e+02 7.25716686e-18 1.54447460e-18 0.00000000e+00 5.71269226e-18 0.00000000e+00 1.54447460e-18
5.75439937e+02 3.94533780e-18 1.02042425e-18 0.00000000e+00 2.92491355e-18 0.00000000e+00 1.02042425e-18
6.60693448e+02 2.16831964e-18 6.74187617e-19 0.00000000e+00 1.49413202e-18 0.00000000e+00 6.74187617e-19
7.58577575e+02 1.20714361e-18 4.45431341e-19 0.00000000e+00 7.61712269e-19 0.00000000e+00 4.45431341e-19
8.70963590e+02 6.81839046e-19 2.94293569e-19 0.00000000e+00 3.87545478e-19 0.00000000e+00 2.94293569e-19
1.00000000e+03 1.96806763e-19 0.00000000e+00 0.00000000e+00 1.96806763e-19 0.00000000e+00 0.00000000e+00
