# column 1: lambda (micron)
# column 2: total flux; lambda*F_lambda (W/m2)
# column 3: direct stellar flux; lambda*F_lambda (W/m2)
# column 4: scattered stellar flux; lambda*F_lambda (W/m2)
# column 5: total dust emission flux; lambda*F_lambda (W/m2)
# column 6: dust emission scattered flux; lambda*F_lambda (W/m2)
# column 7: transparent flux; lambda*F_lambda (W/m2)
1.00000000e-03 1.07335656e-12 1.07335627e-12 2.92099809e-19 0.00000000e+00 0.00000000e+00 1.07335627e-12
1.14815362e-03 1.26690500e-12 1.26690456e-12 4.48275436e-19 0.00000000e+00 0.00000000e+00 1.26690456e-12
1.31825674e-03 1.49535428e-12 1.49535359e-12 6.85679375e-19 0.00000000e+00 0.00000000e+00 1.49535359e-12
1.51356125e-03 1.76499777e-12 1.76499670e-12 1.07207987e-18 0.00000000e+00 0.00000000e+00 1.76499670e-12
1.73780083e-03 2.08326388e-12 2.08326203e-12 1.85486039e-18 0.00000000e+00 0.00000000e+00 2.08326203e-12
1.99526231e-03 2.45979499e-12 2.45891716e-12 8.77828110e-16 0.00000000e+00 0.00000000e+00 2.45891716e-12
2.29086765e-03 2.90232733e-12 2.90231066e-12 1.66698412e-17 0.00000000e+00 0.00000000e+00 2.90231066e-12
2.63026799e-03 3.42655357e-12 3.42565717e-12 8.96404108e-16 0.00000000e+00 0.00000000e+00 3.42565717e-12
3.01995172e-03 4.04354663e-12 4.04337385e-12 1.72779739e-16 0.00000000e+00 0.00000000e+00 4.04337385e-12
3.46736850e-03 4.77274261e-12 4.77247759e-12 2.65024880e-16 0.00000000e+00 0.00000000e+00 4.77247759e-12
3.98107171e-03 5.64347059e-12 5.63305378e-12 1.04168129e-14 0.00000000e+00 0.00000000e+00 5.63305378e-12
4.57088190e-03 6.65025599e-12 6.64880962e-12 1.44636779e-15 0.00000000e+00 0.00000000e+00 6.64880962e-12
5.24807460e-03 7.99272230e-12 7.84772720e-12 1.44995100e-13 0.00000000e+00 0.00000000e+00 7.84772720e-12
6.02559586e-03 9.27003447e-12 9.26283435e-12 7.20011929e-15 0.00000000e+00 0.00000000e+00 9.26283435e-12
6.91830971e-03 1.09444292e-11 1.09331145e-11 1.13146207e-14 0.00000000e+00 0.00000000e+00 1.09331145e-11
7.94328235e-03 1.29567494e-11 1.29045807e-11 5.21686826e-14 3.84609461e-303 8.80548434e-306 1.29045807e-11
9.12010839e-03 1.52582308e-11 1.52315429e-11 2.66879584e-14 1.74936814e-264 3.93491250e-267 1.52315429e-11
1.04712855e-02 1.70290787e-11 1.70115517e-11 1.75269412e-14 7.65436589e-231 3.57297144e-233 1.70115517e-11
1.20226443e-02 1.70365516e-11 1.70115517e-11 2.49998612e-14 1.23278464e-201 6.12244262e-204 1.70115517e-11
1.38038426e-02 1.70359667e-11 1.70115517e-11 2.44149886e-14 3.44131970e-176 1.87392985e-178 1.70115517e-11
1.58489319e-02 1.70386784e-11 1.70115517e-11 2.71266802e-14 4.76905260e-154 4.34877251e-156 1.70115517e-11
1.81970086e-02 1.70418208e-11 1.70115517e-11 3.02690677e-14 8.65800349e-135 7.95686662e-137 1.70115517e-11
2.08929613e-02 1.70420115e-11 1.70115517e-11 3.04598120e-14 4.60667420e-118 5.88674966e-120 1.70115517e-11
2.39883292e-02 1.70482907e-11 1.70115517e-11 3.67390073e-14 1.64133617e-103 2.63272538e-105 1.70115517e-11
2.75422870e-02 1.70513766e-11 1.70115517e-11 3.98248607e-14 7.45744299e-91 1.54684547e-92 1.70115517e-11
3.16227766e-02 1.70581297e-11 1.70115517e-11 4.65779620e-14 7.35231438e-80 1.73262091e-81 1.70115517e-11
3.63078055e-02 1.70607100e-11 1.70115517e-11 4.91582802e-14 2.57841947e-70 7.08002881e-72 1.70115517e-11
4.16869383e-02 1.70752286e-11 1.70115517e-11 6.36769062e-14 4.96800476e-62 1.84522342e-63 1.70115517e-11
4.78630092e-02 1.70926727e-11 1.70115517e-11 8.11209467e-14 7.59651679e-55 3.64308031e-56 1.70115517e-11
5.49540874e-02 1.71103945e-11 1.70115517e-11 9.88427588e-14 1.27655127e-48 7.40634908e-50 1.70115517e-11
6.30957344e-02 1.71336772e-11 1.70115517e-11 1.22125483e-13 4.16016252e-43 2.81170123e-44 1.70115517e-11
7.24435960e-02 1.71336247e-11 1.70115517e-11 1.22073029e-13 2.41400145e-38 1.55401650e-39 1.70115517e-11
8.31763771e-02 1.71328256e-11 1.70115517e-11 1.21273867e-13 2.48068288e-34 1.57729121e-35 1.70115517e-11
9.54992586e-02 1.71372312e-11 1.70115517e-11 1.25679461e-13 7.02237069e-31 4.65164867e-32 1.70115517e-11
1.09647820e-01 1.63711172e-11 1.62459122e-11 1.25205010e-13 5.99986353e-28 4.38489348e-29 1.62459122e-11
1.25892541e-01 1.52692055e-11 1.51615674e-11 1.07638076e-13 1.94501629e-25 1.36336244e-26 1.51615674e-11
1.44543977e-01 1.42427435e-11 1.41495980e-11 9.31455580e-14 2.65244903e-23 1.79854650e-24 1.41495980e-11
1.65958691e-01 1.33018520e-11 1.32051732e-11 9.66788508e-14 1.35006350e-21 1.02376138e-22 1.32051732e-11
1.90546072e-01 1.24358935e-11 1.23237846e-11 1.12108833e-13 2.86478584e-20 2.61657262e-21 1.23237846e-11
2.18776162e-01 1.16172615e-11 1.15012250e-11 1.16036176e-13 3.40944823e-19 3.34164572e-20 1.15012250e-11
2.51188643e-01 1.08635700e-11 1.07335677e-11 1.29998123e-13 4.18104816e-18 5.07439495e-19 1.07335677e-11
2.88403150e-01 1.01363440e-11 1.00171482e-11 1.19161036e-13 3.47511334e-17 4.10056266e-18 1.00171482e-11
3.31131121e-01 9.45383793e-12 9.34854667e-12 1.05092330e-13 1.98927127e-16 2.27156507e-17 9.34854667e-12
3.80189396e-01 8.82082976e-12 8.72457139e-12 9.54316674e-14 8.26708737e-16 9.03509268e-17 8.72457139e-12
4.36515832e-01 8.23240550e-12 8.14224377e-12 8.75400971e-14 2.62162733e-15 2.87478517e-16 8.14224377e-12
5.01187234e-01 7.68696356e-12 7.59878402e-12 8.16280059e-14 6.55154007e-15 7.08652626e-16 7.59878402e-12
5.75439937e-01 7.18216991e-12 7.09159786e-12 7.69887697e-14 1.35832754e-14 1.48520215e-15 7.09159786e-12
6.60693448e-01 6.71390703e-12 6.61826421e-12 7.13179452e-14 2.43248737e-14 2.69853523e-15 6.61826421e-12
7.58577575e-01 6.28143977e-12 6.17652353e-12 6.50278372e-14 3.98884006e-14 4.54629698e-15 6.17652353e-12
8.70963590e-01 5.88464740e-12 5.76426715e-12 5.77084543e-14 6.26717909e-14 7.42487814e-15 5.76426715e-12
1.00000000e+00 5.52844902e-12 5.37952711e-12 5.16167067e-14 9.73052051e-14 1.19417733e-14 5.37952711e-12
1.14815362e+00 5.21990843e-12 5.02046681e-12 4.37270409e-14 1.55714571e-13 1.93431100e-14 5.02046681e-12
1.31825674e+00 4.97428911e-12 4.68537225e-12 3.53496767e-14 2.53567190e-13 3.01153579e-14 4.68537225e-12
1.51356125e+00 4.80677902e-12 4.37264380e-12 2.88407001e-14 4.05294524e-13 4.36538983e-14 4.37264380e-12
1.73780083e+00 4.71215061e-12 4.08078863e-12 2.19042839e-14 6.09457696e-13 5.65126203e-14 4.08078863e-12
1.99526231e+00 4.67432598e-12 3.80841354e-12 1.69015562e-14 8.49010883e-13 6.64480805e-14 3.80841354e-12
2.29086765e+00 4.65195651e-12 3.55421832e-12 1.20348814e-14 1.08570331e-12 6.70703398e-14 3.55421832e-12
2.63026799e+00 4.61278093e-12 3.31698953e-12 8.61874606e-15 1.28717266e-12 6.18666229e-14 3.31698953e-12
3.01995172e+00 4.52241029e-12 3.09559474e-12 5.92253947e-15 1.42089301e-12 5.08347347e-14 3.09559474e-12
3.46736850e+00 4.37139393e-12 2.88897711e-12 3.97215855e-15 1.47844466e-12 3.85715690e-14 2.88897711e-12
3.98107171e+00 4.15594838e-12 2.69615031e-12 2.54284288e-15 1.45725522e-12 2.68667180e-14 2.69615031e-12
4.57088190e+00 3.89224728e-12 2.51619387e-12 1.63617480e-15 1.37441723e-12 1.71926184e-14 2.51619387e-12
5.24807460e+00 3.33944755e-12 2.08050667e-12 8.64001384e-16 1.25807688e-12 1.04304175e-14 2.08050667e-12
6.02559586e+00 2.51072301e-12 1.37457712e-12 3.66812665e-16 1.13577908e-12 5.92557217e-15 1.37457712e-12
6.70000000e+00 2.03974631e-12 9.99872685e-13 1.83864903e-16 1.03968976e-12 3.69360999e-15 9.99872685e-13
6.92422916e+00 1.91492012e-12 9.05846924e-13 1.42740519e-16 1.00893046e-12 3.15919788e-15 9.05846924e-13
7.15596261e+00 1.81059308e-12 8.20663132e-13 1.12474368e-16 9.89817474e-13 2.69195331e-15 8.20663132e-13
7.39545150e+00 1.73903441e-12 7.43489831e-13 8.68696962e-17 9.95457705e-13 2.31017519e-15 7.43489831e-13
7.64295536e+00 1.74663843e-12 6.73573732e-13 6.26459428e-17 1.07300205e-12 1.99123217e-15 6.73573732e-13
7.89874245e+00 1.87371766e-12 6.10232385e-13 4.11754528e-17 1.26344410e-12 1.72948262e-15 6.10232385e-13
8.16308998e+00 2.08775817e-12 5.52847515e-13 2.64850218e-17 1.53488417e-12 1.47839401e-15 5.52847515e-13
8.43628443e+00 2.40170571e-12 5.00858987e-13 1.55294203e-17 1.90083119e-12 1.21454638e-15 5.00858987e-13
8.71862190e+00 2.60529592e-12 4.53759343e-13 9.97967363e-18 2.15152660e-12 9.82904879e-16 4.53759343e-13
9.01040836e+00 2.82217339e-12 4.11088843e-13 6.34738268e-18 2.41107820e-12 7.32368433e-16 4.11088843e-13
9.31196005e+00 2.97157478e-12 3.72430980e-13 0.00000000e+00 2.59914380e-12 0.00000000e+00 3.72430980e-13
9.62360379e+00 2.91665910e-12 3.37408415e-13 0.00000000e+00 2.57925069e-12 0.00000000e+00 3.37408415e-13
9.94567731e+00 2.71125729e-12 3.05679292e-13 0.00000000e+00 2.40557800e-12 0.00000000e+00 3.05679292e-13
1.02785297e+01 2.47043356e-12 2.76933904e-13 0.00000000e+00 2.19349965e-12 0.00000000e+00 2.76933904e-13
1.06225216e+01 2.23395171e-12 2.50891667e-13 0.00000000e+00 1.98306004e-12 0.00000000e+00 2.50891667e-13
1.09780260e+01 1.98423473e-12 2.27298384e-13 0.00000000e+00 1.75693635e-12 0.00000000e+00 2.27298384e-13
1.13454280e+01 1.76960106e-12 2.05923759e-13 0.00000000e+00 1.56367730e-12 0.00000000e+00 2.05923759e-13
1.17251259e+01 1.58110046e-12 1.86559155e-13 0.00000000e+00 1.39454130e-12 0.00000000e+00 1.86559155e-13
1.21175312e+01 1.41279472e-12 1.69015555e-13 0.00000000e+00 1.24377917e-12 0.00000000e+00 1.69015555e-13
1.25230691e+01 1.26416372e-12 1.53121715e-13 0.00000000e+00 1.11104200e-12 0.00000000e+00 1.53121715e-13
1.29421791e+01 1.13654387e-12 1.38722496e-13 0.00000000e+00 9.97821370e-13 0.00000000e+00 1.38722496e-13
1.33753155e+01 1.02655631e-12 1.25677347e-13 0.00000000e+00 9.00878967e-13 0.00000000e+00 1.25677347e-13
1.38229477e+01 9.55157435e-13 1.13858934e-13 0.00000000e+00 8.41298501e-13 0.00000000e+00 1.13858934e-13
1.42855609e+01 9.10677500e-13 1.03151898e-13 0.00000000e+00 8.07525601e-13 0.00000000e+00 1.03151898e-13
1.47636563e+01 9.16097146e-13 9.34517274e-14 0.00000000e+00 8.22645419e-13 0.00000000e+00 9.34517274e-14
1.52577522e+01 9.31395669e-13 8.46637387e-14 0.00000000e+00 8.46731931e-13 0.00000000e+00 8.46637387e-14
1.57683840e+01 9.57972585e-13 7.67021526e-14 0.00000000e+00 8.81270433e-13 0.00000000e+00 7.67021526e-14
1.62961051e+01 9.85370864e-13 6.94892560e-14 0.00000000e+00 9.15881608e-13 0.00000000e+00 6.94892560e-14
1.68414875e+01 1.01411087e-12 6.29546439e-14 0.00000000e+00 9.51156223e-13 0.00000000e+00 6.29546439e-14
1.74051222e+01 1.02890495e-12 5.70345319e-14 0.00000000e+00 9.71870415e-13 0.00000000e+00 5.70345319e-14
1.79876201e+01 1.03468467e-12 5.16711337e-14 0.00000000e+00 9.83013539e-13 0.00000000e+00 5.16711337e-14
1.85896125e+01 1.02305787e-12 4.68120974e-14 0.00000000e+00 9.76245775e-13 0.00000000e+00 4.68120974e-14
1.92117518e+01 9.93174885e-13 4.24099939e-14 0.00000000e+00 9.50764891e-13 0.00000000e+00 4.24099939e-14
1.98547123e+01 9.54966031e-13 3.84218542e-14 0.00000000e+00 9.16544177e-13 0.00000000e+00 3.84218542e-14
2.05191907e+01 9.12660428e-13 3.48087501e-14 0.00000000e+00 8.77851677e-13 0.00000000e+00 3.48087501e-14
2.12059073e+01 8.73391762e-13 3.15354141e-14 0.00000000e+00 8.41856347e-13 0.00000000e+00 3.15354141e-14
2.19156062e+01 8.37873838e-13 2.85698952e-14 0.00000000e+00 8.09303943e-13 0.00000000e+00 2.85698952e-14
2.26490567e+01 8.03667839e-13 2.58832470e-14 0.00000000e+00 7.77784592e-13 0.00000000e+00 2.58832470e-14
2.34070535e+01 7.72958330e-13 2.34492452e-14 0.00000000e+00 7.49509085e-13 0.00000000e+00 2.34492452e-14
2.41904183e+01 7.43867120e-13 2.12441313e-14 0.00000000e+00 7.22622988e-13 0.00000000e+00 2.12441313e-14
2.50000000e+01 7.16224540e-13 1.92463813e-14 0.00000000e+00 6.96978159e-13 0.00000000e+00 1.92463813e-14
2.75422870e+01 6.37788442e-13 1.43935895e-14 0.00000000e+00 6.23394852e-13 0.00000000e+00 1.43935895e-14
3.16227766e+01 5.28992792e-13 9.50975027e-15 0.00000000e+00 5.19483042e-13 0.00000000e+00 9.50975027e-15
3.63078055e+01 4.16867702e-13 6.28302969e-15 0.00000000e+00 4.10584673e-13 0.00000000e+00 6.28302969e-15
4.16869383e+01 3.07819152e-13 4.15115655e-15 0.00000000e+00 3.03667995e-13 0.00000000e+00 4.15115655e-15
4.78630092e+01 2.12317335e-13 2.74264194e-15 0.00000000e+00 2.09574693e-13 0.00000000e+00 2.74264194e-15
5.49540874e+01 1.38479040e-13 1.81204556e-15 0.00000000e+00 1.36666994e-13 0.00000000e+00 1.81204556e-15
6.30957344e+01 8.63598235e-14 1.19720663e-15 0.00000000e+00 8.51626169e-14 0.00000000e+00 1.19720663e-15
7.24435960e+01 5.19240902e-14 7.90986575e-16 0.00000000e+00 5.11331037e-14 0.00000000e+00 7.90986575e-16
8.31763771e+01 3.03897855e-14 5.22599647e-16 0.00000000e+00 2.98671858e-14 0.00000000e+00 5.22599647e-16
9.54992586e+01 1.74288234e-14 3.45278163e-16 0.00000000e+00 1.70835452e-14 0.00000000e+00 3.45278163e-16
1.09647820e+02 9.84061919e-15 2.28123020e-16 0.00000000e+00 9.61249617e-15 0.00000000e+00 2.28123020e-16
1.25892541e+02 5.55014467e-15 1.50719385e-16 0.00000000e+00 5.39942528e-15 0.00000000e+00 1.50719385e-16
1.44543977e+02 3.11018861e-15 9.95793099e-17 0.00000000e+00 3.01060930e-15 0.00000000e+00 9.95793099e-17
1.65958691e+02 1.66155045e-15 6.57913976e-17 0.00000000e+00 1.59575906e-15 0.00000000e+00 6.57913976e-17
1.90546072e+02 8.88752557e-16 4.34679453e-17 0.00000000e+00 8.45284612e-16 0.00000000e+00 4.34679453e-17
2.18776162e+02 4.75123924e-16 2.87189867e-17 0.00000000e+00 4.46404938e-16 0.00000000e+00 2.87189867e-17
2.51188643e+02 2.53598574e-16 1.89744463e-17 0.00000000e+00 2.34624128e-16 0.00000000e+00 1.89744463e-17
2.88403150e+02 1.35125855e-16 1.25362924e-17 0.00000000e+00 1.22589562e-16 0.00000000e+00 1.25362924e-17
3.31131121e+02 7.20876258e-17 8.28264623e-18 0.00000000e+00 6.38049796e-17 0.00000000e+00 8.28264623e-18
3.80189396e+02 3.85212315e-17 5.47229010e-18 0.00000000e+00 3.30489414e-17 0.00000000e+00 5.47229010e-18
4.36515832e+02 2.06761031e-17 3.61550621e-18 0.00000000e+00 1.70605969e-17 0.00000000e+00 3.61550621e-18
5.01187234e+02 1.11647909e-17 2.38874127e-18 0.00000000e+00 8.77604961e-18 0.00000000e+00 2.38874127e-18
5.75439937e+02 6.07939761e-18 1.57822570e-18 0.00000000e+00 4.50117191e-18 0.00000000e+00 1.57822570e-18
6.60693448e+02 3.34549158e-18 1.04272338e-18 0.00000000e+00 2.30276820e-18 0.00000000e+00 1.04272338e-18
7.58577575e+02 1.86437270e-18 6.88920507e-19 0.00000000e+00 1.17545220e-18 0.00000000e+00 6.88920507e-19
8.70963590e+02 1.05386757e-18 4.55165265e-19 0.00000000e+00 5.98702303e-19 0.00000000e+00 4.55165265e-19
1.00000000e+03 3.04323737e-19 0.00000000e+00 0.00000000e+00 3.04323737e-19 0.00000000e+00 0.00000000e+00
