# column 1: lambda (micron)
# column 2: total flux; lambda*F_lambda (W/m2)
# column 3: direct stellar flux; lambda*F_lambda (W/m2)
# column 4: scattered stellar flux; lambda*F_lambda (W/m2)
# column 5: total dust emission flux; lambda*F_lambda (W/m2)
# column 6: dust emission scattered flux; lambda*F_lambda (W/m2)
# column 7: transparent flux; lambda*F_lambda (W/m2)
1.00000000e-03 8.46530228e-13 8.46529401e-13 8.26686586e-19 0.00000000e+00 0.00000000e+00 8.46529401e-13
1.14815362e-03 9.99177412e-13 9.99176121e-13 1.29159063e-18 0.00000000e+00 0.00000000e+00 9.99176121e-13
1.31825674e-03 1.17935015e-12 1.17934819e-12 1.95581146e-18 0.00000000e+00 0.00000000e+00 1.17934819e-12
1.51356125e-03 1.39201213e-12 1.39200901e-12 3.11856477e-18 0.00000000e+00 0.00000000e+00 1.39200901e-12
1.73780083e-03 1.64302238e-12 1.64301696e-12 5.41966480e-18 0.00000000e+00 0.00000000e+00 1.64301696e-12
1.99526231e-03 1.93929659e-12 1.93928682e-12 9.76521202e-18 0.00000000e+00 0.00000000e+00 1.93928682e-12
2.29086765e-03 2.28899532e-12 2.28898025e-12 1.50668352e-17 0.00000000e+00 0.00000000e+00 2.28898025e-12
2.63026799e-03 2.70203152e-12 2.70173063e-12 3.00888485e-16 0.00000000e+00 0.00000000e+00 2.70173063e-12
3.01995172e-03 3.18913085e-12 3.18890841e-12 2.22440138e-16 0.00000000e+00 0.00000000e+00 3.18890841e-12
3.46736850e-03 3.76446486e-12 3.76393440e-12 5.30456762e-16 0.00000000e+00 0.00000000e+00 3.76393440e-12
3.98107171e-03 4.44414729e-12 4.44264945e-12 1.49784300e-15 0.00000000e+00 0.00000000e+00 4.44264945e-12
4.57088190e-03 5.24747150e-12 5.24375082e-12 3.72067767e-15 0.00000000e+00 0.00000000e+00 5.24375082e-12
5.24807460e-03 6.19166099e-12 6.18930730e-12 2.35368571e-15 0.00000000e+00 0.00000000e+00 6.18930730e-12
6.02559586e-03 7.31272825e-12 7.30536713e-12 7.36111481e-15 0.00000000e+00 0.00000000e+00 7.30536713e-12
6.91830971e-03 8.63249930e-12 8.62267558e-12 9.82372799e-15 0.00000000e+00 0.00000000e+00 8.62267558e-12
7.94328235e-03 1.01863639e-11 1.01775219e-11 8.84194856e-15 2.90883808e-303 9.31394759e-305 1.01775219e-11
9.12010839e-03 1.20581423e-11 1.20127391e-11 4.54031981e-14 1.30436814e-264 1.33023664e-266 1.20127391e-11
1.04712855e-02 1.34454746e-11 1.34165878e-11 2.88867309e-14 5.76707132e-231 8.38288165e-233 1.34165878e-11
1.20226443e-02 1.34518848e-11 1.34165878e-11 3.52969702e-14 9.32557863e-202 1.25154121e-203 1.34165878e-11
1.38038426e-02 1.34570295e-11 1.34165878e-11 4.04417097e-14 2.65642924e-176 7.40308850e-178 1.34165878e-11
1.58489319e-02 1.34615808e-11 1.34165878e-11 4.49929923e-14 3.66900894e-154 9.19487515e-156 1.34165878e-11
1.81970086e-02 1.34644201e-11 1.34165878e-11 4.78322775e-14 6.67061439e-135 1.47972945e-136 1.34165878e-11
2.08929613e-02 1.34760060e-11 1.34165878e-11 5.94182080e-14 3.57290831e-118 1.04201357e-119 1.34165878e-11
2.39883292e-02 1.34857607e-11 1.34165878e-11 6.91728183e-14 1.27811899e-103 4.32827012e-105 1.34165878e-11
2.75422870e-02 1.35044762e-11 1.34165878e-11 8.78883917e-14 5.83894443e-91 2.40418443e-92 1.34165878e-11
3.16227766e-02 1.35161043e-11 1.34165878e-11 9.95164959e-14 5.75630704e-80 2.55923389e-81 1.34165878e-11
3.63078055e-02 1.35250560e-11 1.34165878e-11 1.08468190e-13 2.02343983e-70 9.78116178e-72 1.34165878e-11
4.16869383e-02 1.35609619e-11 1.34165878e-11 1.44374074e-13 3.90471987e-62 2.27663751e-63 1.34165878e-11
4.78630092e-02 1.35925293e-11 1.34165878e-11 1.75941412e-13 5.97159324e-55 4.13316433e-56 1.34165878e-11
5.49540874e-02 1.36202171e-11 1.34165878e-11 2.03629267e-13 9.97334029e-49 7.55379093e-50 1.34165878e-11
6.30957344e-02 1.36468656e-11 1.34165878e-11 2.30277763e-13 3.21987796e-43 2.60822402e-44 1.34165878e-11
7.24435960e-02 1.36325147e-11 1.34165878e-11 2.15926866e-13 1.84738539e-38 1.31889928e-39 1.34165878e-11
8.31763771e-02 1.36239713e-11 1.34165878e-11 2.07383422e-13 1.90014845e-34 1.33709199e-35 1.34165878e-11
9.54992586e-02 1.36325025e-11 1.34165878e-11 2.15914631e-13 5.39267659e-31 3.95459911e-32 1.34165878e-11
1.09647820e-01 1.30360455e-11 1.28127470e-11 2.23298593e-13 4.64533134e-28 3.77789695e-29 1.28127470e-11
1.25892541e-01 1.21644437e-11 1.19575512e-11 2.06892450e-13 1.52615262e-25 1.31208861e-26 1.19575512e-11
1.44543977e-01 1.13461708e-11 1.11594361e-11 1.86734723e-13 2.09545695e-23 1.75184303e-24 1.11594361e-11
1.65958691e-01 1.06081558e-11 1.04145917e-11 1.93564099e-13 1.07306218e-21 1.00833033e-22 1.04145917e-11
1.90546072e-01 9.93268636e-12 9.71946251e-12 2.13223825e-13 2.27007762e-20 2.44606586e-21 9.71946251e-12
2.18776162e-01 9.26814349e-12 9.07073019e-12 1.97413034e-13 2.67159248e-19 2.90201371e-20 9.07073019e-12
2.51188643e-01 8.69844606e-12 8.46529796e-12 2.33144788e-13 3.30714163e-18 4.41014529e-19 8.46529796e-12
2.88403150e-01 8.11233442e-12 7.90027573e-12 2.12030968e-13 2.77192628e-17 3.67026254e-18 7.90027573e-12
3.31131121e-01 7.56621855e-12 7.37296631e-12 1.93092852e-13 1.59389529e-16 2.07631821e-17 7.37296631e-12
3.80189396e-01 7.05683458e-12 6.88085251e-12 1.75316590e-13 6.65474251e-16 8.38851549e-17 6.88085251e-12
4.36515832e-01 6.58209258e-12 6.42158520e-12 1.58395606e-13 2.11177099e-15 2.61001178e-16 6.42158520e-12
5.01187234e-01 6.14492863e-12 5.99297201e-12 1.46643216e-13 5.31340450e-15 6.53260221e-16 5.99297201e-12
5.75439937e-01 5.73914564e-12 5.59296690e-12 1.34985327e-13 1.11934139e-14 1.39536227e-15 5.59296690e-12
6.60693448e-01 5.36013348e-12 5.21966041e-12 1.19584480e-13 2.08885854e-14 2.72822977e-15 5.21966041e-12
7.58577575e-01 5.01603900e-12 4.87127053e-12 1.07258913e-13 3.75095555e-14 5.31118469e-15 4.87127053e-12
8.70963590e-01 4.71242633e-12 4.54613417e-12 9.72602260e-14 6.90319288e-14 1.09285590e-14 4.54613417e-12
1.00000000e+00 4.45566427e-12 4.24269927e-12 8.30635951e-14 1.29901406e-13 2.17537471e-14 4.24269927e-12
1.14815362e+00 4.27887201e-12 3.95951734e-12 6.98726496e-14 2.49482025e-13 4.10271331e-14 3.95951734e-12
1.31825674e+00 4.21679188e-12 3.69523659e-12 5.60214031e-14 4.65533889e-13 7.04110844e-14 3.69523659e-12
1.51356125e+00 4.30395070e-12 3.44859544e-12 4.41423115e-14 8.11212951e-13 1.07590923e-13 3.44859544e-12
1.73780083e+00 4.53935068e-12 3.21841652e-12 3.46160648e-14 1.28631809e-12 1.46055248e-13 3.21841652e-12
1.99526231e+00 4.86331528e-12 3.00360106e-12 2.63753808e-14 1.83333884e-12 1.72140724e-13 3.00360106e-12
2.29086765e+00 5.20888294e-12 2.80312361e-12 2.00074518e-14 2.38575188e-12 1.79889174e-13 2.80312361e-12
2.63026799e+00 5.49073529e-12 2.61602716e-12 1.44303048e-14 2.86027782e-12 1.70060707e-13 2.61602716e-12
3.01995172e+00 5.65233211e-12 2.44141860e-12 1.04082692e-14 3.20050524e-12 1.46613175e-13 2.44141860e-12
3.46736850e+00 5.67912130e-12 2.27846441e-12 7.08377801e-15 3.39357312e-12 1.16671853e-13 2.27846441e-12
3.98107171e+00 5.56972235e-12 2.12638671e-12 4.79186548e-15 3.43854378e-12 8.62464711e-14 2.12638671e-12
4.57088190e+00 5.34452837e-12 1.98445954e-12 3.12105092e-15 3.35694778e-12 5.86829667e-14 1.98445954e-12
5.24807460e+00 4.82997258e-12 1.64084388e-12 1.72962760e-15 3.18739908e-12 3.73131583e-14 1.64084388e-12
6.02559586e+00 4.06158605e-12 1.08409480e-12 7.42796549e-16 2.97674846e-12 2.23365429e-14 1.08409480e-12
6.70000000e+00 3.57645626e-12 7.88574724e-13 3.72275724e-16 2.78750926e-12 1.42834691e-14 7.88574724e-13
6.92422916e+00 3.44188772e-12 7.14418944e-13 2.95251041e-16 2.72717353e-12 1.23108466e-14 7.14418944e-13
7.15596261e+00 3.33352760e-12 6.47236606e-13 2.35958596e-16 2.68605503e-12 1.06394323e-14 6.47236606e-13
7.39545150e+00 3.28569490e-12 5.86371942e-13 1.80263130e-16 2.69914269e-12 9.03701879e-15 5.86371942e-13
7.64295536e+00 3.39296651e-12 5.31230854e-13 1.29151251e-16 2.86160650e-12 7.68777696e-15 5.31230854e-13
7.89874245e+00 3.71722788e-12 4.81275108e-13 8.17368516e-17 3.23587104e-12 6.39377312e-15 4.81275108e-13
8.16308998e+00 4.17550575e-12 4.36017088e-13 4.90744104e-17 3.73943959e-12 5.20399863e-15 4.36017088e-13
8.43628443e+00 4.78068562e-12 3.95015029e-13 2.77941979e-17 4.38564279e-12 4.05195116e-15 3.95015029e-13
8.71862190e+00 5.13320577e-12 3.57868711e-13 1.74395582e-17 4.77531961e-12 3.18757882e-15 3.57868711e-13
9.01040836e+00 5.48035071e-12 3.24215549e-13 1.06448821e-17 5.15612451e-12 2.32401847e-15 3.24215549e-13
9.31196005e+00 5.72468320e-12 2.93727053e-13 0.00000000e+00 5.43095615e-12 0.00000000e+00 2.93727053e-13
9.62360379e+00 5.63542917e-12 2.66105627e-13 0.00000000e+00 5.36932354e-12 0.00000000e+00 2.66105627e-13
9.94567731e+00 5.34851299e-12 2.41081657e-13 0.00000000e+00 5.10743133e-12 0.00000000e+00 2.41081657e-13
1.02785297e+01 4.95057667e-12 2.18410884e-13 0.00000000e+00 4.73216578e-12 0.00000000e+00 2.18410884e-13
1.06225216e+01 4.60540444e-12 1.97872020e-13 0.00000000e+00 4.40753242e-12 0.00000000e+00 1.97872020e-13
1.09780260e+01 4.19564286e-12 1.79264583e-13 0.00000000e+00 4.01637827e-12 0.00000000e+00 1.79264583e-13
1.13454280e+01 3.84988281e-12 1.62406948e-13 0.00000000e+00 3.68747586e-12 0.00000000e+00 1.62406948e-13
1.17251259e+01 3.53526121e-12 1.47134567e-13 0.00000000e+00 3.38812664e-12 0.00000000e+00 1.47134567e-13
1.21175312e+01 3.23253430e-12 1.33298366e-13 0.00000000e+00 3.09923593e-12 0.00000000e+00 1.33298366e-13
1.25230691e+01 2.96883361e-12 1.20763289e-13 0.00000000e+00 2.84807032e-12 0.00000000e+00 1.20763289e-13
1.29421791e+01 2.72896036e-12 1.09406983e-13 0.00000000e+00 2.61955338e-12 0.00000000e+00 1.09406983e-13
1.33753155e+01 2.51315695e-12 9.91185987e-14 0.00000000e+00 2.41403835e-12 0.00000000e+00 9.91185987e-14
1.38229477e+01 2.36736067e-12 8.97977103e-14 0.00000000e+00 2.27756296e-12 0.00000000e+00 8.97977103e-14
1.42855609e+01 2.27892963e-12 8.13533371e-14 0.00000000e+00 2.19757630e-12 0.00000000e+00 8.13533371e-14
1.47636563e+01 2.28735205e-12 7.37030537e-14 0.00000000e+00 2.21364900e-12 0.00000000e+00 7.37030537e-14
1.52577522e+01 2.32471692e-12 6.67721855e-14 0.00000000e+00 2.25794473e-12 0.00000000e+00 6.67721855e-14
1.57683840e+01 2.37539534e-12 6.04930805e-14 0.00000000e+00 2.31490226e-12 0.00000000e+00 6.04930805e-14
1.62961051e+01 2.42233541e-12 5.48044484e-14 0.00000000e+00 2.36753096e-12 0.00000000e+00 5.48044484e-14
1.68414875e+01 2.46798610e-12 4.96507622e-14 0.00000000e+00 2.41833534e-12 0.00000000e+00 4.96507622e-14
1.74051222e+01 2.48762822e-12 4.49817171e-14 0.00000000e+00 2.44264651e-12 0.00000000e+00 4.49817171e-14
1.79876201e+01 2.47743077e-12 4.07517384e-14 0.00000000e+00 2.43667904e-12 0.00000000e+00 4.07517384e-14
1.85896125e+01 2.43385242e-12 3.69195372e-14 0.00000000e+00 2.39693289e-12 0.00000000e+00 3.69195372e-14
1.92117518e+01 2.35926744e-12 3.34477076e-14 0.00000000e+00 2.32581973e-12 0.00000000e+00 3.34477076e-14
1.98547123e+01 2.25921907e-12 3.03023610e-14 0.00000000e+00 2.22891671e-12 0.00000000e+00 3.03023610e-14
2.05191907e+01 2.15821110e-12 2.74527957e-14 0.00000000e+00 2.13075831e-12 0.00000000e+00 2.74527957e-14
2.12059073e+01 2.04632844e-12 2.48711970e-14 0.00000000e+00 2.02145724e-12 0.00000000e+00 2.48711970e-14
2.19156062e+01 1.95204901e-12 2.25323660e-14 0.00000000e+00 1.92951665e-12 0.00000000e+00 2.25323660e-14
2.26490567e+01 1.86170416e-12 2.04134733e-14 0.00000000e+00 1.84129069e-12 0.00000000e+00 2.04134733e-14
2.34070535e+01 1.76919106e-12 1.84938366e-14 0.00000000e+00 1.75069722e-12 0.00000000e+00 1.84938366e-14
2.41904183e+01 1.68051285e-12 1.67547181e-14 0.00000000e+00 1.66375813e-12 0.00000000e+00 1.67547181e-14
2.50000000e+01 1.59641848e-12 1.51791424e-14 0.00000000e+00 1.58123933e-12 0.00000000e+00 1.51791424e-14
2.75422870e+01 1.35815654e-12 1.13518661e-14 0.00000000e+00 1.34680468e-12 0.00000000e+00 1.13518661e-14
3.16227766e+01 1.04162490e-12 7.50010357e-15 0.00000000e+00 1.03412480e-12 0.00000000e+00 7.50010357e-15
3.63078055e+01 7.55727083e-13 4.95526929e-15 0.00000000e+00 7.50771814e-13 0.00000000e+00 4.95526929e-15
4.16869383e+01 5.13109374e-13 3.27391395e-15 0.00000000e+00 5.09835460e-13 0.00000000e+00 3.27391395e-15
4.78630092e+01 3.26374014e-13 2.16305350e-15 0.00000000e+00 3.24210961e-13 0.00000000e+00 2.16305350e-15
5.49540874e+01 1.97030844e-13 1.42911527e-15 0.00000000e+00 1.95601729e-13 0.00000000e+00 1.42911527e-15
6.30957344e+01 1.14270469e-13 9.44207098e-16 0.00000000e+00 1.13326262e-13 0.00000000e+00 9.44207098e-16
7.24435960e+01 6.42744714e-14 6.23831443e-16 0.00000000e+00 6.36506399e-14 0.00000000e+00 6.23831443e-16
8.31763771e+01 3.54153368e-14 4.12161347e-16 0.00000000e+00 3.50031754e-14 0.00000000e+00 4.12161347e-16
9.54992586e+01 1.92470283e-14 2.72312302e-16 0.00000000e+00 1.89747160e-14 0.00000000e+00 2.72312302e-16
1.09647820e+02 1.03616558e-14 1.79914953e-16 0.00000000e+00 1.01817408e-14 0.00000000e+00 1.79914953e-16
1.25892541e+02 5.60775139e-15 1.18868631e-16 0.00000000e+00 5.48888276e-15 0.00000000e+00 1.18868631e-16
1.44543977e+02 3.03188566e-15 7.85357256e-17 0.00000000e+00 2.95334993e-15 0.00000000e+00 7.85357256e-17
1.65958691e+02 1.56815618e-15 5.18880394e-17 0.00000000e+00 1.51626814e-15 0.00000000e+00 5.18880394e-17
1.90546072e+02 8.15669604e-16 3.42820876e-17 0.00000000e+00 7.81387516e-16 0.00000000e+00 3.42820876e-17
2.18776162e+02 4.25657317e-16 2.26499507e-17 0.00000000e+00 4.03007366e-16 0.00000000e+00 2.26499507e-17
2.51188643e+02 2.22506887e-16 1.49646740e-17 0.00000000e+00 2.07542213e-16 0.00000000e+00 1.49646740e-17
2.88403150e+02 1.16431458e-16 9.88706207e-18 0.00000000e+00 1.06544396e-16 0.00000000e+00 9.88706207e-18
3.31131121e+02 6.11495729e-17 6.53231713e-18 0.00000000e+00 5.46172557e-17 0.00000000e+00 6.53231713e-18
3.80189396e+02 3.22367332e-17 4.31585913e-18 0.00000000e+00 2.79208741e-17 0.00000000e+00 4.31585913e-18
4.36515832e+02 1.71024933e-17 2.85145985e-18 0.00000000e+00 1.42510335e-17 0.00000000e+00 2.85145985e-18
5.01187234e+02 9.14328224e-18 1.88394084e-18 0.00000000e+00 7.25934140e-18 0.00000000e+00 1.88394084e-18
5.75439937e+02 4.93657552e-18 1.24470737e-18 0.00000000e+00 3.69186815e-18 0.00000000e+00 1.24470737e-18
6.60693448e+02 2.69731824e-18 8.22370004e-19 0.00000000e+00 1.87494823e-18 0.00000000e+00 8.22370004e-19
7.58577575e+02 1.49436185e-18 5.43334473e-19 0.00000000e+00 9.51027376e-19 0.00000000e+00 5.43334473e-19
8.70963590e+02 8.40724481e-19 3.58977527e-19 0.00000000e+00 4.81746954e-19 0.00000000e+00 3.58977527e-19
1.00000000e+03 2.43713413e-19 0.00000000e+00 0.00000000e+00 2.43713413e-19 0.00000000e+00 0.00000000e+00
