# column 1: lambda (micron)
# column 2: total flux; lambda*F_lambda (W/m2)
# column 3: direct stellar flux; lambda*F_lambda (W/m2)
# column 4: scattered stellar flux; lambda*F_lambda (W/m2)
# column 5: total dust emission flux; lambda*F_lambda (W/m2)
# column 6: dust emission scattered flux; lambda*F_lambda (W/m2)
# column 7: transparent flux; lambda*F_lambda (W/m2)
1.00000000e-03 6.93994797e-13 6.93993746e-13 1.05142796e-18 0.00000000e+00 0.00000000e+00 6.93993746e-13
1.14815362e-03 8.19136741e-13 8.19135139e-13 1.60212692e-18 0.00000000e+00 0.00000000e+00 8.19135139e-13
1.31825674e-03 9.66844593e-13 9.66842108e-13 2.48475919e-18 0.00000000e+00 0.00000000e+00 9.66842108e-13
1.51356125e-03 1.14118760e-12 1.14118369e-12 3.91121264e-18 0.00000000e+00 0.00000000e+00 1.14118369e-12
1.73780083e-03 1.34696944e-12 1.34696266e-12 6.77690620e-18 0.00000000e+00 0.00000000e+00 1.34696266e-12
1.99526231e-03 1.58986022e-12 1.58984782e-12 1.23956144e-17 0.00000000e+00 0.00000000e+00 1.58984782e-12
2.29086765e-03 1.87655010e-12 1.87653019e-12 1.99097265e-17 0.00000000e+00 0.00000000e+00 1.87653019e-12
2.63026799e-03 2.21494637e-12 2.21490731e-12 3.90552000e-17 0.00000000e+00 0.00000000e+00 2.21490731e-12
3.01995172e-03 2.61436945e-12 2.61430080e-12 6.86487201e-17 0.00000000e+00 0.00000000e+00 2.61430080e-12
3.46736850e-03 3.08582269e-12 3.08571319e-12 1.09500992e-16 0.00000000e+00 0.00000000e+00 3.08571319e-12
3.98107171e-03 3.64231247e-12 3.64213095e-12 1.81522290e-16 0.00000000e+00 0.00000000e+00 3.64213095e-12
4.57088190e-03 4.29927316e-12 4.29888232e-12 3.90838197e-16 0.00000000e+00 0.00000000e+00 4.29888232e-12
5.24807460e-03 5.07476911e-12 5.07405951e-12 7.09598805e-16 0.00000000e+00 0.00000000e+00 5.07405951e-12
6.02559586e-03 5.99033323e-12 5.98901715e-12 1.31607980e-15 0.00000000e+00 0.00000000e+00 5.98901715e-12
6.91830971e-03 7.07104641e-12 7.06896053e-12 2.08588551e-15 0.00000000e+00 0.00000000e+00 7.06896053e-12
7.94328235e-03 8.34711521e-12 8.34363998e-12 3.47522362e-15 0.00000000e+00 0.00000000e+00 8.34363998e-12
9.12010839e-03 9.85424705e-12 9.84817045e-12 6.07660702e-15 0.00000000e+00 0.00000000e+00 9.84817045e-12
1.04712855e-02 1.10077978e-11 1.09990604e-11 8.73733834e-15 0.00000000e+00 0.00000000e+00 1.09990604e-11
1.20226443e-02 1.10120522e-11 1.09990604e-11 1.29917318e-14 0.00000000e+00 0.00000000e+00 1.09990604e-11
1.38038426e-02 1.10166067e-11 1.09990604e-11 1.75462230e-14 1.19772966e-290 1.54545906e-292 1.09990604e-11
1.58489319e-02 1.10246208e-11 1.09990604e-11 2.55603531e-14 6.89855439e-254 1.12024706e-255 1.09990604e-11
1.81970086e-02 1.10339671e-11 1.09990604e-11 3.49067023e-14 6.92787752e-222 1.28686032e-223 1.09990604e-11
2.08929613e-02 1.10511911e-11 1.09990604e-11 5.21306970e-14 4.77966609e-194 1.21450380e-195 1.09990604e-11
2.39883292e-02 1.10626063e-11 1.09990604e-11 6.35458128e-14 8.48761053e-170 2.77460759e-171 1.09990604e-11
2.75422870e-02 1.10814563e-11 1.09990604e-11 8.23958943e-14 1.12821041e-148 4.42905561e-150 1.09990604e-11
3.16227766e-02 1.11026450e-11 1.09990604e-11 1.03584545e-13 2.77601062e-130 1.32635931e-131 1.09990604e-11
3.63078055e-02 1.11184374e-11 1.09990604e-11 1.19376978e-13 2.81918807e-114 1.51145035e-115 1.09990604e-11
4.16869383e-02 1.11573099e-11 1.09990604e-11 1.58249430e-13 2.42516570e-100 1.72970518e-101 1.09990604e-11
4.78630092e-02 1.12010190e-11 1.09990604e-11 2.01958525e-13 3.21035393e-88 2.92401717e-89 1.09990604e-11
5.49540874e-02 1.12394891e-11 1.09990604e-11 2.40428644e-13 1.11368972e-77 1.22032912e-78 1.09990604e-11
6.30957344e-02 1.12586191e-11 1.09990604e-11 2.59558613e-13 2.14253310e-68 2.84805299e-69 1.09990604e-11
7.24435960e-02 1.12436900e-11 1.09990604e-11 2.44629542e-13 2.43226276e-60 3.32575335e-61 1.09990604e-11
8.31763771e-02 1.12374043e-11 1.09990604e-11 2.38343880e-13 1.91589163e-53 2.67322346e-54 1.09990604e-11
9.54992586e-02 1.12434103e-11 1.09990604e-11 2.44349856e-13 1.82171332e-47 2.65188564e-48 1.09990604e-11
1.09647820e-01 1.07578684e-11 1.05040253e-11 2.53843116e-13 2.56794977e-42 3.99634741e-43 1.05040253e-11
1.25892541e-01 1.00321160e-11 9.80292679e-12 2.29189184e-13 7.27372423e-38 1.10906748e-38 9.80292679e-12
1.44543977e-01 9.35826116e-12 9.14862359e-12 2.09637571e-13 4.98748323e-34 7.36867462e-35 9.14862359e-12
1.65958691e-01 8.74306457e-12 8.53799231e-12 2.05072257e-13 7.97288960e-31 1.29612527e-31 8.53799231e-12
1.90546072e-01 8.19896845e-12 7.96811805e-12 2.30850403e-13 3.49744797e-28 6.88316027e-29 7.96811805e-12
2.18776162e-01 7.65418862e-12 7.43628044e-12 2.17908186e-13 5.89646098e-26 1.28440818e-26 7.43628044e-12
2.51188643e-01 7.17701155e-12 6.93994070e-12 2.37070849e-13 8.02080994e-24 2.09069963e-24 6.93994070e-12
2.88403150e-01 6.69744515e-12 6.47672950e-12 2.20715647e-13 5.53190325e-22 1.45999225e-22 6.47672950e-12
3.31131121e-01 6.23947770e-12 6.04443567e-12 1.95042011e-13 2.06387515e-20 5.43761582e-21 6.04443567e-12
3.80189396e-01 5.81355815e-12 5.64099558e-12 1.72562109e-13 4.57492892e-19 1.21900904e-19 5.64099558e-12
4.36515832e-01 5.42803573e-12 5.26448339e-12 1.63545935e-13 6.40805078e-18 1.73096639e-18 5.26448339e-12
5.01187234e-01 5.05870909e-12 4.91310176e-12 1.45547111e-13 6.02191773e-17 1.63299469e-17 4.91310176e-12
5.75439937e-01 4.71779827e-12 4.58517335e-12 1.32225642e-13 3.99275757e-16 1.07816441e-16 4.58517335e-12
6.60693448e-01 4.40188825e-12 4.27913275e-12 1.20789119e-13 1.96638331e-15 5.27458641e-16 4.27913275e-12
7.58577575e-01 4.10914417e-12 3.99351904e-12 1.08095615e-13 7.52951552e-15 1.96607033e-15 3.99351904e-12
8.70963590e-01 3.84798132e-12 3.72696882e-12 9.75728245e-14 2.34396710e-14 5.83208344e-15 3.72696882e-12
1.00000000e+00 3.62345095e-12 3.47820968e-12 8.51560091e-14 6.00852563e-14 1.39294133e-14 3.47820968e-12
1.14815362e+00 3.45165721e-12 3.24605414e-12 7.08892814e-14 1.34713787e-13 2.80632965e-14 3.24605414e-12
1.31825674e+00 3.35613796e-12 3.02939399e-12 5.72013227e-14 2.69542647e-13 4.87721473e-14 3.02939399e-12
1.51356125e+00 3.35315385e-12 2.82719497e-12 4.59315275e-14 4.80027356e-13 7.34937787e-14 2.82719497e-12
1.73780083e+00 3.43755802e-12 2.63849186e-12 3.47068639e-14 7.64359288e-13 9.56856625e-14 2.63849186e-12
1.99526231e+00 3.58345223e-12 2.46238388e-12 2.62061387e-14 1.09486221e-12 1.06680174e-13 2.46238388e-12
2.29086765e+00 3.73952218e-12 2.29803035e-12 1.92867674e-14 1.42220507e-12 1.03716156e-13 2.29803035e-12
2.63026799e+00 3.87516019e-12 2.14464670e-12 1.35136395e-14 1.71699984e-12 9.22746451e-14 2.14464670e-12
3.01995172e+00 3.95698616e-12 2.00150076e-12 9.19675004e-15 1.94628865e-12 7.51124975e-14 2.00150076e-12
3.46736850e+00 3.97559406e-12 1.86790919e-12 6.28296278e-15 2.10140190e-12 5.74902088e-14 1.86790919e-12
3.98107171e+00 3.92073674e-12 1.74323429e-12 4.12865313e-15 2.17337380e-12 4.12402674e-14 1.74323429e-12
4.57088190e+00 3.81027616e-12 1.62688090e-12 2.63349773e-15 2.18076176e-12 2.78584423e-14 1.62688090e-12
5.24807460e+00 3.48814582e-12 1.34518114e-12 1.40627043e-15 2.14155841e-12 1.80255025e-14 1.34518114e-12
6.02559586e+00 2.96255344e-12 8.88752369e-13 5.97080542e-16 2.07320399e-12 1.10671303e-14 8.88752369e-13
6.70000000e+00 2.65143506e-12 6.46481889e-13 2.95622164e-16 2.00465755e-12 7.38320590e-15 6.46481889e-13
6.92422916e+00 2.56544299e-12 5.85688198e-13 2.36746795e-16 1.97951804e-12 6.38507407e-15 5.85688198e-13
7.15596261e+00 2.49663270e-12 5.30611407e-13 1.86559245e-16 1.96583474e-12 5.54287157e-15 5.30611407e-13
7.39545150e+00 2.47329799e-12 4.80713913e-13 1.43333731e-16 1.99244074e-12 4.72869219e-15 4.80713913e-13
7.64295536e+00 2.55027109e-12 4.35508666e-13 1.00677815e-16 2.11466175e-12 4.01123454e-15 4.35508666e-13
7.89874245e+00 2.80319024e-12 3.94554418e-13 6.59889322e-17 2.40856983e-12 3.35879082e-15 3.94554418e-13
8.16308998e+00 3.17956614e-12 3.57451415e-13 4.02481180e-17 2.82207448e-12 2.73016852e-15 3.57451415e-13
8.43628443e+00 3.72107817e-12 3.23837494e-13 2.31084547e-17 3.39721757e-12 2.15310932e-15 3.23837494e-13
8.71862190e+00 4.11161650e-12 2.93384550e-13 1.45701735e-17 3.81821738e-12 1.69769548e-15 2.93384550e-13
9.01040836e+00 4.52636751e-12 2.65795332e-13 8.43573271e-18 4.26056375e-12 1.25012075e-15 2.65795332e-13
9.31196005e+00 4.87969039e-12 2.40800541e-13 0.00000000e+00 4.63888985e-12 0.00000000e+00 2.40800541e-13
9.62360379e+00 4.86972576e-12 2.18156204e-13 0.00000000e+00 4.65156955e-12 0.00000000e+00 2.18156204e-13
9.94567731e+00 4.63342274e-12 1.97641289e-13 0.00000000e+00 4.43578145e-12 0.00000000e+00 1.97641289e-13
1.02785297e+01 4.32481078e-12 1.79055550e-13 0.00000000e+00 4.14575523e-12 0.00000000e+00 1.79055550e-13
1.06225216e+01 4.02965587e-12 1.62217572e-13 0.00000000e+00 3.86743830e-12 0.00000000e+00 1.62217572e-13
1.09780260e+01 3.65815679e-12 1.46962999e-13 0.00000000e+00 3.51119379e-12 0.00000000e+00 1.46962999e-13
1.13454280e+01 3.36626411e-12 1.33142932e-13 0.00000000e+00 3.23312118e-12 0.00000000e+00 1.33142932e-13
1.17251259e+01 3.11064436e-12 1.20622472e-13 0.00000000e+00 2.99002189e-12 0.00000000e+00 1.20622472e-13
1.21175312e+01 2.87080830e-12 1.09279408e-13 0.00000000e+00 2.76152889e-12 0.00000000e+00 1.09279408e-13
1.25230691e+01 2.64189990e-12 9.90030204e-14 0.00000000e+00 2.54289688e-12 0.00000000e+00 9.90030204e-14
1.29421791e+01 2.45453774e-12 8.96930008e-14 0.00000000e+00 2.36484474e-12 0.00000000e+00 8.96930008e-14
1.33753155e+01 2.29897357e-12 8.12584743e-14 0.00000000e+00 2.21771509e-12 0.00000000e+00 8.12584743e-14
1.38229477e+01 2.19755160e-12 7.36171115e-14 0.00000000e+00 2.12393449e-12 0.00000000e+00 7.36171115e-14
1.42855609e+01 2.15839878e-12 6.66943252e-14 0.00000000e+00 2.09170445e-12 0.00000000e+00 6.66943252e-14
1.47636563e+01 2.21544823e-12 6.04225420e-14 0.00000000e+00 2.15502569e-12 0.00000000e+00 6.04225420e-14
1.52577522e+01 2.29589931e-12 5.47405431e-14 0.00000000e+00 2.24115876e-12 0.00000000e+00 5.47405431e-14
1.57683840e+01 2.39351619e-12 4.95928665e-14 0.00000000e+00 2.34392332e-12 0.00000000e+00 4.95928665e-14
1.62961051e+01 2.50544148e-12 4.49292657e-14 0.00000000e+00 2.46051222e-12 0.00000000e+00 4.49292657e-14
1.68414875e+01 2.62212848e-12 4.07042194e-14 0.00000000e+00 2.58142427e-12 0.00000000e+00 4.07042194e-14
1.74051222e+01 2.70149178e-12 3.68764869e-14 0.00000000e+00 2.66461529e-12 0.00000000e+00 3.68764869e-14
1.79876201e+01 2.76791600e-12 3.34087056e-14 0.00000000e+00 2.73450729e-12 0.00000000e+00 3.34087056e-14
1.85896125e+01 2.79523279e-12 3.02670267e-14 0.00000000e+00 2.76496576e-12 0.00000000e+00 3.02670267e-14
1.92117518e+01 2.77550985e-12 2.74207841e-14 0.00000000e+00 2.74808907e-12 0.00000000e+00 2.74207841e-14
1.98547123e+01 2.73169406e-12 2.48421957e-14 0.00000000e+00 2.70685187e-12 0.00000000e+00 2.48421957e-14
2.05191907e+01 2.67404429e-12 2.25060919e-14 0.00000000e+00 2.65153819e-12 0.00000000e+00 2.25060919e-14
2.12059073e+01 2.61360374e-12 2.03896700e-14 0.00000000e+00 2.59321407e-12 0.00000000e+00 2.03896700e-14
2.19156062e+01 2.56341084e-12 1.84722717e-14 0.00000000e+00 2.54493857e-12 0.00000000e+00 1.84722717e-14
2.26490567e+01 2.52450968e-12 1.67351811e-14 0.00000000e+00 2.50777450e-12 0.00000000e+00 1.67351811e-14
2.34070535e+01 2.47533599e-12 1.51614426e-14 0.00000000e+00 2.46017455e-12 0.00000000e+00 1.51614426e-14
2.41904183e+01 2.42982118e-12 1.37356949e-14 0.00000000e+00 2.41608548e-12 0.00000000e+00 1.37356949e-14
2.50000000e+01 2.38418569e-12 1.24440213e-14 0.00000000e+00 2.37174166e-12 0.00000000e+00 1.24440213e-14
2.75422870e+01 2.22800445e-12 9.30637977e-15 0.00000000e+00 2.21869807e-12 0.00000000e+00 9.30637977e-15
3.16227766e+01 1.95498162e-12 6.14866414e-15 0.00000000e+00 1.94883296e-12 0.00000000e+00 6.14866414e-15
3.63078055e+01 1.61868475e-12 4.06238211e-15 0.00000000e+00 1.61462237e-12 0.00000000e+00 4.06238211e-15
4.16869383e+01 1.24685818e-12 2.68398924e-15 0.00000000e+00 1.24417419e-12 0.00000000e+00 2.68398924e-15
4.78630092e+01 8.90630095e-13 1.77329411e-15 0.00000000e+00 8.88856801e-13 0.00000000e+00 1.77329411e-15
5.49540874e+01 5.98222329e-13 1.17160380e-15 0.00000000e+00 5.97050725e-13 0.00000000e+00 1.17160380e-15
6.30957344e+01 3.80915525e-13 7.74070953e-16 0.00000000e+00 3.80141454e-13 0.00000000e+00 7.74070953e-16
7.24435960e+01 2.32633130e-13 5.11423607e-16 0.00000000e+00 2.32121706e-13 0.00000000e+00 5.11423607e-16
8.31763771e+01 1.37526519e-13 3.37894226e-16 0.00000000e+00 1.37188625e-13 0.00000000e+00 3.37894226e-16
9.54992586e+01 7.93486299e-14 2.23244502e-16 0.00000000e+00 7.91253854e-14 0.00000000e+00 2.23244502e-16
1.09647820e+02 4.49142095e-14 1.47496179e-16 0.00000000e+00 4.47667133e-14 0.00000000e+00 1.47496179e-16
1.25892541e+02 2.53251958e-14 9.74497594e-17 0.00000000e+00 2.52277460e-14 0.00000000e+00 9.74497594e-17
1.44543977e+02 1.41556312e-14 6.43844175e-17 0.00000000e+00 1.40912468e-14 0.00000000e+00 6.43844175e-17
1.65958691e+02 7.52749206e-15 4.25383628e-17 0.00000000e+00 7.48495370e-15 0.00000000e+00 4.25383628e-17
1.90546072e+02 3.99753955e-15 2.81048176e-17 0.00000000e+00 3.96943473e-15 0.00000000e+00 2.81048176e-17
2.18776162e+02 2.11590646e-15 1.85686688e-17 0.00000000e+00 2.09733780e-15 0.00000000e+00 1.85686688e-17
2.51188643e+02 1.11474447e-15 1.22681978e-17 0.00000000e+00 1.10247627e-15 0.00000000e+00 1.22681978e-17
2.88403150e+02 5.84111822e-16 8.10551794e-18 0.00000000e+00 5.76006304e-16 0.00000000e+00 8.10551794e-18
3.31131121e+02 3.05100907e-16 5.35526259e-18 0.00000000e+00 2.99745645e-16 0.00000000e+00 5.35526259e-18
3.80189396e+02 1.58759152e-16 3.53818691e-18 0.00000000e+00 1.55220965e-16 0.00000000e+00 3.53818691e-18
4.36515832e+02 8.24421334e-17 2.33765691e-18 0.00000000e+00 8.01044765e-17 0.00000000e+00 2.33765691e-18
5.01187234e+02 4.27374103e-17 1.54447460e-18 0.00000000e+00 4.11929357e-17 0.00000000e+00 1.54447460e-18
5.75439937e+02 2.21412369e-17 1.02042425e-18 0.00000000e+00 2.11208127e-17 0.00000000e+00 1.02042425e-18
6.60693448e+02 1.14761571e-17 6.74187617e-19 0.00000000e+00 1.08019695e-17 0.00000000e+00 6.74187617e-19
7.58577575e+02 5.95764792e-18 4.45431341e-19 0.00000000e+00 5.51221658e-18 0.00000000e+00 4.45431341e-19
8.70963590e+02 3.10110845e-18 2.94293569e-19 0.00000000e+00 2.80681488e-18 0.00000000e+00 2.94293569e-19
1.00000000e+03 1.42636002e-18 0.00000000e+00 0.00000000e+00 1.42636002e-18 0.00000000e+00 0.00000000e+00
