# column 1: lambda (micron)
# column 2: total flux; lambda*F_lambda (W/m2)
# column 3: direct stellar flux; lambda*F_lambda (W/m2)
# column 4: scattered stellar flux; lambda*F_lambda (W/m2)
# column 5: total dust emission flux; lambda*F_lambda (W/m2)
# column 6: dust emission scattered flux; lambda*F_lambda (W/m2)
# column 7: transparent flux; lambda*F_lambda (W/m2)
1.00000000e-03 1.04632292e-12 1.04631254e-12 1.03886354e-17 0.00000000e+00 0.00000000e+00 1.04634360e-12
1.14815362e-03 1.23498781e-12 1.23497250e-12 1.53070312e-17 0.00000000e+00 0.00000000e+00 1.23502095e-12
1.31825674e-03 1.45767144e-12 1.45764801e-12 2.34305756e-17 0.00000000e+00 0.00000000e+00 1.45772071e-12
1.51356125e-03 1.72051221e-12 1.72047666e-12 3.55471207e-17 0.00000000e+00 0.00000000e+00 1.72057784e-12
1.73780083e-03 2.03077674e-12 2.03071287e-12 6.38646761e-17 0.00000000e+00 0.00000000e+00 2.03083353e-12
1.99526231e-03 2.39695671e-12 2.39684591e-12 1.10794379e-16 0.00000000e+00 0.00000000e+00 2.39703472e-12
2.29086765e-03 2.82920800e-12 2.82903323e-12 1.74769341e-16 0.00000000e+00 0.00000000e+00 2.82926954e-12
2.63026799e-03 3.33944969e-12 3.33911097e-12 3.38715608e-16 0.00000000e+00 0.00000000e+00 3.33944522e-12
3.01995172e-03 3.94170682e-12 3.94112817e-12 5.78644314e-16 0.00000000e+00 0.00000000e+00 3.94161611e-12
3.46736850e-03 4.65266928e-12 4.65169202e-12 9.77256148e-16 0.00000000e+00 0.00000000e+00 4.65237083e-12
3.98107171e-03 5.49191550e-12 5.49037219e-12 1.54331075e-15 0.00000000e+00 0.00000000e+00 5.49128930e-12
4.57088190e-03 6.48397348e-12 6.48075999e-12 3.21349823e-15 0.00000000e+00 0.00000000e+00 6.48148207e-12
5.24807460e-03 7.65524200e-12 7.64913848e-12 6.10352556e-15 0.00000000e+00 0.00000000e+00 7.65022704e-12
6.02559586e-03 9.03935449e-12 9.02817165e-12 1.11828358e-14 0.00000000e+00 0.00000000e+00 9.02972084e-12
6.91830971e-03 1.06740929e-11 1.06558555e-11 1.82374464e-14 0.00000000e+00 0.00000000e+00 1.06579658e-11
7.94328235e-03 1.26074447e-11 1.25770381e-11 3.04066521e-14 2.89763780e-304 1.15764148e-306 1.25798170e-11
9.12010839e-03 1.48944292e-11 1.48445778e-11 4.98514447e-14 1.22209670e-265 1.32508195e-267 1.48482176e-11
1.04712855e-02 1.66520674e-11 1.65791050e-11 7.29623897e-14 4.95131627e-232 4.13703406e-234 1.65834298e-11
1.20226443e-02 1.67560371e-11 1.65788498e-11 1.77187282e-13 7.51341673e-203 8.77390599e-205 1.65834298e-11
1.38038426e-02 1.67364845e-11 1.65785471e-11 1.57937352e-13 1.99930567e-177 3.73116463e-179 1.65834298e-11
1.58489319e-02 1.68100027e-11 1.65781751e-11 2.31827540e-13 2.64091050e-155 5.75319605e-157 1.65834298e-11
1.81970086e-02 1.68837657e-11 1.65778321e-11 3.05933619e-13 4.63271349e-136 1.32623015e-137 1.65834298e-11
2.08929613e-02 1.69866434e-11 1.65775469e-11 4.09096541e-13 2.39206401e-119 9.05679977e-121 1.65834298e-11
2.39883292e-02 1.70974182e-11 1.65771774e-11 5.20240790e-13 8.31124859e-105 3.88538634e-106 1.65834298e-11
2.75422870e-02 1.72318300e-11 1.65767477e-11 6.55082298e-13 3.68661663e-92 2.00666980e-93 1.65834298e-11
3.16227766e-02 1.73230073e-11 1.65763264e-11 7.46680854e-13 3.57978609e-81 2.32848793e-82 1.65834298e-11
3.63078055e-02 1.74182667e-11 1.65759960e-11 8.42270677e-13 1.23088775e-71 8.56572412e-73 1.65834298e-11
4.16869383e-02 1.75865151e-11 1.65757103e-11 1.01080479e-12 2.34173727e-63 1.95732883e-64 1.65834298e-11
4.78630092e-02 1.76959187e-11 1.65749226e-11 1.12099606e-12 3.52022564e-56 3.24778427e-57 1.65834298e-11
5.49540874e-02 1.77209294e-11 1.65738273e-11 1.14710209e-12 5.79584928e-50 5.52888726e-51 1.65834298e-11
6.30957344e-02 1.76561013e-11 1.65710811e-11 1.08502026e-12 1.85672042e-44 1.82204308e-45 1.65834298e-11
7.24435960e-02 1.74756854e-11 1.65678287e-11 9.07856696e-13 1.05960778e-39 9.30747533e-41 1.65834298e-11
8.31763771e-02 1.74605006e-11 1.65681181e-11 8.92382531e-13 1.07520851e-35 9.02055267e-37 1.65834298e-11
9.54992586e-02 1.74445398e-11 1.65689669e-11 8.75572884e-13 3.02011793e-32 2.62643414e-33 1.65834298e-11
1.09647820e-01 1.67705663e-11 1.58255836e-11 9.44982709e-13 2.55877047e-29 2.39882187e-30 1.58370587e-11
1.25892541e-01 1.57147190e-11 1.47711873e-11 9.43531734e-13 8.30738500e-27 8.20443885e-28 1.47800032e-11
1.44543977e-01 1.46581105e-11 1.37866818e-11 8.71428726e-13 1.12437452e-24 1.07377416e-25 1.37935015e-11
1.65958691e-01 1.37186488e-11 1.28672783e-11 8.51370447e-13 5.68876597e-23 5.82863073e-24 1.28728446e-11
1.90546072e-01 1.28468268e-11 1.20080957e-11 8.38731167e-13 1.19572365e-21 1.34373527e-22 1.20136376e-11
2.18776162e-01 1.19338419e-11 1.12057123e-11 7.28129648e-13 1.40370291e-20 1.52978889e-21 1.12117790e-11
2.51188643e-01 1.12290042e-11 1.04589127e-11 7.70091265e-13 1.70763102e-19 2.19764480e-20 1.04634409e-11
2.88403150e-01 1.04863070e-11 9.76154257e-12 7.24762976e-13 1.41457289e-18 1.77112098e-19 9.76505125e-12
3.31131121e-01 9.77525403e-12 9.11042156e-12 6.64824344e-13 8.12724055e-18 1.02210063e-18 9.11327608e-12
3.80189396e-01 9.11094246e-12 8.50266466e-12 6.08243580e-13 3.42173500e-17 4.25266579e-18 8.50500410e-12
4.36515832e-01 8.46722758e-12 7.93543147e-12 5.31681108e-13 1.15004255e-16 1.55399310e-17 7.93733165e-12
5.01187234e-01 7.88611481e-12 7.40602638e-12 4.79730383e-13 3.58043890e-16 5.99594180e-17 7.40754890e-12
5.75439937e-01 7.32847004e-12 6.91191953e-12 4.15318323e-13 1.23218454e-15 2.69675165e-16 6.91312687e-12
6.60693448e-01 6.82064969e-12 6.45075625e-12 3.65266482e-13 4.62695304e-15 1.17607308e-15 6.45170538e-12
7.58577575e-01 6.35013185e-12 6.02034472e-12 3.12940149e-13 1.68469789e-14 4.40416646e-15 6.02108180e-12
8.70963590e-01 5.94046315e-12 5.61864076e-12 2.68666745e-13 5.31556404e-14 1.34332610e-14 5.61920048e-12
1.00000000e+00 5.61218671e-12 5.24372484e-12 2.24624175e-13 1.43837688e-13 3.39267634e-14 5.24414302e-12
1.14815362e+00 5.41588585e-12 4.89381215e-12 1.82592413e-13 3.39481288e-13 7.19709140e-14 4.89411902e-12
1.31825674e+00 5.43235461e-12 4.56723634e-12 1.46507478e-13 7.18610786e-13 1.33653416e-13 4.56745763e-12
1.51356125e+00 5.74965445e-12 4.26244152e-12 1.15378209e-13 1.37183472e-12 2.19926245e-13 4.26259947e-12
1.73780083e+00 6.39698275e-12 3.97797838e-12 9.20323392e-14 2.32697204e-12 3.18348816e-13 3.97808929e-12
1.99526231e+00 7.36129888e-12 3.71249228e-12 7.24243532e-14 3.57638225e-12 3.97814729e-13 3.71256894e-12
2.29086765e+00 8.55138007e-12 3.46471811e-12 5.51629635e-14 5.03149900e-12 4.46839322e-13 3.46477093e-12
2.63026799e+00 9.85195249e-12 3.23347563e-12 4.06402118e-14 6.57783664e-12 4.50497450e-13 3.23351237e-12
3.01995172e+00 1.10593404e-11 3.01766345e-12 2.90041616e-14 8.01267279e-12 4.13314091e-13 3.01768933e-12
3.46736850e+00 1.21432075e-11 2.81625301e-12 2.04046206e-14 9.30654991e-12 3.56421685e-13 2.81627154e-12
3.98107171e+00 1.29847377e-11 2.62828410e-12 1.36739803e-14 1.03427796e-11 2.83243045e-13 2.62829753e-12
4.57088190e+00 1.35234295e-11 2.45286010e-12 8.86952340e-15 1.10616998e-11 2.09111965e-13 2.45286997e-12
5.24807460e+00 1.35349346e-11 2.02814095e-12 4.96929798e-15 1.15018244e-11 1.45303947e-13 2.02814751e-12
6.02559586e+00 1.30627653e-11 1.33998017e-12 2.11383282e-15 1.17206713e-11 9.51085003e-14 1.33998377e-12
6.70000000e+00 1.27339084e-11 9.74707028e-13 1.05746671e-15 1.17581439e-11 6.53642222e-14 9.74709347e-13
6.92422916e+00 1.26296726e-11 8.83047862e-13 8.46619969e-16 1.17457782e-11 5.78581349e-14 8.83049889e-13
7.15596261e+00 1.25854952e-11 8.00008074e-13 6.68688244e-16 1.17848184e-11 5.05537141e-14 8.00009879e-13
7.39545150e+00 1.26157241e-11 7.24777089e-13 5.12231896e-16 1.18904347e-11 4.35080798e-14 7.24778763e-13
7.64295536e+00 1.30664487e-11 6.56620483e-13 3.59638687e-16 1.24094686e-11 3.64962962e-14 6.56622211e-13
7.89874245e+00 1.40280530e-11 5.94872924e-13 2.26281448e-16 1.34329538e-11 2.90796743e-14 5.94874946e-13
8.16308998e+00 1.52726993e-11 5.38931781e-13 1.33357941e-16 1.47336342e-11 2.26533263e-14 5.38934254e-13
8.43628443e+00 1.68846537e-11 4.88250985e-13 7.20160973e-17 1.63963307e-11 1.67744552e-14 4.88254098e-13
8.71862190e+00 1.79218037e-11 4.42336323e-13 4.25432010e-17 1.74794248e-11 1.28508965e-14 4.42339790e-13
9.01040836e+00 1.88556431e-11 4.00739354e-13 2.25169972e-17 1.84548813e-11 9.25725106e-15 4.00743158e-13
9.31196005e+00 1.97677771e-11 3.63054183e-13 0.00000000e+00 1.94047230e-11 0.00000000e+00 3.63058180e-13
9.62360379e+00 1.97428636e-11 3.28913295e-13 0.00000000e+00 1.94139503e-11 0.00000000e+00 3.28917012e-13
9.94567731e+00 1.93273441e-11 2.97983242e-13 0.00000000e+00 1.90293608e-11 0.00000000e+00 2.97986401e-13
1.02785297e+01 1.86910929e-11 2.69961846e-13 0.00000000e+00 1.84211311e-11 0.00000000e+00 2.69964435e-13
1.06225216e+01 1.80577868e-11 2.44575492e-13 0.00000000e+00 1.78132113e-11 0.00000000e+00 2.44577592e-13
1.09780260e+01 1.74658511e-11 2.21576428e-13 0.00000000e+00 1.72442746e-11 0.00000000e+00 2.21578069e-13
1.13454280e+01 1.69307321e-11 2.00740082e-13 0.00000000e+00 1.67299920e-11 0.00000000e+00 2.00741370e-13
1.17251259e+01 1.63666545e-11 1.81863090e-13 0.00000000e+00 1.61847914e-11 0.00000000e+00 1.81864106e-13
1.21175312e+01 1.58065359e-11 1.64761219e-13 0.00000000e+00 1.56417747e-11 0.00000000e+00 1.64762018e-13
1.25230691e+01 1.52496870e-11 1.49267545e-13 0.00000000e+00 1.51004195e-11 0.00000000e+00 1.49268171e-13
1.29421791e+01 1.47989614e-11 1.35230837e-13 0.00000000e+00 1.46637306e-11 0.00000000e+00 1.35231331e-13
1.33753155e+01 1.42887610e-11 1.22514090e-13 0.00000000e+00 1.41662469e-11 0.00000000e+00 1.22514483e-13
1.38229477e+01 1.40035743e-11 1.10993172e-13 0.00000000e+00 1.38925811e-11 0.00000000e+00 1.10993499e-13
1.42855609e+01 1.38862831e-11 1.00555638e-13 0.00000000e+00 1.37857275e-11 0.00000000e+00 1.00555922e-13
1.47636563e+01 1.41646050e-11 9.10996014e-14 0.00000000e+00 1.40735054e-11 0.00000000e+00 9.10998706e-14
1.52577522e+01 1.45784795e-11 8.25327851e-14 0.00000000e+00 1.44959467e-11 0.00000000e+00 8.25330452e-14
1.57683840e+01 1.50451555e-11 7.47715702e-14 0.00000000e+00 1.49703839e-11 0.00000000e+00 7.47718247e-14
1.62961051e+01 1.54122521e-11 6.77402030e-14 0.00000000e+00 1.53445119e-11 0.00000000e+00 6.77404517e-14
1.68414875e+01 1.58146933e-11 6.13700506e-14 0.00000000e+00 1.57533232e-11 0.00000000e+00 6.13702932e-14
1.74051222e+01 1.60865824e-11 5.55989395e-14 0.00000000e+00 1.60309835e-11 0.00000000e+00 5.55991699e-14
1.79876201e+01 1.62759626e-11 5.03705349e-14 0.00000000e+00 1.62255921e-11 0.00000000e+00 5.03707500e-14
1.85896125e+01 1.62276450e-11 4.56338042e-14 0.00000000e+00 1.61820112e-11 0.00000000e+00 4.56339988e-14
1.92117518e+01 1.60475613e-11 4.13425100e-14 0.00000000e+00 1.60062188e-11 0.00000000e+00 4.13426810e-14
1.98547123e+01 1.56994971e-11 3.74547617e-14 0.00000000e+00 1.56620424e-11 0.00000000e+00 3.74549090e-14
2.05191907e+01 1.53071653e-11 3.39326087e-14 0.00000000e+00 1.52732327e-11 0.00000000e+00 3.39327342e-14
2.12059073e+01 1.48941350e-11 3.07416698e-14 0.00000000e+00 1.48633934e-11 0.00000000e+00 3.07417768e-14
2.19156062e+01 1.44421738e-11 2.78507981e-14 0.00000000e+00 1.44143230e-11 0.00000000e+00 2.78508898e-14
2.26490567e+01 1.40118730e-11 2.52317766e-14 0.00000000e+00 1.39866412e-11 0.00000000e+00 2.52318552e-14
2.34070535e+01 1.35357602e-11 2.28590412e-14 0.00000000e+00 1.35129011e-11 0.00000000e+00 2.28591087e-14
2.41904183e+01 1.30114475e-11 2.07094317e-14 0.00000000e+00 1.29907381e-11 0.00000000e+00 2.07094900e-14
2.50000000e+01 1.25432537e-11 1.87619662e-14 0.00000000e+00 1.25244918e-11 0.00000000e+00 1.87620165e-14
2.75422870e+01 1.10415850e-11 1.40313198e-14 0.00000000e+00 1.10275536e-11 0.00000000e+00 1.40313526e-14
3.16227766e+01 8.75759173e-12 9.27040472e-15 0.00000000e+00 8.74832133e-12 0.00000000e+00 9.27042274e-15
3.63078055e+01 6.55011875e-12 6.12489772e-15 0.00000000e+00 6.54399385e-12 0.00000000e+00 6.12490756e-15
4.16869383e+01 4.56071279e-12 4.04668106e-15 0.00000000e+00 4.55666610e-12 0.00000000e+00 4.04668630e-15
4.78630092e+01 2.96744066e-12 2.67361642e-15 0.00000000e+00 2.96476704e-12 0.00000000e+00 2.67361912e-15
5.49540874e+01 1.82653803e-12 1.76644127e-15 0.00000000e+00 1.82477159e-12 0.00000000e+00 1.76644264e-15
6.30957344e+01 1.07511306e-12 1.16707640e-15 0.00000000e+00 1.07394599e-12 0.00000000e+00 1.16707708e-15
7.24435960e+01 6.11317679e-13 7.71079842e-16 0.00000000e+00 6.10546599e-13 0.00000000e+00 7.71080178e-16
8.31763771e+01 3.39072560e-13 5.09447455e-16 0.00000000e+00 3.38563112e-13 0.00000000e+00 5.09447621e-16
9.54992586e+01 1.84978436e-13 3.36588623e-16 0.00000000e+00 1.84641848e-13 0.00000000e+00 3.36588705e-16
1.09647820e+02 9.96738946e-14 2.22381912e-16 0.00000000e+00 9.94515127e-14 0.00000000e+00 2.22381952e-16
1.25892541e+02 5.38636095e-14 1.46926278e-16 0.00000000e+00 5.37166832e-14 0.00000000e+00 1.46926299e-16
1.44543977e+02 2.90305816e-14 9.70732326e-17 0.00000000e+00 2.89335084e-14 0.00000000e+00 9.70732430e-17
1.65958691e+02 1.49394290e-14 6.41356505e-17 0.00000000e+00 1.48752934e-14 0.00000000e+00 6.41356556e-17
1.90546072e+02 7.71305078e-15 4.23740049e-17 0.00000000e+00 7.67067678e-15 0.00000000e+00 4.23740075e-17
2.18776162e+02 3.98470776e-15 2.79962278e-17 0.00000000e+00 3.95671154e-15 0.00000000e+00 2.79962291e-17
2.51188643e+02 2.05581987e-15 1.84969245e-17 0.00000000e+00 2.03732294e-15 0.00000000e+00 1.84969251e-17
2.88403150e+02 1.05788547e-15 1.22207969e-17 0.00000000e+00 1.04566467e-15 0.00000000e+00 1.22207972e-17
3.31131121e+02 5.43908278e-16 8.07420051e-18 0.00000000e+00 5.35834077e-16 0.00000000e+00 8.07420067e-18
3.80189396e+02 2.79137657e-16 5.33457140e-18 0.00000000e+00 2.73803086e-16 0.00000000e+00 5.33457148e-18
4.36515832e+02 1.43214279e-16 3.52451638e-18 0.00000000e+00 1.39689763e-16 0.00000000e+00 3.52451642e-18
5.01187234e+02 7.34547866e-17 2.32862489e-18 0.00000000e+00 7.11261617e-17 0.00000000e+00 2.32862491e-18
5.75439937e+02 3.76964479e-17 1.53850721e-18 0.00000000e+00 3.61579407e-17 0.00000000e+00 1.53850722e-18
6.60693448e+02 1.93721911e-17 1.01648164e-18 0.00000000e+00 1.83557095e-17 0.00000000e+00 1.01648164e-18
7.58577575e+02 9.97878109e-18 6.71582757e-19 0.00000000e+00 9.30719833e-18 0.00000000e+00 6.71582760e-19
8.70963590e+02 5.15669179e-18 4.43710328e-19 0.00000000e+00 4.71298146e-18 0.00000000e+00 4.43710329e-19
1.00000000e+03 2.38353451e-18 0.00000000e+00 0.00000000e+00 2.38353451e-18 0.00000000e+00 0.00000000e+00
