# column 1: lambda (micron)
# column 2: total flux; lambda*F_lambda (W/m2)
# column 3: direct stellar flux; lambda*F_lambda (W/m2)
# column 4: scattered stellar flux; lambda*F_lambda (W/m2)
# column 5: total dust emission flux; lambda*F_lambda (W/m2)
# column 6: dust emission scattered flux; lambda*F_lambda (W/m2)
# column 7: transparent flux; lambda*F_lambda (W/m2)
1.00000000e-03 2.06076246e-13 2.06075710e-13 5.36119519e-19 0.00000000e+00 0.00000000e+00 2.06075710e-13
1.14815362e-03 2.43236193e-13 2.43235413e-13 7.80014644e-19 0.00000000e+00 0.00000000e+00 2.43235413e-13
1.31825674e-03 2.87096863e-13 2.87095777e-13 1.08582872e-18 0.00000000e+00 0.00000000e+00 2.87095777e-13
1.51356125e-03 3.38866970e-13 3.38865070e-13 1.90007693e-18 0.00000000e+00 0.00000000e+00 3.38865070e-13
1.73780083e-03 3.99972807e-13 3.99969435e-13 3.37168195e-18 0.00000000e+00 0.00000000e+00 3.99969435e-13
1.99526231e-03 4.72098904e-13 4.72092178e-13 6.72648823e-18 0.00000000e+00 0.00000000e+00 4.72092178e-13
2.29086765e-03 5.57228875e-13 5.57220139e-13 8.73585061e-18 0.00000000e+00 0.00000000e+00 5.57220139e-13
2.63026799e-03 6.57721606e-13 6.57698429e-13 2.31769069e-17 0.00000000e+00 0.00000000e+00 6.57698429e-13
3.01995172e-03 7.76324104e-13 7.76295028e-13 2.90760756e-17 0.00000000e+00 0.00000000e+00 7.76295028e-13
3.46736850e-03 9.16331260e-13 9.16277040e-13 5.42201486e-17 0.00000000e+00 0.00000000e+00 9.16277040e-13
3.98107171e-03 1.08157913e-12 1.08150070e-12 7.84301467e-17 0.00000000e+00 0.00000000e+00 1.08150070e-12
4.57088190e-03 1.27670545e-12 1.27651759e-12 1.87860642e-16 0.00000000e+00 0.00000000e+00 1.27651759e-12
5.24807460e-03 1.50701584e-12 1.50670006e-12 3.15782158e-16 0.00000000e+00 0.00000000e+00 1.50670006e-12
6.02559586e-03 1.77899840e-12 1.77838917e-12 6.09233625e-16 0.00000000e+00 0.00000000e+00 1.77838917e-12
6.91830971e-03 2.10000770e-12 2.09906943e-12 9.38270848e-16 0.00000000e+00 0.00000000e+00 2.09906943e-12
7.94328235e-03 2.47962455e-12 2.47757497e-12 2.04958585e-15 0.00000000e+00 0.00000000e+00 2.47757497e-12
9.12010839e-03 2.92638043e-12 2.92433286e-12 2.04757250e-15 0.00000000e+00 0.00000000e+00 2.92433286e-12
1.04712855e-02 3.26976433e-12 3.26608014e-12 3.68418859e-15 0.00000000e+00 0.00000000e+00 3.26608014e-12
1.20226443e-02 3.27067200e-12 3.26608014e-12 4.59186674e-15 0.00000000e+00 0.00000000e+00 3.26608014e-12
1.38038426e-02 3.27679291e-12 3.26608014e-12 1.07127748e-14 3.51788422e-291 7.37397061e-293 3.26608014e-12
1.58489319e-02 3.27666505e-12 3.26608014e-12 1.05849119e-14 2.20290239e-254 4.07836665e-256 3.26608014e-12
1.81970086e-02 3.28456418e-12 3.26608014e-12 1.84840388e-14 2.34738288e-222 5.59965168e-224 3.26608014e-12
2.08929613e-02 3.28900725e-12 3.26608014e-12 2.29271102e-14 1.64192395e-194 4.38017922e-196 3.26608014e-12
2.39883292e-02 3.29332310e-12 3.26608014e-12 2.72429650e-14 2.83424164e-170 9.22414482e-172 3.26608014e-12
2.75422870e-02 3.29238618e-12 3.26608014e-12 2.63060426e-14 3.48901110e-149 1.19259744e-150 3.26608014e-12
3.16227766e-02 3.30036555e-12 3.26608014e-12 3.42854173e-14 7.65056145e-131 3.00828286e-132 3.26608014e-12
3.63078055e-02 3.30066694e-12 3.26608014e-12 3.45868017e-14 6.68916393e-115 2.68662714e-116 3.26608014e-12
4.16869383e-02 3.30003724e-12 3.26608014e-12 3.39571038e-14 4.79094466e-101 2.13622534e-102 3.26608014e-12
4.78630092e-02 3.30123674e-12 3.26608014e-12 3.51566019e-14 5.17392733e-89 2.40118153e-90 3.26608014e-12
5.49540874e-02 3.30355539e-12 3.26608014e-12 3.74752493e-14 1.45256025e-78 7.26611532e-80 3.26608014e-12
6.30957344e-02 3.30530744e-12 3.26608014e-12 3.92273007e-14 2.23956448e-69 1.13063001e-70 3.26608014e-12
7.24435960e-02 3.29889685e-12 3.26608014e-12 3.28167094e-14 2.07472199e-61 9.90176924e-63 3.26608014e-12
8.31763771e-02 3.29853626e-12 3.26608014e-12 3.24561188e-14 1.32519581e-54 6.17820319e-56 3.26608014e-12
9.54992586e-02 3.29600696e-12 3.26608014e-12 2.99268213e-14 1.01495753e-48 4.69936152e-50 3.26608014e-12
1.09647820e-01 3.15377158e-12 3.11908354e-12 3.46880371e-14 1.14075706e-43 5.53620157e-45 3.11908354e-12
1.25892541e-01 2.94446621e-12 2.91089813e-12 3.35680755e-14 2.61640225e-39 1.29780786e-40 2.91089813e-12
1.44543977e-01 2.74459329e-12 2.71660820e-12 2.79850873e-14 1.45014521e-35 6.63074287e-37 2.71660820e-12
1.65958691e-01 2.56342472e-12 2.53528629e-12 2.81384337e-14 1.85234405e-32 8.88173316e-34 2.53528629e-12
1.90546072e-01 2.39488231e-12 2.36606683e-12 2.88154753e-14 6.48995665e-30 3.48495508e-31 2.36606683e-12
2.18776162e-01 2.23418317e-12 2.20814205e-12 2.60411220e-14 9.01432984e-28 4.92258899e-29 2.20814205e-12
2.51188643e-01 2.08920051e-12 2.06075806e-12 2.84424471e-14 9.61471272e-26 5.95808749e-27 2.06075806e-12
2.88403150e-01 1.94981200e-12 1.92321132e-12 2.66006798e-14 5.61968032e-24 3.47670307e-25 1.92321132e-12
3.31131121e-01 1.81857060e-12 1.79484524e-12 2.37253568e-14 1.88144289e-22 1.13518189e-23 1.79484524e-12
3.80189396e-01 1.69628467e-12 1.67504704e-12 2.12376277e-14 3.97440801e-21 2.41704416e-22 1.67504704e-12
4.36515832e-01 1.58240413e-12 1.56324485e-12 1.91592173e-14 5.64620935e-20 3.52383277e-21 1.56324485e-12
5.01187234e-01 1.47527561e-12 1.45890498e-12 1.63700667e-14 5.66416095e-19 3.78539729e-20 1.45890498e-12
5.75439937e-01 1.37615465e-12 1.36152935e-12 1.46211117e-14 4.19180659e-18 2.99874713e-19 1.36152935e-12
6.60693448e-01 1.28478642e-12 1.27065312e-12 1.41095170e-14 2.37845103e-17 1.86780035e-18 1.27065312e-12
7.58577575e-01 1.19823094e-12 1.18584249e-12 1.22800904e-14 1.08356265e-16 9.21312048e-18 1.18584249e-12
8.70963590e-01 1.11841493e-12 1.10669260e-12 1.13129179e-14 4.09407193e-16 3.62978433e-17 1.10669260e-12
1.00000000e+00 1.04354666e-12 1.03282563e-12 9.41065825e-15 1.31037393e-15 1.20054074e-16 1.03282563e-12
1.14815362e+00 9.75307025e-13 9.63888963e-13 7.73494524e-15 3.68311700e-15 3.26948781e-16 9.63888963e-13
1.31825674e+00 9.15146650e-13 8.99553520e-13 6.40991593e-15 9.18321439e-15 7.62675371e-16 8.99553520e-13
1.51356125e+00 8.64573104e-13 8.39512191e-13 4.91712338e-15 2.01437897e-14 1.48591715e-15 8.39512191e-13
1.73780083e+00 8.26010327e-13 7.83478363e-13 4.06755953e-15 3.84644041e-14 2.36657330e-15 7.83478363e-13
1.99526231e+00 7.98578894e-13 7.31184552e-13 2.99038759e-15 6.44039540e-14 3.18091216e-15 7.31184552e-13
2.29086765e+00 7.80313849e-13 6.82381128e-13 2.12583812e-15 9.58068833e-14 3.55310576e-15 6.82381128e-13
2.63026799e+00 7.67453246e-13 6.36835122e-13 1.49786107e-15 1.29120263e-13 3.47774727e-15 6.36835122e-13
3.01995172e+00 7.55405797e-13 5.94329117e-13 9.62945892e-16 1.60113735e-13 3.11409609e-15 5.94329117e-13
3.46736850e+00 7.41475817e-13 5.54660204e-13 6.80186935e-16 1.86135425e-13 2.53754478e-15 5.54660204e-13
3.98107171e+00 7.21581547e-13 5.17639021e-13 4.39723322e-16 2.03502803e-13 1.95639376e-15 5.17639021e-13
4.57088190e+00 6.95862893e-13 4.83088843e-13 2.89769719e-16 2.12484281e-13 1.40196710e-15 4.83088843e-13
5.24807460e+00 6.12170783e-13 3.99440428e-13 1.56164374e-16 2.12574190e-13 9.30592974e-16 3.99440428e-13
6.02559586e+00 4.71072339e-13 2.63907674e-13 6.76062823e-17 2.07097059e-13 5.74066578e-16 2.63907674e-13
6.70000000e+00 3.91165315e-13 1.91967457e-13 3.20654814e-17 1.99165793e-13 3.82442558e-16 1.91967457e-13
6.92422916e+00 3.69883298e-13 1.73915272e-13 2.55513052e-17 1.95942475e-13 3.27954981e-16 1.73915272e-13
7.15596261e+00 3.51725431e-13 1.57560674e-13 2.05025054e-17 1.94144255e-13 2.82985029e-16 1.57560674e-13
7.39545150e+00 3.38918199e-13 1.42744025e-13 1.65521435e-17 1.96157621e-13 2.42008931e-16 1.42744025e-13
7.64295536e+00 3.38616172e-13 1.29320701e-13 1.14859662e-17 2.09283985e-13 2.02897910e-16 1.29320701e-13
7.89874245e+00 3.57810702e-13 1.17159675e-13 7.27845608e-18 2.40643748e-13 1.63802075e-16 1.17159675e-13
8.16308998e+00 3.93848487e-13 1.06142245e-13 4.32812018e-18 2.87701914e-13 1.32180916e-16 1.06142245e-13
8.43628443e+00 4.51523106e-13 9.61608686e-14 2.51265355e-18 3.55359725e-13 1.02766573e-16 9.61608686e-14
8.71862190e+00 4.93649930e-13 8.71181185e-14 1.47495324e-18 4.06530336e-13 7.96754996e-17 8.71181185e-14
9.01040836e+00 5.42161415e-13 7.89257281e-14 9.86972408e-19 4.63234700e-13 5.74413399e-17 7.89257281e-14
9.31196005e+00 5.81986788e-13 7.15037315e-14 0.00000000e+00 5.10483056e-13 0.00000000e+00 7.15037315e-14
9.62360379e+00 5.80287922e-13 6.47796826e-14 0.00000000e+00 5.15508239e-13 0.00000000e+00 6.47796826e-14
9.94567731e+00 5.45872192e-13 5.86879481e-14 0.00000000e+00 4.87184244e-13 0.00000000e+00 5.86879481e-14
1.02785297e+01 5.03153251e-13 5.31690665e-14 0.00000000e+00 4.49984185e-13 0.00000000e+00 5.31690665e-14
1.06225216e+01 4.59899792e-13 4.81691679e-14 0.00000000e+00 4.11730624e-13 0.00000000e+00 4.81691679e-14
1.09780260e+01 4.11365964e-13 4.36394486e-14 0.00000000e+00 3.67726515e-13 0.00000000e+00 4.36394486e-14
1.13454280e+01 3.70267386e-13 3.95356937e-14 0.00000000e+00 3.30731692e-13 0.00000000e+00 3.95356937e-14
1.17251259e+01 3.35109785e-13 3.58178467e-14 0.00000000e+00 2.99291938e-13 0.00000000e+00 3.58178467e-14
1.21175312e+01 3.01335499e-13 3.24496176e-14 0.00000000e+00 2.68885881e-13 0.00000000e+00 3.24496176e-14
1.25230691e+01 2.71935342e-13 2.93981291e-14 0.00000000e+00 2.42537213e-13 0.00000000e+00 2.93981291e-14
1.29421791e+01 2.47574368e-13 2.66335956e-14 0.00000000e+00 2.20940772e-13 0.00000000e+00 2.66335956e-14
1.33753155e+01 2.25911629e-13 2.41290327e-14 0.00000000e+00 2.01782596e-13 0.00000000e+00 2.41290327e-14
1.38229477e+01 2.11668642e-13 2.18599931e-14 0.00000000e+00 1.89808648e-13 0.00000000e+00 2.18599931e-14
1.42855609e+01 2.03717998e-13 1.98043289e-14 0.00000000e+00 1.83913669e-13 0.00000000e+00 1.98043289e-14
1.47636563e+01 2.05992095e-13 1.79419747e-14 0.00000000e+00 1.88050121e-13 0.00000000e+00 1.79419747e-14
1.52577522e+01 2.10885512e-13 1.62547521e-14 0.00000000e+00 1.94630759e-13 0.00000000e+00 1.62547521e-14
1.57683840e+01 2.18268345e-13 1.47261920e-14 0.00000000e+00 2.03542153e-13 0.00000000e+00 1.47261920e-14
1.62961051e+01 2.25073668e-13 1.33413743e-14 0.00000000e+00 2.11732293e-13 0.00000000e+00 1.33413743e-14
1.68414875e+01 2.33342452e-13 1.20867817e-14 0.00000000e+00 2.21255670e-13 0.00000000e+00 1.20867817e-14
1.74051222e+01 2.37971409e-13 1.09501681e-14 0.00000000e+00 2.27021241e-13 0.00000000e+00 1.09501681e-14
1.79876201e+01 2.40462659e-13 9.92043915e-15 0.00000000e+00 2.30542220e-13 0.00000000e+00 9.92043915e-15
1.85896125e+01 2.39066690e-13 8.98754353e-15 0.00000000e+00 2.30079147e-13 0.00000000e+00 8.98754353e-15
1.92117518e+01 2.33124460e-13 8.14237531e-15 0.00000000e+00 2.24982085e-13 0.00000000e+00 8.14237531e-15
1.98547123e+01 2.24972036e-13 7.37668479e-15 0.00000000e+00 2.17595351e-13 0.00000000e+00 7.37668479e-15
2.05191907e+01 2.16287536e-13 6.68299807e-15 0.00000000e+00 2.09604538e-13 0.00000000e+00 6.68299807e-15
2.12059073e+01 2.08322289e-13 6.05454408e-15 0.00000000e+00 2.02267745e-13 0.00000000e+00 6.05454408e-15
2.19156062e+01 2.00871709e-13 5.48518847e-15 0.00000000e+00 1.95386520e-13 0.00000000e+00 5.48518847e-15
2.26490567e+01 1.94654771e-13 4.96937378e-15 0.00000000e+00 1.89685397e-13 0.00000000e+00 4.96937378e-15
2.34070535e+01 1.88314135e-13 4.50206513e-15 0.00000000e+00 1.83812070e-13 0.00000000e+00 4.50206513e-15
2.41904183e+01 1.83053264e-13 4.07870113e-15 0.00000000e+00 1.78974563e-13 0.00000000e+00 4.07870113e-15
2.50000000e+01 1.78071368e-13 3.69514932e-15 0.00000000e+00 1.74376219e-13 0.00000000e+00 3.69514932e-15
2.75422870e+01 1.63954109e-13 2.76345259e-15 0.00000000e+00 1.61190657e-13 0.00000000e+00 2.76345259e-15
3.16227766e+01 1.45353946e-13 1.82579502e-15 0.00000000e+00 1.43528151e-13 0.00000000e+00 1.82579502e-15
3.63078055e+01 1.25198436e-13 1.20629081e-15 0.00000000e+00 1.23992145e-13 0.00000000e+00 1.20629081e-15
4.16869383e+01 1.02793907e-13 7.96988434e-16 0.00000000e+00 1.01996918e-13 0.00000000e+00 7.96988434e-16
4.78630092e+01 8.02959020e-14 5.26565037e-16 0.00000000e+00 7.97693370e-14 0.00000000e+00 5.26565037e-16
5.49540874e+01 5.96651622e-14 3.47898070e-16 0.00000000e+00 5.93172641e-14 0.00000000e+00 3.47898070e-16
6.30957344e+01 4.23072478e-14 2.29853975e-16 0.00000000e+00 4.20773939e-14 0.00000000e+00 2.29853975e-16
7.24435960e+01 2.87232592e-14 1.51863015e-16 0.00000000e+00 2.85713962e-14 0.00000000e+00 1.51863015e-16
8.31763771e+01 1.87719922e-14 1.00334899e-16 0.00000000e+00 1.86716573e-14 0.00000000e+00 1.00334899e-16
9.54992586e+01 1.18746287e-14 6.62906105e-17 0.00000000e+00 1.18083381e-14 0.00000000e+00 6.62906105e-17
1.09647820e+02 7.29843053e-15 4.37977720e-17 0.00000000e+00 7.25463276e-15 0.00000000e+00 4.37977720e-17
1.25892541e+02 4.42265171e-15 2.89369010e-17 0.00000000e+00 4.39371481e-15 0.00000000e+00 2.89369010e-17
1.44543977e+02 2.63172396e-15 1.91184209e-17 0.00000000e+00 2.61260554e-15 0.00000000e+00 1.91184209e-17
1.65958691e+02 1.48056630e-15 1.26314154e-17 0.00000000e+00 1.46793488e-15 0.00000000e+00 1.26314154e-17
1.90546072e+02 8.25021249e-16 8.34549342e-18 0.00000000e+00 8.16675756e-16 0.00000000e+00 8.34549342e-18
2.18776162e+02 4.55127930e-16 5.51381282e-18 0.00000000e+00 4.49614117e-16 0.00000000e+00 5.51381282e-18
2.51188643e+02 2.48472421e-16 3.64294000e-18 0.00000000e+00 2.44829481e-16 0.00000000e+00 3.64294000e-18
2.88403150e+02 1.34227493e-16 2.40686659e-18 0.00000000e+00 1.31820627e-16 0.00000000e+00 2.40686659e-18
3.31131121e+02 7.19840227e-17 1.59020099e-18 0.00000000e+00 7.03938217e-17 0.00000000e+00 1.59020099e-18
3.80189396e+02 3.83201737e-17 1.05063537e-18 0.00000000e+00 3.72695384e-17 0.00000000e+00 1.05063537e-18
4.36515832e+02 2.02966454e-17 6.94147908e-19 0.00000000e+00 1.96024975e-17 0.00000000e+00 6.94147908e-19
5.01187234e+02 1.07049764e-17 4.58618975e-19 0.00000000e+00 1.02463575e-17 0.00000000e+00 4.58618975e-19
5.75439937e+02 5.63084343e-18 3.03006552e-19 0.00000000e+00 5.32783688e-18 0.00000000e+00 3.03006552e-19
6.60693448e+02 2.95816313e-18 2.00194443e-19 0.00000000e+00 2.75796869e-18 0.00000000e+00 2.00194443e-19
7.58577575e+02 1.55438506e-18 1.32267157e-19 0.00000000e+00 1.42211790e-18 0.00000000e+00 1.32267157e-19
8.70963590e+02 8.18051300e-19 8.73880441e-20 0.00000000e+00 7.30663256e-19 0.00000000e+00 8.73880441e-20
1.00000000e+03 3.74195939e-19 0.00000000e+00 0.00000000e+00 3.74195939e-19 0.00000000e+00 0.00000000e+00
