# column 1: lambda (micron)
# column 2: total flux; lambda*F_lambda (W/m2)
# column 3: direct stellar flux; lambda*F_lambda (W/m2)
# column 4: scattered stellar flux; lambda*F_lambda (W/m2)
# column 5: total dust emission flux; lambda*F_lambda (W/m2)
# column 6: dust emission scattered flux; lambda*F_lambda (W/m2)
# column 7: transparent flux; lambda*F_lambda (W/m2)
1.00000000e-03 1.07329013e-12 1.07329009e-12 4.69015123e-20 0.00000000e+00 0.00000000e+00 1.07335627e-12
1.14815362e-03 1.26680142e-12 1.26680135e-12 7.14801831e-20 0.00000000e+00 0.00000000e+00 1.26690456e-12
1.31825674e-03 1.49519882e-12 1.49519871e-12 1.14470454e-19 0.00000000e+00 0.00000000e+00 1.49535359e-12
1.51356125e-03 1.76478136e-12 1.76478118e-12 1.82698788e-19 0.00000000e+00 0.00000000e+00 1.76499670e-12
1.73780083e-03 2.08300533e-12 2.08300501e-12 3.23189675e-19 0.00000000e+00 0.00000000e+00 2.08326203e-12
1.99526231e-03 2.45851557e-12 2.45851496e-12 6.08076021e-19 0.00000000e+00 0.00000000e+00 2.45891716e-12
2.29086765e-03 2.90180815e-12 2.90180726e-12 8.82996296e-19 0.00000000e+00 0.00000000e+00 2.90231066e-12
2.63026799e-03 3.42494700e-12 3.42494515e-12 1.85660793e-18 0.00000000e+00 0.00000000e+00 3.42565717e-12
3.01995172e-03 4.04233753e-12 4.04233446e-12 3.07156788e-18 0.00000000e+00 0.00000000e+00 4.04337385e-12
3.46736850e-03 4.77103654e-12 4.77103162e-12 4.91319378e-18 0.00000000e+00 0.00000000e+00 4.77247759e-12
3.98107171e-03 5.63110832e-12 5.63110023e-12 8.09310184e-18 0.00000000e+00 0.00000000e+00 5.63305378e-12
4.57088190e-03 6.64729010e-12 6.64727144e-12 1.86639377e-17 0.00000000e+00 0.00000000e+00 6.64880962e-12
5.24807460e-03 7.84544220e-12 7.84540839e-12 3.38113922e-17 0.00000000e+00 0.00000000e+00 7.84772720e-12
6.02559586e-03 9.25959494e-12 9.25953440e-12 6.05423528e-17 0.00000000e+00 0.00000000e+00 9.26283435e-12
6.91830971e-03 1.09287141e-11 1.09286193e-11 9.47754132e-17 0.00000000e+00 0.00000000e+00 1.09331145e-11
7.94328235e-03 1.28988238e-11 1.28986613e-11 1.62498302e-16 3.95539243e-304 3.80202944e-307 1.29045807e-11
9.12010839e-03 1.52240418e-11 1.52237899e-11 2.51866004e-16 1.74722306e-265 1.09412949e-268 1.52315429e-11
1.04712855e-02 1.70026943e-11 1.70023399e-11 3.54368635e-16 7.43508849e-232 4.86554645e-235 1.70115517e-11
1.20226443e-02 1.70023341e-11 1.70017964e-11 5.37689553e-16 1.17128003e-202 1.03569080e-205 1.70115517e-11
1.38038426e-02 1.70019000e-11 1.70011517e-11 7.48233268e-16 3.20755605e-177 4.28827658e-180 1.70115517e-11
1.58489319e-02 1.70013862e-11 1.70003596e-11 1.02661269e-15 4.35857130e-155 8.80706925e-158 1.70115517e-11
1.81970086e-02 1.70010780e-11 1.69996290e-11 1.44905643e-15 7.80450374e-136 2.09384084e-138 1.70115517e-11
2.08929613e-02 1.70009912e-11 1.69990217e-11 1.96952801e-15 4.08931284e-119 1.46109211e-121 1.70115517e-11
2.39883292e-02 1.70008475e-11 1.69982349e-11 2.61258703e-15 1.43891679e-104 7.24528549e-107 1.70115517e-11
2.75422870e-02 1.70007425e-11 1.69973198e-11 3.42277112e-15 6.45699389e-92 4.44762252e-94 1.70115517e-11
3.16227766e-02 1.70011926e-11 1.69964228e-11 4.76984189e-15 6.30699034e-81 5.37630244e-83 1.70115517e-11
3.63078055e-02 1.70014728e-11 1.69957193e-11 5.75347486e-15 2.19034009e-71 2.15669704e-73 1.70115517e-11
4.16869383e-02 1.70027204e-11 1.69951108e-11 7.60958016e-15 4.16963403e-63 5.76813433e-65 1.70115517e-11
4.78630092e-02 1.70051237e-11 1.69934338e-11 1.16899637e-14 6.31173350e-56 1.24199888e-57 1.70115517e-11
5.49540874e-02 1.70066215e-11 1.69911017e-11 1.55197582e-14 1.05198715e-49 2.73126628e-51 1.70115517e-11
6.30957344e-02 1.70055585e-11 1.69852556e-11 2.03029522e-14 3.41669051e-44 1.16075386e-45 1.70115517e-11
7.24435960e-02 1.69993519e-11 1.69783334e-11 2.10185330e-14 1.99197465e-39 7.17146450e-41 1.70115517e-11
8.31763771e-02 1.69996545e-11 1.69789492e-11 2.07052564e-14 2.04185288e-35 7.37247706e-37 1.70115517e-11
9.54992586e-02 1.70033201e-11 1.69807556e-11 2.25644388e-14 5.74824681e-32 2.12477217e-33 1.70115517e-11
1.09647820e-01 1.62434892e-11 1.62214760e-11 2.20131589e-14 4.85997800e-29 1.87141482e-30 1.62459122e-11
1.25892541e-01 1.51619888e-11 1.51427928e-11 1.91960688e-14 1.56708833e-26 5.36436675e-28 1.51615674e-11
1.44543977e-01 1.41511597e-11 1.41350737e-11 1.60860235e-14 2.12968070e-24 6.81980386e-26 1.41495980e-11
1.65958691e-01 1.32104403e-11 1.31933180e-11 1.71222624e-14 1.07486972e-22 3.72278177e-24 1.32051732e-11
1.90546072e-01 1.23308965e-11 1.23119815e-11 1.89149612e-14 2.26245604e-21 9.96105173e-23 1.23237846e-11
2.18776162e-01 1.15105782e-11 1.14883048e-11 2.22734109e-14 2.69105017e-20 1.35515959e-21 1.15012250e-11
2.51188643e-01 1.07493999e-11 1.07239235e-11 2.54761227e-14 3.23803131e-19 1.94052071e-20 1.07335677e-11
2.88403150e-01 1.00316665e-11 1.00096751e-11 2.19887257e-14 2.68768452e-18 1.53542713e-19 1.00171482e-11
3.31131121e-01 9.36247327e-12 9.34246668e-12 1.99912055e-14 1.53879224e-17 8.41260476e-19 9.34854667e-12
3.80189396e-01 8.73709120e-12 8.71958839e-12 1.74387814e-14 6.40214484e-17 3.32459139e-18 8.72457139e-12
4.36515832e-01 8.15525541e-12 8.13819631e-12 1.68566296e-14 2.02473080e-16 1.04303338e-17 8.14224377e-12
5.01187234e-01 7.61181270e-12 7.59554093e-12 1.57666212e-14 5.05144346e-16 2.61092502e-17 7.59878402e-12
5.75439937e-01 7.10434332e-12 7.08902609e-12 1.42795904e-14 1.03763966e-15 5.40387455e-17 7.09159786e-12
6.60693448e-01 6.63168195e-12 6.61624242e-12 1.36222976e-14 1.81722483e-15 9.52919611e-17 6.61826421e-12
7.58577575e-01 6.19039183e-12 6.17495344e-12 1.26063879e-14 2.83200015e-15 1.45867677e-16 6.17652353e-12
8.70963590e-01 5.77859167e-12 5.76307484e-12 1.14479522e-14 4.06887505e-15 2.14355633e-16 5.76426715e-12
1.00000000e+00 5.39419064e-12 5.37863631e-12 9.99069830e-15 5.56363053e-15 2.96611261e-16 5.37952711e-12
1.14815362e+00 5.03650296e-12 5.01981310e-12 8.86470892e-15 7.82515191e-15 4.39624528e-16 5.02046681e-12
1.31825674e+00 4.70434591e-12 4.68490085e-12 7.51067264e-15 1.19343807e-14 7.20442154e-16 4.68537225e-12
1.51356125e+00 4.39765923e-12 4.37230731e-12 5.63554097e-15 1.97163792e-14 1.21694434e-15 4.37264380e-12
1.73780083e+00 4.11838650e-12 4.08055235e-12 4.64048624e-15 3.31936677e-14 1.91318841e-15 4.08078863e-12
1.99526231e+00 3.86563352e-12 3.80825022e-12 3.45073003e-15 5.39325646e-14 2.65679384e-15 3.80841354e-12
2.29086765e+00 3.63830775e-12 3.55410578e-12 2.39765641e-15 8.18043061e-14 3.18861498e-15 3.55421832e-12
2.63026799e+00 3.43318961e-12 3.31691126e-12 1.72771589e-15 1.14550635e-13 3.38623745e-15 3.31698953e-12
3.01995172e+00 3.24474247e-12 3.09553961e-12 1.15154572e-15 1.48051314e-13 3.19113261e-15 3.09559474e-12
3.46736850e+00 3.06768602e-12 2.88893763e-12 7.73266142e-16 1.77975122e-13 2.73837357e-15 2.88897711e-12
3.98107171e+00 2.89641374e-12 2.69612169e-12 5.16373686e-16 1.99775682e-13 2.16223751e-15 2.69615031e-12
4.57088190e+00 2.72785460e-12 2.51617284e-12 3.15076907e-16 2.11366689e-13 1.54216384e-15 2.51619387e-12
5.24807460e+00 2.29377604e-12 2.08049270e-12 1.72685953e-16 2.13110659e-13 1.03709020e-15 2.08050667e-12
6.02559586e+00 1.58225950e-12 1.37456945e-12 7.34758568e-17 2.07616572e-13 6.45648269e-16 1.37457712e-12
6.70000000e+00 1.19930138e-12 9.99867745e-13 3.62448588e-17 1.99397386e-13 4.18030886e-16 9.99872685e-13
6.92422916e+00 1.10211438e-12 9.05842605e-13 2.86340319e-17 1.96243144e-13 3.63915699e-16 9.05846924e-13
7.15596261e+00 1.01507064e-12 8.20659288e-13 2.37441410e-17 1.94387604e-13 3.11150965e-16 8.20663132e-13
7.39545150e+00 9.40089756e-13 7.43486265e-13 1.71383036e-17 1.96586353e-13 2.68448285e-16 7.43489831e-13
7.64295536e+00 8.83567233e-13 6.73570052e-13 1.27741334e-17 2.09984407e-13 2.24884735e-16 6.73573732e-13
7.89874245e+00 8.52848858e-13 6.10228077e-13 8.24647411e-18 2.42612535e-13 1.86964401e-16 6.10232385e-13
8.16308998e+00 8.44714533e-13 5.52842245e-13 5.05998326e-18 2.91867228e-13 1.53738032e-16 5.52847515e-13
8.43628443e+00 8.62690742e-13 5.00852354e-13 2.79844724e-18 3.61835589e-13 1.21337874e-16 5.00858987e-13
8.71862190e+00 8.70769983e-13 4.53751959e-13 1.81139338e-18 4.17016213e-13 9.42018010e-17 4.53759343e-13
9.01040836e+00 8.86830329e-13 4.11080739e-13 1.10865803e-18 4.75748481e-13 6.92191248e-17 4.11088843e-13
9.31196005e+00 8.99297617e-13 3.72422465e-13 0.00000000e+00 5.26875153e-13 0.00000000e+00 3.72430980e-13
9.62360379e+00 8.71408160e-13 3.37400497e-13 0.00000000e+00 5.34007663e-13 0.00000000e+00 3.37408415e-13
9.94567731e+00 8.11981695e-13 3.05672561e-13 0.00000000e+00 5.06309134e-13 0.00000000e+00 3.05679292e-13
1.02785297e+01 7.43060761e-13 2.76928388e-13 0.00000000e+00 4.66132373e-13 0.00000000e+00 2.76933904e-13
1.06225216e+01 6.79126451e-13 2.50887195e-13 0.00000000e+00 4.28239256e-13 0.00000000e+00 2.50891667e-13
1.09780260e+01 6.09144188e-13 2.27294888e-13 0.00000000e+00 3.81849300e-13 0.00000000e+00 2.27298384e-13
1.13454280e+01 5.47538750e-13 2.05921016e-13 0.00000000e+00 3.41617735e-13 0.00000000e+00 2.05923759e-13
1.17251259e+01 4.94446860e-13 1.86556989e-13 0.00000000e+00 3.07889871e-13 0.00000000e+00 1.86559155e-13
1.21175312e+01 4.45524800e-13 1.69013853e-13 0.00000000e+00 2.76510947e-13 0.00000000e+00 1.69015555e-13
1.25230691e+01 4.01827751e-13 1.53120382e-13 0.00000000e+00 2.48707369e-13 0.00000000e+00 1.53121715e-13
1.29421791e+01 3.63647097e-13 1.38721444e-13 0.00000000e+00 2.24925653e-13 0.00000000e+00 1.38722496e-13
1.33753155e+01 3.30326999e-13 1.25676511e-13 0.00000000e+00 2.04650488e-13 0.00000000e+00 1.25677347e-13
1.38229477e+01 3.06196990e-13 1.13858239e-13 0.00000000e+00 1.92338751e-13 0.00000000e+00 1.13858934e-13
1.42855609e+01 2.88942355e-13 1.03151294e-13 0.00000000e+00 1.85791061e-13 0.00000000e+00 1.03151898e-13
1.47636563e+01 2.84053358e-13 9.34511540e-14 0.00000000e+00 1.90602204e-13 0.00000000e+00 9.34517274e-14
1.52577522e+01 2.82415678e-13 8.46631847e-14 0.00000000e+00 1.97752493e-13 0.00000000e+00 8.46637387e-14
1.57683840e+01 2.83793894e-13 7.67016104e-14 0.00000000e+00 2.07092283e-13 0.00000000e+00 7.67021526e-14
1.62961051e+01 2.86233240e-13 6.94887261e-14 0.00000000e+00 2.16744513e-13 0.00000000e+00 6.94892560e-14
1.68414875e+01 2.90353670e-13 6.29541270e-14 0.00000000e+00 2.27399543e-13 0.00000000e+00 6.29546439e-14
1.74051222e+01 2.91220311e-13 5.70340410e-14 0.00000000e+00 2.34186270e-13 0.00000000e+00 5.70345319e-14
1.79876201e+01 2.90420207e-13 5.16706755e-14 0.00000000e+00 2.38749532e-13 0.00000000e+00 5.16711337e-14
1.85896125e+01 2.84503175e-13 4.68116828e-14 0.00000000e+00 2.37691492e-13 0.00000000e+00 4.68120974e-14
1.92117518e+01 2.74831725e-13 4.24096297e-14 0.00000000e+00 2.32422095e-13 0.00000000e+00 4.24099939e-14
1.98547123e+01 2.62738784e-13 3.84215405e-14 0.00000000e+00 2.24317243e-13 0.00000000e+00 3.84218542e-14
2.05191907e+01 2.50234335e-13 3.48084827e-14 0.00000000e+00 2.15425852e-13 0.00000000e+00 3.48087501e-14
2.12059073e+01 2.38295264e-13 3.15351862e-14 0.00000000e+00 2.06760078e-13 0.00000000e+00 3.15354141e-14
2.19156062e+01 2.28135569e-13 2.85697000e-14 0.00000000e+00 1.99565869e-13 0.00000000e+00 2.85698952e-14
2.26490567e+01 2.18375884e-13 2.58830795e-14 0.00000000e+00 1.92492805e-13 0.00000000e+00 2.58832470e-14
2.34070535e+01 2.09738808e-13 2.34491012e-14 0.00000000e+00 1.86289706e-13 0.00000000e+00 2.34492452e-14
2.41904183e+01 2.01472214e-13 2.12440072e-14 0.00000000e+00 1.80228206e-13 0.00000000e+00 2.12441313e-14
2.50000000e+01 1.93781653e-13 1.92462742e-14 0.00000000e+00 1.74535379e-13 0.00000000e+00 1.92463813e-14
2.75422870e+01 1.73733303e-13 1.43935196e-14 0.00000000e+00 1.59339783e-13 0.00000000e+00 1.43935895e-14
3.16227766e+01 1.47733252e-13 9.50971188e-15 0.00000000e+00 1.38223540e-13 0.00000000e+00 9.50975027e-15
3.63078055e+01 1.21614861e-13 6.28300872e-15 0.00000000e+00 1.15331852e-13 0.00000000e+00 6.28302969e-15
4.16869383e+01 9.54499954e-14 4.15114539e-15 0.00000000e+00 9.12988500e-14 0.00000000e+00 4.15115655e-15
4.78630092e+01 7.08916632e-14 2.74263618e-15 0.00000000e+00 6.81490270e-14 0.00000000e+00 2.74264194e-15
5.49540874e+01 5.00052280e-14 1.81204265e-15 0.00000000e+00 4.81931854e-14 0.00000000e+00 1.81204556e-15
6.30957344e+01 3.37301591e-14 1.19720518e-15 0.00000000e+00 3.25329539e-14 0.00000000e+00 1.19720663e-15
7.24435960e+01 2.18752453e-14 7.90985859e-16 0.00000000e+00 2.10842594e-14 0.00000000e+00 7.90986575e-16
8.31763771e+01 1.37140512e-14 5.22599294e-16 0.00000000e+00 1.31914519e-14 0.00000000e+00 5.22599647e-16
9.54992586e+01 8.36981658e-15 3.45277988e-16 0.00000000e+00 8.02453859e-15 0.00000000e+00 3.45278163e-16
1.09647820e+02 4.99355677e-15 2.28122933e-16 0.00000000e+00 4.76543384e-15 0.00000000e+00 2.28123020e-16
1.25892541e+02 2.95299741e-15 1.50719341e-16 0.00000000e+00 2.80227807e-15 0.00000000e+00 1.50719385e-16
1.44543977e+02 1.72468472e-15 9.95792877e-17 0.00000000e+00 1.62510543e-15 0.00000000e+00 9.95793099e-17
1.65958691e+02 9.58544319e-16 6.57913867e-17 0.00000000e+00 8.92752933e-16 0.00000000e+00 6.57913976e-17
1.90546072e+02 5.30900871e-16 4.34679399e-17 0.00000000e+00 4.87432931e-16 0.00000000e+00 4.34679453e-17
2.18776162e+02 2.92806364e-16 2.87189840e-17 0.00000000e+00 2.64087380e-16 0.00000000e+00 2.87189867e-17
2.51188643e+02 1.60830761e-16 1.89744450e-17 0.00000000e+00 1.41856316e-16 0.00000000e+00 1.89744463e-17
2.88403150e+02 8.80423790e-17 1.25362917e-17 0.00000000e+00 7.55060873e-17 0.00000000e+00 1.25362924e-17
3.31131121e+02 4.82086054e-17 8.28264590e-18 0.00000000e+00 3.99259595e-17 0.00000000e+00 8.28264623e-18
3.80189396e+02 2.64339477e-17 5.47228993e-18 0.00000000e+00 2.09616578e-17 0.00000000e+00 5.47229010e-18
4.36515832e+02 1.45622726e-17 3.61550613e-18 0.00000000e+00 1.09467665e-17 0.00000000e+00 3.61550621e-18
5.01187234e+02 8.07582819e-18 2.38874122e-18 0.00000000e+00 5.68708697e-18 0.00000000e+00 2.38874127e-18
5.75439937e+02 4.51998419e-18 1.57822568e-18 0.00000000e+00 2.94175850e-18 0.00000000e+00 1.57822570e-18
6.60693448e+02 2.55872521e-18 1.04272337e-18 0.00000000e+00 1.51600184e-18 0.00000000e+00 1.04272338e-18
7.58577575e+02 1.46763503e-18 6.88920501e-19 0.00000000e+00 7.78714527e-19 0.00000000e+00 6.88920507e-19
8.70963590e+02 8.53940289e-19 4.55165262e-19 0.00000000e+00 3.98775027e-19 0.00000000e+00 4.55165265e-19
1.00000000e+03 2.03645679e-19 0.00000000e+00 0.00000000e+00 2.03645679e-19 0.00000000e+00 0.00000000e+00
