# column 1: lambda (micron)
# column 2: total flux; lambda*F_lambda (W/m2)
# column 3: direct stellar flux; lambda*F_lambda (W/m2)
# column 4: scattered stellar flux; lambda*F_lambda (W/m2)
# column 5: total dust emission flux; lambda*F_lambda (W/m2)
# column 6: dust emission scattered flux; lambda*F_lambda (W/m2)
# column 7: transparent flux; lambda*F_lambda (W/m2)
1.00000000e-03 5.25636821e-13 5.25636674e-13 1.47424794e-19 0.00000000e+00 0.00000000e+00 5.25636674e-13
1.14815362e-03 6.20420047e-13 6.20419813e-13 2.34544912e-19 0.00000000e+00 0.00000000e+00 6.20419813e-13
1.31825674e-03 7.32294703e-13 7.32294308e-13 3.95518930e-19 0.00000000e+00 0.00000000e+00 7.32294308e-13
1.51356125e-03 8.64342698e-13 8.64342083e-13 6.15291854e-19 0.00000000e+00 0.00000000e+00 8.64342083e-13
1.73780083e-03 1.02020182e-12 1.02020080e-12 1.02465500e-18 0.00000000e+00 0.00000000e+00 1.02020080e-12
1.99526231e-03 1.20416606e-12 1.20416405e-12 2.00484814e-18 0.00000000e+00 0.00000000e+00 1.20416405e-12
2.29086765e-03 1.42130297e-12 1.42129968e-12 3.29239884e-18 0.00000000e+00 0.00000000e+00 1.42129968e-12
2.63026799e-03 1.67759560e-12 1.67758934e-12 6.26108836e-18 0.00000000e+00 0.00000000e+00 1.67758934e-12
3.01995172e-03 1.98010341e-12 1.98009332e-12 1.00879613e-17 0.00000000e+00 0.00000000e+00 1.98009332e-12
3.46736850e-03 2.33716391e-12 2.33714500e-12 1.89062615e-17 0.00000000e+00 0.00000000e+00 2.33714500e-12
3.98107171e-03 2.75861023e-12 2.75858048e-12 2.97493464e-17 0.00000000e+00 0.00000000e+00 2.75858048e-12
4.57088190e-03 3.25607577e-12 3.25600946e-12 6.63030604e-17 0.00000000e+00 0.00000000e+00 3.25600946e-12
5.24807460e-03 3.84331358e-12 3.84313516e-12 1.78420798e-16 0.00000000e+00 0.00000000e+00 3.84313516e-12
6.02559586e-03 4.53633455e-12 4.53613173e-12 2.02821107e-16 0.00000000e+00 0.00000000e+00 4.53613173e-12
6.91830971e-03 5.35484983e-12 5.35408989e-12 7.59941234e-16 0.00000000e+00 0.00000000e+00 5.35408989e-12
7.94328235e-03 6.32007877e-12 6.31954278e-12 5.35990345e-16 0.00000000e+00 0.00000000e+00 6.31954278e-12
9.12010839e-03 7.45993736e-12 7.45908676e-12 8.50604493e-16 0.00000000e+00 0.00000000e+00 7.45908676e-12
1.04712855e-02 8.33211545e-12 8.33078048e-12 1.33497923e-15 0.00000000e+00 0.00000000e+00 8.33078048e-12
1.20226443e-02 8.33273170e-12 8.33078048e-12 1.95122928e-15 0.00000000e+00 0.00000000e+00 8.33078048e-12
1.38038426e-02 8.33337100e-12 8.33078048e-12 2.59052535e-15 1.93800463e-289 1.27603487e-291 8.33078048e-12
1.58489319e-02 8.34140242e-12 8.33078048e-12 1.06219426e-14 9.21512848e-253 9.37250918e-255 8.33078048e-12
1.81970086e-02 8.33593819e-12 8.33078048e-12 5.15771552e-15 7.71182556e-221 1.10248634e-222 8.33078048e-12
2.08929613e-02 8.33953219e-12 8.33078048e-12 8.75171067e-15 4.38462123e-193 6.87919914e-195 8.33078048e-12
2.39883292e-02 8.34028297e-12 8.33078048e-12 9.50249165e-15 6.33783255e-169 1.20666864e-170 8.33078048e-12
2.75422870e-02 8.34517075e-12 8.33078048e-12 1.43902787e-14 6.75638301e-148 1.71523552e-149 8.33078048e-12
3.16227766e-02 8.34780828e-12 8.33078048e-12 1.70278024e-14 1.30303041e-129 3.87548919e-131 8.33078048e-12
3.63078055e-02 8.35020637e-12 8.33078048e-12 1.94258974e-14 1.02456639e-113 3.32596520e-115 8.33078048e-12
4.16869383e-02 8.35895541e-12 8.33078048e-12 2.81749339e-14 6.72483100e-100 2.83446529e-101 8.33078048e-12
4.78630092e-02 8.36397260e-12 8.33078048e-12 3.31921226e-14 6.78202350e-88 3.66333270e-89 8.33078048e-12
5.49540874e-02 8.37200581e-12 8.33078048e-12 4.12253297e-14 1.79154850e-77 1.13112680e-78 8.33078048e-12
6.30957344e-02 8.38089915e-12 8.33078048e-12 5.01186729e-14 2.63811326e-68 1.97442460e-69 8.33078048e-12
7.24435960e-02 8.37980869e-12 8.33078048e-12 4.90282135e-14 2.33261491e-60 1.71641525e-61 8.33078048e-12
8.31763771e-02 8.37705467e-12 8.33078048e-12 4.62741897e-14 1.42807027e-53 1.04716930e-54 8.33078048e-12
9.54992586e-02 8.37759967e-12 8.33078048e-12 4.68191967e-14 1.05394145e-47 7.81364872e-49 8.33078048e-12
1.09647820e-01 8.00614491e-12 7.95583672e-12 5.03081893e-14 1.14983000e-42 8.88253749e-44 7.95583672e-12
1.25892541e-01 7.46829332e-12 7.42481883e-12 4.34744825e-14 2.54705224e-38 1.83501767e-39 7.42481883e-12
1.44543977e-01 6.96717839e-12 6.92924411e-12 3.79342833e-14 1.37850867e-34 9.39250438e-36 6.92924411e-12
1.65958691e-01 6.50489770e-12 6.46674687e-12 3.81508323e-14 1.72867959e-31 1.25937803e-32 6.46674687e-12
1.90546072e-01 6.07760893e-12 6.03511933e-12 4.24896057e-14 5.98057195e-29 5.12065372e-30 6.03511933e-12
2.18776162e-01 5.67413527e-12 5.63230107e-12 4.18342065e-14 8.17637373e-27 7.50287039e-28 5.63230107e-12
2.51188643e-01 5.30339191e-12 5.25636919e-12 4.70227178e-14 8.58077767e-25 9.09910778e-26 5.25636919e-12
2.88403150e-01 4.94574148e-12 4.90552916e-12 4.02123197e-14 4.85644440e-23 5.02331222e-24 4.90552916e-12
3.31131121e-01 4.61466593e-12 4.57810618e-12 3.65597442e-14 1.56973338e-21 1.60407115e-22 4.57810618e-12
3.80189396e-01 4.30621236e-12 4.27253728e-12 3.36750466e-14 3.17519495e-20 3.21918189e-21 4.27253728e-12
4.36515832e-01 4.01837206e-12 3.98736380e-12 3.10078316e-14 4.30788347e-19 4.43917377e-20 3.98736380e-12
5.01187234e-01 3.74970880e-12 3.72122441e-12 2.84803053e-14 4.08560269e-18 4.21965764e-19 3.72122441e-12
5.75439937e-01 3.49697795e-12 3.47284869e-12 2.41009252e-14 2.83343197e-17 2.96786926e-18 3.47284869e-12
6.60693448e-01 3.26373964e-12 3.24105097e-12 2.25401729e-14 1.48498823e-16 1.57739032e-17 3.24105097e-12
7.58577575e-01 3.04522756e-12 3.02472476e-12 1.98870834e-14 6.15716212e-16 6.55116877e-17 3.02472476e-12
8.70963590e-01 2.84281355e-12 2.82283739e-12 1.78868930e-14 2.08926451e-15 2.18520604e-16 2.82283739e-12
1.00000000e+00 2.65572923e-12 2.63442513e-12 1.53838412e-14 5.92024895e-15 5.98909450e-16 2.63442513e-12
1.14815362e+00 2.48574477e-12 2.45858859e-12 1.24761770e-14 1.46800083e-14 1.39519490e-15 2.45858859e-12
1.31825674e+00 2.33670661e-12 2.29448837e-12 9.91098375e-15 3.23072540e-14 2.76374123e-15 2.29448837e-12
1.51356125e+00 2.21184062e-12 2.14134114e-12 7.53532442e-15 6.29641486e-14 4.71867093e-15 2.14134114e-12
1.73780083e+00 2.11254367e-12 1.99841583e-12 5.77210958e-15 1.08355732e-13 6.85881165e-15 1.99841583e-12
1.99526231e+00 2.03451642e-12 1.86503017e-12 4.07918273e-15 1.65407073e-13 8.36159914e-15 1.86503017e-12
2.29086765e+00 1.97031697e-12 1.74054743e-12 2.82845533e-15 2.26941089e-13 8.79682108e-15 1.74054743e-12
2.63026799e+00 1.91005775e-12 1.62437337e-12 2.06191966e-15 2.83622456e-13 8.15602557e-15 1.62437337e-12
3.01995172e+00 1.84473642e-12 1.51595343e-12 1.36778757e-15 3.27415197e-13 6.88363791e-15 1.51595343e-12
3.46736850e+00 1.76915760e-12 1.41477006e-12 9.00249215e-16 3.53487290e-13 5.38206756e-15 1.41477006e-12
3.98107171e+00 1.68110029e-12 1.32034025e-12 6.15047723e-16 3.60144993e-13 3.91955140e-15 1.32034025e-12
4.57088190e+00 1.58110258e-12 1.23221321e-12 3.78534827e-16 3.48510832e-13 2.61321302e-15 1.23221321e-12
5.24807460e+00 1.34353249e-12 1.01885146e-12 2.15137255e-16 3.24465889e-13 1.64097976e-15 1.01885146e-12
6.02559586e+00 9.68391432e-13 6.73148485e-13 8.70438263e-17 2.95155903e-13 9.58800767e-16 6.73148485e-13
6.70000000e+00 7.60234137e-13 4.89650796e-13 4.18574988e-17 2.70541484e-13 6.06864160e-16 4.89650796e-13
6.92422916e+00 7.06041114e-13 4.43605145e-13 3.45107791e-17 2.62401458e-13 5.18472887e-16 4.43605145e-13
7.15596261e+00 6.58772903e-13 4.01889522e-13 2.71940776e-17 2.56856186e-13 4.38498192e-16 4.01889522e-13
7.39545150e+00 6.22190242e-13 3.64096743e-13 2.11787258e-17 2.58072321e-13 3.73771736e-16 3.64096743e-13
7.64295536e+00 6.08326406e-13 3.29857910e-13 1.49207947e-17 2.78453575e-13 3.15823282e-16 3.29857910e-13
7.89874245e+00 6.27088612e-13 2.98838820e-13 9.61802360e-18 3.28240174e-13 2.61848112e-16 2.98838820e-13
8.16308998e+00 6.72694523e-13 2.70736695e-13 5.58907390e-18 4.01952240e-13 2.16883070e-16 2.70736695e-13
8.43628443e+00 7.50594123e-13 2.45277229e-13 3.19502090e-18 5.05313699e-13 1.70573976e-16 2.45277229e-13
8.71862190e+00 8.01006123e-13 2.22211915e-13 2.09498411e-18 5.78792113e-13 1.35344183e-16 2.22211915e-13
9.01040836e+00 8.56898488e-13 2.01315610e-13 1.29710853e-18 6.55581582e-13 9.92195137e-17 2.01315610e-13
9.31196005e+00 9.00132642e-13 1.82384346e-13 0.00000000e+00 7.17748296e-13 0.00000000e+00 1.82384346e-13
9.62360379e+00 8.80656095e-13 1.65233336e-13 0.00000000e+00 7.15422760e-13 0.00000000e+00 1.65233336e-13
9.94567731e+00 8.11247929e-13 1.49695167e-13 0.00000000e+00 6.61552762e-13 0.00000000e+00 1.49695167e-13
1.02785297e+01 7.36392685e-13 1.35618173e-13 0.00000000e+00 6.00774512e-13 0.00000000e+00 1.35618173e-13
1.06225216e+01 6.60317400e-13 1.22864947e-13 0.00000000e+00 5.37452453e-13 0.00000000e+00 1.22864947e-13
1.09780260e+01 5.80557841e-13 1.11311006e-13 0.00000000e+00 4.69246835e-13 0.00000000e+00 1.11311006e-13
1.13454280e+01 5.11484077e-13 1.00843571e-13 0.00000000e+00 4.10640506e-13 0.00000000e+00 1.00843571e-13
1.17251259e+01 4.54110205e-13 9.13604705e-14 0.00000000e+00 3.62749735e-13 0.00000000e+00 9.13604705e-14
1.21175312e+01 4.01108097e-13 8.27691389e-14 0.00000000e+00 3.18338958e-13 0.00000000e+00 8.27691389e-14
1.25230691e+01 3.55236990e-13 7.49857166e-14 0.00000000e+00 2.80251273e-13 0.00000000e+00 7.49857166e-14
1.29421791e+01 3.16419520e-13 6.79342298e-14 0.00000000e+00 2.48485290e-13 0.00000000e+00 6.79342298e-14
1.33753155e+01 2.83692179e-13 6.15458488e-14 0.00000000e+00 2.22146330e-13 0.00000000e+00 6.15458488e-14
1.38229477e+01 2.60336293e-13 5.57582167e-14 0.00000000e+00 2.04578077e-13 0.00000000e+00 5.57582167e-14
1.42855609e+01 2.45610813e-13 5.05148403e-14 0.00000000e+00 1.95095973e-13 0.00000000e+00 5.05148403e-14
1.47636563e+01 2.43483865e-13 4.57645392e-14 0.00000000e+00 1.97719326e-13 0.00000000e+00 4.57645392e-14
1.52577522e+01 2.44761459e-13 4.14609457e-14 0.00000000e+00 2.03300514e-13 0.00000000e+00 4.14609457e-14
1.57683840e+01 2.48498255e-13 3.75620523e-14 0.00000000e+00 2.10936202e-13 0.00000000e+00 3.75620523e-14
1.62961051e+01 2.52229901e-13 3.40298020e-14 0.00000000e+00 2.18200099e-13 0.00000000e+00 3.40298020e-14
1.68414875e+01 2.57383682e-13 3.08297166e-14 0.00000000e+00 2.26553965e-13 0.00000000e+00 3.08297166e-14
1.74051222e+01 2.58320581e-13 2.79305599e-14 0.00000000e+00 2.30390022e-13 0.00000000e+00 2.79305599e-14
1.79876201e+01 2.57635134e-13 2.53040334e-14 0.00000000e+00 2.32331100e-13 0.00000000e+00 2.53040334e-14
1.85896125e+01 2.52420780e-13 2.29244994e-14 0.00000000e+00 2.29496280e-13 0.00000000e+00 2.29244994e-14
1.92117518e+01 2.43028528e-13 2.07687314e-14 0.00000000e+00 2.22259797e-13 0.00000000e+00 2.07687314e-14
1.98547123e+01 2.31614599e-13 1.88156870e-14 0.00000000e+00 2.12798912e-13 0.00000000e+00 1.88156870e-14
2.05191907e+01 2.19963920e-13 1.70463024e-14 0.00000000e+00 2.02917618e-13 0.00000000e+00 1.70463024e-14
2.12059073e+01 2.09212225e-13 1.54433068e-14 0.00000000e+00 1.93768919e-13 0.00000000e+00 1.54433068e-14
2.19156062e+01 1.99782272e-13 1.39910532e-14 0.00000000e+00 1.85791218e-13 0.00000000e+00 1.39910532e-14
2.26490567e+01 1.91712532e-13 1.26753663e-14 0.00000000e+00 1.79037165e-13 0.00000000e+00 1.26753663e-14
2.34070535e+01 1.84109932e-13 1.14834036e-14 0.00000000e+00 1.72626528e-13 0.00000000e+00 1.14834036e-14
2.41904183e+01 1.77110108e-13 1.04035303e-14 0.00000000e+00 1.66706578e-13 0.00000000e+00 1.04035303e-14
2.50000000e+01 1.71267259e-13 9.42520591e-15 0.00000000e+00 1.61842053e-13 0.00000000e+00 9.42520591e-15
2.75422870e+01 1.55220363e-13 7.04872996e-15 0.00000000e+00 1.48171633e-13 0.00000000e+00 7.04872996e-15
3.16227766e+01 1.35708874e-13 4.65704970e-15 0.00000000e+00 1.31051824e-13 0.00000000e+00 4.65704970e-15
3.63078055e+01 1.16384293e-13 3.07688223e-15 0.00000000e+00 1.13307411e-13 0.00000000e+00 3.07688223e-15
4.16869383e+01 9.56823227e-14 2.03287593e-15 0.00000000e+00 9.36494468e-14 0.00000000e+00 2.03287593e-15
4.78630092e+01 7.47356773e-14 1.34310781e-15 0.00000000e+00 7.33925695e-14 0.00000000e+00 1.34310781e-15
5.49540874e+01 5.55991877e-14 8.87382527e-16 0.00000000e+00 5.47118052e-14 0.00000000e+00 8.87382527e-16
6.30957344e+01 3.95649361e-14 5.86287821e-16 0.00000000e+00 3.89786482e-14 0.00000000e+00 5.86287821e-16
7.24435960e+01 2.70100665e-14 3.87356522e-16 0.00000000e+00 2.66227099e-14 0.00000000e+00 3.87356522e-16
8.31763771e+01 1.77513778e-14 2.55923916e-16 0.00000000e+00 1.74954539e-14 0.00000000e+00 2.55923916e-16
9.54992586e+01 1.13046065e-14 1.69087255e-16 0.00000000e+00 1.11355193e-14 0.00000000e+00 1.69087255e-16
1.09647820e+02 6.99675326e-15 1.11714841e-16 0.00000000e+00 6.88503842e-15 0.00000000e+00 1.11714841e-16
1.25892541e+02 4.27100758e-15 7.38092637e-17 0.00000000e+00 4.19719832e-15 0.00000000e+00 7.38092637e-17
1.44543977e+02 2.56017592e-15 4.87652969e-17 0.00000000e+00 2.51141062e-15 0.00000000e+00 4.87652969e-17
1.65958691e+02 1.45012963e-15 3.22189122e-17 0.00000000e+00 1.41791072e-15 0.00000000e+00 3.22189122e-17
1.90546072e+02 8.13970845e-16 2.12868242e-17 0.00000000e+00 7.92684021e-16 0.00000000e+00 2.12868242e-17
2.18776162e+02 4.52355634e-16 1.40640653e-17 0.00000000e+00 4.38291568e-16 0.00000000e+00 1.40640653e-17
2.51188643e+02 2.48856105e-16 9.29203577e-18 0.00000000e+00 2.39564070e-16 0.00000000e+00 9.29203577e-18
2.88403150e+02 1.35562969e-16 6.13918715e-18 0.00000000e+00 1.29423782e-16 0.00000000e+00 6.13918715e-18
3.31131121e+02 7.33711619e-17 4.05612073e-18 0.00000000e+00 6.93150412e-17 0.00000000e+00 4.05612073e-18
3.80189396e+02 3.94723150e-17 2.67985239e-18 0.00000000e+00 3.67924627e-17 0.00000000e+00 2.67985239e-18
4.36515832e+02 2.11654646e-17 1.77056092e-18 0.00000000e+00 1.93949037e-17 0.00000000e+00 1.77056092e-18
5.01187234e+02 1.13272620e-17 1.16979800e-18 0.00000000e+00 1.01574640e-17 0.00000000e+00 1.16979800e-18
5.75439937e+02 6.06341119e-18 7.72877871e-19 0.00000000e+00 5.29053332e-18 0.00000000e+00 7.72877871e-19
6.60693448e+02 3.25327967e-18 5.10635346e-19 0.00000000e+00 2.74264432e-18 0.00000000e+00 5.10635346e-19
7.58577575e+02 1.75339087e-18 3.37373427e-19 0.00000000e+00 1.41601744e-18 0.00000000e+00 3.37373427e-19
8.70963590e+02 9.51235320e-19 2.22900413e-19 0.00000000e+00 7.28334907e-19 0.00000000e+00 2.22900413e-19
1.00000000e+03 3.73359966e-19 0.00000000e+00 0.00000000e+00 3.73359966e-19 0.00000000e+00 0.00000000e+00
