# column 1: lambda (micron)
# column 2: total flux; lambda*F_lambda (W/m2)
# column 3: direct stellar flux; lambda*F_lambda (W/m2)
# column 4: scattered stellar flux; lambda*F_lambda (W/m2)
# column 5: total dust emission flux; lambda*F_lambda (W/m2)
# column 6: dust emission scattered flux; lambda*F_lambda (W/m2)
# column 7: transparent flux; lambda*F_lambda (W/m2)
1.00000000e-03 8.46487893e-13 8.46487145e-13 7.47987440e-19 0.00000000e+00 0.00000000e+00 8.46529401e-13
1.14815362e-03 9.99111434e-13 9.99110227e-13 1.20695724e-18 0.00000000e+00 0.00000000e+00 9.99176121e-13
1.31825674e-03 1.17925113e-12 1.17924931e-12 1.82385403e-18 0.00000000e+00 0.00000000e+00 1.17934819e-12
1.51356125e-03 1.39187438e-12 1.39187141e-12 2.97243000e-18 0.00000000e+00 0.00000000e+00 1.39200901e-12
1.73780083e-03 1.64285805e-12 1.64285287e-12 5.18654033e-18 0.00000000e+00 0.00000000e+00 1.64301696e-12
1.99526231e-03 1.93903911e-12 1.93903004e-12 9.07091903e-18 0.00000000e+00 0.00000000e+00 1.93928682e-12
2.29086765e-03 2.28867370e-12 2.28865885e-12 1.48480208e-17 0.00000000e+00 0.00000000e+00 2.28898025e-12
2.63026799e-03 2.70130569e-12 2.70127603e-12 2.96615238e-17 0.00000000e+00 0.00000000e+00 2.70173063e-12
3.01995172e-03 3.18829498e-12 3.18824480e-12 5.01778374e-17 0.00000000e+00 0.00000000e+00 3.18890841e-12
3.46736850e-03 3.76309534e-12 3.76301120e-12 8.41371828e-17 0.00000000e+00 0.00000000e+00 3.76393440e-12
3.98107171e-03 4.44154691e-12 4.44140216e-12 1.44749701e-16 0.00000000e+00 0.00000000e+00 4.44264945e-12
4.57088190e-03 5.24310349e-12 5.24276875e-12 3.34741170e-16 0.00000000e+00 0.00000000e+00 5.24375082e-12
5.24807460e-03 6.18837531e-12 6.18782681e-12 5.48493810e-16 0.00000000e+00 0.00000000e+00 6.18930730e-12
6.02559586e-03 7.30445602e-12 7.30326019e-12 1.19582685e-15 0.00000000e+00 0.00000000e+00 7.30536713e-12
6.91830971e-03 8.62140210e-12 8.61980547e-12 1.59662435e-15 0.00000000e+00 0.00000000e+00 8.62267558e-12
7.94328235e-03 1.01763912e-11 1.01737425e-11 2.64863163e-15 6.40916374e-304 1.93901612e-306 1.01775219e-11
9.12010839e-03 1.20130975e-11 1.20077890e-11 5.30854321e-15 2.77561268e-265 1.13166635e-267 1.20127391e-11
1.04712855e-02 1.34175140e-11 1.34107062e-11 6.80773724e-15 1.15857821e-231 3.76853538e-234 1.34165878e-11
1.20226443e-02 1.34312621e-11 1.34103592e-11 2.09029089e-14 1.79786874e-202 8.04352097e-205 1.34165878e-11
1.38038426e-02 1.34229319e-11 1.34099476e-11 1.29843714e-14 4.86648048e-177 3.58178162e-179 1.34165878e-11
1.58489319e-02 1.34286557e-11 1.34094417e-11 1.92139425e-14 6.54968527e-155 7.02828779e-157 1.34165878e-11
1.81970086e-02 1.34354381e-11 1.34089752e-11 2.64628439e-14 1.15913553e-135 1.21007167e-137 1.34165878e-11
2.08929613e-02 1.34446547e-11 1.34085875e-11 3.60672273e-14 6.04280006e-119 9.33010736e-121 1.34165878e-11
2.39883292e-02 1.34579485e-11 1.34080851e-11 4.98633928e-14 2.11648066e-104 4.33702001e-106 1.34165878e-11
2.75422870e-02 1.34742581e-11 1.34075007e-11 6.67574030e-14 9.45105215e-92 2.32489401e-93 1.34165878e-11
3.16227766e-02 1.34881375e-11 1.34069279e-11 8.12095303e-14 9.20481531e-81 2.72200456e-82 1.34165878e-11
3.63078055e-02 1.34993760e-11 1.34064787e-11 9.28973268e-14 3.19062842e-71 1.09319706e-72 1.34165878e-11
4.16869383e-02 1.35314166e-11 1.34060902e-11 1.25326459e-13 6.09617177e-63 2.82580103e-64 1.34165878e-11
4.78630092e-02 1.35728886e-11 1.34050192e-11 1.67869412e-13 9.25739420e-56 5.49513799e-57 1.34165878e-11
5.49540874e-02 1.36043582e-11 1.34035300e-11 2.00828170e-13 1.54771096e-49 1.11709172e-50 1.34165878e-11
6.30957344e-02 1.36392750e-11 1.33997966e-11 2.39478487e-13 5.01574471e-44 4.13111222e-45 1.34165878e-11
7.24435960e-02 1.36224229e-11 1.33953756e-11 2.27047329e-13 2.89583511e-39 2.30973896e-40 1.34165878e-11
8.31763771e-02 1.36246528e-11 1.33957689e-11 2.28883918e-13 2.95477336e-35 2.30005518e-36 1.34165878e-11
9.54992586e-02 1.36344665e-11 1.33969226e-11 2.37543834e-13 8.32850885e-32 6.73693938e-33 1.34165878e-11
1.09647820e-01 1.30404411e-11 1.27971434e-11 2.43297712e-13 7.07628938e-29 6.15265700e-30 1.28127470e-11
1.25892541e-01 1.21603288e-11 1.19455631e-11 2.14765650e-13 2.28417298e-26 1.91355455e-27 1.19575512e-11
1.44543977e-01 1.13445441e-11 1.11501621e-11 1.94381934e-13 3.09920474e-24 2.49169984e-25 1.11594361e-11
1.65958691e-01 1.06122381e-11 1.04070221e-11 2.05215991e-13 1.57310269e-22 1.38950062e-23 1.04145917e-11
1.90546072e-01 9.93780568e-12 9.71192610e-12 2.25879574e-13 3.33149237e-21 3.46489290e-22 9.71946251e-12
2.18776162e-01 9.28522169e-12 9.06248037e-12 2.22741288e-13 3.95630037e-20 4.35167900e-21 9.07073019e-12
2.51188643e-01 8.70830489e-12 8.45914006e-12 2.49164344e-13 4.83328309e-19 6.37371439e-20 8.46529796e-12
2.88403150e-01 8.12521563e-12 7.89550414e-12 2.29707484e-13 4.00753804e-18 5.13166284e-19 7.90027573e-12
3.31131121e-01 7.57475446e-12 7.36908428e-12 2.05647257e-13 2.29174508e-17 2.85156773e-18 7.37296631e-12
3.80189396e-01 7.05904403e-12 6.87767094e-12 1.81277531e-13 9.55604039e-17 1.16315033e-17 6.88085251e-12
4.36515832e-01 6.58939739e-12 6.41900097e-12 1.70091071e-13 3.05350852e-16 3.70807354e-17 6.42158520e-12
5.01187234e-01 6.14501793e-12 5.99090137e-12 1.53319457e-13 7.97103273e-16 1.02645487e-16 5.99297201e-12
5.75439937e-01 5.73853995e-12 5.59132489e-12 1.45336493e-13 1.87857144e-15 2.84033685e-16 5.59296690e-12
6.60693448e-01 5.35535704e-12 5.21836956e-12 1.32561652e-13 4.42581926e-15 8.24790770e-16 5.21966041e-12
7.58577575e-01 4.99759308e-12 4.87026807e-12 1.16143650e-13 1.11813606e-14 2.48480379e-15 4.87127053e-12
8.70963590e-01 4.67465924e-12 4.54537292e-12 1.01061922e-13 2.82243962e-14 6.64653279e-15 4.54613417e-12
1.00000000e+00 4.39569680e-12 4.24213053e-12 8.67369645e-14 6.68293115e-14 1.53910885e-14 4.24269927e-12
1.14815362e+00 4.17789739e-12 3.95909997e-12 7.23012573e-14 1.46496160e-13 3.08535306e-14 3.95951734e-12
1.31825674e+00 4.04459476e-12 3.69493562e-12 5.84939235e-14 2.91165217e-13 5.30999284e-14 3.69523659e-12
1.51356125e+00 4.01895313e-12 3.44838060e-12 4.58484742e-14 5.24724050e-13 8.11119512e-14 3.44859544e-12
1.73780083e+00 4.10324706e-12 3.21826567e-12 3.60440547e-14 8.48937336e-13 1.06056582e-13 3.21841652e-12
1.99526231e+00 4.26588181e-12 3.00349679e-12 2.65675025e-14 1.23581752e-12 1.20160208e-13 3.00360106e-12
2.29086765e+00 4.46361703e-12 2.80305176e-12 1.87176780e-14 1.64184759e-12 1.21240649e-13 2.80312361e-12
2.63026799e+00 4.64623040e-12 2.61597719e-12 1.30903333e-14 2.01716288e-12 1.10760417e-13 2.61602716e-12
3.01995172e+00 4.77072489e-12 2.44138340e-12 9.08023026e-15 2.32026126e-12 9.36119555e-14 2.44141860e-12
3.46736850e+00 4.81061542e-12 2.27843921e-12 6.30455673e-15 2.52587165e-12 7.46467716e-14 2.27846441e-12
3.98107171e+00 4.76044363e-12 2.12636844e-12 4.34404111e-15 2.62973115e-12 5.62814758e-14 2.12638671e-12
4.57088190e+00 4.62380609e-12 1.98444611e-12 2.90307430e-15 2.63645690e-12 3.98129803e-14 1.98445954e-12
5.24807460e+00 4.21231297e-12 1.64083496e-12 1.64719957e-15 2.56983082e-12 2.67687272e-14 1.64084388e-12
6.02559586e+00 3.55582964e-12 1.08408990e-12 7.27921982e-16 2.47101182e-12 1.70795417e-14 1.08409480e-12
6.70000000e+00 3.16175363e-12 7.88571570e-13 3.75097500e-16 2.37280696e-12 1.15837967e-14 7.88574724e-13
6.92422916e+00 3.05316089e-12 7.14416187e-13 3.00903744e-16 2.33844380e-12 1.01747194e-14 7.14418944e-13
7.15596261e+00 2.97183632e-12 6.47234152e-13 2.38212734e-16 2.32436395e-12 8.87955487e-15 6.47236606e-13
7.39545150e+00 2.92822215e-12 5.86369666e-13 1.84616232e-16 2.34166787e-12 7.59294570e-15 5.86371942e-13
7.64295536e+00 3.00903196e-12 5.31228504e-13 1.27601016e-16 2.47767585e-12 6.29973610e-15 5.31230854e-13
7.89874245e+00 3.27239431e-12 4.81272358e-13 7.66613834e-17 2.79104529e-12 4.97026993e-15 4.81275108e-13
8.16308998e+00 3.67863917e-12 4.36013723e-13 4.53811940e-17 3.24258007e-12 3.87344215e-15 4.36017088e-13
8.43628443e+00 4.25108134e-12 3.95010794e-13 2.44556511e-17 3.85604609e-12 2.92785447e-15 3.95015029e-13
8.71862190e+00 4.65675916e-12 3.57863997e-13 1.58549946e-17 4.29887931e-12 2.31865670e-15 3.57868711e-13
9.01040836e+00 5.06533907e-12 3.24210375e-13 1.00195563e-17 4.74111868e-12 1.79042139e-15 3.24215549e-13
9.31196005e+00 5.39326368e-12 2.93721617e-13 0.00000000e+00 5.09954206e-12 0.00000000e+00 2.93727053e-13
9.62360379e+00 5.41395127e-12 2.66100572e-13 0.00000000e+00 5.14785070e-12 0.00000000e+00 2.66105627e-13
9.94567731e+00 5.08712233e-12 2.41077360e-13 0.00000000e+00 4.84604497e-12 0.00000000e+00 2.41081657e-13
1.02785297e+01 4.74115680e-12 2.18407362e-13 0.00000000e+00 4.52274943e-12 0.00000000e+00 2.18410884e-13
1.06225216e+01 4.40865126e-12 1.97869164e-13 0.00000000e+00 4.21078210e-12 0.00000000e+00 1.97872020e-13
1.09780260e+01 4.01764936e-12 1.79262352e-13 0.00000000e+00 3.83838701e-12 0.00000000e+00 1.79264583e-13
1.13454280e+01 3.69247105e-12 1.62405197e-13 0.00000000e+00 3.53006586e-12 0.00000000e+00 1.62406948e-13
1.17251259e+01 3.42689120e-12 1.47133184e-13 0.00000000e+00 3.27975801e-12 0.00000000e+00 1.47134567e-13
1.21175312e+01 3.16726833e-12 1.33297279e-13 0.00000000e+00 3.03397105e-12 0.00000000e+00 1.33298366e-13
1.25230691e+01 2.94713997e-12 1.20762438e-13 0.00000000e+00 2.82637753e-12 0.00000000e+00 1.20763289e-13
1.29421791e+01 2.75797691e-12 1.09406312e-13 0.00000000e+00 2.64857060e-12 0.00000000e+00 1.09406983e-13
1.33753155e+01 2.59011497e-12 9.91180648e-14 0.00000000e+00 2.49099691e-12 0.00000000e+00 9.91185987e-14
1.38229477e+01 2.49683876e-12 8.97972665e-14 0.00000000e+00 2.40704149e-12 0.00000000e+00 8.97977103e-14
1.42855609e+01 2.45579626e-12 8.13529514e-14 0.00000000e+00 2.37444331e-12 0.00000000e+00 8.13533371e-14
1.47636563e+01 2.49752208e-12 7.37026876e-14 0.00000000e+00 2.42381940e-12 0.00000000e+00 7.37030537e-14
1.52577522e+01 2.58514060e-12 6.67718318e-14 0.00000000e+00 2.51836877e-12 0.00000000e+00 6.67721855e-14
1.57683840e+01 2.68379058e-12 6.04927344e-14 0.00000000e+00 2.62329785e-12 0.00000000e+00 6.04930805e-14
1.62961051e+01 2.78650924e-12 5.48041100e-14 0.00000000e+00 2.73170513e-12 0.00000000e+00 5.48044484e-14
1.68414875e+01 2.87718194e-12 4.96504322e-14 0.00000000e+00 2.82753151e-12 0.00000000e+00 4.96507622e-14
1.74051222e+01 2.95989784e-12 4.49814037e-14 0.00000000e+00 2.91491644e-12 0.00000000e+00 4.49817171e-14
1.79876201e+01 3.00799062e-12 4.07514458e-14 0.00000000e+00 2.96723917e-12 0.00000000e+00 4.07517384e-14
1.85896125e+01 3.03442082e-12 3.69192725e-14 0.00000000e+00 2.99750155e-12 0.00000000e+00 3.69195372e-14
1.92117518e+01 3.00524704e-12 3.34474751e-14 0.00000000e+00 2.97179956e-12 0.00000000e+00 3.34477076e-14
1.98547123e+01 2.96049257e-12 3.03021608e-14 0.00000000e+00 2.93019040e-12 0.00000000e+00 3.03023610e-14
2.05191907e+01 2.92082742e-12 2.74526249e-14 0.00000000e+00 2.89337479e-12 0.00000000e+00 2.74527957e-14
2.12059073e+01 2.85873738e-12 2.48710514e-14 0.00000000e+00 2.83386633e-12 0.00000000e+00 2.48711970e-14
2.19156062e+01 2.82310571e-12 2.25322413e-14 0.00000000e+00 2.80057347e-12 0.00000000e+00 2.25323660e-14
2.26490567e+01 2.77192341e-12 2.04133664e-14 0.00000000e+00 2.75151004e-12 0.00000000e+00 2.04134733e-14
2.34070535e+01 2.71828914e-12 1.84937447e-14 0.00000000e+00 2.69979539e-12 0.00000000e+00 1.84938366e-14
2.41904183e+01 2.67922674e-12 1.67546389e-14 0.00000000e+00 2.66247210e-12 0.00000000e+00 1.67547181e-14
2.50000000e+01 2.63091280e-12 1.51790740e-14 0.00000000e+00 2.61573373e-12 0.00000000e+00 1.51791424e-14
2.75422870e+01 2.45035618e-12 1.13518215e-14 0.00000000e+00 2.43900436e-12 0.00000000e+00 1.13518661e-14
3.16227766e+01 2.14611552e-12 7.50007906e-15 0.00000000e+00 2.13861544e-12 0.00000000e+00 7.50010357e-15
3.63078055e+01 1.76346830e-12 4.95525590e-15 0.00000000e+00 1.75851304e-12 0.00000000e+00 4.95526929e-15
4.16869383e+01 1.34899077e-12 3.27390683e-15 0.00000000e+00 1.34571686e-12 0.00000000e+00 3.27391395e-15
4.78630092e+01 9.62048599e-13 2.16304982e-15 0.00000000e+00 9.59885550e-13 0.00000000e+00 2.16305350e-15
5.49540874e+01 6.42705452e-13 1.42911342e-15 0.00000000e+00 6.41276338e-13 0.00000000e+00 1.42911527e-15
6.30957344e+01 4.07550232e-13 9.44206174e-16 0.00000000e+00 4.06606026e-13 0.00000000e+00 9.44207098e-16
7.24435960e+01 2.47709042e-13 6.23830986e-16 0.00000000e+00 2.47085211e-13 0.00000000e+00 6.23831443e-16
8.31763771e+01 1.45642910e-13 4.12161122e-16 0.00000000e+00 1.45230748e-13 0.00000000e+00 4.12161347e-16
9.54992586e+01 8.34749138e-14 2.72312190e-16 0.00000000e+00 8.32026016e-14 0.00000000e+00 2.72312302e-16
1.09647820e+02 4.69475410e-14 1.79914898e-16 0.00000000e+00 4.67676261e-14 0.00000000e+00 1.79914953e-16
1.25892541e+02 2.62963930e-14 1.18868603e-16 0.00000000e+00 2.61775244e-14 0.00000000e+00 1.18868631e-16
1.44543977e+02 1.46121273e-14 7.85357115e-17 0.00000000e+00 1.45335916e-14 0.00000000e+00 7.85357256e-17
1.65958691e+02 7.73024609e-15 5.18880324e-17 0.00000000e+00 7.67835806e-15 0.00000000e+00 5.18880394e-17
1.90546072e+02 4.08581345e-15 3.42820842e-17 0.00000000e+00 4.05153137e-15 0.00000000e+00 3.42820876e-17
2.18776162e+02 2.15358582e-15 2.26499490e-17 0.00000000e+00 2.13093587e-15 0.00000000e+00 2.26499507e-17
2.51188643e+02 1.13054982e-15 1.49646732e-17 0.00000000e+00 1.11558514e-15 0.00000000e+00 1.49646740e-17
2.88403150e+02 5.90584211e-16 9.88706165e-18 0.00000000e+00 5.80697149e-16 0.00000000e+00 9.88706207e-18
3.31131121e+02 3.07719141e-16 6.53231692e-18 0.00000000e+00 3.01186824e-16 0.00000000e+00 6.53231713e-18
3.80189396e+02 1.59832653e-16 4.31585902e-18 0.00000000e+00 1.55516794e-16 0.00000000e+00 4.31585913e-18
4.36515832e+02 8.29028205e-17 2.85145980e-18 0.00000000e+00 8.00513607e-17 0.00000000e+00 2.85145985e-18
5.01187234e+02 4.29570134e-17 1.88394081e-18 0.00000000e+00 4.10730726e-17 0.00000000e+00 1.88394084e-18
5.75439937e+02 2.22624128e-17 1.24470736e-18 0.00000000e+00 2.10177054e-17 0.00000000e+00 1.24470737e-18
6.60693448e+02 1.15528851e-17 8.22369997e-19 0.00000000e+00 1.07305151e-17 0.00000000e+00 8.22370004e-19
7.58577575e+02 6.01082216e-18 5.43334470e-19 0.00000000e+00 5.46748769e-18 0.00000000e+00 5.43334473e-19
8.70963590e+02 3.13928274e-18 3.58977525e-19 0.00000000e+00 2.78030522e-18 0.00000000e+00 3.58977527e-19
1.00000000e+03 1.41125093e-18 0.00000000e+00 0.00000000e+00 1.41125093e-18 0.00000000e+00 0.00000000e+00
