# column 1: lambda (micron)
# column 2: total flux; lambda*F_lambda (W/m2)
# column 3: direct stellar flux; lambda*F_lambda (W/m2)
# column 4: scattered stellar flux; lambda*F_lambda (W/m2)
# column 5: total dust emission flux; lambda*F_lambda (W/m2)
# column 6: dust emission scattered flux; lambda*F_lambda (W/m2)
# column 7: transparent flux; lambda*F_lambda (W/m2)
1.00000000e-03 1.04615861e-12 1.04615471e-12 3.90571417e-18 0.00000000e+00 0.00000000e+00 1.04634360e-12
1.14815362e-03 1.23473231e-12 1.23472639e-12 5.92144051e-18 0.00000000e+00 0.00000000e+00 1.23502095e-12
1.31825674e-03 1.45728776e-12 1.45727869e-12 9.07303342e-18 0.00000000e+00 0.00000000e+00 1.45772071e-12
1.51356125e-03 1.71997706e-12 1.71996275e-12 1.43011013e-17 0.00000000e+00 0.00000000e+00 1.72057784e-12
1.73780083e-03 2.03012545e-12 2.03010003e-12 2.54236889e-17 0.00000000e+00 0.00000000e+00 2.03083353e-12
1.99526231e-03 2.39593185e-12 2.39588693e-12 4.49154389e-17 0.00000000e+00 0.00000000e+00 2.39703472e-12
2.29086765e-03 2.82790067e-12 2.82783295e-12 6.77198569e-17 0.00000000e+00 0.00000000e+00 2.82926954e-12
2.63026799e-03 3.33755469e-12 3.33741335e-12 1.41345386e-16 0.00000000e+00 0.00000000e+00 3.33944522e-12
3.01995172e-03 3.93889036e-12 3.93865019e-12 2.40168308e-16 0.00000000e+00 0.00000000e+00 3.94161611e-12
3.46736850e-03 4.64863745e-12 4.64824490e-12 3.92551060e-16 0.00000000e+00 0.00000000e+00 4.65237083e-12
3.98107171e-03 5.48637357e-12 5.48571524e-12 6.58338042e-16 0.00000000e+00 0.00000000e+00 5.49128930e-12
4.57088190e-03 6.47849331e-12 6.47709271e-12 1.40059531e-15 0.00000000e+00 0.00000000e+00 6.48148207e-12
5.24807460e-03 7.64619198e-12 7.64361048e-12 2.58149964e-15 0.00000000e+00 0.00000000e+00 7.65022704e-12
6.02559586e-03 9.02508443e-12 9.02030519e-12 4.77923811e-15 0.00000000e+00 0.00000000e+00 9.02972084e-12
6.91830971e-03 1.06527807e-11 1.06451404e-11 7.64027418e-15 0.00000000e+00 0.00000000e+00 1.06579658e-11
7.94328235e-03 1.25960999e-11 1.25629292e-11 3.31707126e-14 1.45981561e-303 3.73235566e-306 1.25798170e-11
9.12010839e-03 1.48599852e-11 1.48260996e-11 3.38855496e-14 6.24794286e-265 3.77504210e-267 1.48482176e-11
1.04712855e-02 1.65953431e-11 1.65571507e-11 3.81924184e-14 2.57339544e-231 1.11006030e-233 1.65834298e-11
1.20226443e-02 1.66127678e-11 1.65556011e-11 5.71667040e-14 3.95098395e-202 2.23980271e-204 1.65834298e-11
1.38038426e-02 1.66492365e-11 1.65537632e-11 9.54733304e-14 1.05968791e-176 9.22820557e-179 1.65834298e-11
1.58489319e-02 1.66608081e-11 1.65515049e-11 1.09303200e-13 1.41955594e-154 2.19943474e-156 1.65834298e-11
1.81970086e-02 1.66958216e-11 1.65494223e-11 1.46399331e-13 2.49486937e-135 3.81589186e-137 1.65834298e-11
2.08929613e-02 1.67543645e-11 1.65476914e-11 2.06673062e-13 1.29406670e-118 2.77980501e-120 1.65834298e-11
2.39883292e-02 1.68136182e-11 1.65454490e-11 2.68169205e-13 4.52114552e-104 1.31618138e-105 1.65834298e-11
2.75422870e-02 1.68741721e-11 1.65428411e-11 3.31330994e-13 2.01593479e-91 7.29617933e-93 1.65834298e-11
3.16227766e-02 1.69377232e-11 1.65402852e-11 3.97438005e-13 1.96383389e-80 8.85353273e-82 1.65834298e-11
3.63078055e-02 1.69974713e-11 1.65382807e-11 4.59190513e-13 6.78314848e-71 3.37563079e-72 1.65834298e-11
4.16869383e-02 1.71305906e-11 1.65365472e-11 5.94043335e-13 1.29868980e-62 8.60522971e-64 1.65834298e-11
4.78630092e-02 1.72399689e-11 1.65317698e-11 7.08199110e-13 1.96607162e-55 1.53915783e-56 1.65834298e-11
5.49540874e-02 1.73215626e-11 1.65251282e-11 7.96434443e-13 3.27187550e-49 2.89245405e-50 1.65834298e-11
6.30957344e-02 1.73309102e-11 1.65084860e-11 8.22424180e-13 1.05574249e-43 1.00560747e-44 1.65834298e-11
7.24435960e-02 1.72008749e-11 1.64887949e-11 7.12080036e-13 6.05347726e-39 5.25593626e-40 1.65834298e-11
8.31763771e-02 1.71698062e-11 1.64905461e-11 6.79260077e-13 6.16895385e-35 5.25088823e-36 1.65834298e-11
9.54992586e-02 1.72073125e-11 1.64956836e-11 7.11628930e-13 1.73574348e-31 1.53177536e-32 1.65834298e-11
1.09647820e-01 1.65203944e-11 1.57674132e-11 7.52981204e-13 1.47482084e-28 1.42039440e-29 1.58370587e-11
1.25892541e-01 1.54652450e-11 1.47264798e-11 7.38765152e-13 4.77091715e-26 4.63192086e-27 1.47800032e-11
1.44543977e-01 1.44193101e-11 1.37520867e-11 6.67223355e-13 6.47097901e-24 6.13911372e-25 1.37935015e-11
1.65958691e-01 1.35252622e-11 1.28390364e-11 6.86225759e-13 3.27550756e-22 3.32368641e-23 1.28728446e-11
1.90546072e-01 1.26721633e-11 1.19799797e-11 6.92183646e-13 6.93435812e-21 8.10723986e-22 1.20136376e-11
2.18776162e-01 1.18071487e-11 1.11749414e-11 6.32207187e-13 8.17333244e-20 9.51019031e-21 1.12117790e-11
2.51188643e-01 1.11194870e-11 1.04359378e-11 6.83548225e-13 9.97905008e-19 1.38336461e-19 1.04634409e-11
2.88403150e-01 1.03858553e-11 9.74373637e-12 6.42110664e-13 8.27782512e-18 1.12745122e-18 9.76505125e-12
3.31131121e-01 9.67941829e-12 9.09593318e-12 5.83437917e-13 4.71970391e-17 6.17303089e-18 9.11327608e-12
3.80189396e-01 9.01880741e-12 8.49078925e-12 5.27821768e-13 1.96396872e-16 2.52289701e-17 8.50500410e-12
4.36515832e-01 8.40436422e-12 7.92578474e-12 4.77955642e-13 6.23833536e-16 7.94094690e-17 7.93733165e-12
5.01187234e-01 7.82776887e-12 7.39829615e-12 4.27870471e-13 1.60224657e-15 2.08474009e-16 7.40754890e-12
5.75439937e-01 7.28780719e-12 6.90578897e-12 3.78373966e-13 3.64425246e-15 5.24157684e-16 6.91312687e-12
6.60693448e-01 6.78485158e-12 6.44593642e-12 3.30549674e-13 8.36549187e-15 1.43765357e-15 6.45170538e-12
7.58577575e-01 6.32086907e-12 6.01660145e-12 2.83003932e-13 2.12636877e-14 4.36035775e-15 6.02108180e-12
8.70963590e-01 5.91030236e-12 5.61579801e-12 2.37662289e-13 5.68420598e-14 1.26425458e-14 5.61920048e-12
1.00000000e+00 5.58569431e-12 5.24160086e-12 1.99279099e-13 1.44814351e-13 3.14629328e-14 5.24414302e-12
1.14815362e+00 5.39146202e-12 4.89225340e-12 1.58000448e-13 3.41208177e-13 6.92717763e-14 4.89411902e-12
1.31825674e+00 5.41812176e-12 4.56611229e-12 1.21955473e-13 7.30053992e-13 1.31156586e-13 4.56745763e-12
1.51356125e+00 5.75933328e-12 4.26163913e-12 9.47596761e-14 1.40293448e-12 2.19959671e-13 4.26259947e-12
1.73780083e+00 6.45846841e-12 3.97741492e-12 7.35534307e-14 2.40750006e-12 3.21693370e-13 3.97808929e-12
1.99526231e+00 7.49554896e-12 3.71210281e-12 5.57896256e-14 3.72765652e-12 4.10989740e-13 3.71256894e-12
2.29086765e+00 8.77079309e-12 3.46444974e-12 4.15109843e-14 5.26483236e-12 4.59703381e-13 3.46477093e-12
2.63026799e+00 1.00761506e-11 3.23328898e-12 3.04266284e-14 6.81243495e-12 4.68312045e-13 3.23351237e-12
3.01995172e+00 1.13064321e-11 3.01753196e-12 2.20783598e-14 8.26682173e-12 4.39081223e-13 3.01768933e-12
3.46736850e+00 1.24023539e-11 2.81615888e-12 1.55105988e-14 9.57068440e-12 3.81877923e-13 2.81627154e-12
3.98107171e+00 1.32861317e-11 2.62821584e-12 1.07643162e-14 1.06471515e-11 3.13419777e-13 2.62829753e-12
4.57088190e+00 1.38831657e-11 2.45280993e-12 7.31453362e-15 1.14230413e-11 2.40173380e-13 2.45286997e-12
5.24807460e+00 1.39347128e-11 2.02810763e-12 4.18324065e-15 1.19024220e-11 1.71626943e-13 2.02814751e-12
6.02559586e+00 1.35280672e-11 1.33996187e-12 1.83698478e-15 1.21862684e-11 1.16125842e-13 1.33998377e-12
6.70000000e+00 1.31993073e-11 9.74695248e-13 9.48535428e-16 1.22236635e-11 8.13778373e-14 9.74709347e-13
6.92422916e+00 1.30825773e-11 8.83037564e-13 7.57946270e-16 1.21987818e-11 7.22669917e-14 8.83049889e-13
7.15596261e+00 1.30025398e-11 7.99998907e-13 5.96311240e-16 1.22019446e-11 6.33765067e-14 8.00009879e-13
7.39545150e+00 1.30350375e-11 7.24768586e-13 4.54567758e-16 1.23098144e-11 5.43784222e-14 7.24778763e-13
7.64295536e+00 1.33474681e-11 6.56611706e-13 3.16520504e-16 1.26905399e-11 4.43554487e-14 6.56622211e-13
7.89874245e+00 1.40797309e-11 5.94862650e-13 1.91264583e-16 1.34846770e-11 3.39184278e-14 5.94874946e-13
8.16308998e+00 1.50988210e-11 5.38919213e-13 1.08913291e-16 1.45597929e-11 2.50543558e-14 5.38934254e-13
8.43628443e+00 1.62618122e-11 4.88235166e-13 5.75796203e-17 1.57735195e-11 1.78154537e-14 4.88254098e-13
8.71862190e+00 1.70903832e-11 4.42318714e-13 3.44041121e-17 1.66480301e-11 1.34816241e-14 4.42339790e-13
9.01040836e+00 1.77711246e-11 4.00720028e-13 1.95812561e-17 1.73703850e-11 1.00908122e-14 4.00743158e-13
9.31196005e+00 1.85076218e-11 3.63033876e-13 0.00000000e+00 1.81445879e-11 0.00000000e+00 3.63058180e-13
9.62360379e+00 1.84007863e-11 3.28894413e-13 0.00000000e+00 1.80718918e-11 0.00000000e+00 3.28917012e-13
9.94567731e+00 1.77991335e-11 2.97967191e-13 0.00000000e+00 1.75011663e-11 0.00000000e+00 2.97986401e-13
1.02785297e+01 1.72064579e-11 2.69948691e-13 0.00000000e+00 1.69365092e-11 0.00000000e+00 2.69964435e-13
1.06225216e+01 1.65489518e-11 2.44564826e-13 0.00000000e+00 1.63043870e-11 0.00000000e+00 2.44577592e-13
1.09780260e+01 1.59021140e-11 2.21568092e-13 0.00000000e+00 1.56805459e-11 0.00000000e+00 2.21578069e-13
1.13454280e+01 1.52056363e-11 2.00733541e-13 0.00000000e+00 1.50049027e-11 0.00000000e+00 2.00741370e-13
1.17251259e+01 1.46809268e-11 1.81857924e-13 0.00000000e+00 1.44990689e-11 0.00000000e+00 1.81864106e-13
1.21175312e+01 1.41436960e-11 1.64757160e-13 0.00000000e+00 1.39789389e-11 0.00000000e+00 1.64762018e-13
1.25230691e+01 1.35632988e-11 1.49264365e-13 0.00000000e+00 1.34140345e-11 0.00000000e+00 1.49268171e-13
1.29421791e+01 1.30643239e-11 1.35228327e-13 0.00000000e+00 1.29290955e-11 0.00000000e+00 1.35231331e-13
1.33753155e+01 1.24853007e-11 1.22512096e-13 0.00000000e+00 1.23627886e-11 0.00000000e+00 1.22514483e-13
1.38229477e+01 1.21072991e-11 1.10991514e-13 0.00000000e+00 1.19963075e-11 0.00000000e+00 1.10993499e-13
1.42855609e+01 1.18759351e-11 1.00554197e-13 0.00000000e+00 1.17753809e-11 0.00000000e+00 1.00555922e-13
1.47636563e+01 1.18732182e-11 9.10982339e-14 0.00000000e+00 1.17821200e-11 0.00000000e+00 9.10998706e-14
1.52577522e+01 1.19506253e-11 8.25314638e-14 0.00000000e+00 1.18680938e-11 0.00000000e+00 8.25330452e-14
1.57683840e+01 1.19444001e-11 7.47702771e-14 0.00000000e+00 1.18696298e-11 0.00000000e+00 7.47718247e-14
1.62961051e+01 1.20529780e-11 6.77389391e-14 0.00000000e+00 1.19852390e-11 0.00000000e+00 6.77404517e-14
1.68414875e+01 1.20389295e-11 6.13688180e-14 0.00000000e+00 1.19775607e-11 0.00000000e+00 6.13702932e-14
1.74051222e+01 1.19853033e-11 5.55977690e-14 0.00000000e+00 1.19297055e-11 0.00000000e+00 5.55991699e-14
1.79876201e+01 1.17205450e-11 5.03694420e-14 0.00000000e+00 1.16701755e-11 0.00000000e+00 5.03707500e-14
1.85896125e+01 1.14986009e-11 4.56328153e-14 0.00000000e+00 1.14529681e-11 0.00000000e+00 4.56339988e-14
1.92117518e+01 1.11957325e-11 4.13416414e-14 0.00000000e+00 1.11543909e-11 0.00000000e+00 4.13426810e-14
1.98547123e+01 1.07957697e-11 3.74540137e-14 0.00000000e+00 1.07583157e-11 0.00000000e+00 3.74549090e-14
2.05191907e+01 1.03839780e-11 3.39319710e-14 0.00000000e+00 1.03500461e-11 0.00000000e+00 3.39327342e-14
2.12059073e+01 9.90087487e-12 3.07411262e-14 0.00000000e+00 9.87013374e-12 0.00000000e+00 3.07417768e-14
2.19156062e+01 9.54576305e-12 2.78503325e-14 0.00000000e+00 9.51791272e-12 0.00000000e+00 2.78508898e-14
2.26490567e+01 9.05880766e-12 2.52313771e-14 0.00000000e+00 9.03357629e-12 0.00000000e+00 2.52318552e-14
2.34070535e+01 8.66117928e-12 2.28586978e-14 0.00000000e+00 8.63832058e-12 0.00000000e+00 2.28591087e-14
2.41904183e+01 8.21869251e-12 2.07091359e-14 0.00000000e+00 8.19798338e-12 0.00000000e+00 2.07094900e-14
2.50000000e+01 7.79159552e-12 1.87617107e-14 0.00000000e+00 7.77283381e-12 0.00000000e+00 1.87620165e-14
2.75422870e+01 6.57360075e-12 1.40311532e-14 0.00000000e+00 6.55956959e-12 0.00000000e+00 1.40313526e-14
3.16227766e+01 5.00603170e-12 9.27031317e-15 0.00000000e+00 4.99676138e-12 0.00000000e+00 9.27042274e-15
3.63078055e+01 3.60516175e-12 6.12484768e-15 0.00000000e+00 3.59903690e-12 0.00000000e+00 6.12490756e-15
4.16869383e+01 2.43909648e-12 4.04665444e-15 0.00000000e+00 2.43504983e-12 0.00000000e+00 4.04668630e-15
4.78630092e+01 1.55728516e-12 2.67360270e-15 0.00000000e+00 1.55461156e-12 0.00000000e+00 2.67361912e-15
5.49540874e+01 9.44092232e-13 1.76643435e-15 0.00000000e+00 9.42325798e-13 0.00000000e+00 1.76644264e-15
6.30957344e+01 5.48624804e-13 1.16707295e-15 0.00000000e+00 5.47457731e-13 0.00000000e+00 1.16707708e-15
7.24435960e+01 3.08688243e-13 7.71078136e-16 0.00000000e+00 3.07917165e-13 0.00000000e+00 7.71080178e-16
8.31763771e+01 1.69494567e-13 5.09446613e-16 0.00000000e+00 1.68985121e-13 0.00000000e+00 5.09447621e-16
9.54992586e+01 9.15744106e-14 3.36588206e-16 0.00000000e+00 9.12378224e-14 0.00000000e+00 3.36588705e-16
1.09647820e+02 4.89116607e-14 2.22381705e-16 0.00000000e+00 4.86892790e-14 0.00000000e+00 2.22381952e-16
1.25892541e+02 2.62194871e-14 1.46926174e-16 0.00000000e+00 2.60725609e-14 0.00000000e+00 1.46926299e-16
1.44543977e+02 1.40266596e-14 9.70731796e-17 0.00000000e+00 1.39295864e-14 0.00000000e+00 9.70732430e-17
1.65958691e+02 7.17785830e-15 6.41356245e-17 0.00000000e+00 7.11372268e-15 0.00000000e+00 6.41356556e-17
1.90546072e+02 3.68752276e-15 4.23739921e-17 0.00000000e+00 3.64514877e-15 0.00000000e+00 4.23740075e-17
2.18776162e+02 1.89781958e-15 2.79962214e-17 0.00000000e+00 1.86982335e-15 0.00000000e+00 2.79962291e-17
2.51188643e+02 9.76376067e-16 1.84969213e-17 0.00000000e+00 9.57879146e-16 0.00000000e+00 1.84969251e-17
2.88403150e+02 5.01589197e-16 1.22207953e-17 0.00000000e+00 4.89368402e-16 0.00000000e+00 1.22207972e-17
3.31131121e+02 2.57845169e-16 8.07419971e-18 0.00000000e+00 2.49770969e-16 0.00000000e+00 8.07420067e-18
3.80189396e+02 1.32524645e-16 5.33457100e-18 0.00000000e+00 1.27190074e-16 0.00000000e+00 5.33457148e-18
4.36515832e+02 6.82127324e-17 3.52451618e-18 0.00000000e+00 6.46882162e-17 0.00000000e+00 3.52451642e-18
5.01187234e+02 3.51765890e-17 2.32862479e-18 0.00000000e+00 3.28479643e-17 0.00000000e+00 2.32862491e-18
5.75439937e+02 1.81975538e-17 1.53850716e-18 0.00000000e+00 1.66590467e-17 0.00000000e+00 1.53850722e-18
6.60693448e+02 9.45583761e-18 1.01648161e-18 0.00000000e+00 8.43935601e-18 0.00000000e+00 1.01648164e-18
7.58577575e+02 4.94289837e-18 6.71582744e-19 0.00000000e+00 4.27131562e-18 0.00000000e+00 6.71582760e-19
8.70963590e+02 2.60316679e-18 4.43710321e-19 0.00000000e+00 2.15945647e-18 0.00000000e+00 4.43710329e-19
1.00000000e+03 1.09060221e-18 0.00000000e+00 0.00000000e+00 1.09060221e-18 0.00000000e+00 0.00000000e+00
