# column 1: lambda (micron)
# column 2: total flux; lambda*F_lambda (W/m2)
# column 3: direct stellar flux; lambda*F_lambda (W/m2)
# column 4: scattered stellar flux; lambda*F_lambda (W/m2)
# column 5: total dust emission flux; lambda*F_lambda (W/m2)
# column 6: dust emission scattered flux; lambda*F_lambda (W/m2)
# column 7: transparent flux; lambda*F_lambda (W/m2)
1.00000000e-03 1.07335770e-12 1.07335627e-12 1.43336671e-18 0.00000000e+00 0.00000000e+00 1.07335627e-12
1.14815362e-03 1.26690676e-12 1.26690456e-12 2.20438178e-18 0.00000000e+00 0.00000000e+00 1.26690456e-12
1.31825674e-03 1.49535701e-12 1.49535359e-12 3.42482999e-18 0.00000000e+00 0.00000000e+00 1.49535359e-12
1.51356125e-03 1.76500185e-12 1.76499670e-12 5.15139114e-18 0.00000000e+00 0.00000000e+00 1.76499670e-12
1.73780083e-03 2.08327127e-12 2.08326203e-12 9.23917253e-18 0.00000000e+00 0.00000000e+00 2.08326203e-12
1.99526231e-03 2.45893325e-12 2.45891716e-12 1.60872390e-17 0.00000000e+00 0.00000000e+00 2.45891716e-12
2.29086765e-03 2.90233570e-12 2.90231066e-12 2.50353102e-17 0.00000000e+00 0.00000000e+00 2.90231066e-12
2.63026799e-03 3.42570694e-12 3.42565717e-12 4.97686629e-17 0.00000000e+00 0.00000000e+00 3.42565717e-12
3.01995172e-03 4.04345732e-12 4.04337385e-12 8.34764119e-17 0.00000000e+00 0.00000000e+00 4.04337385e-12
3.46736850e-03 4.77261282e-12 4.77247759e-12 1.35227415e-16 0.00000000e+00 0.00000000e+00 4.77247759e-12
3.98107171e-03 5.63327023e-12 5.63305378e-12 2.16446941e-16 0.00000000e+00 0.00000000e+00 5.63305378e-12
4.57088190e-03 6.64931219e-12 6.64880962e-12 5.02567097e-16 0.00000000e+00 0.00000000e+00 6.64880962e-12
5.24807460e-03 7.84859846e-12 7.84772720e-12 8.71261025e-16 0.00000000e+00 0.00000000e+00 7.84772720e-12
6.02559586e-03 9.26442738e-12 9.26283435e-12 1.59302291e-15 0.00000000e+00 0.00000000e+00 9.26283435e-12
6.91830971e-03 1.09356333e-11 1.09331145e-11 2.51874144e-15 0.00000000e+00 0.00000000e+00 1.09331145e-11
7.94328235e-03 1.29087612e-11 1.29045807e-11 4.18053784e-15 0.00000000e+00 0.00000000e+00 1.29045807e-11
9.12010839e-03 1.52383642e-11 1.52315429e-11 6.82133126e-15 0.00000000e+00 0.00000000e+00 1.52315429e-11
1.04712855e-02 1.70372066e-11 1.70115517e-11 2.56548851e-14 0.00000000e+00 0.00000000e+00 1.70115517e-11
1.20226443e-02 1.70249685e-11 1.70115517e-11 1.34167649e-14 0.00000000e+00 0.00000000e+00 1.70115517e-11
1.38038426e-02 1.70323079e-11 1.70115517e-11 2.07561360e-14 6.77071121e-292 3.04658191e-292 1.70115517e-11
1.58489319e-02 1.70389700e-11 1.70115517e-11 2.74182868e-14 6.98352509e-255 2.57429725e-255 1.70115517e-11
1.81970086e-02 1.70502108e-11 1.70115517e-11 3.86590673e-14 1.27537832e-222 4.37138848e-223 1.70115517e-11
2.08929613e-02 1.70719771e-11 1.70115517e-11 6.04254156e-14 1.49243514e-194 4.71038005e-195 1.70115517e-11
2.39883292e-02 1.70834524e-11 1.70115517e-11 7.19007285e-14 4.16675941e-170 1.25106354e-170 1.70115517e-11
2.75422870e-02 1.71094797e-11 1.70115517e-11 9.79279980e-14 7.85010189e-149 2.12661219e-149 1.70115517e-11
3.16227766e-02 1.71309429e-11 1.70115517e-11 1.19391142e-13 2.54227267e-130 6.36521313e-131 1.70115517e-11
3.63078055e-02 1.71484167e-11 1.70115517e-11 1.36864977e-13 3.21158284e-114 7.43851475e-115 1.70115517e-11
4.16869383e-02 1.72015987e-11 1.70115517e-11 1.90046935e-13 3.32017255e-100 7.94743016e-101 1.70115517e-11
4.78630092e-02 1.72702591e-11 1.70115517e-11 2.58707426e-13 4.95439164e-88 1.24537421e-88 1.70115517e-11
5.49540874e-02 1.73304503e-11 1.70115517e-11 3.18898543e-13 1.81654268e-77 4.51602065e-78 1.70115517e-11
6.30957344e-02 1.73830961e-11 1.70115517e-11 3.71544348e-13 3.41172475e-68 8.78912708e-69 1.70115517e-11
7.24435960e-02 1.73615572e-11 1.70115517e-11 3.50005492e-13 3.72796258e-60 9.09336107e-61 1.70115517e-11
8.31763771e-02 1.73530519e-11 1.70115517e-11 3.41500161e-13 3.06286262e-53 7.06720359e-54 1.70115517e-11
9.54992586e-02 1.73703460e-11 1.70115517e-11 3.58794259e-13 3.03636971e-47 7.01851065e-48 1.70115517e-11
1.09647820e-01 1.66221787e-11 1.62459122e-11 3.76266535e-13 4.51905244e-42 1.07635413e-42 1.62459122e-11
1.25892541e-01 1.55027619e-11 1.51615674e-11 3.41194510e-13 1.34133148e-37 3.10629797e-38 1.51615674e-11
1.44543977e-01 1.44661245e-11 1.41495980e-11 3.16526566e-13 9.54055985e-34 2.09949780e-34 1.41495980e-11
1.65958691e-01 1.35389524e-11 1.32051732e-11 3.33779194e-13 1.55771757e-30 3.60147440e-31 1.32051732e-11
1.90546072e-01 1.26925645e-11 1.23237846e-11 3.68779817e-13 6.65296358e-28 1.73468451e-28 1.23237846e-11
2.18776162e-01 1.18628200e-11 1.15012250e-11 3.61595022e-13 1.06516991e-25 2.91836133e-26 1.15012250e-11
2.51188643e-01 1.11581893e-11 1.07335677e-11 4.24621560e-13 1.52780662e-23 4.82504824e-24 1.07335677e-11
2.88403150e-01 1.04119521e-11 1.00171482e-11 3.94803852e-13 1.09926763e-21 3.47138608e-22 1.00171482e-11
3.31131121e-01 9.70828634e-12 9.34854667e-12 3.59739627e-13 4.26225906e-20 1.33938015e-20 9.34854667e-12
3.80189396e-01 9.05548752e-12 8.72457139e-12 3.30915139e-13 9.91089674e-19 3.11712653e-19 8.72457139e-12
4.36515832e-01 8.44667137e-12 8.14224377e-12 3.04413045e-13 1.45529914e-17 4.57025493e-18 8.14224377e-12
5.01187234e-01 7.88573046e-12 7.59878402e-12 2.86802016e-13 1.44426567e-16 4.51036435e-17 7.59878402e-12
5.75439937e-01 7.35713478e-12 7.09159786e-12 2.64533210e-13 1.00370518e-15 3.08240750e-16 7.09159786e-12
6.60693448e-01 6.87081514e-12 6.61826421e-12 2.47383561e-13 5.16737023e-15 1.56264558e-15 6.61826421e-12
7.58577575e-01 6.41891416e-12 6.17652353e-12 2.21636871e-13 2.07537586e-14 6.09355189e-15 6.17652353e-12
8.70963590e-01 6.02783144e-12 5.76426715e-12 1.97202266e-13 6.63620207e-14 1.84188356e-14 5.76426715e-12
1.00000000e+00 5.72811917e-12 5.37952711e-12 1.71236396e-13 1.77355663e-13 4.59975227e-14 5.37952711e-12
1.14815362e+00 5.57145669e-12 5.02046681e-12 1.41700360e-13 4.09289514e-13 9.60876047e-14 5.02046681e-12
1.31825674e+00 5.62951295e-12 4.68537225e-12 1.11122264e-13 8.33018444e-13 1.71320584e-13 4.68537225e-12
1.51356125e+00 5.96770041e-12 4.37264380e-12 8.57444915e-14 1.50931212e-12 2.65402629e-13 4.37264380e-12
1.73780083e+00 6.57742659e-12 4.08078863e-12 6.70818243e-14 2.42955613e-12 3.54351912e-13 4.08078863e-12
1.99526231e+00 7.35554235e-12 3.80841354e-12 4.93244907e-14 3.49780432e-12 4.09906212e-13 3.80841354e-12
2.29086765e+00 8.12916220e-12 3.55421832e-12 3.62202731e-14 4.53872361e-12 4.18453662e-13 3.55421832e-12
2.63026799e+00 8.74866212e-12 3.31698953e-12 2.59653993e-14 5.40570719e-12 3.81983930e-13 3.31698953e-12
3.01995172e+00 9.14494109e-12 3.09559474e-12 1.84468483e-14 6.03089950e-12 3.22936179e-13 3.09559474e-12
3.46736850e+00 9.26052833e-12 2.88897711e-12 1.27629385e-14 6.35878828e-12 2.51260530e-13 2.88897711e-12
3.98107171e+00 9.08126263e-12 2.69615031e-12 8.74121785e-15 6.37637110e-12 1.83399540e-13 2.69615031e-12
4.57088190e+00 8.68373822e-12 2.51619387e-12 5.83418516e-15 6.16171016e-12 1.24872220e-13 2.51619387e-12
5.24807460e+00 7.91308264e-12 2.08050667e-12 3.29247658e-15 5.82928349e-12 7.98628934e-14 2.08050667e-12
6.02559586e+00 6.81975068e-12 1.37457712e-12 1.43169762e-15 5.44374186e-12 4.85885381e-14 1.37457712e-12
6.70000000e+00 6.12540974e-12 9.99872685e-13 7.23437500e-16 5.12481362e-12 3.17480963e-14 9.99872685e-13
6.92422916e+00 5.93828974e-12 9.05846924e-13 5.91379873e-16 5.03185144e-12 2.76771466e-14 9.05846924e-13
7.15596261e+00 5.78576786e-12 8.20663132e-13 4.63505273e-16 4.96464123e-12 2.37363694e-14 8.20663132e-13
7.39545150e+00 5.73965574e-12 7.43489831e-13 3.58531530e-16 4.99580738e-12 2.03893663e-14 7.43489831e-13
7.64295536e+00 5.97096398e-12 6.73573732e-13 2.51039277e-16 5.29713921e-12 1.71134565e-14 6.73573732e-13
7.89874245e+00 6.56430621e-12 6.10232385e-13 1.54651784e-16 5.95391918e-12 1.37330459e-14 6.10232385e-13
8.16308998e+00 7.41345691e-12 5.52847515e-13 9.08937023e-17 6.86051850e-12 1.08766834e-14 5.52847515e-13
8.43628443e+00 8.49540818e-12 5.00858987e-13 5.05715632e-17 7.99449862e-12 8.28266185e-15 5.00858987e-13
8.71862190e+00 9.19811572e-12 4.53759343e-13 3.18153735e-17 8.74432456e-12 6.52242337e-15 4.53759343e-13
9.01040836e+00 9.86903477e-12 4.11088843e-13 2.01983735e-17 9.45792573e-12 5.07007131e-15 4.11088843e-13
9.31196005e+00 1.03247072e-11 3.72430980e-13 0.00000000e+00 9.95227620e-12 0.00000000e+00 3.72430980e-13
9.62360379e+00 1.02251344e-11 3.37408415e-13 0.00000000e+00 9.88772594e-12 0.00000000e+00 3.37408415e-13
9.94567731e+00 9.65955118e-12 3.05679292e-13 0.00000000e+00 9.35387189e-12 0.00000000e+00 3.05679292e-13
1.02785297e+01 9.03986690e-12 2.76933904e-13 0.00000000e+00 8.76293300e-12 0.00000000e+00 2.76933904e-13
1.06225216e+01 8.43864518e-12 2.50891667e-13 0.00000000e+00 8.18775351e-12 0.00000000e+00 2.50891667e-13
1.09780260e+01 7.81318347e-12 2.27298384e-13 0.00000000e+00 7.58588509e-12 0.00000000e+00 2.27298384e-13
1.13454280e+01 7.20920805e-12 2.05923759e-13 0.00000000e+00 7.00328429e-12 0.00000000e+00 2.05923759e-13
1.17251259e+01 6.72966043e-12 1.86559155e-13 0.00000000e+00 6.54310127e-12 0.00000000e+00 1.86559155e-13
1.21175312e+01 6.26001428e-12 1.69015555e-13 0.00000000e+00 6.09099873e-12 0.00000000e+00 1.69015555e-13
1.25230691e+01 5.84044706e-12 1.53121715e-13 0.00000000e+00 5.68732535e-12 0.00000000e+00 1.53121715e-13
1.29421791e+01 5.47501472e-12 1.38722496e-13 0.00000000e+00 5.33629222e-12 0.00000000e+00 1.38722496e-13
1.33753155e+01 5.17963418e-12 1.25677347e-13 0.00000000e+00 5.05395683e-12 0.00000000e+00 1.25677347e-13
1.38229477e+01 4.98587983e-12 1.13858934e-13 0.00000000e+00 4.87202090e-12 0.00000000e+00 1.13858934e-13
1.42855609e+01 4.89798322e-12 1.03151898e-13 0.00000000e+00 4.79483132e-12 0.00000000e+00 1.03151898e-13
1.47636563e+01 5.00469051e-12 9.34517274e-14 0.00000000e+00 4.91123878e-12 0.00000000e+00 9.34517274e-14
1.52577522e+01 5.17532375e-12 8.46637387e-14 0.00000000e+00 5.09066001e-12 0.00000000e+00 8.46637387e-14
1.57683840e+01 5.38587352e-12 7.67021526e-14 0.00000000e+00 5.30917136e-12 0.00000000e+00 7.67021526e-14
1.62961051e+01 5.59921157e-12 6.94892560e-14 0.00000000e+00 5.52972231e-12 0.00000000e+00 6.94892560e-14
1.68414875e+01 5.80533203e-12 6.29546439e-14 0.00000000e+00 5.74237738e-12 0.00000000e+00 6.29546439e-14
1.74051222e+01 5.96394338e-12 5.70345319e-14 0.00000000e+00 5.90690884e-12 0.00000000e+00 5.70345319e-14
1.79876201e+01 6.09127250e-12 5.16711337e-14 0.00000000e+00 6.03960136e-12 0.00000000e+00 5.16711337e-14
1.85896125e+01 6.15465591e-12 4.68120974e-14 0.00000000e+00 6.10784381e-12 0.00000000e+00 4.68120974e-14
1.92117518e+01 6.10382423e-12 4.24099939e-14 0.00000000e+00 6.06141424e-12 0.00000000e+00 4.24099939e-14
1.98547123e+01 6.06252247e-12 3.84218542e-14 0.00000000e+00 6.02410062e-12 0.00000000e+00 3.84218542e-14
2.05191907e+01 5.98625067e-12 3.48087501e-14 0.00000000e+00 5.95144192e-12 0.00000000e+00 3.48087501e-14
2.12059073e+01 5.90149455e-12 3.15354141e-14 0.00000000e+00 5.86995913e-12 0.00000000e+00 3.15354141e-14
2.19156062e+01 5.82724959e-12 2.85698952e-14 0.00000000e+00 5.79867969e-12 0.00000000e+00 2.85698952e-14
2.26490567e+01 5.73862516e-12 2.58832470e-14 0.00000000e+00 5.71274192e-12 0.00000000e+00 2.58832470e-14
2.34070535e+01 5.63978775e-12 2.34492452e-14 0.00000000e+00 5.61633851e-12 0.00000000e+00 2.34492452e-14
2.41904183e+01 5.54839386e-12 2.12441313e-14 0.00000000e+00 5.52714973e-12 0.00000000e+00 2.12441313e-14
2.50000000e+01 5.45250724e-12 1.92463813e-14 0.00000000e+00 5.43326086e-12 0.00000000e+00 1.92463813e-14
2.75422870e+01 5.12242925e-12 1.43935895e-14 0.00000000e+00 5.10803566e-12 0.00000000e+00 1.43935895e-14
3.16227766e+01 4.49466502e-12 9.50975027e-15 0.00000000e+00 4.48515527e-12 0.00000000e+00 9.50975027e-15
3.63078055e+01 3.70444798e-12 6.28302969e-15 0.00000000e+00 3.69816495e-12 0.00000000e+00 6.28302969e-15
4.16869383e+01 2.83426699e-12 4.15115655e-15 0.00000000e+00 2.83011583e-12 0.00000000e+00 4.15115655e-15
4.78630092e+01 2.01001753e-12 2.74264194e-15 0.00000000e+00 2.00727489e-12 0.00000000e+00 2.74264194e-15
5.49540874e+01 1.33793274e-12 1.81204556e-15 0.00000000e+00 1.33612070e-12 0.00000000e+00 1.81204556e-15
6.30957344e+01 8.47205215e-13 1.19720663e-15 0.00000000e+00 8.46008009e-13 0.00000000e+00 1.19720663e-15
7.24435960e+01 5.13125371e-13 7.90986575e-16 0.00000000e+00 5.12334384e-13 0.00000000e+00 7.90986575e-16
8.31763771e+01 3.00936232e-13 5.22599647e-16 0.00000000e+00 3.00413632e-13 0.00000000e+00 5.22599647e-16
9.54992586e+01 1.72232088e-13 3.45278163e-16 0.00000000e+00 1.71886810e-13 0.00000000e+00 3.45278163e-16
1.09647820e+02 9.67918405e-14 2.28123020e-16 0.00000000e+00 9.65637174e-14 0.00000000e+00 2.28123020e-16
1.25892541e+02 5.42148265e-14 1.50719385e-16 0.00000000e+00 5.40641071e-14 0.00000000e+00 1.50719385e-16
1.44543977e+02 3.01221715e-14 9.95793099e-17 0.00000000e+00 3.00225922e-14 0.00000000e+00 9.95793099e-17
1.65958691e+02 1.59273072e-14 6.57913976e-17 0.00000000e+00 1.58615158e-14 0.00000000e+00 6.57913976e-17
1.90546072e+02 8.41507606e-15 4.34679453e-17 0.00000000e+00 8.37160812e-15 0.00000000e+00 4.34679453e-17
2.18776162e+02 4.43388179e-15 2.87189867e-17 0.00000000e+00 4.40516281e-15 0.00000000e+00 2.87189867e-17
2.51188643e+02 2.32588676e-15 1.89744463e-17 0.00000000e+00 2.30691231e-15 0.00000000e+00 1.89744463e-17
2.88403150e+02 1.21405252e-15 1.25362924e-17 0.00000000e+00 1.20151623e-15 0.00000000e+00 1.25362924e-17
3.31131121e+02 6.31750455e-16 8.28264623e-18 0.00000000e+00 6.23467809e-16 0.00000000e+00 8.28264623e-18
3.80189396e+02 3.27529055e-16 5.47229010e-18 0.00000000e+00 3.22056765e-16 0.00000000e+00 5.47229010e-18
4.36515832e+02 1.69462334e-16 3.61550621e-18 0.00000000e+00 1.65846828e-16 0.00000000e+00 3.61550621e-18
5.01187234e+02 8.75157007e-17 2.38874127e-18 0.00000000e+00 8.51269594e-17 0.00000000e+00 2.38874127e-18
5.75439937e+02 4.51538582e-17 1.57822570e-18 0.00000000e+00 4.35756324e-17 0.00000000e+00 1.57822570e-18
6.60693448e+02 2.32971280e-17 1.04272338e-18 0.00000000e+00 2.22544046e-17 0.00000000e+00 1.04272338e-18
7.58577575e+02 1.20313120e-17 6.88920507e-19 0.00000000e+00 1.13423915e-17 0.00000000e+00 6.88920507e-19
8.70963590e+02 6.22446262e-18 4.55165265e-19 0.00000000e+00 5.76929736e-18 0.00000000e+00 4.55165265e-19
1.00000000e+03 2.92907143e-18 0.00000000e+00 0.00000000e+00 2.92907143e-18 0.00000000e+00 0.00000000e+00
