# column 1: lambda (micron)
# column 2: total flux; lambda*F_lambda (W/m2)
# column 3: direct stellar flux; lambda*F_lambda (W/m2)
# column 4: scattered stellar flux; lambda*F_lambda (W/m2)
# column 5: total dust emission flux; lambda*F_lambda (W/m2)
# column 6: dust emission scattered flux; lambda*F_lambda (W/m2)
# column 7: transparent flux; lambda*F_lambda (W/m2)
1.00000000e-03 8.46536773e-13 8.46529401e-13 7.37171421e-18 0.00000000e+00 0.00000000e+00 8.46529401e-13
1.14815362e-03 9.99186913e-13 9.99176121e-13 1.07922206e-17 0.00000000e+00 0.00000000e+00 9.99176121e-13
1.31825674e-03 1.17936458e-12 1.17934819e-12 1.63843106e-17 0.00000000e+00 0.00000000e+00 1.17934819e-12
1.51356125e-03 1.39203424e-12 1.39200901e-12 2.52309430e-17 0.00000000e+00 0.00000000e+00 1.39200901e-12
1.73780083e-03 1.64306149e-12 1.64301696e-12 4.45288493e-17 0.00000000e+00 0.00000000e+00 1.64301696e-12
1.99526231e-03 1.93936666e-12 1.93928682e-12 7.98432115e-17 0.00000000e+00 0.00000000e+00 1.93928682e-12
2.29086765e-03 2.28909699e-12 2.28898025e-12 1.16740661e-16 0.00000000e+00 0.00000000e+00 2.28898025e-12
2.63026799e-03 2.70201453e-12 2.70173063e-12 2.83903120e-16 0.00000000e+00 0.00000000e+00 2.70173063e-12
3.01995172e-03 3.19111802e-12 3.18890841e-12 2.20960651e-15 0.00000000e+00 0.00000000e+00 3.18890841e-12
3.46736850e-03 3.76603361e-12 3.76393440e-12 2.09920722e-15 0.00000000e+00 0.00000000e+00 3.76393440e-12
3.98107171e-03 4.44482605e-12 4.44264945e-12 2.17660075e-15 0.00000000e+00 0.00000000e+00 4.44264945e-12
4.57088190e-03 5.25582627e-12 5.24375082e-12 1.20754495e-14 0.00000000e+00 0.00000000e+00 5.24375082e-12
5.24807460e-03 6.19489092e-12 6.18930730e-12 5.58361995e-15 0.00000000e+00 0.00000000e+00 6.18930730e-12
6.02559586e-03 7.31544144e-12 7.30536713e-12 1.00743069e-14 0.00000000e+00 0.00000000e+00 7.30536713e-12
6.91830971e-03 8.64716893e-12 8.62267558e-12 2.44933525e-14 0.00000000e+00 0.00000000e+00 8.62267558e-12
7.94328235e-03 1.02158476e-11 1.01775219e-11 3.83256949e-14 3.71120650e-303 9.80829027e-305 1.01775219e-11
9.12010839e-03 1.21362647e-11 1.20127391e-11 1.23525562e-13 1.69864741e-264 5.36637259e-266 1.20127391e-11
1.04712855e-02 1.34842826e-11 1.34165878e-11 6.76947526e-14 7.39149049e-231 1.91412100e-232 1.34165878e-11
1.20226443e-02 1.35583017e-11 1.34165878e-11 1.41713880e-13 1.23183519e-201 7.17321050e-203 1.34165878e-11
1.38038426e-02 1.35315622e-11 1.34165878e-11 1.14974394e-13 3.43781657e-176 1.99310971e-177 1.34165878e-11
1.58489319e-02 1.36300511e-11 1.34165878e-11 2.13463297e-13 4.79973927e-154 3.35807958e-155 1.34165878e-11
1.81970086e-02 1.36485337e-11 1.34165878e-11 2.31945882e-13 8.75704432e-135 6.60804579e-136 1.34165878e-11
2.08929613e-02 1.37065944e-11 1.34165878e-11 2.90006605e-13 4.64767433e-118 3.57398939e-119 1.34165878e-11
2.39883292e-02 1.37570117e-11 1.34165878e-11 3.40423842e-13 1.65186339e-103 1.34079212e-104 1.34165878e-11
2.75422870e-02 1.38219957e-11 1.34165878e-11 4.05407903e-13 7.47243431e-91 6.23473661e-92 1.34165878e-11
3.16227766e-02 1.38750076e-11 1.34165878e-11 4.58419755e-13 7.32418349e-80 6.06536242e-81 1.34165878e-11
3.63078055e-02 1.38942377e-11 1.34165878e-11 4.77649848e-13 2.55156448e-70 2.07284383e-71 1.34165878e-11
4.16869383e-02 1.39473259e-11 1.34165878e-11 5.30738107e-13 4.89881911e-62 4.30616911e-63 1.34165878e-11
4.78630092e-02 1.39402159e-11 1.34165878e-11 5.23628096e-13 7.33770274e-55 6.38138418e-56 1.34165878e-11
5.49540874e-02 1.39283611e-11 1.34165878e-11 5.11773267e-13 1.21340938e-48 1.08817313e-49 1.34165878e-11
6.30957344e-02 1.38779999e-11 1.34165878e-11 4.61412064e-13 3.81085104e-43 3.21519438e-44 1.34165878e-11
7.24435960e-02 1.37953574e-11 1.34165878e-11 3.78769548e-13 2.14945264e-38 1.57976890e-39 1.34165878e-11
8.31763771e-02 1.37821854e-11 1.34165878e-11 3.65597539e-13 2.21140447e-34 1.60389947e-35 1.34165878e-11
9.54992586e-02 1.37971643e-11 1.34165878e-11 3.80576435e-13 6.31126875e-31 4.73854401e-32 1.34165878e-11
1.09647820e-01 1.32292805e-11 1.28127470e-11 4.16533568e-13 5.49345405e-28 4.60501116e-29 1.28127470e-11
1.25892541e-01 1.23891529e-11 1.19575512e-11 4.31601733e-13 1.82456275e-25 1.60682255e-26 1.19575512e-11
1.44543977e-01 1.15780186e-11 1.11594361e-11 4.18582483e-13 2.53948066e-23 2.24836526e-24 1.11594361e-11
1.65958691e-01 1.08388825e-11 1.04145917e-11 4.24290754e-13 1.30892560e-21 1.27908542e-22 1.04145917e-11
1.90546072e-01 1.01505837e-11 9.71946251e-12 4.31121170e-13 2.75446703e-20 3.02027628e-21 9.71946251e-12
2.18776162e-01 9.44024336e-12 9.07073019e-12 3.69512850e-13 3.20648628e-19 3.47728629e-20 9.07073019e-12
2.51188643e-01 8.89196192e-12 8.46529796e-12 4.26659941e-13 4.01226802e-18 5.33506435e-19 8.46529796e-12
2.88403150e-01 8.31207070e-12 7.90027573e-12 4.11760927e-13 3.40425586e-17 4.54931591e-18 7.90027573e-12
3.31131121e-01 7.76388464e-12 7.37296631e-12 3.90720554e-13 1.97785587e-16 2.63924194e-17 7.37296631e-12
3.80189396e-01 7.24811938e-12 6.88085251e-12 3.66435502e-13 8.31364672e-16 1.08595871e-16 6.88085251e-12
4.36515832e-01 6.76256187e-12 6.42158520e-12 3.38310879e-13 2.66579348e-15 3.43768098e-16 6.42158520e-12
5.01187234e-01 6.31522874e-12 5.99297201e-12 3.15420838e-13 6.83589483e-15 9.17239687e-16 5.99297201e-12
5.75439937e-01 5.89623023e-12 5.59296690e-12 2.88372455e-13 1.48908740e-14 2.10984603e-15 5.59296690e-12
6.60693448e-01 5.51691405e-12 5.21966041e-12 2.67050857e-13 3.02027826e-14 5.04092555e-15 5.21966041e-12
7.58577575e-01 5.17375570e-12 4.87127053e-12 2.39959692e-13 6.25254823e-14 1.27281152e-14 4.87127053e-12
8.70963590e-01 4.89669368e-12 4.54613417e-12 2.12770954e-13 1.37788553e-13 3.27193738e-14 4.54613417e-12
1.00000000e+00 4.73127174e-12 4.24269927e-12 1.84911616e-13 3.03660853e-13 7.69371401e-14 4.24269927e-12
1.14815362e+00 4.75799456e-12 3.95951734e-12 1.52174381e-13 6.46302836e-13 1.56185773e-13 3.95951734e-12
1.31825674e+00 5.09615962e-12 3.69523659e-12 1.22414820e-13 1.27850821e-12 2.78218145e-13 3.69523659e-12
1.51356125e+00 5.83096765e-12 3.44859544e-12 9.81515778e-14 2.28422063e-12 4.33022292e-13 3.44859544e-12
1.73780083e+00 6.96326553e-12 3.21841652e-12 7.67507930e-14 3.66809821e-12 5.87082584e-13 3.21841652e-12
1.99526231e+00 8.28333412e-12 3.00360106e-12 5.89856423e-14 5.22074742e-12 6.78761073e-13 3.00360106e-12
2.29086765e+00 9.64852761e-12 2.80312361e-12 4.39981644e-14 6.80140583e-12 7.03672406e-13 2.80312361e-12
2.63026799e+00 1.08057801e-11 2.61602716e-12 3.25004585e-14 8.15725246e-12 6.58445458e-13 2.61602716e-12
3.01995172e+00 1.15807907e-11 2.44141860e-12 2.37376896e-14 9.11563445e-12 5.63994470e-13 2.44141860e-12
3.46736850e+00 1.20457969e-11 2.27846441e-12 1.66208735e-14 9.75071157e-12 4.55880410e-13 2.27846441e-12
3.98107171e+00 1.21803844e-11 2.12638671e-12 1.13141849e-14 1.00426835e-11 3.42823302e-13 2.12638671e-12
4.57088190e+00 1.19085412e-11 1.98445954e-12 7.62388192e-15 9.91645782e-12 2.36040354e-13 1.98445954e-12
5.24807460e+00 1.12779110e-11 1.64084388e-12 4.24124736e-15 9.63282587e-12 1.51540324e-13 1.64084388e-12
6.02559586e+00 1.02979271e-11 1.08409480e-12 1.83234633e-15 9.21199996e-12 9.24489098e-14 1.08409480e-12
6.70000000e+00 9.57726282e-12 7.88574724e-13 9.34851460e-16 8.78775324e-12 5.99232042e-14 7.88574724e-13
6.92422916e+00 9.35703099e-12 7.14418944e-13 7.53434651e-16 8.64185861e-12 5.21092691e-14 7.14418944e-13
7.15596261e+00 9.17848468e-12 6.47236606e-13 5.94787495e-16 8.53065329e-12 4.47134142e-14 6.47236606e-13
7.39545150e+00 9.16165319e-12 5.86371942e-13 4.52000732e-16 8.57482924e-12 3.80978242e-14 5.86371942e-13
7.64295536e+00 9.48837253e-12 5.31230854e-13 3.21208096e-16 8.95682047e-12 3.20531427e-14 5.31230854e-13
7.89874245e+00 1.02443208e-11 4.81275108e-13 1.99948407e-16 9.76284570e-12 2.57945776e-14 4.81275108e-13
8.16308998e+00 1.12117807e-11 4.36017088e-13 1.17871520e-16 1.07756458e-11 2.02051889e-14 4.36017088e-13
8.43628443e+00 1.22603469e-11 3.95015029e-13 6.51104692e-17 1.18652667e-11 1.49609176e-14 3.95015029e-13
8.71862190e+00 1.29854034e-11 3.57868711e-13 4.00693578e-17 1.26274946e-11 1.16885330e-14 3.57868711e-13
9.01040836e+00 1.34656164e-11 3.24215549e-13 2.33699747e-17 1.31413775e-11 8.49097080e-15 3.24215549e-13
9.31196005e+00 1.37294313e-11 2.93727053e-13 0.00000000e+00 1.34357042e-11 0.00000000e+00 2.93727053e-13
9.62360379e+00 1.35961345e-11 2.66105627e-13 0.00000000e+00 1.33300288e-11 0.00000000e+00 2.66105627e-13
9.94567731e+00 1.30488402e-11 2.41081657e-13 0.00000000e+00 1.28077585e-11 0.00000000e+00 2.41081657e-13
1.02785297e+01 1.24229382e-11 2.18410884e-13 0.00000000e+00 1.22045273e-11 0.00000000e+00 2.18410884e-13
1.06225216e+01 1.19318594e-11 1.97872020e-13 0.00000000e+00 1.17339874e-11 0.00000000e+00 1.97872020e-13
1.09780260e+01 1.13002061e-11 1.79264583e-13 0.00000000e+00 1.11209415e-11 0.00000000e+00 1.79264583e-13
1.13454280e+01 1.06789858e-11 1.62406948e-13 0.00000000e+00 1.05165789e-11 0.00000000e+00 1.62406948e-13
1.17251259e+01 1.01510420e-11 1.47134567e-13 0.00000000e+00 1.00039074e-11 0.00000000e+00 1.47134567e-13
1.21175312e+01 9.65628456e-12 1.33298366e-13 0.00000000e+00 9.52298620e-12 0.00000000e+00 1.33298366e-13
1.25230691e+01 9.12302518e-12 1.20763289e-13 0.00000000e+00 9.00226189e-12 0.00000000e+00 1.20763289e-13
1.29421791e+01 8.68134103e-12 1.09406983e-13 0.00000000e+00 8.57193405e-12 0.00000000e+00 1.09406983e-13
1.33753155e+01 8.21917860e-12 9.91185987e-14 0.00000000e+00 8.12006000e-12 0.00000000e+00 9.91185987e-14
1.38229477e+01 7.91962843e-12 8.97977103e-14 0.00000000e+00 7.82983072e-12 0.00000000e+00 8.97977103e-14
1.42855609e+01 7.73823377e-12 8.13533371e-14 0.00000000e+00 7.65688043e-12 0.00000000e+00 8.13533371e-14
1.47636563e+01 7.86045123e-12 7.37030537e-14 0.00000000e+00 7.78674818e-12 0.00000000e+00 7.37030537e-14
1.52577522e+01 8.00888234e-12 6.67721855e-14 0.00000000e+00 7.94211016e-12 0.00000000e+00 6.67721855e-14
1.57683840e+01 8.19717056e-12 6.04930805e-14 0.00000000e+00 8.13667748e-12 0.00000000e+00 6.04930805e-14
1.62961051e+01 8.40049391e-12 5.48044484e-14 0.00000000e+00 8.34568946e-12 0.00000000e+00 5.48044484e-14
1.68414875e+01 8.59252602e-12 4.96507622e-14 0.00000000e+00 8.54287526e-12 0.00000000e+00 4.96507622e-14
1.74051222e+01 8.70131156e-12 4.49817171e-14 0.00000000e+00 8.65632985e-12 0.00000000e+00 4.49817171e-14
1.79876201e+01 8.76300391e-12 4.07517384e-14 0.00000000e+00 8.72225217e-12 0.00000000e+00 4.07517384e-14
1.85896125e+01 8.70468352e-12 3.69195372e-14 0.00000000e+00 8.66776398e-12 0.00000000e+00 3.69195372e-14
1.92117518e+01 8.56422778e-12 3.34477076e-14 0.00000000e+00 8.53078007e-12 0.00000000e+00 3.34477076e-14
1.98547123e+01 8.37010911e-12 3.03023610e-14 0.00000000e+00 8.33980674e-12 0.00000000e+00 3.03023610e-14
2.05191907e+01 8.09530867e-12 2.74527957e-14 0.00000000e+00 8.06785587e-12 0.00000000e+00 2.74527957e-14
2.12059073e+01 7.85532876e-12 2.48711970e-14 0.00000000e+00 7.83045757e-12 0.00000000e+00 2.48711970e-14
2.19156062e+01 7.60881070e-12 2.25323660e-14 0.00000000e+00 7.58627834e-12 0.00000000e+00 2.25323660e-14
2.26490567e+01 7.33092569e-12 2.04134733e-14 0.00000000e+00 7.31051222e-12 0.00000000e+00 2.04134733e-14
2.34070535e+01 7.08970850e-12 1.84938366e-14 0.00000000e+00 7.07121466e-12 0.00000000e+00 1.84938366e-14
2.41904183e+01 6.80973356e-12 1.67547181e-14 0.00000000e+00 6.79297884e-12 0.00000000e+00 1.67547181e-14
2.50000000e+01 6.54468482e-12 1.51791424e-14 0.00000000e+00 6.52950567e-12 0.00000000e+00 1.51791424e-14
2.75422870e+01 5.74192824e-12 1.13518661e-14 0.00000000e+00 5.73057638e-12 0.00000000e+00 1.13518661e-14
3.16227766e+01 4.58765510e-12 7.50010357e-15 0.00000000e+00 4.58015500e-12 0.00000000e+00 7.50010357e-15
3.63078055e+01 3.43594389e-12 4.95526929e-15 0.00000000e+00 3.43098862e-12 0.00000000e+00 4.95526929e-15
4.16869383e+01 2.39642505e-12 3.27391395e-15 0.00000000e+00 2.39315114e-12 0.00000000e+00 3.27391395e-15
4.78630092e+01 1.55931736e-12 2.16305350e-15 0.00000000e+00 1.55715430e-12 0.00000000e+00 2.16305350e-15
5.49540874e+01 9.59302955e-13 1.42911527e-15 0.00000000e+00 9.57873840e-13 0.00000000e+00 1.42911527e-15
6.30957344e+01 5.65019448e-13 9.44207098e-16 0.00000000e+00 5.64075241e-13 0.00000000e+00 9.44207098e-16
7.24435960e+01 3.21995889e-13 6.23831443e-16 0.00000000e+00 3.21372058e-13 0.00000000e+00 6.23831443e-16
8.31763771e+01 1.78971540e-13 4.12161347e-16 0.00000000e+00 1.78559379e-13 0.00000000e+00 4.12161347e-16
9.54992586e+01 9.79091438e-14 2.72312302e-16 0.00000000e+00 9.76368315e-14 0.00000000e+00 2.72312302e-16
1.09647820e+02 5.29456453e-14 1.79914953e-16 0.00000000e+00 5.27657304e-14 0.00000000e+00 1.79914953e-16
1.25892541e+02 2.87202065e-14 1.18868631e-16 0.00000000e+00 2.86013379e-14 0.00000000e+00 1.18868631e-16
1.44543977e+02 1.55373045e-14 7.85357256e-17 0.00000000e+00 1.54587688e-14 0.00000000e+00 7.85357256e-17
1.65958691e+02 8.02247154e-15 5.18880394e-17 0.00000000e+00 7.97058351e-15 0.00000000e+00 5.18880394e-17
1.90546072e+02 4.15579193e-15 3.42820876e-17 0.00000000e+00 4.12150984e-15 0.00000000e+00 3.42820876e-17
2.18776162e+02 2.15449612e-15 2.26499507e-17 0.00000000e+00 2.13184617e-15 0.00000000e+00 2.26499507e-17
2.51188643e+02 1.11539493e-15 1.49646740e-17 0.00000000e+00 1.10043025e-15 0.00000000e+00 1.49646740e-17
2.88403150e+02 5.75936127e-16 9.88706207e-18 0.00000000e+00 5.66049065e-16 0.00000000e+00 9.88706207e-18
3.31131121e+02 2.97179058e-16 6.53231713e-18 0.00000000e+00 2.90646740e-16 0.00000000e+00 6.53231713e-18
3.80189396e+02 1.53103063e-16 4.31585913e-18 0.00000000e+00 1.48787203e-16 0.00000000e+00 4.31585913e-18
4.36515832e+02 7.88821533e-17 2.85145985e-18 0.00000000e+00 7.60306935e-17 0.00000000e+00 2.85145985e-18
5.01187234e+02 4.06518922e-17 1.88394084e-18 0.00000000e+00 3.87679514e-17 0.00000000e+00 1.88394084e-18
5.75439937e+02 2.09779407e-17 1.24470737e-18 0.00000000e+00 1.97332333e-17 0.00000000e+00 1.24470737e-18
6.60693448e+02 1.08512617e-17 8.22370004e-19 0.00000000e+00 1.00288917e-17 0.00000000e+00 8.22370004e-19
7.58577575e+02 5.63340459e-18 5.43334473e-19 0.00000000e+00 5.09007012e-18 0.00000000e+00 5.43334473e-19
8.70963590e+02 2.93871421e-18 3.58977527e-19 0.00000000e+00 2.57973668e-18 0.00000000e+00 3.58977527e-19
1.00000000e+03 1.30566753e-18 0.00000000e+00 0.00000000e+00 1.30566753e-18 0.00000000e+00 0.00000000e+00
