# column 1: lambda (micron)
# column 2: total flux; lambda*F_lambda (W/m2)
# column 3: direct stellar flux; lambda*F_lambda (W/m2)
# column 4: scattered stellar flux; lambda*F_lambda (W/m2)
# column 5: total dust emission flux; lambda*F_lambda (W/m2)
# column 6: dust emission scattered flux; lambda*F_lambda (W/m2)
# column 7: transparent flux; lambda*F_lambda (W/m2)
1.00000000e-03 5.25010371e-13 5.25010247e-13 1.23979413e-19 0.00000000e+00 0.00000000e+00 5.25636674e-13
1.14815362e-03 6.19443354e-13 6.19443155e-13 1.98901789e-19 0.00000000e+00 0.00000000e+00 6.20419813e-13
1.31825674e-03 7.30829278e-13 7.30828972e-13 3.05726873e-19 0.00000000e+00 0.00000000e+00 7.32294308e-13
1.51356125e-03 8.62306459e-13 8.62303343e-13 3.11594159e-18 0.00000000e+00 0.00000000e+00 8.64342083e-13
1.73780083e-03 1.01778664e-12 1.01776959e-12 1.70487367e-17 0.00000000e+00 0.00000000e+00 1.02020080e-12
1.99526231e-03 1.20037096e-12 1.20036092e-12 1.00347334e-17 0.00000000e+00 0.00000000e+00 1.20416405e-12
2.29086765e-03 1.41664181e-12 1.41653998e-12 1.01826315e-16 0.00000000e+00 0.00000000e+00 1.42129968e-12
2.63026799e-03 1.67089275e-12 1.67085926e-12 3.34937536e-17 0.00000000e+00 0.00000000e+00 1.67758934e-12
3.01995172e-03 1.97047002e-12 1.97027341e-12 1.96615739e-16 0.00000000e+00 0.00000000e+00 1.98009332e-12
3.46736850e-03 2.32404649e-12 2.32348952e-12 5.56971935e-16 0.00000000e+00 0.00000000e+00 2.33714500e-12
3.98107171e-03 2.75398599e-12 2.74013879e-12 1.38471988e-14 0.00000000e+00 0.00000000e+00 2.75858048e-12
4.57088190e-03 3.24188160e-12 3.24147359e-12 4.08015478e-16 0.00000000e+00 0.00000000e+00 3.25600946e-12
5.24807460e-03 3.82599862e-12 3.82123518e-12 4.76344259e-15 0.00000000e+00 0.00000000e+00 3.84313516e-12
6.02559586e-03 4.50696390e-12 4.50498264e-12 1.98125486e-15 0.00000000e+00 0.00000000e+00 4.53613173e-12
6.91830971e-03 5.31552991e-12 5.31167963e-12 3.85027874e-15 0.00000000e+00 0.00000000e+00 5.35408989e-12
7.94328235e-03 6.28389350e-12 6.26372097e-12 2.01725287e-14 1.90573534e-303 2.45422384e-304 6.31954278e-12
9.12010839e-03 7.41182630e-12 7.38600692e-12 2.58193843e-14 9.14916018e-265 1.28238848e-265 7.45908676e-12
1.04712855e-02 8.26632927e-12 8.24397520e-12 2.23540627e-14 3.96652122e-231 3.96861116e-232 8.33078048e-12
1.20226443e-02 8.25390366e-12 8.23888048e-12 1.50231760e-14 6.73022307e-202 7.78948256e-203 8.33078048e-12
1.38038426e-02 8.25396080e-12 8.23284167e-12 2.11191373e-14 1.83545300e-176 1.31288531e-177 8.33078048e-12
1.58489319e-02 8.25078511e-12 8.22542649e-12 2.53586295e-14 2.60763993e-154 2.02584395e-155 8.33078048e-12
1.81970086e-02 8.24751803e-12 8.21859323e-12 2.89248004e-14 4.85927352e-135 4.08120981e-136 8.33078048e-12
2.08929613e-02 8.24350393e-12 8.21291765e-12 3.05862891e-14 2.62980184e-118 2.34573659e-119 8.33078048e-12
2.39883292e-02 8.24031519e-12 8.20556983e-12 3.47453655e-14 9.43414314e-104 8.07438973e-105 8.33078048e-12
2.75422870e-02 8.23481840e-12 8.19703130e-12 3.77871050e-14 4.28612846e-91 3.52141441e-92 8.33078048e-12
3.16227766e-02 8.22959623e-12 8.18867032e-12 4.09259100e-14 4.25568238e-80 3.56105640e-81 8.33078048e-12
3.63078055e-02 8.22506463e-12 8.18211835e-12 4.29462885e-14 1.48632400e-70 1.13896534e-71 8.33078048e-12
4.16869383e-02 8.22424390e-12 8.17645561e-12 4.77882856e-14 2.88787102e-62 2.48519272e-63 8.33078048e-12
4.78630092e-02 8.21566871e-12 8.16086670e-12 5.48020111e-14 4.34424046e-55 3.80747839e-56 8.33078048e-12
5.49540874e-02 8.19995616e-12 8.13923676e-12 6.07194062e-14 7.19069029e-49 6.12242142e-50 8.33078048e-12
6.30957344e-02 8.15058222e-12 8.08525145e-12 6.53307791e-14 2.25621030e-43 1.80460234e-44 8.33078048e-12
7.24435960e-02 8.08495951e-12 8.02176825e-12 6.31912639e-14 1.28126610e-38 8.59811168e-40 8.33078048e-12
8.31763771e-02 8.08721540e-12 8.02739706e-12 5.98183412e-14 1.32167131e-34 8.70601596e-36 8.33078048e-12
9.54992586e-02 8.10455527e-12 8.04392885e-12 6.06264264e-14 3.79217083e-31 2.62406358e-32 8.33078048e-12
1.09647820e-01 7.78872637e-12 7.72758785e-12 6.11385243e-14 3.31629195e-28 2.65197174e-29 7.95583672e-12
1.25892541e-01 7.30453485e-12 7.24902554e-12 5.55093079e-14 1.11524443e-25 9.67248985e-27 7.42481883e-12
1.44543977e-01 6.84054683e-12 6.79298453e-12 4.75622965e-14 1.57522336e-23 1.41475220e-24 6.92924411e-12
1.65958691e-01 6.40195086e-12 6.35539668e-12 4.65541804e-14 8.15623826e-22 7.96969908e-23 6.46674687e-12
1.90546072e-01 5.97465523e-12 5.92431856e-12 5.03366572e-14 1.71352674e-20 1.88474356e-21 6.03511933e-12
2.18776162e-01 5.55879054e-12 5.51119723e-12 4.75931100e-14 1.97947417e-19 2.10504837e-20 5.63230107e-12
2.51188643e-01 5.21488523e-12 5.16578578e-12 4.90969455e-14 2.50794584e-18 3.21696788e-19 5.25636919e-12
2.88403150e-01 4.88158260e-12 4.83523953e-12 4.63215804e-14 2.14906457e-17 2.80148233e-18 4.90552916e-12
3.31131121e-01 4.56193091e-12 4.52087004e-12 4.09351832e-14 1.25687297e-16 1.61664627e-17 4.57810618e-12
3.80189396e-01 4.26140954e-12 4.22559408e-12 3.52825204e-14 5.32930884e-16 6.62120122e-17 4.27253728e-12
4.36515832e-01 3.98323991e-12 3.94920809e-12 3.23184022e-14 1.71341920e-15 2.06238580e-16 3.98736380e-12
5.01187234e-01 3.72393253e-12 3.69063192e-12 2.89643694e-14 4.33623865e-15 4.96212490e-16 3.72122441e-12
5.75439937e-01 3.48258996e-12 3.44857452e-12 2.49652109e-14 9.05022632e-15 9.90618739e-16 3.47284869e-12
6.60693448e-01 3.26124776e-12 3.22195799e-12 2.31965539e-14 1.60932134e-14 1.68243573e-15 3.24105097e-12
7.58577575e-01 3.05538179e-12 3.00989036e-12 2.01375767e-14 2.53538496e-14 2.47042450e-15 3.02472476e-12
8.70963590e-01 2.86484583e-12 2.81156745e-12 1.67890819e-14 3.64892938e-14 3.26039547e-15 2.82283739e-12
1.00000000e+00 2.68846628e-12 2.62600194e-12 1.34204349e-14 4.90439115e-14 3.95420572e-15 2.63442513e-12
1.14815362e+00 2.52785206e-12 2.45240523e-12 1.09007571e-14 6.45460708e-14 4.63336717e-15 2.45858859e-12
1.31825674e+00 2.38409990e-12 2.29002836e-12 8.48464937e-15 8.55868887e-14 5.40979730e-15 2.29448837e-12
1.51356125e+00 2.25918508e-12 2.13815683e-12 6.51091804e-15 1.14517339e-13 6.13800477e-15 2.14134114e-12
1.73780083e+00 2.15300397e-12 1.99617939e-12 4.76465821e-15 1.52059925e-13 6.75098775e-15 1.99841583e-12
1.99526231e+00 2.06173144e-12 1.86348414e-12 3.33177770e-15 1.94915516e-13 6.83567202e-15 1.86503017e-12
2.29086765e+00 1.97911952e-12 1.73948204e-12 2.59923173e-15 2.37038257e-13 6.35151526e-15 1.74054743e-12
2.63026799e+00 1.89699223e-12 1.62363233e-12 1.69124221e-15 2.71668653e-13 5.60362146e-15 1.62437337e-12
3.01995172e+00 1.80974381e-12 1.51543138e-12 1.19055544e-15 2.93121872e-13 4.65996456e-15 1.51595343e-12
3.46736850e+00 1.71617394e-12 1.41439629e-12 7.98727901e-16 3.00978929e-13 3.73767864e-15 1.41477006e-12
3.98107171e+00 1.61494003e-12 1.32006921e-12 5.31079925e-16 2.94339737e-13 2.81061350e-15 1.32034025e-12
4.57088190e+00 1.51055718e-12 1.23201400e-12 3.41186244e-16 2.78201988e-13 1.98283510e-15 1.23221321e-12
5.24807460e+00 1.27595190e-12 1.01871914e-12 2.05960505e-16 2.57026800e-13 1.33568823e-15 1.01885146e-12
6.02559586e+00 9.07334770e-13 6.73075835e-13 8.73078473e-17 2.34171628e-13 8.43213851e-16 6.73148485e-13
6.70000000e+00 7.05696938e-13 4.89604020e-13 4.27027568e-17 2.16050215e-13 5.59459287e-16 4.89650796e-13
6.92422916e+00 6.53798661e-13 4.43564253e-13 3.42439286e-17 2.10200164e-13 4.92618958e-16 4.43605145e-13
7.15596261e+00 6.08444195e-13 4.01853123e-13 2.89965695e-17 2.06562076e-13 4.23221659e-16 4.01889522e-13
7.39545150e+00 5.72127534e-13 3.64062978e-13 2.05808746e-17 2.08043974e-13 3.62339140e-16 3.64096743e-13
7.64295536e+00 5.54169334e-13 3.29823058e-13 1.52186566e-17 2.24331058e-13 3.05871512e-16 3.29857910e-13
7.89874245e+00 5.62422522e-13 2.98798025e-13 9.11641821e-18 2.63615381e-13 2.46929764e-16 2.98838820e-13
8.16308998e+00 5.91810090e-13 2.70686791e-13 5.75524713e-18 3.21117544e-13 2.00654092e-16 2.70736695e-13
8.43628443e+00 6.49163510e-13 2.45214420e-13 3.16678789e-18 4.03945923e-13 1.54051684e-16 2.45277229e-13
8.71862190e+00 6.84681649e-13 2.22141998e-13 2.11903078e-18 4.62537532e-13 1.21257419e-16 2.22211915e-13
9.01040836e+00 7.25663796e-13 2.01238879e-13 1.32533242e-18 5.24423592e-13 9.26031016e-17 2.01315610e-13
9.31196005e+00 7.56094220e-13 1.82303723e-13 0.00000000e+00 5.73790498e-13 0.00000000e+00 1.82384346e-13
9.62360379e+00 7.34428308e-13 1.65158370e-13 0.00000000e+00 5.69269938e-13 0.00000000e+00 1.65233336e-13
9.94567731e+00 6.77895291e-13 1.49631441e-13 0.00000000e+00 5.28263851e-13 0.00000000e+00 1.49695167e-13
1.02785297e+01 6.10701766e-13 1.35565943e-13 0.00000000e+00 4.75135823e-13 0.00000000e+00 1.35618173e-13
1.06225216e+01 5.48572363e-13 1.22822598e-13 0.00000000e+00 4.25749765e-13 0.00000000e+00 1.22864947e-13
1.09780260e+01 4.84396439e-13 1.11277907e-13 0.00000000e+00 3.73118532e-13 0.00000000e+00 1.11311006e-13
1.13454280e+01 4.28884130e-13 1.00817598e-13 0.00000000e+00 3.28066531e-13 0.00000000e+00 1.00843571e-13
1.17251259e+01 3.81953814e-13 9.13399583e-14 0.00000000e+00 2.90613856e-13 0.00000000e+00 9.13604705e-14
1.21175312e+01 3.39858630e-13 8.27530224e-14 0.00000000e+00 2.57105607e-13 0.00000000e+00 8.27691389e-14
1.25230691e+01 3.03283529e-13 7.49730885e-14 0.00000000e+00 2.28310440e-13 0.00000000e+00 7.49857166e-14
1.29421791e+01 2.72162477e-13 6.79242658e-14 0.00000000e+00 2.04238211e-13 0.00000000e+00 6.79342298e-14
1.33753155e+01 2.45414152e-13 6.15379306e-14 0.00000000e+00 1.83876222e-13 0.00000000e+00 6.15458488e-14
1.38229477e+01 2.26344465e-13 5.57516339e-14 0.00000000e+00 1.70592831e-13 0.00000000e+00 5.57582167e-14
1.42855609e+01 2.13491510e-13 5.05091191e-14 0.00000000e+00 1.62982391e-13 0.00000000e+00 5.05148403e-14
1.47636563e+01 2.10446868e-13 4.57591094e-14 0.00000000e+00 1.64687759e-13 0.00000000e+00 4.57645392e-14
1.52577522e+01 2.09540383e-13 4.14556992e-14 0.00000000e+00 1.68084684e-13 0.00000000e+00 4.14609457e-14
1.57683840e+01 2.10685119e-13 3.75569180e-14 0.00000000e+00 1.73128201e-13 0.00000000e+00 3.75620523e-14
1.62961051e+01 2.12249413e-13 3.40247835e-14 0.00000000e+00 1.78224630e-13 0.00000000e+00 3.40298020e-14
1.68414875e+01 2.13779702e-13 3.08248222e-14 0.00000000e+00 1.82954880e-13 0.00000000e+00 3.08297166e-14
1.74051222e+01 2.12325668e-13 2.79259121e-14 0.00000000e+00 1.84399756e-13 0.00000000e+00 2.79305599e-14
1.79876201e+01 2.09856293e-13 2.52996938e-14 0.00000000e+00 1.84556600e-13 0.00000000e+00 2.53040334e-14
1.85896125e+01 2.04635734e-13 2.29205730e-14 0.00000000e+00 1.81715162e-13 0.00000000e+00 2.29244994e-14
1.92117518e+01 1.95484758e-13 2.07652826e-14 0.00000000e+00 1.74719475e-13 0.00000000e+00 2.07687314e-14
1.98547123e+01 1.85830532e-13 1.88127168e-14 0.00000000e+00 1.67017815e-13 0.00000000e+00 1.88156870e-14
2.05191907e+01 1.75482711e-13 1.70437702e-14 0.00000000e+00 1.58438941e-13 0.00000000e+00 1.70463024e-14
2.12059073e+01 1.66104638e-13 1.54411483e-14 0.00000000e+00 1.50663489e-13 0.00000000e+00 1.54433068e-14
2.19156062e+01 1.57865244e-13 1.39892043e-14 0.00000000e+00 1.43876040e-13 0.00000000e+00 1.39910532e-14
2.26490567e+01 1.49894616e-13 1.26737800e-14 0.00000000e+00 1.37220835e-13 0.00000000e+00 1.26753663e-14
2.34070535e+01 1.42483039e-13 1.14820402e-14 0.00000000e+00 1.31000999e-13 0.00000000e+00 1.14834036e-14
2.41904183e+01 1.35853463e-13 1.04023555e-14 0.00000000e+00 1.25451107e-13 0.00000000e+00 1.04035303e-14
2.50000000e+01 1.29521157e-13 9.42419138e-15 0.00000000e+00 1.20096966e-13 0.00000000e+00 9.42520591e-15
2.75422870e+01 1.12786108e-13 7.04806833e-15 0.00000000e+00 1.05738039e-13 0.00000000e+00 7.04872996e-15
3.16227766e+01 9.14513121e-14 4.65668619e-15 0.00000000e+00 8.67946259e-14 0.00000000e+00 4.65704970e-15
3.63078055e+01 7.11237065e-14 3.07668356e-15 0.00000000e+00 6.80470229e-14 0.00000000e+00 3.07688223e-15
4.16869383e+01 5.23190371e-14 2.03277023e-15 0.00000000e+00 5.02862669e-14 0.00000000e+00 2.03287593e-15
4.78630092e+01 3.62804119e-14 1.34305331e-15 0.00000000e+00 3.49373586e-14 0.00000000e+00 1.34310781e-15
5.49540874e+01 2.38870221e-14 8.87355032e-16 0.00000000e+00 2.29996671e-14 0.00000000e+00 8.87382527e-16
6.30957344e+01 1.50778026e-14 5.86274125e-16 0.00000000e+00 1.44915285e-14 0.00000000e+00 5.86287821e-16
7.24435960e+01 9.19453429e-15 3.87349748e-16 0.00000000e+00 8.80718454e-15 0.00000000e+00 3.87356522e-16
8.31763771e+01 5.46000782e-15 2.55920571e-16 0.00000000e+00 5.20408724e-15 0.00000000e+00 2.55923916e-16
9.54992586e+01 3.17864555e-15 1.69085599e-16 0.00000000e+00 3.00955995e-15 0.00000000e+00 1.69087255e-16
1.09647820e+02 1.82234978e-15 1.11714019e-16 0.00000000e+00 1.71063576e-15 0.00000000e+00 1.11714841e-16
1.25892541e+02 1.04321188e-15 7.38088492e-17 0.00000000e+00 9.69403035e-16 0.00000000e+00 7.38092637e-17
1.44543977e+02 5.93671442e-16 4.87650864e-17 0.00000000e+00 5.44906356e-16 0.00000000e+00 4.87652969e-17
1.65958691e+02 3.23040946e-16 3.22188090e-17 0.00000000e+00 2.90822137e-16 0.00000000e+00 3.22189122e-17
1.90546072e+02 1.76270067e-16 2.12867731e-17 0.00000000e+00 1.54983294e-16 0.00000000e+00 2.12868242e-17
2.18776162e+02 9.63439524e-17 1.40640398e-17 0.00000000e+00 8.22799126e-17 0.00000000e+00 1.40640653e-17
2.51188643e+02 5.27323936e-17 9.29202305e-18 0.00000000e+00 4.34403705e-17 0.00000000e+00 9.29203577e-18
2.88403150e+02 2.89250094e-17 6.13918079e-18 0.00000000e+00 2.27858286e-17 0.00000000e+00 6.13918715e-18
3.31131121e+02 1.59554303e-17 4.05611754e-18 0.00000000e+00 1.18993128e-17 0.00000000e+00 4.05612073e-18
3.80189396e+02 8.86110841e-18 2.67985079e-18 0.00000000e+00 6.18125762e-18 0.00000000e+00 2.67985239e-18
4.36515832e+02 4.96942618e-18 1.77056011e-18 0.00000000e+00 3.19886607e-18 0.00000000e+00 1.77056092e-18
5.01187234e+02 2.81882813e-18 1.16979759e-18 0.00000000e+00 1.64903054e-18 0.00000000e+00 1.16979800e-18
5.75439937e+02 1.62022370e-18 7.72877669e-19 0.00000000e+00 8.47346026e-19 0.00000000e+00 7.72877871e-19
6.60693448e+02 9.44821116e-19 5.10635244e-19 0.00000000e+00 4.34185872e-19 0.00000000e+00 5.10635346e-19
7.58577575e+02 5.59309459e-19 3.37373376e-19 0.00000000e+00 2.21936083e-19 0.00000000e+00 3.37373427e-19
8.70963590e+02 3.36075179e-19 2.22900387e-19 0.00000000e+00 1.13174792e-19 0.00000000e+00 2.22900413e-19
1.00000000e+03 5.75865915e-20 0.00000000e+00 0.00000000e+00 5.75865915e-20 0.00000000e+00 0.00000000e+00
