# column 1: lambda (micron)
# column 2: total flux; lambda*F_lambda (W/m2)
# column 3: direct stellar flux; lambda*F_lambda (W/m2)
# column 4: scattered stellar flux; lambda*F_lambda (W/m2)
# column 5: total dust emission flux; lambda*F_lambda (W/m2)
# column 6: dust emission scattered flux; lambda*F_lambda (W/m2)
# column 7: transparent flux; lambda*F_lambda (W/m2)
1.00000000e-03 9.68084848e-13 9.68073281e-13 1.15664828e-17 0.00000000e+00 0.00000000e+00 9.68073281e-13
1.14815362e-03 1.14265452e-12 1.14263687e-12 1.76544318e-17 0.00000000e+00 0.00000000e+00 1.14263687e-12
1.31825674e-03 1.34870296e-12 1.34867788e-12 2.50791685e-17 0.00000000e+00 0.00000000e+00 1.34867788e-12
1.51356125e-03 1.59191066e-12 1.59187233e-12 3.83345902e-17 0.00000000e+00 0.00000000e+00 1.59187233e-12
1.73780083e-03 1.87899035e-12 1.87891976e-12 7.05943952e-17 0.00000000e+00 0.00000000e+00 1.87891976e-12
1.99526231e-03 2.21784600e-12 2.21772777e-12 1.18232695e-16 0.00000000e+00 0.00000000e+00 2.21772777e-12
2.29086765e-03 2.61782122e-12 2.61762985e-12 1.91377147e-16 0.00000000e+00 0.00000000e+00 2.61762985e-12
2.63026799e-03 3.09003546e-12 3.08964252e-12 3.92935995e-16 0.00000000e+00 0.00000000e+00 3.08964252e-12
3.01995172e-03 3.64742209e-12 3.64676883e-12 6.53265202e-16 0.00000000e+00 0.00000000e+00 3.64676883e-12
3.46736850e-03 4.30533418e-12 4.30435650e-12 9.77675532e-16 0.00000000e+00 0.00000000e+00 4.30435650e-12
3.98107171e-03 5.08213868e-12 5.08052080e-12 1.61788427e-15 0.00000000e+00 0.00000000e+00 5.08052080e-12
4.57088190e-03 6.00036935e-12 5.99664354e-12 3.72580930e-15 0.00000000e+00 0.00000000e+00 5.99664354e-12
5.24807460e-03 7.08710517e-12 7.07796211e-12 9.14305740e-15 0.00000000e+00 0.00000000e+00 7.07796211e-12
6.02559586e-03 8.36601538e-12 8.35426474e-12 1.17506344e-14 0.00000000e+00 0.00000000e+00 8.35426474e-12
6.91830971e-03 9.87909963e-12 9.86071107e-12 1.83885593e-14 0.00000000e+00 0.00000000e+00 9.86071107e-12
7.94328235e-03 1.16700254e-11 1.16388008e-11 3.12246596e-14 0.00000000e+00 0.00000000e+00 1.16388008e-11
9.12010839e-03 1.37909230e-11 1.37375167e-11 5.34062730e-14 0.00000000e+00 0.00000000e+00 1.37375167e-11
1.04712855e-02 1.54144327e-11 1.53429287e-11 7.15040230e-14 0.00000000e+00 0.00000000e+00 1.53429287e-11
1.20226443e-02 1.54513698e-11 1.53429287e-11 1.08441166e-13 0.00000000e+00 0.00000000e+00 1.53429287e-11
1.38038426e-02 1.55266484e-11 1.53429287e-11 1.83719747e-13 5.12468572e-291 8.25140955e-292 1.53429287e-11
1.58489319e-02 1.55847519e-11 1.53429287e-11 2.41823252e-13 5.36503039e-254 7.83599074e-255 1.53429287e-11
1.81970086e-02 1.56374746e-11 1.53429287e-11 2.94545982e-13 9.16037710e-222 1.39598681e-222 1.53429287e-11
2.08929613e-02 1.57295537e-11 1.53429287e-11 3.86625065e-13 9.60417125e-194 1.40289380e-194 1.53429287e-11
2.39883292e-02 1.58300966e-11 1.53429287e-11 4.87167934e-13 2.36829079e-169 3.48254658e-170 1.53429287e-11
2.75422870e-02 1.58938618e-11 1.53429287e-11 5.50933151e-13 3.98847168e-148 5.91339564e-149 1.53429287e-11
3.16227766e-02 1.59929973e-11 1.53429287e-11 6.50068598e-13 1.13973650e-129 1.59968057e-130 1.53429287e-11
3.63078055e-02 1.60081269e-11 1.53429287e-11 6.65198273e-13 1.27534609e-113 1.83104376e-114 1.53429287e-11
4.16869383e-02 1.61012526e-11 1.53429287e-11 7.58323943e-13 1.15745874e-99 1.79981326e-100 1.53429287e-11
4.78630092e-02 1.60913501e-11 1.53429287e-11 7.48421481e-13 1.50578196e-87 2.47018216e-88 1.53429287e-11
5.49540874e-02 1.60373937e-11 1.53429287e-11 6.94465023e-13 4.97512342e-77 8.34957184e-78 1.53429287e-11
6.30957344e-02 1.59308967e-11 1.53429287e-11 5.87968083e-13 8.55938300e-68 1.43593475e-68 1.53429287e-11
7.24435960e-02 1.57994873e-11 1.53429287e-11 4.56558651e-13 8.62343194e-60 1.33795876e-60 1.53429287e-11
8.31763771e-02 1.57854461e-11 1.53429287e-11 4.42517409e-13 6.35202203e-53 9.73066421e-54 1.53429287e-11
9.54992586e-02 1.58010199e-11 1.53429287e-11 4.58091279e-13 5.62029689e-47 8.90405216e-48 1.53429287e-11
1.09647820e-01 1.51702008e-11 1.46523889e-11 5.17811914e-13 7.43953798e-42 1.26903927e-42 1.46523889e-11
1.25892541e-01 1.42403163e-11 1.36744049e-11 5.65911355e-13 2.00720736e-37 3.56407644e-38 1.36744049e-11
1.44543977e-01 1.33234385e-11 1.27616972e-11 5.61741261e-13 1.29327407e-33 2.26759348e-34 1.27616972e-11
1.65958691e-01 1.24883098e-11 1.19099088e-11 5.78400976e-13 1.94445372e-30 3.73327344e-31 1.19099088e-11
1.90546072e-01 1.16780078e-11 1.11149736e-11 5.63034181e-13 7.71733722e-28 1.70782428e-28 1.11149736e-11
2.18776162e-01 1.08367794e-11 1.03730969e-11 4.63682471e-13 1.18306912e-25 2.74107743e-26 1.03730969e-11
2.51188643e-01 1.02231789e-11 9.68073733e-12 5.42441519e-13 1.61774924e-23 4.61467618e-24 9.68073733e-12
2.88403150e-01 9.58116878e-12 9.03458975e-12 5.46579024e-13 1.14194037e-21 3.45895916e-22 9.03458975e-12
3.31131121e-01 8.95920906e-12 8.43156974e-12 5.27639270e-13 4.46995502e-20 1.41016045e-20 8.43156974e-12
3.80189396e-01 8.36660358e-12 7.86879872e-12 4.97803791e-13 1.06112525e-18 3.46229099e-19 7.86879872e-12
4.36515832e-01 7.81243882e-12 7.34359025e-12 4.68832036e-13 1.65331663e-17 5.68121388e-18 7.34359025e-12
5.01187234e-01 7.29170150e-12 6.85343719e-12 4.38092513e-13 1.71801796e-16 5.98080232e-17 6.85343719e-12
5.75439937e-01 6.79422286e-12 6.39599973e-12 3.96941701e-13 1.28143005e-15 4.52079164e-16 6.39599973e-12
6.60693448e-01 6.34538767e-12 5.96909425e-12 3.69268395e-13 7.02502510e-15 2.46214645e-15 5.96909425e-12
7.58577575e-01 5.93268947e-12 5.57068288e-12 3.32047456e-13 2.99591338e-14 1.02807003e-14 5.57068288e-12
8.70963590e-01 5.59012429e-12 5.19886376e-12 2.87936721e-13 1.03323806e-13 3.36434896e-14 5.19886376e-12
1.00000000e+00 5.38890315e-12 4.85186196e-12 2.47673303e-13 2.89367887e-13 8.79812862e-14 4.85186196e-12
1.14815362e+00 5.43174720e-12 4.52802104e-12 2.03133231e-13 7.00592921e-13 1.93365307e-13 4.52802104e-12
1.31825674e+00 5.87624598e-12 4.22579511e-12 1.62315268e-13 1.48813560e-12 3.60527252e-13 4.22579511e-12
1.51356125e+00 6.86725329e-12 3.94374146e-12 1.27436190e-13 2.79607564e-12 5.79319276e-13 3.94374146e-12
1.73780083e+00 8.37829461e-12 3.68051368e-12 1.00328648e-13 4.59745228e-12 7.94266099e-13 3.68051368e-12
1.99526231e+00 1.02920645e-11 3.43485522e-12 7.73363907e-14 6.77987291e-12 9.47503957e-13 3.43485522e-12
2.29086765e+00 1.22658855e-11 3.20559341e-12 5.94663777e-14 9.00082574e-12 9.99836712e-13 3.20559341e-12
2.63026799e+00 1.40059931e-11 2.99163384e-12 4.35939892e-14 1.09707653e-11 9.55194136e-13 2.99163384e-12
3.01995172e+00 1.53751747e-11 2.79195514e-12 3.18290518e-14 1.25513905e-11 8.36301830e-13 2.79195514e-12
3.46736850e+00 1.62331395e-11 2.60560415e-12 2.23739290e-14 1.36051614e-11 6.79524823e-13 2.60560415e-12
3.98107171e+00 1.64730710e-11 2.43169128e-12 1.53194553e-14 1.40260602e-11 5.08860153e-13 2.43169128e-12
4.57088190e+00 1.62975596e-11 2.26938634e-12 1.00432369e-14 1.40181300e-11 3.51079554e-13 2.26938634e-12
5.24807460e+00 1.54747155e-11 1.87643467e-12 5.60162037e-15 1.35926792e-11 2.26116629e-13 1.87643467e-12
6.02559586e+00 1.42714115e-11 1.23974809e-12 2.41495183e-15 1.30292484e-11 1.36776159e-13 1.23974809e-12
6.70000000e+00 1.32981639e-11 9.01797527e-13 1.21841531e-15 1.23951479e-11 8.83442796e-14 9.01797527e-13
6.92422916e+00 1.30001018e-11 8.16994532e-13 9.75571206e-16 1.21821317e-11 7.65116211e-14 8.16994532e-13
7.15596261e+00 1.27935500e-11 7.40166218e-13 7.73619174e-16 1.20526101e-11 6.55669236e-14 7.40166218e-13
7.39545150e+00 1.27734884e-11 6.70562664e-13 5.91637410e-16 1.21023341e-11 5.58879090e-14 6.70562664e-13
7.64295536e+00 1.32445715e-11 6.07504471e-13 4.19342623e-16 1.26366477e-11 4.71041078e-14 6.07504471e-13
7.89874245e+00 1.43334130e-11 5.50376127e-13 2.64405003e-16 1.37827725e-11 3.82400733e-14 5.50376127e-13
8.16308998e+00 1.56710973e-11 4.98620004e-13 1.56935441e-16 1.51723204e-11 3.00701977e-14 4.98620004e-13
8.43628443e+00 1.72055312e-11 4.51730909e-13 8.66800867e-17 1.67537137e-11 2.25811113e-14 4.51730909e-13
8.71862190e+00 1.79719655e-11 4.09251158e-13 5.27358380e-17 1.75626617e-11 1.73184465e-14 4.09251158e-13
9.01040836e+00 1.85278886e-11 3.70766106e-13 3.01796197e-17 1.81570923e-11 1.28033804e-14 3.70766106e-13
9.31196005e+00 1.88769618e-11 3.35900102e-13 0.00000000e+00 1.85410617e-11 0.00000000e+00 3.35900102e-13
9.62360379e+00 1.86522749e-11 3.04312818e-13 0.00000000e+00 1.83479621e-11 0.00000000e+00 3.04312818e-13
9.94567731e+00 1.82179977e-11 2.75695930e-13 0.00000000e+00 1.79423018e-11 0.00000000e+00 2.75695930e-13
1.02785297e+01 1.73574632e-11 2.49770110e-13 0.00000000e+00 1.71076931e-11 0.00000000e+00 2.49770110e-13
1.06225216e+01 1.67185106e-11 2.26282295e-13 0.00000000e+00 1.64922283e-11 0.00000000e+00 2.26282295e-13
1.09780260e+01 1.58274071e-11 2.05003220e-13 0.00000000e+00 1.56224038e-11 0.00000000e+00 2.05003220e-13
1.13454280e+01 1.51490166e-11 1.85725182e-13 0.00000000e+00 1.49632914e-11 0.00000000e+00 1.85725182e-13
1.17251259e+01 1.44380922e-11 1.68260007e-13 0.00000000e+00 1.42698322e-11 0.00000000e+00 1.68260007e-13
1.21175312e+01 1.37853420e-11 1.52437217e-13 0.00000000e+00 1.36329047e-11 0.00000000e+00 1.52437217e-13
1.25230691e+01 1.30853361e-11 1.38102367e-13 0.00000000e+00 1.29472338e-11 0.00000000e+00 1.38102367e-13
1.29421791e+01 1.24735311e-11 1.25115533e-13 0.00000000e+00 1.23484156e-11 0.00000000e+00 1.25115533e-13
1.33753155e+01 1.18984452e-11 1.13349952e-13 0.00000000e+00 1.17850953e-11 0.00000000e+00 1.13349952e-13
1.38229477e+01 1.14931626e-11 1.02690779e-13 0.00000000e+00 1.13904718e-11 0.00000000e+00 1.02690779e-13
1.42855609e+01 1.12545607e-11 9.30339713e-14 0.00000000e+00 1.11615267e-11 0.00000000e+00 9.30339713e-14
1.47636563e+01 1.14740805e-11 8.42852675e-14 0.00000000e+00 1.13897952e-11 0.00000000e+00 8.42852675e-14
1.52577522e+01 1.17618346e-11 7.63592720e-14 0.00000000e+00 1.16854753e-11 0.00000000e+00 7.63592720e-14
1.57683840e+01 1.21220824e-11 6.91786191e-14 0.00000000e+00 1.20529038e-11 0.00000000e+00 6.91786191e-14
1.62961051e+01 1.25022449e-11 6.26732185e-14 0.00000000e+00 1.24395717e-11 0.00000000e+00 6.26732185e-14
1.68414875e+01 1.28331584e-11 5.67795711e-14 0.00000000e+00 1.27763789e-11 0.00000000e+00 5.67795711e-14
1.74051222e+01 1.30425614e-11 5.14401489e-14 0.00000000e+00 1.29911212e-11 0.00000000e+00 5.14401489e-14
1.79876201e+01 1.32360122e-11 4.66028339e-14 0.00000000e+00 1.31894093e-11 0.00000000e+00 4.66028339e-14
1.85896125e+01 1.32825010e-11 4.22204090e-14 0.00000000e+00 1.32402806e-11 0.00000000e+00 4.22204090e-14
1.92117518e+01 1.31202101e-11 3.82500974e-14 0.00000000e+00 1.30819600e-11 0.00000000e+00 3.82500974e-14
1.98547123e+01 1.29070920e-11 3.46531450e-14 0.00000000e+00 1.28724388e-11 0.00000000e+00 3.46531450e-14
2.05191907e+01 1.26153210e-11 3.13944418e-14 0.00000000e+00 1.25839265e-11 0.00000000e+00 3.13944418e-14
2.12059073e+01 1.22686360e-11 2.84421796e-14 0.00000000e+00 1.22401938e-11 0.00000000e+00 2.84421796e-14
2.19156062e+01 1.19686179e-11 2.57675415e-14 0.00000000e+00 1.19428504e-11 0.00000000e+00 2.57675415e-14
2.26490567e+01 1.16236366e-11 2.33444203e-14 0.00000000e+00 1.16002921e-11 0.00000000e+00 2.33444203e-14
2.34070535e+01 1.13013002e-11 2.11491639e-14 0.00000000e+00 1.12801511e-11 0.00000000e+00 2.11491639e-14
2.41904183e+01 1.09238715e-11 1.91603445e-14 0.00000000e+00 1.09047112e-11 0.00000000e+00 1.91603445e-14
2.50000000e+01 1.05929665e-11 1.73585491e-14 0.00000000e+00 1.05756080e-11 0.00000000e+00 1.73585491e-14
2.75422870e+01 9.45060340e-12 1.29817562e-14 0.00000000e+00 9.43762164e-12 0.00000000e+00 1.29817562e-14
3.16227766e+01 7.72968737e-12 8.57696126e-15 0.00000000e+00 7.72111041e-12 0.00000000e+00 8.57696126e-15
3.63078055e+01 5.91475620e-12 5.66674211e-15 0.00000000e+00 5.90908945e-12 0.00000000e+00 5.66674211e-15
4.16869383e+01 4.21394718e-12 3.74397938e-15 0.00000000e+00 4.21020320e-12 0.00000000e+00 3.74397938e-15
4.78630092e+01 2.79208599e-12 2.47362265e-15 0.00000000e+00 2.78961237e-12 0.00000000e+00 2.47362265e-15
5.49540874e+01 1.74514129e-12 1.63430628e-15 0.00000000e+00 1.74350698e-12 0.00000000e+00 1.63430628e-15
6.30957344e+01 1.04282134e-12 1.07977545e-15 0.00000000e+00 1.04174157e-12 0.00000000e+00 1.07977545e-15
7.24435960e+01 6.01318246e-13 7.13400564e-16 0.00000000e+00 6.00604845e-13 0.00000000e+00 7.13400564e-16
8.31763771e+01 3.38012498e-13 4.71339078e-16 0.00000000e+00 3.37541159e-13 0.00000000e+00 4.71339078e-16
9.54992586e+01 1.86586304e-13 3.11410641e-16 0.00000000e+00 1.86274893e-13 0.00000000e+00 3.11410641e-16
1.09647820e+02 1.01711237e-13 2.05746970e-16 0.00000000e+00 1.01505490e-13 0.00000000e+00 2.05746970e-16
1.25892541e+02 5.55307223e-14 1.35935675e-16 0.00000000e+00 5.53947866e-14 0.00000000e+00 1.35935675e-16
1.44543977e+02 3.02041114e-14 8.98118099e-17 0.00000000e+00 3.01142996e-14 0.00000000e+00 8.98118099e-17
1.65958691e+02 1.56708432e-14 5.93380743e-17 0.00000000e+00 1.56115051e-14 0.00000000e+00 5.93380743e-17
1.90546072e+02 8.15035525e-15 3.92042769e-17 0.00000000e+00 8.11115097e-15 0.00000000e+00 3.92042769e-17
2.18776162e+02 4.23747630e-15 2.59020089e-17 0.00000000e+00 4.21157429e-15 0.00000000e+00 2.59020089e-17
2.51188643e+02 2.19838565e-15 1.71132876e-17 0.00000000e+00 2.18127236e-15 0.00000000e+00 1.71132876e-17
2.88403150e+02 1.13654360e-15 1.13066370e-17 0.00000000e+00 1.12523696e-15 0.00000000e+00 1.13066370e-17
3.31131121e+02 5.86684809e-16 7.47022097e-18 0.00000000e+00 5.79214588e-16 0.00000000e+00 7.47022097e-18
3.80189396e+02 3.02090192e-16 4.93552605e-18 0.00000000e+00 2.97154666e-16 0.00000000e+00 4.93552605e-18
4.36515832e+02 1.55388112e-16 3.26086972e-18 0.00000000e+00 1.52127242e-16 0.00000000e+00 3.26086972e-18
5.01187234e+02 7.98476096e-17 2.15443526e-18 0.00000000e+00 7.76931743e-17 0.00000000e+00 2.15443526e-18
5.75439937e+02 4.10236056e-17 1.42342126e-18 0.00000000e+00 3.96001843e-17 0.00000000e+00 1.42342126e-18
6.60693448e+02 2.10901955e-17 9.40445101e-19 0.00000000e+00 2.01497504e-17 0.00000000e+00 9.40445101e-19
7.58577575e+02 1.08586744e-17 6.21345916e-19 0.00000000e+00 1.02373285e-17 0.00000000e+00 6.21345916e-19
8.70963590e+02 5.60357534e-18 4.10519176e-19 0.00000000e+00 5.19305616e-18 0.00000000e+00 4.10519176e-19
1.00000000e+03 2.63034206e-18 0.00000000e+00 0.00000000e+00 2.63034206e-18 0.00000000e+00 0.00000000e+00
