# column 1: lambda (micron)
# column 2: total flux; lambda*F_lambda (W/m2)
# column 3: direct stellar flux; lambda*F_lambda (W/m2)
# column 4: scattered stellar flux; lambda*F_lambda (W/m2)
# column 5: total dust emission flux; lambda*F_lambda (W/m2)
# column 6: dust emission scattered flux; lambda*F_lambda (W/m2)
# column 7: transparent flux; lambda*F_lambda (W/m2)
1.00000000e-03 6.93998343e-13 6.93993746e-13 4.59698489e-18 0.00000000e+00 0.00000000e+00 6.93993746e-13
1.14815362e-03 8.19144144e-13 8.19135139e-13 9.00519035e-18 0.00000000e+00 0.00000000e+00 8.19135139e-13
1.31825674e-03 9.66863977e-13 9.66842108e-13 2.18686189e-17 0.00000000e+00 0.00000000e+00 9.66842108e-13
1.51356125e-03 1.14121800e-12 1.14118369e-12 3.43127864e-17 0.00000000e+00 0.00000000e+00 1.14118369e-12
1.73780083e-03 1.34719943e-12 1.34696266e-12 2.36767380e-16 0.00000000e+00 0.00000000e+00 1.34696266e-12
1.99526231e-03 1.58991746e-12 1.58984782e-12 6.96371699e-17 0.00000000e+00 0.00000000e+00 1.58984782e-12
2.29086765e-03 1.87663464e-12 1.87653019e-12 1.04442378e-16 0.00000000e+00 0.00000000e+00 1.87653019e-12
2.63026799e-03 2.21510446e-12 2.21490731e-12 1.97151147e-16 0.00000000e+00 0.00000000e+00 2.21490731e-12
3.01995172e-03 2.62075434e-12 2.61430080e-12 6.45353953e-15 0.00000000e+00 0.00000000e+00 2.61430080e-12
3.46736850e-03 3.08777117e-12 3.08571319e-12 2.05798184e-15 0.00000000e+00 0.00000000e+00 3.08571319e-12
3.98107171e-03 3.64321403e-12 3.64213095e-12 1.08307886e-15 0.00000000e+00 0.00000000e+00 3.64213095e-12
4.57088190e-03 4.30114223e-12 4.29888232e-12 2.25991149e-15 0.00000000e+00 0.00000000e+00 4.29888232e-12
5.24807460e-03 5.07863062e-12 5.07405951e-12 4.57111173e-15 0.00000000e+00 0.00000000e+00 5.07405951e-12
6.02559586e-03 5.99533736e-12 5.98901715e-12 6.32021308e-15 0.00000000e+00 0.00000000e+00 5.98901715e-12
6.91830971e-03 7.10869709e-12 7.06896053e-12 3.97365635e-14 0.00000000e+00 0.00000000e+00 7.06896053e-12
7.94328235e-03 8.36511406e-12 8.34363998e-12 2.14740759e-14 1.02945184e-303 1.17248603e-305 8.34363998e-12
9.12010839e-03 9.88181429e-12 9.84817045e-12 3.36438400e-14 6.26910834e-265 5.50673727e-267 9.84817045e-12
1.04712855e-02 1.10467111e-11 1.09990604e-11 4.76506269e-14 3.55461218e-231 4.93940844e-233 1.09990604e-11
1.20226443e-02 1.11032767e-11 1.09990604e-11 1.04216256e-13 7.15458679e-202 9.75864206e-204 1.09990604e-11
1.38038426e-02 1.11051733e-11 1.09990604e-11 1.06112826e-13 2.44953019e-176 5.84253883e-178 1.09990604e-11
1.58489319e-02 1.10876313e-11 1.09990604e-11 8.85708466e-14 3.99042126e-154 8.11089175e-156 1.09990604e-11
1.81970086e-02 1.11243047e-11 1.09990604e-11 1.25244211e-13 8.41952636e-135 1.97471861e-136 1.09990604e-11
2.08929613e-02 1.11310850e-11 1.09990604e-11 1.32024600e-13 5.12823436e-118 1.72429697e-119 1.09990604e-11
2.39883292e-02 1.11513671e-11 1.09990604e-11 1.52306650e-13 2.04126241e-103 7.41040870e-105 1.09990604e-11
2.75422870e-02 1.11744498e-11 1.09990604e-11 1.75389382e-13 1.02286910e-90 4.31794905e-92 1.09990604e-11
3.16227766e-02 1.11926543e-11 1.09990604e-11 1.93593818e-13 1.09885468e-79 5.15525537e-81 1.09990604e-11
3.63078055e-02 1.11928725e-11 1.09990604e-11 1.93812012e-13 4.14233960e-70 2.05831626e-71 1.09990604e-11
4.16869383e-02 1.12331487e-11 1.09990604e-11 2.34088290e-13 8.50171804e-62 4.96862173e-63 1.09990604e-11
4.78630092e-02 1.12649748e-11 1.09990604e-11 2.65914312e-13 1.37121837e-54 9.34683257e-56 1.09990604e-11
5.49540874e-02 1.12829073e-11 1.09990604e-11 2.83846820e-13 2.40083774e-48 1.76240563e-49 1.09990604e-11
6.30957344e-02 1.12902207e-11 1.09990604e-11 2.91160211e-13 8.03496220e-43 5.97279335e-44 1.09990604e-11
7.24435960e-02 1.12603101e-11 1.09990604e-11 2.61249637e-13 4.78468141e-38 3.26635747e-39 1.09990604e-11
8.31763771e-02 1.12549673e-11 1.09990604e-11 2.55906897e-13 5.08469378e-34 3.45030334e-35 1.09990604e-11
9.54992586e-02 1.12508305e-11 1.09990604e-11 2.51770095e-13 1.48191083e-30 1.02628369e-31 1.09990604e-11
1.09647820e-01 1.07701491e-11 1.05040253e-11 2.66123772e-13 1.30376184e-27 9.73328580e-29 1.05040253e-11
1.25892541e-01 1.00510183e-11 9.80292679e-12 2.48091501e-13 4.36655254e-25 3.37007698e-26 9.80292679e-12
1.44543977e-01 9.38190772e-12 9.14862359e-12 2.33284124e-13 6.10638164e-23 4.69164637e-24 9.14862359e-12
1.65958691e-01 8.77441581e-12 8.53799231e-12 2.36423492e-13 3.16745432e-21 2.68947349e-22 8.53799231e-12
1.90546072e-01 8.20309524e-12 7.96811805e-12 2.34977122e-13 6.77520812e-20 6.47525528e-21 7.96811805e-12
2.18776162e-01 7.65598961e-12 7.43628044e-12 2.19708371e-13 8.06243777e-19 7.58725451e-20 7.43628044e-12
2.51188643e-01 7.18816855e-12 6.93994070e-12 2.48217815e-13 1.00369380e-17 1.17629276e-18 6.93994070e-12
2.88403150e-01 6.70340064e-12 6.47672950e-12 2.26586100e-13 8.50370285e-17 1.01895606e-17 6.47672950e-12
3.31131121e-01 6.25348367e-12 6.04443567e-12 2.08554211e-13 4.93796661e-16 5.90273992e-17 6.04443567e-12
3.80189396e-01 5.84200280e-12 5.64099558e-12 1.98929786e-13 2.07743791e-15 2.44652810e-16 5.64099558e-12
4.36515832e-01 5.44652370e-12 5.26448339e-12 1.75408199e-13 6.63211957e-15 7.79459168e-16 5.26448339e-12
5.01187234e-01 5.09423518e-12 4.91310176e-12 1.64397722e-13 1.67356978e-14 1.99199348e-15 4.91310176e-12
5.75439937e-01 4.76865059e-12 4.58517335e-12 1.48594041e-13 3.48831950e-14 4.20645963e-15 4.58517335e-12
6.60693448e-01 4.47724421e-12 4.27913275e-12 1.35328076e-13 6.27833898e-14 7.79250486e-15 4.27913275e-12
7.58577575e-01 4.21972733e-12 3.99351904e-12 1.22949218e-13 1.03259072e-13 1.35547820e-14 3.99351904e-12
8.70963590e-01 3.99906378e-12 3.72696882e-12 1.09595633e-13 1.62499325e-13 2.31005381e-14 3.72696882e-12
1.00000000e+00 3.82755960e-12 3.47820968e-12 9.50347632e-14 2.54315159e-13 3.94490166e-14 3.47820968e-12
1.14815362e+00 3.73541222e-12 3.24605414e-12 8.03903794e-14 4.08967700e-13 6.64669482e-14 3.24605414e-12
1.31825674e+00 3.76222610e-12 3.02939399e-12 6.41572183e-14 6.68674889e-13 1.04766512e-13 3.02939399e-12
1.51356125e+00 3.94470570e-12 2.82719497e-12 5.16895489e-14 1.06582118e-12 1.53375531e-13 2.82719497e-12
1.73780083e+00 4.27407953e-12 2.63849186e-12 4.05269396e-14 1.59506072e-12 1.99015486e-13 2.63849186e-12
1.99526231e+00 4.69287836e-12 2.46238388e-12 3.02485078e-14 2.20024598e-12 2.23283933e-13 2.46238388e-12
2.29086765e+00 5.11764975e-12 2.29803035e-12 2.22928760e-14 2.79732653e-12 2.25420535e-13 2.29803035e-12
2.63026799e+00 5.45346562e-12 2.14464670e-12 1.59313404e-14 3.29288757e-12 2.06822593e-13 2.14464670e-12
3.01995172e+00 5.67087581e-12 2.00150076e-12 1.12768615e-14 3.65809819e-12 1.77234752e-13 2.00150076e-12
3.46736850e+00 5.72146945e-12 1.86790919e-12 7.88478808e-15 3.84567547e-12 1.40259158e-13 1.86790919e-12
3.98107171e+00 5.62926940e-12 1.74323429e-12 5.18351314e-15 3.88085160e-12 1.03298843e-13 1.74323429e-12
4.57088190e+00 5.39431083e-12 1.62688090e-12 3.34303745e-15 3.76408690e-12 7.05689916e-14 1.62688090e-12
5.24807460e+00 4.91480435e-12 1.34518114e-12 1.84819108e-15 3.56777502e-12 4.45488123e-14 1.34518114e-12
6.02559586e+00 4.20478102e-12 8.88752369e-13 7.89488915e-16 3.31523916e-12 2.64876555e-14 8.88752369e-13
6.70000000e+00 3.74372296e-12 6.46481889e-13 3.88173656e-16 3.09685289e-12 1.69562351e-14 6.46481889e-13
6.92422916e+00 3.60287946e-12 5.85688198e-13 3.15737162e-16 3.01687552e-12 1.45967969e-14 5.85688198e-13
7.15596261e+00 3.50615676e-12 5.30611407e-13 2.46290840e-16 2.97529906e-12 1.24776106e-14 5.30611407e-13
7.39545150e+00 3.46316840e-12 4.80713913e-13 1.91480021e-16 2.98226301e-12 1.05599910e-14 4.80713913e-13
7.64295536e+00 3.59098908e-12 4.35508666e-13 1.36101712e-16 3.15534431e-12 9.02176796e-15 4.35508666e-13
7.89874245e+00 3.95356952e-12 3.94554418e-13 8.76298353e-17 3.55892747e-12 7.46227342e-15 3.94554418e-13
8.16308998e+00 4.43271293e-12 3.57451415e-13 5.41967452e-17 4.07520732e-12 6.09054140e-15 3.57451415e-13
8.43628443e+00 5.08453898e-12 3.23837494e-13 3.03501530e-17 4.76067113e-12 4.70002784e-15 3.23837494e-13
8.71862190e+00 5.46230575e-12 2.93384550e-13 1.94612200e-17 5.16890174e-12 3.66117830e-15 2.93384550e-13
9.01040836e+00 5.81399014e-12 2.65795332e-13 1.18031528e-17 5.54818301e-12 2.69267845e-15 2.65795332e-13
9.31196005e+00 6.04661474e-12 2.40800541e-13 0.00000000e+00 5.80581420e-12 0.00000000e+00 2.40800541e-13
9.62360379e+00 5.94764971e-12 2.18156204e-13 0.00000000e+00 5.72949351e-12 0.00000000e+00 2.18156204e-13
9.94567731e+00 5.62201391e-12 1.97641289e-13 0.00000000e+00 5.42437262e-12 0.00000000e+00 1.97641289e-13
1.02785297e+01 5.21993158e-12 1.79055550e-13 0.00000000e+00 5.04087603e-12 0.00000000e+00 1.79055550e-13
1.06225216e+01 4.83877054e-12 1.62217572e-13 0.00000000e+00 4.67655297e-12 0.00000000e+00 1.62217572e-13
1.09780260e+01 4.46811299e-12 1.46962999e-13 0.00000000e+00 4.32114999e-12 0.00000000e+00 1.46962999e-13
1.13454280e+01 4.09341788e-12 1.33142932e-13 0.00000000e+00 3.96027495e-12 0.00000000e+00 1.33142932e-13
1.17251259e+01 3.76111770e-12 1.20622472e-13 0.00000000e+00 3.64049523e-12 0.00000000e+00 1.20622472e-13
1.21175312e+01 3.44729066e-12 1.09279408e-13 0.00000000e+00 3.33801125e-12 0.00000000e+00 1.09279408e-13
1.25230691e+01 3.16507731e-12 9.90030204e-14 0.00000000e+00 3.06607429e-12 0.00000000e+00 9.90030204e-14
1.29421791e+01 2.90779827e-12 8.96930008e-14 0.00000000e+00 2.81810527e-12 0.00000000e+00 8.96930008e-14
1.33753155e+01 2.67633967e-12 8.12584743e-14 0.00000000e+00 2.59508119e-12 0.00000000e+00 8.12584743e-14
1.38229477e+01 2.51861016e-12 7.36171115e-14 0.00000000e+00 2.44499305e-12 0.00000000e+00 7.36171115e-14
1.42855609e+01 2.41826549e-12 6.66943252e-14 0.00000000e+00 2.35157117e-12 0.00000000e+00 6.66943252e-14
1.47636563e+01 2.43057258e-12 6.04225420e-14 0.00000000e+00 2.37015004e-12 0.00000000e+00 6.04225420e-14
1.52577522e+01 2.47055580e-12 5.47405431e-14 0.00000000e+00 2.41581525e-12 0.00000000e+00 5.47405431e-14
1.57683840e+01 2.52292328e-12 4.95928665e-14 0.00000000e+00 2.47333041e-12 0.00000000e+00 4.95928665e-14
1.62961051e+01 2.57877325e-12 4.49292657e-14 0.00000000e+00 2.53384398e-12 0.00000000e+00 4.49292657e-14
1.68414875e+01 2.62715960e-12 4.07042194e-14 0.00000000e+00 2.58645538e-12 0.00000000e+00 4.07042194e-14
1.74051222e+01 2.65427621e-12 3.68764869e-14 0.00000000e+00 2.61739973e-12 0.00000000e+00 3.68764869e-14
1.79876201e+01 2.65314180e-12 3.34087056e-14 0.00000000e+00 2.61973309e-12 0.00000000e+00 3.34087056e-14
1.85896125e+01 2.61135695e-12 3.02670267e-14 0.00000000e+00 2.58108992e-12 0.00000000e+00 3.02670267e-14
1.92117518e+01 2.53413950e-12 2.74207841e-14 0.00000000e+00 2.50671871e-12 0.00000000e+00 2.74207841e-14
1.98547123e+01 2.43030729e-12 2.48421957e-14 0.00000000e+00 2.40546509e-12 0.00000000e+00 2.48421957e-14
2.05191907e+01 2.32404403e-12 2.25060919e-14 0.00000000e+00 2.30153794e-12 0.00000000e+00 2.25060919e-14
2.12059073e+01 2.22055829e-12 2.03896700e-14 0.00000000e+00 2.20016862e-12 0.00000000e+00 2.03896700e-14
2.19156062e+01 2.12027109e-12 1.84722717e-14 0.00000000e+00 2.10179882e-12 0.00000000e+00 1.84722717e-14
2.26490567e+01 2.02420547e-12 1.67351811e-14 0.00000000e+00 2.00747029e-12 0.00000000e+00 1.67351811e-14
2.34070535e+01 1.93806340e-12 1.51614426e-14 0.00000000e+00 1.92290195e-12 0.00000000e+00 1.51614426e-14
2.41904183e+01 1.84986270e-12 1.37356949e-14 0.00000000e+00 1.83612700e-12 0.00000000e+00 1.37356949e-14
2.50000000e+01 1.76571889e-12 1.24440213e-14 0.00000000e+00 1.75327487e-12 0.00000000e+00 1.24440213e-14
2.75422870e+01 1.52375251e-12 9.30637977e-15 0.00000000e+00 1.51444613e-12 0.00000000e+00 9.30637977e-15
3.16227766e+01 1.19868137e-12 6.14866414e-15 0.00000000e+00 1.19253271e-12 0.00000000e+00 6.14866414e-15
3.63078055e+01 8.93477849e-13 4.06238211e-15 0.00000000e+00 8.89415467e-13 0.00000000e+00 4.06238211e-15
4.16869383e+01 6.21940909e-13 2.68398924e-15 0.00000000e+00 6.19256920e-13 0.00000000e+00 2.68398924e-15
4.78630092e+01 4.05308871e-13 1.77329411e-15 0.00000000e+00 4.03535577e-13 0.00000000e+00 1.77329411e-15
5.49540874e+01 2.50397451e-13 1.17160380e-15 0.00000000e+00 2.49225848e-13 0.00000000e+00 1.17160380e-15
6.30957344e+01 1.48344243e-13 7.74070953e-16 0.00000000e+00 1.47570172e-13 0.00000000e+00 7.74070953e-16
7.24435960e+01 8.51700870e-14 5.11423607e-16 0.00000000e+00 8.46586634e-14 0.00000000e+00 5.11423607e-16
8.31763771e+01 4.78020236e-14 3.37894226e-16 0.00000000e+00 4.74641293e-14 0.00000000e+00 3.37894226e-16
9.54992586e+01 2.64268406e-14 2.23244502e-16 0.00000000e+00 2.62035961e-14 0.00000000e+00 2.23244502e-16
1.09647820e+02 1.44383790e-14 1.47496179e-16 0.00000000e+00 1.42908828e-14 0.00000000e+00 1.47496179e-16
1.25892541e+02 7.91475637e-15 9.74497594e-17 0.00000000e+00 7.81730661e-15 0.00000000e+00 9.74497594e-17
1.44543977e+02 4.32522304e-15 6.43844175e-17 0.00000000e+00 4.26083862e-15 0.00000000e+00 6.43844175e-17
1.65958691e+02 2.25538263e-15 4.25383628e-17 0.00000000e+00 2.21284427e-15 0.00000000e+00 4.25383628e-17
1.90546072e+02 1.18013974e-15 2.81048176e-17 0.00000000e+00 1.15203492e-15 0.00000000e+00 2.81048176e-17
2.18776162e+02 6.18092828e-16 1.85686688e-17 0.00000000e+00 5.99524159e-16 0.00000000e+00 1.85686688e-17
2.51188643e+02 3.23417185e-16 1.22681978e-17 0.00000000e+00 3.11148987e-16 0.00000000e+00 1.22681978e-17
2.88403150e+02 1.68933865e-16 8.10551794e-18 0.00000000e+00 1.60828347e-16 0.00000000e+00 8.10551794e-18
3.31131121e+02 8.82919700e-17 5.35526259e-18 0.00000000e+00 8.29367074e-17 0.00000000e+00 5.35526259e-18
3.80189396e+02 4.61561703e-17 3.53818691e-18 0.00000000e+00 4.26179834e-17 0.00000000e+00 3.53818691e-18
4.36515832e+02 2.41881866e-17 2.33765691e-18 0.00000000e+00 2.18505297e-17 0.00000000e+00 2.33765691e-18
5.01187234e+02 1.27185358e-17 1.54447460e-18 0.00000000e+00 1.11740612e-17 0.00000000e+00 1.54447460e-18
5.75439937e+02 6.72262503e-18 1.02042425e-18 0.00000000e+00 5.70220078e-18 0.00000000e+00 1.02042425e-18
6.60693448e+02 3.57867158e-18 6.74187617e-19 0.00000000e+00 2.90448396e-18 0.00000000e+00 6.74187617e-19
7.58577575e+02 1.92246712e-18 4.45431341e-19 0.00000000e+00 1.47703578e-18 0.00000000e+00 4.45431341e-19
8.70963590e+02 1.04416384e-18 2.94293569e-19 0.00000000e+00 7.49870270e-19 0.00000000e+00 2.94293569e-19
1.00000000e+03 3.80093550e-19 0.00000000e+00 0.00000000e+00 3.80093550e-19 0.00000000e+00 0.00000000e+00
