# column 1: lambda (micron)
# column 2: total flux; lambda*F_lambda (W/m2)
# column 3: direct stellar flux; lambda*F_lambda (W/m2)
# column 4: scattered stellar flux; lambda*F_lambda (W/m2)
# column 5: total dust emission flux; lambda*F_lambda (W/m2)
# column 6: dust emission scattered flux; lambda*F_lambda (W/m2)
# column 7: transparent flux; lambda*F_lambda (W/m2)
1.00000000e-03 8.46534299e-13 8.46529401e-13 4.89798855e-18 0.00000000e+00 0.00000000e+00 8.46529401e-13
1.14815362e-03 9.99184060e-13 9.99176121e-13 7.93975536e-18 0.00000000e+00 0.00000000e+00 9.99176121e-13
1.31825674e-03 1.17935982e-12 1.17934819e-12 1.16289967e-17 0.00000000e+00 0.00000000e+00 1.17934819e-12
1.51356125e-03 1.39202689e-12 1.39200901e-12 1.78772288e-17 0.00000000e+00 0.00000000e+00 1.39200901e-12
1.73780083e-03 1.64304955e-12 1.64301696e-12 3.25946799e-17 0.00000000e+00 0.00000000e+00 1.64301696e-12
1.99526231e-03 1.93934662e-12 1.93928682e-12 5.98028224e-17 0.00000000e+00 0.00000000e+00 1.93928682e-12
2.29086765e-03 2.28907276e-12 2.28898025e-12 9.25026980e-17 0.00000000e+00 0.00000000e+00 2.28898025e-12
2.63026799e-03 2.70193243e-12 2.70173063e-12 2.01803506e-16 0.00000000e+00 0.00000000e+00 2.70173063e-12
3.01995172e-03 3.18924799e-12 3.18890841e-12 3.39577090e-16 0.00000000e+00 0.00000000e+00 3.18890841e-12
3.46736850e-03 3.76449703e-12 3.76393440e-12 5.62624599e-16 0.00000000e+00 0.00000000e+00 3.76393440e-12
3.98107171e-03 4.44362758e-12 4.44264945e-12 9.78127524e-16 0.00000000e+00 0.00000000e+00 4.44264945e-12
4.57088190e-03 5.24565737e-12 5.24375082e-12 1.90654308e-15 0.00000000e+00 0.00000000e+00 5.24375082e-12
5.24807460e-03 6.19288597e-12 6.18930730e-12 3.57866219e-15 0.00000000e+00 0.00000000e+00 6.18930730e-12
6.02559586e-03 7.31312183e-12 7.30536713e-12 7.75469776e-15 0.00000000e+00 0.00000000e+00 7.30536713e-12
6.91830971e-03 8.63372441e-12 8.62267558e-12 1.10488306e-14 0.00000000e+00 0.00000000e+00 8.62267558e-12
7.94328235e-03 1.01958651e-11 1.01775219e-11 1.83432305e-14 3.18465271e-304 1.17994838e-305 1.01775219e-11
9.12010839e-03 1.20420427e-11 1.20127391e-11 2.93035168e-14 1.34278589e-265 5.71072842e-268 1.20127391e-11
1.04712855e-02 1.34673231e-11 1.34165878e-11 5.07352980e-14 5.65324762e-232 2.97443332e-234 1.34165878e-11
1.20226443e-02 1.35370060e-11 1.34165878e-11 1.20418134e-13 8.84845746e-203 8.10020063e-205 1.34165878e-11
1.38038426e-02 1.35079386e-11 1.34165878e-11 9.13507856e-14 2.40991317e-177 3.11989138e-179 1.34165878e-11
1.58489319e-02 1.35790174e-11 1.34165878e-11 1.62429542e-13 3.26317027e-155 5.79082773e-157 1.34165878e-11
1.81970086e-02 1.36056533e-11 1.34165878e-11 1.89065489e-13 5.84740745e-136 1.50167015e-137 1.34165878e-11
2.08929613e-02 1.36735781e-11 1.34165878e-11 2.56990216e-13 3.06286704e-119 9.77818685e-121 1.34165878e-11
2.39883292e-02 1.37499199e-11 1.34165878e-11 3.33332079e-13 1.08089728e-104 4.44221271e-106 1.34165878e-11
2.75422870e-02 1.38375849e-11 1.34165878e-11 4.20997091e-13 4.87151717e-92 2.49619887e-93 1.34165878e-11
3.16227766e-02 1.38940375e-11 1.34165878e-11 4.77449694e-13 4.76671762e-81 2.77176409e-82 1.34165878e-11
3.63078055e-02 1.39359476e-11 1.34165878e-11 5.19359773e-13 1.65621046e-71 1.04400073e-72 1.34165878e-11
4.16869383e-02 1.40461719e-11 1.34165878e-11 6.29584018e-13 3.17636155e-63 2.42850341e-64 1.34165878e-11
4.78630092e-02 1.41047972e-11 1.34165878e-11 6.88209399e-13 4.81617469e-56 4.13379773e-57 1.34165878e-11
5.49540874e-02 1.40989877e-11 1.34165878e-11 6.82399898e-13 7.97653450e-50 7.02385499e-51 1.34165878e-11
6.30957344e-02 1.40922779e-11 1.34165878e-11 6.75690014e-13 2.57210222e-44 2.34089036e-45 1.34165878e-11
7.24435960e-02 1.40011896e-11 1.34165878e-11 5.84601764e-13 1.47924814e-39 1.21715683e-40 1.34165878e-11
8.31763771e-02 1.39768243e-11 1.34165878e-11 5.60236482e-13 1.51160365e-35 1.22206676e-36 1.34165878e-11
9.54992586e-02 1.39953174e-11 1.34165878e-11 5.78729548e-13 4.25203988e-32 3.48277405e-33 1.34165878e-11
1.09647820e-01 1.34182506e-11 1.28127470e-11 6.05503649e-13 3.61729872e-29 3.25429525e-30 1.28127470e-11
1.25892541e-01 1.25622421e-11 1.19575512e-11 6.04690908e-13 1.17578098e-26 1.10492686e-27 1.19575512e-11
1.44543977e-01 1.17190882e-11 1.11594361e-11 5.59652160e-13 1.59597159e-24 1.45884163e-25 1.11594361e-11
1.65958691e-01 1.09660047e-11 1.04145917e-11 5.51412932e-13 8.08353340e-23 7.88813783e-24 1.04145917e-11
1.90546072e-01 1.02767297e-11 9.71946251e-12 5.57267179e-13 1.70897812e-21 1.89575340e-22 9.71946251e-12
2.18776162e-01 9.57515885e-12 9.07073019e-12 5.04428640e-13 2.01727309e-20 2.23152821e-21 9.07073019e-12
2.51188643e-01 9.01425004e-12 8.46529796e-12 5.48951829e-13 2.45848593e-19 3.22110965e-20 8.46529796e-12
2.88403150e-01 8.41361264e-12 7.90027573e-12 5.13334861e-13 2.04840754e-18 2.70158913e-19 7.90027573e-12
3.31131121e-01 7.84863686e-12 7.37296631e-12 4.75658832e-13 1.17207299e-17 1.50770506e-18 7.37296631e-12
3.80189396e-01 7.30205270e-12 6.88085251e-12 4.21151055e-13 4.91271580e-17 6.24006223e-18 6.88085251e-12
4.36515832e-01 6.80835006e-12 6.42158520e-12 3.86604365e-13 1.60490027e-16 2.11039930e-17 6.42158520e-12
5.01187234e-01 6.34227447e-12 5.99297201e-12 3.48846537e-13 4.55925598e-16 6.96438652e-17 5.99297201e-12
5.75439937e-01 5.90235449e-12 5.59296690e-12 3.08057117e-13 1.33047450e-15 2.63758019e-16 5.59296690e-12
6.60693448e-01 5.49904734e-12 5.21966041e-12 2.75069913e-13 4.31701384e-15 1.05020881e-15 5.21966041e-12
7.58577575e-01 5.12871464e-12 4.87127053e-12 2.43049993e-13 1.43941141e-14 3.78716885e-15 4.87127053e-12
8.70963590e-01 4.79913292e-12 4.54613417e-12 2.08893280e-13 4.41054686e-14 1.15447261e-14 4.54613417e-12
1.00000000e+00 4.53574289e-12 4.24269927e-12 1.75304995e-13 1.17738625e-13 2.88308452e-14 4.24269927e-12
1.14815362e+00 4.38234164e-12 3.95951734e-12 1.45110838e-13 2.77713461e-13 6.17083834e-14 3.95951734e-12
1.31825674e+00 4.39611512e-12 3.69523659e-12 1.15480015e-13 5.85398517e-13 1.13490638e-13 3.69523659e-12
1.51356125e+00 4.64151283e-12 3.44859544e-12 9.02357478e-14 1.10268165e-12 1.84759536e-13 3.44859544e-12
1.73780083e+00 5.15521193e-12 3.21841652e-12 6.94096655e-14 1.86738574e-12 2.57775983e-13 3.21841652e-12
1.99526231e+00 5.87444815e-12 3.00360106e-12 5.18515356e-14 2.81899555e-12 3.12715931e-13 3.00360106e-12
2.29086765e+00 6.69992616e-12 2.80312361e-12 3.79834069e-14 3.85881914e-12 3.33744949e-13 2.80312361e-12
2.63026799e+00 7.52799390e-12 2.61602716e-12 2.75985645e-14 4.88436817e-12 3.21946530e-13 2.61602716e-12
3.01995172e+00 8.27035040e-12 2.44141860e-12 1.93050850e-14 5.80962671e-12 2.84167703e-13 2.44141860e-12
3.46736850e+00 8.80544789e-12 2.27846441e-12 1.35823311e-14 6.51340115e-12 2.35731847e-13 2.27846441e-12
3.98107171e+00 9.10677970e-12 2.12638671e-12 9.29466580e-15 6.97109833e-12 1.82490266e-13 2.12638671e-12
4.57088190e+00 9.15674765e-12 1.98445954e-12 6.16934713e-15 7.16611876e-12 1.33145514e-13 1.98445954e-12
5.24807460e+00 8.85967674e-12 1.64084388e-12 3.55922941e-15 7.21527363e-12 9.19530752e-14 1.64084388e-12
6.02559586e+00 8.21969705e-12 1.08409480e-12 1.54445002e-15 7.13405780e-12 6.01774311e-14 1.08409480e-12
6.70000000e+00 7.82186573e-12 7.88574724e-13 7.88431017e-16 7.03250258e-12 4.15822207e-14 7.88574724e-13
6.92422916e+00 7.69853346e-12 7.14418944e-13 6.35250201e-16 6.98347927e-12 3.66377853e-14 7.14418944e-13
7.15596261e+00 7.61190923e-12 6.47236606e-13 5.04211655e-16 6.96416841e-12 3.21192005e-14 6.47236606e-13
7.39545150e+00 7.60862816e-12 5.86371942e-13 3.86028490e-16 7.02187019e-12 2.76250432e-14 5.86371942e-13
7.64295536e+00 7.87245854e-12 5.31230854e-13 2.67645825e-16 7.34096004e-12 2.28902046e-14 5.31230854e-13
7.89874245e+00 8.48319326e-12 4.81275108e-13 1.63621642e-16 8.00175453e-12 1.77784748e-14 4.81275108e-13
8.16308998e+00 9.41876112e-12 4.36017088e-13 9.40600166e-17 8.98264997e-12 1.35820778e-14 4.36017088e-13
8.43628443e+00 1.05766419e-11 3.95015029e-13 5.17697785e-17 1.01815751e-11 1.00850415e-14 3.95015029e-13
8.71862190e+00 1.13289624e-11 3.57868711e-13 3.16738717e-17 1.09710620e-11 7.83598790e-15 3.57868711e-13
9.01040836e+00 1.21662533e-11 3.24215549e-13 1.88892810e-17 1.18420189e-11 5.92583451e-15 3.24215549e-13
9.31196005e+00 1.27999378e-11 2.93727053e-13 0.00000000e+00 1.25062108e-11 0.00000000e+00 2.93727053e-13
9.62360379e+00 1.27896716e-11 2.66105627e-13 0.00000000e+00 1.25235660e-11 0.00000000e+00 2.66105627e-13
9.94567731e+00 1.22717034e-11 2.41081657e-13 0.00000000e+00 1.20306218e-11 0.00000000e+00 2.41081657e-13
1.02785297e+01 1.16641087e-11 2.18410884e-13 0.00000000e+00 1.14456978e-11 0.00000000e+00 2.18410884e-13
1.06225216e+01 1.10711057e-11 1.97872020e-13 0.00000000e+00 1.08732336e-11 0.00000000e+00 1.97872020e-13
1.09780260e+01 1.03907262e-11 1.79264583e-13 0.00000000e+00 1.02114616e-11 0.00000000e+00 1.79264583e-13
1.13454280e+01 9.86796220e-12 1.62406948e-13 0.00000000e+00 9.70555526e-12 0.00000000e+00 1.62406948e-13
1.17251259e+01 9.40644605e-12 1.47134567e-13 0.00000000e+00 9.25931148e-12 0.00000000e+00 1.47134567e-13
1.21175312e+01 9.02130012e-12 1.33298366e-13 0.00000000e+00 8.88800175e-12 0.00000000e+00 1.33298366e-13
1.25230691e+01 8.65706034e-12 1.20763289e-13 0.00000000e+00 8.53629705e-12 0.00000000e+00 1.20763289e-13
1.29421791e+01 8.31625363e-12 1.09406983e-13 0.00000000e+00 8.20684664e-12 0.00000000e+00 1.09406983e-13
1.33753155e+01 8.05739753e-12 9.91185987e-14 0.00000000e+00 7.95827893e-12 0.00000000e+00 9.91185987e-14
1.38229477e+01 7.91201071e-12 8.97977103e-14 0.00000000e+00 7.82221300e-12 0.00000000e+00 8.97977103e-14
1.42855609e+01 7.87818847e-12 8.13533371e-14 0.00000000e+00 7.79683514e-12 0.00000000e+00 8.13533371e-14
1.47636563e+01 8.01957901e-12 7.37030537e-14 0.00000000e+00 7.94587595e-12 0.00000000e+00 7.37030537e-14
1.52577522e+01 8.25393652e-12 6.67721855e-14 0.00000000e+00 8.18716434e-12 0.00000000e+00 6.67721855e-14
1.57683840e+01 8.48972209e-12 6.04930805e-14 0.00000000e+00 8.42922901e-12 0.00000000e+00 6.04930805e-14
1.62961051e+01 8.76048097e-12 5.48044484e-14 0.00000000e+00 8.70567652e-12 0.00000000e+00 5.48044484e-14
1.68414875e+01 8.97505832e-12 4.96507622e-14 0.00000000e+00 8.92540756e-12 0.00000000e+00 4.96507622e-14
1.74051222e+01 9.19807904e-12 4.49817171e-14 0.00000000e+00 9.15309732e-12 0.00000000e+00 4.49817171e-14
1.79876201e+01 9.29411661e-12 4.07517384e-14 0.00000000e+00 9.25336488e-12 0.00000000e+00 4.07517384e-14
1.85896125e+01 9.36520394e-12 3.69195372e-14 0.00000000e+00 9.32828441e-12 0.00000000e+00 3.69195372e-14
1.92117518e+01 9.29949605e-12 3.34477076e-14 0.00000000e+00 9.26604834e-12 0.00000000e+00 3.34477076e-14
1.98547123e+01 9.23772909e-12 3.03023610e-14 0.00000000e+00 9.20742673e-12 0.00000000e+00 3.03023610e-14
2.05191907e+01 9.06496380e-12 2.74527957e-14 0.00000000e+00 9.03751100e-12 0.00000000e+00 2.74527957e-14
2.12059073e+01 8.90841466e-12 2.48711970e-14 0.00000000e+00 8.88354346e-12 0.00000000e+00 2.48711970e-14
2.19156062e+01 8.72515699e-12 2.25323660e-14 0.00000000e+00 8.70262462e-12 0.00000000e+00 2.25323660e-14
2.26490567e+01 8.55278050e-12 2.04134733e-14 0.00000000e+00 8.53236702e-12 0.00000000e+00 2.04134733e-14
2.34070535e+01 8.36422225e-12 1.84938366e-14 0.00000000e+00 8.34572841e-12 0.00000000e+00 1.84938366e-14
2.41904183e+01 8.15062759e-12 1.67547181e-14 0.00000000e+00 8.13387288e-12 0.00000000e+00 1.67547181e-14
2.50000000e+01 7.91817280e-12 1.51791424e-14 0.00000000e+00 7.90299366e-12 0.00000000e+00 1.51791424e-14
2.75422870e+01 7.23052997e-12 1.13518661e-14 0.00000000e+00 7.21917811e-12 0.00000000e+00 1.13518661e-14
3.16227766e+01 6.01772395e-12 7.50010357e-15 0.00000000e+00 6.01022385e-12 0.00000000e+00 7.50010357e-15
3.63078055e+01 4.70444783e-12 4.95526929e-15 0.00000000e+00 4.69949257e-12 0.00000000e+00 4.95526929e-15
4.16869383e+01 3.42071076e-12 3.27391395e-15 0.00000000e+00 3.41743685e-12 0.00000000e+00 3.27391395e-15
4.78630092e+01 2.31871532e-12 2.16305350e-15 0.00000000e+00 2.31655226e-12 0.00000000e+00 2.16305350e-15
5.49540874e+01 1.47724721e-12 1.42911527e-15 0.00000000e+00 1.47581810e-12 0.00000000e+00 1.42911527e-15
6.30957344e+01 8.99301075e-13 9.44207098e-16 0.00000000e+00 8.98356868e-13 0.00000000e+00 9.44207098e-16
7.24435960e+01 5.25806385e-13 6.23831443e-16 0.00000000e+00 5.25182554e-13 0.00000000e+00 6.23831443e-16
8.31763771e+01 2.98461258e-13 4.12161347e-16 0.00000000e+00 2.98049096e-13 0.00000000e+00 4.12161347e-16
9.54992586e+01 1.66074482e-13 2.72312302e-16 0.00000000e+00 1.65802170e-13 0.00000000e+00 2.72312302e-16
1.09647820e+02 9.09400269e-14 1.79914953e-16 0.00000000e+00 9.07601120e-14 0.00000000e+00 1.79914953e-16
1.25892541e+02 4.97861010e-14 1.18868631e-16 0.00000000e+00 4.96672324e-14 0.00000000e+00 1.18868631e-16
1.44543977e+02 2.71289240e-14 7.85357256e-17 0.00000000e+00 2.70503883e-14 0.00000000e+00 7.85357256e-17
1.65958691e+02 1.40959224e-14 5.18880394e-17 0.00000000e+00 1.40440344e-14 0.00000000e+00 5.18880394e-17
1.90546072e+02 7.33540374e-15 3.42820876e-17 0.00000000e+00 7.30112166e-15 0.00000000e+00 3.42820876e-17
2.18776162e+02 3.81420367e-15 2.26499507e-17 0.00000000e+00 3.79155372e-15 0.00000000e+00 2.26499507e-17
2.51188643e+02 1.97827358e-15 1.49646740e-17 0.00000000e+00 1.96330890e-15 0.00000000e+00 1.49646740e-17
2.88403150e+02 1.02225353e-15 9.88706207e-18 0.00000000e+00 1.01236647e-15 0.00000000e+00 9.88706207e-18
3.31131121e+02 5.27377988e-16 6.53231713e-18 0.00000000e+00 5.20845671e-16 0.00000000e+00 6.53231713e-18
3.80189396e+02 2.71380727e-16 4.31585913e-18 0.00000000e+00 2.67064868e-16 0.00000000e+00 4.31585913e-18
4.36515832e+02 1.39494511e-16 2.85145985e-18 0.00000000e+00 1.36643051e-16 0.00000000e+00 2.85145985e-18
5.01187234e+02 7.16293355e-17 1.88394084e-18 0.00000000e+00 6.97453947e-17 0.00000000e+00 1.88394084e-18
5.75439937e+02 3.67751161e-17 1.24470737e-18 0.00000000e+00 3.55304088e-17 0.00000000e+00 1.24470737e-18
6.60693448e+02 1.88918714e-17 8.22370004e-19 0.00000000e+00 1.80695014e-17 0.00000000e+00 8.22370004e-19
7.58577575e+02 9.71941902e-18 5.43334473e-19 0.00000000e+00 9.17608454e-18 0.00000000e+00 5.43334473e-19
8.70963590e+02 5.01169118e-18 3.58977527e-19 0.00000000e+00 4.65271366e-18 0.00000000e+00 3.58977527e-19
1.00000000e+03 2.35572575e-18 0.00000000e+00 0.00000000e+00 2.35572575e-18 0.00000000e+00 0.00000000e+00
