# column 1: lambda (micron)
# column 2: total flux; lambda*F_lambda (W/m2)
# column 3: direct stellar flux; lambda*F_lambda (W/m2)
# column 4: scattered stellar flux; lambda*F_lambda (W/m2)
# column 5: total dust emission flux; lambda*F_lambda (W/m2)
# column 6: dust emission scattered flux; lambda*F_lambda (W/m2)
# column 7: transparent flux; lambda*F_lambda (W/m2)
1.00000000e-03 6.93997923e-13 6.93993746e-13 4.17688642e-18 0.00000000e+00 0.00000000e+00 6.93993746e-13
1.14815362e-03 8.19141749e-13 8.19135139e-13 6.60956306e-18 0.00000000e+00 0.00000000e+00 8.19135139e-13
1.31825674e-03 9.66852181e-13 9.66842108e-13 1.00733048e-17 0.00000000e+00 0.00000000e+00 9.66842108e-13
1.51356125e-03 1.14119931e-12 1.14118369e-12 1.56153825e-17 0.00000000e+00 0.00000000e+00 1.14118369e-12
1.73780083e-03 1.34699039e-12 1.34696266e-12 2.77270950e-17 0.00000000e+00 0.00000000e+00 1.34696266e-12
1.99526231e-03 1.58990201e-12 1.58984782e-12 5.41891530e-17 0.00000000e+00 0.00000000e+00 1.58984782e-12
2.29086765e-03 1.87660836e-12 1.87653019e-12 7.81644688e-17 0.00000000e+00 0.00000000e+00 1.87653019e-12
2.63026799e-03 2.21507088e-12 2.21490731e-12 1.63570067e-16 0.00000000e+00 0.00000000e+00 2.21490731e-12
3.01995172e-03 2.61458037e-12 2.61430080e-12 2.79567406e-16 0.00000000e+00 0.00000000e+00 2.61430080e-12
3.46736850e-03 3.08620158e-12 3.08571319e-12 4.88390672e-16 0.00000000e+00 0.00000000e+00 3.08571319e-12
3.98107171e-03 3.64288034e-12 3.64213095e-12 7.49389264e-16 0.00000000e+00 0.00000000e+00 3.64213095e-12
4.57088190e-03 4.30056313e-12 4.29888232e-12 1.68080608e-15 0.00000000e+00 0.00000000e+00 4.29888232e-12
5.24807460e-03 5.07704038e-12 5.07405951e-12 2.98086371e-15 0.00000000e+00 0.00000000e+00 5.07405951e-12
6.02559586e-03 5.99462850e-12 5.98901715e-12 5.61134872e-15 0.00000000e+00 0.00000000e+00 5.98901715e-12
6.91830971e-03 7.07800570e-12 7.06896053e-12 9.04516920e-15 0.00000000e+00 0.00000000e+00 7.06896053e-12
7.94328235e-03 8.35818111e-12 8.34363998e-12 1.45411317e-14 2.21125284e-303 8.02907882e-306 8.34363998e-12
9.12010839e-03 9.87233007e-12 9.84817045e-12 2.41596226e-14 9.33766015e-265 5.16628880e-267 9.84817045e-12
1.04712855e-02 1.10358031e-11 1.09990604e-11 3.67426121e-14 3.81783983e-231 2.57180224e-233 1.09990604e-11
1.20226443e-02 1.10550893e-11 1.09990604e-11 5.60288956e-14 5.81857872e-202 5.62024991e-204 1.09990604e-11
1.38038426e-02 1.10814333e-11 1.09990604e-11 8.23728547e-14 1.54654419e-176 1.78052452e-178 1.09990604e-11
1.58489319e-02 1.11132580e-11 1.09990604e-11 1.14197522e-13 2.05492400e-154 3.48207664e-156 1.09990604e-11
1.81970086e-02 1.11554099e-11 1.09990604e-11 1.56349419e-13 3.61173106e-135 8.19031500e-137 1.09990604e-11
2.08929613e-02 1.11917768e-11 1.09990604e-11 1.92716306e-13 1.86645471e-118 5.65327488e-120 1.09990604e-11
2.39883292e-02 1.12524200e-11 1.09990604e-11 2.53359560e-13 6.48992110e-104 2.44529707e-105 1.09990604e-11
2.75422870e-02 1.12910584e-11 1.09990604e-11 2.91997941e-13 2.88149583e-91 1.28098601e-92 1.09990604e-11
3.16227766e-02 1.13251863e-11 1.09990604e-11 3.26125891e-13 2.78999121e-80 1.41570616e-81 1.09990604e-11
3.63078055e-02 1.13453771e-11 1.09990604e-11 3.46316693e-13 9.58698475e-71 5.11439191e-72 1.09990604e-11
4.16869383e-02 1.14055068e-11 1.09990604e-11 4.06446393e-13 1.82369696e-62 1.20815656e-63 1.09990604e-11
4.78630092e-02 1.13992712e-11 1.09990604e-11 4.00210735e-13 2.73608472e-55 1.97523561e-56 1.09990604e-11
5.49540874e-02 1.13970549e-11 1.09990604e-11 3.97994477e-13 4.52084131e-49 3.51821140e-50 1.09990604e-11
6.30957344e-02 1.13568842e-11 1.09990604e-11 3.57823734e-13 1.44419279e-43 1.12172825e-44 1.09990604e-11
7.24435960e-02 1.12918923e-11 1.09990604e-11 2.92831850e-13 8.27877174e-39 5.86786007e-40 1.09990604e-11
8.31763771e-02 1.12849713e-11 1.09990604e-11 2.85910850e-13 8.41512214e-35 5.71015424e-36 1.09990604e-11
9.54992586e-02 1.12929919e-11 1.09990604e-11 2.93931412e-13 2.36625385e-31 1.68990768e-32 1.09990604e-11
1.09647820e-01 1.08287350e-11 1.05040253e-11 3.24709736e-13 2.00947958e-28 1.59734405e-29 1.05040253e-11
1.25892541e-01 1.01435923e-11 9.80292679e-12 3.40665535e-13 6.50220515e-26 5.25714271e-27 9.80292679e-12
1.44543977e-01 9.46890029e-12 9.14862359e-12 3.20276703e-13 8.82287235e-24 6.99828439e-25 9.14862359e-12
1.65958691e-01 8.86399480e-12 8.53799231e-12 3.26002485e-13 4.48208843e-22 4.01794402e-23 8.53799231e-12
1.90546072e-01 8.30246174e-12 7.96811805e-12 3.34343688e-13 9.43305737e-21 9.49635159e-22 7.96811805e-12
2.18776162e-01 7.72929909e-12 7.43628044e-12 2.93018542e-13 1.11029012e-19 1.10497686e-20 7.43628044e-12
2.51188643e-01 7.27794338e-12 6.93994070e-12 3.38001323e-13 1.36005876e-18 1.70244764e-19 6.93994070e-12
2.88403150e-01 6.79955971e-12 6.47672950e-12 3.22818932e-13 1.12725749e-17 1.37535852e-18 6.47672950e-12
3.31131121e-01 6.34737310e-12 6.04443567e-12 3.02872965e-13 6.44721878e-17 7.69761042e-18 6.04443567e-12
3.80189396e-01 5.92064605e-12 5.64099558e-12 2.79381662e-13 2.68809285e-16 3.18480880e-17 5.64099558e-12
4.36515832e-01 5.52277265e-12 5.26448339e-12 2.57432529e-13 8.56735657e-16 1.02704644e-16 5.26448339e-12
5.01187234e-01 5.15229222e-12 4.91310176e-12 2.36987690e-13 2.20276748e-15 2.74399390e-16 4.91310176e-12
5.75439937e-01 4.80397134e-12 4.58517335e-12 2.13818800e-13 4.97919243e-15 7.11064285e-16 4.58517335e-12
6.60693448e-01 4.48365369e-12 4.27913275e-12 1.93455253e-13 1.10656875e-14 1.96461294e-15 4.27913275e-12
7.58577575e-01 4.19430363e-12 3.99351904e-12 1.74598137e-13 2.61864511e-14 5.66594168e-15 3.99351904e-12
8.70963590e-01 3.94115674e-12 3.72696882e-12 1.50088981e-13 6.40989389e-14 1.52589417e-14 3.72696882e-12
1.00000000e+00 3.75713297e-12 3.47820968e-12 1.27458128e-13 1.51465159e-13 3.61739847e-14 3.47820968e-12
1.14815362e+00 3.68463014e-12 3.24605414e-12 1.08736836e-13 3.29839160e-13 7.34168238e-14 3.24605414e-12
1.31825674e+00 3.77698383e-12 3.02939399e-12 8.77513818e-14 6.59838455e-13 1.32220914e-13 3.02939399e-12
1.51356125e+00 4.09646203e-12 2.82719497e-12 6.82145053e-14 1.20105256e-12 2.07344757e-13 2.82719497e-12
1.73780083e+00 4.63564297e-12 2.63849186e-12 5.34335360e-14 1.94371756e-12 2.79756545e-13 2.63849186e-12
1.99526231e+00 5.33679834e-12 2.46238388e-12 4.05211870e-14 2.83389327e-12 3.29700618e-13 2.46238388e-12
2.29086765e+00 6.09862594e-12 2.29803035e-12 2.95913079e-14 3.77100429e-12 3.39714200e-13 2.29803035e-12
2.63026799e+00 6.78595281e-12 2.14464670e-12 2.15916414e-14 4.61971446e-12 3.18477016e-13 2.14464670e-12
3.01995172e+00 7.26962788e-12 2.00150076e-12 1.51895658e-14 5.25293756e-12 2.71706239e-13 2.00150076e-12
3.46736850e+00 7.52683497e-12 1.86790919e-12 1.08159757e-14 5.64810980e-12 2.15514105e-13 1.86790919e-12
3.98107171e+00 7.50826915e-12 1.74323429e-12 7.43375006e-15 5.75760111e-12 1.60876320e-13 1.74323429e-12
4.57088190e+00 7.27017059e-12 1.62688090e-12 5.01283410e-15 5.63827686e-12 1.11738097e-13 1.62688090e-12
5.24807460e+00 6.75668346e-12 1.34518114e-12 2.93020780e-15 5.40857211e-12 7.30912975e-14 1.34518114e-12
6.02559586e+00 5.98860277e-12 8.88752369e-13 1.27818755e-15 5.09857222e-12 4.55439532e-14 8.88752369e-13
6.70000000e+00 5.49616876e-12 6.46481889e-13 6.52215570e-16 4.84903466e-12 3.02742409e-14 6.46481889e-13
6.92422916e+00 5.35380751e-12 5.85688198e-13 5.27986489e-16 4.76759132e-12 2.64513227e-14 5.85688198e-13
7.15596261e+00 5.22750073e-12 5.30611407e-13 4.16556360e-16 4.69647277e-12 2.28275214e-14 5.30611407e-13
7.39545150e+00 5.20967688e-12 4.80713913e-13 3.19444582e-16 4.72864352e-12 1.95013166e-14 4.80713913e-13
7.64295536e+00 5.38705714e-12 4.35508666e-13 2.20481265e-16 4.95132799e-12 1.61673044e-14 4.35508666e-13
7.89874245e+00 5.87146817e-12 3.94554418e-13 1.35557773e-16 5.47677820e-12 1.27180306e-14 3.94554418e-13
8.16308998e+00 6.54793976e-12 3.57451415e-13 7.81081987e-17 6.19041024e-12 9.81575860e-15 3.57451415e-13
8.43628443e+00 7.37296144e-12 3.23837494e-13 4.23640366e-17 7.04908159e-12 7.26595178e-15 3.23837494e-13
8.71862190e+00 7.85528693e-12 2.93384550e-13 2.69569504e-17 7.56187543e-12 5.66914243e-15 2.93384550e-13
9.01040836e+00 8.34632466e-12 2.65795332e-13 1.68660063e-17 8.08051246e-12 4.32309307e-15 2.65795332e-13
9.31196005e+00 8.61109739e-12 2.40800541e-13 0.00000000e+00 8.37029685e-12 0.00000000e+00 2.40800541e-13
9.62360379e+00 8.55872868e-12 2.18156204e-13 0.00000000e+00 8.34057248e-12 0.00000000e+00 2.18156204e-13
9.94567731e+00 8.09909797e-12 1.97641289e-13 0.00000000e+00 7.90145668e-12 0.00000000e+00 1.97641289e-13
1.02785297e+01 7.60500032e-12 1.79055550e-13 0.00000000e+00 7.42594477e-12 0.00000000e+00 1.79055550e-13
1.06225216e+01 7.10839415e-12 1.62217572e-13 0.00000000e+00 6.94617658e-12 0.00000000e+00 1.62217572e-13
1.09780260e+01 6.60249273e-12 1.46962999e-13 0.00000000e+00 6.45552973e-12 0.00000000e+00 1.46962999e-13
1.13454280e+01 6.20440080e-12 1.33142932e-13 0.00000000e+00 6.07125786e-12 0.00000000e+00 1.33142932e-13
1.17251259e+01 5.83333504e-12 1.20622472e-13 0.00000000e+00 5.71271257e-12 0.00000000e+00 1.20622472e-13
1.21175312e+01 5.49483092e-12 1.09279408e-13 0.00000000e+00 5.38555151e-12 0.00000000e+00 1.09279408e-13
1.25230691e+01 5.18581774e-12 9.90030204e-14 0.00000000e+00 5.08681472e-12 0.00000000e+00 9.90030204e-14
1.29421791e+01 4.92714194e-12 8.96930008e-14 0.00000000e+00 4.83744893e-12 0.00000000e+00 8.96930008e-14
1.33753155e+01 4.69736511e-12 8.12584743e-14 0.00000000e+00 4.61610664e-12 0.00000000e+00 8.12584743e-14
1.38229477e+01 4.55245408e-12 7.36171115e-14 0.00000000e+00 4.47883697e-12 0.00000000e+00 7.36171115e-14
1.42855609e+01 4.48891915e-12 6.66943252e-14 0.00000000e+00 4.42222483e-12 0.00000000e+00 6.66943252e-14
1.47636563e+01 4.56783229e-12 6.04225420e-14 0.00000000e+00 4.50740975e-12 0.00000000e+00 6.04225420e-14
1.52577522e+01 4.68312380e-12 5.47405431e-14 0.00000000e+00 4.62838325e-12 0.00000000e+00 5.47405431e-14
1.57683840e+01 4.82405417e-12 4.95928665e-14 0.00000000e+00 4.77446130e-12 0.00000000e+00 4.95928665e-14
1.62961051e+01 4.95244445e-12 4.49292657e-14 0.00000000e+00 4.90751519e-12 0.00000000e+00 4.49292657e-14
1.68414875e+01 5.09254465e-12 4.07042194e-14 0.00000000e+00 5.05184043e-12 0.00000000e+00 4.07042194e-14
1.74051222e+01 5.20223219e-12 3.68764869e-14 0.00000000e+00 5.16535571e-12 0.00000000e+00 3.68764869e-14
1.79876201e+01 5.26645132e-12 3.34087056e-14 0.00000000e+00 5.23304262e-12 0.00000000e+00 3.34087056e-14
1.85896125e+01 5.28608483e-12 3.02670267e-14 0.00000000e+00 5.25581780e-12 0.00000000e+00 3.02670267e-14
1.92117518e+01 5.23976914e-12 2.74207841e-14 0.00000000e+00 5.21234835e-12 0.00000000e+00 2.74207841e-14
1.98547123e+01 5.19675451e-12 2.48421957e-14 0.00000000e+00 5.17191231e-12 0.00000000e+00 2.48421957e-14
2.05191907e+01 5.13830427e-12 2.25060919e-14 0.00000000e+00 5.11579817e-12 0.00000000e+00 2.25060919e-14
2.12059073e+01 5.02869736e-12 2.03896700e-14 0.00000000e+00 5.00830769e-12 0.00000000e+00 2.03896700e-14
2.19156062e+01 4.96782823e-12 1.84722717e-14 0.00000000e+00 4.94935596e-12 0.00000000e+00 1.84722717e-14
2.26490567e+01 4.86616235e-12 1.67351811e-14 0.00000000e+00 4.84942716e-12 0.00000000e+00 1.67351811e-14
2.34070535e+01 4.78571253e-12 1.51614426e-14 0.00000000e+00 4.77055109e-12 0.00000000e+00 1.51614426e-14
2.41904183e+01 4.67653117e-12 1.37356949e-14 0.00000000e+00 4.66279547e-12 0.00000000e+00 1.37356949e-14
2.50000000e+01 4.57250200e-12 1.24440213e-14 0.00000000e+00 4.56005798e-12 0.00000000e+00 1.24440213e-14
2.75422870e+01 4.19626688e-12 9.30637977e-15 0.00000000e+00 4.18696050e-12 0.00000000e+00 9.30637977e-15
3.16227766e+01 3.58162751e-12 6.14866414e-15 0.00000000e+00 3.57547885e-12 0.00000000e+00 6.14866414e-15
3.63078055e+01 2.85879461e-12 4.06238211e-15 0.00000000e+00 2.85473223e-12 0.00000000e+00 4.06238211e-15
4.16869383e+01 2.11121512e-12 2.68398924e-15 0.00000000e+00 2.10853113e-12 0.00000000e+00 2.68398924e-15
4.78630092e+01 1.45357958e-12 1.77329411e-15 0.00000000e+00 1.45180628e-12 0.00000000e+00 1.77329411e-15
5.49540874e+01 9.40805622e-13 1.17160380e-15 0.00000000e+00 9.39634018e-13 0.00000000e+00 1.17160380e-15
6.30957344e+01 5.78534134e-13 7.74070953e-16 0.00000000e+00 5.77760063e-13 0.00000000e+00 7.74070953e-16
7.24435960e+01 3.41718927e-13 5.11423607e-16 0.00000000e+00 3.41207504e-13 0.00000000e+00 5.11423607e-16
8.31763771e+01 1.96002856e-13 3.37894226e-16 0.00000000e+00 1.95664962e-13 0.00000000e+00 3.37894226e-16
9.54992586e+01 1.09979494e-13 2.23244502e-16 0.00000000e+00 1.09756250e-13 0.00000000e+00 2.23244502e-16
1.09647820e+02 6.07083466e-14 1.47496179e-16 0.00000000e+00 6.05608504e-14 0.00000000e+00 1.47496179e-16
1.25892541e+02 3.34887849e-14 9.74497594e-17 0.00000000e+00 3.33913351e-14 0.00000000e+00 9.74497594e-17
1.44543977e+02 1.83664917e-14 6.43844175e-17 0.00000000e+00 1.83021073e-14 0.00000000e+00 6.43844175e-17
1.65958691e+02 9.59967485e-15 4.25383628e-17 0.00000000e+00 9.55713649e-15 0.00000000e+00 4.25383628e-17
1.90546072e+02 5.02122117e-15 2.81048176e-17 0.00000000e+00 4.99311635e-15 0.00000000e+00 2.81048176e-17
2.18776162e+02 2.62304830e-15 1.85686688e-17 0.00000000e+00 2.60447963e-15 0.00000000e+00 1.85686688e-17
2.51188643e+02 1.36609569e-15 1.22681978e-17 0.00000000e+00 1.35382749e-15 0.00000000e+00 1.22681978e-17
2.88403150e+02 7.08616360e-16 8.10551794e-18 0.00000000e+00 7.00510842e-16 0.00000000e+00 8.10551794e-18
3.31131121e+02 3.66854142e-16 5.35526259e-18 0.00000000e+00 3.61498880e-16 0.00000000e+00 5.35526259e-18
3.80189396e+02 1.89378806e-16 3.53818691e-18 0.00000000e+00 1.85840619e-16 0.00000000e+00 3.53818691e-18
4.36515832e+02 9.76416173e-17 2.33765691e-18 0.00000000e+00 9.53039604e-17 0.00000000e+00 2.33765691e-18
5.01187234e+02 5.02876152e-17 1.54447460e-18 0.00000000e+00 4.87431406e-17 0.00000000e+00 1.54447460e-18
5.75439937e+02 2.58950623e-17 1.02042425e-18 0.00000000e+00 2.48746381e-17 0.00000000e+00 1.02042425e-18
6.60693448e+02 1.33437950e-17 6.74187617e-19 0.00000000e+00 1.26696074e-17 0.00000000e+00 6.74187617e-19
7.58577575e+02 6.88786867e-18 4.45431341e-19 0.00000000e+00 6.44243733e-18 0.00000000e+00 4.45431341e-19
8.70963590e+02 3.56469069e-18 2.94293569e-19 0.00000000e+00 3.27039712e-18 0.00000000e+00 2.94293569e-19
1.00000000e+03 1.65752153e-18 0.00000000e+00 0.00000000e+00 1.65752153e-18 0.00000000e+00 0.00000000e+00
