# column 1: lambda (micron)
# column 2: total flux; lambda*F_lambda (W/m2)
# column 3: direct stellar flux; lambda*F_lambda (W/m2)
# column 4: scattered stellar flux; lambda*F_lambda (W/m2)
# column 5: total dust emission flux; lambda*F_lambda (W/m2)
# column 6: dust emission scattered flux; lambda*F_lambda (W/m2)
# column 7: transparent flux; lambda*F_lambda (W/m2)
1.00000000e-03 6.93993925e-13 6.93993746e-13 1.78966099e-19 0.00000000e+00 0.00000000e+00 6.93993746e-13
1.14815362e-03 8.19135432e-13 8.19135139e-13 2.92716212e-19 0.00000000e+00 0.00000000e+00 8.19135139e-13
1.31825674e-03 9.66842580e-13 9.66842108e-13 4.72413224e-19 0.00000000e+00 0.00000000e+00 9.66842108e-13
1.51356125e-03 1.14118445e-12 1.14118369e-12 7.58699680e-19 0.00000000e+00 0.00000000e+00 1.14118369e-12
1.73780083e-03 1.34696403e-12 1.34696266e-12 1.36675366e-18 0.00000000e+00 0.00000000e+00 1.34696266e-12
1.99526231e-03 1.58985017e-12 1.58984782e-12 2.34702468e-18 0.00000000e+00 0.00000000e+00 1.58984782e-12
2.29086765e-03 1.87653411e-12 1.87653019e-12 3.91384835e-18 0.00000000e+00 0.00000000e+00 1.87653019e-12
2.63026799e-03 2.21491520e-12 2.21490731e-12 7.88866850e-18 0.00000000e+00 0.00000000e+00 2.21490731e-12
3.01995172e-03 2.61431430e-12 2.61430080e-12 1.34967197e-17 0.00000000e+00 0.00000000e+00 2.61430080e-12
3.46736850e-03 3.08573567e-12 3.08571319e-12 2.24874935e-17 0.00000000e+00 0.00000000e+00 3.08571319e-12
3.98107171e-03 3.64216793e-12 3.64213095e-12 3.69751867e-17 0.00000000e+00 0.00000000e+00 3.64213095e-12
4.57088190e-03 4.29896287e-12 4.29888232e-12 8.05556349e-17 0.00000000e+00 0.00000000e+00 4.29888232e-12
5.24807460e-03 5.07420211e-12 5.07405951e-12 1.42600736e-16 0.00000000e+00 0.00000000e+00 5.07405951e-12
6.02559586e-03 5.98928399e-12 5.98901715e-12 2.66838233e-16 0.00000000e+00 0.00000000e+00 5.98901715e-12
6.91830971e-03 7.06937830e-12 7.06896053e-12 4.17775813e-16 0.00000000e+00 0.00000000e+00 7.06896053e-12
7.94328235e-03 8.34436584e-12 8.34363998e-12 7.25858178e-16 0.00000000e+00 0.00000000e+00 8.34363998e-12
9.12010839e-03 9.84929793e-12 9.84817045e-12 1.12748561e-15 0.00000000e+00 0.00000000e+00 9.84817045e-12
1.04712855e-02 1.10005341e-11 1.09990604e-11 1.47365137e-15 0.00000000e+00 0.00000000e+00 1.09990604e-11
1.20226443e-02 1.10012885e-11 1.09990604e-11 2.22806201e-15 0.00000000e+00 0.00000000e+00 1.09990604e-11
1.38038426e-02 1.10023421e-11 1.09990604e-11 3.28161302e-15 3.58888599e-289 2.41070972e-290 1.09990604e-11
1.58489319e-02 1.10032101e-11 1.09990604e-11 4.14970302e-15 2.12960886e-252 1.79315267e-253 1.09990604e-11
1.81970086e-02 1.10045089e-11 1.09990604e-11 5.44849132e-15 2.11862369e-220 1.80438065e-221 1.09990604e-11
2.08929613e-02 1.10079630e-11 1.09990604e-11 8.90254238e-15 1.39697687e-192 1.22758174e-193 1.09990604e-11
2.39883292e-02 1.10105475e-11 1.09990604e-11 1.14870738e-14 2.30836735e-168 2.25290664e-169 1.09990604e-11
2.75422870e-02 1.10165339e-11 1.09990604e-11 1.74734853e-14 2.70570745e-147 2.63119898e-148 1.09990604e-11
3.16227766e-02 1.10185622e-11 1.09990604e-11 1.95017903e-14 5.63666370e-129 5.41922866e-130 1.09990604e-11
3.63078055e-02 1.10217503e-11 1.09990604e-11 2.26898974e-14 4.74611130e-113 4.39993717e-114 1.09990604e-11
4.16869383e-02 1.10308055e-11 1.09990604e-11 3.17450883e-14 3.33212932e-99 3.47040071e-100 1.09990604e-11
4.78630092e-02 1.10398523e-11 1.09990604e-11 4.07918169e-14 3.48536133e-87 3.80830394e-88 1.09990604e-11
5.49540874e-02 1.10478470e-11 1.09990604e-11 4.87865961e-14 9.45678129e-77 1.07215631e-77 1.09990604e-11
6.30957344e-02 1.10527370e-11 1.09990604e-11 5.36765585e-14 1.38706288e-67 1.58226538e-68 1.09990604e-11
7.24435960e-02 1.10489743e-11 1.09990604e-11 4.99138342e-14 1.21509938e-59 1.21372984e-60 1.09990604e-11
8.31763771e-02 1.10470666e-11 1.09990604e-11 4.80061344e-14 7.66129027e-53 7.46899227e-54 1.09990604e-11
9.54992586e-02 1.10479989e-11 1.09990604e-11 4.89385026e-14 5.85510093e-47 5.86809139e-48 1.09990604e-11
1.09647820e-01 1.05572189e-11 1.05040253e-11 5.31936405e-14 6.75448977e-42 7.55677331e-43 1.05040253e-11
1.25892541e-01 9.85481595e-12 9.80292679e-12 5.18891520e-14 1.58346754e-37 1.84275108e-38 9.80292679e-12
1.44543977e-01 9.19683511e-12 9.14862359e-12 4.82115195e-14 8.96978853e-34 1.03440294e-34 9.14862359e-12
1.65958691e-01 8.58871082e-12 8.53799231e-12 5.07185099e-14 1.16790645e-30 1.47551911e-31 8.53799231e-12
1.90546072e-01 8.02179723e-12 7.96811805e-12 5.36791844e-14 4.04948977e-28 5.71039425e-29 7.96811805e-12
2.18776162e-01 7.48674251e-12 7.43628044e-12 5.04620761e-14 5.35631524e-26 7.55079544e-27 7.43628044e-12
2.51188643e-01 7.00180339e-12 6.93994070e-12 6.18626922e-14 5.77894242e-24 9.86054907e-25 6.93994070e-12
2.88403150e-01 6.53245960e-12 6.47672950e-12 5.57300926e-14 3.21359908e-22 5.52325914e-23 6.47672950e-12
3.31131121e-01 6.09765067e-12 6.04443567e-12 5.32149910e-14 9.73059920e-21 1.68144693e-21 6.04443567e-12
3.80189396e-01 5.69045852e-12 5.64099558e-12 4.94627602e-14 1.79942371e-19 3.20392619e-20 5.64099558e-12
4.36515832e-01 5.30893062e-12 5.26448339e-12 4.44450320e-14 2.20524484e-18 4.07567949e-19 5.26448339e-12
5.01187234e-01 4.95660639e-12 4.91310176e-12 4.34854242e-14 1.92063569e-17 3.70578221e-18 4.91310176e-12
5.75439937e-01 4.62365849e-12 4.58517335e-12 3.83599168e-14 1.25221434e-16 2.49940876e-17 4.58517335e-12
6.60693448e-01 4.31520667e-12 4.27913275e-12 3.54434632e-14 6.30459672e-16 1.25215875e-16 4.27913275e-12
7.58577575e-01 4.02995708e-12 3.99351904e-12 3.38964307e-14 2.54160844e-15 4.89221603e-16 3.99351904e-12
8.70963590e-01 3.76484640e-12 3.72696882e-12 2.94768345e-14 8.40074929e-15 1.50827849e-15 3.72696882e-12
1.00000000e+00 3.52634531e-12 3.47820968e-12 2.52823609e-14 2.28532711e-14 3.71029074e-15 3.47820968e-12
1.14815362e+00 3.32120996e-12 3.24605414e-12 2.14359156e-14 5.37199043e-14 7.59982939e-15 3.24605414e-12
1.31825674e+00 3.15622995e-12 3.02939399e-12 1.64180594e-14 1.10417898e-13 1.32177114e-14 3.02939399e-12
1.51356125e+00 3.03845909e-12 2.82719497e-12 1.26794390e-14 1.98584678e-13 1.93544006e-14 2.82719497e-12
1.73780083e+00 2.96145797e-12 2.63849186e-12 9.64670256e-15 3.13319402e-13 2.45140706e-14 2.63849186e-12
1.99526231e+00 2.90497094e-12 2.46238388e-12 6.68189636e-15 4.35905160e-13 2.60701258e-14 2.46238388e-12
2.29086765e+00 2.84648801e-12 2.29803035e-12 4.70330079e-15 5.43754367e-13 2.37936034e-14 2.29803035e-12
2.63026799e+00 2.76604415e-12 2.14464670e-12 3.04236950e-15 6.18355075e-13 1.97283539e-14 2.14464670e-12
3.01995172e+00 2.65389504e-12 2.00150076e-12 2.03527795e-15 6.50358997e-13 1.48380919e-14 2.00150076e-12
3.46736850e+00 2.51278726e-12 1.86790919e-12 1.28268523e-15 6.43595385e-13 1.03613344e-14 1.86790919e-12
3.98107171e+00 2.34768840e-12 1.74323429e-12 8.00014175e-16 6.03654096e-13 6.65731021e-15 1.74323429e-12
4.57088190e+00 2.17151111e-12 1.62688090e-12 4.76024420e-16 5.44154192e-13 4.06234752e-15 1.62688090e-12
5.24807460e+00 1.82362044e-12 1.34518114e-12 2.53906227e-16 4.78185386e-13 2.35257519e-15 1.34518114e-12
6.02559586e+00 1.30516810e-12 8.88752369e-13 1.04583711e-16 4.16311148e-13 1.29489255e-15 8.88752369e-13
6.70000000e+00 1.01743422e-12 6.46481889e-13 5.07375424e-17 3.70901589e-13 7.78271804e-16 6.46481889e-13
6.92422916e+00 9.42788327e-13 5.85688198e-13 3.80745926e-17 3.57062055e-13 6.54877586e-16 5.85688198e-13
7.15596261e+00 8.78659278e-13 5.30611407e-13 3.04153281e-17 3.48017456e-13 5.54261184e-16 5.30611407e-13
7.39545150e+00 8.30192589e-13 4.80713913e-13 2.32191648e-17 3.49455457e-13 4.69689071e-16 4.80713913e-13
7.64295536e+00 8.15829778e-13 4.35508666e-13 1.74414926e-17 3.80303671e-13 4.07245134e-16 4.35508666e-13
7.89874245e+00 8.50985725e-13 3.94554418e-13 1.14806629e-17 4.56419826e-13 3.52965833e-16 3.94554418e-13
8.16308998e+00 9.26955564e-13 3.57451415e-13 7.25176730e-18 5.69496897e-13 3.05842522e-16 3.57451415e-13
8.43628443e+00 1.05159450e-12 3.23837494e-13 4.50351108e-18 7.27752507e-13 2.57980623e-16 3.23837494e-13
8.71862190e+00 1.13310371e-12 2.93384550e-13 2.75038272e-18 8.39716407e-13 2.10218239e-16 2.93384550e-13
9.01040836e+00 1.21974083e-12 2.65795332e-13 1.85597387e-18 9.53943643e-13 1.63386152e-16 2.65795332e-13
9.31196005e+00 1.28599321e-12 2.40800541e-13 0.00000000e+00 1.04519267e-12 0.00000000e+00 2.40800541e-13
9.62360379e+00 1.25210835e-12 2.18156204e-13 0.00000000e+00 1.03395214e-12 0.00000000e+00 2.18156204e-13
9.94567731e+00 1.14770195e-12 1.97641289e-13 0.00000000e+00 9.50060664e-13 0.00000000e+00 1.97641289e-13
1.02785297e+01 1.02814970e-12 1.79055550e-13 0.00000000e+00 8.49094152e-13 0.00000000e+00 1.79055550e-13
1.06225216e+01 9.15037675e-13 1.62217572e-13 0.00000000e+00 7.52820103e-13 0.00000000e+00 1.62217572e-13
1.09780260e+01 7.95725338e-13 1.46962999e-13 0.00000000e+00 6.48762339e-13 0.00000000e+00 1.46962999e-13
1.13454280e+01 6.94832579e-13 1.33142932e-13 0.00000000e+00 5.61689647e-13 0.00000000e+00 1.33142932e-13
1.17251259e+01 6.09854177e-13 1.20622472e-13 0.00000000e+00 4.89231704e-13 0.00000000e+00 1.20622472e-13
1.21175312e+01 5.34558471e-13 1.09279408e-13 0.00000000e+00 4.25279063e-13 0.00000000e+00 1.09279408e-13
1.25230691e+01 4.68623808e-13 9.90030204e-14 0.00000000e+00 3.69620788e-13 0.00000000e+00 9.90030204e-14
1.29421791e+01 4.13216500e-13 8.96930008e-14 0.00000000e+00 3.23523499e-13 0.00000000e+00 8.96930008e-14
1.33753155e+01 3.66612649e-13 8.12584743e-14 0.00000000e+00 2.85354175e-13 0.00000000e+00 8.12584743e-14
1.38229477e+01 3.34658474e-13 7.36171115e-14 0.00000000e+00 2.61041363e-13 0.00000000e+00 7.36171115e-14
1.42855609e+01 3.13708199e-13 6.66943252e-14 0.00000000e+00 2.47013874e-13 0.00000000e+00 6.66943252e-14
1.47636563e+01 3.10096809e-13 6.04225420e-14 0.00000000e+00 2.49674267e-13 0.00000000e+00 6.04225420e-14
1.52577522e+01 3.10255022e-13 5.47405431e-14 0.00000000e+00 2.55514479e-13 0.00000000e+00 5.47405431e-14
1.57683840e+01 3.14135759e-13 4.95928665e-14 0.00000000e+00 2.64542893e-13 0.00000000e+00 4.95928665e-14
1.62961051e+01 3.18630605e-13 4.49292657e-14 0.00000000e+00 2.73701339e-13 0.00000000e+00 4.49292657e-14
1.68414875e+01 3.23786918e-13 4.07042194e-14 0.00000000e+00 2.83082698e-13 0.00000000e+00 4.07042194e-14
1.74051222e+01 3.23810355e-13 3.68764869e-14 0.00000000e+00 2.86933868e-13 0.00000000e+00 3.68764869e-14
1.79876201e+01 3.21005260e-13 3.34087056e-14 0.00000000e+00 2.87596554e-13 0.00000000e+00 3.34087056e-14
1.85896125e+01 3.11568639e-13 3.02670267e-14 0.00000000e+00 2.81301612e-13 0.00000000e+00 3.02670267e-14
1.92117518e+01 2.97772117e-13 2.74207841e-14 0.00000000e+00 2.70351333e-13 0.00000000e+00 2.74207841e-14
1.98547123e+01 2.80632125e-13 2.48421957e-14 0.00000000e+00 2.55789930e-13 0.00000000e+00 2.48421957e-14
2.05191907e+01 2.63291318e-13 2.25060919e-14 0.00000000e+00 2.40785226e-13 0.00000000e+00 2.25060919e-14
2.12059073e+01 2.47571777e-13 2.03896700e-14 0.00000000e+00 2.27182107e-13 0.00000000e+00 2.03896700e-14
2.19156062e+01 2.33573222e-13 1.84722717e-14 0.00000000e+00 2.15100950e-13 0.00000000e+00 1.84722717e-14
2.26490567e+01 2.20783874e-13 1.67351811e-14 0.00000000e+00 2.04048692e-13 0.00000000e+00 1.67351811e-14
2.34070535e+01 2.09234298e-13 1.51614426e-14 0.00000000e+00 1.94072855e-13 0.00000000e+00 1.51614426e-14
2.41904183e+01 1.98696238e-13 1.37356949e-14 0.00000000e+00 1.84960543e-13 0.00000000e+00 1.37356949e-14
2.50000000e+01 1.88937392e-13 1.24440213e-14 0.00000000e+00 1.76493370e-13 0.00000000e+00 1.24440213e-14
2.75422870e+01 1.63659349e-13 9.30637977e-15 0.00000000e+00 1.54352969e-13 0.00000000e+00 9.30637977e-15
3.16227766e+01 1.32925821e-13 6.14866414e-15 0.00000000e+00 1.26777157e-13 0.00000000e+00 6.14866414e-15
3.63078055e+01 1.04752754e-13 4.06238211e-15 0.00000000e+00 1.00690372e-13 0.00000000e+00 4.06238211e-15
4.16869383e+01 7.85842440e-14 2.68398924e-15 0.00000000e+00 7.59002547e-14 0.00000000e+00 2.68398924e-15
4.78630092e+01 5.58532120e-14 1.77329411e-15 0.00000000e+00 5.40799179e-14 0.00000000e+00 1.77329411e-15
5.49540874e+01 3.79584565e-14 1.17160380e-15 0.00000000e+00 3.67868527e-14 0.00000000e+00 1.17160380e-15
6.30957344e+01 2.48348183e-14 7.74070953e-16 0.00000000e+00 2.40607473e-14 0.00000000e+00 7.74070953e-16
7.24435960e+01 1.57361274e-14 5.11423607e-16 0.00000000e+00 1.52247038e-14 0.00000000e+00 5.11423607e-16
8.31763771e+01 9.71354910e-15 3.37894226e-16 0.00000000e+00 9.37565487e-15 0.00000000e+00 3.37894226e-16
9.54992586e+01 5.86809867e-15 2.23244502e-16 0.00000000e+00 5.64485417e-15 0.00000000e+00 2.23244502e-16
1.09647820e+02 3.48066590e-15 1.47496179e-16 0.00000000e+00 3.33316972e-15 0.00000000e+00 1.47496179e-16
1.25892541e+02 2.05414940e-15 9.74497594e-17 0.00000000e+00 1.95669964e-15 0.00000000e+00 9.74497594e-17
1.44543977e+02 1.19945425e-15 6.43844175e-17 0.00000000e+00 1.13506983e-15 0.00000000e+00 6.43844175e-17
1.65958691e+02 6.65883339e-16 4.25383628e-17 0.00000000e+00 6.23344976e-16 0.00000000e+00 4.25383628e-17
1.90546072e+02 3.68787236e-16 2.81048176e-17 0.00000000e+00 3.40682418e-16 0.00000000e+00 2.81048176e-17
2.18776162e+02 2.03466791e-16 1.85686688e-17 0.00000000e+00 1.84898122e-16 0.00000000e+00 1.85686688e-17
2.51188643e+02 1.11787667e-16 1.22681978e-17 0.00000000e+00 9.95194693e-17 0.00000000e+00 1.22681978e-17
2.88403150e+02 6.11863324e-17 8.10551794e-18 0.00000000e+00 5.30808145e-17 0.00000000e+00 8.10551794e-18
3.31131121e+02 3.34809974e-17 5.35526259e-18 0.00000000e+00 2.81257348e-17 0.00000000e+00 5.35526259e-18
3.80189396e+02 1.83333435e-17 3.53818691e-18 0.00000000e+00 1.47951566e-17 0.00000000e+00 3.53818691e-18
4.36515832e+02 1.00779919e-17 2.33765691e-18 0.00000000e+00 7.74033496e-18 0.00000000e+00 2.33765691e-18
5.01187234e+02 5.57239244e-18 1.54447460e-18 0.00000000e+00 4.02791784e-18 0.00000000e+00 1.54447460e-18
5.75439937e+02 3.10705793e-18 1.02042425e-18 0.00000000e+00 2.08663368e-18 0.00000000e+00 1.02042425e-18
6.60693448e+02 1.75094953e-18 6.74187617e-19 0.00000000e+00 1.07676192e-18 0.00000000e+00 6.74187617e-19
7.58577575e+02 9.99189273e-19 4.45431341e-19 0.00000000e+00 5.53757932e-19 0.00000000e+00 4.45431341e-19
8.70963590e+02 5.78172833e-19 2.94293569e-19 0.00000000e+00 2.83879265e-19 0.00000000e+00 2.94293569e-19
1.00000000e+03 1.45108067e-19 0.00000000e+00 0.00000000e+00 1.45108067e-19 0.00000000e+00 0.00000000e+00
