# column 1: lambda (micron)
# column 2: total flux; lambda*F_lambda (W/m2)
# column 3: direct stellar flux; lambda*F_lambda (W/m2)
# column 4: scattered stellar flux; lambda*F_lambda (W/m2)
# column 5: total dust emission flux; lambda*F_lambda (W/m2)
# column 6: dust emission scattered flux; lambda*F_lambda (W/m2)
# column 7: transparent flux; lambda*F_lambda (W/m2)
1.00000000e-03 1.04634599e-12 1.04634360e-12 2.38940398e-18 0.00000000e+00 0.00000000e+00 1.04634360e-12
1.14815362e-03 1.23502442e-12 1.23502095e-12 3.47203628e-18 0.00000000e+00 0.00000000e+00 1.23502095e-12
1.31825674e-03 1.45772588e-12 1.45772071e-12 5.16533683e-18 0.00000000e+00 0.00000000e+00 1.45772071e-12
1.51356125e-03 1.72058551e-12 1.72057784e-12 7.67496759e-18 0.00000000e+00 0.00000000e+00 1.72057784e-12
1.73780083e-03 2.03084741e-12 2.03083353e-12 1.38847915e-17 0.00000000e+00 0.00000000e+00 2.03083353e-12
1.99526231e-03 2.39705836e-12 2.39703472e-12 2.36394853e-17 0.00000000e+00 0.00000000e+00 2.39703472e-12
2.29086765e-03 2.82930543e-12 2.82926954e-12 3.58886591e-17 0.00000000e+00 0.00000000e+00 2.82926954e-12
2.63026799e-03 3.33955202e-12 3.33944522e-12 1.06800185e-16 0.00000000e+00 0.00000000e+00 3.33944522e-12
3.01995172e-03 3.94173276e-12 3.94161611e-12 1.16646568e-16 0.00000000e+00 0.00000000e+00 3.94161611e-12
3.46736850e-03 4.65256493e-12 4.65237083e-12 1.94095382e-16 0.00000000e+00 0.00000000e+00 4.65237083e-12
3.98107171e-03 5.49157937e-12 5.49128930e-12 2.90076248e-16 0.00000000e+00 0.00000000e+00 5.49128930e-12
4.57088190e-03 6.48222643e-12 6.48148207e-12 7.44358426e-16 0.00000000e+00 0.00000000e+00 6.48148207e-12
5.24807460e-03 7.65157559e-12 7.65022704e-12 1.34855290e-15 0.00000000e+00 0.00000000e+00 7.65022704e-12
6.02559586e-03 9.03187349e-12 9.02972084e-12 2.15264930e-15 0.00000000e+00 0.00000000e+00 9.02972084e-12
6.91830971e-03 1.06612276e-11 1.06579658e-11 3.26173788e-15 0.00000000e+00 0.00000000e+00 1.06579658e-11
7.94328235e-03 1.25865380e-11 1.25798170e-11 6.72093613e-15 8.91653307e-304 1.64739383e-305 1.25798170e-11
9.12010839e-03 1.48609305e-11 1.48482176e-11 1.27129225e-14 6.11567695e-265 6.32295209e-267 1.48482176e-11
1.04712855e-02 1.65950167e-11 1.65834298e-11 1.15869535e-14 3.90261154e-231 9.73837826e-233 1.65834298e-11
1.20226443e-02 1.66080146e-11 1.65834298e-11 2.45848191e-14 8.67887716e-202 2.54743276e-203 1.65834298e-11
1.38038426e-02 1.66088294e-11 1.65834298e-11 2.53995835e-14 3.18154866e-176 8.28783102e-178 1.65834298e-11
1.58489319e-02 1.66215968e-11 1.65834298e-11 3.81670608e-14 5.65567126e-154 2.18443866e-155 1.65834298e-11
1.81970086e-02 1.66370112e-11 1.65834298e-11 5.35814329e-14 1.26447427e-134 4.77941447e-136 1.65834298e-11
2.08929613e-02 1.66656185e-11 1.65834298e-11 8.21887115e-14 8.07177312e-118 3.31987441e-119 1.65834298e-11
2.39883292e-02 1.66859123e-11 1.65834298e-11 1.02482475e-13 3.37545299e-103 1.57319663e-104 1.65834298e-11
2.75422870e-02 1.67208387e-11 1.65834298e-11 1.37408915e-13 1.75818579e-90 8.97779558e-92 1.65834298e-11
3.16227766e-02 1.67451745e-11 1.65834298e-11 1.61744750e-13 1.95702899e-79 1.09539189e-80 1.65834298e-11
3.63078055e-02 1.67603734e-11 1.65834298e-11 1.76943593e-13 7.60030280e-70 4.38671378e-71 1.65834298e-11
4.16869383e-02 1.68316275e-11 1.65834298e-11 2.48197751e-13 1.61116539e-61 1.15584667e-62 1.65834298e-11
4.78630092e-02 1.69016257e-11 1.65834298e-11 3.18195911e-13 2.65322022e-54 2.15076575e-55 1.65834298e-11
5.49540874e-02 1.69426369e-11 1.65834298e-11 3.59207135e-13 4.72433550e-48 4.04729107e-49 1.65834298e-11
6.30957344e-02 1.69772953e-11 1.65834298e-11 3.93865497e-13 1.60136628e-42 1.42452655e-43 1.65834298e-11
7.24435960e-02 1.69437080e-11 1.65834298e-11 3.60278231e-13 9.59499850e-38 7.81599192e-39 1.65834298e-11
8.31763771e-02 1.69430663e-11 1.65834298e-11 3.59636511e-13 1.03264263e-33 8.23333267e-35 1.65834298e-11
9.54992586e-02 1.69535328e-11 1.65834298e-11 3.70102995e-13 3.05076391e-30 2.47870637e-31 1.65834298e-11
1.09647820e-01 1.62257051e-11 1.58370587e-11 3.88646339e-13 2.73658792e-27 2.41345743e-28 1.58370587e-11
1.25892541e-01 1.51522871e-11 1.47800032e-11 3.72283892e-13 9.29940152e-25 8.43432144e-26 1.47800032e-11
1.44543977e-01 1.41342223e-11 1.37935015e-11 3.40720752e-13 1.32133908e-22 1.21663680e-23 1.37935015e-11
1.65958691e-01 1.32336961e-11 1.28728446e-11 3.60851451e-13 6.96238338e-21 7.23397861e-22 1.28728446e-11
1.90546072e-01 1.24072294e-11 1.20136376e-11 3.93591641e-13 1.49698855e-19 1.72774133e-20 1.20136376e-11
2.18776162e-01 1.15787101e-11 1.12117790e-11 3.66929336e-13 1.77464406e-18 1.96411256e-19 1.12117790e-11
2.51188643e-01 1.08950049e-11 1.04634409e-11 4.31541443e-13 2.24965725e-17 3.12448856e-18 1.04634409e-11
2.88403150e-01 1.01732610e-11 9.76505125e-12 4.08016380e-13 1.93348434e-16 2.84453949e-17 9.76505125e-12
3.31131121e-01 9.48697321e-12 9.11327608e-12 3.72564457e-13 1.13267691e-15 1.68008948e-16 9.11327608e-12
3.80189396e-01 8.85658660e-12 8.50500410e-12 3.46771336e-13 4.81116637e-15 7.20290268e-16 8.50500410e-12
4.36515832e-01 8.26825025e-12 7.93733165e-12 3.15432832e-13 1.54857659e-14 2.34787103e-15 7.93733165e-12
5.01187234e-01 7.74447906e-12 7.40754890e-12 2.97750790e-13 3.91793716e-14 5.97660519e-15 7.40754890e-12
5.75439937e-01 7.26527629e-12 6.91312687e-12 2.70510970e-13 8.16384508e-14 1.24865118e-14 6.91312687e-12
6.60693448e-01 6.84202604e-12 6.45170538e-12 2.44364240e-13 1.45956417e-13 2.26115795e-14 6.45170538e-12
7.58577575e-01 6.48055298e-12 6.02108180e-12 2.24157383e-13 2.35313806e-13 3.76174681e-14 6.02108180e-12
8.70963590e-01 6.17753568e-12 5.61920048e-12 1.96931657e-13 3.61403546e-13 6.09314934e-14 5.61920048e-12
1.00000000e+00 5.95894217e-12 5.24414302e-12 1.65502093e-13 5.49297065e-13 9.95042782e-14 5.24414302e-12
1.14815362e+00 5.90383882e-12 4.89411902e-12 1.35186115e-13 8.74533685e-13 1.63245491e-13 4.89411902e-12
1.31825674e+00 6.09739029e-12 4.56745763e-12 1.06774279e-13 1.42315839e-12 2.55998387e-13 4.56745763e-12
1.51356125e+00 6.65253709e-12 4.26259947e-12 8.20645915e-14 2.30787302e-12 3.74723364e-13 4.26259947e-12
1.73780083e+00 7.62654375e-12 3.97808929e-12 6.29692020e-14 3.58548525e-12 4.93370333e-13 3.97808929e-12
1.99526231e+00 8.85323483e-12 3.71256894e-12 4.67670078e-14 5.09389889e-12 5.68039245e-13 3.71256894e-12
2.29086765e+00 1.01783326e-11 3.46477093e-12 3.47214156e-14 6.67884025e-12 5.96049070e-13 3.46477093e-12
2.63026799e+00 1.14244743e-11 3.23351237e-12 2.55987797e-14 8.16536319e-12 5.83106351e-13 3.23351237e-12
3.01995172e+00 1.24286889e-11 3.01768933e-12 1.90377386e-14 9.39196182e-12 5.43056564e-13 3.01768933e-12
3.46736850e+00 1.32051581e-11 2.81627154e-12 1.39543922e-14 1.03749321e-11 4.79402348e-13 2.81627154e-12
3.98107171e+00 1.39064652e-11 2.62829753e-12 1.01845808e-14 1.12679830e-11 4.06384418e-13 2.62829753e-12
4.57088190e+00 1.43629939e-11 2.45286997e-12 7.12306326e-15 1.19030008e-11 3.20782123e-13 2.45286997e-12
5.24807460e+00 1.43298773e-11 2.02814751e-12 4.24831654e-15 1.22974815e-11 2.29561356e-13 2.02814751e-12
6.02559586e+00 1.38210867e-11 1.33998377e-12 1.92145749e-15 1.24791815e-11 1.53207524e-13 1.33998377e-12
6.70000000e+00 1.32392459e-11 9.74709347e-13 1.01542366e-15 1.22635211e-11 1.04953821e-13 9.74709347e-13
6.92422916e+00 1.30310840e-11 8.83049889e-13 8.29532919e-16 1.21472046e-11 9.24127574e-14 8.83049889e-13
7.15596261e+00 1.28807658e-11 8.00009879e-13 6.56739669e-16 1.20800992e-11 7.99666405e-14 8.00009879e-13
7.39545150e+00 1.28270373e-11 7.24778763e-13 4.99581186e-16 1.21017589e-11 6.78424067e-14 7.24778763e-13
7.64295536e+00 1.30234967e-11 6.56622211e-13 3.42892230e-16 1.23665316e-11 5.49370851e-14 6.56622211e-13
7.89874245e+00 1.35744271e-11 5.94874946e-13 1.99399288e-16 1.29793527e-11 4.11172137e-14 5.94874946e-13
8.16308998e+00 1.42489746e-11 5.38934254e-13 1.10091283e-16 1.37099303e-11 2.96286686e-14 5.38934254e-13
8.43628443e+00 1.50280418e-11 4.88254098e-13 5.65430161e-17 1.45397312e-11 2.03487717e-14 4.88254098e-13
8.71862190e+00 1.55449864e-11 4.42339790e-13 3.53722548e-17 1.51026112e-11 1.52656500e-14 4.42339790e-13
9.01040836e+00 1.57380018e-11 4.00743158e-13 2.18785746e-17 1.53372367e-11 1.12558790e-14 4.00743158e-13
9.31196005e+00 1.60046650e-11 3.63058180e-13 0.00000000e+00 1.56416068e-11 0.00000000e+00 3.63058180e-13
9.62360379e+00 1.58682373e-11 3.28917012e-13 0.00000000e+00 1.55393203e-11 0.00000000e+00 3.28917012e-13
9.94567731e+00 1.54240654e-11 2.97986401e-13 0.00000000e+00 1.51260790e-11 0.00000000e+00 2.97986401e-13
1.02785297e+01 1.47512815e-11 2.69964435e-13 0.00000000e+00 1.44813170e-11 0.00000000e+00 2.69964435e-13
1.06225216e+01 1.44229878e-11 2.44577592e-13 0.00000000e+00 1.41784102e-11 0.00000000e+00 2.44577592e-13
1.09780260e+01 1.37862487e-11 2.21578069e-13 0.00000000e+00 1.35646706e-11 0.00000000e+00 2.21578069e-13
1.13454280e+01 1.33069789e-11 2.00741370e-13 0.00000000e+00 1.31062375e-11 0.00000000e+00 2.00741370e-13
1.17251259e+01 1.28160649e-11 1.81864106e-13 0.00000000e+00 1.26342007e-11 0.00000000e+00 1.81864106e-13
1.21175312e+01 1.22588229e-11 1.64762018e-13 0.00000000e+00 1.20940609e-11 0.00000000e+00 1.64762018e-13
1.25230691e+01 1.17533268e-11 1.49268171e-13 0.00000000e+00 1.16040586e-11 0.00000000e+00 1.49268171e-13
1.29421791e+01 1.12740736e-11 1.35231331e-13 0.00000000e+00 1.11388422e-11 0.00000000e+00 1.35231331e-13
1.33753155e+01 1.07123901e-11 1.22514483e-13 0.00000000e+00 1.05898756e-11 0.00000000e+00 1.22514483e-13
1.38229477e+01 1.02365447e-11 1.10993499e-13 0.00000000e+00 1.01255512e-11 0.00000000e+00 1.10993499e-13
1.42855609e+01 9.91634798e-12 1.00555922e-13 0.00000000e+00 9.81579205e-12 0.00000000e+00 1.00555922e-13
1.47636563e+01 9.84422701e-12 9.10998706e-14 0.00000000e+00 9.75312714e-12 0.00000000e+00 9.10998706e-14
1.52577522e+01 9.86856086e-12 8.25330452e-14 0.00000000e+00 9.78602782e-12 0.00000000e+00 8.25330452e-14
1.57683840e+01 9.89530351e-12 7.47718247e-14 0.00000000e+00 9.82053168e-12 0.00000000e+00 7.47718247e-14
1.62961051e+01 9.89559249e-12 6.77404517e-14 0.00000000e+00 9.82785203e-12 0.00000000e+00 6.77404517e-14
1.68414875e+01 9.83078848e-12 6.13702932e-14 0.00000000e+00 9.76941819e-12 0.00000000e+00 6.13702932e-14
1.74051222e+01 9.70177705e-12 5.55991699e-14 0.00000000e+00 9.64617788e-12 0.00000000e+00 5.55991699e-14
1.79876201e+01 9.56237547e-12 5.03707500e-14 0.00000000e+00 9.51200472e-12 0.00000000e+00 5.03707500e-14
1.85896125e+01 9.29987173e-12 4.56339988e-14 0.00000000e+00 9.25423773e-12 0.00000000e+00 4.56339988e-14
1.92117518e+01 8.99716175e-12 4.13426810e-14 0.00000000e+00 8.95581907e-12 0.00000000e+00 4.13426810e-14
1.98547123e+01 8.60064485e-12 3.74549090e-14 0.00000000e+00 8.56318994e-12 0.00000000e+00 3.74549090e-14
2.05191907e+01 8.22520289e-12 3.39327342e-14 0.00000000e+00 8.19127016e-12 0.00000000e+00 3.39327342e-14
2.12059073e+01 7.84328233e-12 3.07417768e-14 0.00000000e+00 7.81254056e-12 0.00000000e+00 3.07417768e-14
2.19156062e+01 7.43029512e-12 2.78508898e-14 0.00000000e+00 7.40244423e-12 0.00000000e+00 2.78508898e-14
2.26490567e+01 7.02707802e-12 2.52318552e-14 0.00000000e+00 7.00184616e-12 0.00000000e+00 2.52318552e-14
2.34070535e+01 6.68865908e-12 2.28591087e-14 0.00000000e+00 6.66579997e-12 0.00000000e+00 2.28591087e-14
2.41904183e+01 6.31175568e-12 2.07094900e-14 0.00000000e+00 6.29104619e-12 0.00000000e+00 2.07094900e-14
2.50000000e+01 5.95100901e-12 1.87620165e-14 0.00000000e+00 5.93224700e-12 0.00000000e+00 1.87620165e-14
2.75422870e+01 4.95670843e-12 1.40313526e-14 0.00000000e+00 4.94267707e-12 0.00000000e+00 1.40313526e-14
3.16227766e+01 3.68370048e-12 9.27042274e-15 0.00000000e+00 3.67443006e-12 0.00000000e+00 9.27042274e-15
3.63078055e+01 2.58661848e-12 6.12490756e-15 0.00000000e+00 2.58049357e-12 0.00000000e+00 6.12490756e-15
4.16869383e+01 1.71659765e-12 4.04668630e-15 0.00000000e+00 1.71255097e-12 0.00000000e+00 4.04668630e-15
4.78630092e+01 1.07373354e-12 2.67361912e-15 0.00000000e+00 1.07105992e-12 0.00000000e+00 2.67361912e-15
5.49540874e+01 6.37859568e-13 1.76644264e-15 0.00000000e+00 6.36093126e-13 0.00000000e+00 1.76644264e-15
6.30957344e+01 3.64287759e-13 1.16707708e-15 0.00000000e+00 3.63120682e-13 0.00000000e+00 1.16707708e-15
7.24435960e+01 2.01886400e-13 7.71080178e-16 0.00000000e+00 2.01115319e-13 0.00000000e+00 7.71080178e-16
8.31763771e+01 1.09638234e-13 5.09447621e-16 0.00000000e+00 1.09128787e-13 0.00000000e+00 5.09447621e-16
9.54992586e+01 5.87385800e-14 3.36588705e-16 0.00000000e+00 5.84019913e-14 0.00000000e+00 3.36588705e-16
1.09647820e+02 3.11633438e-14 2.22381952e-16 0.00000000e+00 3.09409618e-14 0.00000000e+00 2.22381952e-16
1.25892541e+02 1.66297753e-14 1.46926299e-16 0.00000000e+00 1.64828490e-14 0.00000000e+00 1.46926299e-16
1.44543977e+02 8.87231001e-15 9.70732430e-17 0.00000000e+00 8.77523677e-15 0.00000000e+00 9.70732430e-17
1.65958691e+02 4.52893405e-15 6.41356556e-17 0.00000000e+00 4.46479840e-15 0.00000000e+00 6.41356556e-17
1.90546072e+02 2.32441237e-15 4.23740075e-17 0.00000000e+00 2.28203836e-15 0.00000000e+00 4.23740075e-17
2.18776162e+02 1.19634199e-15 2.79962291e-17 0.00000000e+00 1.16834576e-15 0.00000000e+00 2.79962291e-17
2.51188643e+02 6.16198986e-16 1.84969251e-17 0.00000000e+00 5.97702061e-16 0.00000000e+00 1.84969251e-17
2.88403150e+02 3.17253013e-16 1.22207972e-17 0.00000000e+00 3.05032215e-16 0.00000000e+00 1.22207972e-17
3.31131121e+02 1.63635249e-16 8.07420067e-18 0.00000000e+00 1.55561049e-16 0.00000000e+00 8.07420067e-18
3.80189396e+02 8.44985880e-17 5.33457148e-18 0.00000000e+00 7.91640165e-17 0.00000000e+00 5.33457148e-18
4.36515832e+02 4.37688105e-17 3.52451642e-18 0.00000000e+00 4.02442940e-17 0.00000000e+00 3.52451642e-18
5.01187234e+02 2.27566641e-17 2.32862491e-18 0.00000000e+00 2.04280392e-17 0.00000000e+00 2.32862491e-18
5.75439937e+02 1.18957596e-17 1.53850722e-18 0.00000000e+00 1.03572523e-17 0.00000000e+00 1.53850722e-18
6.60693448e+02 6.26231004e-18 1.01648164e-18 0.00000000e+00 5.24582840e-18 0.00000000e+00 1.01648164e-18
7.58577575e+02 3.32617662e-18 6.71582760e-19 0.00000000e+00 2.65459386e-18 0.00000000e+00 6.71582760e-19
8.70963590e+02 1.78562813e-18 4.43710329e-19 0.00000000e+00 1.34191781e-18 0.00000000e+00 4.43710329e-19
1.00000000e+03 6.77652460e-19 0.00000000e+00 0.00000000e+00 6.77652460e-19 0.00000000e+00 0.00000000e+00
