# column 1: lambda (micron)
# column 2: total flux; lambda*F_lambda (W/m2)
# column 3: direct stellar flux; lambda*F_lambda (W/m2)
# column 4: scattered stellar flux; lambda*F_lambda (W/m2)
# column 5: total dust emission flux; lambda*F_lambda (W/m2)
# column 6: dust emission scattered flux; lambda*F_lambda (W/m2)
# column 7: transparent flux; lambda*F_lambda (W/m2)
1.00000000e-03 1.07141731e-12 1.07073423e-12 6.83082181e-16 0.00000000e+00 0.00000000e+00 1.07335627e-12
1.14815362e-03 1.27124796e-12 1.26281737e-12 8.43059439e-15 0.00000000e+00 0.00000000e+00 1.26690456e-12
1.31825674e-03 1.48928569e-12 1.48922273e-12 6.29619073e-17 0.00000000e+00 0.00000000e+00 1.49535359e-12
1.51356125e-03 1.75660048e-12 1.75646836e-12 1.32120934e-16 0.00000000e+00 0.00000000e+00 1.76499670e-12
1.73780083e-03 2.07329927e-12 2.07309207e-12 2.07203210e-16 0.00000000e+00 0.00000000e+00 2.08326203e-12
1.99526231e-03 2.44327909e-12 2.44301482e-12 2.64272881e-16 0.00000000e+00 0.00000000e+00 2.45891716e-12
2.29086765e-03 2.88926072e-12 2.88241055e-12 6.85017338e-15 0.00000000e+00 0.00000000e+00 2.90231066e-12
2.63026799e-03 3.40510571e-12 3.39752874e-12 7.57696659e-15 0.00000000e+00 0.00000000e+00 3.42565717e-12
3.01995172e-03 4.00380913e-12 4.00235195e-12 1.45718201e-15 0.00000000e+00 0.00000000e+00 4.04337385e-12
3.46736850e-03 4.71779444e-12 4.71545943e-12 2.33500728e-15 0.00000000e+00 0.00000000e+00 4.77247759e-12
3.98107171e-03 5.56078234e-12 5.55608517e-12 4.69716942e-15 0.00000000e+00 0.00000000e+00 5.63305378e-12
4.57088190e-03 6.59776085e-12 6.58807133e-12 9.68951459e-15 0.00000000e+00 0.00000000e+00 6.64880962e-12
5.24807460e-03 7.81014810e-12 7.75627741e-12 5.38706976e-14 0.00000000e+00 0.00000000e+00 7.84772720e-12
6.02559586e-03 9.19661230e-12 9.13284228e-12 6.37700242e-14 0.00000000e+00 0.00000000e+00 9.26283435e-12
6.91830971e-03 1.09336669e-11 1.07562255e-11 1.77441436e-13 0.00000000e+00 0.00000000e+00 1.09331145e-11
7.94328235e-03 1.28218522e-11 1.26718654e-11 1.49986795e-13 2.49943270e-303 3.50790454e-305 1.29045807e-11
9.12010839e-03 1.51075190e-11 1.49270358e-11 1.80483211e-13 1.24473173e-264 2.61110980e-266 1.52315429e-11
1.04712855e-02 1.68457176e-11 1.66499727e-11 1.95744846e-13 5.97240892e-231 2.55371094e-232 1.70115517e-11
1.20226443e-02 1.69136894e-11 1.66288748e-11 2.84814561e-13 1.02158600e-201 3.86789450e-203 1.70115517e-11
1.38038426e-02 1.69703447e-11 1.66038850e-11 3.66459609e-13 3.05224425e-176 1.55480063e-177 1.70115517e-11
1.58489319e-02 1.70598996e-11 1.65732260e-11 4.86673634e-13 4.41230011e-154 2.28348829e-155 1.70115517e-11
1.81970086e-02 1.70809974e-11 1.65449986e-11 5.35998751e-13 8.45245886e-135 5.32054710e-136 1.70115517e-11
2.08929613e-02 1.71978707e-11 1.65215722e-11 6.76298437e-13 4.66706007e-118 3.15255537e-119 1.70115517e-11
2.39883292e-02 1.73102073e-11 1.64912688e-11 8.18938502e-13 1.72472869e-103 1.32484373e-104 1.70115517e-11
2.75422870e-02 1.73717865e-11 1.64560906e-11 9.15695913e-13 8.04976581e-91 6.75773734e-92 1.70115517e-11
3.16227766e-02 1.74014488e-11 1.64216812e-11 9.79767613e-13 8.08680999e-80 6.67731138e-81 1.70115517e-11
3.63078055e-02 1.73287925e-11 1.63947425e-11 9.34050009e-13 2.86035349e-70 2.18023047e-71 1.70115517e-11
4.16869383e-02 1.73073802e-11 1.63714781e-11 9.35902062e-13 5.57790230e-62 4.53636914e-63 1.70115517e-11
4.78630092e-02 1.71712029e-11 1.63075214e-11 8.63681478e-13 8.45905872e-55 6.26221540e-56 1.70115517e-11
5.49540874e-02 1.69288219e-11 1.62189925e-11 7.09829419e-13 1.40367194e-48 9.30370822e-50 1.70115517e-11
6.30957344e-02 1.65194118e-11 1.59991141e-11 5.20297749e-13 4.45775358e-43 2.50841853e-44 1.70115517e-11
7.24435960e-02 1.61376758e-11 1.57425187e-11 3.95157108e-13 2.54358323e-38 1.16124595e-39 1.70115517e-11
8.31763771e-02 1.61298174e-11 1.57651841e-11 3.64633227e-13 2.64699055e-34 1.20905448e-35 1.70115517e-11
9.54992586e-02 1.61822884e-11 1.58318490e-11 3.50439340e-13 7.57155911e-31 3.47661599e-32 1.70115517e-11
1.09647820e-01 1.56973031e-11 1.53043362e-11 3.92966977e-13 6.60875331e-28 3.36855574e-29 1.62459122e-11
1.25892541e-01 1.49003698e-11 1.44344440e-11 4.65925799e-13 2.20336695e-25 1.24908168e-26 1.51615674e-11
1.44543977e-01 1.40404811e-11 1.35847931e-11 4.55687998e-13 3.07340650e-23 1.79018538e-24 1.41495980e-11
1.65958691e-01 1.31753397e-11 1.27430203e-11 4.32319332e-13 1.57399062e-21 9.51493351e-23 1.32051732e-11
1.90546072e-01 1.22503672e-11 1.18641901e-11 3.86177074e-13 3.30252510e-20 2.14291258e-21 1.23237846e-11
2.18776162e-01 1.12876533e-11 1.09997311e-11 2.87921778e-13 3.85440415e-19 2.25951496e-20 1.15012250e-11
2.51188643e-01 1.06742768e-11 1.03576091e-11 3.16662957e-13 4.74634550e-18 3.40707559e-19 1.07335677e-11
2.88403150e-01 1.00338382e-11 9.72496807e-12 3.08829991e-13 4.00927235e-17 2.94691227e-18 1.00171482e-11
3.31131121e-01 9.41689293e-12 9.11039728e-12 3.06262982e-13 2.32661945e-16 1.70463226e-17 9.34854667e-12
3.80189396e-01 8.82181369e-12 8.52909262e-12 2.91742340e-13 9.78731868e-16 7.05211787e-17 8.72457139e-12
4.36515832e-01 8.25366032e-12 7.98323842e-12 2.67294998e-13 3.12689937e-15 2.29524443e-16 8.14224377e-12
5.01187234e-01 7.72508271e-12 7.47120593e-12 2.45986912e-13 7.88986456e-15 5.79749163e-16 7.59878402e-12
5.75439937e-01 7.23044656e-12 6.99030295e-12 2.23623521e-13 1.65200922e-14 1.30329413e-15 7.09159786e-12
6.60693448e-01 6.77127639e-12 6.53854395e-12 2.02674423e-13 3.00580190e-14 2.69677271e-15 6.61826421e-12
7.58577575e-01 6.34920419e-12 6.11455224e-12 1.83029900e-13 5.16220513e-14 6.38475158e-15 6.17652353e-12
8.70963590e-01 5.97048233e-12 5.71716392e-12 1.61637599e-13 9.16808144e-14 1.54726155e-14 5.76426715e-12
1.00000000e+00 5.65588310e-12 5.34430721e-12 1.42068113e-13 1.69507782e-13 3.69475519e-14 5.37952711e-12
1.14815362e+00 5.45486766e-12 4.99460308e-12 1.23653487e-13 3.36611099e-13 8.13145089e-14 5.02046681e-12
1.31825674e+00 5.44832104e-12 4.66671129e-12 1.05277753e-13 6.76331997e-13 1.58158589e-13 4.68537225e-12
1.51356125e+00 5.75971014e-12 4.35931724e-12 9.01007160e-14 1.31029218e-12 2.77507746e-13 4.37264380e-12
1.73780083e+00 6.53269038e-12 4.07142717e-12 7.77823758e-14 2.38348083e-12 4.38564913e-13 4.08078863e-12
1.99526231e+00 7.84110829e-12 3.80194110e-12 6.65404836e-14 3.97262671e-12 6.07210844e-13 3.80841354e-12
2.29086765e+00 9.63284432e-12 3.54975754e-12 5.44082237e-14 6.02867856e-12 7.50878667e-13 3.55421832e-12
2.63026799e+00 1.16748511e-11 3.31388655e-12 4.27526652e-14 8.31821188e-12 8.14037757e-13 3.31698953e-12
3.01995172e+00 1.38947590e-11 3.09340860e-12 3.20014935e-14 1.07693489e-11 7.93376670e-13 3.09559474e-12
3.46736850e+00 1.58625368e-11 2.88741182e-12 2.29434662e-14 1.29521815e-11 7.05627432e-13 2.88897711e-12
3.98107171e+00 1.74580599e-11 2.69501526e-12 1.56258760e-14 1.47474188e-11 5.64131005e-13 2.69615031e-12
4.57088190e+00 1.84641877e-11 2.51535958e-12 1.02518391e-14 1.59385763e-11 4.06246059e-13 2.51619387e-12
5.24807460e+00 1.86932909e-11 2.07995249e-12 5.70982896e-15 1.66076286e-11 2.71954314e-13 2.08050667e-12
6.02559586e+00 1.80449749e-11 1.37427286e-12 2.42897612e-15 1.66682731e-11 1.68756076e-13 1.37457712e-12
6.70000000e+00 1.74499146e-11 9.99676779e-13 1.22043067e-15 1.64490174e-11 1.10890349e-13 9.99872685e-13
6.92422916e+00 1.72224842e-11 9.05675661e-13 9.74648259e-16 1.63158339e-11 9.60740682e-14 9.05846924e-13
7.15596261e+00 1.70795939e-11 8.20510685e-13 7.68338597e-16 1.62583149e-11 8.30127680e-14 8.20663132e-13
7.39545150e+00 1.70815388e-11 7.43348422e-13 5.86402529e-16 1.63376039e-11 7.07565383e-14 7.43489831e-13
7.64295536e+00 1.75617064e-11 6.73427768e-13 4.14571926e-16 1.68878640e-11 5.95899249e-14 6.73573732e-13
7.89874245e+00 1.86740685e-11 6.10061535e-13 2.60938174e-16 1.80637460e-11 4.83887995e-14 6.10232385e-13
8.16308998e+00 1.98583894e-11 5.52638524e-13 1.52539409e-16 1.93055984e-11 3.79663270e-14 5.52847515e-13
8.43628443e+00 2.09495617e-11 5.00595957e-13 8.00092253e-17 2.04488857e-11 2.76975542e-14 5.00858987e-13
8.71862190e+00 2.14477399e-11 4.53466558e-13 4.41458559e-17 2.09942292e-11 2.08372911e-14 4.53759343e-13
9.01040836e+00 2.16970368e-11 4.10767535e-13 2.01775831e-17 2.12862491e-11 1.40872787e-14 4.11088843e-13
9.31196005e+00 2.18993480e-11 3.72093380e-13 0.00000000e+00 2.15272546e-11 0.00000000e+00 3.72430980e-13
9.62360379e+00 2.18547150e-11 3.37094508e-13 0.00000000e+00 2.15176205e-11 0.00000000e+00 3.37408415e-13
9.94567731e+00 2.17309616e-11 3.05412443e-13 0.00000000e+00 2.14255491e-11 0.00000000e+00 3.05679292e-13
1.02785297e+01 2.15085239e-11 2.76715191e-13 0.00000000e+00 2.12318087e-11 0.00000000e+00 2.76933904e-13
1.06225216e+01 2.13246955e-11 2.50714328e-13 0.00000000e+00 2.10739812e-11 0.00000000e+00 2.50891667e-13
1.09780260e+01 2.10798771e-11 2.27159776e-13 0.00000000e+00 2.08527173e-11 0.00000000e+00 2.27298384e-13
1.13454280e+01 2.04259804e-11 2.05814990e-13 0.00000000e+00 2.02201654e-11 0.00000000e+00 2.05923759e-13
1.17251259e+01 1.99438747e-11 1.86473253e-13 0.00000000e+00 1.97574014e-11 0.00000000e+00 1.86559155e-13
1.21175312e+01 1.92749149e-11 1.68948061e-13 0.00000000e+00 1.91059668e-11 0.00000000e+00 1.69015555e-13
1.25230691e+01 1.85188046e-11 1.53068829e-13 0.00000000e+00 1.83657358e-11 0.00000000e+00 1.53121715e-13
1.29421791e+01 1.76706929e-11 1.38680767e-13 0.00000000e+00 1.75320122e-11 0.00000000e+00 1.38722496e-13
1.33753155e+01 1.68835130e-11 1.25644185e-13 0.00000000e+00 1.67578688e-11 0.00000000e+00 1.25677347e-13
1.38229477e+01 1.62683808e-11 1.13831365e-13 0.00000000e+00 1.61545494e-11 0.00000000e+00 1.13858934e-13
1.42855609e+01 1.59146061e-11 1.03127937e-13 0.00000000e+00 1.58114781e-11 0.00000000e+00 1.03151898e-13
1.47636563e+01 1.61717697e-11 9.34289867e-14 0.00000000e+00 1.60783408e-11 0.00000000e+00 9.34517274e-14
1.52577522e+01 1.64729623e-11 8.46417661e-14 0.00000000e+00 1.63883206e-11 0.00000000e+00 8.46637387e-14
1.57683840e+01 1.69064702e-11 7.66806498e-14 0.00000000e+00 1.68297896e-11 0.00000000e+00 7.67021526e-14
1.62961051e+01 1.72959030e-11 6.94682384e-14 0.00000000e+00 1.72264347e-11 0.00000000e+00 6.94892560e-14
1.68414875e+01 1.76213520e-11 6.29341464e-14 0.00000000e+00 1.75584178e-11 0.00000000e+00 6.29546439e-14
1.74051222e+01 1.78458249e-11 5.70150671e-14 0.00000000e+00 1.77888098e-11 0.00000000e+00 5.70345319e-14
1.79876201e+01 1.78953642e-11 5.16529598e-14 0.00000000e+00 1.78437112e-11 0.00000000e+00 5.16711337e-14
1.85896125e+01 1.76619611e-11 4.67956536e-14 0.00000000e+00 1.76151654e-11 0.00000000e+00 4.68120974e-14
1.92117518e+01 1.72553076e-11 4.23955501e-14 0.00000000e+00 1.72129120e-11 0.00000000e+00 4.24099939e-14
1.98547123e+01 1.67195833e-11 3.84094148e-14 0.00000000e+00 1.66811739e-11 0.00000000e+00 3.84218542e-14
2.05191907e+01 1.60755395e-11 3.47981449e-14 0.00000000e+00 1.60407414e-11 0.00000000e+00 3.48087501e-14
2.12059073e+01 1.54187206e-11 3.15263741e-14 0.00000000e+00 1.53871942e-11 0.00000000e+00 3.15354141e-14
2.19156062e+01 1.47785822e-11 2.85621519e-14 0.00000000e+00 1.47500201e-11 0.00000000e+00 2.85698952e-14
2.26490567e+01 1.41411667e-11 2.58766037e-14 0.00000000e+00 1.41152901e-11 0.00000000e+00 2.58832470e-14
2.34070535e+01 1.35184032e-11 2.34435351e-14 0.00000000e+00 1.34949597e-11 0.00000000e+00 2.34492452e-14
2.41904183e+01 1.28584468e-11 2.12392109e-14 0.00000000e+00 1.28372076e-11 0.00000000e+00 2.12441313e-14
2.50000000e+01 1.22270480e-11 1.92421324e-14 0.00000000e+00 1.22078058e-11 0.00000000e+00 1.92463813e-14
2.75422870e+01 1.04041996e-11 1.43908185e-14 0.00000000e+00 1.03898088e-11 0.00000000e+00 1.43935895e-14
3.16227766e+01 7.92024173e-12 9.50822783e-15 0.00000000e+00 7.91073350e-12 0.00000000e+00 9.50975027e-15
3.63078055e+01 5.69737410e-12 6.28219764e-15 0.00000000e+00 5.69109190e-12 0.00000000e+00 6.28302969e-15
4.16869383e+01 3.83379619e-12 4.15071385e-15 0.00000000e+00 3.82964547e-12 0.00000000e+00 4.15115655e-15
4.78630092e+01 2.41486737e-12 2.74241371e-15 0.00000000e+00 2.41212495e-12 0.00000000e+00 2.74264194e-15
5.49540874e+01 1.44244848e-12 1.81193040e-15 0.00000000e+00 1.44063655e-12 0.00000000e+00 1.81204556e-15
6.30957344e+01 8.28499095e-13 1.19714926e-15 0.00000000e+00 8.27301945e-13 0.00000000e+00 1.19720663e-15
7.24435960e+01 4.61590463e-13 7.90958203e-16 0.00000000e+00 4.60799504e-13 0.00000000e+00 7.90986575e-16
8.31763771e+01 2.51933066e-13 5.22585638e-16 0.00000000e+00 2.51410480e-13 0.00000000e+00 5.22599647e-16
9.54992586e+01 1.35595745e-13 3.45271229e-16 0.00000000e+00 1.35250474e-13 0.00000000e+00 3.45278163e-16
1.09647820e+02 7.23203428e-14 2.28119576e-16 0.00000000e+00 7.20922232e-14 0.00000000e+00 2.28123020e-16
1.25892541e+02 3.87744533e-14 1.50717649e-16 0.00000000e+00 3.86237357e-14 0.00000000e+00 1.50719385e-16
1.44543977e+02 2.07650100e-14 9.95784283e-17 0.00000000e+00 2.06654316e-14 0.00000000e+00 9.95793099e-17
1.65958691e+02 1.06310949e-14 6.57909653e-17 0.00000000e+00 1.05653039e-14 0.00000000e+00 6.57913976e-17
1.90546072e+02 5.46651217e-15 4.34677313e-17 0.00000000e+00 5.42304444e-15 0.00000000e+00 4.34679453e-17
2.18776162e+02 2.81596210e-15 2.87188800e-17 0.00000000e+00 2.78724322e-15 0.00000000e+00 2.87189867e-17
2.51188643e+02 1.44992074e-15 1.89743930e-17 0.00000000e+00 1.43094635e-15 0.00000000e+00 1.89744463e-17
2.88403150e+02 7.45160056e-16 1.25362657e-17 0.00000000e+00 7.32623790e-16 0.00000000e+00 1.25362924e-17
3.31131121e+02 3.82962146e-16 8.28263287e-18 0.00000000e+00 3.74679514e-16 0.00000000e+00 8.28264623e-18
3.80189396e+02 1.96621497e-16 5.47228340e-18 0.00000000e+00 1.91149214e-16 0.00000000e+00 5.47229010e-18
4.36515832e+02 1.01002926e-16 3.61550285e-18 0.00000000e+00 9.73874236e-17 0.00000000e+00 3.61550621e-18
5.01187234e+02 5.19192899e-17 2.38873958e-18 0.00000000e+00 4.95305504e-17 0.00000000e+00 2.38874127e-18
5.75439937e+02 2.67338781e-17 1.57822486e-18 0.00000000e+00 2.51556533e-17 0.00000000e+00 1.57822570e-18
6.60693448e+02 1.38029896e-17 1.04272296e-18 0.00000000e+00 1.27602666e-17 0.00000000e+00 1.04272338e-18
7.58577575e+02 7.15457345e-18 6.88920293e-19 0.00000000e+00 6.46565316e-18 0.00000000e+00 6.88920507e-19
8.70963590e+02 3.72738590e-18 4.55165157e-19 0.00000000e+00 3.27222075e-18 0.00000000e+00 4.55165265e-19
1.00000000e+03 1.65410403e-18 0.00000000e+00 0.00000000e+00 1.65410403e-18 0.00000000e+00 0.00000000e+00
