# column 1: lambda (micron)
# column 2: total flux; lambda*F_lambda (W/m2)
# column 3: direct stellar flux; lambda*F_lambda (W/m2)
# column 4: scattered stellar flux; lambda*F_lambda (W/m2)
# column 5: total dust emission flux; lambda*F_lambda (W/m2)
# column 6: dust emission scattered flux; lambda*F_lambda (W/m2)
# column 7: transparent flux; lambda*F_lambda (W/m2)
1.00000000e-03 8.46544903e-13 8.46529401e-13 1.55024026e-17 0.00000000e+00 0.00000000e+00 8.46529401e-13
1.14815362e-03 9.99217924e-13 9.99176121e-13 4.18036986e-17 0.00000000e+00 0.00000000e+00 9.99176121e-13
1.31825674e-03 1.17942084e-12 1.17934819e-12 7.26472949e-17 0.00000000e+00 0.00000000e+00 1.17934819e-12
1.51356125e-03 1.39208488e-12 1.39200901e-12 7.58743415e-17 0.00000000e+00 0.00000000e+00 1.39200901e-12
1.73780083e-03 1.64308551e-12 1.64301696e-12 6.85496296e-17 0.00000000e+00 0.00000000e+00 1.64301696e-12
1.99526231e-03 1.93985384e-12 1.93928682e-12 5.67021480e-16 0.00000000e+00 0.00000000e+00 1.93928682e-12
2.29086765e-03 2.28940022e-12 2.28898025e-12 4.19962011e-16 0.00000000e+00 0.00000000e+00 2.28898025e-12
2.63026799e-03 2.70227899e-12 2.70173063e-12 5.48359624e-16 0.00000000e+00 0.00000000e+00 2.70173063e-12
3.01995172e-03 3.19565697e-12 3.18890841e-12 6.74855788e-15 0.00000000e+00 0.00000000e+00 3.18890841e-12
3.46736850e-03 3.76829259e-12 3.76393440e-12 4.35818884e-15 0.00000000e+00 0.00000000e+00 3.76393440e-12
3.98107171e-03 4.44783652e-12 4.44264945e-12 5.18706970e-15 0.00000000e+00 0.00000000e+00 4.44264945e-12
4.57088190e-03 5.25794373e-12 5.24375082e-12 1.41929061e-14 0.00000000e+00 0.00000000e+00 5.24375082e-12
5.24807460e-03 6.21672543e-12 6.18930730e-12 2.74181257e-14 0.00000000e+00 0.00000000e+00 6.18930730e-12
6.02559586e-03 7.32723843e-12 7.30536713e-12 2.18713028e-14 0.00000000e+00 0.00000000e+00 7.30536713e-12
6.91830971e-03 8.65461052e-12 8.62267558e-12 3.19349441e-14 0.00000000e+00 0.00000000e+00 8.62267558e-12
7.94328235e-03 1.02403980e-11 1.01775219e-11 6.28761066e-14 1.86217945e-304 2.91489245e-306 1.01775219e-11
9.12010839e-03 1.21263211e-11 1.20127391e-11 1.13581989e-13 1.35012007e-265 1.95738010e-267 1.20127391e-11
1.04712855e-02 1.36044964e-11 1.34165878e-11 1.87908587e-13 8.86369730e-232 1.36089296e-233 1.34165878e-11
1.20226443e-02 1.35545610e-11 1.34165878e-11 1.37973191e-13 2.04745947e-202 4.32661552e-204 1.34165878e-11
1.38038426e-02 1.36164810e-11 1.34165878e-11 1.99893160e-13 7.76894060e-177 1.53754895e-178 1.34165878e-11
1.58489319e-02 1.36651660e-11 1.34165878e-11 2.48578204e-13 1.41740491e-154 4.23247191e-156 1.34165878e-11
1.81970086e-02 1.36905448e-11 1.34165878e-11 2.73956962e-13 3.25830324e-135 1.06020257e-136 1.34165878e-11
2.08929613e-02 1.37105502e-11 1.34165878e-11 2.93962393e-13 2.12272607e-118 7.45729187e-120 1.34165878e-11
2.39883292e-02 1.37830302e-11 1.34165878e-11 3.66442410e-13 9.05200542e-104 3.68400292e-105 1.34165878e-11
2.75422870e-02 1.38018551e-11 1.34165878e-11 3.85267269e-13 4.77738570e-91 2.03044813e-92 1.34165878e-11
3.16227766e-02 1.38165831e-11 1.34165878e-11 3.99995264e-13 5.39177336e-80 2.51797997e-81 1.34165878e-11
3.63078055e-02 1.38128149e-11 1.34165878e-11 3.96227074e-13 2.11656975e-70 9.97573254e-72 1.34165878e-11
4.16869383e-02 1.38572280e-11 1.34165878e-11 4.40640114e-13 4.49319757e-62 2.36255252e-63 1.34165878e-11
4.78630092e-02 1.38801466e-11 1.34165878e-11 4.63558761e-13 7.45170845e-55 4.37559735e-56 1.34165878e-11
5.49540874e-02 1.38706127e-11 1.34165878e-11 4.54024873e-13 1.33904132e-48 8.50202265e-50 1.34165878e-11
6.30957344e-02 1.38624990e-11 1.34165878e-11 4.45911171e-13 4.59483000e-43 3.11890491e-44 1.34165878e-11
7.24435960e-02 1.38141810e-11 1.34165878e-11 3.97593181e-13 2.79161098e-38 1.84572193e-39 1.34165878e-11
8.31763771e-02 1.37965427e-11 1.34165878e-11 3.79954905e-13 3.01864070e-34 1.91381046e-35 1.34165878e-11
9.54992586e-02 1.38052997e-11 1.34165878e-11 3.88711858e-13 8.96767643e-31 5.92871191e-32 1.34165878e-11
1.09647820e-01 1.32116806e-11 1.28127470e-11 3.98933648e-13 8.01878668e-28 5.53721364e-29 1.28127470e-11
1.25892541e-01 1.23447500e-11 1.19575512e-11 3.87198835e-13 2.71995106e-25 1.85135925e-26 1.19575512e-11
1.44543977e-01 1.15011187e-11 1.11594361e-11 3.41682582e-13 3.85007063e-23 2.51615067e-24 1.11594361e-11
1.65958691e-01 1.07592583e-11 1.04145917e-11 3.44666556e-13 2.01478944e-21 1.43973919e-22 1.04145917e-11
1.90546072e-01 1.00709067e-11 9.71946251e-12 3.51444122e-13 4.34063310e-20 3.58290113e-21 9.71946251e-12
2.18776162e-01 9.38742543e-12 9.07073019e-12 3.16694710e-13 5.22491451e-19 4.55451639e-20 9.07073019e-12
2.51188643e-01 8.81926845e-12 8.46529796e-12 3.53963939e-13 6.54988409e-18 7.02277347e-19 8.46529796e-12
2.88403150e-01 8.23016601e-12 7.90027573e-12 3.29834590e-13 5.56876086e-17 5.92660377e-18 7.90027573e-12
3.31131121e-01 7.68100371e-12 7.37296631e-12 3.07713499e-13 3.23905069e-16 3.29071827e-17 7.37296631e-12
3.80189396e-01 7.15676246e-12 6.88085251e-12 2.74543445e-13 1.36650321e-15 1.34116934e-16 6.88085251e-12
4.36515832e-01 6.68211152e-12 6.42158520e-12 2.56123090e-13 4.40323081e-15 4.44142591e-16 6.42158520e-12
5.01187234e-01 6.23677569e-12 5.99297201e-12 2.32650434e-13 1.11532457e-14 1.13147107e-15 5.99297201e-12
5.75439937e-01 5.83263054e-12 5.59296690e-12 2.16180798e-13 2.34828439e-14 2.45487400e-15 5.59296690e-12
6.60693448e-01 5.45975973e-12 5.21966041e-12 1.96648126e-13 4.34511886e-14 5.10323324e-15 5.21966041e-12
7.58577575e-01 5.13038347e-12 4.87127053e-12 1.81921015e-13 7.71919271e-14 1.11724521e-14 4.87127053e-12
8.70963590e-01 4.84631276e-12 4.54613417e-12 1.60552771e-13 1.39625816e-13 2.55657838e-14 4.54613417e-12
1.00000000e+00 4.65087780e-12 4.24269927e-12 1.43054254e-13 2.65124280e-13 5.67934321e-14 4.24269927e-12
1.14815362e+00 4.60108584e-12 3.95951734e-12 1.21082256e-13 5.20486248e-13 1.16222395e-13 3.95951734e-12
1.31825674e+00 4.79833753e-12 3.69523659e-12 1.01666821e-13 1.00143413e-12 2.09792117e-13 3.69523659e-12
1.51356125e+00 5.32916329e-12 3.44859544e-12 8.21703703e-14 1.79839748e-12 3.34262940e-13 3.44859544e-12
1.73780083e+00 6.19881019e-12 3.21841652e-12 6.54567087e-14 2.91493696e-12 4.61508001e-13 3.21841652e-12
1.99526231e+00 7.33281732e-12 3.00360106e-12 5.02835209e-14 4.27893274e-12 5.48014977e-13 3.00360106e-12
2.29086765e+00 8.54191495e-12 2.80312361e-12 3.83685397e-14 5.70042281e-12 5.81590970e-13 2.80312361e-12
2.63026799e+00 9.72198798e-12 2.61602716e-12 2.84638809e-14 7.07749693e-12 5.72154866e-13 2.61602716e-12
3.01995172e+00 1.08031667e-11 2.44141860e-12 2.06839061e-14 8.34106416e-12 5.27704381e-13 2.44141860e-12
3.46736850e+00 1.16129889e-11 2.27846441e-12 1.47838841e-14 9.31974061e-12 4.52739717e-13 2.27846441e-12
3.98107171e+00 1.22680857e-11 2.12638671e-12 1.02407817e-14 1.01314582e-11 3.63331300e-13 2.12638671e-12
4.57088190e+00 1.26461141e-11 1.98445954e-12 6.83560586e-15 1.06548190e-11 2.68436474e-13 1.98445954e-12
5.24807460e+00 1.24248634e-11 1.64084388e-12 3.86332476e-15 1.07801562e-11 1.80994595e-13 1.64084388e-12
6.02559586e+00 1.17414060e-11 1.08409480e-12 1.67847496e-15 1.06556328e-11 1.13333770e-13 1.08409480e-12
6.70000000e+00 1.10775228e-11 7.88574724e-13 8.63327948e-16 1.02880848e-11 7.41628552e-14 7.88574724e-13
6.92422916e+00 1.08961320e-11 7.14418944e-13 6.90457465e-16 1.01810226e-11 6.42038995e-14 7.14418944e-13
7.15596261e+00 1.06956161e-11 6.47236606e-13 5.51696212e-16 1.00478278e-11 5.51163698e-14 6.47236606e-13
7.39545150e+00 1.06175489e-11 5.86371942e-13 4.19524347e-16 1.00307574e-11 4.70178820e-14 5.86371942e-13
7.64295536e+00 1.08696213e-11 5.31230854e-13 2.96327091e-16 1.03380941e-11 3.86784813e-14 5.31230854e-13
7.89874245e+00 1.15366908e-11 4.81275108e-13 1.82643722e-16 1.10552330e-11 3.06306543e-14 4.81275108e-13
8.16308998e+00 1.23435533e-11 4.36017088e-13 1.05408706e-16 1.19074308e-11 2.31838005e-14 4.36017088e-13
8.43628443e+00 1.32066375e-11 3.95015029e-13 5.75575371e-17 1.28115650e-11 1.67366759e-14 3.95015029e-13
8.71862190e+00 1.36890138e-11 3.57868711e-13 3.51016257e-17 1.33311100e-11 1.26271708e-14 3.57868711e-13
9.01040836e+00 1.41698402e-11 3.24215549e-13 2.02447192e-17 1.38456044e-11 9.04115317e-15 3.24215549e-13
9.31196005e+00 1.44471581e-11 2.93727053e-13 0.00000000e+00 1.41534311e-11 0.00000000e+00 2.93727053e-13
9.62360379e+00 1.43268280e-11 2.66105627e-13 0.00000000e+00 1.40607224e-11 0.00000000e+00 2.66105627e-13
9.94567731e+00 1.36775985e-11 2.41081657e-13 0.00000000e+00 1.34365168e-11 0.00000000e+00 2.41081657e-13
1.02785297e+01 1.31767076e-11 2.18410884e-13 0.00000000e+00 1.29582967e-11 0.00000000e+00 2.18410884e-13
1.06225216e+01 1.26087140e-11 1.97872020e-13 0.00000000e+00 1.24108419e-11 0.00000000e+00 1.97872020e-13
1.09780260e+01 1.20272020e-11 1.79264583e-13 0.00000000e+00 1.18479374e-11 0.00000000e+00 1.79264583e-13
1.13454280e+01 1.13653549e-11 1.62406948e-13 0.00000000e+00 1.12029480e-11 0.00000000e+00 1.62406948e-13
1.17251259e+01 1.07974526e-11 1.47134567e-13 0.00000000e+00 1.06503181e-11 0.00000000e+00 1.47134567e-13
1.21175312e+01 1.01878355e-11 1.33298366e-13 0.00000000e+00 1.00545371e-11 0.00000000e+00 1.33298366e-13
1.25230691e+01 9.62834320e-12 1.20763289e-13 0.00000000e+00 9.50757991e-12 0.00000000e+00 1.20763289e-13
1.29421791e+01 9.00012186e-12 1.09406983e-13 0.00000000e+00 8.89071487e-12 0.00000000e+00 1.09406983e-13
1.33753155e+01 8.41643530e-12 9.91185987e-14 0.00000000e+00 8.31731670e-12 0.00000000e+00 9.91185987e-14
1.38229477e+01 8.00007677e-12 8.97977103e-14 0.00000000e+00 7.91027906e-12 0.00000000e+00 8.97977103e-14
1.42855609e+01 7.69094601e-12 8.13533371e-14 0.00000000e+00 7.60959267e-12 0.00000000e+00 8.13533371e-14
1.47636563e+01 7.64857792e-12 7.37030537e-14 0.00000000e+00 7.57487487e-12 0.00000000e+00 7.37030537e-14
1.52577522e+01 7.66815972e-12 6.67721855e-14 0.00000000e+00 7.60138754e-12 0.00000000e+00 6.67721855e-14
1.57683840e+01 7.69108732e-12 6.04930805e-14 0.00000000e+00 7.63059424e-12 0.00000000e+00 6.04930805e-14
1.62961051e+01 7.71643585e-12 5.48044484e-14 0.00000000e+00 7.66163140e-12 0.00000000e+00 5.48044484e-14
1.68414875e+01 7.73806917e-12 4.96507622e-14 0.00000000e+00 7.68841841e-12 0.00000000e+00 4.96507622e-14
1.74051222e+01 7.68236780e-12 4.49817171e-14 0.00000000e+00 7.63738609e-12 0.00000000e+00 4.49817171e-14
1.79876201e+01 7.55533234e-12 4.07517384e-14 0.00000000e+00 7.51458061e-12 0.00000000e+00 4.07517384e-14
1.85896125e+01 7.34308968e-12 3.69195372e-14 0.00000000e+00 7.30617015e-12 0.00000000e+00 3.69195372e-14
1.92117518e+01 7.03893748e-12 3.34477076e-14 0.00000000e+00 7.00548977e-12 0.00000000e+00 3.34477076e-14
1.98547123e+01 6.73068038e-12 3.03023610e-14 0.00000000e+00 6.70037802e-12 0.00000000e+00 3.03023610e-14
2.05191907e+01 6.34921760e-12 2.74527957e-14 0.00000000e+00 6.32176481e-12 0.00000000e+00 2.74527957e-14
2.12059073e+01 6.01370956e-12 2.48711970e-14 0.00000000e+00 5.98883836e-12 0.00000000e+00 2.48711970e-14
2.19156062e+01 5.67247312e-12 2.25323660e-14 0.00000000e+00 5.64994076e-12 0.00000000e+00 2.25323660e-14
2.26490567e+01 5.37301330e-12 2.04134733e-14 0.00000000e+00 5.35259983e-12 0.00000000e+00 2.04134733e-14
2.34070535e+01 5.04645153e-12 1.84938366e-14 0.00000000e+00 5.02795769e-12 0.00000000e+00 1.84938366e-14
2.41904183e+01 4.74105333e-12 1.67547181e-14 0.00000000e+00 4.72429861e-12 0.00000000e+00 1.67547181e-14
2.50000000e+01 4.46028815e-12 1.51791424e-14 0.00000000e+00 4.44510901e-12 0.00000000e+00 1.51791424e-14
2.75422870e+01 3.66146700e-12 1.13518661e-14 0.00000000e+00 3.65011514e-12 0.00000000e+00 1.13518661e-14
3.16227766e+01 2.67227314e-12 7.50010357e-15 0.00000000e+00 2.66477304e-12 0.00000000e+00 7.50010357e-15
3.63078055e+01 1.85617558e-12 4.95526929e-15 0.00000000e+00 1.85122031e-12 0.00000000e+00 4.95526929e-15
4.16869383e+01 1.21117056e-12 3.27391395e-15 0.00000000e+00 1.20789665e-12 0.00000000e+00 3.27391395e-15
4.78630092e+01 7.44431749e-13 2.16305350e-15 0.00000000e+00 7.42268695e-13 0.00000000e+00 2.16305350e-15
5.49540874e+01 4.35743281e-13 1.42911527e-15 0.00000000e+00 4.34314166e-13 0.00000000e+00 1.42911527e-15
6.30957344e+01 2.45731144e-13 9.44207098e-16 0.00000000e+00 2.44786937e-13 0.00000000e+00 9.44207098e-16
7.24435960e+01 1.34803354e-13 6.23831443e-16 0.00000000e+00 1.34179523e-13 0.00000000e+00 6.23831443e-16
8.31763771e+01 7.25595075e-14 4.12161347e-16 0.00000000e+00 7.21473462e-14 0.00000000e+00 4.12161347e-16
9.54992586e+01 3.86323930e-14 2.72312302e-16 0.00000000e+00 3.83600807e-14 0.00000000e+00 2.72312302e-16
1.09647820e+02 2.04185413e-14 1.79914953e-16 0.00000000e+00 2.02386264e-14 0.00000000e+00 1.79914953e-16
1.25892541e+02 1.08643644e-14 1.18868631e-16 0.00000000e+00 1.07454957e-14 0.00000000e+00 1.18868631e-16
1.44543977e+02 5.78386464e-15 7.85357256e-17 0.00000000e+00 5.70532891e-15 0.00000000e+00 7.85357256e-17
1.65958691e+02 2.94726714e-15 5.18880394e-17 0.00000000e+00 2.89537910e-15 0.00000000e+00 5.18880394e-17
1.90546072e+02 1.51163603e-15 3.42820876e-17 0.00000000e+00 1.47735394e-15 0.00000000e+00 3.42820876e-17
2.18776162e+02 7.77920811e-16 2.26499507e-17 0.00000000e+00 7.55270861e-16 0.00000000e+00 2.26499507e-17
2.51188643e+02 4.00925540e-16 1.49646740e-17 0.00000000e+00 3.85960866e-16 0.00000000e+00 1.49646740e-17
2.88403150e+02 2.06713431e-16 9.88706207e-18 0.00000000e+00 1.96826369e-16 0.00000000e+00 9.88706207e-18
3.31131121e+02 1.06848804e-16 6.53231713e-18 0.00000000e+00 1.00316487e-16 0.00000000e+00 6.53231713e-18
3.80189396e+02 5.53425566e-17 4.31585913e-18 0.00000000e+00 5.10266975e-17 0.00000000e+00 4.31585913e-18
4.36515832e+02 2.87822664e-17 2.85145985e-18 0.00000000e+00 2.59308066e-17 0.00000000e+00 2.85145985e-18
5.01187234e+02 1.50428572e-17 1.88394084e-18 0.00000000e+00 1.31589164e-17 0.00000000e+00 1.88394084e-18
5.75439937e+02 7.91505438e-18 1.24470737e-18 0.00000000e+00 6.67034701e-18 0.00000000e+00 1.24470737e-18
6.60693448e+02 4.20030098e-18 8.22370004e-19 0.00000000e+00 3.37793098e-18 0.00000000e+00 8.22370004e-19
7.58577575e+02 2.25248052e-18 5.43334473e-19 0.00000000e+00 1.70914605e-18 0.00000000e+00 5.43334473e-19
8.70963590e+02 1.22288411e-18 3.58977527e-19 0.00000000e+00 8.63906581e-19 0.00000000e+00 3.58977527e-19
1.00000000e+03 4.36231869e-19 0.00000000e+00 0.00000000e+00 4.36231869e-19 0.00000000e+00 0.00000000e+00
