# column 1: lambda (micron)
# column 2: total flux; lambda*F_lambda (W/m2)
# column 3: direct stellar flux; lambda*F_lambda (W/m2)
# column 4: scattered stellar flux; lambda*F_lambda (W/m2)
# column 5: total dust emission flux; lambda*F_lambda (W/m2)
# column 6: dust emission scattered flux; lambda*F_lambda (W/m2)
# column 7: transparent flux; lambda*F_lambda (W/m2)
1.00000000e-03 8.46531607e-13 8.46529401e-13 2.20657231e-18 0.00000000e+00 0.00000000e+00 8.46529401e-13
1.14815362e-03 9.99179390e-13 9.99176121e-13 3.26949204e-18 0.00000000e+00 0.00000000e+00 9.99176121e-13
1.31825674e-03 1.17935283e-12 1.17934819e-12 4.63826882e-18 0.00000000e+00 0.00000000e+00 1.17934819e-12
1.51356125e-03 1.39201614e-12 1.39200901e-12 7.12920298e-18 0.00000000e+00 0.00000000e+00 1.39200901e-12
1.73780083e-03 1.64302926e-12 1.64301696e-12 1.22964185e-17 0.00000000e+00 0.00000000e+00 1.64301696e-12
1.99526231e-03 1.93930968e-12 1.93928682e-12 2.28546858e-17 0.00000000e+00 0.00000000e+00 1.93928682e-12
2.29086765e-03 2.28901613e-12 2.28898025e-12 3.58793408e-17 0.00000000e+00 0.00000000e+00 2.28898025e-12
2.63026799e-03 2.70180020e-12 2.70173063e-12 6.95759832e-17 0.00000000e+00 0.00000000e+00 2.70173063e-12
3.01995172e-03 3.18902829e-12 3.18890841e-12 1.19877494e-16 0.00000000e+00 0.00000000e+00 3.18890841e-12
3.46736850e-03 3.76413197e-12 3.76393440e-12 1.97565121e-16 0.00000000e+00 0.00000000e+00 3.76393440e-12
3.98107171e-03 4.44295972e-12 4.44264945e-12 3.10270261e-16 0.00000000e+00 0.00000000e+00 4.44264945e-12
4.57088190e-03 5.24445558e-12 5.24375082e-12 7.04759566e-16 0.00000000e+00 0.00000000e+00 5.24375082e-12
5.24807460e-03 6.19055720e-12 6.18930730e-12 1.24989744e-15 0.00000000e+00 0.00000000e+00 6.18930730e-12
6.02559586e-03 7.30765569e-12 7.30536713e-12 2.28856313e-15 0.00000000e+00 0.00000000e+00 7.30536713e-12
6.91830971e-03 8.62605710e-12 8.62267558e-12 3.38152340e-15 0.00000000e+00 0.00000000e+00 8.62267558e-12
7.94328235e-03 1.01834025e-11 1.01775219e-11 5.88056545e-15 2.13863719e-303 5.70926645e-305 1.01775219e-11
9.12010839e-03 1.20223187e-11 1.20127391e-11 9.57959033e-15 1.18832007e-264 2.93961690e-266 1.20127391e-11
1.04712855e-02 1.34302795e-11 1.34165878e-11 1.36916124e-14 6.45702863e-231 4.11131176e-232 1.34165878e-11
1.20226443e-02 1.34366144e-11 1.34165878e-11 2.00265425e-14 1.16708305e-201 3.05997943e-203 1.34165878e-11
1.38038426e-02 1.34528498e-11 1.34165878e-11 3.62619823e-14 3.75647178e-176 1.26638909e-177 1.34165878e-11
1.58489319e-02 1.34602220e-11 1.34165878e-11 4.36341703e-14 5.86151789e-154 2.30505972e-155 1.34165878e-11
1.81970086e-02 1.34763430e-11 1.34165878e-11 5.97551156e-14 1.18945290e-134 5.80474393e-136 1.34165878e-11
2.08929613e-02 1.35005150e-11 1.34165878e-11 8.39271162e-14 6.90135200e-118 3.46963250e-119 1.34165878e-11
2.39883292e-02 1.35296750e-11 1.34165878e-11 1.13087190e-13 2.65327559e-103 1.37586597e-104 1.34165878e-11
2.75422870e-02 1.35550074e-11 1.34165878e-11 1.38419550e-13 1.28131232e-90 6.76758611e-92 1.34165878e-11
3.16227766e-02 1.35885431e-11 1.34165878e-11 1.71955262e-13 1.33942122e-79 7.47688259e-81 1.34165878e-11
3.63078055e-02 1.36109194e-11 1.34165878e-11 1.94331598e-13 4.91741907e-70 2.82967405e-71 1.34165878e-11
4.16869383e-02 1.36740350e-11 1.34165878e-11 2.57447190e-13 9.92126669e-62 6.75912525e-63 1.34165878e-11
4.78630092e-02 1.37272153e-11 1.34165878e-11 3.10627426e-13 1.57333630e-54 1.20561739e-55 1.34165878e-11
5.49540874e-02 1.37622583e-11 1.34165878e-11 3.45670422e-13 2.70151941e-48 2.22296214e-49 1.34165878e-11
6.30957344e-02 1.37844420e-11 1.34165878e-11 3.67854111e-13 8.90619429e-43 7.47904208e-44 1.34165878e-11
7.24435960e-02 1.37463871e-11 1.34165878e-11 3.29799239e-13 5.22219940e-38 3.94226598e-39 1.34165878e-11
8.31763771e-02 1.37397989e-11 1.34165878e-11 3.23211094e-13 5.48512056e-34 4.04536267e-35 1.34165878e-11
9.54992586e-02 1.37418630e-11 1.34165878e-11 3.25275124e-13 1.58613481e-30 1.19517499e-31 1.34165878e-11
1.09647820e-01 1.31622161e-11 1.28127470e-11 3.49469128e-13 1.39789919e-27 1.18951878e-28 1.28127470e-11
1.25892541e-01 1.22836045e-11 1.19575512e-11 3.26053307e-13 4.65348561e-25 4.03954627e-26 1.19575512e-11
1.44543977e-01 1.14650878e-11 1.11594361e-11 3.05651723e-13 6.51421912e-23 5.74513877e-24 1.11594361e-11
1.65958691e-01 1.07228309e-11 1.04145917e-11 3.08239129e-13 3.37708682e-21 3.31231998e-22 1.04145917e-11
1.90546072e-01 1.00446487e-11 9.71946251e-12 3.25186076e-13 7.20341361e-20 7.97323669e-21 9.71946251e-12
2.18776162e-01 9.37029671e-12 9.07073019e-12 2.99565667e-13 8.50684221e-19 9.30353015e-20 9.07073019e-12
2.51188643e-01 8.81047195e-12 8.46529796e-12 3.45163308e-13 1.06785388e-17 1.46236630e-18 8.46529796e-12
2.88403150e-01 8.21493514e-12 7.90027573e-12 3.14568872e-13 9.05316935e-17 1.27019374e-17 7.90027573e-12
3.31131121e-01 7.66863189e-12 7.37296631e-12 2.95139375e-13 5.26210061e-16 7.37933313e-17 7.37296631e-12
3.80189396e-01 7.15129496e-12 6.88085251e-12 2.68223820e-13 2.21862418e-15 3.06430648e-16 6.88085251e-12
4.36515832e-01 6.67428728e-12 6.42158520e-12 2.45583822e-13 7.11825746e-15 1.00128822e-15 6.42158520e-12
5.01187234e-01 6.23651314e-12 5.99297201e-12 2.25589157e-13 1.79519744e-14 2.51823999e-15 5.99297201e-12
5.75439937e-01 5.83645593e-12 5.59296690e-12 2.05823868e-13 3.76651631e-14 5.30326685e-15 5.59296690e-12
6.60693448e-01 5.47209209e-12 5.21966041e-12 1.83764987e-13 6.86666906e-14 1.00368709e-14 5.21966041e-12
7.58577575e-01 5.15551636e-12 4.87127053e-12 1.68512317e-13 1.15733512e-13 1.82873057e-14 4.87127053e-12
8.70963590e-01 4.88658517e-12 4.54613417e-12 1.48617363e-13 1.91833632e-13 3.33156874e-14 4.54613417e-12
1.00000000e+00 4.69117750e-12 4.24269927e-12 1.26017009e-13 3.22461218e-13 6.09161516e-14 4.24269927e-12
1.14815362e+00 4.62624655e-12 3.95951734e-12 1.05583918e-13 5.61145297e-13 1.07745348e-13 3.95951734e-12
1.31825674e+00 4.75664224e-12 3.69523659e-12 8.59411073e-14 9.75464549e-13 1.76024287e-13 3.69523659e-12
1.51356125e+00 5.14407779e-12 3.44859544e-12 6.68234351e-14 1.62865892e-12 2.60699187e-13 3.44859544e-12
1.73780083e+00 5.77122710e-12 3.21841652e-12 5.17244099e-14 2.50108617e-12 3.40951030e-13 3.21841652e-12
1.99526231e+00 6.55036863e-12 3.00360106e-12 3.88371396e-14 3.50793043e-12 3.88253699e-13 3.00360106e-12
2.29086765e+00 7.34789078e-12 2.80312361e-12 2.91670169e-14 4.51560015e-12 3.95739347e-13 2.80312361e-12
2.63026799e+00 8.05032506e-12 2.61602716e-12 2.14401595e-14 5.41285773e-12 3.74465990e-13 2.61602716e-12
3.01995172e+00 8.57987444e-12 2.44141860e-12 1.54570541e-14 6.12299879e-12 3.35011457e-13 2.44141860e-12
3.46736850e+00 8.92681790e-12 2.27846441e-12 1.08416505e-14 6.63751184e-12 2.80532348e-13 2.27846441e-12
3.98107171e+00 9.08147008e-12 2.12638671e-12 7.51598476e-15 6.94756739e-12 2.22735141e-13 2.12638671e-12
4.57088190e+00 9.07256161e-12 1.98445954e-12 5.07215848e-15 7.08302991e-12 1.63057791e-13 1.98445954e-12
5.24807460e+00 8.67408092e-12 1.64084388e-12 2.84181396e-15 7.03039523e-12 1.09163253e-13 1.64084388e-12
6.02559586e+00 7.87884405e-12 1.08409480e-12 1.24540038e-15 6.79350385e-12 6.79841242e-14 1.08409480e-12
6.70000000e+00 7.31117247e-12 7.88574724e-13 6.34788578e-16 6.52196295e-12 4.45890070e-14 7.88574724e-13
6.92422916e+00 7.13413423e-12 7.14418944e-13 5.06639190e-16 6.41920865e-12 3.86678999e-14 7.14418944e-13
7.15596261e+00 6.99646283e-12 6.47236606e-13 4.05468374e-16 6.34882076e-12 3.31836000e-14 6.47236606e-13
7.39545150e+00 6.94668565e-12 5.86371942e-13 3.07851948e-16 6.36000586e-12 2.82564327e-14 5.86371942e-13
7.64295536e+00 7.12425525e-12 5.31230854e-13 2.17156440e-16 6.59280724e-12 2.35520241e-14 5.31230854e-13
7.89874245e+00 7.62466138e-12 4.81275108e-13 1.34849575e-16 7.14325143e-12 1.85478086e-14 4.81275108e-13
8.16308998e+00 8.30860412e-12 4.36017088e-13 7.87094415e-17 7.87250833e-12 1.42793158e-14 4.36017088e-13
8.43628443e+00 9.10468029e-12 3.95015029e-13 4.26243695e-17 8.70962264e-12 1.04422271e-14 3.95015029e-13
8.71862190e+00 9.53414661e-12 3.57868711e-13 2.66999696e-17 9.17625120e-12 7.88891695e-15 3.57868711e-13
9.01040836e+00 9.95562488e-12 3.24215549e-13 1.59382495e-17 9.63139339e-12 5.77712569e-15 3.24215549e-13
9.31196005e+00 1.01914281e-11 2.93727053e-13 0.00000000e+00 9.89770103e-12 0.00000000e+00 2.93727053e-13
9.62360379e+00 1.00307731e-11 2.66105627e-13 0.00000000e+00 9.76466748e-12 0.00000000e+00 2.66105627e-13
9.94567731e+00 9.60559630e-12 2.41081657e-13 0.00000000e+00 9.36451465e-12 0.00000000e+00 2.41081657e-13
1.02785297e+01 9.12881499e-12 2.18410884e-13 0.00000000e+00 8.91040410e-12 0.00000000e+00 2.18410884e-13
1.06225216e+01 8.61788771e-12 1.97872020e-13 0.00000000e+00 8.42001570e-12 0.00000000e+00 1.97872020e-13
1.09780260e+01 8.07459004e-12 1.79264583e-13 0.00000000e+00 7.89532546e-12 0.00000000e+00 1.79264583e-13
1.13454280e+01 7.62631756e-12 1.62406948e-13 0.00000000e+00 7.46391061e-12 0.00000000e+00 1.62406948e-13
1.17251259e+01 7.13549100e-12 1.47134567e-13 0.00000000e+00 6.98835643e-12 0.00000000e+00 1.47134567e-13
1.21175312e+01 6.67832148e-12 1.33298366e-13 0.00000000e+00 6.54502311e-12 0.00000000e+00 1.33298366e-13
1.25230691e+01 6.22716982e-12 1.20763289e-13 0.00000000e+00 6.10640653e-12 0.00000000e+00 1.20763289e-13
1.29421791e+01 5.80108502e-12 1.09406983e-13 0.00000000e+00 5.69167804e-12 0.00000000e+00 1.09406983e-13
1.33753155e+01 5.42235393e-12 9.91185987e-14 0.00000000e+00 5.32323533e-12 0.00000000e+00 9.91185987e-14
1.38229477e+01 5.11577179e-12 8.97977103e-14 0.00000000e+00 5.02597408e-12 0.00000000e+00 8.97977103e-14
1.42855609e+01 4.91665909e-12 8.13533371e-14 0.00000000e+00 4.83530576e-12 0.00000000e+00 8.13533371e-14
1.47636563e+01 4.90530572e-12 7.37030537e-14 0.00000000e+00 4.83160267e-12 0.00000000e+00 7.37030537e-14
1.52577522e+01 4.92266947e-12 6.67721855e-14 0.00000000e+00 4.85589729e-12 0.00000000e+00 6.67721855e-14
1.57683840e+01 4.96326286e-12 6.04930805e-14 0.00000000e+00 4.90276978e-12 0.00000000e+00 6.04930805e-14
1.62961051e+01 5.00534507e-12 5.48044484e-14 0.00000000e+00 4.95054062e-12 0.00000000e+00 5.48044484e-14
1.68414875e+01 5.03736797e-12 4.96507622e-14 0.00000000e+00 4.98771721e-12 0.00000000e+00 4.96507622e-14
1.74051222e+01 5.00284028e-12 4.49817171e-14 0.00000000e+00 4.95785856e-12 0.00000000e+00 4.49817171e-14
1.79876201e+01 4.93793526e-12 4.07517384e-14 0.00000000e+00 4.89718352e-12 0.00000000e+00 4.07517384e-14
1.85896125e+01 4.82360633e-12 3.69195372e-14 0.00000000e+00 4.78668679e-12 0.00000000e+00 3.69195372e-14
1.92117518e+01 4.64026533e-12 3.34477076e-14 0.00000000e+00 4.60681763e-12 0.00000000e+00 3.34477076e-14
1.98547123e+01 4.42617270e-12 3.03023610e-14 0.00000000e+00 4.39587034e-12 0.00000000e+00 3.03023610e-14
2.05191907e+01 4.20144627e-12 2.74527957e-14 0.00000000e+00 4.17399348e-12 0.00000000e+00 2.74527957e-14
2.12059073e+01 3.96386140e-12 2.48711970e-14 0.00000000e+00 3.93899021e-12 0.00000000e+00 2.48711970e-14
2.19156062e+01 3.75681821e-12 2.25323660e-14 0.00000000e+00 3.73428585e-12 0.00000000e+00 2.25323660e-14
2.26490567e+01 3.55439077e-12 2.04134733e-14 0.00000000e+00 3.53397730e-12 0.00000000e+00 2.04134733e-14
2.34070535e+01 3.35832763e-12 1.84938366e-14 0.00000000e+00 3.33983379e-12 0.00000000e+00 1.84938366e-14
2.41904183e+01 3.15364455e-12 1.67547181e-14 0.00000000e+00 3.13688983e-12 0.00000000e+00 1.67547181e-14
2.50000000e+01 2.98093385e-12 1.51791424e-14 0.00000000e+00 2.96575471e-12 0.00000000e+00 1.51791424e-14
2.75422870e+01 2.46505838e-12 1.13518661e-14 0.00000000e+00 2.45370651e-12 0.00000000e+00 1.13518661e-14
3.16227766e+01 1.82395009e-12 7.50010357e-15 0.00000000e+00 1.81644999e-12 0.00000000e+00 7.50010357e-15
3.63078055e+01 1.27864934e-12 4.95526929e-15 0.00000000e+00 1.27369407e-12 0.00000000e+00 4.95526929e-15
4.16869383e+01 8.43937352e-13 3.27391395e-15 0.00000000e+00 8.40663438e-13 0.00000000e+00 3.27391395e-15
4.78630092e+01 5.22803760e-13 2.16305350e-15 0.00000000e+00 5.20640706e-13 0.00000000e+00 2.16305350e-15
5.49540874e+01 3.08152704e-13 1.42911527e-15 0.00000000e+00 3.06723589e-13 0.00000000e+00 1.42911527e-15
6.30957344e+01 1.75178434e-13 9.44207098e-16 0.00000000e+00 1.74234227e-13 0.00000000e+00 9.44207098e-16
7.24435960e+01 9.66843592e-14 6.23831443e-16 0.00000000e+00 9.60605278e-14 0.00000000e+00 6.23831443e-16
8.31763771e+01 5.23976091e-14 4.12161347e-16 0.00000000e+00 5.19854478e-14 0.00000000e+00 4.12161347e-16
9.54992586e+01 2.80494132e-14 2.72312302e-16 0.00000000e+00 2.77771009e-14 0.00000000e+00 2.72312302e-16
1.09647820e+02 1.49008432e-14 1.79914953e-16 0.00000000e+00 1.47209283e-14 0.00000000e+00 1.79914953e-16
1.25892541e+02 7.96713779e-15 1.18868631e-16 0.00000000e+00 7.84826916e-15 0.00000000e+00 1.18868631e-16
1.44543977e+02 4.26219587e-15 7.85357256e-17 0.00000000e+00 4.18366015e-15 0.00000000e+00 7.85357256e-17
1.65958691e+02 2.18204281e-15 5.18880394e-17 0.00000000e+00 2.13015477e-15 0.00000000e+00 5.18880394e-17
1.90546072e+02 1.12417530e-15 3.42820876e-17 0.00000000e+00 1.08989322e-15 0.00000000e+00 3.42820876e-17
2.18776162e+02 5.81274822e-16 2.26499507e-17 0.00000000e+00 5.58624872e-16 0.00000000e+00 2.26499507e-17
2.51188643e+02 3.01085484e-16 1.49646740e-17 0.00000000e+00 2.86120810e-16 0.00000000e+00 1.49646740e-17
2.88403150e+02 1.56091288e-16 9.88706207e-18 0.00000000e+00 1.46204226e-16 0.00000000e+00 9.88706207e-18
3.31131121e+02 8.11771237e-17 6.53231713e-18 0.00000000e+00 7.46448066e-17 0.00000000e+00 6.53231713e-18
3.80189396e+02 4.23426996e-17 4.31585913e-18 0.00000000e+00 3.80268405e-17 0.00000000e+00 4.31585913e-18
4.36515832e+02 2.22012489e-17 2.85145985e-18 0.00000000e+00 1.93497891e-17 0.00000000e+00 2.85145985e-18
5.01187234e+02 1.17148971e-17 1.88394084e-18 0.00000000e+00 9.83095626e-18 0.00000000e+00 1.88394084e-18
5.75439937e+02 6.23310207e-18 1.24470737e-18 0.00000000e+00 4.98839470e-18 0.00000000e+00 1.24470737e-18
6.60693448e+02 3.35078580e-18 8.22370004e-19 0.00000000e+00 2.52841580e-18 0.00000000e+00 8.22370004e-19
7.58577575e+02 1.82363125e-18 5.43334473e-19 0.00000000e+00 1.28029678e-18 0.00000000e+00 5.43334473e-19
8.70963590e+02 1.00655601e-18 3.58977527e-19 0.00000000e+00 6.47578488e-19 0.00000000e+00 3.58977527e-19
1.00000000e+03 3.27186591e-19 0.00000000e+00 0.00000000e+00 3.27186591e-19 0.00000000e+00 0.00000000e+00
