# column 1: lambda (micron)
# column 2: total flux; lambda*F_lambda (W/m2)
# column 3: direct stellar flux; lambda*F_lambda (W/m2)
# column 4: scattered stellar flux; lambda*F_lambda (W/m2)
# column 5: total dust emission flux; lambda*F_lambda (W/m2)
# column 6: dust emission scattered flux; lambda*F_lambda (W/m2)
# column 7: transparent flux; lambda*F_lambda (W/m2)
1.00000000e-03 1.07243103e-12 1.07241726e-12 1.37633857e-17 0.00000000e+00 0.00000000e+00 1.07335627e-12
1.14815362e-03 1.26545966e-12 1.26544048e-12 1.91835402e-17 0.00000000e+00 0.00000000e+00 1.26690456e-12
1.31825674e-03 1.49318389e-12 1.49315683e-12 2.70585965e-17 0.00000000e+00 0.00000000e+00 1.49535359e-12
1.51356125e-03 1.76197969e-12 1.76194017e-12 3.95218636e-17 0.00000000e+00 0.00000000e+00 1.76499670e-12
1.73780083e-03 2.07968903e-12 2.07961709e-12 7.19359743e-17 0.00000000e+00 0.00000000e+00 2.08326203e-12
1.99526231e-03 2.45362574e-12 2.45321481e-12 4.10933453e-16 0.00000000e+00 0.00000000e+00 2.45891716e-12
2.29086765e-03 2.89535775e-12 2.89517387e-12 1.83878373e-16 0.00000000e+00 0.00000000e+00 2.90231066e-12
2.63026799e-03 3.41596621e-12 3.41556504e-12 4.01174077e-16 0.00000000e+00 0.00000000e+00 3.42565717e-12
3.01995172e-03 4.03166910e-12 4.02864649e-12 3.02261120e-15 0.00000000e+00 0.00000000e+00 4.04337385e-12
3.46736850e-03 4.75343945e-12 4.75199543e-12 1.44401392e-15 0.00000000e+00 0.00000000e+00 4.77247759e-12
3.98107171e-03 5.60714572e-12 5.60538960e-12 1.75612327e-15 0.00000000e+00 0.00000000e+00 5.63305378e-12
4.57088190e-03 6.63061027e-12 6.62701097e-12 3.59930706e-15 0.00000000e+00 0.00000000e+00 6.64880962e-12
5.24807460e-03 7.82230397e-12 7.81487958e-12 7.42438257e-15 0.00000000e+00 0.00000000e+00 7.84772720e-12
6.02559586e-03 9.23318124e-12 9.21610678e-12 1.70744619e-14 0.00000000e+00 0.00000000e+00 9.26283435e-12
6.91830971e-03 1.09015026e-11 1.08694848e-11 3.20178122e-14 0.00000000e+00 0.00000000e+00 1.09331145e-11
7.94328235e-03 1.28633717e-11 1.28208189e-11 4.25528554e-14 0.00000000e+00 0.00000000e+00 1.29045807e-11
9.12010839e-03 1.51903061e-11 1.51218709e-11 6.84351600e-14 0.00000000e+00 0.00000000e+00 1.52315429e-11
1.04712855e-02 1.69840856e-11 1.68812709e-11 1.02814703e-13 0.00000000e+00 0.00000000e+00 1.70115517e-11
1.20226443e-02 1.69696919e-11 1.68736132e-11 9.60786529e-14 1.24665814e-309 4.16863200e-311 1.70115517e-11
1.38038426e-02 1.69937113e-11 1.68645349e-11 1.29176449e-13 2.03340340e-270 7.60166136e-272 1.70115517e-11
1.58489319e-02 1.70189439e-11 1.68533850e-11 1.65558900e-13 2.79517224e-236 1.40494993e-237 1.70115517e-11
1.81970086e-02 1.70670748e-11 1.68431078e-11 2.23967072e-13 1.41531149e-206 6.25555389e-208 1.70115517e-11
2.08929613e-02 1.71162557e-11 1.68345700e-11 2.81685783e-13 9.59659094e-181 5.00343511e-182 1.70115517e-11
2.39883292e-02 1.71744136e-11 1.68235142e-11 3.50899396e-13 2.90520696e-158 1.45102449e-159 1.70115517e-11
2.75422870e-02 1.71994549e-11 1.68106637e-11 3.88791272e-13 1.07604023e-138 5.99483689e-140 1.70115517e-11
3.16227766e-02 1.72233299e-11 1.67980768e-11 4.25253127e-13 1.10727188e-121 5.82399764e-123 1.70115517e-11
3.63078055e-02 1.72302148e-11 1.67882109e-11 4.42003910e-13 6.77215109e-107 3.13701413e-108 1.70115517e-11
4.16869383e-02 1.72774044e-11 1.67796823e-11 4.97722008e-13 4.82868655e-94 2.43377450e-95 1.70115517e-11
4.78630092e-02 1.72571902e-11 1.67561959e-11 5.00994228e-13 7.01846211e-83 3.61877781e-84 1.70115517e-11
5.49540874e-02 1.71642262e-11 1.67235883e-11 4.40637965e-13 3.44518690e-73 1.81568973e-74 1.70115517e-11
6.30957344e-02 1.69697901e-11 1.66421033e-11 3.27686747e-13 1.17358829e-64 6.09340159e-66 1.70115517e-11
7.24435960e-02 1.67877303e-11 1.65460969e-11 2.41633448e-13 2.94360482e-57 1.37907119e-58 1.70115517e-11
8.31763771e-02 1.67767111e-11 1.65546176e-11 2.22093551e-13 6.07144789e-51 2.80826326e-52 1.70115517e-11
9.54992586e-02 1.68132944e-11 1.65796335e-11 2.33660848e-13 1.79476674e-45 9.24221333e-47 1.70115517e-11
1.09647820e-01 1.61864778e-11 1.59025018e-11 2.83975959e-13 9.29857993e-41 5.72547180e-42 1.62459122e-11
1.25892541e-01 1.52176689e-11 1.48972584e-11 3.20410508e-13 1.18814034e-36 8.84040700e-38 1.51615674e-11
1.44543977e-01 1.42727361e-11 1.39448398e-11 3.27896325e-13 4.40871665e-33 3.75947286e-34 1.41495980e-11
1.65958691e-01 1.33837190e-11 1.30379016e-11 3.45817331e-13 4.39445271e-30 4.83528415e-31 1.32051732e-11
1.90546072e-01 1.24722624e-11 1.21573129e-11 3.14949489e-13 1.31480245e-27 1.72322502e-28 1.23237846e-11
2.18776162e-01 1.15518725e-11 1.13191963e-11 2.32676202e-13 1.62749719e-25 2.27905225e-26 1.15012250e-11
2.51188643e-01 1.08816981e-11 1.05974920e-11 2.84206054e-13 1.74257255e-23 3.38422448e-24 1.07335677e-11
2.88403150e-01 1.02063627e-11 9.91159940e-12 2.94763256e-13 1.00006682e-21 2.16486283e-22 1.00171482e-11
3.31131121e-01 9.56333444e-12 9.26262039e-12 3.00714016e-13 3.27322712e-20 8.02124002e-21 9.34854667e-12
3.80189396e-01 8.94085983e-12 8.65411180e-12 2.86747382e-13 6.51590577e-19 1.74837265e-19 8.72457139e-12
4.36515832e-01 8.36429576e-12 8.08498468e-12 2.79302372e-13 8.71027997e-18 2.59138983e-18 8.14224377e-12
5.01187234e-01 7.81627446e-12 7.55288310e-12 2.63310089e-13 8.12726899e-17 2.64484982e-17 7.59878402e-12
5.75439937e-01 7.29933750e-12 7.05518295e-12 2.43596576e-13 5.57973056e-16 1.89950474e-16 7.09159786e-12
6.60693448e-01 6.81732898e-12 6.58962605e-12 2.24805155e-13 2.89777593e-15 1.01851543e-15 6.61826421e-12
7.58577575e-01 6.37193669e-12 6.15427590e-12 2.05407444e-13 1.22533491e-14 4.35281520e-15 6.17652353e-12
8.70963590e-01 5.96823620e-12 5.74736731e-12 1.78933028e-13 4.19358560e-14 1.44876374e-14 5.76426715e-12
1.00000000e+00 5.64824590e-12 5.36689743e-12 1.56676476e-13 1.24671984e-13 4.01419840e-14 5.37952711e-12
1.14815362e+00 5.47103497e-12 5.01119638e-12 1.31760702e-13 3.28077887e-13 9.68494266e-14 5.02046681e-12
1.31825674e+00 5.55627310e-12 4.67868605e-12 1.09000646e-13 7.68586397e-13 1.95935002e-13 4.68537225e-12
1.51356125e+00 6.05532546e-12 4.36787035e-12 8.83014792e-14 1.59915363e-12 3.42889689e-13 4.37264380e-12
1.73780083e+00 7.13383221e-12 4.07743626e-12 7.34851491e-14 2.98291080e-12 5.26951861e-13 4.08078863e-12
1.99526231e+00 8.86442686e-12 3.80609618e-12 6.09659825e-14 4.99736470e-12 7.06691381e-13 3.80841354e-12
2.29086765e+00 1.11069859e-11 3.55262143e-12 4.95397283e-14 7.50482477e-12 8.39918205e-13 3.55421832e-12
2.63026799e+00 1.35533112e-11 3.31587883e-12 3.92522541e-14 1.01981801e-11 8.99209112e-13 3.31698953e-12
3.01995172e+00 1.60301619e-11 3.09481228e-12 3.04377469e-14 1.29049119e-11 9.06141918e-13 3.09559474e-12
3.46736850e+00 1.83603067e-11 2.88841689e-12 2.29201761e-14 1.54489696e-11 8.41609396e-13 2.88897711e-12
3.98107171e+00 1.98866966e-11 2.69574409e-12 1.64791606e-14 1.71744733e-11 7.15990856e-13 2.69615031e-12
4.57088190e+00 2.11044110e-11 2.51589530e-12 1.14697689e-14 1.85770459e-11 5.56936705e-13 2.51619387e-12
5.24807460e+00 2.14332668e-11 2.08030834e-12 6.69844816e-15 1.93462601e-11 3.89367711e-13 2.08050667e-12
6.02559586e+00 2.08823548e-11 1.37446824e-12 2.95675679e-15 1.95049298e-11 2.51025794e-13 1.37457712e-12
6.70000000e+00 2.02020095e-11 9.99802578e-13 1.52472742e-15 1.92006822e-11 1.67461076e-13 9.99872685e-13
6.92422916e+00 1.99004080e-11 9.05785635e-13 1.23192224e-15 1.89933905e-11 1.46554378e-13 9.05846924e-13
7.15596261e+00 1.97369061e-11 8.20608577e-13 9.77941676e-16 1.89153195e-11 1.26510285e-13 8.20663132e-13
7.39545150e+00 1.97044428e-11 7.43439226e-13 7.49839588e-16 1.89602538e-11 1.07186620e-13 7.43489831e-13
7.64295536e+00 2.00765530e-11 6.73521497e-13 5.18617537e-16 1.94025129e-11 8.84738357e-14 6.73573732e-13
7.89874245e+00 2.08919935e-11 6.10171243e-13 3.14357172e-16 2.02815079e-11 6.83312094e-14 6.10232385e-13
8.16308998e+00 2.17627532e-11 5.52772720e-13 1.77668874e-16 2.12098028e-11 5.05107354e-14 5.52847515e-13
8.43628443e+00 2.25145838e-11 5.00764849e-13 9.15969817e-17 2.20137274e-11 3.48208268e-14 5.00858987e-13
8.71862190e+00 2.25867763e-11 4.53654551e-13 5.41538130e-17 2.21330676e-11 2.57933498e-14 4.53759343e-13
9.01040836e+00 2.24971695e-11 4.10973837e-13 3.04817230e-17 2.20861652e-11 1.81629850e-14 4.11088843e-13
9.31196005e+00 2.23748020e-11 3.72310138e-13 0.00000000e+00 2.20024918e-11 0.00000000e+00 3.72430980e-13
9.62360379e+00 2.23028895e-11 3.37296053e-13 0.00000000e+00 2.19655934e-11 0.00000000e+00 3.37408415e-13
9.94567731e+00 2.19757735e-11 3.05583776e-13 0.00000000e+00 2.16701898e-11 0.00000000e+00 3.05679292e-13
1.02785297e+01 2.20242993e-11 2.76855620e-13 0.00000000e+00 2.17474437e-11 0.00000000e+00 2.76933904e-13
1.06225216e+01 2.17528624e-11 2.50828194e-13 0.00000000e+00 2.15020342e-11 0.00000000e+00 2.50891667e-13
1.09780260e+01 2.16119534e-11 2.27248774e-13 0.00000000e+00 2.13847046e-11 0.00000000e+00 2.27298384e-13
1.13454280e+01 2.13804268e-11 2.05884831e-13 0.00000000e+00 2.11745419e-11 0.00000000e+00 2.05923759e-13
1.17251259e+01 2.10105678e-11 1.86528412e-13 0.00000000e+00 2.08240394e-11 0.00000000e+00 1.86559155e-13
1.21175312e+01 2.04428848e-11 1.68991400e-13 0.00000000e+00 2.02738934e-11 0.00000000e+00 1.69015555e-13
1.25230691e+01 1.98338537e-11 1.53102789e-13 0.00000000e+00 1.96807509e-11 0.00000000e+00 1.53121715e-13
1.29421791e+01 1.91245364e-11 1.38707562e-13 0.00000000e+00 1.89858288e-11 0.00000000e+00 1.38722496e-13
1.33753155e+01 1.83390354e-11 1.25665480e-13 0.00000000e+00 1.82133700e-11 0.00000000e+00 1.25677347e-13
1.38229477e+01 1.77143845e-11 1.13849068e-13 0.00000000e+00 1.76005355e-11 0.00000000e+00 1.13858934e-13
1.42855609e+01 1.74418556e-11 1.03143323e-13 0.00000000e+00 1.73387123e-11 0.00000000e+00 1.03151898e-13
1.47636563e+01 1.75595934e-11 9.34435892e-14 0.00000000e+00 1.74661498e-11 0.00000000e+00 9.34517274e-14
1.52577522e+01 1.78204070e-11 8.46558754e-14 0.00000000e+00 1.77357511e-11 0.00000000e+00 8.46637387e-14
1.57683840e+01 1.81089423e-11 7.66944574e-14 0.00000000e+00 1.80322479e-11 0.00000000e+00 7.67021526e-14
1.62961051e+01 1.85085483e-11 6.94817343e-14 0.00000000e+00 1.84390666e-11 0.00000000e+00 6.94892560e-14
1.68414875e+01 1.87674479e-11 6.29473083e-14 0.00000000e+00 1.87045006e-11 0.00000000e+00 6.29546439e-14
1.74051222e+01 1.89238925e-11 5.70275658e-14 0.00000000e+00 1.88668650e-11 0.00000000e+00 5.70345319e-14
1.79876201e+01 1.89932559e-11 5.16646296e-14 0.00000000e+00 1.89415913e-11 0.00000000e+00 5.16711337e-14
1.85896125e+01 1.88413157e-11 4.68062125e-14 0.00000000e+00 1.87945095e-11 0.00000000e+00 4.68120974e-14
1.92117518e+01 1.85100960e-11 4.24048248e-14 0.00000000e+00 1.84676912e-11 0.00000000e+00 4.24099939e-14
1.98547123e+01 1.80350707e-11 3.84174024e-14 0.00000000e+00 1.79966533e-11 0.00000000e+00 3.84218542e-14
2.05191907e+01 1.73912117e-11 3.48049548e-14 0.00000000e+00 1.73564068e-11 0.00000000e+00 3.48087501e-14
2.12059073e+01 1.68261446e-11 3.15321790e-14 0.00000000e+00 1.67946125e-11 0.00000000e+00 3.15354141e-14
2.19156062e+01 1.61700645e-11 2.85671241e-14 0.00000000e+00 1.61414974e-11 0.00000000e+00 2.85698952e-14
2.26490567e+01 1.54855343e-11 2.58808696e-14 0.00000000e+00 1.54596534e-11 0.00000000e+00 2.58832470e-14
2.34070535e+01 1.49300872e-11 2.34472017e-14 0.00000000e+00 1.49066400e-11 0.00000000e+00 2.34492452e-14
2.41904183e+01 1.42782905e-11 2.12423705e-14 0.00000000e+00 1.42570482e-11 0.00000000e+00 2.12441313e-14
2.50000000e+01 1.36501365e-11 1.92448608e-14 0.00000000e+00 1.36308916e-11 0.00000000e+00 1.92463813e-14
2.75422870e+01 1.17619626e-11 1.43925979e-14 0.00000000e+00 1.17475700e-11 0.00000000e+00 1.43935895e-14
3.16227766e+01 9.14068563e-12 9.50920545e-15 0.00000000e+00 9.13117643e-12 0.00000000e+00 9.50975027e-15
3.63078055e+01 6.72268170e-12 6.28273194e-15 0.00000000e+00 6.71639896e-12 0.00000000e+00 6.28302969e-15
4.16869383e+01 4.62001552e-12 4.15099813e-15 0.00000000e+00 4.61586453e-12 0.00000000e+00 4.15115655e-15
4.78630092e+01 2.97129592e-12 2.74256026e-15 0.00000000e+00 2.96855336e-12 0.00000000e+00 2.74264194e-15
5.49540874e+01 1.80795037e-12 1.81200435e-15 0.00000000e+00 1.80613836e-12 0.00000000e+00 1.81204556e-15
6.30957344e+01 1.05652353e-12 1.19718610e-15 0.00000000e+00 1.05532635e-12 0.00000000e+00 1.19720663e-15
7.24435960e+01 5.97131729e-13 7.90976422e-16 0.00000000e+00 5.96340752e-13 0.00000000e+00 7.90986575e-16
8.31763771e+01 3.30154537e-13 5.22594634e-16 0.00000000e+00 3.29631943e-13 0.00000000e+00 5.22599647e-16
9.54992586e+01 1.79685454e-13 3.45275682e-16 0.00000000e+00 1.79340178e-13 0.00000000e+00 3.45278163e-16
1.09647820e+02 9.67378380e-14 2.28121788e-16 0.00000000e+00 9.65097162e-14 0.00000000e+00 2.28123020e-16
1.25892541e+02 5.22725711e-14 1.50718763e-16 0.00000000e+00 5.21218523e-14 0.00000000e+00 1.50719385e-16
1.44543977e+02 2.81758332e-14 9.95789944e-17 0.00000000e+00 2.80762543e-14 0.00000000e+00 9.95793099e-17
1.65958691e+02 1.45150864e-14 6.57912429e-17 0.00000000e+00 1.44492952e-14 0.00000000e+00 6.57913976e-17
1.90546072e+02 7.50340185e-15 4.34678687e-17 0.00000000e+00 7.45993398e-15 0.00000000e+00 4.34679453e-17
2.18776162e+02 3.88135832e-15 2.87189485e-17 0.00000000e+00 3.85263937e-15 0.00000000e+00 2.87189867e-17
2.51188643e+02 2.00508530e-15 1.89744273e-17 0.00000000e+00 1.98611088e-15 0.00000000e+00 1.89744463e-17
2.88403150e+02 1.03300325e-15 1.25362828e-17 0.00000000e+00 1.02046697e-15 0.00000000e+00 1.25362924e-17
3.31131121e+02 5.31776740e-16 8.28264145e-18 0.00000000e+00 5.23494098e-16 0.00000000e+00 8.28264623e-18
3.80189396e+02 2.73245159e-16 5.47228770e-18 0.00000000e+00 2.67772871e-16 0.00000000e+00 5.47229010e-18
4.36515832e+02 1.40352649e-16 3.61550501e-18 0.00000000e+00 1.36737144e-16 0.00000000e+00 3.61550621e-18
5.01187234e+02 7.20698651e-17 2.38874066e-18 0.00000000e+00 6.96811245e-17 0.00000000e+00 2.38874127e-18
5.75439937e+02 3.70276748e-17 1.57822540e-18 0.00000000e+00 3.54494494e-17 0.00000000e+00 1.57822570e-18
6.60693448e+02 1.90510337e-17 1.04272323e-18 0.00000000e+00 1.80083104e-17 0.00000000e+00 1.04272338e-18
7.58577575e+02 9.82534233e-18 6.88920430e-19 0.00000000e+00 9.13642190e-18 0.00000000e+00 6.88920507e-19
8.70963590e+02 5.08410480e-18 4.55165226e-19 0.00000000e+00 4.62893957e-18 0.00000000e+00 4.55165265e-19
1.00000000e+03 2.34213636e-18 0.00000000e+00 0.00000000e+00 2.34213636e-18 0.00000000e+00 0.00000000e+00
