# column 1: lambda (micron)
# column 2: total flux; lambda*F_lambda (W/m2)
# column 3: direct stellar flux; lambda*F_lambda (W/m2)
# column 4: scattered stellar flux; lambda*F_lambda (W/m2)
# column 5: total dust emission flux; lambda*F_lambda (W/m2)
# column 6: dust emission scattered flux; lambda*F_lambda (W/m2)
# column 7: transparent flux; lambda*F_lambda (W/m2)
1.00000000e-03 8.46529654e-13 8.46529401e-13 2.53258136e-19 0.00000000e+00 0.00000000e+00 8.46529401e-13
1.14815362e-03 9.99176532e-13 9.99176121e-13 4.11032267e-19 0.00000000e+00 0.00000000e+00 9.99176121e-13
1.31825674e-03 1.17934882e-12 1.17934819e-12 6.26697203e-19 0.00000000e+00 0.00000000e+00 1.17934819e-12
1.51356125e-03 1.39201002e-12 1.39200901e-12 1.01457732e-18 0.00000000e+00 0.00000000e+00 1.39200901e-12
1.73780083e-03 1.64301890e-12 1.64301696e-12 1.94231957e-18 0.00000000e+00 0.00000000e+00 1.64301696e-12
1.99526231e-03 1.93929002e-12 1.93928682e-12 3.20123027e-18 0.00000000e+00 0.00000000e+00 1.93928682e-12
2.29086765e-03 2.28898519e-12 2.28898025e-12 4.93622171e-18 0.00000000e+00 0.00000000e+00 2.28898025e-12
2.63026799e-03 2.70174077e-12 2.70173063e-12 1.01368309e-17 0.00000000e+00 0.00000000e+00 2.70173063e-12
3.01995172e-03 3.18892597e-12 3.18890841e-12 1.75576331e-17 0.00000000e+00 0.00000000e+00 3.18890841e-12
3.46736850e-03 3.76396333e-12 3.76393440e-12 2.89277534e-17 0.00000000e+00 0.00000000e+00 3.76393440e-12
3.98107171e-03 4.44269592e-12 4.44264945e-12 4.64663773e-17 0.00000000e+00 0.00000000e+00 4.44264945e-12
4.57088190e-03 5.24385345e-12 5.24375082e-12 1.02632486e-16 0.00000000e+00 0.00000000e+00 5.24375082e-12
5.24807460e-03 6.18949684e-12 6.18930730e-12 1.89539731e-16 0.00000000e+00 0.00000000e+00 6.18930730e-12
6.02559586e-03 7.30570518e-12 7.30536713e-12 3.38045747e-16 0.00000000e+00 0.00000000e+00 7.30536713e-12
6.91830971e-03 8.62321415e-12 8.62267558e-12 5.38570874e-16 0.00000000e+00 0.00000000e+00 8.62267558e-12
7.94328235e-03 1.01783876e-11 1.01775219e-11 8.65719809e-16 1.63002273e-304 2.90148161e-307 1.01775219e-11
9.12010839e-03 1.20141489e-11 1.20127391e-11 1.40977562e-15 7.23716891e-266 2.05046307e-268 1.20127391e-11
1.04712855e-02 1.34186656e-11 1.34165878e-11 2.07780150e-15 3.08834170e-232 7.51612688e-235 1.34165878e-11
1.20226443e-02 1.34210768e-11 1.34165878e-11 4.48895585e-15 4.88344139e-203 1.70012458e-205 1.34165878e-11
1.38038426e-02 1.34206830e-11 1.34165878e-11 4.09515733e-15 1.34166296e-177 6.34502672e-180 1.34165878e-11
1.58489319e-02 1.34226517e-11 1.34165878e-11 6.06387805e-15 1.82881799e-155 1.19409666e-157 1.34165878e-11
1.81970086e-02 1.34244301e-11 1.34165878e-11 7.84226670e-15 3.28478343e-136 2.77407866e-138 1.34165878e-11
2.08929613e-02 1.34283464e-11 1.34165878e-11 1.17585628e-14 1.72969488e-119 2.22706838e-121 1.34165878e-11
2.39883292e-02 1.34328122e-11 1.34165878e-11 1.62244089e-14 6.09355554e-105 8.67142323e-107 1.34165878e-11
2.75422870e-02 1.34387734e-11 1.34165878e-11 2.21855646e-14 2.74304663e-92 4.99447425e-94 1.34165878e-11
3.16227766e-02 1.34433543e-11 1.34165878e-11 2.67664997e-14 2.68935890e-81 6.15053490e-83 1.34165878e-11
3.63078055e-02 1.34468499e-11 1.34165878e-11 3.02620925e-14 9.35881920e-72 2.37250093e-73 1.34165878e-11
4.16869383e-02 1.34602449e-11 1.34165878e-11 4.36570763e-14 1.79146922e-63 6.11443061e-65 1.34165878e-11
4.78630092e-02 1.34790343e-11 1.34165878e-11 6.24464805e-14 2.72690813e-56 1.23703688e-57 1.34165878e-11
5.49540874e-02 1.34931814e-11 1.34165878e-11 7.65935564e-14 4.56183595e-50 2.51340954e-51 1.34165878e-11
6.30957344e-02 1.35113272e-11 1.34165878e-11 9.47394080e-14 1.48465750e-44 9.91715265e-46 1.34165878e-11
7.24435960e-02 1.35099594e-11 1.34165878e-11 9.33715228e-14 8.60123649e-40 5.62792293e-41 1.34165878e-11
8.31763771e-02 1.35114609e-11 1.34165878e-11 9.48730567e-14 8.81352007e-36 5.68402090e-37 1.34165878e-11
9.54992586e-02 1.35125301e-11 1.34165878e-11 9.59422198e-14 2.48637260e-32 1.65086131e-33 1.34165878e-11
1.09647820e-01 1.29131730e-11 1.28127470e-11 1.00426075e-13 2.11003342e-29 1.45101938e-30 1.28127470e-11
1.25892541e-01 1.20431566e-11 1.19575512e-11 8.56054348e-14 6.83423112e-27 4.53389284e-28 1.19575512e-11
1.44543977e-01 1.12355650e-11 1.11594361e-11 7.61288977e-14 9.28909795e-25 5.79828597e-26 1.11594361e-11
1.65958691e-01 1.04913759e-11 1.04145917e-11 7.67841866e-14 4.70412560e-23 3.14697307e-24 1.04145917e-11
1.90546072e-01 9.81065526e-12 9.71946251e-12 9.11927416e-14 9.95173522e-22 8.06120765e-23 9.71946251e-12
2.18776162e-01 9.16217474e-12 9.07073019e-12 9.14445385e-14 1.18092568e-20 1.01633894e-21 9.07073019e-12
2.51188643e-01 8.57182002e-12 8.46529796e-12 1.06521909e-13 1.43348968e-19 1.45340255e-20 8.46529796e-12
2.88403150e-01 7.99794280e-12 7.90027573e-12 9.76658805e-14 1.18982878e-18 1.15791876e-19 7.90027573e-12
3.31131121e-01 7.45901517e-12 7.37296631e-12 8.60420704e-14 6.79814754e-18 6.24964730e-19 7.37296631e-12
3.80189396e-01 6.95873335e-12 6.88085251e-12 7.78524245e-14 2.84152481e-17 2.58293340e-18 6.88085251e-12
4.36515832e-01 6.49136392e-12 6.42158520e-12 6.96880317e-14 9.06832080e-17 8.10726877e-18 6.42158520e-12
5.01187234e-01 6.05893929e-12 5.99297201e-12 6.57317063e-14 2.35571542e-16 2.20297629e-17 5.99297201e-12
5.75439937e-01 5.65498890e-12 5.59296690e-12 6.14752186e-14 5.46779801e-16 5.78581638e-17 5.59296690e-12
6.60693448e-01 5.27687724e-12 5.21966041e-12 5.59557573e-14 1.26106852e-15 1.63230145e-16 5.21966041e-12
7.58577575e-01 4.92516861e-12 4.87127053e-12 5.08017926e-14 3.09628262e-15 4.77890144e-16 4.87127053e-12
8.70963590e-01 4.60101780e-12 4.54613417e-12 4.71021532e-14 7.78147674e-15 1.30956957e-15 4.54613417e-12
1.00000000e+00 4.30137528e-12 4.24269927e-12 4.01838932e-14 1.84921192e-14 3.10662603e-15 4.24269927e-12
1.14815362e+00 4.03404432e-12 3.95951734e-12 3.36445603e-14 4.08824163e-14 6.38885079e-15 3.95951734e-12
1.31825674e+00 3.80601353e-12 3.69523659e-12 2.72661136e-14 8.35108290e-14 1.16156831e-14 3.69523659e-12
1.51356125e+00 3.62433886e-12 3.44859544e-12 2.12833066e-14 1.54460115e-13 1.81973498e-14 3.44859544e-12
1.73780083e+00 3.49208286e-12 3.21841652e-12 1.63869077e-14 2.57279432e-13 2.48905031e-14 3.21841652e-12
1.99526231e+00 3.40228048e-12 3.00360106e-12 1.19868180e-14 3.86692596e-13 2.93890321e-14 3.00360106e-12
2.29086765e+00 3.34279841e-12 2.80312361e-12 8.64131862e-15 5.31033480e-13 3.03376404e-14 2.80312361e-12
2.63026799e+00 3.29283212e-12 2.61602716e-12 6.13647844e-15 6.70668476e-13 2.85358233e-14 2.61602716e-12
3.01995172e+00 3.23824819e-12 2.44141860e-12 4.15007030e-15 7.92679522e-13 2.47444545e-14 2.44141860e-12
3.46736850e+00 3.16430069e-12 2.27846441e-12 2.85168656e-15 8.82984597e-13 2.01121257e-14 2.27846441e-12
3.98107171e+00 3.06225669e-12 2.12638671e-12 1.88036005e-15 9.33989621e-13 1.52396406e-14 2.12638671e-12
4.57088190e+00 2.93454368e-12 1.98445954e-12 1.25436175e-15 9.48829779e-13 1.08639588e-14 1.98445954e-12
5.24807460e+00 2.57596609e-12 1.64084388e-12 7.05763396e-16 9.34416445e-13 7.25385649e-15 1.64084388e-12
6.02559586e+00 1.98890684e-12 1.08409480e-12 2.98991895e-16 9.04513053e-13 4.61929022e-15 1.08409480e-12
6.70000000e+00 1.65659116e-12 7.88574724e-13 1.52058038e-16 8.67864374e-13 3.08354390e-15 7.88574724e-13
6.92422916e+00 1.57031743e-12 7.14418944e-13 1.24987946e-16 8.55773493e-13 2.69628248e-15 7.14418944e-13
7.15596261e+00 1.49567079e-12 6.47236606e-13 9.81362383e-17 8.48336049e-13 2.33689637e-15 6.47236606e-13
7.39545150e+00 1.44406903e-12 5.86371942e-13 7.52718425e-17 8.57621815e-13 2.01769538e-15 5.86371942e-13
7.64295536e+00 1.44471021e-12 5.31230854e-13 5.29075857e-17 9.13426444e-13 1.67828139e-15 5.31230854e-13
7.89874245e+00 1.52336080e-12 4.81275108e-13 3.27931949e-17 1.04205290e-12 1.36118142e-15 4.81275108e-13
8.16308998e+00 1.66695954e-12 4.36017088e-13 1.96069363e-17 1.23092285e-12 1.08400729e-15 4.36017088e-13
8.43628443e+00 1.89492007e-12 3.95015029e-13 1.10510512e-17 1.49989399e-12 8.38226191e-16 3.95015029e-13
8.71862190e+00 2.05192558e-12 3.57868711e-13 6.75212333e-18 1.69405012e-12 6.59907037e-16 3.57868711e-13
9.01040836e+00 2.22969495e-12 3.24215549e-13 4.32547774e-18 1.90547508e-12 4.97317867e-16 3.24215549e-13
9.31196005e+00 2.38356099e-12 2.93727053e-13 0.00000000e+00 2.08983394e-12 0.00000000e+00 2.93727053e-13
9.62360379e+00 2.36306357e-12 2.66105627e-13 0.00000000e+00 2.09695794e-12 0.00000000e+00 2.66105627e-13
9.94567731e+00 2.22965703e-12 2.41081657e-13 0.00000000e+00 1.98857537e-12 0.00000000e+00 2.41081657e-13
1.02785297e+01 2.05996915e-12 2.18410884e-13 0.00000000e+00 1.84155827e-12 0.00000000e+00 2.18410884e-13
1.06225216e+01 1.89786682e-12 1.97872020e-13 0.00000000e+00 1.69999480e-12 0.00000000e+00 1.97872020e-13
1.09780260e+01 1.71186564e-12 1.79264583e-13 0.00000000e+00 1.53260106e-12 0.00000000e+00 1.79264583e-13
1.13454280e+01 1.55289923e-12 1.62406948e-13 0.00000000e+00 1.39049228e-12 0.00000000e+00 1.62406948e-13
1.17251259e+01 1.41634657e-12 1.47134567e-13 0.00000000e+00 1.26921200e-12 0.00000000e+00 1.47134567e-13
1.21175312e+01 1.29553422e-12 1.33298366e-13 0.00000000e+00 1.16223586e-12 0.00000000e+00 1.33298366e-13
1.25230691e+01 1.18403223e-12 1.20763289e-13 0.00000000e+00 1.06326894e-12 0.00000000e+00 1.20763289e-13
1.29421791e+01 1.08955863e-12 1.09406983e-13 0.00000000e+00 9.80151652e-13 0.00000000e+00 1.09406983e-13
1.33753155e+01 1.00702075e-12 9.91185987e-14 0.00000000e+00 9.07902154e-13 0.00000000e+00 9.91185987e-14
1.38229477e+01 9.55498250e-13 8.97977103e-14 0.00000000e+00 8.65700539e-13 0.00000000e+00 8.97977103e-14
1.42855609e+01 9.25360681e-13 8.13533371e-14 0.00000000e+00 8.44007344e-13 0.00000000e+00 8.13533371e-14
1.47636563e+01 9.38799439e-13 7.37030537e-14 0.00000000e+00 8.65096385e-13 0.00000000e+00 7.37030537e-14
1.52577522e+01 9.65369033e-13 6.67721855e-14 0.00000000e+00 8.98596848e-13 0.00000000e+00 6.67721855e-14
1.57683840e+01 9.95522696e-13 6.04930805e-14 0.00000000e+00 9.35029616e-13 0.00000000e+00 6.04930805e-14
1.62961051e+01 1.03158736e-12 5.48044484e-14 0.00000000e+00 9.76782913e-13 0.00000000e+00 5.48044484e-14
1.68414875e+01 1.07096275e-12 4.96507622e-14 0.00000000e+00 1.02131199e-12 0.00000000e+00 4.96507622e-14
1.74051222e+01 1.09445269e-12 4.49817171e-14 0.00000000e+00 1.04947097e-12 0.00000000e+00 4.49817171e-14
1.79876201e+01 1.10940005e-12 4.07517384e-14 0.00000000e+00 1.06864831e-12 0.00000000e+00 4.07517384e-14
1.85896125e+01 1.11058882e-12 3.69195372e-14 0.00000000e+00 1.07366929e-12 0.00000000e+00 3.69195372e-14
1.92117518e+01 1.09483312e-12 3.34477076e-14 0.00000000e+00 1.06138541e-12 0.00000000e+00 3.34477076e-14
1.98547123e+01 1.06633108e-12 3.03023610e-14 0.00000000e+00 1.03602872e-12 0.00000000e+00 3.03023610e-14
2.05191907e+01 1.03742126e-12 2.74527957e-14 0.00000000e+00 1.00996846e-12 0.00000000e+00 2.74527957e-14
2.12059073e+01 1.00976291e-12 2.48711970e-14 0.00000000e+00 9.84891716e-13 0.00000000e+00 2.48711970e-14
2.19156062e+01 9.81744359e-13 2.25323660e-14 0.00000000e+00 9.59211993e-13 0.00000000e+00 2.25323660e-14
2.26490567e+01 9.56167849e-13 2.04134733e-14 0.00000000e+00 9.35754376e-13 0.00000000e+00 2.04134733e-14
2.34070535e+01 9.36171956e-13 1.84938366e-14 0.00000000e+00 9.17678119e-13 0.00000000e+00 1.84938366e-14
2.41904183e+01 9.12636028e-13 1.67547181e-14 0.00000000e+00 8.95881310e-13 0.00000000e+00 1.67547181e-14
2.50000000e+01 8.90504816e-13 1.51791424e-14 0.00000000e+00 8.75325674e-13 0.00000000e+00 1.51791424e-14
2.75422870e+01 8.26971108e-13 1.13518661e-14 0.00000000e+00 8.15619242e-13 0.00000000e+00 1.13518661e-14
3.16227766e+01 7.24359354e-13 7.50010357e-15 0.00000000e+00 7.16859250e-13 0.00000000e+00 7.50010357e-15
3.63078055e+01 6.00936578e-13 4.95526929e-15 0.00000000e+00 5.95981308e-13 0.00000000e+00 4.95526929e-15
4.16869383e+01 4.68336784e-13 3.27391395e-15 0.00000000e+00 4.65062870e-13 0.00000000e+00 3.27391395e-15
4.78630092e+01 3.39301341e-13 2.16305350e-15 0.00000000e+00 3.37138288e-13 0.00000000e+00 2.16305350e-15
5.49540874e+01 2.31660829e-13 1.42911527e-15 0.00000000e+00 2.30231713e-13 0.00000000e+00 1.42911527e-15
6.30957344e+01 1.50276305e-13 9.44207098e-16 0.00000000e+00 1.49332098e-13 0.00000000e+00 9.44207098e-16
7.24435960e+01 9.34092196e-14 6.23831443e-16 0.00000000e+00 9.27853881e-14 0.00000000e+00 6.23831443e-16
8.31763771e+01 5.61155583e-14 4.12161347e-16 0.00000000e+00 5.57033969e-14 0.00000000e+00 4.12161347e-16
9.54992586e+01 3.28397518e-14 2.72312302e-16 0.00000000e+00 3.25674395e-14 0.00000000e+00 2.72312302e-16
1.09647820e+02 1.88243266e-14 1.79914953e-16 0.00000000e+00 1.86444117e-14 0.00000000e+00 1.79914953e-16
1.25892541e+02 1.07319144e-14 1.18868631e-16 0.00000000e+00 1.06130458e-14 0.00000000e+00 1.18868631e-16
1.44543977e+02 6.05807772e-15 7.85357256e-17 0.00000000e+00 5.97954200e-15 0.00000000e+00 7.85357256e-17
1.65958691e+02 3.25216130e-15 5.18880394e-17 0.00000000e+00 3.20027326e-15 0.00000000e+00 5.18880394e-17
1.90546072e+02 1.74261897e-15 3.42820876e-17 0.00000000e+00 1.70833688e-15 0.00000000e+00 3.42820876e-17
2.18776162e+02 9.30288840e-16 2.26499507e-17 0.00000000e+00 9.07638889e-16 0.00000000e+00 2.26499507e-17
2.51188643e+02 4.94318016e-16 1.49646740e-17 0.00000000e+00 4.79353342e-16 0.00000000e+00 1.49646740e-17
2.88403150e+02 2.61335711e-16 9.88706207e-18 0.00000000e+00 2.51448649e-16 0.00000000e+00 9.88706207e-18
3.31131121e+02 1.37819883e-16 6.53231713e-18 0.00000000e+00 1.31287566e-16 0.00000000e+00 6.53231713e-18
3.80189396e+02 7.24989745e-17 4.31585913e-18 0.00000000e+00 6.81831154e-17 0.00000000e+00 4.31585913e-18
4.36515832e+02 3.81249627e-17 2.85145985e-18 0.00000000e+00 3.52735028e-17 0.00000000e+00 2.85145985e-18
5.01187234e+02 2.00610858e-17 1.88394084e-18 0.00000000e+00 1.81771450e-17 0.00000000e+00 1.88394084e-18
5.75439937e+02 1.05814916e-17 1.24470737e-18 0.00000000e+00 9.33678423e-18 0.00000000e+00 1.24470737e-18
6.60693448e+02 5.60485088e-18 8.22370004e-19 0.00000000e+00 4.78248088e-18 0.00000000e+00 8.22370004e-19
7.58577575e+02 2.98708933e-18 5.43334473e-19 0.00000000e+00 2.44375486e-18 0.00000000e+00 5.43334473e-19
8.70963590e+02 1.60474861e-18 3.58977527e-19 0.00000000e+00 1.24577109e-18 0.00000000e+00 3.58977527e-19
1.00000000e+03 6.33693932e-19 0.00000000e+00 0.00000000e+00 6.33693932e-19 0.00000000e+00 0.00000000e+00
