# column 1: lambda (micron)
# column 2: total flux; lambda*F_lambda (W/m2)
# column 3: direct stellar flux; lambda*F_lambda (W/m2)
# column 4: scattered stellar flux; lambda*F_lambda (W/m2)
# column 5: total dust emission flux; lambda*F_lambda (W/m2)
# column 6: dust emission scattered flux; lambda*F_lambda (W/m2)
# column 7: transparent flux; lambda*F_lambda (W/m2)
1.00000000e-03 6.93994799e-13 6.93993746e-13 1.05382526e-18 0.00000000e+00 0.00000000e+00 6.93993746e-13
1.14815362e-03 8.19136700e-13 8.19135139e-13 1.56098292e-18 0.00000000e+00 0.00000000e+00 8.19135139e-13
1.31825674e-03 9.66844582e-13 9.66842108e-13 2.47446173e-18 0.00000000e+00 0.00000000e+00 9.66842108e-13
1.51356125e-03 1.14118751e-12 1.14118369e-12 3.81652822e-18 0.00000000e+00 0.00000000e+00 1.14118369e-12
1.73780083e-03 1.34696978e-12 1.34696266e-12 7.12280547e-18 0.00000000e+00 0.00000000e+00 1.34696266e-12
1.99526231e-03 1.58986054e-12 1.58984782e-12 1.27128115e-17 0.00000000e+00 0.00000000e+00 1.58984782e-12
2.29086765e-03 1.87655047e-12 1.87653019e-12 2.02793140e-17 0.00000000e+00 0.00000000e+00 1.87653019e-12
2.63026799e-03 2.21494855e-12 2.21490731e-12 4.12423192e-17 0.00000000e+00 0.00000000e+00 2.21490731e-12
3.01995172e-03 2.61437237e-12 2.61430080e-12 7.15668806e-17 0.00000000e+00 0.00000000e+00 2.61430080e-12
3.46736850e-03 3.08582719e-12 3.08571319e-12 1.13997905e-16 0.00000000e+00 0.00000000e+00 3.08571319e-12
3.98107171e-03 3.64231587e-12 3.64213095e-12 1.84919907e-16 0.00000000e+00 0.00000000e+00 3.64213095e-12
4.57088190e-03 4.29925852e-12 4.29888232e-12 3.76205091e-16 0.00000000e+00 0.00000000e+00 4.29888232e-12
5.24807460e-03 5.07477181e-12 5.07405951e-12 7.12298704e-16 0.00000000e+00 0.00000000e+00 5.07405951e-12
6.02559586e-03 5.99032769e-12 5.98901715e-12 1.31054487e-15 0.00000000e+00 0.00000000e+00 5.98901715e-12
6.91830971e-03 7.07104820e-12 7.06896053e-12 2.08767515e-15 0.00000000e+00 0.00000000e+00 7.06896053e-12
7.94328235e-03 8.34733405e-12 8.34363998e-12 3.69406865e-15 0.00000000e+00 0.00000000e+00 8.34363998e-12
9.12010839e-03 9.85390100e-12 9.84817045e-12 5.73055741e-15 0.00000000e+00 0.00000000e+00 9.84817045e-12
1.04712855e-02 1.10079602e-11 1.09990604e-11 8.89975337e-15 0.00000000e+00 0.00000000e+00 1.09990604e-11
1.20226443e-02 1.10126713e-11 1.09990604e-11 1.36108121e-14 0.00000000e+00 0.00000000e+00 1.09990604e-11
1.38038426e-02 1.10194595e-11 1.09990604e-11 2.03990643e-14 4.33350553e-279 2.58343741e-281 1.09990604e-11
1.58489319e-02 1.10275642e-11 1.09990604e-11 2.85037739e-14 4.67328229e-244 4.62175116e-246 1.09990604e-11
1.81970086e-02 1.10341422e-11 1.09990604e-11 3.50817336e-14 1.44433249e-213 1.73394733e-215 1.09990604e-11
2.08929613e-02 1.10530278e-11 1.09990604e-11 5.39673210e-14 4.66530859e-187 7.61314371e-189 1.09990604e-11
2.39883292e-02 1.10675349e-11 1.09990604e-11 6.84744342e-14 5.54643957e-164 1.23929772e-165 1.09990604e-11
2.75422870e-02 1.10893910e-11 1.09990604e-11 9.03305269e-14 6.69065305e-144 1.91833483e-145 1.09990604e-11
3.16227766e-02 1.11077782e-11 1.09990604e-11 1.08717789e-13 1.93768495e-126 6.81824259e-128 1.09990604e-11
3.63078055e-02 1.11253316e-11 1.09990604e-11 1.26271115e-13 2.91831110e-111 1.16628472e-112 1.09990604e-11
4.16869383e-02 1.11599111e-11 1.09990604e-11 1.60850668e-13 4.54993061e-98 2.42527060e-99 1.09990604e-11
4.78630092e-02 1.12073737e-11 1.09990604e-11 2.08313206e-13 1.31376119e-86 8.83311088e-88 1.09990604e-11
5.49540874e-02 1.12324958e-11 1.09990604e-11 2.33435368e-13 1.17796894e-76 9.25398321e-78 1.09990604e-11
6.30957344e-02 1.12533364e-11 1.09990604e-11 2.54275975e-13 6.96934091e-68 6.42615498e-69 1.09990604e-11
7.24435960e-02 1.12398954e-11 1.09990604e-11 2.40834958e-13 2.98464057e-60 2.87315865e-61 1.09990604e-11
8.31763771e-02 1.12269051e-11 1.09990604e-11 2.27844607e-13 1.12215758e-53 1.23897901e-54 1.09990604e-11
9.54992586e-02 1.12367442e-11 1.09990604e-11 2.37683790e-13 6.87521810e-48 9.60316162e-49 1.09990604e-11
1.09647820e-01 1.07437188e-11 1.05040253e-11 2.39693455e-13 8.20117022e-43 1.44714197e-43 1.05040253e-11
1.25892541e-01 1.00317999e-11 9.80292679e-12 2.28873125e-13 2.33726103e-38 4.48348087e-39 9.80292679e-12
1.44543977e-01 9.35581060e-12 9.14862359e-12 2.07187005e-13 1.75478211e-34 3.48892125e-35 9.14862359e-12
1.65958691e-01 8.74842902e-12 8.53799231e-12 2.10436705e-13 3.19310864e-31 7.17415399e-32 8.53799231e-12
1.90546072e-01 8.19045945e-12 7.96811805e-12 2.22341401e-13 1.56470426e-28 4.21110602e-29 7.96811805e-12
2.18776162e-01 7.64728981e-12 7.43628044e-12 2.11009371e-13 2.85059219e-26 8.22908202e-27 7.43628044e-12
2.51188643e-01 7.17392091e-12 6.93994070e-12 2.33980213e-13 4.51595079e-24 1.52517638e-24 6.93994070e-12
2.88403150e-01 6.68932311e-12 6.47672950e-12 2.12593610e-13 3.48995060e-22 1.17254041e-22 6.47672950e-12
3.31131121e-01 6.23947201e-12 6.04443567e-12 1.95036326e-13 1.41779696e-20 4.70881848e-21 6.04443567e-12
3.80189396e-01 5.81608337e-12 5.64099558e-12 1.75087455e-13 3.35734613e-19 1.09273825e-19 5.64099558e-12
4.36515832e-01 5.42653496e-12 5.26448339e-12 1.62046607e-13 4.96997792e-18 1.59212988e-18 5.26448339e-12
5.01187234e-01 5.05897513e-12 4.91310176e-12 1.45824825e-13 4.85472007e-17 1.52607360e-17 4.91310176e-12
5.75439937e-01 4.71775141e-12 4.58517335e-12 1.32246390e-13 3.31665756e-16 1.01982737e-16 4.58517335e-12
6.60693448e-01 4.39656604e-12 4.27913275e-12 1.15771453e-13 1.66183412e-15 4.93443575e-16 4.27913275e-12
7.58577575e-01 4.10476224e-12 3.99351904e-12 1.04727164e-13 6.51603872e-15 1.85153117e-15 3.99351904e-12
8.70963590e-01 3.83951412e-12 3.72696882e-12 9.20523224e-14 2.04929813e-14 5.43664994e-15 3.72696882e-12
1.00000000e+00 3.60960815e-12 3.47820968e-12 7.79040806e-14 5.34943893e-14 1.29724972e-14 3.47820968e-12
1.14815362e+00 3.43246454e-12 3.24605414e-12 6.42001802e-14 1.22210215e-13 2.62822659e-14 3.24605414e-12
1.31825674e+00 3.33081811e-12 3.02939399e-12 5.30193910e-14 2.48404734e-13 4.59088949e-14 3.02939399e-12
1.51356125e+00 3.32188683e-12 2.82719497e-12 4.20004053e-14 4.52691450e-13 6.99393357e-14 2.82719497e-12
1.73780083e+00 3.41000855e-12 2.63849186e-12 3.26293875e-14 7.38887294e-13 9.23188358e-14 2.63849186e-12
1.99526231e+00 3.57192835e-12 2.46238388e-12 2.40826277e-14 1.08546184e-12 1.05550834e-13 2.46238388e-12
2.29086765e+00 3.77098979e-12 2.29803035e-12 1.76094488e-14 1.45535000e-12 1.07338228e-13 2.29803035e-12
2.63026799e+00 3.95857030e-12 2.14464670e-12 1.22678786e-14 1.80165572e-12 9.82498015e-14 2.14464670e-12
3.01995172e+00 4.10103100e-12 2.00150076e-12 8.58163030e-15 2.09094861e-12 8.25871105e-14 2.00150076e-12
3.46736850e+00 4.17330210e-12 1.86790919e-12 6.03859516e-15 2.29935431e-12 6.60038914e-14 1.86790919e-12
3.98107171e+00 4.15681377e-12 1.74323429e-12 3.95684121e-15 2.40962264e-12 4.93016833e-14 1.74323429e-12
4.57088190e+00 4.06185288e-12 1.62688090e-12 2.59614588e-15 2.43237584e-12 3.49548785e-14 1.62688090e-12
5.24807460e+00 3.73676234e-12 1.34518114e-12 1.47820623e-15 2.39010299e-12 2.33029755e-14 1.34518114e-12
6.02559586e+00 3.20252800e-12 8.88752369e-13 6.39461071e-16 2.31313617e-12 1.47651574e-14 8.88752369e-13
6.70000000e+00 2.87896225e-12 6.46481889e-13 3.21702078e-16 2.23215866e-12 9.97765183e-15 6.46481889e-13
6.92422916e+00 2.78723092e-12 5.85688198e-13 2.61540853e-16 2.20128118e-12 8.74909225e-15 5.85688198e-13
7.15596261e+00 2.71389105e-12 5.30611407e-13 2.06218842e-16 2.18307342e-12 7.54804954e-15 5.30611407e-13
7.39545150e+00 2.68546002e-12 4.80713913e-13 1.56414218e-16 2.20458969e-12 6.44284452e-15 4.80713913e-13
7.64295536e+00 2.76399332e-12 4.35508666e-13 1.10677448e-16 2.32837398e-12 5.44590508e-15 4.35508666e-13
7.89874245e+00 3.01733194e-12 3.94554418e-13 6.89072586e-17 2.62270862e-12 4.35841832e-15 3.94554418e-13
8.16308998e+00 3.38466989e-12 3.57451415e-13 4.09671047e-17 3.02717751e-12 3.42197745e-15 3.57451415e-13
8.43628443e+00 3.92329448e-12 3.23837494e-13 2.25611482e-17 3.59943442e-12 2.60711834e-15 3.23837494e-13
8.71862190e+00 4.29126693e-12 2.93384550e-13 1.41569048e-17 3.99786822e-12 2.04764713e-15 2.93384550e-13
9.01040836e+00 4.70105015e-12 2.65795332e-13 8.63516189e-18 4.43524619e-12 1.55791800e-15 2.65795332e-13
9.31196005e+00 4.98484193e-12 2.40800541e-13 0.00000000e+00 4.74404138e-12 0.00000000e+00 2.40800541e-13
9.62360379e+00 4.97241730e-12 2.18156204e-13 0.00000000e+00 4.75426109e-12 0.00000000e+00 2.18156204e-13
9.94567731e+00 4.70114721e-12 1.97641289e-13 0.00000000e+00 4.50350593e-12 0.00000000e+00 1.97641289e-13
1.02785297e+01 4.39223352e-12 1.79055550e-13 0.00000000e+00 4.21317797e-12 0.00000000e+00 1.79055550e-13
1.06225216e+01 4.09922273e-12 1.62217572e-13 0.00000000e+00 3.93700516e-12 0.00000000e+00 1.62217572e-13
1.09780260e+01 3.74075185e-12 1.46962999e-13 0.00000000e+00 3.59378885e-12 0.00000000e+00 1.46962999e-13
1.13454280e+01 3.44123136e-12 1.33142932e-13 0.00000000e+00 3.30808842e-12 0.00000000e+00 1.33142932e-13
1.17251259e+01 3.18659807e-12 1.20622472e-13 0.00000000e+00 3.06597559e-12 0.00000000e+00 1.20622472e-13
1.21175312e+01 2.95224405e-12 1.09279408e-13 0.00000000e+00 2.84296464e-12 0.00000000e+00 1.09279408e-13
1.25230691e+01 2.74496543e-12 9.90030204e-14 0.00000000e+00 2.64596241e-12 0.00000000e+00 9.90030204e-14
1.29421791e+01 2.56061409e-12 8.96930008e-14 0.00000000e+00 2.47092109e-12 0.00000000e+00 8.96930008e-14
1.33753155e+01 2.39989539e-12 8.12584743e-14 0.00000000e+00 2.31863692e-12 0.00000000e+00 8.12584743e-14
1.38229477e+01 2.30851579e-12 7.36171115e-14 0.00000000e+00 2.23489868e-12 0.00000000e+00 7.36171115e-14
1.42855609e+01 2.26951573e-12 6.66943252e-14 0.00000000e+00 2.20282140e-12 0.00000000e+00 6.66943252e-14
1.47636563e+01 2.31616607e-12 6.04225420e-14 0.00000000e+00 2.25574353e-12 0.00000000e+00 6.04225420e-14
1.52577522e+01 2.38250585e-12 5.47405431e-14 0.00000000e+00 2.32776530e-12 0.00000000e+00 5.47405431e-14
1.57683840e+01 2.46695144e-12 4.95928665e-14 0.00000000e+00 2.41735857e-12 0.00000000e+00 4.95928665e-14
1.62961051e+01 2.56395574e-12 4.49292657e-14 0.00000000e+00 2.51902648e-12 0.00000000e+00 4.49292657e-14
1.68414875e+01 2.66096167e-12 4.07042194e-14 0.00000000e+00 2.62025745e-12 0.00000000e+00 4.07042194e-14
1.74051222e+01 2.72129555e-12 3.68764869e-14 0.00000000e+00 2.68441906e-12 0.00000000e+00 3.68764869e-14
1.79876201e+01 2.76533562e-12 3.34087056e-14 0.00000000e+00 2.73192691e-12 0.00000000e+00 3.34087056e-14
1.85896125e+01 2.77025241e-12 3.02670267e-14 0.00000000e+00 2.73998539e-12 0.00000000e+00 3.02670267e-14
1.92117518e+01 2.74949749e-12 2.74207841e-14 0.00000000e+00 2.72207670e-12 0.00000000e+00 2.74207841e-14
1.98547123e+01 2.70220561e-12 2.48421957e-14 0.00000000e+00 2.67736341e-12 0.00000000e+00 2.48421957e-14
2.05191907e+01 2.64783925e-12 2.25060919e-14 0.00000000e+00 2.62533315e-12 0.00000000e+00 2.25060919e-14
2.12059073e+01 2.58490793e-12 2.03896700e-14 0.00000000e+00 2.56451826e-12 0.00000000e+00 2.03896700e-14
2.19156062e+01 2.53870406e-12 1.84722717e-14 0.00000000e+00 2.52023179e-12 0.00000000e+00 1.84722717e-14
2.26490567e+01 2.48625493e-12 1.67351811e-14 0.00000000e+00 2.46951975e-12 0.00000000e+00 1.67351811e-14
2.34070535e+01 2.42992930e-12 1.51614426e-14 0.00000000e+00 2.41476786e-12 0.00000000e+00 1.51614426e-14
2.41904183e+01 2.38618854e-12 1.37356949e-14 0.00000000e+00 2.37245285e-12 0.00000000e+00 1.37356949e-14
2.50000000e+01 2.33468502e-12 1.24440213e-14 0.00000000e+00 2.32224100e-12 0.00000000e+00 1.24440213e-14
2.75422870e+01 2.15626572e-12 9.30637977e-15 0.00000000e+00 2.14695934e-12 0.00000000e+00 9.30637977e-15
3.16227766e+01 1.85500335e-12 6.14866414e-15 0.00000000e+00 1.84885469e-12 0.00000000e+00 6.14866414e-15
3.63078055e+01 1.50364797e-12 4.06238211e-15 0.00000000e+00 1.49958558e-12 0.00000000e+00 4.06238211e-15
4.16869383e+01 1.13389461e-12 2.68398924e-15 0.00000000e+00 1.13121062e-12 0.00000000e+00 2.68398924e-15
4.78630092e+01 7.95931411e-13 1.77329411e-15 0.00000000e+00 7.94158117e-13 0.00000000e+00 1.77329411e-15
5.49540874e+01 5.24392820e-13 1.17160380e-15 0.00000000e+00 5.23221216e-13 0.00000000e+00 1.17160380e-15
6.30957344e+01 3.28682210e-13 7.74070953e-16 0.00000000e+00 3.27908139e-13 0.00000000e+00 7.74070953e-16
7.24435960e+01 1.97546605e-13 5.11423607e-16 0.00000000e+00 1.97035181e-13 0.00000000e+00 5.11423607e-16
8.31763771e+01 1.15109557e-13 3.37894226e-16 0.00000000e+00 1.14771662e-13 0.00000000e+00 3.37894226e-16
9.54992586e+01 6.54943160e-14 2.23244502e-16 0.00000000e+00 6.52710715e-14 0.00000000e+00 2.23244502e-16
1.09647820e+02 3.66313721e-14 1.47496179e-16 0.00000000e+00 3.64838759e-14 0.00000000e+00 1.47496179e-16
1.25892541e+02 2.04321641e-14 9.74497594e-17 0.00000000e+00 2.03347143e-14 0.00000000e+00 9.74497594e-17
1.44543977e+02 1.13112673e-14 6.43844175e-17 0.00000000e+00 1.12468829e-14 0.00000000e+00 6.43844175e-17
1.65958691e+02 5.96417806e-15 4.25383628e-17 0.00000000e+00 5.92163970e-15 0.00000000e+00 4.25383628e-17
1.90546072e+02 3.14454204e-15 2.81048176e-17 0.00000000e+00 3.11643723e-15 0.00000000e+00 2.81048176e-17
2.18776162e+02 1.65435650e-15 1.85686688e-17 0.00000000e+00 1.63578783e-15 0.00000000e+00 1.85686688e-17
2.51188643e+02 8.67196745e-16 1.22681978e-17 0.00000000e+00 8.54928547e-16 0.00000000e+00 1.22681978e-17
2.88403150e+02 4.52493791e-16 8.10551794e-18 0.00000000e+00 4.44388273e-16 0.00000000e+00 8.10551794e-18
3.31131121e+02 2.35585554e-16 5.35526259e-18 0.00000000e+00 2.30230291e-16 0.00000000e+00 5.35526259e-18
3.80189396e+02 1.22304148e-16 3.53818691e-18 0.00000000e+00 1.18765961e-16 0.00000000e+00 3.53818691e-18
4.36515832e+02 6.34248314e-17 2.33765691e-18 0.00000000e+00 6.10871745e-17 0.00000000e+00 2.33765691e-18
5.01187234e+02 3.28671255e-17 1.54447460e-18 0.00000000e+00 3.13226509e-17 0.00000000e+00 1.54447460e-18
5.75439937e+02 1.70402091e-17 1.02042425e-18 0.00000000e+00 1.60197849e-17 0.00000000e+00 1.02042425e-18
6.60693448e+02 8.84932743e-18 6.74187617e-19 0.00000000e+00 8.17513981e-18 0.00000000e+00 6.74187617e-19
7.58577575e+02 4.60930567e-18 4.45431341e-19 0.00000000e+00 4.16387433e-18 0.00000000e+00 4.45431341e-19
8.70963590e+02 2.41103679e-18 2.94293569e-19 0.00000000e+00 2.11674322e-18 0.00000000e+00 2.94293569e-19
1.00000000e+03 1.07414115e-18 0.00000000e+00 0.00000000e+00 1.07414115e-18 0.00000000e+00 0.00000000e+00
