# column 1: lambda (micron)
# column 2: total flux; lambda*F_lambda (W/m2)
# column 3: direct stellar flux; lambda*F_lambda (W/m2)
# column 4: scattered stellar flux; lambda*F_lambda (W/m2)
# column 5: total dust emission flux; lambda*F_lambda (W/m2)
# column 6: dust emission scattered flux; lambda*F_lambda (W/m2)
# column 7: transparent flux; lambda*F_lambda (W/m2)
1.00000000e-03 1.07335690e-12 1.07335627e-12 6.27506005e-19 0.00000000e+00 0.00000000e+00 1.07335627e-12
1.14815362e-03 1.26690552e-12 1.26690456e-12 9.65999120e-19 0.00000000e+00 0.00000000e+00 1.26690456e-12
1.31825674e-03 1.49535506e-12 1.49535359e-12 1.47299725e-18 0.00000000e+00 0.00000000e+00 1.49535359e-12
1.51356125e-03 1.76499898e-12 1.76499670e-12 2.28188823e-18 0.00000000e+00 0.00000000e+00 1.76499670e-12
1.73780083e-03 2.08326616e-12 2.08326203e-12 4.13785357e-18 0.00000000e+00 0.00000000e+00 2.08326203e-12
1.99526231e-03 2.45892451e-12 2.45891716e-12 7.34890975e-18 0.00000000e+00 0.00000000e+00 2.45891716e-12
2.29086765e-03 2.90232194e-12 2.90231066e-12 1.12703603e-17 0.00000000e+00 0.00000000e+00 2.90231066e-12
2.63026799e-03 3.42568015e-12 3.42565717e-12 2.29831067e-17 0.00000000e+00 0.00000000e+00 3.42565717e-12
3.01995172e-03 4.04341163e-12 4.04337385e-12 3.77847860e-17 0.00000000e+00 0.00000000e+00 4.04337385e-12
3.46736850e-03 4.77254549e-12 4.77247759e-12 6.79037404e-17 0.00000000e+00 0.00000000e+00 4.77247759e-12
3.98107171e-03 5.63315222e-12 5.63305378e-12 9.84364027e-17 0.00000000e+00 0.00000000e+00 5.63305378e-12
4.57088190e-03 6.64903296e-12 6.64880962e-12 2.23337235e-16 0.00000000e+00 0.00000000e+00 6.64880962e-12
5.24807460e-03 7.84813621e-12 7.84772720e-12 4.09008060e-16 0.00000000e+00 0.00000000e+00 7.84772720e-12
6.02559586e-03 9.26357215e-12 9.26283435e-12 7.37793359e-16 0.00000000e+00 0.00000000e+00 9.26283435e-12
6.91830971e-03 1.09342643e-11 1.09331145e-11 1.14979193e-15 0.00000000e+00 0.00000000e+00 1.09331145e-11
7.94328235e-03 1.29064788e-11 1.29045807e-11 1.89807599e-15 1.80965374e-303 4.94081675e-306 1.29045807e-11
9.12010839e-03 1.52345114e-11 1.52315429e-11 2.96855151e-15 7.91429438e-265 3.24733201e-267 1.52315429e-11
1.04712855e-02 1.70156505e-11 1.70115517e-11 4.09881785e-15 3.33035038e-231 1.02820966e-233 1.70115517e-11
1.20226443e-02 1.70196578e-11 1.70115517e-11 8.10611316e-15 5.21234258e-202 2.93408317e-204 1.70115517e-11
1.38038426e-02 1.70250981e-11 1.70115517e-11 1.35463462e-14 1.41544214e-176 7.66100029e-179 1.70115517e-11
1.58489319e-02 1.70290034e-11 1.70115517e-11 1.74516898e-14 1.91321877e-154 1.46271069e-156 1.70115517e-11
1.81970086e-02 1.70340972e-11 1.70115517e-11 2.25454647e-14 3.41082912e-135 3.36446168e-137 1.70115517e-11
2.08929613e-02 1.70397828e-11 1.70115517e-11 2.82311193e-14 1.78154726e-118 2.27388619e-120 1.70115517e-11
2.39883292e-02 1.70509418e-11 1.70115517e-11 3.93900579e-14 6.25414888e-104 1.02771487e-105 1.70115517e-11
2.75422870e-02 1.70600942e-11 1.70115517e-11 4.85424678e-14 2.80270458e-91 5.87508369e-93 1.70115517e-11
3.16227766e-02 1.70723579e-11 1.70115517e-11 6.08061671e-14 2.73643093e-80 7.02235765e-82 1.70115517e-11
3.63078055e-02 1.70811834e-11 1.70115517e-11 6.96316787e-14 9.49625449e-71 2.77756130e-72 1.70115517e-11
4.16869383e-02 1.71100535e-11 1.70115517e-11 9.85017405e-14 1.81499292e-62 7.19145500e-64 1.70115517e-11
4.78630092e-02 1.71418935e-11 1.70115517e-11 1.30341829e-13 2.76240695e-55 1.46620716e-56 1.70115517e-11
5.49540874e-02 1.71806017e-11 1.70115517e-11 1.69049993e-13 4.62278459e-49 3.02535114e-50 1.70115517e-11
6.30957344e-02 1.72159810e-11 1.70115517e-11 2.04429265e-13 1.50324958e-43 1.16617848e-44 1.70115517e-11
7.24435960e-02 1.72086635e-11 1.70115517e-11 1.97111825e-13 8.68635230e-39 6.48857840e-40 1.70115517e-11
8.31763771e-02 1.72107935e-11 1.70115517e-11 1.99241734e-13 8.88706426e-35 6.57670740e-36 1.70115517e-11
9.54992586e-02 1.72159470e-11 1.70115517e-11 2.04395263e-13 2.50836453e-31 1.94882817e-32 1.70115517e-11
1.09647820e-01 1.64588767e-11 1.62459122e-11 2.12964593e-13 2.13123153e-28 1.76864838e-29 1.62459122e-11
1.25892541e-01 1.53490904e-11 1.51615674e-11 1.87523019e-13 6.88418907e-26 5.50203447e-27 1.51615674e-11
1.44543977e-01 1.43195186e-11 1.41495980e-11 1.69920586e-13 9.35161246e-24 7.20003265e-25 1.41495980e-11
1.65958691e-01 1.33837574e-11 1.32051732e-11 1.78584198e-13 4.74858061e-22 4.03537758e-23 1.32051732e-11
1.90546072e-01 1.25286458e-11 1.23237846e-11 2.04861119e-13 1.00766609e-20 1.02797905e-21 1.23237846e-11
2.18776162e-01 1.17090909e-11 1.15012250e-11 2.07865751e-13 1.19852587e-19 1.30840024e-20 1.15012250e-11
2.51188643e-01 1.09759187e-11 1.07335677e-11 2.42349518e-13 1.46760464e-18 1.94801174e-19 1.07335677e-11
2.88403150e-01 1.02372018e-11 1.00171482e-11 2.20041364e-13 1.21704905e-17 1.56860328e-18 1.00171482e-11
3.31131121e-01 9.55086726e-12 9.34854667e-12 2.02251074e-13 6.95111919e-17 8.63380572e-18 9.34854667e-12
3.80189396e-01 8.90984044e-12 8.72457139e-12 1.84979538e-13 2.89513994e-16 3.52123446e-17 8.72457139e-12
4.36515832e-01 8.31036782e-12 8.14224377e-12 1.67204215e-13 9.19836943e-16 1.11362166e-16 8.14224377e-12
5.01187234e-01 7.76055703e-12 7.59878402e-12 1.59426936e-13 2.34607852e-15 2.93901798e-16 7.59878402e-12
5.75439937e-01 7.24225986e-12 7.09159786e-12 1.45519956e-13 5.14203869e-15 6.88520471e-16 7.09159786e-12
6.60693448e-01 6.76553323e-12 6.61826421e-12 1.36632978e-13 1.06360490e-14 1.63566198e-15 6.61826421e-12
7.58577575e-01 6.32577813e-12 6.17652353e-12 1.26615818e-13 2.26387774e-14 4.13316614e-15 6.17652353e-12
8.70963590e-01 5.92839572e-12 5.76426715e-12 1.13679449e-13 5.04491179e-14 1.02222046e-14 5.76426715e-12
1.00000000e+00 5.58653905e-12 5.37952711e-12 9.67613206e-14 1.10250619e-13 2.27074102e-14 5.37952711e-12
1.14815362e+00 5.33462849e-12 5.02046681e-12 8.18493412e-14 2.32312337e-13 4.50805111e-14 5.02046681e-12
1.31825674e+00 5.20586475e-12 4.68537225e-12 6.64275924e-14 4.54064915e-13 7.87723600e-14 4.68537225e-12
1.51356125e+00 5.23263693e-12 4.37264380e-12 5.25771040e-14 8.07416023e-13 1.20345712e-13 4.37264380e-12
1.73780083e+00 5.40946193e-12 4.08078863e-12 3.91866857e-14 1.28948662e-12 1.59688777e-13 4.08078863e-12
1.99526231e+00 5.68712507e-12 3.80841354e-12 2.97253866e-14 1.84898615e-12 1.84257710e-13 3.80841354e-12
2.29086765e+00 5.97804372e-12 3.55421832e-12 2.10869506e-14 2.40273845e-12 1.86253077e-13 3.55421832e-12
2.63026799e+00 6.21226031e-12 3.31698953e-12 1.52021366e-14 2.88006864e-12 1.70861758e-13 3.31698953e-12
3.01995172e+00 6.31010613e-12 3.09559474e-12 1.08154001e-14 3.20369598e-12 1.43354075e-13 3.09559474e-12
3.46736850e+00 6.28417674e-12 2.88897711e-12 7.55555424e-15 3.38764408e-12 1.13859904e-13 2.88897711e-12
3.98107171e+00 6.10510802e-12 2.69615031e-12 5.14897968e-15 3.40380873e-12 8.37415166e-14 2.69615031e-12
4.57088190e+00 5.81124822e-12 2.51619387e-12 3.43336106e-15 3.29162098e-12 5.75769291e-14 2.51619387e-12
5.24807460e+00 5.18765868e-12 2.08050667e-12 1.94748857e-15 3.10520452e-12 3.72329826e-14 2.08050667e-12
6.02559586e+00 4.26157832e-12 1.37457712e-12 8.53713712e-16 2.88614748e-12 2.29153469e-14 1.37457712e-12
6.70000000e+00 3.70707701e-12 9.99872685e-13 4.40445719e-16 2.70676388e-12 1.50951040e-14 9.99872685e-13
6.92422916e+00 3.55757658e-12 9.05846924e-13 3.62282825e-16 2.65136737e-12 1.30786150e-14 9.05846924e-13
7.15596261e+00 3.43418341e-12 8.20663132e-13 2.85509800e-16 2.61323477e-12 1.13731065e-14 8.20663132e-13
7.39545150e+00 3.37146022e-12 7.43489831e-13 2.17347852e-16 2.62775305e-12 9.66516165e-15 7.43489831e-13
7.64295536e+00 3.47012844e-12 6.73573732e-13 1.49883697e-16 2.79640483e-12 8.10594104e-15 6.73573732e-13
7.89874245e+00 3.78809632e-12 6.10232385e-13 9.36010046e-17 3.17777034e-12 6.49801940e-15 6.10232385e-13
8.16308998e+00 4.24531354e-12 5.52847515e-13 5.31343946e-17 3.69241289e-12 5.12236027e-15 5.52847515e-13
8.43628443e+00 4.89193442e-12 5.00858987e-13 2.93081243e-17 4.39104612e-12 3.88767132e-15 5.00858987e-13
8.71862190e+00 5.29736965e-12 4.53759343e-13 1.87817154e-17 4.84359153e-12 3.08022614e-15 4.53759343e-13
9.01040836e+00 5.71844879e-12 4.11088843e-13 1.20412277e-17 5.30734790e-12 2.38421962e-15 4.11088843e-13
9.31196005e+00 5.99319973e-12 3.72430980e-13 0.00000000e+00 5.62076875e-12 0.00000000e+00 3.72430980e-13
9.62360379e+00 5.91189156e-12 3.37408415e-13 0.00000000e+00 5.57448315e-12 0.00000000e+00 3.37408415e-13
9.94567731e+00 5.55946993e-12 3.05679292e-13 0.00000000e+00 5.25379064e-12 0.00000000e+00 3.05679292e-13
1.02785297e+01 5.17086029e-12 2.76933904e-13 0.00000000e+00 4.89392639e-12 0.00000000e+00 2.76933904e-13
1.06225216e+01 4.78700151e-12 2.50891667e-13 0.00000000e+00 4.53610984e-12 0.00000000e+00 2.50891667e-13
1.09780260e+01 4.35820150e-12 2.27298384e-13 0.00000000e+00 4.13090312e-12 0.00000000e+00 2.27298384e-13
1.13454280e+01 3.97504496e-12 2.05923759e-13 0.00000000e+00 3.76912120e-12 0.00000000e+00 2.05923759e-13
1.17251259e+01 3.66222602e-12 1.86559155e-13 0.00000000e+00 3.47566687e-12 0.00000000e+00 1.86559155e-13
1.21175312e+01 3.39125031e-12 1.69015555e-13 0.00000000e+00 3.22223476e-12 0.00000000e+00 1.69015555e-13
1.25230691e+01 3.11687747e-12 1.53121715e-13 0.00000000e+00 2.96375575e-12 0.00000000e+00 1.53121715e-13
1.29421791e+01 2.90305194e-12 1.38722496e-13 0.00000000e+00 2.76432945e-12 0.00000000e+00 1.38722496e-13
1.33753155e+01 2.71360004e-12 1.25677347e-13 0.00000000e+00 2.58792270e-12 0.00000000e+00 1.25677347e-13
1.38229477e+01 2.58358014e-12 1.13858934e-13 0.00000000e+00 2.46972120e-12 0.00000000e+00 1.13858934e-13
1.42855609e+01 2.52705618e-12 1.03151898e-13 0.00000000e+00 2.42390428e-12 0.00000000e+00 1.03151898e-13
1.47636563e+01 2.57472029e-12 9.34517274e-14 0.00000000e+00 2.48126856e-12 0.00000000e+00 9.34517274e-14
1.52577522e+01 2.64715018e-12 8.46637387e-14 0.00000000e+00 2.56248644e-12 0.00000000e+00 8.46637387e-14
1.57683840e+01 2.73341320e-12 7.67021526e-14 0.00000000e+00 2.65671105e-12 0.00000000e+00 7.67021526e-14
1.62961051e+01 2.83547075e-12 6.94892560e-14 0.00000000e+00 2.76598149e-12 0.00000000e+00 6.94892560e-14
1.68414875e+01 2.92701242e-12 6.29546439e-14 0.00000000e+00 2.86405778e-12 0.00000000e+00 6.29546439e-14
1.74051222e+01 2.99061537e-12 5.70345319e-14 0.00000000e+00 2.93358084e-12 0.00000000e+00 5.70345319e-14
1.79876201e+01 3.04719302e-12 5.16711337e-14 0.00000000e+00 2.99552189e-12 0.00000000e+00 5.16711337e-14
1.85896125e+01 3.05299166e-12 4.68120974e-14 0.00000000e+00 3.00617956e-12 0.00000000e+00 4.68120974e-14
1.92117518e+01 3.01086520e-12 4.24099939e-14 0.00000000e+00 2.96845520e-12 0.00000000e+00 4.24099939e-14
1.98547123e+01 2.96745641e-12 3.84218542e-14 0.00000000e+00 2.92903456e-12 0.00000000e+00 3.84218542e-14
2.05191907e+01 2.90193353e-12 3.48087501e-14 0.00000000e+00 2.86712478e-12 0.00000000e+00 3.48087501e-14
2.12059073e+01 2.83711413e-12 3.15354141e-14 0.00000000e+00 2.80557872e-12 0.00000000e+00 3.15354141e-14
2.19156062e+01 2.78898655e-12 2.85698952e-14 0.00000000e+00 2.76041665e-12 0.00000000e+00 2.85698952e-14
2.26490567e+01 2.72535366e-12 2.58832470e-14 0.00000000e+00 2.69947042e-12 0.00000000e+00 2.58832470e-14
2.34070535e+01 2.66701504e-12 2.34492452e-14 0.00000000e+00 2.64356579e-12 0.00000000e+00 2.34492452e-14
2.41904183e+01 2.61072019e-12 2.12441313e-14 0.00000000e+00 2.58947605e-12 0.00000000e+00 2.12441313e-14
2.50000000e+01 2.55475368e-12 1.92463813e-14 0.00000000e+00 2.53550730e-12 0.00000000e+00 1.92463813e-14
2.75422870e+01 2.36842658e-12 1.43935895e-14 0.00000000e+00 2.35403299e-12 0.00000000e+00 1.43935895e-14
3.16227766e+01 2.04319017e-12 9.50975027e-15 0.00000000e+00 2.03368042e-12 0.00000000e+00 9.50975027e-15
3.63078055e+01 1.66102035e-12 6.28302969e-15 0.00000000e+00 1.65473732e-12 0.00000000e+00 6.28302969e-15
4.16869383e+01 1.25742656e-12 4.15115655e-15 0.00000000e+00 1.25327540e-12 0.00000000e+00 4.15115655e-15
4.78630092e+01 8.85370770e-13 2.74264194e-15 0.00000000e+00 8.82628128e-13 0.00000000e+00 2.74264194e-15
5.49540874e+01 5.85347793e-13 1.81204556e-15 0.00000000e+00 5.83535747e-13 0.00000000e+00 1.81204556e-15
6.30957344e+01 3.68545978e-13 1.19720663e-15 0.00000000e+00 3.67348771e-13 0.00000000e+00 1.19720663e-15
7.24435960e+01 2.22386989e-13 7.90986575e-16 0.00000000e+00 2.21596003e-13 0.00000000e+00 7.90986575e-16
8.31763771e+01 1.30023563e-13 5.22599647e-16 0.00000000e+00 1.29500964e-13 0.00000000e+00 5.22599647e-16
9.54992586e+01 7.42890951e-14 3.45278163e-16 0.00000000e+00 7.39438170e-14 0.00000000e+00 3.45278163e-16
1.09647820e+02 4.16895228e-14 2.28123020e-16 0.00000000e+00 4.14613998e-14 0.00000000e+00 2.28123020e-16
1.25892541e+02 2.33213735e-14 1.50719385e-16 0.00000000e+00 2.31706541e-14 0.00000000e+00 1.50719385e-16
1.44543977e+02 1.29514324e-14 9.95793099e-17 0.00000000e+00 1.28518531e-14 0.00000000e+00 9.95793099e-17
1.65958691e+02 6.84870241e-15 6.57913976e-17 0.00000000e+00 6.78291101e-15 0.00000000e+00 6.57913976e-17
1.90546072e+02 3.61991997e-15 4.34679453e-17 0.00000000e+00 3.57645202e-15 0.00000000e+00 4.34679453e-17
2.18776162e+02 1.90918463e-15 2.87189867e-17 0.00000000e+00 1.88046565e-15 0.00000000e+00 2.87189867e-17
2.51188643e+02 1.00327199e-15 1.89744463e-17 0.00000000e+00 9.84297545e-16 0.00000000e+00 1.89744463e-17
2.88403150e+02 5.24834434e-16 1.25362924e-17 0.00000000e+00 5.12298141e-16 0.00000000e+00 1.25362924e-17
3.31131121e+02 2.74008151e-16 8.28264623e-18 0.00000000e+00 2.65725504e-16 0.00000000e+00 8.28264623e-18
3.80189396e+02 1.42685986e-16 5.47229010e-18 0.00000000e+00 1.37213696e-16 0.00000000e+00 5.47229010e-18
4.36515832e+02 7.42512798e-17 3.61550621e-18 0.00000000e+00 7.06357736e-17 0.00000000e+00 3.61550621e-18
5.01187234e+02 3.86342728e-17 2.38874127e-18 0.00000000e+00 3.62455316e-17 0.00000000e+00 2.38874127e-18
5.75439937e+02 2.01277517e-17 1.57822570e-18 0.00000000e+00 1.85495260e-17 0.00000000e+00 1.57822570e-18
6.60693448e+02 1.05141376e-17 1.04272338e-18 0.00000000e+00 9.47141425e-18 0.00000000e+00 1.04272338e-18
7.58577575e+02 5.51537518e-18 6.88920507e-19 0.00000000e+00 4.82645468e-18 0.00000000e+00 6.88920507e-19
8.70963590e+02 2.90976499e-18 4.55165265e-19 0.00000000e+00 2.45459973e-18 0.00000000e+00 4.55165265e-19
1.00000000e+03 1.24604369e-18 0.00000000e+00 0.00000000e+00 1.24604369e-18 0.00000000e+00 0.00000000e+00
