# column 1: lambda (micron)
# column 2: total flux; lambda*F_lambda (W/m2)
# column 3: direct stellar flux; lambda*F_lambda (W/m2)
# column 4: scattered stellar flux; lambda*F_lambda (W/m2)
# column 5: total dust emission flux; lambda*F_lambda (W/m2)
# column 6: dust emission scattered flux; lambda*F_lambda (W/m2)
# column 7: transparent flux; lambda*F_lambda (W/m2)
1.00000000e-03 3.57555165e-13 3.57550976e-13 4.18897271e-18 0.00000000e+00 0.00000000e+00 3.57785423e-13
1.14815362e-03 4.21943198e-13 4.21935962e-13 7.23617015e-18 0.00000000e+00 0.00000000e+00 4.22301518e-13
1.31825674e-03 4.97917970e-13 4.97902678e-13 1.52920606e-17 0.00000000e+00 0.00000000e+00 4.98451197e-13
1.51356125e-03 5.87589065e-13 5.87569011e-13 2.00533819e-17 0.00000000e+00 0.00000000e+00 5.88332233e-13
1.73780083e-03 6.93537593e-13 6.93510525e-13 2.70680115e-17 0.00000000e+00 0.00000000e+00 6.94420676e-13
1.99526231e-03 8.18274568e-13 8.18215059e-13 5.95087959e-17 0.00000000e+00 0.00000000e+00 8.19639053e-13
2.29086765e-03 9.65807501e-13 9.65654653e-13 1.52847900e-16 0.00000000e+00 0.00000000e+00 9.67436888e-13
2.63026799e-03 1.14012705e-12 1.13936531e-12 7.61737441e-16 0.00000000e+00 0.00000000e+00 1.14188572e-12
3.01995172e-03 1.34449595e-12 1.34411295e-12 3.83001578e-16 0.00000000e+00 0.00000000e+00 1.34779128e-12
3.46736850e-03 1.58641387e-12 1.58570978e-12 7.04094455e-16 0.00000000e+00 0.00000000e+00 1.59082586e-12
3.98107171e-03 1.87323946e-12 1.87077402e-12 2.46543757e-15 0.00000000e+00 0.00000000e+00 1.87768459e-12
4.57088190e-03 2.22309949e-12 2.21082564e-12 1.22738478e-14 0.00000000e+00 0.00000000e+00 2.21626987e-12
5.24807460e-03 2.61572588e-12 2.60770441e-12 8.02146923e-15 0.00000000e+00 0.00000000e+00 2.61590907e-12
6.02559586e-03 3.09683690e-12 3.07593861e-12 2.08982868e-14 0.00000000e+00 0.00000000e+00 3.08761145e-12
6.91830971e-03 3.64601958e-12 3.62847485e-12 1.75447287e-14 0.00000000e+00 0.00000000e+00 3.64437151e-12
7.94328235e-03 4.30763527e-12 4.28059886e-12 2.70364135e-14 0.00000000e+00 0.00000000e+00 4.30152690e-12
9.12010839e-03 5.09735769e-12 5.04977676e-12 4.75809240e-14 0.00000000e+00 0.00000000e+00 5.07718096e-12
1.04712855e-02 5.68788156e-12 5.63796154e-12 4.99200108e-14 0.00000000e+00 0.00000000e+00 5.67051724e-12
1.20226443e-02 5.75454128e-12 5.63604602e-12 1.18495257e-13 7.11781241e-312 1.02390576e-313 5.67051724e-12
1.38038426e-02 5.74361652e-12 5.63377485e-12 1.09841673e-13 2.11097947e-272 2.89859770e-274 5.67051724e-12
1.58489319e-02 5.78213180e-12 5.63098500e-12 1.51146800e-13 4.85877943e-238 9.30550902e-240 5.67051724e-12
1.81970086e-02 5.81140187e-12 5.62841309e-12 1.82988782e-13 3.88085119e-208 9.85503578e-210 5.67051724e-12
2.08929613e-02 5.80448120e-12 5.62627617e-12 1.78205034e-13 3.83483334e-182 1.27965531e-183 5.67051724e-12
2.39883292e-02 5.81093103e-12 5.62350865e-12 1.87422381e-13 1.62567468e-159 7.17740214e-161 5.67051724e-12
2.75422870e-02 5.82054571e-12 5.62029126e-12 2.00254450e-13 7.96447145e-140 3.89939107e-141 5.67051724e-12
3.16227766e-02 5.79315113e-12 5.61713930e-12 1.76011829e-13 1.04661800e-122 6.04561575e-124 5.67051724e-12
3.63078055e-02 5.77093510e-12 5.61466830e-12 1.56266805e-13 7.91879129e-108 5.06712857e-109 5.67051724e-12
4.16869383e-02 5.77602895e-12 5.61253194e-12 1.63497003e-13 6.77579542e-95 5.25689994e-96 5.67051724e-12
4.78630092e-02 5.74747282e-12 5.60664734e-12 1.40825484e-13 1.15832206e-83 1.05177721e-84 5.67051724e-12
5.49540874e-02 5.72782558e-12 5.59847394e-12 1.29351641e-13 6.49412027e-74 6.37608308e-75 5.67051724e-12
6.30957344e-02 5.69388085e-12 5.57803150e-12 1.15849349e-13 2.48411029e-65 2.56603010e-66 5.67051724e-12
7.24435960e-02 5.65231184e-12 5.55391372e-12 9.83981252e-14 6.85362691e-58 6.59355201e-59 5.67051724e-12
8.31763771e-02 5.65383463e-12 5.55605561e-12 9.77790106e-14 1.55438771e-51 1.42023930e-52 5.67051724e-12
9.54992586e-02 5.65932585e-12 5.56234244e-12 9.69834114e-14 5.11908373e-46 4.96496534e-47 5.67051724e-12
1.09647820e-01 5.43373544e-12 5.32934288e-12 1.04392556e-13 3.00964355e-41 3.24572388e-42 5.41530405e-12
1.25892541e-01 5.09656612e-12 4.98772617e-12 1.08839951e-13 4.37255361e-37 4.76445343e-38 5.05385580e-12
1.44543977e-01 4.76545565e-12 4.66532180e-12 1.00133858e-13 1.82467012e-33 1.95781096e-34 4.71653266e-12
1.65958691e-01 4.46382472e-12 4.35989866e-12 1.03926066e-13 2.02933366e-30 2.43507088e-31 4.40172439e-12
1.90546072e-01 4.17327864e-12 4.06629803e-12 1.06980612e-13 6.66589337e-28 9.40086897e-29 4.10792822e-12
2.18776162e-01 3.88260477e-12 3.78820772e-12 9.43970550e-14 8.78619749e-26 1.30688462e-26 3.83374167e-12
2.51188643e-01 3.65251405e-12 3.54383055e-12 1.08683503e-13 9.90215238e-24 1.80390986e-24 3.57785591e-12
2.88403150e-01 3.41813021e-12 3.31266437e-12 1.05465849e-13 5.96110687e-22 1.13095411e-22 3.33904941e-12
3.31131121e-01 3.19242644e-12 3.09470607e-12 9.77203524e-14 2.01477850e-20 3.94353257e-21 3.11618222e-12
3.80189396e-01 2.97989422e-12 2.89058249e-12 8.93113245e-14 4.12871791e-19 8.33733454e-20 2.90819046e-12
4.36515832e-01 2.78425950e-12 2.69977399e-12 8.44799768e-14 5.53416923e-18 1.13037711e-18 2.71408126e-12
5.01187234e-01 2.59849979e-12 2.52146023e-12 7.69886203e-14 5.09361816e-17 1.07643642e-17 2.53292801e-12
5.75439937e-01 2.42636416e-12 2.35476918e-12 7.12596806e-14 3.35297286e-16 7.02228147e-17 2.36386595e-12
6.60693448e-01 2.26457891e-12 2.19893473e-12 6.39912768e-14 1.65290650e-15 3.44763078e-16 2.20608807e-12
7.58577575e-01 2.12018439e-12 2.05328459e-12 6.05181017e-14 6.38170198e-15 1.30576018e-15 2.05884118e-12
8.70963590e-01 1.98998977e-12 1.91720182e-12 5.26837681e-14 2.01041798e-14 3.92498127e-15 1.92142238e-12
1.00000000e+00 1.88810697e-12 1.79002180e-12 4.54490649e-14 5.26360994e-14 9.60827706e-15 1.79317570e-12
1.14815362e+00 1.82984485e-12 1.67117406e-12 3.84158100e-14 1.20254978e-13 2.00815198e-14 1.67348894e-12
1.31825674e+00 1.83718874e-12 1.56012126e-12 3.20694213e-14 2.44998065e-13 3.62041771e-14 1.56179075e-12
1.51356125e+00 1.92548728e-12 1.45635609e-12 2.61042342e-14 4.43026961e-13 5.65275396e-14 1.45754793e-12
1.73780083e+00 2.09174454e-12 1.35942588e-12 2.00618015e-14 7.12256857e-13 7.52775248e-14 1.36026288e-12
1.99526231e+00 2.30920624e-12 1.26889261e-12 1.56508950e-14 1.02466274e-12 8.57567271e-14 1.26947118e-12
2.29086765e+00 2.52684003e-12 1.18434076e-12 1.09695891e-14 1.33152969e-12 8.59401646e-14 1.18473944e-12
2.63026799e+00 2.69665642e-12 1.10538588e-12 7.83283742e-15 1.58343771e-12 7.67487959e-14 1.10566318e-12
3.01995172e+00 2.78237713e-12 1.03166957e-12 5.44519206e-15 1.74526237e-12 6.33389289e-14 1.03186491e-12
3.46736850e+00 2.77703790e-12 9.62852508e-13 3.76466474e-15 1.81042072e-12 4.82223863e-14 9.62992369e-13
3.98107171e+00 2.68471710e-12 8.98615356e-13 2.53949732e-15 1.78356225e-12 3.43386434e-14 8.98716770e-13
4.57088190e+00 2.52416590e-12 8.38656752e-13 1.63799457e-15 1.68387115e-12 2.27161194e-14 8.38731291e-13
5.24807460e+00 2.24677265e-12 6.93452711e-13 8.96515032e-16 1.55242342e-12 1.41624894e-14 6.93502223e-13
6.02559586e+00 1.86737383e-12 4.58165191e-13 3.83415853e-16 1.40882523e-12 8.32383200e-15 4.58192375e-13
6.70000000e+00 1.62641165e-12 3.33273393e-13 1.91314895e-16 1.29294694e-12 5.24403111e-15 3.33290895e-13
6.92422916e+00 1.55719600e-12 3.01933674e-13 1.53034025e-16 1.25510929e-12 4.52491843e-15 3.01948975e-13
7.15596261e+00 1.50471879e-12 2.73540758e-13 1.21082685e-16 1.23105694e-12 3.86519224e-15 2.73554377e-13
7.39545150e+00 1.48058334e-12 2.47817310e-13 9.23043347e-17 1.23267372e-12 3.27794813e-15 2.47829944e-13
7.64295536e+00 1.53726070e-12 2.24511537e-13 6.63967204e-17 1.31268276e-12 2.76408298e-15 2.24524577e-13
7.89874245e+00 1.70399426e-12 2.03395531e-13 4.25309864e-17 1.50055620e-12 2.30097434e-15 2.03410795e-13
8.16308998e+00 1.94699029e-12 1.84263832e-13 2.55293635e-17 1.76270093e-12 1.86560300e-15 1.84282505e-13
8.43628443e+00 2.26731719e-12 1.66929494e-13 1.39447993e-17 2.10037375e-12 1.43669658e-15 1.66952996e-13
8.71862190e+00 2.46516799e-12 1.51226953e-13 9.26684652e-18 2.31393177e-12 1.12820895e-15 1.51253114e-13
9.01040836e+00 2.64060186e-12 1.37000902e-13 5.72966991e-18 2.50359523e-12 8.26744263e-16 1.37029614e-13
9.31196005e+00 2.77772693e-12 1.24113491e-13 0.00000000e+00 2.65361343e-12 0.00000000e+00 1.24143660e-13
9.62360379e+00 2.71815737e-12 1.12441419e-13 0.00000000e+00 2.60571595e-12 0.00000000e+00 1.12469472e-13
9.94567731e+00 2.54671864e-12 1.01869251e-13 0.00000000e+00 2.44484939e-12 0.00000000e+00 1.01893097e-13
1.02785297e+01 2.33793001e-12 9.22917572e-14 0.00000000e+00 2.24563825e-12 0.00000000e+00 9.23113014e-14
1.06225216e+01 2.13960252e-12 8.36147093e-14 0.00000000e+00 2.05598781e-12 0.00000000e+00 8.36305558e-14
1.09780260e+01 1.93037692e-12 7.57537427e-14 0.00000000e+00 1.85462317e-12 0.00000000e+00 7.57661279e-14
1.13454280e+01 1.73909172e-12 6.86315343e-14 0.00000000e+00 1.67046019e-12 0.00000000e+00 6.86412529e-14
1.17251259e+01 1.57690575e-12 6.21787098e-14 0.00000000e+00 1.51472704e-12 0.00000000e+00 6.21863851e-14
1.21175312e+01 1.42959942e-12 5.63324880e-14 0.00000000e+00 1.37326693e-12 0.00000000e+00 5.63385184e-14
1.25230691e+01 1.29720411e-12 5.10358467e-14 0.00000000e+00 1.24616826e-12 0.00000000e+00 5.10405718e-14
1.29421791e+01 1.18009503e-12 4.62371038e-14 0.00000000e+00 1.13385793e-12 0.00000000e+00 4.62408321e-14
1.33753155e+01 1.07952800e-12 4.18894863e-14 0.00000000e+00 1.03763851e-12 0.00000000e+00 4.18924490e-14
1.38229477e+01 1.01044867e-12 3.79505150e-14 0.00000000e+00 9.72498154e-13 0.00000000e+00 3.79529781e-14
1.42855609e+01 9.68944386e-13 3.43818253e-14 0.00000000e+00 9.34562561e-13 0.00000000e+00 3.43839660e-14
1.47636563e+01 9.74299243e-13 3.11485441e-14 0.00000000e+00 9.43150699e-13 0.00000000e+00 3.11505758e-14
1.52577522e+01 9.88687799e-13 2.82192832e-14 0.00000000e+00 9.60468516e-13 0.00000000e+00 2.82212462e-14
1.57683840e+01 1.01068469e-12 2.55654631e-14 0.00000000e+00 9.85119232e-13 0.00000000e+00 2.55673842e-14
1.62961051e+01 1.03281029e-12 2.31612075e-14 0.00000000e+00 1.00964909e-12 0.00000000e+00 2.31630853e-14
1.68414875e+01 1.05054056e-12 2.09830500e-14 0.00000000e+00 1.02955751e-12 0.00000000e+00 2.09848813e-14
1.74051222e+01 1.06137802e-12 1.90097715e-14 0.00000000e+00 1.04236825e-12 0.00000000e+00 1.90115106e-14
1.79876201e+01 1.06234629e-12 1.72220875e-14 0.00000000e+00 1.04512420e-12 0.00000000e+00 1.72237112e-14
1.85896125e+01 1.04688526e-12 1.56025633e-14 0.00000000e+00 1.03128270e-12 0.00000000e+00 1.56040325e-14
1.92117518e+01 1.01946657e-12 1.41353741e-14 0.00000000e+00 1.00533119e-12 0.00000000e+00 1.41366646e-14
1.98547123e+01 9.81804348e-13 1.28061733e-14 0.00000000e+00 9.68998175e-13 0.00000000e+00 1.28072847e-14
2.05191907e+01 9.40956206e-13 1.16019692e-14 0.00000000e+00 9.29354236e-13 0.00000000e+00 1.16029167e-14
2.12059073e+01 9.04846198e-13 1.05109970e-14 0.00000000e+00 8.94335201e-13 0.00000000e+00 1.05118047e-14
2.19156062e+01 8.71245187e-13 9.52260660e-15 0.00000000e+00 8.61722580e-13 0.00000000e+00 9.52329842e-15
2.26490567e+01 8.38452470e-13 8.62715549e-15 0.00000000e+00 8.29825315e-13 0.00000000e+00 8.62774902e-15
2.34070535e+01 8.07376953e-13 7.81590491e-15 0.00000000e+00 7.99561048e-13 0.00000000e+00 7.81641505e-15
2.41904183e+01 7.77862326e-13 7.08093751e-15 0.00000000e+00 7.70781389e-13 0.00000000e+00 7.08137710e-15
2.50000000e+01 7.51003302e-13 6.41508083e-15 0.00000000e+00 7.44588221e-13 0.00000000e+00 6.41546044e-15
2.75422870e+01 6.70359539e-13 4.79761560e-15 0.00000000e+00 6.65561923e-13 0.00000000e+00 4.79786316e-15
3.16227766e+01 5.56326888e-13 3.16978074e-15 0.00000000e+00 5.53157108e-13 0.00000000e+00 3.16991676e-15
3.63078055e+01 4.40421801e-13 2.09426890e-15 0.00000000e+00 4.38327532e-13 0.00000000e+00 2.09434323e-15
4.16869383e+01 3.26913920e-13 1.38367930e-15 0.00000000e+00 3.25530240e-13 0.00000000e+00 1.38371885e-15
4.78630092e+01 2.26987266e-13 9.14193590e-16 0.00000000e+00 2.26073072e-13 0.00000000e+00 9.14213979e-16
5.49540874e+01 1.49151222e-13 6.04004898e-16 0.00000000e+00 1.48547217e-13 0.00000000e+00 6.04015186e-16
6.30957344e+01 9.38096285e-14 3.99063751e-16 0.00000000e+00 9.34105647e-14 0.00000000e+00 3.99068876e-16
7.24435960e+01 5.68905426e-14 2.63659657e-16 0.00000000e+00 5.66268829e-14 0.00000000e+00 2.63662192e-16
8.31763771e+01 3.35772780e-14 1.74198631e-16 0.00000000e+00 3.34030794e-14 0.00000000e+00 1.74199882e-16
9.54992586e+01 1.94059908e-14 1.15092102e-16 0.00000000e+00 1.92908987e-14 0.00000000e+00 1.15092721e-16
1.09647820e+02 1.10304674e-14 7.60406990e-17 0.00000000e+00 1.09544267e-14 0.00000000e+00 7.60410067e-17
1.25892541e+02 6.25726987e-15 5.02396398e-17 0.00000000e+00 6.20703023e-15 0.00000000e+00 5.02397949e-17
1.44543977e+02 3.52179838e-15 3.31930245e-17 0.00000000e+00 3.48860536e-15 0.00000000e+00 3.31931033e-17
1.65958691e+02 1.88417383e-15 2.19304273e-17 0.00000000e+00 1.86224340e-15 0.00000000e+00 2.19304659e-17
1.90546072e+02 1.00720246e-15 1.44892960e-17 0.00000000e+00 9.92713163e-16 0.00000000e+00 1.44893151e-17
2.18776162e+02 5.36798974e-16 9.57298603e-18 0.00000000e+00 5.27225988e-16 0.00000000e+00 9.57299556e-18
2.51188643e+02 2.84804316e-16 6.32481068e-18 0.00000000e+00 2.78479506e-16 0.00000000e+00 6.32481544e-18
2.88403150e+02 1.50313704e-16 4.17876174e-18 0.00000000e+00 1.46134942e-16 0.00000000e+00 4.17876412e-18
3.31131121e+02 7.91107257e-17 2.76088088e-18 0.00000000e+00 7.63498448e-17 0.00000000e+00 2.76088208e-18
3.80189396e+02 4.15018229e-17 1.82409610e-18 0.00000000e+00 3.96777268e-17 0.00000000e+00 1.82409670e-18
4.36515832e+02 2.17467442e-17 1.20516844e-18 0.00000000e+00 2.05415757e-17 0.00000000e+00 1.20516874e-18
5.01187234e+02 1.13893812e-17 7.96246938e-19 0.00000000e+00 1.05931342e-17 0.00000000e+00 7.96247089e-19
5.75439937e+02 5.97106883e-18 5.26075159e-19 0.00000000e+00 5.44499367e-18 0.00000000e+00 5.26075235e-19
6.60693448e+02 3.13843844e-18 3.47574423e-19 0.00000000e+00 2.79086402e-18 0.00000000e+00 3.47574461e-19
7.58577575e+02 1.65658209e-18 2.29640150e-19 0.00000000e+00 1.42694194e-18 0.00000000e+00 2.29640169e-19
8.70963590e+02 8.79552937e-19 1.51721745e-19 0.00000000e+00 7.27831191e-19 0.00000000e+00 1.51721755e-19
1.00000000e+03 3.70419050e-19 0.00000000e+00 0.00000000e+00 3.70419050e-19 0.00000000e+00 0.00000000e+00
