# column 1: lambda (micron)
# column 2: total flux; lambda*F_lambda (W/m2)
# column 3: direct stellar flux; lambda*F_lambda (W/m2)
# column 4: scattered stellar flux; lambda*F_lambda (W/m2)
# column 5: total dust emission flux; lambda*F_lambda (W/m2)
# column 6: dust emission scattered flux; lambda*F_lambda (W/m2)
# column 7: transparent flux; lambda*F_lambda (W/m2)
1.00000000e-03 9.68077998e-13 9.68073281e-13 4.71646849e-18 0.00000000e+00 0.00000000e+00 9.68073281e-13
1.14815362e-03 1.14264430e-12 1.14263687e-12 7.42856162e-18 0.00000000e+00 0.00000000e+00 1.14263687e-12
1.31825674e-03 1.34868862e-12 1.34867788e-12 1.07476720e-17 0.00000000e+00 0.00000000e+00 1.34867788e-12
1.51356125e-03 1.59188861e-12 1.59187233e-12 1.62805992e-17 0.00000000e+00 0.00000000e+00 1.59187233e-12
1.73780083e-03 1.87894891e-12 1.87891976e-12 2.91498598e-17 0.00000000e+00 0.00000000e+00 1.87891976e-12
1.99526231e-03 2.21777667e-12 2.21772777e-12 4.89094993e-17 0.00000000e+00 0.00000000e+00 2.21772777e-12
2.29086765e-03 2.61770647e-12 2.61762985e-12 7.66292135e-17 0.00000000e+00 0.00000000e+00 2.61762985e-12
2.63026799e-03 3.08979885e-12 3.08964252e-12 1.56329562e-16 0.00000000e+00 0.00000000e+00 3.08964252e-12
3.01995172e-03 3.64702178e-12 3.64676883e-12 2.52948345e-16 0.00000000e+00 0.00000000e+00 3.64676883e-12
3.46736850e-03 4.30475725e-12 4.30435650e-12 4.00747902e-16 0.00000000e+00 0.00000000e+00 4.30435650e-12
3.98107171e-03 5.08118496e-12 5.08052080e-12 6.64162203e-16 0.00000000e+00 0.00000000e+00 5.08052080e-12
4.57088190e-03 5.99815613e-12 5.99664354e-12 1.51259231e-15 0.00000000e+00 0.00000000e+00 5.99664354e-12
5.24807460e-03 7.08061796e-12 7.07796211e-12 2.65584619e-15 0.00000000e+00 0.00000000e+00 7.07796211e-12
6.02559586e-03 8.35889867e-12 8.35426474e-12 4.63392964e-15 0.00000000e+00 0.00000000e+00 8.35426474e-12
6.91830971e-03 9.86790883e-12 9.86071107e-12 7.19775457e-15 0.00000000e+00 0.00000000e+00 9.86071107e-12
7.94328235e-03 1.16506942e-11 1.16388008e-11 1.18934054e-14 0.00000000e+00 0.00000000e+00 1.16388008e-11
9.12010839e-03 1.37607395e-11 1.37375167e-11 2.32227854e-14 0.00000000e+00 0.00000000e+00 1.37375167e-11
1.04712855e-02 1.53932884e-11 1.53429287e-11 5.03597449e-14 0.00000000e+00 0.00000000e+00 1.53429287e-11
1.20226443e-02 1.53867571e-11 1.53429287e-11 4.38284175e-14 1.19250295e-310 1.89348804e-312 1.53429287e-11
1.38038426e-02 1.53990298e-11 1.53429287e-11 5.61011797e-14 2.14453489e-271 4.93305675e-273 1.53429287e-11
1.58489319e-02 1.54305348e-11 1.53429287e-11 8.76060984e-14 3.14267298e-237 8.13870084e-239 1.53429287e-11
1.81970086e-02 1.54739811e-11 1.53429287e-11 1.31052401e-13 1.70576729e-207 5.46327593e-209 1.53429287e-11
2.08929613e-02 1.55070907e-11 1.53429287e-11 1.64162006e-13 1.20883279e-181 5.07238065e-183 1.53429287e-11
2.39883292e-02 1.55434451e-11 1.53429287e-11 2.00516411e-13 3.82781383e-159 2.08290116e-160 1.53429287e-11
2.75422870e-02 1.55917134e-11 1.53429287e-11 2.48784694e-13 1.44644894e-139 8.71924561e-141 1.53429287e-11
3.16227766e-02 1.56333307e-11 1.53429287e-11 2.90402058e-13 1.52538592e-122 1.05394957e-123 1.53429287e-11
3.63078055e-02 1.56693102e-11 1.53429287e-11 3.26381545e-13 9.49976527e-108 7.04710918e-109 1.53429287e-11
4.16869383e-02 1.57460235e-11 1.53429287e-11 4.03094812e-13 6.86188892e-95 6.04845039e-96 1.53429287e-11
4.78630092e-02 1.58365078e-11 1.53429287e-11 4.93579090e-13 1.00189519e-83 9.51696689e-85 1.53429287e-11
5.49540874e-02 1.58636758e-11 1.53429287e-11 5.20747142e-13 4.91843216e-74 4.92801289e-75 1.53429287e-11
6.30957344e-02 1.58528400e-11 1.53429287e-11 5.09911307e-13 1.67085596e-65 1.70510630e-66 1.53429287e-11
7.24435960e-02 1.57829723e-11 1.53429287e-11 4.40043640e-13 4.17943730e-58 3.87880807e-59 1.53429287e-11
8.31763771e-02 1.57624806e-11 1.53429287e-11 4.19551904e-13 9.01444345e-52 8.62175784e-53 1.53429287e-11
9.54992586e-02 1.57844313e-11 1.53429287e-11 4.41502670e-13 3.06556853e-46 3.34363766e-47 1.53429287e-11
1.09647820e-01 1.51305119e-11 1.46523889e-11 4.78123056e-13 2.11713703e-41 2.87192559e-42 1.46523889e-11
1.25892541e-01 1.41585927e-11 1.36744049e-11 4.84187787e-13 3.93028558e-37 5.98407394e-38 1.36744049e-11
1.44543977e-01 1.32297982e-11 1.27616972e-11 4.68100990e-13 2.13531231e-33 3.43762934e-34 1.27616972e-11
1.65958691e-01 1.23936209e-11 1.19099088e-11 4.83712043e-13 2.93003202e-30 5.31335343e-31 1.19099088e-11
1.90546072e-01 1.16127101e-11 1.11149736e-11 4.97736441e-13 1.13768787e-27 2.43248199e-28 1.11149736e-11
2.18776162e-01 1.08188402e-11 1.03730969e-11 4.45743302e-13 1.71759369e-25 3.79397839e-26 1.03730969e-11
2.51188643e-01 1.01982041e-11 9.68073733e-12 5.17466785e-13 2.20688182e-23 6.01637703e-24 9.68073733e-12
2.88403150e-01 9.53525749e-12 9.03458975e-12 5.00667735e-13 1.45920504e-21 4.12617683e-22 9.03458975e-12
3.31131121e-01 8.90462791e-12 8.43156974e-12 4.73058110e-13 5.38644453e-20 1.56220834e-20 8.43156974e-12
3.80189396e-01 8.31157141e-12 7.86879872e-12 4.42771473e-13 1.21060475e-18 3.64275959e-19 7.86879872e-12
4.36515832e-01 7.75425802e-12 7.34359025e-12 4.10649968e-13 1.78022213e-17 5.58197608e-18 7.34359025e-12
5.01187234e-01 7.24383123e-12 6.85343719e-12 3.90215752e-13 1.78296907e-16 5.69961902e-17 6.85343719e-12
5.75439937e-01 6.75523145e-12 6.39599973e-12 3.57949564e-13 1.28215266e-15 4.17862663e-16 6.39599973e-12
6.60693448e-01 6.30864850e-12 5.96909425e-12 3.32726633e-13 6.82761265e-15 2.23617919e-15 5.96909425e-12
7.58577575e-01 5.89906343e-12 5.57068288e-12 2.99905288e-13 2.84752619e-14 9.18623402e-15 5.57068288e-12
8.70963590e-01 5.56002968e-12 5.19886376e-12 2.65274896e-13 9.58910260e-14 2.98952137e-14 5.19886376e-12
1.00000000e+00 5.34451352e-12 4.85186196e-12 2.27617060e-13 2.65034496e-13 7.74245049e-14 4.85186196e-12
1.14815362e+00 5.35358033e-12 4.52802104e-12 1.89637818e-13 6.35921469e-13 1.69779141e-13 4.52802104e-12
1.31825674e+00 5.70544255e-12 4.22579511e-12 1.50407847e-13 1.32923958e-12 3.13366770e-13 4.22579511e-12
1.51356125e+00 6.51468368e-12 3.94374146e-12 1.18831278e-13 2.45211094e-12 5.01235693e-13 3.94374146e-12
1.73780083e+00 7.75284608e-12 3.68051368e-12 9.24845756e-14 3.97984782e-12 6.89410545e-13 3.68051368e-12
1.99526231e+00 9.30940259e-12 3.43485522e-12 7.09696275e-14 5.80357774e-12 8.20446102e-13 3.43485522e-12
2.29086765e+00 1.08872536e-11 3.20559341e-12 5.28469811e-14 7.62881323e-12 8.53150603e-13 3.20559341e-12
2.63026799e+00 1.22159570e-11 2.99163384e-12 3.88997681e-14 9.18542339e-12 7.93163029e-13 2.99163384e-12
3.01995172e+00 1.31490804e-11 2.79195514e-12 2.78035020e-14 1.03293218e-11 6.72377117e-13 2.79195514e-12
3.46736850e+00 1.35861717e-11 2.60560415e-12 1.94511753e-14 1.09611164e-11 5.29159903e-13 2.60560415e-12
3.98107171e+00 1.35513876e-11 2.43169128e-12 1.31828962e-14 1.11065135e-11 3.85374065e-13 2.43169128e-12
4.57088190e+00 1.31171592e-11 2.26938634e-12 8.45502613e-15 1.08393179e-11 2.58866190e-13 2.26938634e-12
5.24807460e+00 1.21725906e-11 1.87643467e-12 4.68361107e-15 1.02914723e-11 1.62457839e-13 1.87643467e-12
6.02559586e+00 1.08923295e-11 1.23974809e-12 2.00153159e-15 9.65057993e-12 9.58741036e-14 1.23974809e-12
6.70000000e+00 9.96828796e-12 9.01797527e-13 1.01285060e-15 9.06547758e-12 6.14905371e-14 9.01797527e-13
6.92422916e+00 9.69378219e-12 8.16994532e-13 8.04641310e-16 8.87598302e-12 5.27272687e-14 8.16994532e-13
7.15596261e+00 9.50214194e-12 7.40166218e-13 6.38350915e-16 8.76133738e-12 4.52434820e-14 7.40166218e-13
7.39545150e+00 9.46405285e-12 6.70562664e-13 4.88767183e-16 8.79300141e-12 3.86466638e-14 6.70562664e-13
7.64295536e+00 9.84860421e-12 6.07504471e-13 3.46762475e-16 9.24075297e-12 3.28205856e-14 6.07504471e-13
7.89874245e+00 1.08360800e-11 5.50376127e-13 2.22080258e-16 1.02854818e-11 2.69788710e-14 5.50376127e-13
8.16308998e+00 1.20924508e-11 4.98620004e-13 1.34279225e-16 1.15936965e-11 2.17276146e-14 4.98620004e-13
8.43628443e+00 1.35578304e-11 4.51730909e-13 7.58389961e-17 1.31060236e-11 1.68093491e-14 4.51730909e-13
8.71862190e+00 1.43542832e-11 4.09251158e-13 4.71160721e-17 1.39449849e-11 1.31074502e-14 4.09251158e-13
9.01040836e+00 1.50311254e-11 3.70766106e-13 2.80104968e-17 1.46603313e-11 9.82127973e-15 3.70766106e-13
9.31196005e+00 1.54832434e-11 3.35900102e-13 0.00000000e+00 1.51473433e-11 0.00000000e+00 3.35900102e-13
9.62360379e+00 1.51705846e-11 3.04312818e-13 0.00000000e+00 1.48662718e-11 0.00000000e+00 3.04312818e-13
9.94567731e+00 1.46208802e-11 2.75695930e-13 0.00000000e+00 1.43451843e-11 0.00000000e+00 2.75695930e-13
1.02785297e+01 1.38732868e-11 2.49770110e-13 0.00000000e+00 1.36235167e-11 0.00000000e+00 2.49770110e-13
1.06225216e+01 1.31494392e-11 2.26282295e-13 0.00000000e+00 1.29231569e-11 0.00000000e+00 2.26282295e-13
1.09780260e+01 1.23375015e-11 2.05003220e-13 0.00000000e+00 1.21324982e-11 0.00000000e+00 2.05003220e-13
1.13454280e+01 1.15650933e-11 1.85725182e-13 0.00000000e+00 1.13793681e-11 0.00000000e+00 1.85725182e-13
1.17251259e+01 1.09198330e-11 1.68260007e-13 0.00000000e+00 1.07515730e-11 0.00000000e+00 1.68260007e-13
1.21175312e+01 1.02238832e-11 1.52437217e-13 0.00000000e+00 1.00714460e-11 0.00000000e+00 1.52437217e-13
1.25230691e+01 9.58697774e-12 1.38102367e-13 0.00000000e+00 9.44887537e-12 0.00000000e+00 1.38102367e-13
1.29421791e+01 9.02955819e-12 1.25115533e-13 0.00000000e+00 8.90444265e-12 0.00000000e+00 1.25115533e-13
1.33753155e+01 8.47488241e-12 1.13349952e-13 0.00000000e+00 8.36153246e-12 0.00000000e+00 1.13349952e-13
1.38229477e+01 8.12356114e-12 1.02690779e-13 0.00000000e+00 8.02087037e-12 0.00000000e+00 1.02690779e-13
1.42855609e+01 7.95601074e-12 9.30339713e-14 0.00000000e+00 7.86297677e-12 0.00000000e+00 9.30339713e-14
1.47636563e+01 8.10173250e-12 8.42852675e-14 0.00000000e+00 8.01744723e-12 0.00000000e+00 8.42852675e-14
1.52577522e+01 8.30591219e-12 7.63592720e-14 0.00000000e+00 8.22955292e-12 0.00000000e+00 7.63592720e-14
1.57683840e+01 8.58824280e-12 6.91786191e-14 0.00000000e+00 8.51906418e-12 0.00000000e+00 6.91786191e-14
1.62961051e+01 8.85144148e-12 6.26732185e-14 0.00000000e+00 8.78876826e-12 0.00000000e+00 6.26732185e-14
1.68414875e+01 9.12837218e-12 5.67795711e-14 0.00000000e+00 9.07159261e-12 0.00000000e+00 5.67795711e-14
1.74051222e+01 9.32412699e-12 5.14401489e-14 0.00000000e+00 9.27268684e-12 0.00000000e+00 5.14401489e-14
1.79876201e+01 9.45141432e-12 4.66028339e-14 0.00000000e+00 9.40481148e-12 0.00000000e+00 4.66028339e-14
1.85896125e+01 9.47374054e-12 4.22204090e-14 0.00000000e+00 9.43152013e-12 0.00000000e+00 4.22204090e-14
1.92117518e+01 9.37008140e-12 3.82500974e-14 0.00000000e+00 9.33183130e-12 0.00000000e+00 3.82500974e-14
1.98547123e+01 9.17194916e-12 3.46531450e-14 0.00000000e+00 9.13729602e-12 0.00000000e+00 3.46531450e-14
2.05191907e+01 8.93750009e-12 3.13944418e-14 0.00000000e+00 8.90610565e-12 0.00000000e+00 3.13944418e-14
2.12059073e+01 8.68399007e-12 2.84421796e-14 0.00000000e+00 8.65554789e-12 0.00000000e+00 2.84421796e-14
2.19156062e+01 8.46902633e-12 2.57675415e-14 0.00000000e+00 8.44325879e-12 0.00000000e+00 2.57675415e-14
2.26490567e+01 8.23939989e-12 2.33444203e-14 0.00000000e+00 8.21605547e-12 0.00000000e+00 2.33444203e-14
2.34070535e+01 8.01477221e-12 2.11491639e-14 0.00000000e+00 7.99362305e-12 0.00000000e+00 2.11491639e-14
2.41904183e+01 7.76157860e-12 1.91603445e-14 0.00000000e+00 7.74241825e-12 0.00000000e+00 1.91603445e-14
2.50000000e+01 7.51829160e-12 1.73585491e-14 0.00000000e+00 7.50093305e-12 0.00000000e+00 1.73585491e-14
2.75422870e+01 6.76376102e-12 1.29817562e-14 0.00000000e+00 6.75077927e-12 0.00000000e+00 1.29817562e-14
3.16227766e+01 5.57100602e-12 8.57696126e-15 0.00000000e+00 5.56242906e-12 0.00000000e+00 8.57696126e-15
3.63078055e+01 4.32213489e-12 5.66674211e-15 0.00000000e+00 4.31646815e-12 0.00000000e+00 5.66674211e-15
4.16869383e+01 3.11068876e-12 3.74397938e-15 0.00000000e+00 3.10694479e-12 0.00000000e+00 3.74397938e-15
4.78630092e+01 2.08556507e-12 2.47362265e-15 0.00000000e+00 2.08309145e-12 0.00000000e+00 2.47362265e-15
5.49540874e+01 1.31745540e-12 1.63430628e-15 0.00000000e+00 1.31582109e-12 0.00000000e+00 1.63430628e-15
6.30957344e+01 7.94430766e-13 1.07977545e-15 0.00000000e+00 7.93350990e-13 0.00000000e+00 1.07977545e-15
7.24435960e+01 4.62158882e-13 7.13400564e-16 0.00000000e+00 4.61445481e-13 0.00000000e+00 7.13400564e-16
8.31763771e+01 2.61905724e-13 4.71339078e-16 0.00000000e+00 2.61434385e-13 0.00000000e+00 4.71339078e-16
9.54992586e+01 1.45659670e-13 3.11410641e-16 0.00000000e+00 1.45348260e-13 0.00000000e+00 3.11410641e-16
1.09647820e+02 7.99202329e-14 2.05746970e-16 0.00000000e+00 7.97144859e-14 0.00000000e+00 2.05746970e-16
1.25892541e+02 4.38998060e-14 1.35935675e-16 0.00000000e+00 4.37638703e-14 0.00000000e+00 1.35935675e-16
1.44543977e+02 2.39999719e-14 8.98118099e-17 0.00000000e+00 2.39101601e-14 0.00000000e+00 8.98118099e-17
1.65958691e+02 1.25109938e-14 5.93380743e-17 0.00000000e+00 1.24516558e-14 0.00000000e+00 5.93380743e-17
1.90546072e+02 6.53299108e-15 3.92042769e-17 0.00000000e+00 6.49378681e-15 0.00000000e+00 3.92042769e-17
2.18776162e+02 3.40913490e-15 2.59020089e-17 0.00000000e+00 3.38323289e-15 0.00000000e+00 2.59020089e-17
2.51188643e+02 1.77445837e-15 1.71132876e-17 0.00000000e+00 1.75734509e-15 0.00000000e+00 1.71132876e-17
2.88403150e+02 9.20166427e-16 1.13066370e-17 0.00000000e+00 9.08859790e-16 0.00000000e+00 1.13066370e-17
3.31131121e+02 4.76329695e-16 7.47022097e-18 0.00000000e+00 4.68859474e-16 0.00000000e+00 7.47022097e-18
3.80189396e+02 2.45929820e-16 4.93552605e-18 0.00000000e+00 2.40994294e-16 0.00000000e+00 4.93552605e-18
4.36515832e+02 1.26840743e-16 3.26086972e-18 0.00000000e+00 1.23579873e-16 0.00000000e+00 3.26086972e-18
5.01187234e+02 6.53579138e-17 2.15443526e-18 0.00000000e+00 6.32034786e-17 0.00000000e+00 2.15443526e-18
5.75439937e+02 3.36783240e-17 1.42342126e-18 0.00000000e+00 3.22549028e-17 0.00000000e+00 1.42342126e-18
6.60693448e+02 1.73703837e-17 9.40445101e-19 0.00000000e+00 1.64299386e-17 0.00000000e+00 9.40445101e-19
7.58577575e+02 8.97652176e-18 6.21345916e-19 0.00000000e+00 8.35517584e-18 0.00000000e+00 6.21345916e-19
8.70963590e+02 4.65224938e-18 4.10519176e-19 0.00000000e+00 4.24173021e-18 0.00000000e+00 4.10519176e-19
1.00000000e+03 2.15000301e-18 0.00000000e+00 0.00000000e+00 2.15000301e-18 0.00000000e+00 0.00000000e+00
