# column 1: lambda (micron)
# column 2: total flux; lambda*F_lambda (W/m2)
# column 3: direct stellar flux; lambda*F_lambda (W/m2)
# column 4: scattered stellar flux; lambda*F_lambda (W/m2)
# column 5: total dust emission flux; lambda*F_lambda (W/m2)
# column 6: dust emission scattered flux; lambda*F_lambda (W/m2)
# column 7: transparent flux; lambda*F_lambda (W/m2)
1.00000000e-03 9.68076638e-13 9.68070033e-13 6.60510453e-18 0.00000000e+00 0.00000000e+00 9.68073281e-13
1.14815362e-03 1.14264204e-12 1.14263181e-12 1.02324285e-17 0.00000000e+00 0.00000000e+00 1.14263687e-12
1.31825674e-03 1.34868570e-12 1.34867028e-12 1.54254447e-17 0.00000000e+00 0.00000000e+00 1.34867788e-12
1.51356125e-03 1.59188660e-12 1.59186175e-12 2.48469131e-17 0.00000000e+00 0.00000000e+00 1.59187233e-12
1.73780083e-03 1.87895212e-12 1.87890715e-12 4.49713724e-17 0.00000000e+00 0.00000000e+00 1.87891976e-12
1.99526231e-03 2.21778370e-12 2.21770803e-12 7.56781707e-17 0.00000000e+00 0.00000000e+00 2.21772777e-12
2.29086765e-03 2.61772799e-12 2.61760514e-12 1.22845827e-16 0.00000000e+00 0.00000000e+00 2.61762985e-12
2.63026799e-03 3.08984497e-12 3.08960758e-12 2.37395454e-16 0.00000000e+00 0.00000000e+00 3.08964252e-12
3.01995172e-03 3.64714933e-12 3.64671781e-12 4.31520244e-16 0.00000000e+00 0.00000000e+00 3.64676883e-12
3.46736850e-03 4.30509339e-12 4.30428553e-12 8.07860681e-16 0.00000000e+00 0.00000000e+00 4.30435650e-12
3.98107171e-03 5.08158669e-12 5.08042491e-12 1.16177600e-15 0.00000000e+00 0.00000000e+00 5.08052080e-12
4.57088190e-03 5.99906919e-12 5.99656805e-12 2.50114116e-15 0.00000000e+00 0.00000000e+00 5.99664354e-12
5.24807460e-03 7.08238683e-12 7.07784830e-12 4.53852806e-15 0.00000000e+00 0.00000000e+00 7.07796211e-12
6.02559586e-03 8.36330503e-12 8.35410277e-12 9.20226165e-15 0.00000000e+00 0.00000000e+00 8.35426474e-12
6.91830971e-03 9.87407309e-12 9.86049043e-12 1.35826620e-14 0.00000000e+00 0.00000000e+00 9.86071107e-12
7.94328235e-03 1.16634068e-11 1.16385102e-11 2.48965641e-14 0.00000000e+00 0.00000000e+00 1.16388008e-11
9.12010839e-03 1.37771490e-11 1.37371361e-11 4.00129012e-14 0.00000000e+00 0.00000000e+00 1.37375167e-11
1.04712855e-02 1.53976969e-11 1.53424765e-11 5.52204481e-14 0.00000000e+00 0.00000000e+00 1.53429287e-11
1.20226443e-02 1.54401448e-11 1.53424498e-11 9.76950340e-14 2.44201873e-312 1.77393177e-313 1.53429287e-11
1.38038426e-02 1.54774875e-11 1.53424181e-11 1.35069322e-13 4.91548616e-273 4.15918745e-274 1.53429287e-11
1.58489319e-02 1.55231458e-11 1.53423792e-11 1.80766585e-13 7.90147046e-239 7.02800147e-240 1.53429287e-11
1.81970086e-02 1.56021044e-11 1.53423434e-11 2.59761000e-13 4.61432570e-209 4.14903261e-210 1.53429287e-11
2.08929613e-02 1.56641700e-11 1.53423135e-11 3.21856411e-13 3.52232428e-183 3.67511301e-184 1.53429287e-11
2.39883292e-02 1.57748899e-11 1.53422749e-11 4.32614983e-13 1.17708226e-160 1.33221047e-161 1.53429287e-11
2.75422870e-02 1.58928263e-11 1.53422300e-11 5.50596357e-13 4.69072890e-141 5.81925242e-142 1.53429287e-11
3.16227766e-02 1.59600738e-11 1.53421859e-11 6.17887934e-13 5.14546586e-124 6.76320201e-125 1.53429287e-11
3.63078055e-02 1.60270035e-11 1.53421514e-11 6.84852179e-13 3.29708567e-109 4.28164694e-110 1.53429287e-11
4.16869383e-02 1.61623984e-11 1.53421215e-11 8.20276955e-13 2.47091048e-96 3.65324401e-97 1.53429287e-11
4.78630092e-02 1.62765377e-11 1.53420391e-11 9.34498580e-13 3.66675030e-85 5.71385355e-86 1.53429287e-11
5.49540874e-02 1.63462939e-11 1.53419245e-11 1.00436941e-12 1.80616964e-75 2.89495353e-76 1.53429287e-11
6.30957344e-02 1.63390139e-11 1.53416373e-11 9.97376620e-13 5.95693653e-67 1.01352427e-67 1.53429287e-11
7.24435960e-02 1.61956335e-11 1.53412970e-11 8.54336463e-13 1.41809763e-59 2.33363569e-60 1.53429287e-11
8.31763771e-02 1.61698463e-11 1.53413273e-11 8.28519052e-13 3.18051028e-53 5.52921998e-54 1.53429287e-11
9.54992586e-02 1.61832059e-11 1.53414161e-11 8.41789871e-13 1.21030748e-47 2.55773188e-48 1.53429287e-11
1.09647820e-01 1.55359131e-11 1.46511888e-11 8.84724295e-13 1.11004064e-42 3.01182000e-43 1.46523889e-11
1.25892541e-01 1.45420430e-11 1.36734831e-11 8.68559984e-13 3.01633377e-38 9.46187023e-39 1.36744049e-11
1.44543977e-01 1.35508782e-11 1.27609841e-11 7.89894135e-13 2.32270630e-34 7.28571723e-35 1.27616972e-11
1.65958691e-01 1.26957473e-11 1.19093268e-11 7.86420477e-13 4.40642000e-31 1.44666319e-31 1.19099088e-11
1.90546072e-01 1.19052894e-11 1.11143941e-11 7.90895237e-13 2.17387943e-28 7.93974390e-29 1.11149736e-11
2.18776162e-01 1.10619139e-11 1.03724626e-11 6.89451313e-13 3.93494251e-26 1.41037496e-26 1.03730969e-11
2.51188643e-01 1.04294512e-11 9.68026385e-12 7.49187349e-13 7.11982519e-24 2.90871198e-24 9.68073733e-12
2.88403150e-01 9.74254050e-12 9.03422288e-12 7.08317618e-13 6.05212849e-22 2.46501904e-22 9.03458975e-12
3.31131121e-01 9.07535644e-12 8.43127128e-12 6.44085130e-13 2.75114570e-20 1.11529211e-20 8.43156974e-12
3.80189396e-01 8.44358573e-12 7.86855412e-12 5.75030905e-13 7.05680694e-19 2.80188346e-19 7.86879872e-12
4.36515832e-01 7.86199314e-12 7.34339158e-12 5.18590170e-13 1.13933394e-17 4.43408185e-18 7.34359025e-12
5.01187234e-01 7.32364956e-12 6.85327800e-12 4.70250855e-13 1.20701578e-16 4.59592892e-17 6.85343719e-12
5.75439937e-01 6.81280948e-12 6.39587350e-12 4.16052130e-13 8.83855858e-16 3.28134806e-16 6.39599973e-12
6.60693448e-01 6.33964121e-12 5.96899502e-12 3.65907242e-13 4.73894667e-15 1.69277857e-15 5.96909425e-12
7.58577575e-01 5.90729842e-12 5.57060582e-12 3.17230978e-13 1.94616152e-14 6.58221376e-15 5.57068288e-12
8.70963590e-01 5.53641585e-12 5.19880524e-12 2.73102430e-13 6.45081795e-14 2.03734881e-14 5.19886376e-12
1.00000000e+00 5.25997756e-12 4.85181824e-12 2.32873194e-13 1.75286118e-13 5.08053381e-14 4.85186196e-12
1.14815362e+00 5.12468362e-12 4.52798896e-12 1.88031294e-13 4.08663365e-13 1.05239200e-13 4.52802104e-12
1.31825674e+00 5.22780911e-12 4.22577198e-12 1.50214074e-13 8.51823055e-13 1.87008180e-13 4.22579511e-12
1.51356125e+00 5.63198663e-12 3.94372495e-12 1.17629153e-13 1.57063253e-12 2.89159029e-13 3.94374146e-12
1.73780083e+00 6.33830069e-12 3.68050209e-12 9.06245086e-14 2.56717409e-12 3.87628065e-13 3.68051368e-12
1.99526231e+00 7.27834327e-12 3.43484721e-12 6.85382018e-14 3.77495786e-12 4.50053932e-13 3.43485522e-12
2.29086765e+00 8.28542538e-12 3.20558789e-12 5.00068989e-14 5.02983059e-12 4.56914503e-13 3.20559341e-12
2.63026799e+00 9.20904470e-12 2.99163000e-12 3.59410282e-14 6.18147367e-12 4.21882412e-13 2.99163384e-12
3.01995172e+00 9.96868510e-12 2.79195244e-12 2.54992412e-14 7.15123342e-12 3.59024164e-13 2.79195514e-12
3.46736850e+00 1.05241578e-11 2.60560221e-12 1.75834934e-14 7.90097208e-12 2.88466389e-13 2.60560415e-12
3.98107171e+00 1.08425003e-11 2.43168987e-12 1.17733838e-14 8.39903703e-12 2.21008055e-13 2.43169128e-12
4.57088190e+00 1.09600869e-11 2.26938531e-12 7.68440752e-15 8.68301717e-12 1.58941332e-13 2.26938634e-12
5.24807460e+00 1.07088615e-11 1.87643398e-12 4.27098355e-15 8.82815650e-12 1.09202899e-13 1.87643467e-12
6.02559586e+00 1.01217961e-11 1.23974771e-12 1.81074678e-15 8.88023761e-12 7.11171043e-14 1.23974809e-12
6.70000000e+00 9.73431554e-12 9.01797285e-13 9.17291523e-16 8.83160097e-12 4.92530282e-14 9.01797527e-13
6.92422916e+00 9.62150963e-12 8.16994320e-13 7.36378879e-16 8.80377893e-12 4.34913356e-14 8.16994532e-13
7.15596261e+00 9.55504756e-12 7.40166029e-13 5.78153606e-16 8.81430338e-12 3.81627972e-14 7.40166218e-13
7.39545150e+00 9.59319631e-12 6.70562489e-13 4.38896504e-16 8.92219492e-12 3.28543813e-14 6.70562664e-13
7.64295536e+00 9.94499874e-12 6.07504290e-13 3.08947587e-16 9.33718550e-12 2.72622757e-14 6.07504471e-13
7.89874245e+00 1.07341251e-11 5.50375916e-13 1.94715589e-16 1.01835545e-11 2.14812133e-14 5.50376127e-13
8.16308998e+00 1.18987163e-11 4.98619745e-13 1.14653993e-16 1.13999819e-11 1.66961081e-14 4.98620004e-13
8.43628443e+00 1.33745067e-11 4.51730583e-13 6.31338113e-17 1.29227130e-11 1.24421807e-14 4.51730909e-13
8.71862190e+00 1.44611876e-11 4.09250795e-13 3.79376780e-17 1.40518988e-11 9.77044560e-15 4.09251158e-13
9.01040836e+00 1.55618910e-11 3.70765709e-13 2.14181427e-17 1.51911039e-11 7.25602955e-15 3.70766106e-13
9.31196005e+00 1.63492579e-11 3.35899684e-13 0.00000000e+00 1.60133582e-11 0.00000000e+00 3.35900102e-13
9.62360379e+00 1.64605808e-11 3.04312429e-13 0.00000000e+00 1.61562683e-11 0.00000000e+00 3.04312818e-13
9.94567731e+00 1.58835247e-11 2.75695600e-13 0.00000000e+00 1.56078291e-11 0.00000000e+00 2.75695930e-13
1.02785297e+01 1.51740424e-11 2.49769839e-13 0.00000000e+00 1.49242726e-11 0.00000000e+00 2.49770110e-13
1.06225216e+01 1.45144260e-11 2.26282075e-13 0.00000000e+00 1.42881440e-11 0.00000000e+00 2.26282295e-13
1.09780260e+01 1.37088463e-11 2.05003049e-13 0.00000000e+00 1.35038432e-11 0.00000000e+00 2.05003220e-13
1.13454280e+01 1.31044117e-11 1.85725048e-13 0.00000000e+00 1.29186866e-11 0.00000000e+00 1.85725182e-13
1.17251259e+01 1.25795744e-11 1.68259901e-13 0.00000000e+00 1.24113145e-11 0.00000000e+00 1.68260007e-13
1.21175312e+01 1.20873478e-11 1.52437134e-13 0.00000000e+00 1.19349107e-11 0.00000000e+00 1.52437217e-13
1.25230691e+01 1.15863271e-11 1.38102301e-13 0.00000000e+00 1.14482248e-11 0.00000000e+00 1.38102367e-13
1.29421791e+01 1.11878434e-11 1.25115482e-13 0.00000000e+00 1.10627279e-11 0.00000000e+00 1.25115533e-13
1.33753155e+01 1.08110267e-11 1.13349911e-13 0.00000000e+00 1.06976768e-11 0.00000000e+00 1.13349952e-13
1.38229477e+01 1.06437514e-11 1.02690745e-13 0.00000000e+00 1.05410607e-11 0.00000000e+00 1.02690779e-13
1.42855609e+01 1.06286606e-11 9.30339417e-14 0.00000000e+00 1.05356266e-11 0.00000000e+00 9.30339713e-14
1.47636563e+01 1.09047348e-11 8.42852394e-14 0.00000000e+00 1.08204496e-11 0.00000000e+00 8.42852675e-14
1.52577522e+01 1.12978633e-11 7.63592448e-14 0.00000000e+00 1.12215040e-11 0.00000000e+00 7.63592720e-14
1.57683840e+01 1.17275521e-11 6.91785925e-14 0.00000000e+00 1.16583735e-11 0.00000000e+00 6.91786191e-14
1.62961051e+01 1.21785038e-11 6.26731925e-14 0.00000000e+00 1.21158306e-11 0.00000000e+00 6.26732185e-14
1.68414875e+01 1.26134046e-11 5.67795457e-14 0.00000000e+00 1.25566251e-11 0.00000000e+00 5.67795711e-14
1.74051222e+01 1.29703022e-11 5.14401248e-14 0.00000000e+00 1.29188620e-11 0.00000000e+00 5.14401489e-14
1.79876201e+01 1.32180517e-11 4.66028114e-14 0.00000000e+00 1.31714489e-11 0.00000000e+00 4.66028339e-14
1.85896125e+01 1.33706966e-11 4.22203887e-14 0.00000000e+00 1.33284762e-11 0.00000000e+00 4.22204090e-14
1.92117518e+01 1.33169176e-11 3.82500796e-14 0.00000000e+00 1.32786676e-11 0.00000000e+00 3.82500974e-14
1.98547123e+01 1.32602646e-11 3.46531296e-14 0.00000000e+00 1.32256115e-11 0.00000000e+00 3.46531450e-14
2.05191907e+01 1.31056383e-11 3.13944286e-14 0.00000000e+00 1.30742439e-11 0.00000000e+00 3.13944418e-14
2.12059073e+01 1.29437122e-11 2.84421684e-14 0.00000000e+00 1.29152700e-11 0.00000000e+00 2.84421796e-14
2.19156062e+01 1.27338373e-11 2.57675319e-14 0.00000000e+00 1.27080698e-11 0.00000000e+00 2.57675415e-14
2.26490567e+01 1.25239170e-11 2.33444121e-14 0.00000000e+00 1.25005726e-11 0.00000000e+00 2.33444203e-14
2.34070535e+01 1.23025795e-11 2.11491568e-14 0.00000000e+00 1.22814304e-11 0.00000000e+00 2.11491639e-14
2.41904183e+01 1.20598722e-11 1.91603384e-14 0.00000000e+00 1.20407119e-11 0.00000000e+00 1.91603445e-14
2.50000000e+01 1.17711394e-11 1.73585438e-14 0.00000000e+00 1.17537809e-11 0.00000000e+00 1.73585491e-14
2.75422870e+01 1.08652571e-11 1.29817528e-14 0.00000000e+00 1.08522753e-11 0.00000000e+00 1.29817562e-14
3.16227766e+01 9.19820811e-12 8.57695937e-15 0.00000000e+00 9.18963116e-12 0.00000000e+00 8.57696126e-15
3.63078055e+01 7.29039834e-12 5.66674108e-15 0.00000000e+00 7.28473160e-12 0.00000000e+00 5.66674211e-15
4.16869383e+01 5.35970197e-12 3.74397883e-15 0.00000000e+00 5.35595799e-12 0.00000000e+00 3.74397938e-15
4.78630092e+01 3.67119349e-12 2.47362236e-15 0.00000000e+00 3.66871987e-12 0.00000000e+00 2.47362265e-15
5.49540874e+01 2.36200050e-12 1.63430613e-15 0.00000000e+00 2.36036619e-12 0.00000000e+00 1.63430628e-15
6.30957344e+01 1.44486564e-12 1.07977538e-15 0.00000000e+00 1.44378587e-12 0.00000000e+00 1.07977545e-15
7.24435960e+01 8.50933051e-13 7.13400529e-16 0.00000000e+00 8.50219651e-13 0.00000000e+00 7.13400564e-16
8.31763771e+01 4.85863543e-13 4.71339061e-16 0.00000000e+00 4.85392204e-13 0.00000000e+00 4.71339078e-16
9.54992586e+01 2.71720347e-13 3.11410632e-16 0.00000000e+00 2.71408937e-13 0.00000000e+00 3.11410641e-16
1.09647820e+02 1.49524743e-13 2.05746966e-16 0.00000000e+00 1.49318996e-13 0.00000000e+00 2.05746970e-16
1.25892541e+02 8.22483233e-14 1.35935673e-16 0.00000000e+00 8.21123876e-14 0.00000000e+00 1.35935675e-16
1.44543977e+02 4.49811631e-14 8.98118088e-17 0.00000000e+00 4.48913513e-14 0.00000000e+00 8.98118099e-17
1.65958691e+02 2.34553312e-14 5.93380738e-17 0.00000000e+00 2.33959931e-14 0.00000000e+00 5.93380743e-17
1.90546072e+02 1.22422936e-14 3.92042767e-17 0.00000000e+00 1.22030894e-14 0.00000000e+00 3.92042769e-17
2.18776162e+02 6.38174985e-15 2.59020088e-17 0.00000000e+00 6.35584784e-15 0.00000000e+00 2.59020089e-17
2.51188643e+02 3.31674993e-15 1.71132875e-17 0.00000000e+00 3.29963665e-15 0.00000000e+00 1.71132876e-17
2.88403150e+02 1.71672420e-15 1.13066369e-17 0.00000000e+00 1.70541757e-15 0.00000000e+00 1.13066370e-17
3.31131121e+02 8.86687616e-16 7.47022095e-18 0.00000000e+00 8.79217395e-16 0.00000000e+00 7.47022097e-18
3.80189396e+02 4.56539020e-16 4.93552604e-18 0.00000000e+00 4.51603494e-16 0.00000000e+00 4.93552605e-18
4.36515832e+02 2.34683533e-16 3.26086972e-18 0.00000000e+00 2.31422663e-16 0.00000000e+00 3.26086972e-18
5.01187234e+02 1.20436099e-16 2.15443526e-18 0.00000000e+00 1.18281664e-16 0.00000000e+00 2.15443526e-18
5.75439937e+02 6.17504013e-17 1.42342126e-18 0.00000000e+00 6.03269801e-17 0.00000000e+00 1.42342126e-18
6.60693448e+02 3.16528024e-17 9.40445100e-19 0.00000000e+00 3.07123573e-17 0.00000000e+00 9.40445101e-19
7.58577575e+02 1.62318915e-17 6.21345916e-19 0.00000000e+00 1.56105455e-17 0.00000000e+00 6.21345916e-19
8.70963590e+02 8.33198806e-18 4.10519176e-19 0.00000000e+00 7.92146888e-18 0.00000000e+00 4.10519176e-19
1.00000000e+03 4.01351652e-18 0.00000000e+00 0.00000000e+00 4.01351652e-18 0.00000000e+00 0.00000000e+00
