# column 1: lambda (micron)
# column 2: total flux; lambda*F_lambda (W/m2)
# column 3: direct stellar flux; lambda*F_lambda (W/m2)
# column 4: scattered stellar flux; lambda*F_lambda (W/m2)
# column 5: total dust emission flux; lambda*F_lambda (W/m2)
# column 6: dust emission scattered flux; lambda*F_lambda (W/m2)
# column 7: transparent flux; lambda*F_lambda (W/m2)
1.00000000e-03 1.04634605e-12 1.04634360e-12 2.44265900e-18 0.00000000e+00 0.00000000e+00 1.04634360e-12
1.14815362e-03 1.23502478e-12 1.23502095e-12 3.83131023e-18 0.00000000e+00 0.00000000e+00 1.23502095e-12
1.31825674e-03 1.45772667e-12 1.45772071e-12 5.95650927e-18 0.00000000e+00 0.00000000e+00 1.45772071e-12
1.51356125e-03 1.72058706e-12 1.72057784e-12 9.22066660e-18 0.00000000e+00 0.00000000e+00 1.72057784e-12
1.73780083e-03 2.03085035e-12 2.03083353e-12 1.68277023e-17 0.00000000e+00 0.00000000e+00 2.03083353e-12
1.99526231e-03 2.39706413e-12 2.39703472e-12 2.94110846e-17 0.00000000e+00 0.00000000e+00 2.39703472e-12
2.29086765e-03 2.82931590e-12 2.82926954e-12 4.63592267e-17 0.00000000e+00 0.00000000e+00 2.82926954e-12
2.63026799e-03 3.33954029e-12 3.33944522e-12 9.50669058e-17 0.00000000e+00 0.00000000e+00 3.33944522e-12
3.01995172e-03 3.94177492e-12 3.94161611e-12 1.58806572e-16 0.00000000e+00 0.00000000e+00 3.94161611e-12
3.46736850e-03 4.65263520e-12 4.65237083e-12 2.64370570e-16 0.00000000e+00 0.00000000e+00 4.65237083e-12
3.98107171e-03 5.49172257e-12 5.49128930e-12 4.33278245e-16 0.00000000e+00 0.00000000e+00 5.49128930e-12
4.57088190e-03 6.48242408e-12 6.48148207e-12 9.42004735e-16 0.00000000e+00 0.00000000e+00 6.48148207e-12
5.24807460e-03 7.65194666e-12 7.65022704e-12 1.71961606e-15 0.00000000e+00 0.00000000e+00 7.65022704e-12
6.02559586e-03 9.03294735e-12 9.02972084e-12 3.22650939e-15 0.00000000e+00 0.00000000e+00 9.02972084e-12
6.91830971e-03 1.06651700e-11 1.06579658e-11 7.20415072e-15 0.00000000e+00 0.00000000e+00 1.06579658e-11
7.94328235e-03 1.25882348e-11 1.25798170e-11 8.41779522e-15 0.00000000e+00 0.00000000e+00 1.25798170e-11
9.12010839e-03 1.48620622e-11 1.48482176e-11 1.38445743e-14 0.00000000e+00 0.00000000e+00 1.48482176e-11
1.04712855e-02 1.66022616e-11 1.65834298e-11 1.88318105e-14 0.00000000e+00 0.00000000e+00 1.65834298e-11
1.20226443e-02 1.66138294e-11 1.65834298e-11 3.03995780e-14 0.00000000e+00 0.00000000e+00 1.65834298e-11
1.38038426e-02 1.66245288e-11 1.65834298e-11 4.10990651e-14 3.84479960e-278 8.32314838e-280 1.65834298e-11
1.58489319e-02 1.66437622e-11 1.65834298e-11 6.03324134e-14 2.92915434e-243 6.73284606e-245 1.65834298e-11
1.81970086e-02 1.66687306e-11 1.65834298e-11 8.53008431e-14 6.68479664e-213 1.87961630e-214 1.65834298e-11
2.08929613e-02 1.66975114e-11 1.65834298e-11 1.14081575e-13 1.64955514e-186 5.63997106e-188 1.65834298e-11
2.39883292e-02 1.67357404e-11 1.65834298e-11 1.52310605e-13 1.54190683e-163 6.10225087e-165 1.65834298e-11
2.75422870e-02 1.67826021e-11 1.65834298e-11 1.99172302e-13 1.50986554e-143 7.35956738e-145 1.65834298e-11
3.16227766e-02 1.68299760e-11 1.65834298e-11 2.46546260e-13 3.63727963e-126 2.08661792e-127 1.65834298e-11
3.63078055e-02 1.68651410e-11 1.65834298e-11 2.81711202e-13 4.65075188e-111 2.88268287e-112 1.65834298e-11
4.16869383e-02 1.69684912e-11 1.65834298e-11 3.85061437e-13 6.30627080e-98 4.97835252e-99 1.65834298e-11
4.78630092e-02 1.70892167e-11 1.65834298e-11 5.05786912e-13 1.60608449e-86 1.55004508e-87 1.65834298e-11
5.49540874e-02 1.71713023e-11 1.65834298e-11 5.87872518e-13 1.27878155e-76 1.40165232e-77 1.65834298e-11
6.30957344e-02 1.72326904e-11 1.65834298e-11 6.49260595e-13 6.64372144e-68 8.17961241e-69 1.65834298e-11
7.24435960e-02 1.71702125e-11 1.65834298e-11 5.86782728e-13 2.42720893e-60 2.93009479e-61 1.65834298e-11
8.31763771e-02 1.71583612e-11 1.65834298e-11 5.74931391e-13 7.64301546e-54 9.81067540e-55 1.65834298e-11
9.54992586e-02 1.71748985e-11 1.65834298e-11 5.91468728e-13 3.91753140e-48 6.03580676e-49 1.65834298e-11
1.09647820e-01 1.64727408e-11 1.58370587e-11 6.35682119e-13 4.19507536e-43 8.01529591e-44 1.58370587e-11
1.25892541e-01 1.53771857e-11 1.47800032e-11 5.97182524e-13 1.18560158e-38 2.54964687e-39 1.47800032e-11
1.44543977e-01 1.43444078e-11 1.37935015e-11 5.50906307e-13 9.42374939e-35 2.13563578e-35 1.37935015e-11
1.65958691e-01 1.34307798e-11 1.28728446e-11 5.57935188e-13 1.92820961e-31 5.00442039e-32 1.28728446e-11
1.90546072e-01 1.26160321e-11 1.20136376e-11 6.02394469e-13 1.08781531e-28 3.31949488e-29 1.20136376e-11
2.18776162e-01 1.17768888e-11 1.12117790e-11 5.65109802e-13 2.28013268e-26 7.32299828e-27 1.12117790e-11
2.51188643e-01 1.11022316e-11 1.04634409e-11 6.38790636e-13 4.41061871e-24 1.65324110e-24 1.04634409e-11
2.88403150e-01 1.03626303e-11 9.76505125e-12 5.97579049e-13 4.07512857e-22 1.53636202e-22 9.76505125e-12
3.31131121e-01 9.65866121e-12 9.11327608e-12 5.45385110e-13 1.96286874e-20 7.30652121e-21 9.11327608e-12
3.80189396e-01 9.00162811e-12 8.50500410e-12 4.96623482e-13 5.34191359e-19 1.93505156e-19 8.50500410e-12
4.36515832e-01 8.38698776e-12 7.93733165e-12 4.49647152e-13 8.96096413e-18 3.17049339e-18 7.93733165e-12
5.01187234e-01 7.81934150e-12 7.40754890e-12 4.11694687e-13 9.79180506e-17 3.35178310e-17 7.40754890e-12
5.75439937e-01 7.28601786e-12 6.91312687e-12 3.72155351e-13 7.35638593e-16 2.42919840e-16 6.91312687e-12
6.60693448e-01 6.79082288e-12 6.45170538e-12 3.35123585e-13 3.99390979e-15 1.26900913e-15 6.45170538e-12
7.58577575e-01 6.33574992e-12 6.02108180e-12 2.97967434e-13 1.67006934e-14 5.04602577e-15 6.02108180e-12
8.70963590e-01 5.92756108e-12 5.61920048e-12 2.52377498e-13 5.59831039e-14 1.57808319e-14 5.61920048e-12
1.00000000e+00 5.60766891e-12 5.24414302e-12 2.10741378e-13 1.52784520e-13 3.95288202e-14 5.24414302e-12
1.14815362e+00 5.42622780e-12 4.89411902e-12 1.71324032e-13 3.60784744e-13 8.33647708e-14 4.89411902e-12
1.31825674e+00 5.46123753e-12 4.56745763e-12 1.34756763e-13 7.59023136e-13 1.50610269e-13 4.56745763e-12
1.51356125e+00 5.78534634e-12 4.26259947e-12 1.03313057e-13 1.41943381e-12 2.41676537e-13 4.26259947e-12
1.73780083e+00 6.41103896e-12 3.97808929e-12 7.73373389e-14 2.35561232e-12 3.30279375e-13 3.97808929e-12
1.99526231e+00 7.27992352e-12 3.71256894e-12 5.74147563e-14 3.50993982e-12 3.95449487e-13 3.71256894e-12
2.29086765e+00 8.27466559e-12 3.46477093e-12 4.17724948e-14 4.76812216e-12 4.18457619e-13 3.46477093e-12
2.63026799e+00 9.22955942e-12 3.23351237e-12 2.96944887e-14 5.96635256e-12 3.94624755e-13 3.23351237e-12
3.01995172e+00 1.00473840e-11 3.01768933e-12 2.10108131e-14 7.00868383e-12 3.48868645e-13 3.01768933e-12
3.46736850e+00 1.05877149e-11 2.81627154e-12 1.49316683e-14 7.75651164e-12 2.86804401e-13 2.81627154e-12
3.98107171e+00 1.08609570e-11 2.62829753e-12 1.03751687e-14 8.22228426e-12 2.22849103e-13 2.62829753e-12
4.57088190e+00 1.08531674e-11 2.45286997e-12 7.12211424e-15 8.39317536e-12 1.64739577e-13 2.45286997e-12
5.24807460e+00 1.03951340e-11 2.02814751e-12 4.09772991e-15 8.36288878e-12 1.14083458e-13 2.02814751e-12
6.02559586e+00 9.54734460e-12 1.33998377e-12 1.82863366e-15 8.20553220e-12 7.54370535e-14 1.33998377e-12
6.70000000e+00 8.98539760e-12 9.74709347e-13 9.64248764e-16 8.00972400e-12 5.28701940e-14 9.74709347e-13
6.92422916e+00 8.85168589e-12 8.83049889e-13 7.84941996e-16 7.96785106e-12 4.69982921e-14 8.83049889e-13
7.15596261e+00 8.76009599e-12 8.00009879e-13 6.18427731e-16 7.95946768e-12 4.12750746e-14 8.00009879e-13
7.39545150e+00 8.74511159e-12 7.24778763e-13 4.72111574e-16 8.01986071e-12 3.52017692e-14 7.24778763e-13
7.64295536e+00 9.03073490e-12 6.56622211e-13 3.21471773e-16 8.37379122e-12 2.87674349e-14 6.56622211e-13
7.89874245e+00 9.73779568e-12 5.94874946e-13 1.91915506e-16 9.14272882e-12 2.19040602e-14 5.94874946e-13
8.16308998e+00 1.07780494e-11 5.38934254e-13 1.08682085e-16 1.02390064e-11 1.62940319e-14 5.38934254e-13
8.43628443e+00 1.21704258e-11 4.88254098e-13 5.96997284e-17 1.16821120e-11 1.19662781e-14 4.88254098e-13
8.71862190e+00 1.30779082e-11 4.42339790e-13 3.73664258e-17 1.26355310e-11 9.44584190e-15 4.42339790e-13
9.01040836e+00 1.39201548e-11 4.00743158e-13 2.41458762e-17 1.35193874e-11 7.33666679e-15 4.00743158e-13
9.31196005e+00 1.47811199e-11 3.63058180e-13 0.00000000e+00 1.44180617e-11 0.00000000e+00 3.63058180e-13
9.62360379e+00 1.45983119e-11 3.28917012e-13 0.00000000e+00 1.42693949e-11 0.00000000e+00 3.28917012e-13
9.94567731e+00 1.40092063e-11 2.97986401e-13 0.00000000e+00 1.37112199e-11 0.00000000e+00 2.97986401e-13
1.02785297e+01 1.33348578e-11 2.69964435e-13 0.00000000e+00 1.30648933e-11 0.00000000e+00 2.69964435e-13
1.06225216e+01 1.25905063e-11 2.44577592e-13 0.00000000e+00 1.23459287e-11 0.00000000e+00 2.44577592e-13
1.09780260e+01 1.19181916e-11 2.21578069e-13 0.00000000e+00 1.16966135e-11 0.00000000e+00 2.21578069e-13
1.13454280e+01 1.12121868e-11 2.00741370e-13 0.00000000e+00 1.10114454e-11 0.00000000e+00 2.00741370e-13
1.17251259e+01 1.07479132e-11 1.81864106e-13 0.00000000e+00 1.05660491e-11 0.00000000e+00 1.81864106e-13
1.21175312e+01 1.02461673e-11 1.64762018e-13 0.00000000e+00 1.00814053e-11 0.00000000e+00 1.64762018e-13
1.25230691e+01 9.87498134e-12 1.49268171e-13 0.00000000e+00 9.72571317e-12 0.00000000e+00 1.49268171e-13
1.29421791e+01 9.56780859e-12 1.35231331e-13 0.00000000e+00 9.43257726e-12 0.00000000e+00 1.35231331e-13
1.33753155e+01 9.26026185e-12 1.22514483e-13 0.00000000e+00 9.13774736e-12 0.00000000e+00 1.22514483e-13
1.38229477e+01 9.10741352e-12 1.10993499e-13 0.00000000e+00 8.99642002e-12 0.00000000e+00 1.10993499e-13
1.42855609e+01 9.12071671e-12 1.00555922e-13 0.00000000e+00 9.02016079e-12 0.00000000e+00 1.00555922e-13
1.47636563e+01 9.30601847e-12 9.10998706e-14 0.00000000e+00 9.21491860e-12 0.00000000e+00 9.10998706e-14
1.52577522e+01 9.53460175e-12 8.25330452e-14 0.00000000e+00 9.45206871e-12 0.00000000e+00 8.25330452e-14
1.57683840e+01 9.77325504e-12 7.47718247e-14 0.00000000e+00 9.69848322e-12 0.00000000e+00 7.47718247e-14
1.62961051e+01 1.00993224e-11 6.77404517e-14 0.00000000e+00 1.00315819e-11 0.00000000e+00 6.77404517e-14
1.68414875e+01 1.03768714e-11 6.13702932e-14 0.00000000e+00 1.03155011e-11 0.00000000e+00 6.13702932e-14
1.74051222e+01 1.05673517e-11 5.55991699e-14 0.00000000e+00 1.05117526e-11 0.00000000e+00 5.55991699e-14
1.79876201e+01 1.06670081e-11 5.03707500e-14 0.00000000e+00 1.06166374e-11 0.00000000e+00 5.03707500e-14
1.85896125e+01 1.07778371e-11 4.56339988e-14 0.00000000e+00 1.07322031e-11 0.00000000e+00 4.56339988e-14
1.92117518e+01 1.07406094e-11 4.13426810e-14 0.00000000e+00 1.06992668e-11 0.00000000e+00 4.13426810e-14
1.98547123e+01 1.06089780e-11 3.74549090e-14 0.00000000e+00 1.05715231e-11 0.00000000e+00 3.74549090e-14
2.05191907e+01 1.05073078e-11 3.39327342e-14 0.00000000e+00 1.04733750e-11 0.00000000e+00 3.39327342e-14
2.12059073e+01 1.03493034e-11 3.07417768e-14 0.00000000e+00 1.03185616e-11 0.00000000e+00 3.07417768e-14
2.19156062e+01 1.02468547e-11 2.78508898e-14 0.00000000e+00 1.02190038e-11 0.00000000e+00 2.78508898e-14
2.26490567e+01 1.00952283e-11 2.52318552e-14 0.00000000e+00 1.00699965e-11 0.00000000e+00 2.52318552e-14
2.34070535e+01 9.92936091e-12 2.28591087e-14 0.00000000e+00 9.90650181e-12 0.00000000e+00 2.28591087e-14
2.41904183e+01 9.74767969e-12 2.07094900e-14 0.00000000e+00 9.72697020e-12 0.00000000e+00 2.07094900e-14
2.50000000e+01 9.48709204e-12 1.87620165e-14 0.00000000e+00 9.46833003e-12 0.00000000e+00 1.87620165e-14
2.75422870e+01 8.78339548e-12 1.40313526e-14 0.00000000e+00 8.76936412e-12 0.00000000e+00 1.40313526e-14
3.16227766e+01 7.49087630e-12 9.27042274e-15 0.00000000e+00 7.48160587e-12 0.00000000e+00 9.27042274e-15
3.63078055e+01 5.98938193e-12 6.12490756e-15 0.00000000e+00 5.98325702e-12 0.00000000e+00 6.12490756e-15
4.16869383e+01 4.47636163e-12 4.04668630e-15 0.00000000e+00 4.47231495e-12 0.00000000e+00 4.04668630e-15
4.78630092e+01 3.13191232e-12 2.67361912e-15 0.00000000e+00 3.12923870e-12 0.00000000e+00 2.67361912e-15
5.49540874e+01 2.05916478e-12 1.76644264e-15 0.00000000e+00 2.05739834e-12 0.00000000e+00 1.76644264e-15
6.30957344e+01 1.28245113e-12 1.16707708e-15 0.00000000e+00 1.28128406e-12 0.00000000e+00 1.16707708e-15
7.24435960e+01 7.66223973e-13 7.71080178e-16 0.00000000e+00 7.65452893e-13 0.00000000e+00 7.71080178e-16
8.31763771e+01 4.42319257e-13 5.09447621e-16 0.00000000e+00 4.41809810e-13 0.00000000e+00 5.09447621e-16
9.54992586e+01 2.49545476e-13 3.36588705e-16 0.00000000e+00 2.49208887e-13 0.00000000e+00 3.36588705e-16
1.09647820e+02 1.38253357e-13 2.22381952e-16 0.00000000e+00 1.38030975e-13 0.00000000e+00 2.22381952e-16
1.25892541e+02 7.63006606e-14 1.46926299e-16 0.00000000e+00 7.61537343e-14 0.00000000e+00 1.46926299e-16
1.44543977e+02 4.18233565e-14 9.70732430e-17 0.00000000e+00 4.17262832e-14 0.00000000e+00 9.70732430e-17
1.65958691e+02 2.18642712e-14 6.41356556e-17 0.00000000e+00 2.18001356e-14 0.00000000e+00 6.41356556e-17
1.90546072e+02 1.14237801e-14 4.23740075e-17 0.00000000e+00 1.13814061e-14 0.00000000e+00 4.23740075e-17
2.18776162e+02 5.95900558e-15 2.79962291e-17 0.00000000e+00 5.93100935e-15 0.00000000e+00 2.79962291e-17
2.51188643e+02 3.09792856e-15 1.84969251e-17 0.00000000e+00 3.07943163e-15 0.00000000e+00 1.84969251e-17
2.88403150e+02 1.60365220e-15 1.22207972e-17 0.00000000e+00 1.59143141e-15 0.00000000e+00 1.22207972e-17
3.31131121e+02 8.28220166e-16 8.07420067e-18 0.00000000e+00 8.20145965e-16 0.00000000e+00 8.07420067e-18
3.80189396e+02 4.26446121e-16 5.33457148e-18 0.00000000e+00 4.21111550e-16 0.00000000e+00 5.33457148e-18
4.36515832e+02 2.19213539e-16 3.52451642e-18 0.00000000e+00 2.15689022e-16 0.00000000e+00 3.52451642e-18
5.01187234e+02 1.12516070e-16 2.32862491e-18 0.00000000e+00 1.10187445e-16 0.00000000e+00 2.32862491e-18
5.75439937e+02 5.77102473e-17 1.53850722e-18 0.00000000e+00 5.61717401e-17 0.00000000e+00 1.53850722e-18
6.60693448e+02 2.96000374e-17 1.01648164e-18 0.00000000e+00 2.85835558e-17 0.00000000e+00 1.01648164e-18
7.58577575e+02 1.51933994e-17 6.71582760e-19 0.00000000e+00 1.45218167e-17 0.00000000e+00 6.71582760e-19
8.70963590e+02 7.80970017e-18 4.43710329e-19 0.00000000e+00 7.36598984e-18 0.00000000e+00 4.43710329e-19
1.00000000e+03 3.73067323e-18 0.00000000e+00 0.00000000e+00 3.73067323e-18 0.00000000e+00 0.00000000e+00
