# column 1: lambda (micron)
# column 2: total flux; lambda*F_lambda (W/m2)
# column 3: direct stellar flux; lambda*F_lambda (W/m2)
# column 4: scattered stellar flux; lambda*F_lambda (W/m2)
# column 5: total dust emission flux; lambda*F_lambda (W/m2)
# column 6: dust emission scattered flux; lambda*F_lambda (W/m2)
# column 7: transparent flux; lambda*F_lambda (W/m2)
1.00000000e-03 2.06076657e-13 2.06075710e-13 9.47143800e-19 0.00000000e+00 0.00000000e+00 2.06075710e-13
1.14815362e-03 2.43236614e-13 2.43235413e-13 1.20134767e-18 0.00000000e+00 0.00000000e+00 2.43235413e-13
1.31825674e-03 2.87098196e-13 2.87095777e-13 2.41899133e-18 0.00000000e+00 0.00000000e+00 2.87095777e-13
1.51356125e-03 3.38868681e-13 3.38865070e-13 3.61067701e-18 0.00000000e+00 0.00000000e+00 3.38865070e-13
1.73780083e-03 3.99975110e-13 3.99969435e-13 5.67516967e-18 0.00000000e+00 0.00000000e+00 3.99969435e-13
1.99526231e-03 4.72105034e-13 4.72092178e-13 1.28566925e-17 0.00000000e+00 0.00000000e+00 4.72092178e-13
2.29086765e-03 5.57241517e-13 5.57220139e-13 2.13781066e-17 0.00000000e+00 0.00000000e+00 5.57220139e-13
2.63026799e-03 6.57734259e-13 6.57698429e-13 3.58297528e-17 0.00000000e+00 0.00000000e+00 6.57698429e-13
3.01995172e-03 7.76350071e-13 7.76295028e-13 5.50430469e-17 0.00000000e+00 0.00000000e+00 7.76295028e-13
3.46736850e-03 9.16393815e-13 9.16277040e-13 1.16774191e-16 0.00000000e+00 0.00000000e+00 9.16277040e-13
3.98107171e-03 1.08166076e-12 1.08150070e-12 1.60058772e-16 0.00000000e+00 0.00000000e+00 1.08150070e-12
4.57088190e-03 1.27693152e-12 1.27651759e-12 4.13931026e-16 0.00000000e+00 0.00000000e+00 1.27651759e-12
5.24807460e-03 1.50738979e-12 1.50670006e-12 6.89732040e-16 0.00000000e+00 0.00000000e+00 1.50670006e-12
6.02559586e-03 1.77947444e-12 1.77838917e-12 1.08527295e-15 0.00000000e+00 0.00000000e+00 1.77838917e-12
6.91830971e-03 2.10102271e-12 2.09906943e-12 1.95327983e-15 0.00000000e+00 0.00000000e+00 2.09906943e-12
7.94328235e-03 2.48210207e-12 2.47757497e-12 4.52710359e-15 0.00000000e+00 0.00000000e+00 2.47757497e-12
9.12010839e-03 2.92916215e-12 2.92433286e-12 4.82929072e-15 0.00000000e+00 0.00000000e+00 2.92433286e-12
1.04712855e-02 3.27664965e-12 3.26608014e-12 1.05695134e-14 0.00000000e+00 0.00000000e+00 3.26608014e-12
1.20226443e-02 3.28737108e-12 3.26608014e-12 2.12909475e-14 0.00000000e+00 0.00000000e+00 3.26608014e-12
1.38038426e-02 3.28128624e-12 3.26608014e-12 1.52061008e-14 1.89969747e-289 3.51307464e-291 3.26608014e-12
1.58489319e-02 3.28881849e-12 3.26608014e-12 2.27383573e-14 9.07283380e-253 2.98059100e-254 3.26608014e-12
1.81970086e-02 3.30106977e-12 3.26608014e-12 3.49896281e-14 7.54167614e-221 2.77148167e-222 3.26608014e-12
2.08929613e-02 3.31176303e-12 3.26608014e-12 4.56828959e-14 4.29073437e-193 1.91833297e-194 3.26608014e-12
2.39883292e-02 3.31497485e-12 3.26608014e-12 4.88947140e-14 6.15151959e-169 2.87936301e-170 3.26608014e-12
2.75422870e-02 3.32688453e-12 3.26608014e-12 6.08043928e-14 6.52073508e-148 3.51982372e-149 3.26608014e-12
3.16227766e-02 3.32385837e-12 3.26608014e-12 5.77782349e-14 1.24086726e-129 6.57725777e-131 3.26608014e-12
3.63078055e-02 3.32579065e-12 3.26608014e-12 5.97105153e-14 9.69052572e-114 5.24645778e-115 3.26608014e-12
4.16869383e-02 3.32790800e-12 3.26608014e-12 6.18278636e-14 6.29881639e-100 3.86663621e-101 3.26608014e-12
4.78630092e-02 3.31611339e-12 3.26608014e-12 5.00332512e-14 6.26099257e-88 4.17661715e-89 3.26608014e-12
5.49540874e-02 3.31764152e-12 3.26608014e-12 5.15613843e-14 1.62454699e-77 1.10155536e-78 3.26608014e-12
6.30957344e-02 3.31382981e-12 3.26608014e-12 4.77496724e-14 2.33747648e-68 1.68161417e-69 3.26608014e-12
7.24435960e-02 3.30881523e-12 3.26608014e-12 4.27350915e-14 2.03092519e-60 1.34340681e-61 3.26608014e-12
8.31763771e-02 3.30496778e-12 3.26608014e-12 3.88876469e-14 1.24146943e-53 8.15298855e-55 3.26608014e-12
9.54992586e-02 3.30505580e-12 3.26608014e-12 3.89756636e-14 9.12355020e-48 5.94552463e-49 3.26608014e-12
1.09647820e-01 3.16322672e-12 3.11908354e-12 4.41431749e-14 1.00371848e-42 6.98107924e-44 3.11908354e-12
1.25892541e-01 2.95228523e-12 2.91089813e-12 4.13870986e-14 2.24092394e-38 1.51881529e-39 2.91089813e-12
1.44543977e-01 2.75166797e-12 2.71660820e-12 3.50597709e-14 1.22323502e-34 7.99216881e-36 2.71660820e-12
1.65958691e-01 2.57042780e-12 2.53528629e-12 3.51415142e-14 1.53758831e-31 1.08406133e-32 2.53528629e-12
1.90546072e-01 2.40327066e-12 2.36606683e-12 3.72038269e-14 5.26668145e-29 4.14467188e-30 2.36606683e-12
2.18776162e-01 2.24144134e-12 2.20814205e-12 3.32992915e-14 7.10986433e-27 5.74077668e-28 2.20814205e-12
2.51188643e-01 2.09829468e-12 2.06075806e-12 3.75366166e-14 7.48969236e-25 7.05291085e-26 2.06075806e-12
2.88403150e-01 1.95604337e-12 1.92321132e-12 3.28320446e-14 4.26193320e-23 3.94600311e-24 1.92321132e-12
3.31131121e-01 1.82500448e-12 1.79484524e-12 3.01592433e-14 1.38274482e-21 1.28814512e-22 1.79484524e-12
3.80189396e-01 1.70332685e-12 1.67504704e-12 2.82797860e-14 2.80247941e-20 2.64678870e-21 1.67504704e-12
4.36515832e-01 1.58910681e-12 1.56324485e-12 2.58615800e-14 3.81439746e-19 3.64203141e-20 1.56324485e-12
5.01187234e-01 1.48230563e-12 1.45890498e-12 2.33970075e-14 3.63600748e-18 3.51116575e-19 1.45890498e-12
5.75439937e-01 1.38087688e-12 1.36152935e-12 1.93221377e-14 2.53952454e-17 2.48277011e-18 1.36152935e-12
6.60693448e-01 1.28868137e-12 1.27065312e-12 1.78940146e-14 1.34238349e-16 1.32822468e-17 1.27065312e-12
7.58577575e-01 1.20215758e-12 1.18584249e-12 1.57519955e-14 5.63098235e-16 5.58071488e-17 1.18584249e-12
8.70963590e-01 1.12293315e-12 1.10669260e-12 1.43105885e-14 1.92995442e-15 1.88772937e-16 1.10669260e-12
1.00000000e+00 1.05108518e-12 1.03282563e-12 1.27349018e-14 5.52465025e-15 5.21252604e-16 1.03282563e-12
1.14815362e+00 9.87831799e-13 9.63888963e-13 1.01123530e-14 1.38304837e-14 1.23063187e-15 9.63888963e-13
1.31825674e+00 9.38560414e-13 8.99553520e-13 8.30095695e-15 3.07059375e-14 2.45698869e-15 8.99553520e-13
1.51356125e+00 9.06121350e-13 8.39512191e-13 6.44760129e-15 6.01615580e-14 4.24537157e-15 8.39512191e-13
1.73780083e+00 8.92281542e-13 7.83478363e-13 4.97910248e-15 1.03824077e-13 6.17679338e-15 7.83478363e-13
1.99526231e+00 8.93369518e-13 7.31184552e-13 3.58124746e-15 1.58603719e-13 7.52679898e-15 7.31184552e-13
2.29086765e+00 9.02290360e-13 6.82381128e-13 2.51132759e-15 2.17397905e-13 7.91707385e-15 6.82381128e-13
2.63026799e+00 9.10809267e-13 6.36835122e-13 1.85132410e-15 2.72122820e-13 7.33920671e-15 6.36835122e-13
3.01995172e+00 9.09247993e-13 5.94329117e-13 1.24585349e-15 3.13673023e-13 6.21786020e-15 5.94329117e-13
3.46736850e+00 8.94704908e-13 5.54660204e-13 8.17556898e-16 3.39227146e-13 4.90347639e-15 5.54660204e-13
3.98107171e+00 8.65043409e-13 5.17639021e-13 5.66687178e-16 3.46837701e-13 3.60282058e-15 5.17639021e-13
4.57088190e+00 8.20094655e-13 4.83088843e-13 3.51033503e-16 3.36654779e-13 2.42411343e-15 4.83088843e-13
5.24807460e+00 7.14010509e-13 3.99440428e-13 1.98670831e-16 3.14371409e-13 1.53471092e-15 3.99440428e-13
6.02559586e+00 5.50859817e-13 2.63907674e-13 8.11958944e-17 2.86870947e-13 9.03774136e-16 2.63907674e-13
6.70000000e+00 4.55426492e-13 1.91967457e-13 3.91419699e-17 2.63419893e-13 5.74694358e-16 1.91967457e-13
6.92422916e+00 4.29791601e-13 1.73915272e-13 3.19761399e-17 2.55844353e-13 4.91293951e-16 1.73915272e-13
7.15596261e+00 4.07887253e-13 1.57560674e-13 2.57965417e-17 2.50300782e-13 4.15949586e-16 1.57560674e-13
7.39545150e+00 3.93994094e-13 1.42744025e-13 2.00103606e-17 2.51230058e-13 3.53397041e-16 1.42744025e-13
7.64295536e+00 3.99851537e-13 1.29320701e-13 1.37148210e-17 2.70517121e-13 2.97627337e-16 1.29320701e-13
7.89874245e+00 4.33997650e-13 1.17159675e-13 8.87991989e-18 3.16829095e-13 2.44307641e-16 1.17159675e-13
8.16308998e+00 4.90751604e-13 1.06142245e-13 5.11240632e-18 3.84604247e-13 1.98827452e-16 1.06142245e-13
8.43628443e+00 5.75359181e-13 9.61608686e-14 2.92204685e-18 4.79195391e-13 1.53520734e-16 9.61608686e-14
8.71862190e+00 6.31873476e-13 8.71181185e-14 1.88403879e-18 5.44753474e-13 1.20498121e-16 8.71181185e-14
9.01040836e+00 6.92328736e-13 7.89257281e-14 1.14010908e-18 6.13401868e-13 8.73161993e-17 7.89257281e-14
9.31196005e+00 7.36908298e-13 7.15037315e-14 0.00000000e+00 6.65404566e-13 0.00000000e+00 7.15037315e-14
9.62360379e+00 7.27758169e-13 6.47796826e-14 0.00000000e+00 6.62978486e-13 0.00000000e+00 6.47796826e-14
9.94567731e+00 6.72570508e-13 5.86879481e-14 0.00000000e+00 6.13882559e-13 0.00000000e+00 5.86879481e-14
1.02785297e+01 6.11643613e-13 5.31690665e-14 0.00000000e+00 5.58474547e-13 0.00000000e+00 5.31690665e-14
1.06225216e+01 5.49421408e-13 4.81691679e-14 0.00000000e+00 5.01252240e-13 0.00000000e+00 4.81691679e-14
1.09780260e+01 4.82809664e-13 4.36394486e-14 0.00000000e+00 4.39170216e-13 0.00000000e+00 4.36394486e-14
1.13454280e+01 4.25775287e-13 3.95356937e-14 0.00000000e+00 3.86239593e-13 0.00000000e+00 3.95356937e-14
1.17251259e+01 3.78011901e-13 3.58178467e-14 0.00000000e+00 3.42194054e-13 0.00000000e+00 3.58178467e-14
1.21175312e+01 3.33977995e-13 3.24496176e-14 0.00000000e+00 3.01528378e-13 0.00000000e+00 3.24496176e-14
1.25230691e+01 2.95668759e-13 2.93981291e-14 0.00000000e+00 2.66270630e-13 0.00000000e+00 2.93981291e-14
1.29421791e+01 2.63736899e-13 2.66335956e-14 0.00000000e+00 2.37103303e-13 0.00000000e+00 2.66335956e-14
1.33753155e+01 2.36525112e-13 2.41290327e-14 0.00000000e+00 2.12396080e-13 0.00000000e+00 2.41290327e-14
1.38229477e+01 2.17829794e-13 2.18599931e-14 0.00000000e+00 1.95969801e-13 0.00000000e+00 2.18599931e-14
1.42855609e+01 2.06864418e-13 1.98043289e-14 0.00000000e+00 1.87060089e-13 0.00000000e+00 1.98043289e-14
1.47636563e+01 2.06705468e-13 1.79419747e-14 0.00000000e+00 1.88763494e-13 0.00000000e+00 1.79419747e-14
1.52577522e+01 2.09875578e-13 1.62547521e-14 0.00000000e+00 1.93620825e-13 0.00000000e+00 1.62547521e-14
1.57683840e+01 2.14565861e-13 1.47261920e-14 0.00000000e+00 1.99839669e-13 0.00000000e+00 1.47261920e-14
1.62961051e+01 2.19111327e-13 1.33413743e-14 0.00000000e+00 2.05769953e-13 0.00000000e+00 1.33413743e-14
1.68414875e+01 2.24603225e-13 1.20867817e-14 0.00000000e+00 2.12516444e-13 0.00000000e+00 1.20867817e-14
1.74051222e+01 2.26339398e-13 1.09501681e-14 0.00000000e+00 2.15389230e-13 0.00000000e+00 1.09501681e-14
1.79876201e+01 2.26559801e-13 9.92043915e-15 0.00000000e+00 2.16639362e-13 0.00000000e+00 9.92043915e-15
1.85896125e+01 2.22322421e-13 8.98754353e-15 0.00000000e+00 2.13334877e-13 0.00000000e+00 8.98754353e-15
1.92117518e+01 2.14662367e-13 8.14237531e-15 0.00000000e+00 2.06519991e-13 0.00000000e+00 8.14237531e-15
1.98547123e+01 2.04758276e-13 7.37668479e-15 0.00000000e+00 1.97381591e-13 0.00000000e+00 7.37668479e-15
2.05191907e+01 1.94961803e-13 6.68299807e-15 0.00000000e+00 1.88278805e-13 0.00000000e+00 6.68299807e-15
2.12059073e+01 1.86320575e-13 6.05454408e-15 0.00000000e+00 1.80266031e-13 0.00000000e+00 6.05454408e-15
2.19156062e+01 1.78337742e-13 5.48518847e-15 0.00000000e+00 1.72852554e-13 0.00000000e+00 5.48518847e-15
2.26490567e+01 1.71443331e-13 4.96937378e-15 0.00000000e+00 1.66473957e-13 0.00000000e+00 4.96937378e-15
2.34070535e+01 1.65187602e-13 4.50206513e-15 0.00000000e+00 1.60685537e-13 0.00000000e+00 4.50206513e-15
2.41904183e+01 1.59342345e-13 4.07870113e-15 0.00000000e+00 1.55263644e-13 0.00000000e+00 4.07870113e-15
2.50000000e+01 1.54488268e-13 3.69514932e-15 0.00000000e+00 1.50793118e-13 0.00000000e+00 3.69514932e-15
2.75422870e+01 1.41189047e-13 2.76345259e-15 0.00000000e+00 1.38425594e-13 0.00000000e+00 2.76345259e-15
3.16227766e+01 1.24767165e-13 1.82579502e-15 0.00000000e+00 1.22941370e-13 0.00000000e+00 1.82579502e-15
3.63078055e+01 1.08160845e-13 1.20629081e-15 0.00000000e+00 1.06954555e-13 0.00000000e+00 1.20629081e-15
4.16869383e+01 8.98693760e-14 7.96988434e-16 0.00000000e+00 8.90723876e-14 0.00000000e+00 7.96988434e-16
4.78630092e+01 7.09681004e-14 5.26565037e-16 0.00000000e+00 7.04415353e-14 0.00000000e+00 5.26565037e-16
5.49540874e+01 5.33525783e-14 3.47898070e-16 0.00000000e+00 5.30046803e-14 0.00000000e+00 3.47898070e-16
6.30957344e+01 3.82453426e-14 2.29853975e-16 0.00000000e+00 3.80154886e-14 0.00000000e+00 2.29853975e-16
7.24435960e+01 2.62559985e-14 1.51863015e-16 0.00000000e+00 2.61041354e-14 0.00000000e+00 1.51863015e-16
8.31763771e+01 1.73482833e-14 1.00334899e-16 0.00000000e+00 1.72479484e-14 0.00000000e+00 1.00334899e-16
9.54992586e+01 1.10822552e-14 6.62906105e-17 0.00000000e+00 1.10159646e-14 0.00000000e+00 6.62906105e-17
1.09647820e+02 6.87172056e-15 4.37977720e-17 0.00000000e+00 6.82792278e-15 0.00000000e+00 4.37977720e-17
1.25892541e+02 4.20019584e-15 2.89369010e-17 0.00000000e+00 4.17125894e-15 0.00000000e+00 2.89369010e-17
1.44543977e+02 2.51854865e-15 1.91184209e-17 0.00000000e+00 2.49943023e-15 0.00000000e+00 1.91184209e-17
1.65958691e+02 1.42554260e-15 1.26314154e-17 0.00000000e+00 1.41291118e-15 0.00000000e+00 1.26314154e-17
1.90546072e+02 7.98937330e-16 8.34549342e-18 0.00000000e+00 7.90591836e-16 0.00000000e+00 8.34549342e-18
2.18776162e+02 4.42931656e-16 5.51381282e-18 0.00000000e+00 4.37417843e-16 0.00000000e+00 5.51381282e-18
2.51188643e+02 2.42847479e-16 3.64294000e-18 0.00000000e+00 2.39204539e-16 0.00000000e+00 3.64294000e-18
2.88403150e+02 1.31680791e-16 2.40686659e-18 0.00000000e+00 1.29273925e-16 0.00000000e+00 2.40686659e-18
3.31131121e+02 7.08455570e-17 1.59020099e-18 0.00000000e+00 6.92553560e-17 0.00000000e+00 1.59020099e-18
3.80189396e+02 3.78194680e-17 1.05063537e-18 0.00000000e+00 3.67688327e-17 0.00000000e+00 1.05063537e-18
4.36515832e+02 2.00793284e-17 6.94147908e-19 0.00000000e+00 1.93851805e-17 0.00000000e+00 6.94147908e-19
5.01187234e+02 1.06121835e-17 4.58618975e-19 0.00000000e+00 1.01535645e-17 0.00000000e+00 4.58618975e-19
5.75439937e+02 5.59198845e-18 3.03006552e-19 0.00000000e+00 5.28898190e-18 0.00000000e+00 3.03006552e-19
6.60693448e+02 2.94223261e-18 2.00194443e-19 0.00000000e+00 2.74203817e-18 0.00000000e+00 2.00194443e-19
7.58577575e+02 1.54804594e-18 1.32267157e-19 0.00000000e+00 1.41577878e-18 0.00000000e+00 1.32267157e-19
8.70963590e+02 8.15629813e-19 8.73880441e-20 0.00000000e+00 7.28241769e-19 0.00000000e+00 8.73880441e-20
1.00000000e+03 3.73323401e-19 0.00000000e+00 0.00000000e+00 3.73323401e-19 0.00000000e+00 0.00000000e+00
