# column 1: lambda (micron)
# column 2: total flux; lambda*F_lambda (W/m2)
# column 3: direct stellar flux; lambda*F_lambda (W/m2)
# column 4: scattered stellar flux; lambda*F_lambda (W/m2)
# column 5: total dust emission flux; lambda*F_lambda (W/m2)
# column 6: dust emission scattered flux; lambda*F_lambda (W/m2)
# column 7: transparent flux; lambda*F_lambda (W/m2)
1.00000000e-03 1.07335684e-12 1.07335627e-12 5.70514798e-19 0.00000000e+00 0.00000000e+00 1.07335627e-12
1.14815362e-03 1.26690544e-12 1.26690456e-12 8.80198832e-19 0.00000000e+00 0.00000000e+00 1.26690456e-12
1.31825674e-03 1.49535496e-12 1.49535359e-12 1.37040478e-18 0.00000000e+00 0.00000000e+00 1.49535359e-12
1.51356125e-03 1.76499882e-12 1.76499670e-12 2.12518615e-18 0.00000000e+00 0.00000000e+00 1.76499670e-12
1.73780083e-03 2.08326586e-12 2.08326203e-12 3.83011393e-18 0.00000000e+00 0.00000000e+00 2.08326203e-12
1.99526231e-03 2.45892414e-12 2.45891716e-12 6.98553958e-18 0.00000000e+00 0.00000000e+00 2.45891716e-12
2.29086765e-03 2.90232154e-12 2.90231066e-12 1.08754630e-17 0.00000000e+00 0.00000000e+00 2.90231066e-12
2.63026799e-03 3.42567835e-12 3.42565717e-12 2.11845766e-17 0.00000000e+00 0.00000000e+00 3.42565717e-12
3.01995172e-03 4.04340881e-12 4.04337385e-12 3.49644140e-17 0.00000000e+00 0.00000000e+00 4.04337385e-12
3.46736850e-03 4.77253746e-12 4.77247759e-12 5.98708680e-17 0.00000000e+00 0.00000000e+00 4.77247759e-12
3.98107171e-03 5.63314977e-12 5.63305378e-12 9.59934994e-17 0.00000000e+00 0.00000000e+00 5.63305378e-12
4.57088190e-03 6.64902644e-12 6.64880962e-12 2.16815717e-16 0.00000000e+00 0.00000000e+00 6.64880962e-12
5.24807460e-03 7.84810422e-12 7.84772720e-12 3.77022134e-16 0.00000000e+00 0.00000000e+00 7.84772720e-12
6.02559586e-03 9.26352379e-12 9.26283435e-12 6.89431849e-16 0.00000000e+00 0.00000000e+00 9.26283435e-12
6.91830971e-03 1.09341874e-11 1.09331145e-11 1.07283595e-15 0.00000000e+00 0.00000000e+00 1.09331145e-11
7.94328235e-03 1.29064349e-11 1.29045807e-11 1.85418357e-15 0.00000000e+00 0.00000000e+00 1.29045807e-11
9.12010839e-03 1.52344684e-11 1.52315429e-11 2.92550955e-15 0.00000000e+00 0.00000000e+00 1.52315429e-11
1.04712855e-02 1.70156975e-11 1.70115517e-11 4.14577443e-15 0.00000000e+00 0.00000000e+00 1.70115517e-11
1.20226443e-02 1.70178154e-11 1.70115517e-11 6.26369830e-15 1.46881512e-312 1.29544793e-314 1.70115517e-11
1.38038426e-02 1.70208143e-11 1.70115517e-11 9.26262506e-15 3.50221320e-273 3.44745432e-275 1.70115517e-11
1.58489319e-02 1.70261172e-11 1.70115517e-11 1.45655197e-14 6.58840068e-239 7.60448925e-241 1.70115517e-11
1.81970086e-02 1.70312684e-11 1.70115517e-11 1.97166625e-14 4.43691616e-209 6.52112054e-211 1.70115517e-11
2.08929613e-02 1.70398974e-11 1.70115517e-11 2.83457320e-14 3.77460937e-183 6.52455929e-185 1.70115517e-11
2.39883292e-02 1.70442193e-11 1.70115517e-11 3.26675957e-14 1.39971124e-160 3.12439410e-162 1.70115517e-11
2.75422870e-02 1.70559600e-11 1.70115517e-11 4.44082553e-14 6.09323970e-141 1.57886032e-142 1.70115517e-11
3.16227766e-02 1.70672094e-11 1.70115517e-11 5.56576875e-14 7.26013881e-124 2.27697452e-125 1.70115517e-11
3.63078055e-02 1.70786786e-11 1.70115517e-11 6.71268510e-14 5.03480075e-109 1.74995447e-110 1.70115517e-11
4.16869383e-02 1.71052133e-11 1.70115517e-11 9.36615710e-14 3.98317876e-96 1.79652704e-97 1.70115517e-11
4.78630092e-02 1.71429835e-11 1.70115517e-11 1.31431735e-13 6.36479405e-85 3.75138161e-86 1.70115517e-11
5.49540874e-02 1.71746202e-11 1.70115517e-11 1.63068436e-13 3.39775699e-75 2.43785670e-76 1.70115517e-11
6.30957344e-02 1.72184949e-11 1.70115517e-11 2.06943196e-13 1.26518547e-66 1.09887532e-67 1.70115517e-11
7.24435960e-02 1.72140431e-11 1.70115517e-11 2.02491386e-13 3.58661679e-59 3.28041478e-60 1.70115517e-11
8.31763771e-02 1.72152620e-11 1.70115517e-11 2.03710258e-13 9.51774158e-53 9.65225084e-54 1.70115517e-11
9.54992586e-02 1.72247523e-11 1.70115517e-11 2.13200586e-13 4.40889220e-47 5.33524930e-48 1.70115517e-11
1.09647820e-01 1.64645684e-11 1.62459122e-11 2.18656265e-13 4.16182014e-42 5.83209520e-43 1.62459122e-11
1.25892541e-01 1.53501403e-11 1.51615674e-11 1.88572887e-13 9.52754146e-38 1.35715983e-38 1.51615674e-11
1.44543977e-01 1.43219713e-11 1.41495980e-11 1.72373362e-13 5.77598961e-34 8.24789880e-35 1.41495980e-11
1.65958691e-01 1.33832474e-11 1.32051732e-11 1.78074274e-13 8.50385038e-31 1.35197517e-31 1.32051732e-11
1.90546072e-01 1.25306336e-11 1.23237846e-11 2.06848996e-13 3.46904695e-28 6.67909372e-29 1.23237846e-11
2.18776162e-01 1.17116461e-11 1.15012250e-11 2.10421081e-13 5.50889972e-26 1.17594532e-26 1.15012250e-11
2.51188643e-01 1.09777278e-11 1.07335677e-11 2.44160129e-13 7.42219504e-24 1.91355199e-24 1.07335677e-11
2.88403150e-01 1.02385853e-11 1.00171482e-11 2.21437084e-13 5.10955408e-22 1.34458541e-22 1.00171482e-11
3.31131121e-01 9.54740994e-12 9.34854667e-12 1.98863247e-13 1.92788035e-20 5.12438549e-21 9.34854667e-12
3.80189396e-01 8.90499844e-12 8.72457139e-12 1.80426620e-13 4.32641747e-19 1.16550033e-19 8.72457139e-12
4.36515832e-01 8.31129615e-12 8.14224377e-12 1.69046196e-13 6.18481911e-18 1.67348659e-18 8.14224377e-12
5.01187234e-01 7.75439725e-12 7.59878402e-12 1.55554002e-13 5.92360376e-17 1.61438520e-17 7.59878402e-12
5.75439937e-01 7.23480111e-12 7.09159786e-12 1.42799856e-13 4.03392874e-16 1.09661701e-16 7.09159786e-12
6.60693448e-01 6.75710154e-12 6.61826421e-12 1.36810839e-13 2.02649035e-15 5.43767695e-16 6.61826421e-12
7.58577575e-01 6.30899551e-12 6.17652353e-12 1.24575764e-13 7.89620929e-15 2.05202486e-15 6.17652353e-12
8.70963590e-01 5.90005942e-12 5.76426715e-12 1.10926181e-13 2.48660893e-14 6.16222930e-15 5.76426715e-12
1.00000000e+00 5.54144343e-12 5.37952711e-12 9.65938948e-14 6.53224263e-14 1.50909531e-14 5.37952711e-12
1.14815362e+00 5.24951670e-12 5.02046681e-12 8.13233115e-14 1.47726573e-13 3.06347024e-14 5.02046681e-12
1.31825674e+00 5.04831024e-12 4.68537225e-12 6.51511291e-14 2.97786864e-13 5.35894594e-14 4.68537225e-12
1.51356125e+00 4.95990352e-12 4.37264380e-12 5.04736365e-14 5.36786086e-13 8.20524842e-14 4.37264380e-12
1.73780083e+00 4.98004997e-12 4.08078863e-12 3.91073254e-14 8.60154010e-13 1.07309752e-13 4.08078863e-12
1.99526231e+00 5.07592753e-12 3.80841354e-12 2.83500338e-14 1.23916396e-12 1.21238441e-13 3.80841354e-12
2.29086765e+00 5.19656631e-12 3.55421832e-12 2.01761129e-14 1.62217188e-12 1.19709381e-13 3.55421832e-12
2.63026799e+00 5.29113510e-12 3.31698953e-12 1.40076222e-14 1.96013795e-12 1.07049163e-13 3.31698953e-12
3.01995172e+00 5.33646361e-12 3.09559474e-12 9.64927902e-15 2.23121959e-12 8.92840814e-14 3.09559474e-12
3.46736850e+00 5.29665586e-12 2.88897711e-12 6.82881456e-15 2.40084993e-12 7.00478826e-14 2.88897711e-12
3.98107171e+00 5.16878169e-12 2.69615031e-12 4.55843282e-15 2.46807295e-12 5.11844972e-14 2.69615031e-12
4.57088190e+00 4.97280760e-12 2.51619387e-12 2.95771600e-15 2.45365601e-12 3.58537551e-14 2.51619387e-12
5.24807460e+00 4.47899547e-12 2.08050667e-12 1.64775408e-15 2.39684105e-12 2.36617887e-14 2.08050667e-12
6.02559586e+00 3.68165819e-12 1.37457712e-12 7.17912867e-16 2.30636315e-12 1.48332995e-14 1.37457712e-12
6.70000000e+00 3.21771227e-12 9.99872685e-13 3.66117874e-16 2.21747347e-12 9.96513012e-15 9.99872685e-13
6.92422916e+00 3.09744913e-12 9.05846924e-13 2.98032071e-16 2.19130418e-12 8.80231167e-15 9.05846924e-13
7.15596261e+00 2.99258818e-12 8.20663132e-13 2.29129681e-16 2.17169592e-12 7.61833284e-15 8.20663132e-13
7.39545150e+00 2.93754157e-12 7.43489831e-13 1.76083427e-16 2.19387565e-12 6.55027701e-15 7.43489831e-13
7.64295536e+00 3.00436236e-12 6.73573732e-13 1.23895339e-16 2.33066473e-12 5.49765907e-15 6.73573732e-13
7.89874245e+00 3.25970316e-12 6.10232385e-13 7.83543119e-17 2.64939242e-12 4.39721466e-15 6.10232385e-13
8.16308998e+00 3.65224056e-12 5.52847515e-13 4.58477288e-17 3.09934720e-12 3.45388535e-15 5.52847515e-13
8.43628443e+00 4.23197799e-12 5.00858987e-13 2.50601507e-17 3.73109394e-12 2.64587392e-15 5.00858987e-13
8.71862190e+00 4.64905094e-12 4.53759343e-13 1.62171318e-17 4.19527538e-12 2.11612876e-15 4.53759343e-13
9.01040836e+00 5.09063376e-12 4.11088843e-13 1.02350747e-17 4.67953469e-12 1.63420784e-15 4.11088843e-13
9.31196005e+00 5.44426654e-12 3.72430980e-13 0.00000000e+00 5.07183556e-12 0.00000000e+00 3.72430980e-13
9.62360379e+00 5.45078055e-12 3.37408415e-13 0.00000000e+00 5.11337214e-12 0.00000000e+00 3.37408415e-13
9.94567731e+00 5.17954900e-12 3.05679292e-13 0.00000000e+00 4.87386970e-12 0.00000000e+00 3.05679292e-13
1.02785297e+01 4.81187277e-12 2.76933904e-13 0.00000000e+00 4.53493886e-12 0.00000000e+00 2.76933904e-13
1.06225216e+01 4.46778987e-12 2.50891667e-13 0.00000000e+00 4.21689821e-12 0.00000000e+00 2.50891667e-13
1.09780260e+01 4.07981901e-12 2.27298384e-13 0.00000000e+00 3.85252062e-12 0.00000000e+00 2.27298384e-13
1.13454280e+01 3.73022217e-12 2.05923759e-13 0.00000000e+00 3.52429841e-12 0.00000000e+00 2.05923759e-13
1.17251259e+01 3.45823847e-12 1.86559155e-13 0.00000000e+00 3.27167932e-12 0.00000000e+00 1.86559155e-13
1.21175312e+01 3.18648796e-12 1.69015555e-13 0.00000000e+00 3.01747241e-12 0.00000000e+00 1.69015555e-13
1.25230691e+01 2.94370587e-12 1.53121715e-13 0.00000000e+00 2.79058416e-12 0.00000000e+00 1.53121715e-13
1.29421791e+01 2.74616718e-12 1.38722496e-13 0.00000000e+00 2.60744468e-12 0.00000000e+00 1.38722496e-13
1.33753155e+01 2.57428493e-12 1.25677347e-13 0.00000000e+00 2.44860758e-12 0.00000000e+00 1.25677347e-13
1.38229477e+01 2.47392420e-12 1.13858934e-13 0.00000000e+00 2.36006527e-12 0.00000000e+00 1.13858934e-13
1.42855609e+01 2.42948569e-12 1.03151898e-13 0.00000000e+00 2.32633379e-12 0.00000000e+00 1.03151898e-13
1.47636563e+01 2.49491440e-12 9.34517274e-14 0.00000000e+00 2.40146267e-12 0.00000000e+00 9.34517274e-14
1.52577522e+01 2.57832231e-12 8.46637387e-14 0.00000000e+00 2.49365857e-12 0.00000000e+00 8.46637387e-14
1.57683840e+01 2.69879217e-12 7.67021526e-14 0.00000000e+00 2.62209002e-12 0.00000000e+00 7.67021526e-14
1.62961051e+01 2.82824432e-12 6.94892560e-14 0.00000000e+00 2.75875506e-12 0.00000000e+00 6.94892560e-14
1.68414875e+01 2.94435857e-12 6.29546439e-14 0.00000000e+00 2.88140393e-12 0.00000000e+00 6.29546439e-14
1.74051222e+01 3.03520243e-12 5.70345319e-14 0.00000000e+00 2.97816790e-12 0.00000000e+00 5.70345319e-14
1.79876201e+01 3.12660093e-12 5.16711337e-14 0.00000000e+00 3.07492980e-12 0.00000000e+00 5.16711337e-14
1.85896125e+01 3.14204481e-12 4.68120974e-14 0.00000000e+00 3.09523272e-12 0.00000000e+00 4.68120974e-14
1.92117518e+01 3.13924287e-12 4.24099939e-14 0.00000000e+00 3.09683288e-12 0.00000000e+00 4.24099939e-14
1.98547123e+01 3.09743016e-12 3.84218542e-14 0.00000000e+00 3.05900830e-12 0.00000000e+00 3.84218542e-14
2.05191907e+01 3.05682744e-12 3.48087501e-14 0.00000000e+00 3.02201869e-12 0.00000000e+00 3.48087501e-14
2.12059073e+01 3.00508823e-12 3.15354141e-14 0.00000000e+00 2.97355281e-12 0.00000000e+00 3.15354141e-14
2.19156062e+01 2.95698744e-12 2.85698952e-14 0.00000000e+00 2.92841755e-12 0.00000000e+00 2.85698952e-14
2.26490567e+01 2.92081259e-12 2.58832470e-14 0.00000000e+00 2.89492934e-12 0.00000000e+00 2.58832470e-14
2.34070535e+01 2.87479902e-12 2.34492452e-14 0.00000000e+00 2.85134977e-12 0.00000000e+00 2.34492452e-14
2.41904183e+01 2.83376795e-12 2.12441313e-14 0.00000000e+00 2.81252382e-12 0.00000000e+00 2.12441313e-14
2.50000000e+01 2.79684518e-12 1.92463813e-14 0.00000000e+00 2.77759880e-12 0.00000000e+00 1.92463813e-14
2.75422870e+01 2.65684749e-12 1.43935895e-14 0.00000000e+00 2.64245390e-12 0.00000000e+00 1.43935895e-14
3.16227766e+01 2.38462520e-12 9.50975027e-15 0.00000000e+00 2.37511545e-12 0.00000000e+00 9.50975027e-15
3.63078055e+01 2.01725280e-12 6.28302969e-15 0.00000000e+00 2.01096977e-12 0.00000000e+00 6.28302969e-15
4.16869383e+01 1.59259125e-12 4.15115655e-15 0.00000000e+00 1.58844010e-12 0.00000000e+00 4.15115655e-15
4.78630092e+01 1.16748527e-12 2.74264194e-15 0.00000000e+00 1.16474263e-12 0.00000000e+00 2.74264194e-15
5.49540874e+01 8.04265632e-13 1.81204556e-15 0.00000000e+00 8.02453587e-13 0.00000000e+00 1.81204556e-15
6.30957344e+01 5.24770281e-13 1.19720663e-15 0.00000000e+00 5.23573075e-13 0.00000000e+00 1.19720663e-15
7.24435960e+01 3.27104914e-13 7.90986575e-16 0.00000000e+00 3.26313927e-13 0.00000000e+00 7.90986575e-16
8.31763771e+01 1.96835664e-13 5.22599647e-16 0.00000000e+00 1.96313064e-13 0.00000000e+00 5.22599647e-16
9.54992586e+01 1.15169761e-13 3.45278163e-16 0.00000000e+00 1.14824483e-13 0.00000000e+00 3.45278163e-16
1.09647820e+02 6.59929406e-14 2.28123020e-16 0.00000000e+00 6.57648175e-14 0.00000000e+00 2.28123020e-16
1.25892541e+02 3.75563075e-14 1.50719385e-16 0.00000000e+00 3.74055881e-14 0.00000000e+00 1.50719385e-16
1.44543977e+02 2.11580176e-14 9.95793099e-17 0.00000000e+00 2.10584383e-14 0.00000000e+00 9.95793099e-17
1.65958691e+02 1.13309328e-14 6.57913976e-17 0.00000000e+00 1.12651414e-14 0.00000000e+00 6.57913976e-17
1.90546072e+02 6.05090331e-15 4.34679453e-17 0.00000000e+00 6.00743537e-15 0.00000000e+00 4.34679453e-17
2.18776162e+02 3.21743222e-15 2.87189867e-17 0.00000000e+00 3.18871323e-15 0.00000000e+00 2.87189867e-17
2.51188643e+02 1.70148308e-15 1.89744463e-17 0.00000000e+00 1.68250863e-15 0.00000000e+00 1.89744463e-17
2.88403150e+02 8.94353788e-16 1.25362924e-17 0.00000000e+00 8.81817495e-16 0.00000000e+00 1.25362924e-17
3.31131121e+02 4.68350470e-16 8.28264623e-18 0.00000000e+00 4.60067824e-16 0.00000000e+00 8.28264623e-18
3.80189396e+02 2.44224878e-16 5.47229010e-18 0.00000000e+00 2.38752588e-16 0.00000000e+00 5.47229010e-18
4.36515832e+02 1.27046881e-16 3.61550621e-18 0.00000000e+00 1.23431375e-16 0.00000000e+00 3.61550621e-18
5.01187234e+02 6.59587650e-17 2.38874127e-18 0.00000000e+00 6.35700238e-17 0.00000000e+00 2.38874127e-18
5.75439937e+02 3.42137216e-17 1.57822570e-18 0.00000000e+00 3.26354959e-17 0.00000000e+00 1.57822570e-18
6.60693448e+02 1.77514722e-17 1.04272338e-18 0.00000000e+00 1.67087489e-17 0.00000000e+00 1.04272338e-18
7.58577575e+02 9.22312504e-18 6.88920507e-19 0.00000000e+00 8.53420454e-18 0.00000000e+00 6.88920507e-19
8.70963590e+02 4.80411414e-18 4.55165265e-19 0.00000000e+00 4.34894887e-18 0.00000000e+00 4.55165265e-19
1.00000000e+03 2.21148306e-18 0.00000000e+00 0.00000000e+00 2.21148306e-18 0.00000000e+00 0.00000000e+00
