# column 1: lambda (micron)
# column 2: total flux; lambda*F_lambda (W/m2)
# column 3: direct stellar flux; lambda*F_lambda (W/m2)
# column 4: scattered stellar flux; lambda*F_lambda (W/m2)
# column 5: total dust emission flux; lambda*F_lambda (W/m2)
# column 6: dust emission scattered flux; lambda*F_lambda (W/m2)
# column 7: transparent flux; lambda*F_lambda (W/m2)
1.00000000e-03 6.93993881e-13 6.93993746e-13 1.35472863e-19 0.00000000e+00 0.00000000e+00 6.93993746e-13
1.14815362e-03 8.19135351e-13 8.19135139e-13 2.11774465e-19 0.00000000e+00 0.00000000e+00 8.19135139e-13
1.31825674e-03 9.66842477e-13 9.66842108e-13 3.68731295e-19 0.00000000e+00 0.00000000e+00 9.66842108e-13
1.51356125e-03 1.14118425e-12 1.14118369e-12 5.61706343e-19 0.00000000e+00 0.00000000e+00 1.14118369e-12
1.73780083e-03 1.34696371e-12 1.34696266e-12 1.04729762e-18 0.00000000e+00 0.00000000e+00 1.34696266e-12
1.99526231e-03 1.58984973e-12 1.58984782e-12 1.90230025e-18 0.00000000e+00 0.00000000e+00 1.58984782e-12
2.29086765e-03 1.87653300e-12 1.87653019e-12 2.80626718e-18 0.00000000e+00 0.00000000e+00 1.87653019e-12
2.63026799e-03 2.21491324e-12 2.21490731e-12 5.92911862e-18 0.00000000e+00 0.00000000e+00 2.21490731e-12
3.01995172e-03 2.61431084e-12 2.61430080e-12 1.00359017e-17 0.00000000e+00 0.00000000e+00 2.61430080e-12
3.46736850e-03 3.08573030e-12 3.08571319e-12 1.71175461e-17 0.00000000e+00 0.00000000e+00 3.08571319e-12
3.98107171e-03 3.64215723e-12 3.64213095e-12 2.62822829e-17 0.00000000e+00 0.00000000e+00 3.64213095e-12
4.57088190e-03 4.29894132e-12 4.29888232e-12 5.89984928e-17 0.00000000e+00 0.00000000e+00 4.29888232e-12
5.24807460e-03 5.07416692e-12 5.07405951e-12 1.07408895e-16 0.00000000e+00 0.00000000e+00 5.07405951e-12
6.02559586e-03 5.98921912e-12 5.98901715e-12 2.01976099e-16 0.00000000e+00 0.00000000e+00 5.98901715e-12
6.91830971e-03 7.06924446e-12 7.06896053e-12 2.83933397e-16 0.00000000e+00 0.00000000e+00 7.06896053e-12
7.94328235e-03 8.34414237e-12 8.34363998e-12 5.02387800e-16 6.23952382e-304 2.02322010e-306 8.34363998e-12
9.12010839e-03 9.84898754e-12 9.84817045e-12 8.17094930e-16 3.52705942e-265 1.88207006e-267 9.84817045e-12
1.04712855e-02 1.10001697e-11 1.09990604e-11 1.10923977e-15 1.86166669e-231 1.51161692e-233 1.09990604e-11
1.20226443e-02 1.10007412e-11 1.09990604e-11 1.68073486e-15 3.52711165e-202 2.68303114e-204 1.09990604e-11
1.38038426e-02 1.10013210e-11 1.09990604e-11 2.26055554e-15 1.13951296e-176 1.40256734e-178 1.09990604e-11
1.58489319e-02 1.10026009e-11 1.09990604e-11 3.54047018e-15 1.78598078e-154 2.74124708e-156 1.09990604e-11
1.81970086e-02 1.10034240e-11 1.09990604e-11 4.36353303e-15 3.62176919e-135 6.65639538e-137 1.09990604e-11
2.08929613e-02 1.10068678e-11 1.09990604e-11 7.80733362e-15 2.11052748e-118 4.11190641e-120 1.09990604e-11
2.39883292e-02 1.10082139e-11 1.09990604e-11 9.15346167e-15 8.18040452e-104 2.05279721e-105 1.09990604e-11
2.75422870e-02 1.10098346e-11 1.09990604e-11 1.07741301e-14 3.98892549e-91 1.18998494e-92 1.09990604e-11
3.16227766e-02 1.10137469e-11 1.09990604e-11 1.46864300e-14 4.18031541e-80 1.33810322e-81 1.09990604e-11
3.63078055e-02 1.10150719e-11 1.09990604e-11 1.60114444e-14 1.54206037e-70 5.10306229e-72 1.09990604e-11
4.16869383e-02 1.10223628e-11 1.09990604e-11 2.33023930e-14 3.11160642e-62 1.30342788e-63 1.09990604e-11
4.78630092e-02 1.10312044e-11 1.09990604e-11 3.21439337e-14 4.92089573e-55 2.28663347e-56 1.09990604e-11
5.49540874e-02 1.10369048e-11 1.09990604e-11 3.78443907e-14 8.49086420e-49 4.21389904e-50 1.09990604e-11
6.30957344e-02 1.10436135e-11 1.09990604e-11 4.45530862e-14 2.81280020e-43 1.35921314e-44 1.09990604e-11
7.24435960e-02 1.10433111e-11 1.09990604e-11 4.42506277e-14 1.66523967e-38 7.03424818e-40 1.09990604e-11
8.31763771e-02 1.10436425e-11 1.09990604e-11 4.45820416e-14 1.75328751e-34 7.28550737e-36 1.09990604e-11
9.54992586e-02 1.10439433e-11 1.09990604e-11 4.48828996e-14 5.06104748e-31 2.13779343e-32 1.09990604e-11
1.09647820e-01 1.05514185e-11 1.05040253e-11 4.73932257e-14 4.40932594e-28 2.11166515e-29 1.05040253e-11
1.25892541e-01 9.84580657e-12 9.80292679e-12 4.28797735e-14 1.46686806e-25 7.60832129e-27 9.80292679e-12
1.44543977e-01 9.18581431e-12 9.14862359e-12 3.71907212e-14 2.04112351e-23 1.10261031e-24 9.14862359e-12
1.65958691e-01 8.57723053e-12 8.53799231e-12 3.92382110e-14 1.05292227e-21 6.53985610e-23 8.53799231e-12
1.90546072e-01 8.01288288e-12 7.96811805e-12 4.47648141e-14 2.23607077e-20 1.55714089e-21 7.96811805e-12
2.18776162e-01 7.48109101e-12 7.43628044e-12 4.48103107e-14 2.65059410e-19 1.74287184e-20 7.43628044e-12
2.51188643e-01 6.99158172e-12 6.93994070e-12 5.16377612e-14 3.26445304e-18 2.76843110e-19 6.93994070e-12
2.88403150e-01 6.52579448e-12 6.47672950e-12 4.90372929e-14 2.76867673e-17 2.55212295e-18 6.47672950e-12
3.31131121e-01 6.08941136e-12 6.04443567e-12 4.48151404e-14 1.60553372e-16 1.50305760e-17 6.04443567e-12
3.80189396e-01 5.68064387e-12 5.64099558e-12 3.89734093e-14 6.74881935e-16 6.31056310e-17 5.64099558e-12
4.36515832e-01 5.30239215e-12 5.26448339e-12 3.57584212e-14 2.15033993e-15 2.01848666e-16 5.26448339e-12
5.01187234e-01 4.95252452e-12 4.91310176e-12 3.40088312e-14 5.41393070e-15 5.23278023e-16 4.91310176e-12
5.75439937e-01 4.62702239e-12 4.58517335e-12 3.06857053e-14 1.11633354e-14 1.05787986e-15 4.58517335e-12
6.60693448e-01 4.32800216e-12 4.27913275e-12 2.91517857e-14 1.97176265e-14 1.88089719e-15 4.27913275e-12
7.58577575e-01 4.05092868e-12 3.99351904e-12 2.62868335e-14 3.11228082e-14 2.98186874e-15 3.99351904e-12
8.70963590e-01 3.79541848e-12 3.72696882e-12 2.30639862e-14 4.53856730e-14 4.40062234e-15 3.72696882e-12
1.00000000e+00 3.56093972e-12 3.47820968e-12 1.99921307e-14 6.27379114e-14 5.99583909e-15 3.47820968e-12
1.14815362e+00 3.34951177e-12 3.24605414e-12 1.62434115e-14 8.72142133e-14 8.19655397e-15 3.24605414e-12
1.31825674e+00 3.16715468e-12 3.02939399e-12 1.35268345e-14 1.24233859e-13 1.09243994e-14 3.02939399e-12
1.51356125e+00 3.01593835e-12 2.82719497e-12 9.62537426e-15 1.79118009e-13 1.41299839e-14 2.82719497e-12
1.73780083e+00 2.89691857e-12 2.63849186e-12 7.39577373e-15 2.51030927e-13 1.64536730e-14 2.63849186e-12
1.99526231e+00 2.79978936e-12 2.46238388e-12 5.55665875e-15 3.31848816e-13 1.71730781e-14 2.46238388e-12
2.29086765e+00 2.70927422e-12 2.29803035e-12 3.70311279e-15 4.07540763e-13 1.57462698e-14 2.29803035e-12
2.63026799e+00 2.61196204e-12 2.14464670e-12 2.55450437e-15 4.64760827e-13 1.33807938e-14 2.14464670e-12
3.01995172e+00 2.49785187e-12 2.00150076e-12 1.68168146e-15 4.94669431e-13 1.04279953e-14 2.00150076e-12
3.46736850e+00 2.36698176e-12 1.86790919e-12 1.08738656e-15 4.97985183e-13 7.59584243e-15 1.86790919e-12
3.98107171e+00 2.21949367e-12 1.74323429e-12 7.17839670e-16 4.75541542e-13 5.19374600e-15 1.74323429e-12
4.57088190e+00 2.06441910e-12 1.62688090e-12 4.41317042e-16 4.37096889e-13 3.31771693e-15 1.62688090e-12
5.24807460e+00 1.73783127e-12 1.34518114e-12 2.44968033e-16 3.92405160e-13 2.02295699e-15 1.34518114e-12
6.02559586e+00 1.23719252e-12 8.88752369e-13 9.99631673e-17 3.48340187e-13 1.17208332e-15 8.88752369e-13
6.70000000e+00 9.61231298e-13 6.46481889e-13 4.80724031e-17 3.14701336e-13 7.31632067e-16 6.46481889e-13
6.92422916e+00 8.89806148e-13 5.85688198e-13 3.89095517e-17 3.04079041e-13 6.27166237e-16 5.85688198e-13
7.15596261e+00 8.28169984e-13 5.30611407e-13 3.02572715e-17 2.97528320e-13 5.37858995e-16 5.30611407e-13
7.39545150e+00 7.79513972e-13 4.80713913e-13 2.35711059e-17 2.98776488e-13 4.57480231e-16 4.80713913e-13
7.64295536e+00 7.59272642e-13 4.35508666e-13 1.68003741e-17 3.23747176e-13 3.88762263e-16 4.35508666e-13
7.89874245e+00 7.79679931e-13 3.94554418e-13 1.04122898e-17 3.85115100e-13 3.30047602e-16 3.94554418e-13
8.16308998e+00 8.33158971e-13 3.57451415e-13 6.91181427e-18 4.75700644e-13 2.79498638e-16 3.57451415e-13
8.43628443e+00 9.26548893e-13 3.23837494e-13 4.08568266e-18 6.02707313e-13 2.29414930e-16 3.23837494e-13
8.71862190e+00 9.86142117e-13 2.93384550e-13 2.80725778e-18 6.92754760e-13 1.81643219e-16 2.93384550e-13
9.01040836e+00 1.05208651e-12 2.65795332e-13 1.77291905e-18 7.86289407e-13 1.40636663e-16 2.65795332e-13
9.31196005e+00 1.10112278e-12 2.40800541e-13 0.00000000e+00 8.60322239e-13 0.00000000e+00 2.40800541e-13
9.62360379e+00 1.06992960e-12 2.18156204e-13 0.00000000e+00 8.51773399e-13 0.00000000e+00 2.18156204e-13
9.94567731e+00 9.84490556e-13 1.97641289e-13 0.00000000e+00 7.86849267e-13 0.00000000e+00 1.97641289e-13
1.02785297e+01 8.85267156e-13 1.79055550e-13 0.00000000e+00 7.06211606e-13 0.00000000e+00 1.79055550e-13
1.06225216e+01 7.91410064e-13 1.62217572e-13 0.00000000e+00 6.29192492e-13 0.00000000e+00 1.62217572e-13
1.09780260e+01 6.94422713e-13 1.46962999e-13 0.00000000e+00 5.47459714e-13 0.00000000e+00 1.46962999e-13
1.13454280e+01 6.10653880e-13 1.33142932e-13 0.00000000e+00 4.77510948e-13 0.00000000e+00 1.33142932e-13
1.17251259e+01 5.40004798e-13 1.20622472e-13 0.00000000e+00 4.19382326e-13 0.00000000e+00 1.20622472e-13
1.21175312e+01 4.76664237e-13 1.09279408e-13 0.00000000e+00 3.67384828e-13 0.00000000e+00 1.09279408e-13
1.25230691e+01 4.21062919e-13 9.90030204e-14 0.00000000e+00 3.22059898e-13 0.00000000e+00 9.90030204e-14
1.29421791e+01 3.74557214e-13 8.96930008e-14 0.00000000e+00 2.84864213e-13 0.00000000e+00 8.96930008e-14
1.33753155e+01 3.34349400e-13 8.12584743e-14 0.00000000e+00 2.53090926e-13 0.00000000e+00 8.12584743e-14
1.38229477e+01 3.06333680e-13 7.36171115e-14 0.00000000e+00 2.32716569e-13 0.00000000e+00 7.36171115e-14
1.42855609e+01 2.87929115e-13 6.66943252e-14 0.00000000e+00 2.21234790e-13 0.00000000e+00 6.66943252e-14
1.47636563e+01 2.84085517e-13 6.04225420e-14 0.00000000e+00 2.23662975e-13 0.00000000e+00 6.04225420e-14
1.52577522e+01 2.83915336e-13 5.47405431e-14 0.00000000e+00 2.29174793e-13 0.00000000e+00 5.47405431e-14
1.57683840e+01 2.86553066e-13 4.95928665e-14 0.00000000e+00 2.36960199e-13 0.00000000e+00 4.95928665e-14
1.62961051e+01 2.89674897e-13 4.49292657e-14 0.00000000e+00 2.44745631e-13 0.00000000e+00 4.49292657e-14
1.68414875e+01 2.92959977e-13 4.07042194e-14 0.00000000e+00 2.52255758e-13 0.00000000e+00 4.07042194e-14
1.74051222e+01 2.92187204e-13 3.68764869e-14 0.00000000e+00 2.55310717e-13 0.00000000e+00 3.68764869e-14
1.79876201e+01 2.89505687e-13 3.34087056e-14 0.00000000e+00 2.56096981e-13 0.00000000e+00 3.34087056e-14
1.85896125e+01 2.81002342e-13 3.02670267e-14 0.00000000e+00 2.50735315e-13 0.00000000e+00 3.02670267e-14
1.92117518e+01 2.68721384e-13 2.74207841e-14 0.00000000e+00 2.41300600e-13 0.00000000e+00 2.74207841e-14
1.98547123e+01 2.53869375e-13 2.48421957e-14 0.00000000e+00 2.29027180e-13 0.00000000e+00 2.48421957e-14
2.05191907e+01 2.38654793e-13 2.25060919e-14 0.00000000e+00 2.16148701e-13 0.00000000e+00 2.25060919e-14
2.12059073e+01 2.24443595e-13 2.03896700e-14 0.00000000e+00 2.04053925e-13 0.00000000e+00 2.03896700e-14
2.19156062e+01 2.12193342e-13 1.84722717e-14 0.00000000e+00 1.93721071e-13 0.00000000e+00 1.84722717e-14
2.26490567e+01 2.00548373e-13 1.67351811e-14 0.00000000e+00 1.83813192e-13 0.00000000e+00 1.67351811e-14
2.34070535e+01 1.90185493e-13 1.51614426e-14 0.00000000e+00 1.75024050e-13 0.00000000e+00 1.51614426e-14
2.41904183e+01 1.80344900e-13 1.37356949e-14 0.00000000e+00 1.66609205e-13 0.00000000e+00 1.37356949e-14
2.50000000e+01 1.71418587e-13 1.24440213e-14 0.00000000e+00 1.58974566e-13 0.00000000e+00 1.24440213e-14
2.75422870e+01 1.47571007e-13 9.30637977e-15 0.00000000e+00 1.38264627e-13 0.00000000e+00 9.30637977e-15
3.16227766e+01 1.18044282e-13 6.14866414e-15 0.00000000e+00 1.11895618e-13 0.00000000e+00 6.14866414e-15
3.63078055e+01 9.11043071e-14 4.06238211e-15 0.00000000e+00 8.70419250e-14 0.00000000e+00 4.06238211e-15
4.16869383e+01 6.66091141e-14 2.68398924e-15 0.00000000e+00 6.39251248e-14 0.00000000e+00 2.68398924e-15
4.78630092e+01 4.60181232e-14 1.77329411e-15 0.00000000e+00 4.42448291e-14 0.00000000e+00 1.77329411e-15
5.49540874e+01 3.03394904e-14 1.17160380e-15 0.00000000e+00 2.91678866e-14 0.00000000e+00 1.17160380e-15
6.30957344e+01 1.92783216e-14 7.74070953e-16 0.00000000e+00 1.85042507e-14 0.00000000e+00 7.74070953e-16
7.24435960e+01 1.18744255e-14 5.11423607e-16 0.00000000e+00 1.13630019e-14 0.00000000e+00 5.11423607e-16
8.31763771e+01 7.13828809e-15 3.37894226e-16 0.00000000e+00 6.80039386e-15 0.00000000e+00 3.37894226e-16
9.54992586e+01 4.21282399e-15 2.23244502e-16 0.00000000e+00 3.98957948e-15 0.00000000e+00 2.23244502e-16
1.09647820e+02 2.44906415e-15 1.47496179e-16 0.00000000e+00 2.30156797e-15 0.00000000e+00 1.47496179e-16
1.25892541e+02 1.42099412e-15 9.74497594e-17 0.00000000e+00 1.32354436e-15 0.00000000e+00 9.74497594e-17
1.44543977e+02 8.18611999e-16 6.43844175e-17 0.00000000e+00 7.54227581e-16 0.00000000e+00 6.43844175e-17
1.65958691e+02 4.50116375e-16 4.25383628e-17 0.00000000e+00 4.07578012e-16 0.00000000e+00 4.25383628e-17
1.90546072e+02 2.47793932e-16 2.81048176e-17 0.00000000e+00 2.19689114e-16 0.00000000e+00 2.81048176e-17
2.18776162e+02 1.36395616e-16 1.85686688e-17 0.00000000e+00 1.17826947e-16 0.00000000e+00 1.85686688e-17
2.51188643e+02 7.50442567e-17 1.22681978e-17 0.00000000e+00 6.27760589e-17 0.00000000e+00 1.22681978e-17
2.88403150e+02 4.12981203e-17 8.10551794e-18 0.00000000e+00 3.31926024e-17 0.00000000e+00 8.10551794e-18
3.31131121e+02 2.28117846e-17 5.35526259e-18 0.00000000e+00 1.74565220e-17 0.00000000e+00 5.35526259e-18
3.80189396e+02 1.26621537e-17 3.53818691e-18 0.00000000e+00 9.12396683e-18 0.00000000e+00 3.53818691e-18
4.36515832e+02 7.08481544e-18 2.33765691e-18 0.00000000e+00 4.74715853e-18 0.00000000e+00 2.33765691e-18
5.01187234e+02 4.00314300e-18 1.54447460e-18 0.00000000e+00 2.45866840e-18 0.00000000e+00 1.54447460e-18
5.75439937e+02 2.28895347e-18 1.02042425e-18 0.00000000e+00 1.26852922e-18 0.00000000e+00 1.02042425e-18
6.60693448e+02 1.32649903e-18 6.74187617e-19 0.00000000e+00 6.52311416e-19 0.00000000e+00 6.74187617e-19
7.58577575e+02 7.79893810e-19 4.45431341e-19 0.00000000e+00 3.34462469e-19 0.00000000e+00 4.45431341e-19
8.70963590e+02 4.65308193e-19 2.94293569e-19 0.00000000e+00 1.71014624e-19 0.00000000e+00 2.94293569e-19
1.00000000e+03 8.72201930e-20 0.00000000e+00 0.00000000e+00 8.72201930e-20 0.00000000e+00 0.00000000e+00
