# column 1: lambda (micron)
# column 2: total flux; lambda*F_lambda (W/m2)
# column 3: direct stellar flux; lambda*F_lambda (W/m2)
# column 4: scattered stellar flux; lambda*F_lambda (W/m2)
# column 5: total dust emission flux; lambda*F_lambda (W/m2)
# column 6: dust emission scattered flux; lambda*F_lambda (W/m2)
# column 7: transparent flux; lambda*F_lambda (W/m2)
1.00000000e-03 5.25504599e-13 5.25504468e-13 1.31361019e-19 0.00000000e+00 0.00000000e+00 5.25636674e-13
1.14815362e-03 6.20213878e-13 6.20213660e-13 2.18098493e-19 0.00000000e+00 0.00000000e+00 6.20419813e-13
1.31825674e-03 7.31985291e-13 7.31984953e-13 3.38222434e-19 0.00000000e+00 0.00000000e+00 7.32294308e-13
1.51356125e-03 8.63912113e-13 8.63911612e-13 5.00279307e-19 0.00000000e+00 0.00000000e+00 8.64342083e-13
1.73780083e-03 1.01968835e-12 1.01968745e-12 8.94156465e-19 0.00000000e+00 0.00000000e+00 1.02020080e-12
1.99526231e-03 1.20336240e-12 1.20336079e-12 1.61198719e-18 0.00000000e+00 0.00000000e+00 1.20416405e-12
2.29086765e-03 1.42029695e-12 1.42029430e-12 2.64846440e-18 0.00000000e+00 0.00000000e+00 1.42129968e-12
2.63026799e-03 1.67617263e-12 1.67616739e-12 5.24397842e-18 0.00000000e+00 0.00000000e+00 1.67758934e-12
3.01995172e-03 1.97802674e-12 1.97801776e-12 8.98913190e-18 0.00000000e+00 0.00000000e+00 1.98009332e-12
3.46736850e-03 2.33427302e-12 2.33425773e-12 1.52894665e-17 0.00000000e+00 0.00000000e+00 2.33714500e-12
3.98107171e-03 2.75470406e-12 2.75467993e-12 2.41371562e-17 0.00000000e+00 0.00000000e+00 2.75858048e-12
4.57088190e-03 3.25299030e-12 3.25293772e-12 5.25801613e-17 0.00000000e+00 0.00000000e+00 3.25600946e-12
5.24807460e-03 3.83859948e-12 3.83850496e-12 9.45215230e-17 0.00000000e+00 0.00000000e+00 3.84313516e-12
6.02559586e-03 4.52971040e-12 4.52954300e-12 1.67403490e-16 0.00000000e+00 0.00000000e+00 4.53613173e-12
6.91830971e-03 5.34541153e-12 5.34511541e-12 2.96121421e-16 0.00000000e+00 0.00000000e+00 5.35408989e-12
7.94328235e-03 6.31118272e-12 6.30772599e-12 3.45673155e-15 1.03276274e-303 1.21560329e-305 6.31954278e-12
9.12010839e-03 7.44825714e-12 7.44361071e-12 4.64642231e-15 4.80655061e-265 3.05493195e-266 7.45908676e-12
1.04712855e-02 8.31586397e-12 8.31239326e-12 3.47070739e-15 1.99794766e-231 8.42584143e-233 8.33078048e-12
1.20226443e-02 8.31757704e-12 8.31130935e-12 6.26768338e-15 3.12084147e-202 1.09160284e-203 8.33078048e-12
1.38038426e-02 8.31713504e-12 8.31002390e-12 7.11114217e-15 8.67185796e-177 4.42806073e-178 8.33078048e-12
1.58489319e-02 8.31653181e-12 8.30844445e-12 8.08736126e-15 1.16789172e-154 5.48524609e-156 8.33078048e-12
1.81970086e-02 8.31814089e-12 8.30698796e-12 1.11529333e-14 2.07801866e-135 9.25333196e-137 8.33078048e-12
2.08929613e-02 8.31697114e-12 8.30577749e-12 1.11936423e-14 1.09420103e-118 5.77205921e-120 8.33078048e-12
2.39883292e-02 8.31831165e-12 8.30420940e-12 1.41022478e-14 3.84627175e-104 2.16701063e-105 8.33078048e-12
2.75422870e-02 8.31901833e-12 8.30238581e-12 1.66325256e-14 1.71391844e-91 9.77209449e-93 8.33078048e-12
3.16227766e-02 8.31982020e-12 8.30059868e-12 1.92215223e-14 1.66913377e-80 9.97607510e-82 8.33078048e-12
3.63078055e-02 8.32178037e-12 8.29919722e-12 2.25831541e-14 5.76860610e-71 3.41327684e-72 8.33078048e-12
4.16869383e-02 8.32626134e-12 8.29798525e-12 2.82760910e-14 1.09641399e-62 7.13863601e-64 8.33078048e-12
4.78630092e-02 8.33111760e-12 8.29464539e-12 3.64722051e-14 1.64338538e-55 1.17386812e-56 8.33078048e-12
5.49540874e-02 8.33270498e-12 8.29000293e-12 4.27020532e-14 2.69767733e-49 2.06780734e-50 8.33078048e-12
6.30957344e-02 8.32411391e-12 8.27837337e-12 4.57405399e-14 8.47502605e-44 7.12102397e-45 8.33078048e-12
7.24435960e-02 8.31361392e-12 8.26461913e-12 4.89947965e-14 4.71729860e-39 3.63921660e-40 8.33078048e-12
8.31763771e-02 8.31172691e-12 8.26584213e-12 4.58847851e-14 4.83576210e-35 3.61489318e-36 8.33078048e-12
9.54992586e-02 8.31663513e-12 8.26943016e-12 4.72049678e-14 1.37286595e-31 1.03278364e-32 8.33078048e-12
1.09647820e-01 7.95273322e-12 7.90713340e-12 4.55998259e-14 1.20168032e-28 9.71799157e-30 7.95583672e-12
1.25892541e-01 7.42956147e-12 7.38738409e-12 4.21773890e-14 3.99656912e-26 3.16743483e-27 7.42481883e-12
1.44543977e-01 6.93824013e-12 6.90027467e-12 3.79654663e-14 5.54282454e-24 4.15822798e-25 6.92924411e-12
1.65958691e-01 6.47962295e-12 6.44309645e-12 3.65264966e-14 2.83982456e-22 2.20736301e-23 6.46674687e-12
1.90546072e-01 6.05133164e-12 6.01157486e-12 3.97567716e-14 5.94479057e-21 5.26266080e-22 6.03511933e-12
2.18776162e-01 5.64437371e-12 5.60653483e-12 3.78388157e-14 6.91037876e-20 6.19657440e-21 5.63230107e-12
2.51188643e-01 5.27914591e-12 5.23712946e-12 4.20155896e-14 8.55547038e-19 8.74250342e-20 5.25636919e-12
2.88403150e-01 4.92811317e-12 4.89061710e-12 3.74888572e-14 7.21595900e-18 6.99323835e-19 4.90552916e-12
3.31131121e-01 4.59968374e-12 4.56597229e-12 3.36698011e-14 4.16503747e-17 3.79586810e-18 4.57810618e-12
3.80189396e-01 4.29411067e-12 4.26259147e-12 3.13441165e-14 1.75088258e-16 1.55384218e-17 4.27253728e-12
4.36515832e-01 4.00699754e-12 3.97928433e-12 2.71569871e-14 5.56221892e-16 4.65537368e-17 3.98736380e-12
5.01187234e-01 3.73944891e-12 3.71474993e-12 2.33034882e-14 1.39549710e-15 1.12106436e-16 3.72122441e-12
5.75439937e-01 3.49166551e-12 3.46771390e-12 2.10656793e-14 2.88593285e-15 2.25278906e-16 3.47284869e-12
6.60693448e-01 3.26162275e-12 3.23701394e-12 1.95255701e-14 5.08324736e-15 3.78921989e-16 3.24105097e-12
7.58577575e-01 3.04570322e-12 3.02158939e-12 1.61265603e-14 7.98727235e-15 5.55751105e-16 3.02472476e-12
8.70963590e-01 2.84684679e-12 2.82045626e-12 1.47996475e-14 1.15908865e-14 7.67981764e-16 2.82283739e-12
1.00000000e+00 2.66143557e-12 2.63264603e-12 1.27688542e-14 1.60206901e-14 1.00565402e-15 2.63442513e-12
1.14815362e+00 2.49086799e-12 2.45728292e-12 1.10985687e-14 2.24864993e-14 1.35230921e-15 2.45858859e-12
1.31825674e+00 2.33489331e-12 2.29354682e-12 8.16774389e-15 3.31787476e-14 1.90338779e-15 2.29448837e-12
1.51356125e+00 2.19846721e-12 2.14066902e-12 6.54611154e-15 5.12520759e-14 2.80303742e-15 2.14134114e-12
1.73780083e+00 2.08188669e-12 1.99794385e-12 4.78936620e-15 7.91534766e-14 3.94868133e-15 1.99841583e-12
1.99526231e+00 1.98580700e-12 1.86470393e-12 3.71411413e-15 1.17388952e-13 5.05156850e-15 1.86503017e-12
2.29086765e+00 1.90600885e-12 1.74032263e-12 2.48218663e-15 1.63204039e-13 5.63646837e-15 1.74054743e-12
2.63026799e+00 1.83635250e-12 1.62421702e-12 1.75978741e-15 2.10375695e-13 5.71719471e-15 1.62437337e-12
3.01995172e+00 1.76921728e-12 1.51584329e-12 1.23964810e-15 2.52134342e-13 5.15678803e-15 1.51595343e-12
3.46736850e+00 1.69795204e-12 1.41469121e-12 8.04629818e-16 2.82456202e-13 4.30607100e-15 1.41477006e-12
3.98107171e+00 1.61723467e-12 1.32028307e-12 5.44548807e-16 2.96407059e-13 3.25562980e-15 1.32034025e-12
4.57088190e+00 1.52669774e-12 1.23217119e-12 3.44122405e-16 2.94182434e-13 2.25546763e-15 1.23221321e-12
5.24807460e+00 1.29818899e-12 1.01882355e-12 1.86590483e-16 2.79178850e-13 1.44592172e-15 1.01885146e-12
6.02559586e+00 9.30459429e-13 6.73133159e-13 8.17982378e-17 2.57244472e-13 8.62755394e-16 6.73148485e-13
6.70000000e+00 7.27665328e-13 4.89640928e-13 4.16833185e-17 2.37982716e-13 5.50718335e-16 4.89650796e-13
6.92422916e+00 6.75129349e-13 4.43596518e-13 3.17947329e-17 2.31501036e-13 4.71475358e-16 4.43605145e-13
7.15596261e+00 6.28781077e-13 4.01881844e-13 2.64308031e-17 2.26872803e-13 4.03566823e-16 4.01889522e-13
7.39545150e+00 5.92160670e-13 3.64089620e-13 1.93132060e-17 2.28051737e-13 3.43131676e-16 3.64096743e-13
7.64295536e+00 5.75681028e-13 3.29850558e-13 1.38782449e-17 2.45816592e-13 2.90646429e-16 3.29857910e-13
7.89874245e+00 5.87072578e-13 2.98830214e-13 9.42202895e-18 2.88232943e-13 2.39900272e-16 2.98838820e-13
8.16308998e+00 6.23360467e-13 2.70726167e-13 5.43828225e-18 3.52628862e-13 2.00414673e-16 2.70736695e-13
8.43628443e+00 6.87465579e-13 2.45263978e-13 3.15071322e-18 4.42198450e-13 1.57872224e-16 2.45277229e-13
8.71862190e+00 7.29124568e-13 2.22197164e-13 1.96799537e-18 5.06925436e-13 1.24161345e-16 2.22211915e-13
9.01040836e+00 7.75536666e-13 2.01299421e-13 1.21245308e-18 5.74236032e-13 9.15758114e-17 2.01315610e-13
9.31196005e+00 8.12150366e-13 1.82367336e-13 0.00000000e+00 6.29783030e-13 0.00000000e+00 1.82384346e-13
9.62360379e+00 7.95290870e-13 1.65217519e-13 0.00000000e+00 6.30073351e-13 0.00000000e+00 1.65233336e-13
9.94567731e+00 7.34621135e-13 1.49681722e-13 0.00000000e+00 5.84939414e-13 0.00000000e+00 1.49695167e-13
1.02785297e+01 6.65464525e-13 1.35607153e-13 0.00000000e+00 5.29857372e-13 0.00000000e+00 1.35618173e-13
1.06225216e+01 5.97644615e-13 1.22856013e-13 0.00000000e+00 4.74788602e-13 0.00000000e+00 1.22864947e-13
1.09780260e+01 5.28034978e-13 1.11304023e-13 0.00000000e+00 4.16730955e-13 0.00000000e+00 1.11311006e-13
1.13454280e+01 4.67818801e-13 1.00838092e-13 0.00000000e+00 3.66980709e-13 0.00000000e+00 1.00843571e-13
1.17251259e+01 4.15829521e-13 9.13561431e-14 0.00000000e+00 3.24473378e-13 0.00000000e+00 9.13604705e-14
1.21175312e+01 3.69545126e-13 8.27657389e-14 0.00000000e+00 2.86779387e-13 0.00000000e+00 8.27691389e-14
1.25230691e+01 3.28126102e-13 7.49830526e-14 0.00000000e+00 2.53143049e-13 0.00000000e+00 7.49857166e-14
1.29421791e+01 2.93497026e-13 6.79321278e-14 0.00000000e+00 2.25564898e-13 0.00000000e+00 6.79342298e-14
1.33753155e+01 2.63178661e-13 6.15441784e-14 0.00000000e+00 2.01634483e-13 0.00000000e+00 6.15458488e-14
1.38229477e+01 2.42171848e-13 5.57568280e-14 0.00000000e+00 1.86415020e-13 0.00000000e+00 5.57582167e-14
1.42855609e+01 2.28404887e-13 5.05136334e-14 0.00000000e+00 1.77891254e-13 0.00000000e+00 5.05148403e-14
1.47636563e+01 2.26413192e-13 4.57633938e-14 0.00000000e+00 1.80649799e-13 0.00000000e+00 4.57645392e-14
1.52577522e+01 2.26602538e-13 4.14598389e-14 0.00000000e+00 1.85142700e-13 0.00000000e+00 4.14609457e-14
1.57683840e+01 2.29749729e-13 3.75609692e-14 0.00000000e+00 1.92188760e-13 0.00000000e+00 3.75620523e-14
1.62961051e+01 2.33076871e-13 3.40287433e-14 0.00000000e+00 1.99048128e-13 0.00000000e+00 3.40298020e-14
1.68414875e+01 2.37081317e-13 3.08286841e-14 0.00000000e+00 2.06252632e-13 0.00000000e+00 3.08297166e-14
1.74051222e+01 2.37617762e-13 2.79295794e-14 0.00000000e+00 2.09688183e-13 0.00000000e+00 2.79305599e-14
1.79876201e+01 2.36342694e-13 2.53031179e-14 0.00000000e+00 2.11039576e-13 0.00000000e+00 2.53040334e-14
1.85896125e+01 2.31150960e-13 2.29236711e-14 0.00000000e+00 2.08227289e-13 0.00000000e+00 2.29244994e-14
1.92117518e+01 2.22239880e-13 2.07680039e-14 0.00000000e+00 2.01471876e-13 0.00000000e+00 2.07687314e-14
1.98547123e+01 2.11741231e-13 1.88150604e-14 0.00000000e+00 1.92926171e-13 0.00000000e+00 1.88156870e-14
2.05191907e+01 2.01175770e-13 1.70457682e-14 0.00000000e+00 1.84130002e-13 0.00000000e+00 1.70463024e-14
2.12059073e+01 1.91190263e-13 1.54428514e-14 0.00000000e+00 1.75747411e-13 0.00000000e+00 1.54433068e-14
2.19156062e+01 1.82538639e-13 1.39906632e-14 0.00000000e+00 1.68547976e-13 0.00000000e+00 1.39910532e-14
2.26490567e+01 1.74077929e-13 1.26750317e-14 0.00000000e+00 1.61402897e-13 0.00000000e+00 1.26753663e-14
2.34070535e+01 1.67120702e-13 1.14831159e-14 0.00000000e+00 1.55637586e-13 0.00000000e+00 1.14834036e-14
2.41904183e+01 1.60235356e-13 1.04032825e-14 0.00000000e+00 1.49832074e-13 0.00000000e+00 1.04035303e-14
2.50000000e+01 1.54417700e-13 9.42499189e-15 0.00000000e+00 1.44992708e-13 0.00000000e+00 9.42520591e-15
2.75422870e+01 1.38343986e-13 7.04859039e-15 0.00000000e+00 1.31295395e-13 0.00000000e+00 7.04872996e-15
3.16227766e+01 1.18310346e-13 4.65697302e-15 0.00000000e+00 1.13653373e-13 0.00000000e+00 4.65704970e-15
3.63078055e+01 9.85019985e-14 3.07684032e-15 0.00000000e+00 9.54251582e-14 0.00000000e+00 3.07688223e-15
4.16869383e+01 7.81282312e-14 2.03285363e-15 0.00000000e+00 7.60953776e-14 0.00000000e+00 2.03287593e-15
4.78630092e+01 5.86309763e-14 1.34309631e-15 0.00000000e+00 5.72878800e-14 0.00000000e+00 1.34310781e-15
5.49540874e+01 4.18583770e-14 8.87376727e-16 0.00000000e+00 4.09710003e-14 0.00000000e+00 8.87382527e-16
6.30957344e+01 2.85316452e-14 5.86284932e-16 0.00000000e+00 2.79453602e-14 0.00000000e+00 5.86287821e-16
7.24435960e+01 1.86849756e-14 3.87355093e-16 0.00000000e+00 1.82976205e-14 0.00000000e+00 3.87356522e-16
8.31763771e+01 1.18152185e-14 2.55923211e-16 0.00000000e+00 1.15592952e-14 0.00000000e+00 2.55923916e-16
9.54992586e+01 7.26612859e-15 1.69086905e-16 0.00000000e+00 7.09704169e-15 0.00000000e+00 1.69087255e-16
1.09647820e+02 4.36004306e-15 1.11714668e-16 0.00000000e+00 4.24832839e-15 0.00000000e+00 1.11714841e-16
1.25892541e+02 2.59103700e-15 7.38091763e-17 0.00000000e+00 2.51722783e-15 0.00000000e+00 7.38092637e-17
1.44543977e+02 1.51827889e-15 4.87652525e-17 0.00000000e+00 1.46951364e-15 0.00000000e+00 4.87652969e-17
1.65958691e+02 8.43891375e-16 3.22188904e-17 0.00000000e+00 8.11672485e-16 0.00000000e+00 3.22189122e-17
1.90546072e+02 4.66627707e-16 2.12868134e-17 0.00000000e+00 4.45340894e-16 0.00000000e+00 2.12868242e-17
2.18776162e+02 2.56367167e-16 1.40640599e-17 0.00000000e+00 2.42303107e-16 0.00000000e+00 1.40640653e-17
2.51188643e+02 1.39927211e-16 9.29203309e-18 0.00000000e+00 1.30635178e-16 0.00000000e+00 9.29203577e-18
2.88403150e+02 7.58914454e-17 6.13918581e-18 0.00000000e+00 6.97522596e-17 0.00000000e+00 6.13918715e-18
3.31131121e+02 4.10405345e-17 4.05612005e-18 0.00000000e+00 3.69844145e-17 0.00000000e+00 4.05612073e-18
3.80189396e+02 2.21428295e-17 2.67985205e-18 0.00000000e+00 1.94629774e-17 0.00000000e+00 2.67985239e-18
4.36515832e+02 1.19552190e-17 1.77056075e-18 0.00000000e+00 1.01846583e-17 0.00000000e+00 1.77056092e-18
5.01187234e+02 6.47018721e-18 1.16979791e-18 0.00000000e+00 5.30038930e-18 0.00000000e+00 1.16979800e-18
5.75439937e+02 3.51874641e-18 7.72877829e-19 0.00000000e+00 2.74586858e-18 0.00000000e+00 7.72877871e-19
6.60693448e+02 1.92751668e-18 5.10635324e-19 0.00000000e+00 1.41688135e-18 0.00000000e+00 5.10635346e-19
7.58577575e+02 1.06599156e-18 3.37373416e-19 0.00000000e+00 7.28618147e-19 0.00000000e+00 3.37373427e-19
8.70963590e+02 5.96383002e-19 2.22900407e-19 0.00000000e+00 3.73482594e-19 0.00000000e+00 2.22900413e-19
1.00000000e+03 1.90889756e-19 0.00000000e+00 0.00000000e+00 1.90889756e-19 0.00000000e+00 0.00000000e+00
