# column 1: lambda (micron)
# column 2: total flux; lambda*F_lambda (W/m2)
# column 3: direct stellar flux; lambda*F_lambda (W/m2)
# column 4: scattered stellar flux; lambda*F_lambda (W/m2)
# column 5: total dust emission flux; lambda*F_lambda (W/m2)
# column 6: dust emission scattered flux; lambda*F_lambda (W/m2)
# column 7: transparent flux; lambda*F_lambda (W/m2)
1.00000000e-03 5.25637140e-13 5.25636674e-13 4.65955817e-19 0.00000000e+00 0.00000000e+00 5.25636674e-13
1.14815362e-03 6.20420530e-13 6.20419813e-13 7.17145124e-19 0.00000000e+00 0.00000000e+00 6.20419813e-13
1.31825674e-03 7.32295498e-13 7.32294308e-13 1.19038718e-18 0.00000000e+00 0.00000000e+00 7.32294308e-13
1.51356125e-03 8.64344003e-13 8.64342083e-13 1.91964208e-18 0.00000000e+00 0.00000000e+00 8.64342083e-13
1.73780083e-03 1.02020447e-12 1.02020080e-12 3.67124224e-18 0.00000000e+00 0.00000000e+00 1.02020080e-12
1.99526231e-03 1.20416982e-12 1.20416405e-12 5.76484103e-18 0.00000000e+00 0.00000000e+00 1.20416405e-12
2.29086765e-03 1.42130897e-12 1.42129968e-12 9.29166493e-18 0.00000000e+00 0.00000000e+00 1.42129968e-12
2.63026799e-03 1.67760989e-12 1.67758934e-12 2.05515479e-17 0.00000000e+00 0.00000000e+00 1.67758934e-12
3.01995172e-03 1.98012765e-12 1.98009332e-12 3.43361113e-17 0.00000000e+00 0.00000000e+00 1.98009332e-12
3.46736850e-03 2.33720300e-12 2.33714500e-12 5.79925403e-17 0.00000000e+00 0.00000000e+00 2.33714500e-12
3.98107171e-03 2.75867516e-12 2.75858048e-12 9.46787999e-17 0.00000000e+00 0.00000000e+00 2.75858048e-12
4.57088190e-03 3.25621112e-12 3.25600946e-12 2.01660664e-16 0.00000000e+00 0.00000000e+00 3.25600946e-12
5.24807460e-03 3.84348222e-12 3.84313516e-12 3.47063441e-16 0.00000000e+00 0.00000000e+00 3.84313516e-12
6.02559586e-03 4.53677913e-12 4.53613173e-12 6.47391502e-16 0.00000000e+00 0.00000000e+00 4.53613173e-12
6.91830971e-03 5.35512897e-12 5.35408989e-12 1.03908007e-15 0.00000000e+00 0.00000000e+00 5.35408989e-12
7.94328235e-03 6.32141913e-12 6.31954278e-12 1.87634669e-15 8.52748796e-304 9.02378324e-306 6.31954278e-12
9.12010839e-03 7.46203098e-12 7.45908676e-12 2.94422325e-15 3.62888328e-265 1.31844589e-266 7.45908676e-12
1.04712855e-02 8.33485207e-12 8.33078048e-12 4.07159259e-15 1.43455057e-231 2.49150725e-233 8.33078048e-12
1.20226443e-02 8.33714964e-12 8.33078048e-12 6.36916016e-15 2.16716483e-202 4.90746693e-204 8.33078048e-12
1.38038426e-02 8.33910013e-12 8.33078048e-12 8.31965895e-15 5.66327785e-177 1.06422502e-178 8.33078048e-12
1.58489319e-02 8.34284019e-12 8.33078048e-12 1.20597104e-14 7.44736137e-155 1.80645801e-156 8.33078048e-12
1.81970086e-02 8.34722590e-12 8.33078048e-12 1.64454268e-14 1.29217721e-135 3.25186398e-137 8.33078048e-12
2.08929613e-02 8.35412725e-12 8.33078048e-12 2.33467717e-14 6.66538513e-119 2.56207190e-120 8.33078048e-12
2.39883292e-02 8.36351818e-12 8.33078048e-12 3.27376999e-14 2.29428458e-104 1.00911809e-105 8.33078048e-12
2.75422870e-02 8.37045540e-12 8.33078048e-12 3.96749213e-14 1.00821078e-91 4.72618456e-93 8.33078048e-12
3.16227766e-02 8.38168305e-12 8.33078048e-12 5.09025703e-14 9.62050076e-81 4.54644659e-82 8.33078048e-12
3.63078055e-02 8.38649783e-12 8.33078048e-12 5.57173587e-14 3.29665602e-71 1.66484571e-72 8.33078048e-12
4.16869383e-02 8.40456319e-12 8.33078048e-12 7.37827095e-14 6.20923995e-63 3.69429574e-64 8.33078048e-12
4.78630092e-02 8.42497076e-12 8.33078048e-12 9.41902878e-14 9.27844435e-56 6.29640916e-57 8.33078048e-12
5.49540874e-02 8.43420802e-12 8.33078048e-12 1.03427547e-13 1.51998073e-49 1.13324838e-50 8.33078048e-12
6.30957344e-02 8.44384555e-12 8.33078048e-12 1.13065071e-13 4.80304304e-44 3.79246943e-45 8.33078048e-12
7.24435960e-02 8.43590286e-12 8.33078048e-12 1.05122388e-13 2.71265697e-39 2.02279771e-40 8.33078048e-12
8.31763771e-02 8.43238866e-12 8.33078048e-12 1.01608184e-13 2.75379323e-35 1.95895280e-36 8.33078048e-12
9.54992586e-02 8.43265113e-12 8.33078048e-12 1.01870650e-13 7.76250933e-32 5.71997336e-33 8.33078048e-12
1.09647820e-01 8.06729274e-12 7.95583672e-12 1.11456021e-13 6.63928380e-29 5.25435410e-30 7.95583672e-12
1.25892541e-01 7.52558095e-12 7.42481883e-12 1.00762119e-13 2.16957855e-26 1.71326231e-27 7.42481883e-12
1.44543977e-01 7.01643525e-12 6.92924411e-12 8.71911384e-14 2.96503362e-24 2.24065450e-25 6.92924411e-12
1.65958691e-01 6.56152136e-12 6.46674687e-12 9.47744902e-14 1.50664234e-22 1.21379075e-23 6.46674687e-12
1.90546072e-01 6.12807541e-12 6.03511933e-12 9.29560784e-14 3.16182646e-21 2.91464699e-22 6.03511933e-12
2.18776162e-01 5.72238569e-12 5.63230107e-12 9.00845822e-14 3.70204367e-20 3.51615033e-21 5.63230107e-12
2.51188643e-01 5.36381553e-12 5.25636919e-12 1.07445880e-13 4.52948640e-19 4.99290807e-20 5.25636919e-12
2.88403150e-01 4.99790021e-12 4.90552916e-12 9.23672706e-14 3.78090699e-18 3.99437528e-19 4.90552916e-12
3.31131121e-01 4.66372790e-12 4.57810618e-12 8.56000073e-14 2.17113208e-17 2.22444170e-18 4.57810618e-12
3.80189396e-01 4.34728736e-12 4.27253728e-12 7.46595589e-14 9.05148349e-17 8.90720247e-18 4.27253728e-12
4.36515832e-01 4.05985741e-12 3.98736380e-12 7.22070288e-14 2.86586135e-16 2.70356034e-17 3.98736380e-12
5.01187234e-01 3.78387778e-12 3.72122441e-12 6.19332864e-14 7.20085732e-16 6.70031975e-17 3.72122441e-12
5.75439937e-01 3.52972180e-12 3.47284869e-12 5.53666950e-14 1.50642248e-15 1.36825908e-16 3.47284869e-12
6.60693448e-01 3.29405700e-12 3.24105097e-12 5.02133584e-14 2.79267142e-15 2.53490968e-16 3.24105097e-12
7.58577575e-01 3.07456210e-12 3.02472476e-12 4.48176724e-14 5.01966566e-15 4.88795064e-16 3.02472476e-12
8.70963590e-01 2.87035717e-12 2.82283739e-12 3.81880022e-14 9.33177761e-15 9.84406415e-16 2.82283739e-12
1.00000000e+00 2.68678281e-12 2.63442513e-12 3.40346835e-14 1.83229943e-14 2.06107797e-15 2.63442513e-12
1.14815362e+00 2.52304098e-12 2.45858859e-12 2.70895165e-14 3.73628757e-14 4.17280551e-15 2.45858859e-12
1.31825674e+00 2.39201491e-12 2.29448837e-12 2.21351511e-14 7.53913836e-14 7.88457633e-15 2.29448837e-12
1.51356125e+00 2.30181316e-12 2.14134114e-12 1.73882767e-14 1.43083737e-13 1.34506840e-14 2.14134114e-12
1.73780083e+00 2.25729181e-12 1.99841583e-12 1.31740530e-14 2.45701924e-13 1.96331203e-14 1.99841583e-12
1.99526231e+00 2.25685744e-12 1.86503017e-12 1.00512484e-14 3.81776019e-13 2.47357620e-14 1.86503017e-12
2.29086765e+00 2.28529306e-12 1.74054743e-12 7.10143726e-15 5.37644200e-13 2.71779178e-14 1.74054743e-12
2.63026799e+00 2.32114545e-12 1.62437337e-12 5.07637885e-15 6.91695702e-13 2.70020431e-14 1.62437337e-12
3.01995172e+00 2.34455986e-12 1.51595343e-12 3.51761790e-15 8.25088806e-13 2.45256699e-14 1.51595343e-12
3.46736850e+00 2.34258456e-12 1.41477006e-12 2.43723274e-15 9.25377269e-13 2.05958472e-14 1.41477006e-12
3.98107171e+00 2.30091036e-12 1.32034025e-12 1.67413663e-15 9.78895978e-13 1.63181141e-14 1.32034025e-12
4.57088190e+00 2.22769711e-12 1.23221321e-12 1.11460299e-15 9.94369293e-13 1.19874314e-14 1.23221321e-12
5.24807460e+00 1.99928762e-12 1.01885146e-12 6.26708226e-16 9.79809448e-13 8.31957816e-15 1.01885146e-12
6.02559586e+00 1.61437060e-12 6.73148485e-13 2.80306843e-16 9.40941803e-13 5.35806525e-15 6.73148485e-13
6.70000000e+00 1.38915973e-12 4.89650796e-13 1.42047287e-16 8.99366888e-13 3.66361282e-15 4.89650796e-13
6.92422916e+00 1.33134446e-12 4.43605145e-13 1.16211106e-16 8.87623108e-13 3.21185709e-15 4.43605145e-13
7.15596261e+00 1.28174318e-12 4.01889522e-13 8.98751302e-17 8.79763779e-13 2.78479700e-15 4.01889522e-13
7.39545150e+00 1.24883092e-12 3.64096743e-13 6.97331871e-17 8.84664442e-13 2.38150568e-15 3.64096743e-13
7.64295536e+00 1.26791319e-12 3.29857910e-13 4.84488645e-17 9.38006831e-13 1.98099324e-15 3.29857910e-13
7.89874245e+00 1.35749220e-12 2.98838820e-13 2.87555617e-17 1.05862462e-12 1.55038308e-15 2.98838820e-13
8.16308998e+00 1.50251140e-12 2.70736695e-13 1.73080326e-17 1.23175740e-12 1.20263415e-15 2.70736695e-13
8.43628443e+00 1.72014914e-12 2.45277229e-13 9.68018557e-18 1.47486223e-12 9.00414468e-16 2.45277229e-13
8.71862190e+00 1.87256344e-12 2.22211915e-13 6.08867665e-18 1.65034544e-12 6.97960597e-16 2.22211915e-13
9.01040836e+00 2.02579887e-12 2.01315610e-13 3.70140017e-18 1.82447956e-12 5.20399067e-16 2.01315610e-13
9.31196005e+00 2.15571208e-12 1.82384346e-13 0.00000000e+00 1.97332773e-12 0.00000000e+00 1.82384346e-13
9.62360379e+00 2.12808736e-12 1.65233336e-13 0.00000000e+00 1.96285403e-12 0.00000000e+00 1.65233336e-13
9.94567731e+00 2.00599117e-12 1.49695167e-13 0.00000000e+00 1.85629601e-12 0.00000000e+00 1.49695167e-13
1.02785297e+01 1.84077123e-12 1.35618173e-13 0.00000000e+00 1.70515306e-12 0.00000000e+00 1.35618173e-13
1.06225216e+01 1.69974410e-12 1.22864947e-13 0.00000000e+00 1.57687915e-12 0.00000000e+00 1.22864947e-13
1.09780260e+01 1.53572363e-12 1.11311006e-13 0.00000000e+00 1.42441263e-12 0.00000000e+00 1.11311006e-13
1.13454280e+01 1.39472551e-12 1.00843571e-13 0.00000000e+00 1.29388194e-12 0.00000000e+00 1.00843571e-13
1.17251259e+01 1.27963778e-12 9.13604705e-14 0.00000000e+00 1.18827731e-12 0.00000000e+00 9.13604705e-14
1.21175312e+01 1.16959355e-12 8.27691389e-14 0.00000000e+00 1.08682441e-12 0.00000000e+00 8.27691389e-14
1.25230691e+01 1.07649340e-12 7.49857166e-14 0.00000000e+00 1.00150768e-12 0.00000000e+00 7.49857166e-14
1.29421791e+01 9.90948117e-13 6.79342298e-14 0.00000000e+00 9.23013887e-13 0.00000000e+00 6.79342298e-14
1.33753155e+01 9.20809538e-13 6.15458488e-14 0.00000000e+00 8.59263689e-13 0.00000000e+00 6.15458488e-14
1.38229477e+01 8.74838369e-13 5.57582167e-14 0.00000000e+00 8.19080152e-13 0.00000000e+00 5.57582167e-14
1.42855609e+01 8.49420019e-13 5.05148403e-14 0.00000000e+00 7.98905179e-13 0.00000000e+00 5.05148403e-14
1.47636563e+01 8.57247472e-13 4.57645392e-14 0.00000000e+00 8.11482932e-13 0.00000000e+00 4.57645392e-14
1.52577522e+01 8.73202611e-13 4.14609457e-14 0.00000000e+00 8.31741665e-13 0.00000000e+00 4.14609457e-14
1.57683840e+01 8.96310132e-13 3.75620523e-14 0.00000000e+00 8.58748080e-13 0.00000000e+00 3.75620523e-14
1.62961051e+01 9.13600093e-13 3.40298020e-14 0.00000000e+00 8.79570291e-13 0.00000000e+00 3.40298020e-14
1.68414875e+01 9.39339719e-13 3.08297166e-14 0.00000000e+00 9.08510003e-13 0.00000000e+00 3.08297166e-14
1.74051222e+01 9.49937476e-13 2.79305599e-14 0.00000000e+00 9.22006916e-13 0.00000000e+00 2.79305599e-14
1.79876201e+01 9.55675584e-13 2.53040334e-14 0.00000000e+00 9.30371550e-13 0.00000000e+00 2.53040334e-14
1.85896125e+01 9.48025291e-13 2.29244994e-14 0.00000000e+00 9.25100791e-13 0.00000000e+00 2.29244994e-14
1.92117518e+01 9.27149910e-13 2.07687314e-14 0.00000000e+00 9.06381179e-13 0.00000000e+00 2.07687314e-14
1.98547123e+01 9.01170202e-13 1.88156870e-14 0.00000000e+00 8.82354515e-13 0.00000000e+00 1.88156870e-14
2.05191907e+01 8.72694669e-13 1.70463024e-14 0.00000000e+00 8.55648366e-13 0.00000000e+00 1.70463024e-14
2.12059073e+01 8.43376990e-13 1.54433068e-14 0.00000000e+00 8.27933683e-13 0.00000000e+00 1.54433068e-14
2.19156062e+01 8.18431638e-13 1.39910532e-14 0.00000000e+00 8.04440585e-13 0.00000000e+00 1.39910532e-14
2.26490567e+01 7.90809415e-13 1.26753663e-14 0.00000000e+00 7.78134049e-13 0.00000000e+00 1.26753663e-14
2.34070535e+01 7.65501475e-13 1.14834036e-14 0.00000000e+00 7.54018072e-13 0.00000000e+00 1.14834036e-14
2.41904183e+01 7.43275732e-13 1.04035303e-14 0.00000000e+00 7.32872201e-13 0.00000000e+00 1.04035303e-14
2.50000000e+01 7.19815720e-13 9.42520591e-15 0.00000000e+00 7.10390515e-13 0.00000000e+00 9.42520591e-15
2.75422870e+01 6.45123846e-13 7.04872996e-15 0.00000000e+00 6.38075116e-13 0.00000000e+00 7.04872996e-15
3.16227766e+01 5.37091637e-13 4.65704970e-15 0.00000000e+00 5.32434588e-13 0.00000000e+00 4.65704970e-15
3.63078055e+01 4.23347039e-13 3.07688223e-15 0.00000000e+00 4.20270157e-13 0.00000000e+00 3.07688223e-15
4.16869383e+01 3.10990975e-13 2.03287593e-15 0.00000000e+00 3.08958100e-13 0.00000000e+00 2.03287593e-15
4.78630092e+01 2.13250775e-13 1.34310781e-15 0.00000000e+00 2.11907667e-13 0.00000000e+00 1.34310781e-15
5.49540874e+01 1.38228870e-13 8.87382527e-16 0.00000000e+00 1.37341488e-13 0.00000000e+00 8.87382527e-16
6.30957344e+01 8.52705831e-14 5.86287821e-16 0.00000000e+00 8.46842953e-14 0.00000000e+00 5.86287821e-16
7.24435960e+01 5.06251517e-14 3.87356522e-16 0.00000000e+00 5.02377952e-14 0.00000000e+00 3.87356522e-16
8.31763771e+01 2.91653974e-14 2.55923916e-16 0.00000000e+00 2.89094735e-14 0.00000000e+00 2.55923916e-16
9.54992586e+01 1.64566839e-14 1.69087255e-16 0.00000000e+00 1.62875966e-14 0.00000000e+00 1.69087255e-16
1.09647820e+02 9.13480411e-15 1.11714841e-16 0.00000000e+00 9.02308927e-15 0.00000000e+00 1.11714841e-16
1.25892541e+02 5.06775243e-15 7.38092637e-17 0.00000000e+00 4.99394317e-15 0.00000000e+00 7.38092637e-17
1.44543977e+02 2.79347547e-15 4.87652969e-17 0.00000000e+00 2.74471017e-15 0.00000000e+00 4.87652969e-17
1.65958691e+02 1.46933845e-15 3.22189122e-17 0.00000000e+00 1.43711954e-15 0.00000000e+00 3.22189122e-17
1.90546072e+02 7.73967986e-16 2.12868242e-17 0.00000000e+00 7.52681161e-16 0.00000000e+00 2.12868242e-17
2.18776162e+02 4.07516466e-16 1.40640653e-17 0.00000000e+00 3.93452400e-16 0.00000000e+00 1.40640653e-17
2.51188643e+02 2.14196521e-16 9.29203577e-18 0.00000000e+00 2.04904485e-16 0.00000000e+00 9.29203577e-18
2.88403150e+02 1.12333132e-16 6.13918715e-18 0.00000000e+00 1.06193945e-16 0.00000000e+00 6.13918715e-18
3.31131121e+02 5.89282428e-17 4.05612073e-18 0.00000000e+00 5.48721220e-17 0.00000000e+00 4.05612073e-18
3.80189396e+02 3.09220086e-17 2.67985239e-18 0.00000000e+00 2.82421562e-17 0.00000000e+00 2.67985239e-18
4.36515832e+02 1.62684897e-17 1.77056092e-18 0.00000000e+00 1.44979288e-17 0.00000000e+00 1.77056092e-18
5.01187234e+02 8.59110624e-18 1.16979800e-18 0.00000000e+00 7.42130824e-18 0.00000000e+00 1.16979800e-18
5.75439937e+02 4.56299261e-18 7.72877871e-19 0.00000000e+00 3.79011473e-18 0.00000000e+00 7.72877871e-19
6.60693448e+02 2.44232621e-18 5.10635346e-19 0.00000000e+00 1.93169086e-18 0.00000000e+00 5.10635346e-19
7.58577575e+02 1.32017997e-18 3.37373427e-19 0.00000000e+00 9.82806546e-19 0.00000000e+00 3.37373427e-19
8.70963590e+02 7.22044381e-19 2.22900413e-19 0.00000000e+00 4.99143968e-19 0.00000000e+00 2.22900413e-19
1.00000000e+03 2.53083576e-19 0.00000000e+00 0.00000000e+00 2.53083576e-19 0.00000000e+00 0.00000000e+00
