# column 1: lambda (micron)
# column 2: total flux; lambda*F_lambda (W/m2)
# column 3: direct stellar flux; lambda*F_lambda (W/m2)
# column 4: scattered stellar flux; lambda*F_lambda (W/m2)
# column 5: total dust emission flux; lambda*F_lambda (W/m2)
# column 6: dust emission scattered flux; lambda*F_lambda (W/m2)
# column 7: transparent flux; lambda*F_lambda (W/m2)
1.00000000e-03 6.93994185e-13 6.93993746e-13 4.39514716e-19 0.00000000e+00 0.00000000e+00 6.93993746e-13
1.14815362e-03 8.19135802e-13 8.19135139e-13 6.63126931e-19 0.00000000e+00 0.00000000e+00 8.19135139e-13
1.31825674e-03 9.66843199e-13 9.66842108e-13 1.09096611e-18 0.00000000e+00 0.00000000e+00 9.66842108e-13
1.51356125e-03 1.14118529e-12 1.14118369e-12 1.60262542e-18 0.00000000e+00 0.00000000e+00 1.14118369e-12
1.73780083e-03 1.34696567e-12 1.34696266e-12 3.00936767e-18 0.00000000e+00 0.00000000e+00 1.34696266e-12
1.99526231e-03 1.58985311e-12 1.58984782e-12 5.28811676e-18 0.00000000e+00 0.00000000e+00 1.58984782e-12
2.29086765e-03 1.87653816e-12 1.87653019e-12 7.96519987e-18 0.00000000e+00 0.00000000e+00 1.87653019e-12
2.63026799e-03 2.21492327e-12 2.21490731e-12 1.59608865e-17 0.00000000e+00 0.00000000e+00 2.21490731e-12
3.01995172e-03 2.61432870e-12 2.61430080e-12 2.78922713e-17 0.00000000e+00 0.00000000e+00 2.61430080e-12
3.46736850e-03 3.08576197e-12 3.08571319e-12 4.87833557e-17 0.00000000e+00 0.00000000e+00 3.08571319e-12
3.98107171e-03 3.64227025e-12 3.64213095e-12 1.39304212e-16 0.00000000e+00 0.00000000e+00 3.64213095e-12
4.57088190e-03 4.29905387e-12 4.29888232e-12 1.71554274e-16 0.00000000e+00 0.00000000e+00 4.29888232e-12
5.24807460e-03 5.07436498e-12 5.07405951e-12 3.05473412e-16 0.00000000e+00 0.00000000e+00 5.07405951e-12
6.02559586e-03 5.98956665e-12 5.98901715e-12 5.49505968e-16 0.00000000e+00 0.00000000e+00 5.98901715e-12
6.91830971e-03 7.06982454e-12 7.06896053e-12 8.64014643e-16 0.00000000e+00 0.00000000e+00 7.06896053e-12
7.94328235e-03 8.34504667e-12 8.34363998e-12 1.40669019e-15 1.76082338e-304 2.88086663e-305 8.34363998e-12
9.12010839e-03 9.85045183e-12 9.84817045e-12 2.28138219e-15 1.08961821e-265 7.96729180e-267 9.84817045e-12
1.04712855e-02 1.10022110e-11 1.09990604e-11 3.15052136e-15 7.40631789e-232 1.02093037e-232 1.09990604e-11
1.20226443e-02 1.10038424e-11 1.09990604e-11 4.78193098e-15 1.64172686e-202 2.30164404e-203 1.09990604e-11
1.38038426e-02 1.10064646e-11 1.09990604e-11 7.40417008e-15 5.97065387e-177 7.56602046e-178 1.09990604e-11
1.58489319e-02 1.10317189e-11 1.09990604e-11 3.26584244e-14 1.04326879e-154 1.32991504e-155 1.09990604e-11
1.81970086e-02 1.10121436e-11 1.09990604e-11 1.30831873e-14 2.35341888e-135 3.19057799e-136 1.09990604e-11
2.08929613e-02 1.10187336e-11 1.09990604e-11 1.96731248e-14 1.47469688e-118 1.80405774e-119 1.09990604e-11
2.39883292e-02 1.10248935e-11 1.09990604e-11 2.58330887e-14 6.05162991e-104 6.91162821e-105 1.09990604e-11
2.75422870e-02 1.10318858e-11 1.09990604e-11 3.28253710e-14 3.10757152e-91 3.29241265e-92 1.09990604e-11
3.16227766e-02 1.10380782e-11 1.09990604e-11 3.90177084e-14 3.38169821e-80 3.27321847e-81 1.09990604e-11
3.63078055e-02 1.10433408e-11 1.09990604e-11 4.42803575e-14 1.30634983e-70 1.20363357e-71 1.09990604e-11
4.16869383e-02 1.10617396e-11 1.09990604e-11 6.26791769e-14 2.72242181e-62 2.53302173e-63 1.09990604e-11
4.78630092e-02 1.10791052e-11 1.09990604e-11 8.00447454e-14 4.36322235e-55 3.76593897e-56 1.09990604e-11
5.49540874e-02 1.10892439e-11 1.09990604e-11 9.01834781e-14 7.61487163e-49 6.16374055e-50 1.09990604e-11
6.30957344e-02 1.11055895e-11 1.09990604e-11 1.06529102e-13 2.49113743e-43 1.79876951e-44 1.09990604e-11
7.24435960e-02 1.10990355e-11 1.09990604e-11 9.99750156e-14 1.47583371e-38 9.26154189e-40 1.09990604e-11
8.31763771e-02 1.10970663e-11 1.09990604e-11 9.80058551e-14 1.58436633e-34 9.49432902e-36 1.09990604e-11
9.54992586e-02 1.11049858e-11 1.09990604e-11 1.05925405e-13 4.72498630e-31 2.89204437e-32 1.09990604e-11
1.09647820e-01 1.06087001e-11 1.05040253e-11 1.04674783e-13 4.32656376e-28 2.99784241e-29 1.05040253e-11
1.25892541e-01 9.90210349e-12 9.80292679e-12 9.91766926e-14 1.50582375e-25 1.14086846e-26 9.80292679e-12
1.44543977e-01 9.23941790e-12 9.14862359e-12 9.07943102e-14 2.18502825e-23 1.78784538e-24 9.14862359e-12
1.65958691e-01 8.62978646e-12 8.53799231e-12 9.17941417e-14 1.16853797e-21 1.10114972e-22 8.53799231e-12
1.90546072e-01 8.07352377e-12 7.96811805e-12 1.05405702e-13 2.47160402e-20 2.50457717e-21 7.96811805e-12
2.18776162e-01 7.53291753e-12 7.43628044e-12 9.66368059e-14 2.86936364e-19 2.56613567e-20 7.43628044e-12
2.51188643e-01 7.05638838e-12 6.93994070e-12 1.16443946e-13 3.73390251e-18 4.39828367e-19 6.93994070e-12
2.88403150e-01 6.58136241e-12 6.47672950e-12 1.04599985e-13 3.29248761e-17 4.19920130e-18 6.47672950e-12
3.31131121e-01 6.14335445e-12 6.04443567e-12 9.87211081e-14 1.97679964e-16 2.61748926e-17 6.04443567e-12
3.80189396e-01 5.73304717e-12 5.64099558e-12 9.11952242e-14 8.56362631e-16 1.16136846e-16 5.64099558e-12
4.36515832e-01 5.35202787e-12 5.26448339e-12 8.47026125e-14 2.84187577e-15 3.96569305e-16 5.26448339e-12
5.01187234e-01 4.99675564e-12 4.91310176e-12 7.62716432e-14 7.38224002e-15 1.03691846e-15 4.91310176e-12
5.75439937e-01 4.67326319e-12 4.58517335e-12 7.22136263e-14 1.58762125e-14 2.24312660e-15 4.58517335e-12
6.60693448e-01 4.37488607e-12 4.27913275e-12 6.64148823e-14 2.93384397e-14 4.10671607e-15 4.27913275e-12
7.58577575e-01 4.10189957e-12 3.99351904e-12 5.95407952e-14 4.88397372e-14 6.80502341e-15 3.99351904e-12
8.70963590e-01 3.85735996e-12 3.72696882e-12 5.37197562e-14 7.66713874e-14 1.02964619e-14 3.72696882e-12
1.00000000e+00 3.64164834e-12 3.47820968e-12 4.62037411e-14 1.17234918e-13 1.55527402e-14 3.47820968e-12
1.14815362e+00 3.46506765e-12 3.24605414e-12 3.76249432e-14 1.81388560e-13 2.29321472e-14 3.24605414e-12
1.31825674e+00 3.34457236e-12 3.02939399e-12 3.05375815e-14 2.84640791e-13 3.24464560e-14 3.02939399e-12
1.51356125e+00 3.29259018e-12 2.82719497e-12 2.39833869e-14 4.41411825e-13 4.42153691e-14 2.82719497e-12
1.73780083e+00 3.30424229e-12 2.63849186e-12 1.75044782e-14 6.48245945e-13 5.39654375e-14 2.63849186e-12
1.99526231e+00 3.35857114e-12 2.46238388e-12 1.28804671e-14 8.83306797e-13 5.89138779e-14 2.46238388e-12
2.29086765e+00 3.41040875e-12 2.29803035e-12 9.43101453e-15 1.10294739e-12 5.69726386e-14 2.29803035e-12
2.63026799e+00 3.42517702e-12 2.14464670e-12 6.73293819e-15 1.27379738e-12 5.13565209e-14 2.14464670e-12
3.01995172e+00 3.38546019e-12 2.00150076e-12 4.68940012e-15 1.37927003e-12 4.32968553e-14 2.00150076e-12
3.46736850e+00 3.28864757e-12 1.86790919e-12 3.24791803e-15 1.41749045e-12 3.46107716e-14 1.86790919e-12
3.98107171e+00 3.14038273e-12 1.74323429e-12 2.19904785e-15 1.39494940e-12 2.61064313e-14 1.74323429e-12
4.57088190e+00 2.96411036e-12 1.62688090e-12 1.43489493e-15 1.33579457e-12 1.83144527e-14 1.62688090e-12
5.24807460e+00 2.60307991e-12 1.34518114e-12 8.06934525e-16 1.25709183e-12 1.22104680e-14 1.34518114e-12
6.02559586e+00 2.06022440e-12 8.88752369e-13 3.46787281e-16 1.17112524e-12 7.57067074e-15 8.88752369e-13
6.70000000e+00 1.74903174e-12 6.46481889e-13 1.72148867e-16 1.10237771e-12 5.02034547e-15 6.46481889e-13
6.92422916e+00 1.66492160e-12 5.85688198e-13 1.35228346e-16 1.07909817e-12 4.36047259e-15 5.85688198e-13
7.15596261e+00 1.59389339e-12 5.30611407e-13 1.15452866e-16 1.06316653e-12 3.76460299e-15 5.30611407e-13
7.39545150e+00 1.54973551e-12 4.80713913e-13 8.46827956e-17 1.06893691e-12 3.20260809e-15 4.80713913e-13
7.64295536e+00 1.57047236e-12 4.35508666e-13 6.06150251e-17 1.13490308e-12 2.69033645e-15 4.35508666e-13
7.89874245e+00 1.68541164e-12 3.94554418e-13 3.80692447e-17 1.29081915e-12 2.19820301e-15 3.94554418e-13
8.16308998e+00 1.87299818e-12 3.57451415e-13 2.31911244e-17 1.51552358e-12 1.75958879e-15 3.57451415e-13
8.43628443e+00 2.13557564e-12 3.23837494e-13 1.31462386e-17 1.81172500e-12 1.34473983e-15 3.23837494e-13
8.71862190e+00 2.29938365e-12 2.93384550e-13 8.30214517e-18 2.00599079e-12 1.06544554e-15 2.93384550e-13
9.01040836e+00 2.46669134e-12 2.65795332e-13 5.10697742e-18 2.20089090e-12 7.78132435e-16 2.65795332e-13
9.31196005e+00 2.59587722e-12 2.40800541e-13 0.00000000e+00 2.35507668e-12 0.00000000e+00 2.40800541e-13
9.62360379e+00 2.53097990e-12 2.18156204e-13 0.00000000e+00 2.31282370e-12 0.00000000e+00 2.18156204e-13
9.94567731e+00 2.36950857e-12 1.97641289e-13 0.00000000e+00 2.17186728e-12 0.00000000e+00 1.97641289e-13
1.02785297e+01 2.18257619e-12 1.79055550e-13 0.00000000e+00 2.00352064e-12 0.00000000e+00 1.79055550e-13
1.06225216e+01 1.99298508e-12 1.62217572e-13 0.00000000e+00 1.83076751e-12 0.00000000e+00 1.62217572e-13
1.09780260e+01 1.79777466e-12 1.46962999e-13 0.00000000e+00 1.65081166e-12 0.00000000e+00 1.46962999e-13
1.13454280e+01 1.62352423e-12 1.33142932e-13 0.00000000e+00 1.49038130e-12 0.00000000e+00 1.33142932e-13
1.17251259e+01 1.48018867e-12 1.20622472e-13 0.00000000e+00 1.35956620e-12 0.00000000e+00 1.20622472e-13
1.21175312e+01 1.34367716e-12 1.09279408e-13 0.00000000e+00 1.23439776e-12 0.00000000e+00 1.09279408e-13
1.25230691e+01 1.21827778e-12 9.90030204e-14 0.00000000e+00 1.11927476e-12 0.00000000e+00 9.90030204e-14
1.29421791e+01 1.11601196e-12 8.96930008e-14 0.00000000e+00 1.02631896e-12 0.00000000e+00 8.96930008e-14
1.33753155e+01 1.01862237e-12 8.12584743e-14 0.00000000e+00 9.37363891e-13 0.00000000e+00 8.12584743e-14
1.38229477e+01 9.50140819e-13 7.36171115e-14 0.00000000e+00 8.76523708e-13 0.00000000e+00 7.36171115e-14
1.42855609e+01 9.09753061e-13 6.66943252e-14 0.00000000e+00 8.43058736e-13 0.00000000e+00 6.66943252e-14
1.47636563e+01 9.05188665e-13 6.04225420e-14 0.00000000e+00 8.44766123e-13 0.00000000e+00 6.04225420e-14
1.52577522e+01 9.12043204e-13 5.47405431e-14 0.00000000e+00 8.57302661e-13 0.00000000e+00 5.47405431e-14
1.57683840e+01 9.26238173e-13 4.95928665e-14 0.00000000e+00 8.76645307e-13 0.00000000e+00 4.95928665e-14
1.62961051e+01 9.40017997e-13 4.49292657e-14 0.00000000e+00 8.95088732e-13 0.00000000e+00 4.49292657e-14
1.68414875e+01 9.51648682e-13 4.07042194e-14 0.00000000e+00 9.10944463e-13 0.00000000e+00 4.07042194e-14
1.74051222e+01 9.52789095e-13 3.68764869e-14 0.00000000e+00 9.15912609e-13 0.00000000e+00 3.68764869e-14
1.79876201e+01 9.44326665e-13 3.34087056e-14 0.00000000e+00 9.10917959e-13 0.00000000e+00 3.34087056e-14
1.85896125e+01 9.21079483e-13 3.02670267e-14 0.00000000e+00 8.90812456e-13 0.00000000e+00 3.02670267e-14
1.92117518e+01 8.85504109e-13 2.74207841e-14 0.00000000e+00 8.58083325e-13 0.00000000e+00 2.74207841e-14
1.98547123e+01 8.46962539e-13 2.48421957e-14 0.00000000e+00 8.22120344e-13 0.00000000e+00 2.48421957e-14
2.05191907e+01 8.02787319e-13 2.25060919e-14 0.00000000e+00 7.80281227e-13 0.00000000e+00 2.25060919e-14
2.12059073e+01 7.60491850e-13 2.03896700e-14 0.00000000e+00 7.40102180e-13 0.00000000e+00 2.03896700e-14
2.19156062e+01 7.20591864e-13 1.84722717e-14 0.00000000e+00 7.02119592e-13 0.00000000e+00 1.84722717e-14
2.26490567e+01 6.83287108e-13 1.67351811e-14 0.00000000e+00 6.66551927e-13 0.00000000e+00 1.67351811e-14
2.34070535e+01 6.47621788e-13 1.51614426e-14 0.00000000e+00 6.32460345e-13 0.00000000e+00 1.51614426e-14
2.41904183e+01 6.14145818e-13 1.37356949e-14 0.00000000e+00 6.00410123e-13 0.00000000e+00 1.37356949e-14
2.50000000e+01 5.81594262e-13 1.24440213e-14 0.00000000e+00 5.69150241e-13 0.00000000e+00 1.24440213e-14
2.75422870e+01 4.93448475e-13 9.30637977e-15 0.00000000e+00 4.84142095e-13 0.00000000e+00 9.30637977e-15
3.16227766e+01 3.80027505e-13 6.14866414e-15 0.00000000e+00 3.73878841e-13 0.00000000e+00 6.14866414e-15
3.63078055e+01 2.77579025e-13 4.06238211e-15 0.00000000e+00 2.73516643e-13 0.00000000e+00 4.06238211e-15
4.16869383e+01 1.90422723e-13 2.68398924e-15 0.00000000e+00 1.87738733e-13 0.00000000e+00 2.68398924e-15
4.78630092e+01 1.22731033e-13 1.77329411e-15 0.00000000e+00 1.20957739e-13 0.00000000e+00 1.77329411e-15
5.49540874e+01 7.51101969e-14 1.17160380e-15 0.00000000e+00 7.39385931e-14 0.00000000e+00 1.17160380e-15
6.30957344e+01 4.41879477e-14 7.74070953e-16 0.00000000e+00 4.34138767e-14 0.00000000e+00 7.74070953e-16
7.24435960e+01 2.52252814e-14 5.11423607e-16 0.00000000e+00 2.47138578e-14 0.00000000e+00 5.11423607e-16
8.31763771e+01 1.41054307e-14 3.37894226e-16 0.00000000e+00 1.37675364e-14 0.00000000e+00 3.37894226e-16
9.54992586e+01 7.77523998e-15 2.23244502e-16 0.00000000e+00 7.55199547e-15 0.00000000e+00 2.23244502e-16
1.09647820e+02 4.24522464e-15 1.47496179e-16 0.00000000e+00 4.09772846e-15 0.00000000e+00 1.47496179e-16
1.25892541e+02 2.32879608e-15 9.74497594e-17 0.00000000e+00 2.23134632e-15 0.00000000e+00 9.74497594e-17
1.44543977e+02 1.27590881e-15 6.43844175e-17 0.00000000e+00 1.21152439e-15 0.00000000e+00 6.43844175e-17
1.65958691e+02 6.69591752e-16 4.25383628e-17 0.00000000e+00 6.27053389e-16 0.00000000e+00 4.25383628e-17
1.90546072e+02 3.53546526e-16 2.81048176e-17 0.00000000e+00 3.25441708e-16 0.00000000e+00 2.81048176e-17
2.18776162e+02 1.87487800e-16 1.85686688e-17 0.00000000e+00 1.68919131e-16 0.00000000e+00 1.85686688e-17
2.51188643e+02 9.97363716e-17 1.22681978e-17 0.00000000e+00 8.74681737e-17 0.00000000e+00 1.22681978e-17
2.88403150e+02 5.32268326e-17 8.10551794e-18 0.00000000e+00 4.51213147e-17 0.00000000e+00 8.10551794e-18
3.31131121e+02 2.85837992e-17 5.35526259e-18 0.00000000e+00 2.32285366e-17 0.00000000e+00 5.35526259e-18
3.80189396e+02 1.54566074e-17 3.53818691e-18 0.00000000e+00 1.19184205e-17 0.00000000e+00 3.53818691e-18
4.36515832e+02 8.44044905e-18 2.33765691e-18 0.00000000e+00 6.10279214e-18 0.00000000e+00 2.33765691e-18
5.01187234e+02 4.66186527e-18 1.54447460e-18 0.00000000e+00 3.11739067e-18 0.00000000e+00 1.54447460e-18
5.75439937e+02 2.60971600e-18 1.02042425e-18 0.00000000e+00 1.58929175e-18 0.00000000e+00 1.02042425e-18
6.60693448e+02 1.48303422e-18 6.74187617e-19 0.00000000e+00 8.08846600e-19 0.00000000e+00 6.74187617e-19
7.58577575e+02 8.56460052e-19 4.45431341e-19 0.00000000e+00 4.11028711e-19 0.00000000e+00 4.45431341e-19
8.70963590e+02 5.02834789e-19 2.94293569e-19 0.00000000e+00 2.08541221e-19 0.00000000e+00 2.94293569e-19
1.00000000e+03 1.05647800e-19 0.00000000e+00 0.00000000e+00 1.05647800e-19 0.00000000e+00 0.00000000e+00
