# column 1: lambda (micron)
# column 2: total flux; lambda*F_lambda (W/m2)
# column 3: direct stellar flux; lambda*F_lambda (W/m2)
# column 4: scattered stellar flux; lambda*F_lambda (W/m2)
# column 5: total dust emission flux; lambda*F_lambda (W/m2)
# column 6: dust emission scattered flux; lambda*F_lambda (W/m2)
# column 7: transparent flux; lambda*F_lambda (W/m2)
1.00000000e-03 1.07335819e-12 1.07335627e-12 1.91901710e-18 0.00000000e+00 0.00000000e+00 1.07335627e-12
1.14815362e-03 1.26690751e-12 1.26690456e-12 2.95282694e-18 0.00000000e+00 0.00000000e+00 1.26690456e-12
1.31825674e-03 1.49535810e-12 1.49535359e-12 4.50740107e-18 0.00000000e+00 0.00000000e+00 1.49535359e-12
1.51356125e-03 1.76500377e-12 1.76499670e-12 7.07056322e-18 0.00000000e+00 0.00000000e+00 1.76499670e-12
1.73780083e-03 2.08327451e-12 2.08326203e-12 1.24818749e-17 0.00000000e+00 0.00000000e+00 2.08326203e-12
1.99526231e-03 2.45893914e-12 2.45891716e-12 2.19755624e-17 0.00000000e+00 0.00000000e+00 2.45891716e-12
2.29086765e-03 2.90234501e-12 2.90231066e-12 3.43408111e-17 0.00000000e+00 0.00000000e+00 2.90231066e-12
2.63026799e-03 3.42572687e-12 3.42565717e-12 6.96989418e-17 0.00000000e+00 0.00000000e+00 3.42565717e-12
3.01995172e-03 4.04349272e-12 4.04337385e-12 1.18875918e-16 0.00000000e+00 0.00000000e+00 4.04337385e-12
3.46736850e-03 4.77267844e-12 4.77247759e-12 2.00854891e-16 0.00000000e+00 0.00000000e+00 4.77247759e-12
3.98107171e-03 5.63338037e-12 5.63305378e-12 3.26593506e-16 0.00000000e+00 0.00000000e+00 5.63305378e-12
4.57088190e-03 6.64956030e-12 6.64880962e-12 7.50675423e-16 0.00000000e+00 0.00000000e+00 6.64880962e-12
5.24807460e-03 7.84898007e-12 7.84772720e-12 1.25287794e-15 0.00000000e+00 0.00000000e+00 7.84772720e-12
6.02559586e-03 9.26537497e-12 9.26283435e-12 2.54061249e-15 0.00000000e+00 0.00000000e+00 9.26283435e-12
6.91830971e-03 1.09367687e-11 1.09331145e-11 3.65418191e-15 0.00000000e+00 0.00000000e+00 1.09331145e-11
7.94328235e-03 1.29108124e-11 1.29045807e-11 6.23169022e-15 2.29287160e-304 3.05208528e-307 1.29045807e-11
9.12010839e-03 1.52424274e-11 1.52315429e-11 1.08845294e-14 9.80421422e-266 1.66785528e-268 1.52315429e-11
1.04712855e-02 1.70277866e-11 1.70115517e-11 1.62349098e-14 4.05578873e-232 9.77374435e-235 1.70115517e-11
1.20226443e-02 1.70379111e-11 1.70115517e-11 2.63593982e-14 6.23718430e-203 2.34071407e-205 1.70115517e-11
1.38038426e-02 1.70433961e-11 1.70115517e-11 3.18443709e-14 1.67284297e-177 8.91351310e-180 1.70115517e-11
1.58489319e-02 1.70584452e-11 1.70115517e-11 4.68934955e-14 2.23505344e-155 1.83674303e-157 1.70115517e-11
1.81970086e-02 1.70805053e-11 1.70115517e-11 6.89535431e-14 3.94312758e-136 4.20544149e-138 1.70115517e-11
2.08929613e-02 1.70994368e-11 1.70115517e-11 8.78850467e-14 2.04004778e-119 2.72329933e-121 1.70115517e-11
2.39883292e-02 1.71274485e-11 1.70115517e-11 1.15896799e-13 7.11282602e-105 1.29454127e-106 1.70115517e-11
2.75422870e-02 1.71683446e-11 1.70115517e-11 1.56792930e-13 3.16892862e-92 7.52529911e-94 1.70115517e-11
3.16227766e-02 1.72064585e-11 1.70115517e-11 1.94906788e-13 3.07792788e-81 8.98707071e-83 1.70115517e-11
3.63078055e-02 1.72377940e-11 1.70115517e-11 2.26242308e-13 1.06456214e-71 3.68431430e-73 1.70115517e-11
4.16869383e-02 1.73299021e-11 1.70115517e-11 3.18350383e-13 2.03207186e-63 9.76624744e-65 1.70115517e-11
4.78630092e-02 1.74243562e-11 1.70115517e-11 4.12804476e-13 3.09383311e-56 2.01325070e-57 1.70115517e-11
5.49540874e-02 1.75256674e-11 1.70115517e-11 5.14115673e-13 5.17820560e-50 4.14408230e-51 1.70115517e-11
6.30957344e-02 1.75937143e-11 1.70115517e-11 5.82162602e-13 1.68655545e-44 1.59360885e-45 1.70115517e-11
7.24435960e-02 1.75607520e-11 1.70115517e-11 5.49200328e-13 9.73893769e-40 8.90533816e-41 1.70115517e-11
8.31763771e-02 1.75391790e-11 1.70115517e-11 5.27627310e-13 9.93216902e-36 8.96287871e-37 1.70115517e-11
9.54992586e-02 1.75640430e-11 1.70115517e-11 5.52491314e-13 2.79689304e-32 2.63447032e-33 1.70115517e-11
1.09647820e-01 1.68257045e-11 1.62459122e-11 5.79792343e-13 2.37231933e-29 2.39765362e-30 1.62459122e-11
1.25892541e-01 1.56958283e-11 1.51615674e-11 5.34260912e-13 7.62491985e-27 7.34799018e-28 1.51615674e-11
1.44543977e-01 1.46389465e-11 1.41495980e-11 4.89348577e-13 1.03234859e-24 9.58213753e-26 1.41495980e-11
1.65958691e-01 1.37026892e-11 1.32051732e-11 4.97516047e-13 5.23905059e-23 5.33768846e-24 1.32051732e-11
1.90546072e-01 1.28657481e-11 1.23237846e-11 5.41963419e-13 1.11384548e-21 1.34633978e-22 1.23237846e-11
2.18776162e-01 1.20143295e-11 1.15012250e-11 5.13104443e-13 1.32623111e-20 1.70801877e-21 1.15012250e-11
2.51188643e-01 1.13134363e-11 1.07335677e-11 5.79868454e-13 1.62205534e-19 2.47481097e-20 1.07335677e-11
2.88403150e-01 1.05540155e-11 1.00171482e-11 5.36865875e-13 1.34357038e-18 2.00365436e-19 1.00171482e-11
3.31131121e-01 9.82945594e-12 9.34854667e-12 4.80901618e-13 7.65321235e-18 1.09075054e-18 9.34854667e-12
3.80189396e-01 9.15772053e-12 8.72457139e-12 4.33117188e-13 3.19539627e-17 4.44309290e-18 8.72457139e-12
4.36515832e-01 8.53442040e-12 8.14224377e-12 3.92071577e-13 1.05048048e-16 1.51747504e-17 8.14224377e-12
5.01187234e-01 7.95671746e-12 7.59878402e-12 3.57625715e-13 3.07728574e-16 5.11594043e-17 7.59878402e-12
5.75439937e-01 7.41269522e-12 7.09159786e-12 3.20123969e-13 9.73382317e-16 2.04171331e-16 7.09159786e-12
6.60693448e-01 6.91141123e-12 6.61826421e-12 2.89586111e-13 3.56091432e-15 8.77522549e-16 6.61826421e-12
7.58577575e-01 6.44398840e-12 6.17652353e-12 2.54476297e-13 1.29885726e-14 3.34329841e-15 6.17652353e-12
8.70963590e-01 6.02307080e-12 5.76426715e-12 2.16107244e-13 4.26964029e-14 1.07481645e-14 5.76426715e-12
1.00000000e+00 5.67905425e-12 5.37952711e-12 1.80178375e-13 1.19348760e-13 2.81272663e-14 5.37952711e-12
1.14815362e+00 5.45765164e-12 5.02046681e-12 1.48399123e-13 2.88785708e-13 6.17042512e-14 5.02046681e-12
1.31825674e+00 5.42850524e-12 4.68537225e-12 1.16663679e-13 6.26469318e-13 1.18126975e-13 4.68537225e-12
1.51356125e+00 5.66499135e-12 4.37264380e-12 8.98027207e-14 1.20254483e-12 1.95234189e-13 4.37264380e-12
1.73780083e+00 6.20960503e-12 4.08078863e-12 6.82833868e-14 2.06053302e-12 2.80902818e-13 4.08078863e-12
1.99526231e+00 7.02705487e-12 3.80841354e-12 5.17500972e-14 3.16689123e-12 3.46418648e-13 3.80841354e-12
2.29086765e+00 8.01086666e-12 3.55421832e-12 3.73268980e-14 4.41932144e-12 3.81659583e-13 3.55421832e-12
2.63026799e+00 8.99979685e-12 3.31698953e-12 2.70823731e-14 5.65572495e-12 3.76523368e-13 3.31698953e-12
3.01995172e+00 9.89336085e-12 3.09559474e-12 1.89774202e-14 6.77878869e-12 3.43166062e-13 3.09559474e-12
3.46736850e+00 1.06035913e-11 2.88897711e-12 1.31733580e-14 7.70144086e-12 2.90051046e-13 2.88897711e-12
3.98107171e+00 1.10489973e-11 2.69615031e-12 9.11630055e-15 8.34373065e-12 2.31478088e-13 2.69615031e-12
4.57088190e+00 1.12692456e-11 2.51619387e-12 6.05574488e-15 8.74699595e-12 1.72881548e-13 2.51619387e-12
5.24807460e+00 1.09454035e-11 2.08050667e-12 3.43577413e-15 8.86146101e-12 1.20127170e-13 2.08050667e-12
6.02559586e+00 1.02928333e-11 1.37457712e-12 1.48008113e-15 8.91677606e-12 7.97390423e-14 1.37457712e-12
6.70000000e+00 9.80199573e-12 9.99872685e-13 7.58430147e-16 8.80136462e-12 5.54421643e-14 9.99872685e-13
6.92422916e+00 9.63612614e-12 9.05846924e-13 6.13536912e-16 8.72966568e-12 4.88662523e-14 9.05846924e-13
7.15596261e+00 9.56687079e-12 8.20663132e-13 4.88488663e-16 8.74571917e-12 4.26895038e-14 8.20663132e-13
7.39545150e+00 9.55489270e-12 7.43489831e-13 3.72061458e-16 8.81103081e-12 3.66059756e-14 7.43489831e-13
7.64295536e+00 9.80993138e-12 6.73573732e-13 2.58886079e-16 9.13609876e-12 3.00454134e-14 6.73573732e-13
7.89874245e+00 1.05039195e-11 6.10232385e-13 1.58552351e-16 9.89352860e-12 2.32002186e-14 6.10232385e-13
8.16308998e+00 1.14853323e-11 5.52847515e-13 9.10114769e-17 1.09323938e-11 1.75196362e-14 5.52847515e-13
8.43628443e+00 1.27499502e-11 5.00858987e-13 4.97402106e-17 1.22490415e-11 1.27970430e-14 5.00858987e-13
8.71862190e+00 1.35991584e-11 4.53759343e-13 3.05740404e-17 1.31453685e-11 9.95967532e-15 4.53759343e-13
9.01040836e+00 1.44750744e-11 4.11088843e-13 1.82300897e-17 1.40639674e-11 7.43813962e-15 4.11088843e-13
9.31196005e+00 1.51081896e-11 3.72430980e-13 0.00000000e+00 1.47357587e-11 0.00000000e+00 3.72430980e-13
9.62360379e+00 1.49435856e-11 3.37408415e-13 0.00000000e+00 1.46061772e-11 0.00000000e+00 3.37408415e-13
9.94567731e+00 1.44111223e-11 3.05679292e-13 0.00000000e+00 1.41054430e-11 0.00000000e+00 3.05679292e-13
1.02785297e+01 1.37750138e-11 2.76933904e-13 0.00000000e+00 1.34980799e-11 0.00000000e+00 2.76933904e-13
1.06225216e+01 1.29694634e-11 2.50891667e-13 0.00000000e+00 1.27185718e-11 0.00000000e+00 2.50891667e-13
1.09780260e+01 1.23103419e-11 2.27298384e-13 0.00000000e+00 1.20830435e-11 0.00000000e+00 2.27298384e-13
1.13454280e+01 1.16090401e-11 2.05923759e-13 0.00000000e+00 1.14031163e-11 0.00000000e+00 2.05923759e-13
1.17251259e+01 1.09646523e-11 1.86559155e-13 0.00000000e+00 1.07780931e-11 0.00000000e+00 1.86559155e-13
1.21175312e+01 1.04559438e-11 1.69015555e-13 0.00000000e+00 1.02869283e-11 0.00000000e+00 1.69015555e-13
1.25230691e+01 9.91463967e-12 1.53121715e-13 0.00000000e+00 9.76151796e-12 0.00000000e+00 1.53121715e-13
1.29421791e+01 9.42613592e-12 1.38722496e-13 0.00000000e+00 9.28741342e-12 0.00000000e+00 1.38722496e-13
1.33753155e+01 8.99010755e-12 1.25677347e-13 0.00000000e+00 8.86443020e-12 0.00000000e+00 1.25677347e-13
1.38229477e+01 8.65754995e-12 1.13858934e-13 0.00000000e+00 8.54369101e-12 0.00000000e+00 1.13858934e-13
1.42855609e+01 8.49058302e-12 1.03151898e-13 0.00000000e+00 8.38743112e-12 0.00000000e+00 1.03151898e-13
1.47636563e+01 8.51260293e-12 9.34517274e-14 0.00000000e+00 8.41915120e-12 0.00000000e+00 9.34517274e-14
1.52577522e+01 8.60832047e-12 8.46637387e-14 0.00000000e+00 8.52365673e-12 0.00000000e+00 8.46637387e-14
1.57683840e+01 8.67633482e-12 7.67021526e-14 0.00000000e+00 8.59963266e-12 0.00000000e+00 7.67021526e-14
1.62961051e+01 8.73467040e-12 6.94892560e-14 0.00000000e+00 8.66518114e-12 0.00000000e+00 6.94892560e-14
1.68414875e+01 8.80025110e-12 6.29546439e-14 0.00000000e+00 8.73729645e-12 0.00000000e+00 6.29546439e-14
1.74051222e+01 8.77900635e-12 5.70345319e-14 0.00000000e+00 8.72197182e-12 0.00000000e+00 5.70345319e-14
1.79876201e+01 8.70872541e-12 5.16711337e-14 0.00000000e+00 8.65705428e-12 0.00000000e+00 5.16711337e-14
1.85896125e+01 8.54111299e-12 4.68120974e-14 0.00000000e+00 8.49430089e-12 0.00000000e+00 4.68120974e-14
1.92117518e+01 8.31262184e-12 4.24099939e-14 0.00000000e+00 8.27021185e-12 0.00000000e+00 4.24099939e-14
1.98547123e+01 7.97415807e-12 3.84218542e-14 0.00000000e+00 7.93573622e-12 0.00000000e+00 3.84218542e-14
2.05191907e+01 7.70272377e-12 3.48087501e-14 0.00000000e+00 7.66791502e-12 0.00000000e+00 3.48087501e-14
2.12059073e+01 7.33940646e-12 3.15354141e-14 0.00000000e+00 7.30787104e-12 0.00000000e+00 3.15354141e-14
2.19156062e+01 7.05825473e-12 2.85698952e-14 0.00000000e+00 7.02968484e-12 0.00000000e+00 2.85698952e-14
2.26490567e+01 6.72508368e-12 2.58832470e-14 0.00000000e+00 6.69920043e-12 0.00000000e+00 2.58832470e-14
2.34070535e+01 6.42450264e-12 2.34492452e-14 0.00000000e+00 6.40105340e-12 0.00000000e+00 2.34492452e-14
2.41904183e+01 6.11397758e-12 2.12441313e-14 0.00000000e+00 6.09273345e-12 0.00000000e+00 2.12441313e-14
2.50000000e+01 5.80465641e-12 1.92463813e-14 0.00000000e+00 5.78541003e-12 0.00000000e+00 1.92463813e-14
2.75422870e+01 4.95908999e-12 1.43935895e-14 0.00000000e+00 4.94469641e-12 0.00000000e+00 1.43935895e-14
3.16227766e+01 3.79813796e-12 9.50975027e-15 0.00000000e+00 3.78862821e-12 0.00000000e+00 9.50975027e-15
3.63078055e+01 2.76192427e-12 6.28302969e-15 0.00000000e+00 2.75564124e-12 0.00000000e+00 6.28302969e-15
4.16869383e+01 1.88192033e-12 4.15115655e-15 0.00000000e+00 1.87776917e-12 0.00000000e+00 4.15115655e-15
4.78630092e+01 1.20857424e-12 2.74264194e-15 0.00000000e+00 1.20583159e-12 0.00000000e+00 2.74264194e-15
5.49540874e+01 7.37823752e-13 1.81204556e-15 0.00000000e+00 7.36011706e-13 0.00000000e+00 1.81204556e-15
6.30957344e+01 4.30742249e-13 1.19720663e-15 0.00000000e+00 4.29545043e-13 0.00000000e+00 1.19720663e-15
7.24435960e+01 2.43547259e-13 7.90986575e-16 0.00000000e+00 2.42756272e-13 0.00000000e+00 7.90986575e-16
8.31763771e+01 1.34357585e-13 5.22599647e-16 0.00000000e+00 1.33834986e-13 0.00000000e+00 5.22599647e-16
9.54992586e+01 7.28324369e-14 3.45278163e-16 0.00000000e+00 7.24871588e-14 0.00000000e+00 3.45278163e-16
1.09647820e+02 3.90661350e-14 2.28123020e-16 0.00000000e+00 3.88380120e-14 0.00000000e+00 2.28123020e-16
1.25892541e+02 2.10129669e-14 1.50719385e-16 0.00000000e+00 2.08622475e-14 0.00000000e+00 1.50719385e-16
1.44543977e+02 1.12808324e-14 9.95793099e-17 0.00000000e+00 1.11812531e-14 0.00000000e+00 9.95793099e-17
1.65958691e+02 5.78807341e-15 6.57913976e-17 0.00000000e+00 5.72228201e-15 0.00000000e+00 6.57913976e-17
1.90546072e+02 2.98172718e-15 4.34679453e-17 0.00000000e+00 2.93825924e-15 0.00000000e+00 4.34679453e-17
2.18776162e+02 1.53860894e-15 2.87189867e-17 0.00000000e+00 1.50988995e-15 0.00000000e+00 2.87189867e-17
2.51188643e+02 7.93809330e-16 1.89744463e-17 0.00000000e+00 7.74834883e-16 0.00000000e+00 1.89744463e-17
2.88403150e+02 4.08933172e-16 1.25362924e-17 0.00000000e+00 3.96396880e-16 0.00000000e+00 1.25362924e-17
3.31131121e+02 2.10864157e-16 8.28264623e-18 0.00000000e+00 2.02581511e-16 0.00000000e+00 8.28264623e-18
3.80189396e+02 1.08737481e-16 5.47229010e-18 0.00000000e+00 1.03265191e-16 0.00000000e+00 5.47229010e-18
4.36515832e+02 5.61876992e-17 3.61550621e-18 0.00000000e+00 5.25721930e-17 0.00000000e+00 3.61550621e-18
5.01187234e+02 2.91052788e-17 2.38874127e-18 0.00000000e+00 2.67165375e-17 0.00000000e+00 2.38874127e-18
5.75439937e+02 1.51374699e-17 1.57822570e-18 0.00000000e+00 1.35592442e-17 0.00000000e+00 1.57822570e-18
6.60693448e+02 7.91598991e-18 1.04272338e-18 0.00000000e+00 6.87326652e-18 0.00000000e+00 1.04272338e-18
7.58577575e+02 4.16951153e-18 6.88920507e-19 0.00000000e+00 3.48059102e-18 0.00000000e+00 6.88920507e-19
8.70963590e+02 2.21568267e-18 4.55165265e-19 0.00000000e+00 1.76051740e-18 0.00000000e+00 4.55165265e-19
1.00000000e+03 8.89487271e-19 0.00000000e+00 0.00000000e+00 8.89487271e-19 0.00000000e+00 0.00000000e+00
