# column 1: lambda (micron)
# column 2: total flux; lambda*F_lambda (W/m2)
# column 3: direct stellar flux; lambda*F_lambda (W/m2)
# column 4: scattered stellar flux; lambda*F_lambda (W/m2)
# column 5: total dust emission flux; lambda*F_lambda (W/m2)
# column 6: dust emission scattered flux; lambda*F_lambda (W/m2)
# column 7: transparent flux; lambda*F_lambda (W/m2)
1.00000000e-03 1.07335632e-12 1.07335627e-12 4.67280654e-20 0.00000000e+00 0.00000000e+00 1.07335627e-12
1.14815362e-03 1.26690463e-12 1.26690456e-12 7.43154355e-20 0.00000000e+00 0.00000000e+00 1.26690456e-12
1.31825674e-03 1.49535371e-12 1.49535359e-12 1.17642386e-19 0.00000000e+00 0.00000000e+00 1.49535359e-12
1.51356125e-03 1.76499689e-12 1.76499670e-12 1.86347818e-19 0.00000000e+00 0.00000000e+00 1.76499670e-12
1.73780083e-03 2.08326236e-12 2.08326203e-12 3.35623568e-19 0.00000000e+00 0.00000000e+00 2.08326203e-12
1.99526231e-03 2.45891776e-12 2.45891716e-12 5.95690045e-19 0.00000000e+00 0.00000000e+00 2.45891716e-12
2.29086765e-03 2.90231169e-12 2.90231066e-12 1.02061248e-18 0.00000000e+00 0.00000000e+00 2.90231066e-12
2.63026799e-03 3.42565907e-12 3.42565717e-12 1.90257995e-18 0.00000000e+00 0.00000000e+00 3.42565717e-12
3.01995172e-03 4.04337722e-12 4.04337385e-12 3.37431094e-18 0.00000000e+00 0.00000000e+00 4.04337385e-12
3.46736850e-03 4.77248291e-12 4.77247759e-12 5.32301710e-18 0.00000000e+00 0.00000000e+00 4.77247759e-12
3.98107171e-03 5.63306259e-12 5.63305378e-12 8.80703757e-18 0.00000000e+00 0.00000000e+00 5.63305378e-12
4.57088190e-03 6.64882943e-12 6.64880962e-12 1.98071494e-17 0.00000000e+00 0.00000000e+00 6.64880962e-12
5.24807460e-03 7.84776436e-12 7.84772720e-12 3.71646356e-17 0.00000000e+00 0.00000000e+00 7.84772720e-12
6.02559586e-03 9.26290621e-12 9.26283435e-12 7.18613448e-17 0.00000000e+00 0.00000000e+00 9.26283435e-12
6.91830971e-03 1.09347640e-11 1.09331145e-11 1.64946175e-15 0.00000000e+00 0.00000000e+00 1.09331145e-11
7.94328235e-03 1.29075070e-11 1.29045807e-11 2.92628948e-15 4.77141571e-304 3.08919662e-307 1.29045807e-11
9.12010839e-03 1.52351184e-11 1.52315429e-11 3.57546334e-15 2.17314677e-265 1.55714029e-268 1.52315429e-11
1.04712855e-02 1.70164033e-11 1.70115517e-11 4.85157802e-15 9.50081975e-232 1.38961382e-234 1.70115517e-11
1.20226443e-02 1.70192260e-11 1.70115517e-11 7.67429712e-15 1.53078809e-202 1.99403881e-205 1.70115517e-11
1.38038426e-02 1.70186329e-11 1.70115517e-11 7.08122502e-15 4.27641683e-177 7.48707998e-180 1.70115517e-11
1.58489319e-02 1.70192993e-11 1.70115517e-11 7.74754481e-15 5.91315434e-155 1.49111093e-157 1.70115517e-11
1.81970086e-02 1.70205333e-11 1.70115517e-11 8.98156580e-15 1.07508349e-135 3.57311597e-138 1.70115517e-11
2.08929613e-02 1.70204282e-11 1.70115517e-11 8.87643653e-15 5.70945965e-119 2.58553438e-121 1.70115517e-11
2.39883292e-02 1.70214390e-11 1.70115517e-11 9.88727899e-15 2.03249005e-104 1.25657788e-106 1.70115517e-11
2.75422870e-02 1.70223947e-11 1.70115517e-11 1.08430279e-14 9.20889553e-92 7.11540035e-94 1.70115517e-11
3.16227766e-02 1.70236614e-11 1.70115517e-11 1.21096889e-14 9.07825785e-81 9.01171706e-83 1.70115517e-11
3.63078055e-02 1.70246932e-11 1.70115517e-11 1.31414524e-14 3.17791486e-71 3.70303639e-73 1.70115517e-11
4.16869383e-02 1.70276512e-11 1.70115517e-11 1.60995177e-14 6.09503025e-63 1.00843976e-64 1.70115517e-11
4.78630092e-02 1.70313546e-11 1.70115517e-11 1.98028946e-14 9.29070866e-56 2.19932377e-57 1.70115517e-11
5.49540874e-02 1.70367824e-11 1.70115517e-11 2.52307129e-14 1.55822514e-49 4.88351458e-51 1.70115517e-11
6.30957344e-02 1.70429645e-11 1.70115517e-11 3.14127464e-14 5.09383334e-44 2.13112838e-45 1.70115517e-11
7.24435960e-02 1.70436482e-11 1.70115517e-11 3.20964987e-14 2.97765152e-39 1.29053907e-40 1.70115517e-11
8.31763771e-02 1.70424510e-11 1.70115517e-11 3.08992917e-14 3.06283171e-35 1.33386194e-36 1.70115517e-11
9.54992586e-02 1.70439287e-11 1.70115517e-11 3.23770074e-14 8.66321756e-32 3.98281479e-33 1.70115517e-11
1.09647820e-01 1.62776843e-11 1.62459122e-11 3.17721854e-14 7.34701709e-29 3.49608707e-30 1.62459122e-11
1.25892541e-01 1.51895267e-11 1.51615674e-11 2.79592622e-14 2.37470476e-26 1.02464071e-27 1.51615674e-11
1.44543977e-01 1.41725681e-11 1.41495980e-11 2.29701082e-14 3.23038147e-24 1.28431162e-25 1.41495980e-11
1.65958691e-01 1.32285808e-11 1.32051732e-11 2.34076152e-14 1.63637806e-22 7.21124521e-24 1.32051732e-11
1.90546072e-01 1.23499826e-11 1.23237846e-11 2.61979759e-14 3.45978057e-21 1.94838977e-22 1.23237846e-11
2.18776162e-01 1.15299023e-11 1.15012250e-11 2.86772200e-14 4.13586415e-20 2.74153944e-21 1.15012250e-11
2.51188643e-01 1.07648990e-11 1.07335677e-11 3.13308295e-14 5.00734920e-19 4.00996448e-20 1.07335677e-11
2.88403150e-01 1.00442785e-11 1.00171482e-11 2.71261342e-14 4.15684754e-18 3.17427369e-19 1.00171482e-11
3.31131121e-01 9.37193114e-12 9.34854667e-12 2.33607115e-14 2.37516826e-17 1.69079831e-18 9.34854667e-12
3.80189396e-01 8.74523274e-12 8.72457139e-12 2.05625390e-14 9.88123368e-17 6.68098855e-18 8.72457139e-12
4.36515832e-01 8.16224665e-12 8.14224377e-12 1.96905729e-14 3.12304548e-16 2.05323839e-17 8.14224377e-12
5.01187234e-01 7.61644774e-12 7.59878402e-12 1.68838074e-14 7.79915646e-16 5.09647544e-17 7.59878402e-12
5.75439937e-01 7.11021645e-12 7.09159786e-12 1.70095912e-14 1.60899194e-15 1.06043301e-16 7.09159786e-12
6.60693448e-01 6.63579560e-12 6.61826421e-12 1.46827916e-14 2.84860502e-15 1.88409691e-16 6.61826421e-12
7.58577575e-01 6.19522519e-12 6.17652353e-12 1.41360506e-14 4.56560262e-15 3.02763176e-16 6.17652353e-12
8.70963590e-01 5.78350541e-12 5.76426715e-12 1.23267788e-14 6.91148260e-15 4.56473157e-16 5.76426715e-12
1.00000000e+00 5.40068264e-12 5.37952711e-12 1.08633322e-14 1.02921961e-14 6.74432890e-16 5.37952711e-12
1.14815362e+00 5.04613218e-12 5.02046681e-12 9.75012344e-15 1.59152484e-14 9.94402134e-16 5.02046681e-12
1.31825674e+00 4.71864654e-12 4.68537225e-12 7.45155986e-15 2.58227359e-14 1.47249563e-15 4.68537225e-12
1.51356125e+00 4.42136140e-12 4.37264380e-12 6.14436959e-15 4.25732360e-14 2.17215458e-15 4.37264380e-12
1.73780083e+00 4.15329710e-12 4.08078863e-12 4.70954458e-15 6.77989269e-14 3.01587684e-15 4.08078863e-12
1.99526231e+00 3.91285169e-12 3.80841354e-12 3.29100126e-15 1.01147151e-13 3.70882525e-15 3.80841354e-12
2.29086765e+00 3.69576815e-12 3.55421832e-12 2.34682313e-15 1.39203016e-13 4.11213357e-15 3.55421832e-12
2.63026799e+00 3.49584940e-12 3.31698953e-12 1.59532987e-15 1.77264538e-13 4.20895038e-15 3.31698953e-12
3.01995172e+00 3.30713739e-12 3.09559474e-12 1.15230404e-15 2.10390342e-13 3.85485439e-15 3.09559474e-12
3.46736850e+00 3.12353841e-12 2.88897711e-12 7.72763562e-16 2.33788537e-13 3.34296404e-15 2.88897711e-12
3.98107171e+00 2.94161168e-12 2.69615031e-12 4.97061095e-16 2.44964310e-13 2.63365639e-15 2.69615031e-12
4.57088190e+00 2.76056685e-12 2.51619387e-12 3.31771811e-16 2.44041205e-13 1.90207769e-15 2.51619387e-12
5.24807460e+00 2.31494418e-12 2.08050667e-12 1.84987121e-16 2.34252526e-13 1.28422310e-15 2.08050667e-12
6.02559586e+00 1.59384375e-12 1.37457712e-12 8.21375254e-17 2.19184485e-13 8.06333408e-16 1.37457712e-12
6.70000000e+00 1.20460238e-12 9.99872685e-13 4.00082739e-17 2.04689684e-13 5.34438267e-16 9.99872685e-13
6.92422916e+00 1.10576641e-12 9.05846924e-13 3.18509226e-17 1.99887638e-13 4.55274051e-16 9.05846924e-13
7.15596261e+00 1.01745391e-12 8.20663132e-13 2.49144810e-17 1.96765867e-13 3.95988491e-16 8.20663132e-13
7.39545150e+00 9.41943391e-13 7.43489831e-13 1.88684359e-17 1.98434692e-13 3.39064928e-16 7.43489831e-13
7.64295536e+00 8.87016648e-13 6.73573732e-13 1.32515617e-17 2.13429664e-13 2.83962403e-16 6.73573732e-13
7.89874245e+00 8.59669567e-13 6.10232385e-13 8.48237362e-18 2.49428699e-13 2.34667517e-16 6.10232385e-13
8.16308998e+00 8.56509455e-13 5.52847515e-13 5.23548565e-18 3.03656705e-13 1.91348856e-16 5.52847515e-13
8.43628443e+00 8.81746305e-13 5.00858987e-13 3.04306850e-18 3.80884274e-13 1.49077955e-16 5.00858987e-13
8.71862190e+00 8.91641036e-13 4.53759343e-13 1.90905173e-18 4.37879784e-13 1.17621716e-16 4.53759343e-13
9.01040836e+00 9.07681531e-13 4.11088843e-13 1.23636631e-18 4.96591451e-13 8.70612752e-17 4.11088843e-13
9.31196005e+00 9.17193823e-13 3.72430980e-13 0.00000000e+00 5.44762843e-13 0.00000000e+00 3.72430980e-13
9.62360379e+00 8.82019968e-13 3.37408415e-13 0.00000000e+00 5.44611554e-13 0.00000000e+00 3.37408415e-13
9.94567731e+00 8.13649126e-13 3.05679292e-13 0.00000000e+00 5.07969834e-13 0.00000000e+00 3.05679292e-13
1.02785297e+01 7.38685277e-13 2.76933904e-13 0.00000000e+00 4.61751372e-13 0.00000000e+00 2.76933904e-13
1.06225216e+01 6.66474797e-13 2.50891667e-13 0.00000000e+00 4.15583129e-13 0.00000000e+00 2.50891667e-13
1.09780260e+01 5.93061081e-13 2.27298384e-13 0.00000000e+00 3.65762697e-13 0.00000000e+00 2.27298384e-13
1.13454280e+01 5.29574729e-13 2.05923759e-13 0.00000000e+00 3.23650970e-13 0.00000000e+00 2.05923759e-13
1.17251259e+01 4.74067492e-13 1.86559155e-13 0.00000000e+00 2.87508337e-13 0.00000000e+00 1.86559155e-13
1.21175312e+01 4.24243516e-13 1.69015555e-13 0.00000000e+00 2.55227961e-13 0.00000000e+00 1.69015555e-13
1.25230691e+01 3.79336496e-13 1.53121715e-13 0.00000000e+00 2.26214781e-13 0.00000000e+00 1.53121715e-13
1.29421791e+01 3.41256254e-13 1.38722496e-13 0.00000000e+00 2.02533758e-13 0.00000000e+00 1.38722496e-13
1.33753155e+01 3.08030012e-13 1.25677347e-13 0.00000000e+00 1.82352665e-13 0.00000000e+00 1.25677347e-13
1.38229477e+01 2.82684763e-13 1.13858934e-13 0.00000000e+00 1.68825829e-13 0.00000000e+00 1.13858934e-13
1.42855609e+01 2.64727354e-13 1.03151898e-13 0.00000000e+00 1.61575456e-13 0.00000000e+00 1.03151898e-13
1.47636563e+01 2.57255084e-13 9.34517274e-14 0.00000000e+00 1.63803356e-13 0.00000000e+00 9.34517274e-14
1.52577522e+01 2.52359119e-13 8.46637387e-14 0.00000000e+00 1.67695380e-13 0.00000000e+00 8.46637387e-14
1.57683840e+01 2.50384923e-13 7.67021526e-14 0.00000000e+00 1.73682770e-13 0.00000000e+00 7.67021526e-14
1.62961051e+01 2.49117330e-13 6.94892560e-14 0.00000000e+00 1.79628074e-13 0.00000000e+00 6.94892560e-14
1.68414875e+01 2.49022188e-13 6.29546439e-14 0.00000000e+00 1.86067544e-13 0.00000000e+00 6.29546439e-14
1.74051222e+01 2.46135308e-13 5.70345319e-14 0.00000000e+00 1.89100776e-13 0.00000000e+00 5.70345319e-14
1.79876201e+01 2.41423575e-13 5.16711337e-14 0.00000000e+00 1.89752442e-13 0.00000000e+00 5.16711337e-14
1.85896125e+01 2.33934297e-13 4.68120974e-14 0.00000000e+00 1.87122199e-13 0.00000000e+00 4.68120974e-14
1.92117518e+01 2.23407430e-13 4.24099939e-14 0.00000000e+00 1.80997436e-13 0.00000000e+00 4.24099939e-14
1.98547123e+01 2.11003752e-13 3.84218542e-14 0.00000000e+00 1.72581897e-13 0.00000000e+00 3.84218542e-14
2.05191907e+01 1.98614866e-13 3.48087501e-14 0.00000000e+00 1.63806115e-13 0.00000000e+00 3.48087501e-14
2.12059073e+01 1.87228245e-13 3.15354141e-14 0.00000000e+00 1.55692831e-13 0.00000000e+00 3.15354141e-14
2.19156062e+01 1.77623534e-13 2.85698952e-14 0.00000000e+00 1.49053638e-13 0.00000000e+00 2.85698952e-14
2.26490567e+01 1.68028620e-13 2.58832470e-14 0.00000000e+00 1.42145373e-13 0.00000000e+00 2.58832470e-14
2.34070535e+01 1.59511104e-13 2.34492452e-14 0.00000000e+00 1.36061859e-13 0.00000000e+00 2.34492452e-14
2.41904183e+01 1.51756721e-13 2.12441313e-14 0.00000000e+00 1.30512589e-13 0.00000000e+00 2.12441313e-14
2.50000000e+01 1.44468046e-13 1.92463813e-14 0.00000000e+00 1.25221664e-13 0.00000000e+00 1.92463813e-14
2.75422870e+01 1.25010328e-13 1.43935895e-14 0.00000000e+00 1.10616738e-13 0.00000000e+00 1.43935895e-14
3.16227766e+01 1.00981145e-13 9.50975027e-15 0.00000000e+00 9.14713952e-14 0.00000000e+00 9.50975027e-15
3.63078055e+01 7.89732281e-14 6.28302969e-15 0.00000000e+00 7.26901984e-14 0.00000000e+00 6.28302969e-15
4.16869383e+01 5.86713975e-14 4.15115655e-15 0.00000000e+00 5.45202410e-14 0.00000000e+00 4.15115655e-15
4.78630092e+01 4.11878753e-14 2.74264194e-15 0.00000000e+00 3.84452334e-14 0.00000000e+00 2.74264194e-15
5.49540874e+01 2.74781995e-14 1.81204556e-15 0.00000000e+00 2.56661540e-14 0.00000000e+00 1.81204556e-15
6.30957344e+01 1.75694095e-14 1.19720663e-15 0.00000000e+00 1.63722029e-14 0.00000000e+00 1.19720663e-15
7.24435960e+01 1.08547376e-14 7.90986575e-16 0.00000000e+00 1.00637510e-14 0.00000000e+00 7.90986575e-16
8.31763771e+01 6.52165340e-15 5.22599647e-16 0.00000000e+00 5.99905375e-15 0.00000000e+00 5.22599647e-16
9.54992586e+01 3.83968615e-15 3.45278163e-16 0.00000000e+00 3.49440799e-15 0.00000000e+00 3.45278163e-16
1.09647820e+02 2.22551272e-15 2.28123020e-16 0.00000000e+00 1.99738970e-15 0.00000000e+00 2.28123020e-16
1.25892541e+02 1.28755615e-15 1.50719385e-16 0.00000000e+00 1.13683677e-15 0.00000000e+00 1.50719385e-16
1.44543977e+02 7.40518539e-16 9.95793099e-17 0.00000000e+00 6.40939229e-16 0.00000000e+00 9.95793099e-17
1.65958691e+02 4.09087721e-16 6.57913976e-17 0.00000000e+00 3.43296323e-16 0.00000000e+00 6.57913976e-17
1.90546072e+02 2.26911276e-16 4.34679453e-17 0.00000000e+00 1.83443330e-16 0.00000000e+00 4.34679453e-17
2.18776162e+02 1.26305210e-16 2.87189867e-17 0.00000000e+00 9.75862238e-17 0.00000000e+00 2.87189867e-17
2.51188643e+02 7.05830888e-17 1.89744463e-17 0.00000000e+00 5.16086424e-17 0.00000000e+00 1.89744463e-17
2.88403150e+02 3.96418784e-17 1.25362924e-17 0.00000000e+00 2.71055861e-17 0.00000000e+00 1.25362924e-17
3.31131121e+02 2.24528040e-17 8.28264623e-18 0.00000000e+00 1.41701577e-17 0.00000000e+00 8.28264623e-18
3.80189396e+02 1.28397958e-17 5.47229010e-18 0.00000000e+00 7.36750574e-18 0.00000000e+00 5.47229010e-18
4.36515832e+02 7.43098023e-18 3.61550621e-18 0.00000000e+00 3.81547402e-18 0.00000000e+00 3.61550621e-18
5.01187234e+02 4.35681904e-18 2.38874127e-18 0.00000000e+00 1.96807777e-18 0.00000000e+00 2.38874127e-18
5.75439937e+02 2.59000434e-18 1.57822570e-18 0.00000000e+00 1.01177864e-18 0.00000000e+00 1.57822570e-18
6.60693448e+02 1.56137707e-18 1.04272338e-18 0.00000000e+00 5.18653689e-19 0.00000000e+00 1.04272338e-18
7.58577575e+02 9.54122969e-19 6.88920507e-19 0.00000000e+00 2.65202463e-19 0.00000000e+00 6.88920507e-19
8.70963590e+02 5.90441686e-19 4.55165265e-19 0.00000000e+00 1.35276421e-19 0.00000000e+00 4.55165265e-19
1.00000000e+03 6.88487810e-20 0.00000000e+00 0.00000000e+00 6.88487810e-20 0.00000000e+00 0.00000000e+00
