# column 1: lambda (micron)
# column 2: total flux; lambda*F_lambda (W/m2)
# column 3: direct stellar flux; lambda*F_lambda (W/m2)
# column 4: scattered stellar flux; lambda*F_lambda (W/m2)
# column 5: total dust emission flux; lambda*F_lambda (W/m2)
# column 6: dust emission scattered flux; lambda*F_lambda (W/m2)
# column 7: transparent flux; lambda*F_lambda (W/m2)
1.00000000e-03 1.04629822e-12 1.04629767e-12 5.45043087e-19 0.00000000e+00 0.00000000e+00 1.04634360e-12
1.14815362e-03 1.23495019e-12 1.23494932e-12 8.63908654e-19 0.00000000e+00 0.00000000e+00 1.23502095e-12
1.31825674e-03 1.45761457e-12 1.45761323e-12 1.34480069e-18 0.00000000e+00 0.00000000e+00 1.45772071e-12
1.51356125e-03 1.72043037e-12 1.72042827e-12 2.10416774e-18 0.00000000e+00 0.00000000e+00 1.72057784e-12
1.73780083e-03 2.03065893e-12 2.03065516e-12 3.76774046e-18 0.00000000e+00 0.00000000e+00 2.03083353e-12
1.99526231e-03 2.39676214e-12 2.39675560e-12 6.54052863e-18 0.00000000e+00 0.00000000e+00 2.39703472e-12
2.29086765e-03 2.82893084e-12 2.82892019e-12 1.06529309e-17 0.00000000e+00 0.00000000e+00 2.82926954e-12
2.63026799e-03 3.33897222e-12 3.33895109e-12 2.11364166e-17 0.00000000e+00 0.00000000e+00 3.33944522e-12
3.01995172e-03 3.94093068e-12 3.94089478e-12 3.58932767e-17 0.00000000e+00 0.00000000e+00 3.94161611e-12
3.46736850e-03 4.65142541e-12 4.65136733e-12 5.80808605e-17 0.00000000e+00 0.00000000e+00 4.65237083e-12
3.98107171e-03 5.49003087e-12 5.48993352e-12 9.73434103e-17 0.00000000e+00 0.00000000e+00 5.49128930e-12
4.57088190e-03 6.48062714e-12 6.48041459e-12 2.12547558e-16 0.00000000e+00 0.00000000e+00 6.48148207e-12
5.24807460e-03 7.64899712e-12 7.64861779e-12 3.79330359e-16 0.00000000e+00 0.00000000e+00 7.65022704e-12
6.02559586e-03 9.02812881e-12 9.02743066e-12 6.98147591e-16 0.00000000e+00 0.00000000e+00 9.02972084e-12
6.91830971e-03 1.06559309e-11 1.06548461e-11 1.08475884e-15 0.00000000e+00 0.00000000e+00 1.06579658e-11
7.94328235e-03 1.25775536e-11 1.25757089e-11 1.84470475e-15 6.42897264e-304 2.34569373e-306 1.25798170e-11
9.12010839e-03 1.48459411e-11 1.48428369e-11 3.10423421e-15 2.77509893e-265 3.36073910e-268 1.48482176e-11
1.04712855e-02 1.65812373e-11 1.65770366e-11 4.20073376e-15 1.15993925e-231 1.82756547e-234 1.65834298e-11
1.20226443e-02 1.65828357e-11 1.65766593e-11 6.17632441e-15 1.79988506e-202 4.66030992e-205 1.65834298e-11
1.38038426e-02 1.65853177e-11 1.65762119e-11 9.10579727e-15 4.86158462e-177 1.52718041e-179 1.65834298e-11
1.58489319e-02 1.65902407e-11 1.65756620e-11 1.45786797e-14 6.53114729e-155 2.92437549e-157 1.65834298e-11
1.81970086e-02 1.65940023e-11 1.65751549e-11 1.88473399e-14 1.15954302e-135 8.27835909e-138 1.65834298e-11
2.08929613e-02 1.66000410e-11 1.65747334e-11 2.53075996e-14 6.02622755e-119 5.41771855e-121 1.65834298e-11
2.39883292e-02 1.66084001e-11 1.65741873e-11 3.42127659e-14 2.10888782e-104 2.73301122e-106 1.65834298e-11
2.75422870e-02 1.66189097e-11 1.65735521e-11 4.53576435e-14 9.40872708e-92 1.50286105e-93 1.65834298e-11
3.16227766e-02 1.66293777e-11 1.65729295e-11 5.64482546e-14 9.16453320e-81 1.90995303e-82 1.65834298e-11
3.63078055e-02 1.66389092e-11 1.65724411e-11 6.64680662e-14 3.17130309e-71 7.54285804e-73 1.65834298e-11
4.16869383e-02 1.66647394e-11 1.65720188e-11 9.27206417e-14 6.04345742e-63 2.01026662e-64 1.65834298e-11
4.78630092e-02 1.66992949e-11 1.65708546e-11 1.28440304e-13 9.17722548e-56 4.21126463e-57 1.65834298e-11
5.49540874e-02 1.67298746e-11 1.65692357e-11 1.60638955e-13 1.53509355e-49 9.02931646e-51 1.65834298e-11
6.30957344e-02 1.67683985e-11 1.65651770e-11 2.03221487e-13 5.00343758e-44 3.65086038e-45 1.65834298e-11
7.24435960e-02 1.67621308e-11 1.65603708e-11 2.01759974e-13 2.90316485e-39 2.12693775e-40 1.65834298e-11
8.31763771e-02 1.67646903e-11 1.65607984e-11 2.03891879e-13 2.96543514e-35 2.14360471e-36 1.65834298e-11
9.54992586e-02 1.67754022e-11 1.65620527e-11 2.13349481e-13 8.35596270e-32 6.32123639e-33 1.65834298e-11
1.09647820e-01 1.60362908e-11 1.58200972e-11 2.16193683e-13 7.07987841e-29 5.69713184e-30 1.58370587e-11
1.25892541e-01 1.49546245e-11 1.47669719e-11 1.87652614e-13 2.27662234e-26 1.70620062e-27 1.47800032e-11
1.44543977e-01 1.39500596e-11 1.37834206e-11 1.66638921e-13 3.08394076e-24 2.18683560e-25 1.37935015e-11
1.65958691e-01 1.30427852e-11 1.28646165e-11 1.78168699e-13 1.56414133e-22 1.23355956e-23 1.28728446e-11
1.90546072e-01 1.22090263e-11 1.20054455e-11 2.03580858e-13 3.32047560e-21 3.20531602e-22 1.20136376e-11
2.18776162e-01 1.14126656e-11 1.12028113e-11 2.09854252e-13 3.96281283e-20 4.21740964e-21 1.12117790e-11
2.51188643e-01 1.06973862e-11 1.04567473e-11 2.40638466e-13 4.84606777e-19 6.30653579e-20 1.04634409e-11
2.88403150e-01 9.97989079e-12 9.75986456e-12 2.20022221e-13 4.01009055e-18 5.02270926e-19 9.76505125e-12
3.31131121e-01 9.30294885e-12 9.10905636e-12 1.93869607e-13 2.28833651e-17 2.74909438e-18 9.11327608e-12
3.80189396e-01 8.67400561e-12 8.50154577e-12 1.72364466e-13 9.53769134e-17 1.12000963e-17 8.50500410e-12
4.36515832e-01 8.09903506e-12 7.93452264e-12 1.64207420e-13 3.05003308e-16 3.60163174e-17 7.93733165e-12
5.01187234e-01 7.55571404e-12 7.40529816e-12 1.49619175e-13 7.96704074e-16 1.00418094e-16 7.40754890e-12
5.75439937e-01 7.05652037e-12 6.91134205e-12 1.43298541e-13 1.87978670e-15 2.79334621e-16 6.91312687e-12
6.60693448e-01 6.58759420e-12 6.45030227e-12 1.32848363e-13 4.44357040e-15 8.14858494e-16 6.45170538e-12
7.58577575e-01 6.14961269e-12 6.01999216e-12 1.18347032e-13 1.12734984e-14 2.46313302e-15 6.02108180e-12
8.70963590e-01 5.75165073e-12 5.61837303e-12 1.04713378e-13 2.85643234e-14 6.60939246e-15 5.61920048e-12
1.00000000e+00 5.40269407e-12 5.24352481e-12 9.12894222e-14 6.78798321e-14 1.53437645e-14 5.24414302e-12
1.14815362e+00 5.11896853e-12 4.89366536e-12 7.61971607e-14 1.49106007e-13 3.07918944e-14 4.89411902e-12
1.31825674e+00 4.92608830e-12 4.56713049e-12 6.17774015e-14 2.97180408e-13 5.32787293e-14 4.56745763e-12
1.51356125e+00 4.84663551e-12 4.26236596e-12 4.78676472e-14 5.36401900e-13 8.16003050e-14 4.26259947e-12
1.73780083e+00 4.88297787e-12 3.97792532e-12 3.73637534e-14 8.67688798e-13 1.06973038e-13 3.97808929e-12
1.99526231e+00 5.00291121e-12 3.71245560e-12 2.75170063e-14 1.26293860e-12 1.21544991e-13 3.71256894e-12
2.29086765e+00 5.16094215e-12 3.46469284e-12 1.92640903e-14 1.67698523e-12 1.23098690e-13 3.46477093e-12
2.63026799e+00 5.30448372e-12 3.23345806e-12 1.34265003e-14 2.05759916e-12 1.12537580e-13 3.23351237e-12
3.01995172e+00 5.38440857e-12 3.01765107e-12 9.35086522e-15 2.35740663e-12 9.52492013e-14 3.01768933e-12
3.46736850e+00 5.38529397e-12 2.81624415e-12 6.47596966e-15 2.56257385e-12 7.61391920e-14 2.81627154e-12
3.98107171e+00 5.29334766e-12 2.62827767e-12 4.46168199e-15 2.66060831e-12 5.72719847e-14 2.62829753e-12
4.57088190e+00 5.11927946e-12 2.45285538e-12 2.94821349e-15 2.66347587e-12 4.05621772e-14 2.45286997e-12
5.24807460e+00 4.62712574e-12 2.02813781e-12 1.67242921e-15 2.59731550e-12 2.71994835e-14 2.02814751e-12
6.02559586e+00 3.83829816e-12 1.33997845e-12 7.38624333e-16 2.49758109e-12 1.73841504e-14 1.33998377e-12
6.70000000e+00 3.37330774e-12 9.74705919e-13 3.79502888e-16 2.39822232e-12 1.17810007e-14 9.74709347e-13
6.92422916e+00 3.24690320e-12 8.83046892e-13 3.04737666e-16 2.36355157e-12 1.03496747e-14 8.83049889e-13
7.15596261e+00 3.14650600e-12 8.00007211e-13 2.41316601e-16 2.34625748e-12 9.02738541e-15 8.00009879e-13
7.39545150e+00 3.09447646e-12 7.24776288e-13 1.87307276e-16 2.36951286e-12 7.71218510e-15 7.24778763e-13
7.64295536e+00 3.16394230e-12 6.56619656e-13 1.29396232e-16 2.50719325e-12 6.40381036e-15 6.56622211e-13
7.89874245e+00 3.42784827e-12 5.94871956e-13 7.80511752e-17 2.83289826e-12 5.07273118e-15 5.94874946e-13
8.16308998e+00 3.83400926e-12 5.38930597e-13 4.60997407e-17 3.29503256e-12 3.98143225e-15 5.38934254e-13
8.43628443e+00 4.42972224e-12 4.88249495e-13 2.49618291e-17 3.94144778e-12 3.01234762e-15 4.88254098e-13
8.71862190e+00 4.83746572e-12 4.42334665e-13 1.62343951e-17 4.39511482e-12 2.38302619e-15 4.42339790e-13
9.01040836e+00 5.26402033e-12 4.00737535e-13 1.02475568e-17 4.86327255e-12 1.84816823e-15 4.00743158e-13
9.31196005e+00 5.61161611e-12 3.63052271e-13 0.00000000e+00 5.24856384e-12 0.00000000e+00 3.63058180e-13
9.62360379e+00 5.61282114e-12 3.28911517e-13 0.00000000e+00 5.28390962e-12 0.00000000e+00 3.28917012e-13
9.94567731e+00 5.28173129e-12 2.97981730e-13 0.00000000e+00 4.98374955e-12 0.00000000e+00 2.97986401e-13
1.02785297e+01 4.91853256e-12 2.69960607e-13 0.00000000e+00 4.64857195e-12 0.00000000e+00 2.69964435e-13
1.06225216e+01 4.57546190e-12 2.44574488e-13 0.00000000e+00 4.33088741e-12 0.00000000e+00 2.44577592e-13
1.09780260e+01 4.17045292e-12 2.21575643e-13 0.00000000e+00 3.94887728e-12 0.00000000e+00 2.21578069e-13
1.13454280e+01 3.82906809e-12 2.00739466e-13 0.00000000e+00 3.62832862e-12 0.00000000e+00 2.00741370e-13
1.17251259e+01 3.55656824e-12 1.81862603e-13 0.00000000e+00 3.37470564e-12 0.00000000e+00 1.81864106e-13
1.21175312e+01 3.28761045e-12 1.64760837e-13 0.00000000e+00 3.12284961e-12 0.00000000e+00 1.64762018e-13
1.25230691e+01 3.05478982e-12 1.49267246e-13 0.00000000e+00 2.90552257e-12 0.00000000e+00 1.49268171e-13
1.29421791e+01 2.84936447e-12 1.35230601e-13 0.00000000e+00 2.71413387e-12 0.00000000e+00 1.35231331e-13
1.33753155e+01 2.68091968e-12 1.22513903e-13 0.00000000e+00 2.55840577e-12 0.00000000e+00 1.22514483e-13
1.38229477e+01 2.57615560e-12 1.10993016e-13 0.00000000e+00 2.46516259e-12 0.00000000e+00 1.10993499e-13
1.42855609e+01 2.52842018e-12 1.00555502e-13 0.00000000e+00 2.42786467e-12 0.00000000e+00 1.00555922e-13
1.47636563e+01 2.57436521e-12 9.10994726e-14 0.00000000e+00 2.48326574e-12 0.00000000e+00 9.10998706e-14
1.52577522e+01 2.66996425e-12 8.25326607e-14 0.00000000e+00 2.58743159e-12 0.00000000e+00 8.25330452e-14
1.57683840e+01 2.77288522e-12 7.47714484e-14 0.00000000e+00 2.69811378e-12 0.00000000e+00 7.47718247e-14
1.62961051e+01 2.88453074e-12 6.77400840e-14 0.00000000e+00 2.81679066e-12 0.00000000e+00 6.77404517e-14
1.68414875e+01 2.98238581e-12 6.13699345e-14 0.00000000e+00 2.92101588e-12 0.00000000e+00 6.13702932e-14
1.74051222e+01 3.07093281e-12 5.55988293e-14 0.00000000e+00 3.01533398e-12 0.00000000e+00 5.55991699e-14
1.79876201e+01 3.12018067e-12 5.03704320e-14 0.00000000e+00 3.06981024e-12 0.00000000e+00 5.03707500e-14
1.85896125e+01 3.14495150e-12 4.56337111e-14 0.00000000e+00 3.09931779e-12 0.00000000e+00 4.56339988e-14
1.92117518e+01 3.11812782e-12 4.13424282e-14 0.00000000e+00 3.07678539e-12 0.00000000e+00 4.13426810e-14
1.98547123e+01 3.06352074e-12 3.74546913e-14 0.00000000e+00 3.02606605e-12 0.00000000e+00 3.74549090e-14
2.05191907e+01 3.02219090e-12 3.39325486e-14 0.00000000e+00 2.98825835e-12 0.00000000e+00 3.39327342e-14
2.12059073e+01 2.94911622e-12 3.07416186e-14 0.00000000e+00 2.91837460e-12 0.00000000e+00 3.07417768e-14
2.19156062e+01 2.91279541e-12 2.78507543e-14 0.00000000e+00 2.88494465e-12 0.00000000e+00 2.78508898e-14
2.26490567e+01 2.85637554e-12 2.52317390e-14 0.00000000e+00 2.83114380e-12 0.00000000e+00 2.52318552e-14
2.34070535e+01 2.79626148e-12 2.28590088e-14 0.00000000e+00 2.77340247e-12 0.00000000e+00 2.28591087e-14
2.41904183e+01 2.75041927e-12 2.07094039e-14 0.00000000e+00 2.72970986e-12 0.00000000e+00 2.07094900e-14
2.50000000e+01 2.69495776e-12 1.87619421e-14 0.00000000e+00 2.67619582e-12 0.00000000e+00 1.87620165e-14
2.75422870e+01 2.50013848e-12 1.40313041e-14 0.00000000e+00 2.48610718e-12 0.00000000e+00 1.40313526e-14
3.16227766e+01 2.17749346e-12 9.27039610e-15 0.00000000e+00 2.16822307e-12 0.00000000e+00 9.27042274e-15
3.63078055e+01 1.78460366e-12 6.12489300e-15 0.00000000e+00 1.77847877e-12 0.00000000e+00 6.12490756e-15
4.16869383e+01 1.36142275e-12 4.04667855e-15 0.00000000e+00 1.35737607e-12 0.00000000e+00 4.04668630e-15
4.78630092e+01 9.68259003e-13 2.67361513e-15 0.00000000e+00 9.65585388e-13 0.00000000e+00 2.67361912e-15
5.49540874e+01 6.44672190e-13 1.76644062e-15 0.00000000e+00 6.42905749e-13 0.00000000e+00 1.76644264e-15
6.30957344e+01 4.08731737e-13 1.16707607e-15 0.00000000e+00 4.07564661e-13 0.00000000e+00 1.16707708e-15
7.24435960e+01 2.48163199e-13 7.71079681e-16 0.00000000e+00 2.47392120e-13 0.00000000e+00 7.71080178e-16
8.31763771e+01 1.45844787e-13 5.09447376e-16 0.00000000e+00 1.45335339e-13 0.00000000e+00 5.09447621e-16
9.54992586e+01 8.35351268e-14 3.36588584e-16 0.00000000e+00 8.31985382e-14 0.00000000e+00 3.36588705e-16
1.09647820e+02 4.69894256e-14 2.22381892e-16 0.00000000e+00 4.67670437e-14 0.00000000e+00 2.22381952e-16
1.25892541e+02 2.63301970e-14 1.46926269e-16 0.00000000e+00 2.61832708e-14 0.00000000e+00 1.46926299e-16
1.44543977e+02 1.46304898e-14 9.70732276e-17 0.00000000e+00 1.45334165e-14 0.00000000e+00 9.70732430e-17
1.65958691e+02 7.74188131e-15 6.41356481e-17 0.00000000e+00 7.67774566e-15 0.00000000e+00 6.41356556e-17
1.90546072e+02 4.09335035e-15 4.23740037e-17 0.00000000e+00 4.05097635e-15 0.00000000e+00 4.23740075e-17
2.18776162e+02 2.15901413e-15 2.79962272e-17 0.00000000e+00 2.13101790e-15 0.00000000e+00 2.79962291e-17
2.51188643e+02 1.13408390e-15 1.84969242e-17 0.00000000e+00 1.11558697e-15 0.00000000e+00 1.84969251e-17
2.88403150e+02 5.92895542e-16 1.22207968e-17 0.00000000e+00 5.80674745e-16 0.00000000e+00 1.22207972e-17
3.31131121e+02 3.09252531e-16 8.07420043e-18 0.00000000e+00 3.01178330e-16 0.00000000e+00 8.07420067e-18
3.80189396e+02 1.60851268e-16 5.33457136e-18 0.00000000e+00 1.55516697e-16 0.00000000e+00 5.33457148e-18
4.36515832e+02 8.35747262e-17 3.52451637e-18 0.00000000e+00 8.00502098e-17 0.00000000e+00 3.52451642e-18
5.01187234e+02 4.34006611e-17 2.32862488e-18 0.00000000e+00 4.10720362e-17 0.00000000e+00 2.32862491e-18
5.75439937e+02 2.25559046e-17 1.53850721e-18 0.00000000e+00 2.10173974e-17 0.00000000e+00 1.53850722e-18
6.60693448e+02 1.17468473e-17 1.01648163e-18 0.00000000e+00 1.07303656e-17 0.00000000e+00 1.01648164e-18
7.58577575e+02 6.13902121e-18 6.71582756e-19 0.00000000e+00 5.46743845e-18 0.00000000e+00 6.71582760e-19
8.70963590e+02 3.22401060e-18 4.43710327e-19 0.00000000e+00 2.78030028e-18 0.00000000e+00 4.43710329e-19
1.00000000e+03 1.41124994e-18 0.00000000e+00 0.00000000e+00 1.41124994e-18 0.00000000e+00 0.00000000e+00
