# column 1: lambda (micron)
# column 2: total flux; lambda*F_lambda (W/m2)
# column 3: direct stellar flux; lambda*F_lambda (W/m2)
# column 4: scattered stellar flux; lambda*F_lambda (W/m2)
# column 5: total dust emission flux; lambda*F_lambda (W/m2)
# column 6: dust emission scattered flux; lambda*F_lambda (W/m2)
# column 7: transparent flux; lambda*F_lambda (W/m2)
1.00000000e-03 9.68073334e-13 9.68073281e-13 5.31614043e-20 0.00000000e+00 0.00000000e+00 9.68073281e-13
1.14815362e-03 1.14263695e-12 1.14263687e-12 8.27129244e-20 0.00000000e+00 0.00000000e+00 1.14263687e-12
1.31825674e-03 1.34867800e-12 1.34867788e-12 1.27558387e-19 0.00000000e+00 0.00000000e+00 1.34867788e-12
1.51356125e-03 1.59187252e-12 1.59187233e-12 1.92261265e-19 0.00000000e+00 0.00000000e+00 1.59187233e-12
1.73780083e-03 1.87892013e-12 1.87891976e-12 3.66532812e-19 0.00000000e+00 0.00000000e+00 1.87891976e-12
1.99526231e-03 2.21772839e-12 2.21772777e-12 6.24531834e-19 0.00000000e+00 0.00000000e+00 2.21772777e-12
2.29086765e-03 2.61763087e-12 2.61762985e-12 1.02583195e-18 0.00000000e+00 0.00000000e+00 2.61762985e-12
2.63026799e-03 3.08964460e-12 3.08964252e-12 2.07593226e-18 0.00000000e+00 0.00000000e+00 3.08964252e-12
3.01995172e-03 3.64677227e-12 3.64676883e-12 3.44134162e-18 0.00000000e+00 0.00000000e+00 3.64676883e-12
3.46736850e-03 4.30436228e-12 4.30435650e-12 5.78450929e-18 0.00000000e+00 0.00000000e+00 4.30435650e-12
3.98107171e-03 5.08053024e-12 5.08052080e-12 9.44010602e-18 0.00000000e+00 0.00000000e+00 5.08052080e-12
4.57088190e-03 5.99666399e-12 5.99664354e-12 2.04477888e-17 0.00000000e+00 0.00000000e+00 5.99664354e-12
5.24807460e-03 7.07799874e-12 7.07796211e-12 3.66300464e-17 0.00000000e+00 0.00000000e+00 7.07796211e-12
6.02559586e-03 8.35433828e-12 8.35426474e-12 7.35401497e-17 0.00000000e+00 0.00000000e+00 8.35426474e-12
6.91830971e-03 9.86081178e-12 9.86071107e-12 1.00705295e-16 0.00000000e+00 0.00000000e+00 9.86071107e-12
7.94328235e-03 1.16389765e-11 1.16388008e-11 1.75697452e-16 1.55324575e-304 6.02482411e-308 1.16388008e-11
9.12010839e-03 1.37378145e-11 1.37375167e-11 2.97823508e-16 6.43663720e-266 4.02304625e-269 1.37375167e-11
1.04712855e-02 1.53433249e-11 1.53429287e-11 3.96204336e-16 2.58968202e-232 1.86924353e-235 1.53429287e-11
1.20226443e-02 1.53435412e-11 1.53429287e-11 6.12545954e-16 3.88521999e-203 3.94783042e-206 1.53429287e-11
1.38038426e-02 1.53439491e-11 1.53429287e-11 1.02044352e-15 1.01971502e-177 1.59759611e-180 1.53429287e-11
1.58489319e-02 1.53440486e-11 1.53429287e-11 1.11990679e-15 1.33482506e-155 2.62905797e-158 1.53429287e-11
1.81970086e-02 1.53445547e-11 1.53429287e-11 1.62603490e-15 2.31706122e-136 8.95321357e-139 1.53429287e-11
2.08929613e-02 1.53454489e-11 1.53429287e-11 2.52018791e-15 1.18023089e-119 5.45142542e-122 1.53429287e-11
2.39883292e-02 1.53460160e-11 1.53429287e-11 3.08731502e-15 4.05032872e-105 2.25640989e-107 1.53429287e-11
2.75422870e-02 1.53469276e-11 1.53429287e-11 3.99895402e-15 1.77922127e-92 1.32249702e-94 1.53429287e-11
3.16227766e-02 1.53483068e-11 1.53429287e-11 5.37818321e-15 1.70707077e-81 1.66452422e-83 1.53429287e-11
3.63078055e-02 1.53495604e-11 1.53429287e-11 6.63172849e-15 5.83352116e-72 6.48089037e-74 1.53429287e-11
4.16869383e-02 1.53527483e-11 1.53429287e-11 9.81965216e-15 1.09608223e-63 1.76563614e-65 1.53429287e-11
4.78630092e-02 1.53559074e-11 1.53429287e-11 1.29787425e-14 1.63990199e-56 3.68795707e-58 1.53429287e-11
5.49540874e-02 1.53594184e-11 1.53429287e-11 1.64897142e-14 2.70638460e-50 7.98591026e-52 1.53429287e-11
6.30957344e-02 1.53653398e-11 1.53429287e-11 2.24111041e-14 8.71668014e-45 3.33913259e-46 1.53429287e-11
7.24435960e-02 1.53663345e-11 1.53429287e-11 2.34058849e-14 5.04145247e-40 2.03128635e-41 1.53429287e-11
8.31763771e-02 1.53658658e-11 1.53429287e-11 2.29371018e-14 5.13254548e-36 2.08776326e-37 1.53429287e-11
9.54992586e-02 1.53676566e-11 1.53429287e-11 2.47279215e-14 1.43589861e-32 5.95169050e-34 1.53429287e-11
1.09647820e-01 1.46770319e-11 1.46523889e-11 2.46430338e-14 1.20664510e-29 5.11325075e-31 1.46523889e-11
1.25892541e-01 1.36950011e-11 1.36744049e-11 2.05961306e-14 3.87509832e-27 1.50369082e-28 1.36744049e-11
1.44543977e-01 1.27799532e-11 1.27616972e-11 1.82559916e-14 5.23903064e-25 1.86423151e-26 1.27616972e-11
1.65958691e-01 1.19279974e-11 1.19099088e-11 1.80885585e-14 2.63688615e-23 1.02793134e-24 1.19099088e-11
1.90546072e-01 1.11360623e-11 1.11149736e-11 2.10886636e-14 5.53445735e-22 2.68548310e-23 1.11149736e-11
2.18776162e-01 1.03964458e-11 1.03730969e-11 2.33488288e-14 6.56640179e-21 3.60777763e-22 1.03730969e-11
2.51188643e-01 9.70809511e-12 9.68073733e-12 2.73577020e-14 7.88984056e-20 5.15930050e-21 9.68073733e-12
2.88403150e-01 9.05782593e-12 9.03458975e-12 2.32355236e-14 6.52762267e-19 4.01512532e-20 9.03458975e-12
3.31131121e-01 8.45326621e-12 8.43156974e-12 2.16927380e-14 3.72546089e-18 2.15141610e-19 8.43156974e-12
3.80189396e-01 7.88732238e-12 7.86879872e-12 1.85081654e-14 1.54884970e-17 8.61890713e-19 7.86879872e-12
4.36515832e-01 7.36105418e-12 7.34359025e-12 1.74149778e-14 4.89508092e-17 2.70299173e-18 7.34359025e-12
5.01187234e-01 6.86962884e-12 6.85343719e-12 1.60694461e-14 1.22208382e-16 6.67895489e-18 6.85343719e-12
5.75439937e-01 6.41167246e-12 6.39599973e-12 1.54200561e-14 2.52670633e-16 1.36220358e-17 6.39599973e-12
6.60693448e-01 5.98377125e-12 5.96909425e-12 1.42232727e-14 4.53720023e-16 2.49314181e-17 5.96909425e-12
7.58577575e-01 5.58387971e-12 5.57068288e-12 1.24416629e-14 7.55159892e-16 4.21083896e-17 5.57068288e-12
8.70963590e-01 5.21201877e-12 5.19886376e-12 1.19072609e-14 1.24774505e-15 7.29291389e-17 5.19886376e-12
1.00000000e+00 4.86524466e-12 4.85186196e-12 1.12003366e-14 2.18236394e-15 1.41871883e-16 4.85186196e-12
1.14815362e+00 4.54170400e-12 4.52802104e-12 9.46688484e-15 4.21606714e-15 2.92313440e-16 4.52802104e-12
1.31825674e+00 4.24206826e-12 4.22579511e-12 7.63853071e-15 8.63461744e-15 6.12126955e-16 4.22579511e-12
1.51356125e+00 3.96729038e-12 3.94374146e-12 6.09413226e-15 1.74547817e-14 1.18901959e-15 3.94374146e-12
1.73780083e+00 3.71790351e-12 3.68051368e-12 4.51211723e-15 3.28777070e-14 1.98697817e-15 3.68051368e-12
1.99526231e+00 3.49396678e-12 3.43485522e-12 3.25164648e-15 5.58599058e-14 2.78272372e-15 3.43485522e-12
2.29086765e+00 3.29373959e-12 3.20559341e-12 2.33122892e-15 8.58149551e-14 3.34124625e-15 3.20559341e-12
2.63026799e+00 3.11328663e-12 2.99163384e-12 1.62592506e-15 1.20026866e-13 3.57037265e-15 2.99163384e-12
3.01995172e+00 2.94762798e-12 2.79195514e-12 1.06178718e-15 1.54611046e-13 3.35786498e-15 2.79195514e-12
3.46736850e+00 2.79063417e-12 2.60560415e-12 7.58009446e-16 1.84272010e-13 2.91759488e-15 2.60560415e-12
3.98107171e+00 2.63779594e-12 2.43169128e-12 5.00801537e-16 2.05603858e-13 2.29921964e-15 2.43169128e-12
4.57088190e+00 2.48594507e-12 2.26938634e-12 3.29327174e-16 2.16229403e-13 1.67669043e-15 2.26938634e-12
5.24807460e+00 2.09361625e-12 1.87643467e-12 1.89211001e-16 2.16992368e-13 1.12510425e-15 1.87643467e-12
6.02559586e+00 1.45034109e-12 1.23974809e-12 7.63309196e-17 2.10516664e-13 7.19138643e-16 1.23974809e-12
6.70000000e+00 1.10360089e-12 9.01797527e-13 3.97866627e-17 2.01763579e-13 4.73860596e-16 9.01797527e-13
6.92422916e+00 1.01547723e-12 8.16994532e-13 3.00887743e-17 1.98452607e-13 4.12411253e-16 8.16994532e-13
7.15596261e+00 9.36810234e-13 7.40166218e-13 2.50878909e-17 1.96618929e-13 3.56470295e-16 7.40166218e-13
7.39545150e+00 8.68756690e-13 6.70562664e-13 1.88379495e-17 1.98175188e-13 3.03976775e-16 6.70562664e-13
7.64295536e+00 8.19554512e-13 6.07504471e-13 1.38706647e-17 2.12036171e-13 2.55112285e-16 6.07504471e-13
7.89874245e+00 7.95094072e-13 5.50376127e-13 8.64005186e-18 2.44709305e-13 2.08380213e-16 5.50376127e-13
8.16308998e+00 7.92639029e-13 4.98620004e-13 5.28043403e-18 2.94013745e-13 1.67563957e-16 4.98620004e-13
8.43628443e+00 8.15949802e-13 4.51730909e-13 2.88957527e-18 3.64216004e-13 1.30064345e-16 4.51730909e-13
8.71862190e+00 8.28203168e-13 4.09251158e-13 1.81238754e-18 4.18950198e-13 1.01363951e-16 4.09251158e-13
9.01040836e+00 8.48171391e-13 3.70766106e-13 1.20734979e-18 4.77404078e-13 7.52780571e-17 3.70766106e-13
9.31196005e+00 8.62974590e-13 3.35900102e-13 0.00000000e+00 5.27074488e-13 0.00000000e+00 3.35900102e-13
9.62360379e+00 8.38104013e-13 3.04312818e-13 0.00000000e+00 5.33791196e-13 0.00000000e+00 3.04312818e-13
9.94567731e+00 7.81159936e-13 2.75695930e-13 0.00000000e+00 5.05464006e-13 0.00000000e+00 2.75695930e-13
1.02785297e+01 7.14353646e-13 2.49770110e-13 0.00000000e+00 4.64583536e-13 0.00000000e+00 2.49770110e-13
1.06225216e+01 6.50249974e-13 2.26282295e-13 0.00000000e+00 4.23967680e-13 0.00000000e+00 2.26282295e-13
1.09780260e+01 5.83517454e-13 2.05003220e-13 0.00000000e+00 3.78514233e-13 0.00000000e+00 2.05003220e-13
1.13454280e+01 5.24009678e-13 1.85725182e-13 0.00000000e+00 3.38284496e-13 0.00000000e+00 1.85725182e-13
1.17251259e+01 4.73293494e-13 1.68260007e-13 0.00000000e+00 3.05033487e-13 0.00000000e+00 1.68260007e-13
1.21175312e+01 4.25855372e-13 1.52437217e-13 0.00000000e+00 2.73418155e-13 0.00000000e+00 1.52437217e-13
1.25230691e+01 3.84100162e-13 1.38102367e-13 0.00000000e+00 2.45997795e-13 0.00000000e+00 1.38102367e-13
1.29421791e+01 3.47766104e-13 1.25115533e-13 0.00000000e+00 2.22650571e-13 0.00000000e+00 1.25115533e-13
1.33753155e+01 3.15949708e-13 1.13349952e-13 0.00000000e+00 2.02599756e-13 0.00000000e+00 1.13349952e-13
1.38229477e+01 2.92885253e-13 1.02690779e-13 0.00000000e+00 1.90194474e-13 0.00000000e+00 1.02690779e-13
1.42855609e+01 2.77066325e-13 9.30339713e-14 0.00000000e+00 1.84032354e-13 0.00000000e+00 9.30339713e-14
1.47636563e+01 2.72331356e-13 8.42852675e-14 0.00000000e+00 1.88046088e-13 0.00000000e+00 8.42852675e-14
1.52577522e+01 2.71330212e-13 7.63592720e-14 0.00000000e+00 1.94970940e-13 0.00000000e+00 7.63592720e-14
1.57683840e+01 2.72744672e-13 6.91786191e-14 0.00000000e+00 2.03566053e-13 0.00000000e+00 6.91786191e-14
1.62961051e+01 2.75532035e-13 6.26732185e-14 0.00000000e+00 2.12858817e-13 0.00000000e+00 6.26732185e-14
1.68414875e+01 2.79309005e-13 5.67795711e-14 0.00000000e+00 2.22529434e-13 0.00000000e+00 5.67795711e-14
1.74051222e+01 2.79828879e-13 5.14401489e-14 0.00000000e+00 2.28388730e-13 0.00000000e+00 5.14401489e-14
1.79876201e+01 2.78480873e-13 4.66028339e-14 0.00000000e+00 2.31878039e-13 0.00000000e+00 4.66028339e-14
1.85896125e+01 2.73263725e-13 4.22204090e-14 0.00000000e+00 2.31043316e-13 0.00000000e+00 4.22204090e-14
1.92117518e+01 2.64671205e-13 3.82500974e-14 0.00000000e+00 2.26421108e-13 0.00000000e+00 3.82500974e-14
1.98547123e+01 2.53245330e-13 3.46531450e-14 0.00000000e+00 2.18592185e-13 0.00000000e+00 3.46531450e-14
2.05191907e+01 2.41040895e-13 3.13944418e-14 0.00000000e+00 2.09646453e-13 0.00000000e+00 3.13944418e-14
2.12059073e+01 2.29907105e-13 2.84421796e-14 0.00000000e+00 2.01464926e-13 0.00000000e+00 2.84421796e-14
2.19156062e+01 2.20030365e-13 2.57675415e-14 0.00000000e+00 1.94262823e-13 0.00000000e+00 2.57675415e-14
2.26490567e+01 2.11011737e-13 2.33444203e-14 0.00000000e+00 1.87667317e-13 0.00000000e+00 2.33444203e-14
2.34070535e+01 2.03042729e-13 2.11491639e-14 0.00000000e+00 1.81893565e-13 0.00000000e+00 2.11491639e-14
2.41904183e+01 1.95391966e-13 1.91603445e-14 0.00000000e+00 1.76231621e-13 0.00000000e+00 1.91603445e-14
2.50000000e+01 1.88042095e-13 1.73585491e-14 0.00000000e+00 1.70683546e-13 0.00000000e+00 1.73585491e-14
2.75422870e+01 1.69717384e-13 1.29817562e-14 0.00000000e+00 1.56735627e-13 0.00000000e+00 1.29817562e-14
3.16227766e+01 1.45536604e-13 8.57696126e-15 0.00000000e+00 1.36959643e-13 0.00000000e+00 8.57696126e-15
3.63078055e+01 1.21529258e-13 5.66674211e-15 0.00000000e+00 1.15862516e-13 0.00000000e+00 5.66674211e-15
4.16869383e+01 9.69354659e-14 3.74397938e-15 0.00000000e+00 9.31914865e-14 0.00000000e+00 3.74397938e-15
4.78630092e+01 7.32335876e-14 2.47362265e-15 0.00000000e+00 7.07599649e-14 0.00000000e+00 2.47362265e-15
5.49540874e+01 5.25515396e-14 1.63430628e-15 0.00000000e+00 5.09172334e-14 0.00000000e+00 1.63430628e-15
6.30957344e+01 3.60798417e-14 1.07977545e-15 0.00000000e+00 3.50000662e-14 0.00000000e+00 1.07977545e-15
7.24435960e+01 2.37567027e-14 7.13400564e-16 0.00000000e+00 2.30433021e-14 0.00000000e+00 7.13400564e-16
8.31763771e+01 1.51163898e-14 4.71339078e-16 0.00000000e+00 1.46450507e-14 0.00000000e+00 4.71339078e-16
9.54992586e+01 9.34065741e-15 3.11410641e-16 0.00000000e+00 9.02924677e-15 0.00000000e+00 3.11410641e-16
1.09647820e+02 5.62875468e-15 2.05746970e-16 0.00000000e+00 5.42300771e-15 0.00000000e+00 2.05746970e-16
1.25892541e+02 3.35644736e-15 1.35935675e-16 0.00000000e+00 3.22051169e-15 0.00000000e+00 1.35935675e-16
1.44543977e+02 1.97309048e-15 8.98118099e-17 0.00000000e+00 1.88327867e-15 0.00000000e+00 8.98118099e-17
1.65958691e+02 1.10167831e-15 5.93380743e-17 0.00000000e+00 1.04234023e-15 0.00000000e+00 5.93380743e-17
1.90546072e+02 6.11861865e-16 3.92042769e-17 0.00000000e+00 5.72657588e-16 0.00000000e+00 3.92042769e-17
2.18776162e+02 3.37801357e-16 2.59020089e-17 0.00000000e+00 3.11899348e-16 0.00000000e+00 2.59020089e-17
2.51188643e+02 1.85401767e-16 1.71132876e-17 0.00000000e+00 1.68288479e-16 0.00000000e+00 1.71132876e-17
2.88403150e+02 1.01216435e-16 1.13066370e-17 0.00000000e+00 8.99097978e-17 0.00000000e+00 1.13066370e-17
3.31131121e+02 5.51655110e-17 7.47022097e-18 0.00000000e+00 4.76952901e-17 0.00000000e+00 7.47022097e-18
3.80189396e+02 3.00442313e-17 4.93552605e-18 0.00000000e+00 2.51087053e-17 0.00000000e+00 4.93552605e-18
4.36515832e+02 1.64037111e-17 3.26086972e-18 0.00000000e+00 1.31428414e-17 0.00000000e+00 3.26086972e-18
5.01187234e+02 8.99581037e-18 2.15443526e-18 0.00000000e+00 6.84137511e-18 0.00000000e+00 2.15443526e-18
5.75439937e+02 4.96824690e-18 1.42342126e-18 0.00000000e+00 3.54482564e-18 0.00000000e+00 1.42342126e-18
6.60693448e+02 2.76985577e-18 9.40445101e-19 0.00000000e+00 1.82941066e-18 0.00000000e+00 9.40445101e-19
7.58577575e+02 1.56221046e-18 6.21345916e-19 0.00000000e+00 9.40864541e-19 0.00000000e+00 6.21345916e-19
8.70963590e+02 8.92840522e-19 4.10519176e-19 0.00000000e+00 4.82321346e-19 0.00000000e+00 4.10519176e-19
1.00000000e+03 2.46535503e-19 0.00000000e+00 0.00000000e+00 2.46535503e-19 0.00000000e+00 0.00000000e+00
