# column 1: lambda (micron)
# column 2: total flux; lambda*F_lambda (W/m2)
# column 3: direct stellar flux; lambda*F_lambda (W/m2)
# column 4: scattered stellar flux; lambda*F_lambda (W/m2)
# column 5: total dust emission flux; lambda*F_lambda (W/m2)
# column 6: dust emission scattered flux; lambda*F_lambda (W/m2)
# column 7: transparent flux; lambda*F_lambda (W/m2)
1.00000000e-03 1.07335971e-12 1.07335627e-12 3.43512155e-18 0.00000000e+00 0.00000000e+00 1.07335627e-12
1.14815362e-03 1.26690965e-12 1.26690456e-12 5.09660450e-18 0.00000000e+00 0.00000000e+00 1.26690456e-12
1.31825674e-03 1.49536110e-12 1.49535359e-12 7.51060057e-18 0.00000000e+00 0.00000000e+00 1.49535359e-12
1.51356125e-03 1.76500793e-12 1.76499670e-12 1.12337328e-17 0.00000000e+00 0.00000000e+00 1.76499670e-12
1.73780083e-03 2.08328173e-12 2.08326203e-12 1.97029373e-17 0.00000000e+00 0.00000000e+00 2.08326203e-12
1.99526231e-03 2.45895034e-12 2.45891716e-12 3.31786368e-17 0.00000000e+00 0.00000000e+00 2.45891716e-12
2.29086765e-03 2.90236225e-12 2.90231066e-12 5.15893823e-17 0.00000000e+00 0.00000000e+00 2.90231066e-12
2.63026799e-03 3.42576325e-12 3.42565717e-12 1.06080065e-16 0.00000000e+00 0.00000000e+00 3.42565717e-12
3.01995172e-03 4.04353432e-12 4.04337385e-12 1.60474624e-16 0.00000000e+00 0.00000000e+00 4.04337385e-12
3.46736850e-03 4.77273094e-12 4.77247759e-12 2.53349490e-16 0.00000000e+00 0.00000000e+00 4.77247759e-12
3.98107171e-03 5.63344830e-12 5.63305378e-12 3.94517279e-16 0.00000000e+00 0.00000000e+00 5.63305378e-12
4.57088190e-03 6.64980696e-12 6.64880962e-12 9.97343828e-16 0.00000000e+00 0.00000000e+00 6.64880962e-12
5.24807460e-03 7.84946265e-12 7.84772720e-12 1.73545021e-15 0.00000000e+00 0.00000000e+00 7.84772720e-12
6.02559586e-03 9.26577782e-12 9.26283435e-12 2.94347122e-15 0.00000000e+00 0.00000000e+00 9.26283435e-12
6.91830971e-03 1.09375666e-11 1.09331145e-11 4.45210062e-15 0.00000000e+00 0.00000000e+00 1.09331145e-11
7.94328235e-03 1.29118029e-11 1.29045807e-11 7.22225446e-15 0.00000000e+00 0.00000000e+00 1.29045807e-11
9.12010839e-03 1.52437405e-11 1.52315429e-11 1.21976220e-14 0.00000000e+00 0.00000000e+00 1.52315429e-11
1.04712855e-02 1.70630655e-11 1.70115517e-11 5.15138275e-14 0.00000000e+00 0.00000000e+00 1.70115517e-11
1.20226443e-02 1.70386893e-11 1.70115517e-11 2.71376297e-14 2.97865706e-311 3.80817398e-313 1.70115517e-11
1.38038426e-02 1.70461314e-11 1.70115517e-11 3.45796792e-14 6.68818005e-272 4.62474273e-274 1.70115517e-11
1.58489319e-02 1.70601919e-11 1.70115517e-11 4.86401700e-14 1.20543995e-237 1.42951013e-239 1.70115517e-11
1.81970086e-02 1.70840306e-11 1.70115517e-11 7.24788765e-14 7.80145567e-208 1.19966815e-209 1.70115517e-11
2.08929613e-02 1.71095680e-11 1.70115517e-11 9.80162434e-14 6.41815974e-182 1.24107391e-183 1.70115517e-11
2.39883292e-02 1.71407995e-11 1.70115517e-11 1.29247742e-13 2.31501052e-159 6.17966749e-161 1.70115517e-11
2.75422870e-02 1.71695311e-11 1.70115517e-11 1.57979426e-13 9.85913620e-140 3.36315610e-141 1.70115517e-11
3.16227766e-02 1.72014798e-11 1.70115517e-11 1.89928112e-13 1.14928385e-122 4.61815015e-124 1.70115517e-11
3.63078055e-02 1.72237014e-11 1.70115517e-11 2.12149642e-13 7.84690286e-108 3.71491756e-109 1.70115517e-11
4.16869383e-02 1.72992190e-11 1.70115517e-11 2.87667253e-13 6.13829818e-95 3.88401458e-96 1.70115517e-11
4.78630092e-02 1.73757178e-11 1.70115517e-11 3.64166048e-13 9.71247726e-84 7.85207722e-85 1.70115517e-11
5.49540874e-02 1.74262728e-11 1.70115517e-11 4.14721129e-13 5.12746884e-74 4.95832163e-75 1.70115517e-11
6.30957344e-02 1.74569739e-11 1.70115517e-11 4.45422180e-13 1.86878856e-65 2.09379722e-66 1.70115517e-11
7.24435960e-02 1.74085045e-11 1.70115517e-11 3.96952781e-13 4.93120566e-58 5.33774065e-59 1.70115517e-11
8.31763771e-02 1.73931623e-11 1.70115517e-11 3.81610553e-13 1.09133991e-51 1.20584206e-52 1.70115517e-11
9.54992586e-02 1.74139358e-11 1.70115517e-11 4.02384057e-13 3.70444630e-46 4.54417684e-47 1.70115517e-11
1.09647820e-01 1.66811710e-11 1.62459122e-11 4.35258864e-13 2.50741219e-41 3.65087422e-42 1.62459122e-11
1.25892541e-01 1.55818276e-11 1.51615674e-11 4.20260242e-13 4.56019915e-37 7.16924308e-38 1.51615674e-11
1.44543977e-01 1.45531697e-11 1.41495980e-11 4.03571685e-13 2.45160388e-33 3.97744514e-34 1.41495980e-11
1.65958691e-01 1.36280166e-11 1.32051732e-11 4.22843444e-13 3.37951354e-30 6.13491511e-31 1.32051732e-11
1.90546072e-01 1.27767615e-11 1.23237846e-11 4.52976863e-13 1.31009608e-27 2.78968617e-28 1.23237846e-11
2.18776162e-01 1.19105918e-11 1.15012250e-11 4.09366756e-13 1.97355553e-25 4.40500608e-26 1.15012250e-11
2.51188643e-01 1.12180101e-11 1.07335677e-11 4.84442370e-13 2.53735989e-23 6.74573580e-24 1.07335677e-11
2.88403150e-01 1.04986510e-11 1.00171482e-11 4.81502768e-13 1.68401847e-21 4.59068992e-22 1.00171482e-11
3.31131121e-01 9.79681543e-12 9.34854667e-12 4.48268698e-13 6.11616278e-20 1.69076099e-20 9.34854667e-12
3.80189396e-01 9.14076926e-12 8.72457139e-12 4.16196518e-13 1.35639964e-18 3.82981162e-19 8.72457139e-12
4.36515832e-01 8.53527296e-12 8.14224377e-12 3.93009665e-13 1.95265564e-17 5.66642629e-18 8.14224377e-12
5.01187234e-01 7.96703999e-12 7.59878402e-12 3.68064087e-13 1.91888194e-16 5.77461944e-17 7.59878402e-12
5.75439937e-01 7.43772826e-12 7.09159786e-12 3.44784627e-13 1.34576490e-15 4.08726676e-16 7.09159786e-12
6.60693448e-01 6.94347784e-12 6.61826421e-12 3.18128650e-13 7.08498705e-15 2.18210387e-15 6.61826421e-12
7.58577575e-01 6.49622969e-12 6.17652353e-12 2.90447143e-13 2.92590162e-14 8.95553455e-15 6.17652353e-12
8.70963590e-01 6.11943890e-12 5.76426715e-12 2.57247150e-13 9.79245931e-14 2.90747591e-14 5.76426715e-12
1.00000000e+00 5.87165805e-12 5.37952711e-12 2.20914058e-13 2.71216879e-13 7.59010580e-14 5.37952711e-12
1.14815362e+00 5.84368968e-12 5.02046681e-12 1.81962527e-13 6.41260337e-13 1.65308141e-13 5.02046681e-12
1.31825674e+00 6.17523187e-12 4.68537225e-12 1.44924985e-13 1.34493464e-12 3.07134259e-13 4.68537225e-12
1.51356125e+00 6.96332351e-12 4.37264380e-12 1.14214241e-13 2.47646547e-12 4.92556204e-13 4.37264380e-12
1.73780083e+00 8.17757428e-12 4.08078863e-12 8.90261949e-14 4.00775946e-12 6.71978106e-13 4.08078863e-12
1.99526231e+00 9.69689678e-12 3.80841354e-12 6.84740916e-14 5.82000915e-12 8.04941629e-13 3.80841354e-12
2.29086765e+00 1.12307967e-11 3.55421832e-12 5.13656533e-14 7.62521277e-12 8.42184466e-13 3.55421832e-12
2.63026799e+00 1.25428069e-11 3.31698953e-12 3.81036208e-14 9.18771375e-12 7.94191342e-13 3.31698953e-12
3.01995172e+00 1.35008860e-11 3.09559474e-12 2.78753080e-14 1.03774160e-11 6.91870062e-13 3.09559474e-12
3.46736850e+00 1.40274265e-11 2.88897711e-12 1.97288717e-14 1.11187205e-11 5.53978440e-13 2.88897711e-12
3.98107171e+00 1.41003125e-11 2.69615031e-12 1.36299287e-14 1.13905322e-11 4.18031027e-13 2.69615031e-12
4.57088190e+00 1.37599029e-11 2.51619387e-12 9.03440429e-15 1.12346746e-11 2.88448377e-13 2.51619387e-12
5.24807460e+00 1.29670481e-11 2.08050667e-12 5.12697672e-15 1.08814144e-11 1.85349301e-13 2.08050667e-12
6.02559586e+00 1.16884651e-11 1.37457712e-12 2.21863826e-15 1.03116694e-11 1.12804135e-13 1.37457712e-12
6.70000000e+00 1.07892212e-11 9.99872685e-13 1.13242005e-15 9.78821613e-12 7.33014292e-14 9.99872685e-13
6.92422916e+00 1.05010067e-11 9.05846924e-13 9.16048759e-16 9.59424374e-12 6.33200386e-14 9.05846924e-13
7.15596261e+00 1.03206836e-11 8.20663132e-13 7.22870873e-16 9.49929760e-12 5.46998617e-14 8.20663132e-13
7.39545150e+00 1.02883085e-11 7.43489831e-13 5.55270700e-16 9.54426342e-12 4.67602801e-14 7.43489831e-13
7.64295536e+00 1.06617764e-11 6.73573732e-13 3.89811230e-16 9.98781287e-12 3.91745045e-14 6.73573732e-13
7.89874245e+00 1.15851682e-11 6.10232385e-13 2.46044841e-16 1.09746898e-11 3.14930821e-14 6.10232385e-13
8.16308998e+00 1.28315683e-11 5.52847515e-13 1.41816534e-16 1.22785790e-11 2.47360405e-14 5.52847515e-13
8.43628443e+00 1.41228672e-11 5.00858987e-13 7.94380362e-17 1.36219288e-11 1.85453274e-14 5.00858987e-13
8.71862190e+00 1.49106982e-11 4.53759343e-13 4.96540738e-17 1.44568892e-11 1.44385664e-14 4.53759343e-13
9.01040836e+00 1.55963732e-11 4.11088843e-13 3.11650186e-17 1.51852532e-11 1.10634961e-14 4.11088843e-13
9.31196005e+00 1.59830993e-11 3.72430980e-13 0.00000000e+00 1.56106683e-11 0.00000000e+00 3.72430980e-13
9.62360379e+00 1.57330411e-11 3.37408415e-13 0.00000000e+00 1.53956327e-11 0.00000000e+00 3.37408415e-13
9.94567731e+00 1.51748347e-11 3.05679292e-13 0.00000000e+00 1.48691554e-11 0.00000000e+00 3.05679292e-13
1.02785297e+01 1.44438004e-11 2.76933904e-13 0.00000000e+00 1.41668665e-11 0.00000000e+00 2.76933904e-13
1.06225216e+01 1.38726736e-11 2.50891667e-13 0.00000000e+00 1.36217820e-11 0.00000000e+00 2.50891667e-13
1.09780260e+01 1.31246835e-11 2.27298384e-13 0.00000000e+00 1.28973851e-11 0.00000000e+00 2.27298384e-13
1.13454280e+01 1.24520607e-11 2.05923759e-13 0.00000000e+00 1.22461370e-11 0.00000000e+00 2.05923759e-13
1.17251259e+01 1.17477169e-11 1.86559155e-13 0.00000000e+00 1.15611577e-11 0.00000000e+00 1.86559155e-13
1.21175312e+01 1.11704333e-11 1.69015555e-13 0.00000000e+00 1.10014177e-11 0.00000000e+00 1.69015555e-13
1.25230691e+01 1.05369330e-11 1.53121715e-13 0.00000000e+00 1.03838113e-11 0.00000000e+00 1.53121715e-13
1.29421791e+01 9.98042990e-12 1.38722496e-13 0.00000000e+00 9.84170740e-12 0.00000000e+00 1.38722496e-13
1.33753155e+01 9.44672174e-12 1.25677347e-13 0.00000000e+00 9.32104439e-12 0.00000000e+00 1.25677347e-13
1.38229477e+01 9.11918958e-12 1.13858934e-13 0.00000000e+00 9.00533064e-12 0.00000000e+00 1.13858934e-13
1.42855609e+01 8.95708300e-12 1.03151898e-13 0.00000000e+00 8.85393110e-12 0.00000000e+00 1.03151898e-13
1.47636563e+01 9.09383572e-12 9.34517274e-14 0.00000000e+00 9.00038399e-12 0.00000000e+00 9.34517274e-14
1.52577522e+01 9.34471325e-12 8.46637387e-14 0.00000000e+00 9.26004951e-12 0.00000000e+00 8.46637387e-14
1.57683840e+01 9.67112303e-12 7.67021526e-14 0.00000000e+00 9.59442088e-12 0.00000000e+00 7.67021526e-14
1.62961051e+01 9.97953242e-12 6.94892560e-14 0.00000000e+00 9.91004316e-12 0.00000000e+00 6.94892560e-14
1.68414875e+01 1.02938131e-11 6.29546439e-14 0.00000000e+00 1.02308585e-11 0.00000000e+00 6.29546439e-14
1.74051222e+01 1.04843035e-11 5.70345319e-14 0.00000000e+00 1.04272690e-11 0.00000000e+00 5.70345319e-14
1.79876201e+01 1.06232675e-11 5.16711337e-14 0.00000000e+00 1.05715963e-11 0.00000000e+00 5.16711337e-14
1.85896125e+01 1.06509614e-11 4.68120974e-14 0.00000000e+00 1.06041493e-11 0.00000000e+00 4.68120974e-14
1.92117518e+01 1.05839209e-11 4.24099939e-14 0.00000000e+00 1.05415109e-11 0.00000000e+00 4.24099939e-14
1.98547123e+01 1.03522885e-11 3.84218542e-14 0.00000000e+00 1.03138667e-11 0.00000000e+00 3.84218542e-14
2.05191907e+01 1.01262843e-11 3.48087501e-14 0.00000000e+00 1.00914756e-11 0.00000000e+00 3.48087501e-14
2.12059073e+01 9.90991112e-12 3.15354141e-14 0.00000000e+00 9.87837571e-12 0.00000000e+00 3.15354141e-14
2.19156062e+01 9.64379190e-12 2.85698952e-14 0.00000000e+00 9.61522201e-12 0.00000000e+00 2.85698952e-14
2.26490567e+01 9.45601419e-12 2.58832470e-14 0.00000000e+00 9.43013094e-12 0.00000000e+00 2.58832470e-14
2.34070535e+01 9.19185368e-12 2.34492452e-14 0.00000000e+00 9.16840443e-12 0.00000000e+00 2.34492452e-14
2.41904183e+01 8.92985173e-12 2.12441313e-14 0.00000000e+00 8.90860760e-12 0.00000000e+00 2.12441313e-14
2.50000000e+01 8.66009588e-12 1.92463813e-14 0.00000000e+00 8.64084950e-12 0.00000000e+00 1.92463813e-14
2.75422870e+01 7.83168853e-12 1.43935895e-14 0.00000000e+00 7.81729494e-12 0.00000000e+00 1.43935895e-14
3.16227766e+01 6.50651681e-12 9.50975027e-15 0.00000000e+00 6.49700706e-12 0.00000000e+00 9.50975027e-15
3.63078055e+01 5.07765539e-12 6.28302969e-15 0.00000000e+00 5.07137236e-12 0.00000000e+00 6.28302969e-15
4.16869383e+01 3.68798326e-12 4.15115655e-15 0.00000000e+00 3.68383210e-12 0.00000000e+00 4.15115655e-15
4.78630092e+01 2.49025488e-12 2.74264194e-15 0.00000000e+00 2.48751224e-12 0.00000000e+00 2.74264194e-15
5.49540874e+01 1.58389807e-12 1.81204556e-15 0.00000000e+00 1.58208602e-12 0.00000000e+00 1.81204556e-15
6.30957344e+01 9.62029008e-13 1.19720663e-15 0.00000000e+00 9.60831802e-13 0.00000000e+00 1.19720663e-15
7.24435960e+01 5.62443129e-13 7.90986575e-16 0.00000000e+00 5.61652143e-13 0.00000000e+00 7.90986575e-16
8.31763771e+01 3.20001055e-13 5.22599647e-16 0.00000000e+00 3.19478455e-13 0.00000000e+00 5.22599647e-16
9.54992586e+01 1.78539887e-13 3.45278163e-16 0.00000000e+00 1.78194609e-13 0.00000000e+00 3.45278163e-16
1.09647820e+02 9.82178776e-14 2.28123020e-16 0.00000000e+00 9.79897545e-14 0.00000000e+00 2.28123020e-16
1.25892541e+02 5.40455075e-14 1.50719385e-16 0.00000000e+00 5.38947881e-14 0.00000000e+00 1.50719385e-16
1.44543977e+02 2.95902264e-14 9.95793099e-17 0.00000000e+00 2.94906471e-14 0.00000000e+00 9.95793099e-17
1.65958691e+02 1.54445642e-14 6.57913976e-17 0.00000000e+00 1.53787728e-14 0.00000000e+00 6.57913976e-17
1.90546072e+02 8.07318761e-15 4.34679453e-17 0.00000000e+00 8.02971967e-15 0.00000000e+00 4.34679453e-17
2.18776162e+02 4.21586009e-15 2.87189867e-17 0.00000000e+00 4.18714110e-15 0.00000000e+00 2.87189867e-17
2.51188643e+02 2.19526525e-15 1.89744463e-17 0.00000000e+00 2.17629080e-15 0.00000000e+00 1.89744463e-17
2.88403150e+02 1.13869861e-15 1.25362924e-17 0.00000000e+00 1.12616232e-15 0.00000000e+00 1.25362924e-17
3.31131121e+02 5.89477000e-16 8.28264623e-18 0.00000000e+00 5.81194354e-16 0.00000000e+00 8.28264623e-18
3.80189396e+02 3.04313775e-16 5.47229010e-18 0.00000000e+00 2.98841485e-16 0.00000000e+00 5.47229010e-18
4.36515832e+02 1.56903964e-16 3.61550621e-18 0.00000000e+00 1.53288457e-16 0.00000000e+00 3.61550621e-18
5.01187234e+02 8.08040718e-17 2.38874127e-18 0.00000000e+00 7.84153305e-17 0.00000000e+00 2.38874127e-18
5.75439937e+02 4.16041182e-17 1.57822570e-18 0.00000000e+00 4.00258925e-17 0.00000000e+00 1.57822570e-18
6.60693448e+02 2.14339637e-17 1.04272338e-18 0.00000000e+00 2.03912403e-17 0.00000000e+00 1.04272338e-18
7.58577575e+02 1.10598880e-17 6.88920507e-19 0.00000000e+00 1.03709675e-17 0.00000000e+00 6.88920507e-19
8.70963590e+02 5.72082595e-18 4.55165265e-19 0.00000000e+00 5.26566069e-18 0.00000000e+00 4.55165265e-19
1.00000000e+03 2.66922089e-18 0.00000000e+00 0.00000000e+00 2.66922089e-18 0.00000000e+00 0.00000000e+00
