# column 1: lambda (micron)
# column 2: total flux; lambda*F_lambda (W/m2)
# column 3: direct stellar flux; lambda*F_lambda (W/m2)
# column 4: scattered stellar flux; lambda*F_lambda (W/m2)
# column 5: total dust emission flux; lambda*F_lambda (W/m2)
# column 6: dust emission scattered flux; lambda*F_lambda (W/m2)
# column 7: transparent flux; lambda*F_lambda (W/m2)
1.00000000e-03 1.04615898e-12 1.04614960e-12 9.37552003e-18 0.00000000e+00 0.00000000e+00 1.04634360e-12
1.14815362e-03 1.23472867e-12 1.23471843e-12 1.02318992e-17 0.00000000e+00 0.00000000e+00 1.23502095e-12
1.31825674e-03 1.45731419e-12 1.45726675e-12 4.74428376e-17 0.00000000e+00 0.00000000e+00 1.45772071e-12
1.51356125e-03 1.72020297e-12 1.71994614e-12 2.56833668e-16 0.00000000e+00 0.00000000e+00 1.72057784e-12
1.73780083e-03 2.03124183e-12 2.03008021e-12 1.16161430e-15 0.00000000e+00 0.00000000e+00 2.03083353e-12
1.99526231e-03 2.40344287e-12 2.39585593e-12 7.58694845e-15 0.00000000e+00 0.00000000e+00 2.39703472e-12
2.29086765e-03 2.82805302e-12 2.82779414e-12 2.58878585e-16 0.00000000e+00 0.00000000e+00 2.82926954e-12
2.63026799e-03 3.33861450e-12 3.33735846e-12 1.25604463e-15 0.00000000e+00 0.00000000e+00 3.33944522e-12
3.01995172e-03 4.13687386e-12 3.93857007e-12 1.98303784e-13 0.00000000e+00 0.00000000e+00 3.94161611e-12
3.46736850e-03 4.67479236e-12 4.64813345e-12 2.66589095e-14 0.00000000e+00 0.00000000e+00 4.65237083e-12
3.98107171e-03 5.49770919e-12 5.48556468e-12 1.21445009e-14 0.00000000e+00 0.00000000e+00 5.49128930e-12
4.57088190e-03 6.49482976e-12 6.47697414e-12 1.78556184e-14 0.00000000e+00 0.00000000e+00 6.48148207e-12
5.24807460e-03 7.69982978e-12 7.64343176e-12 5.63980213e-14 0.00000000e+00 0.00000000e+00 7.65022704e-12
6.02559586e-03 9.05950397e-12 9.02005089e-12 3.94530845e-14 0.00000000e+00 0.00000000e+00 9.02972084e-12
6.91830971e-03 1.07247102e-11 1.06447941e-11 7.99161773e-14 0.00000000e+00 0.00000000e+00 1.06579658e-11
7.94328235e-03 1.28212396e-11 1.25624732e-11 2.58766489e-13 0.00000000e+00 0.00000000e+00 1.25798170e-11
9.12010839e-03 1.50204258e-11 1.48255024e-11 1.94923443e-13 0.00000000e+00 0.00000000e+00 1.48482176e-11
1.04712855e-02 1.67420102e-11 1.65564411e-11 1.85569029e-13 0.00000000e+00 0.00000000e+00 1.65834298e-11
1.20226443e-02 1.67672889e-11 1.65548497e-11 2.12439260e-13 0.00000000e+00 0.00000000e+00 1.65834298e-11
1.38038426e-02 1.67969516e-11 1.65529623e-11 2.43989364e-13 1.56300876e-289 2.99753077e-291 1.65834298e-11
1.58489319e-02 1.67721219e-11 1.65506430e-11 2.21478883e-13 7.27893912e-253 1.82953460e-254 1.65834298e-11
1.81970086e-02 1.68095367e-11 1.65485043e-11 2.61032410e-13 5.92823132e-221 1.58135992e-222 1.65834298e-11
2.08929613e-02 1.68229126e-11 1.65467267e-11 2.76185885e-13 3.30892815e-193 1.13035910e-194 1.65834298e-11
2.39883292e-02 1.68367338e-11 1.65444239e-11 2.92309908e-13 4.66680276e-169 1.71141964e-170 1.65834298e-11
2.75422870e-02 1.68544759e-11 1.65417457e-11 3.12730213e-13 4.88436599e-148 2.22114084e-149 1.65834298e-11
3.16227766e-02 1.68666850e-11 1.65391208e-11 3.27564120e-13 9.32157481e-130 4.76785344e-131 1.65834298e-11
3.63078055e-02 1.68685609e-11 1.65370624e-11 3.31498526e-13 7.39455214e-114 4.36416683e-115 1.65834298e-11
4.16869383e-02 1.69151492e-11 1.65352822e-11 3.79866996e-13 5.06663711e-100 3.93808448e-101 1.65834298e-11
4.78630092e-02 1.69635361e-11 1.65303760e-11 4.33160054e-13 5.59820587e-88 5.91440817e-89 1.65834298e-11
5.49540874e-02 1.70052432e-11 1.65235555e-11 4.81687720e-13 1.71434529e-77 2.25205194e-78 1.65834298e-11
6.30957344e-02 1.70401604e-11 1.65064655e-11 5.33694907e-13 3.05411636e-68 4.94661375e-69 1.65834298e-11
7.24435960e-02 1.69858041e-11 1.64862450e-11 4.99559045e-13 3.34147801e-60 5.72321351e-61 1.65834298e-11
8.31763771e-02 1.69708953e-11 1.64880433e-11 4.82851937e-13 2.73071706e-53 4.89523474e-54 1.65834298e-11
9.54992586e-02 1.69802883e-11 1.64933189e-11 4.86969472e-13 2.78560991e-47 5.32366331e-48 1.65834298e-11
1.09647820e-01 1.62716685e-11 1.57655354e-11 5.06133145e-13 4.34572395e-42 8.91081481e-43 1.58370587e-11
1.25892541e-01 1.51888601e-11 1.47250361e-11 4.63823997e-13 1.35043553e-37 2.75678306e-38 1.47800032e-11
1.44543977e-01 1.41618721e-11 1.37509693e-11 4.10902844e-13 9.95040816e-34 1.93288099e-34 1.37935015e-11
1.65958691e-01 1.32563635e-11 1.28381240e-11 4.18239492e-13 1.69333609e-30 3.58935666e-31 1.28728446e-11
1.90546072e-01 1.24323129e-11 1.19790715e-11 4.53241484e-13 7.52849126e-28 1.85564438e-28 1.20136376e-11
2.18776162e-01 1.16069548e-11 1.11739476e-11 4.33007222e-13 1.25841567e-25 3.29597332e-26 1.12117790e-11
2.51188643e-01 1.09239646e-11 1.04351956e-11 4.88769037e-13 1.78305447e-23 5.43100189e-24 1.04634409e-11
2.88403150e-01 1.01915799e-11 9.74316102e-12 4.48418875e-13 1.26420730e-21 3.90477950e-22 9.76505125e-12
3.31131121e-01 9.50077905e-12 9.09546497e-12 4.05314024e-13 4.80471379e-20 1.48204563e-20 9.11327608e-12
3.80189396e-01 8.85780683e-12 8.49040544e-12 3.67400309e-13 1.08231404e-18 3.32532281e-19 8.50500410e-12
4.36515832e-01 8.25814559e-12 7.92547294e-12 3.32657063e-13 1.55874879e-17 4.85916053e-18 7.93733165e-12
5.01187234e-01 7.70512913e-12 7.39804627e-12 3.06932671e-13 1.50186068e-16 4.67342314e-17 7.40754890e-12
5.75439937e-01 7.18897206e-12 6.90559078e-12 2.82351949e-13 1.02932816e-15 3.18197359e-16 6.91312687e-12
6.60693448e-01 6.70317441e-12 6.44578059e-12 2.52205495e-13 5.18832220e-15 1.58197897e-15 6.45170538e-12
7.58577575e-01 6.26723802e-12 6.01648042e-12 2.30371621e-13 2.03859776e-14 6.04902320e-15 6.02108180e-12
8.70963590e-01 5.88283072e-12 5.61570609e-12 2.02085817e-13 6.50388041e-14 1.85384453e-14 5.61920048e-12
1.00000000e+00 5.58780779e-12 5.24153217e-12 1.74862786e-13 1.71412827e-13 4.53535221e-14 5.24414302e-12
1.14815362e+00 5.42704645e-12 4.89220299e-12 1.44732148e-13 3.90111311e-13 9.39236184e-14 4.89411902e-12
1.31825674e+00 5.47321124e-12 4.56607594e-12 1.15268479e-13 7.91866822e-13 1.66982986e-13 4.56745763e-12
1.51356125e+00 5.78086072e-12 4.26161318e-12 8.87598258e-14 1.43048771e-12 2.58824754e-13 4.26259947e-12
1.73780083e+00 6.32171938e-12 3.97739670e-12 6.80069473e-14 2.27631574e-12 3.43559074e-13 3.97808929e-12
1.99526231e+00 7.03711047e-12 3.71209022e-12 5.10283817e-14 3.27399187e-12 3.98257349e-13 3.71256894e-12
2.29086765e+00 7.75469289e-12 3.46444107e-12 3.66228924e-14 4.25362894e-12 3.97462726e-13 3.46477093e-12
2.63026799e+00 8.33576455e-12 3.23328295e-12 2.61701711e-14 5.07631144e-12 3.62564054e-13 3.23351237e-12
3.01995172e+00 8.69229263e-12 3.01752771e-12 1.81754610e-14 5.65658946e-12 2.99107109e-13 3.01768933e-12
3.46736850e+00 8.76722955e-12 2.81615583e-12 1.23425150e-14 5.93873121e-12 2.28361849e-13 2.81627154e-12
3.98107171e+00 8.57793608e-12 2.62821363e-12 8.09457071e-15 5.94162789e-12 1.61668598e-13 2.62829753e-12
4.57088190e+00 8.19642436e-12 2.45280831e-12 5.22447544e-15 5.73839158e-12 1.06695667e-13 2.45286997e-12
5.24807460e+00 7.44039667e-12 2.02810655e-12 2.83797760e-15 5.40945214e-12 6.66287262e-14 2.02814751e-12
6.02559586e+00 6.39809217e-12 1.33996128e-12 1.22306532e-15 5.05690782e-12 3.95608074e-14 1.33998377e-12
6.70000000e+00 5.73381777e-12 9.74694867e-13 6.10811013e-16 4.75851209e-12 2.54931360e-14 9.74709347e-13
6.92422916e+00 5.53491276e-12 8.83037231e-13 4.89663525e-16 4.65138587e-12 2.20259869e-14 8.83049889e-13
7.15596261e+00 5.39988320e-12 7.99998611e-13 3.83791106e-16 4.59950080e-12 1.89496703e-14 8.00009879e-13
7.39545150e+00 5.35613292e-12 7.24768311e-13 2.94748119e-16 4.63106986e-12 1.62432408e-14 7.24778763e-13
7.64295536e+00 5.57740636e-12 6.56611422e-13 2.09792000e-16 4.92058514e-12 1.37989909e-14 6.56622211e-13
7.89874245e+00 6.18310002e-12 5.94862318e-13 1.35641824e-16 5.58810207e-12 1.14911418e-14 5.94874946e-13
8.16308998e+00 7.05401078e-12 5.38918806e-13 8.20226620e-17 6.51500995e-12 9.32767033e-15 5.38934254e-13
8.43628443e+00 8.14925333e-12 4.88234654e-13 4.61888771e-17 7.66097248e-12 7.30663883e-15 4.88254098e-13
8.71862190e+00 8.91209493e-12 4.42318145e-13 2.92517060e-17 8.46974753e-12 5.79071624e-15 4.42339790e-13
9.01040836e+00 9.61232906e-12 4.00719403e-13 1.76615946e-17 9.21159200e-12 4.38966862e-15 4.00743158e-13
9.31196005e+00 1.01357563e-11 3.63033219e-13 0.00000000e+00 9.77272313e-12 0.00000000e+00 3.63058180e-13
9.62360379e+00 1.00930779e-11 3.28893802e-13 0.00000000e+00 9.76418406e-12 0.00000000e+00 3.28917012e-13
9.94567731e+00 9.56833098e-12 2.97966672e-13 0.00000000e+00 9.27036431e-12 0.00000000e+00 2.97986401e-13
1.02785297e+01 8.89946475e-12 2.69948265e-13 0.00000000e+00 8.62951648e-12 0.00000000e+00 2.69964435e-13
1.06225216e+01 8.28807650e-12 2.44564481e-13 0.00000000e+00 8.04351202e-12 0.00000000e+00 2.44577592e-13
1.09780260e+01 7.56396461e-12 2.21567823e-13 0.00000000e+00 7.34239678e-12 0.00000000e+00 2.21578069e-13
1.13454280e+01 6.98339317e-12 2.00733329e-13 0.00000000e+00 6.78265984e-12 0.00000000e+00 2.00741370e-13
1.17251259e+01 6.44231047e-12 1.81857756e-13 0.00000000e+00 6.26045271e-12 0.00000000e+00 1.81864106e-13
1.21175312e+01 5.96506223e-12 1.64757029e-13 0.00000000e+00 5.80030520e-12 0.00000000e+00 1.64762018e-13
1.25230691e+01 5.52542240e-12 1.49264262e-13 0.00000000e+00 5.37615813e-12 0.00000000e+00 1.49268171e-13
1.29421791e+01 5.14000222e-12 1.35228246e-13 0.00000000e+00 5.00477397e-12 0.00000000e+00 1.35231331e-13
1.33753155e+01 4.81031173e-12 1.22512032e-13 0.00000000e+00 4.68779969e-12 0.00000000e+00 1.22514483e-13
1.38229477e+01 4.59205562e-12 1.10991461e-13 0.00000000e+00 4.48106416e-12 0.00000000e+00 1.10993499e-13
1.42855609e+01 4.48981429e-12 1.00554150e-13 0.00000000e+00 4.38926014e-12 0.00000000e+00 1.00555922e-13
1.47636563e+01 4.60610514e-12 9.10981897e-14 0.00000000e+00 4.51500695e-12 0.00000000e+00 9.10998706e-14
1.52577522e+01 4.75281107e-12 8.25314211e-14 0.00000000e+00 4.67027965e-12 0.00000000e+00 8.25330452e-14
1.57683840e+01 4.93959085e-12 7.47702353e-14 0.00000000e+00 4.86482062e-12 0.00000000e+00 7.47718247e-14
1.62961051e+01 5.13545251e-12 6.77388982e-14 0.00000000e+00 5.06771361e-12 0.00000000e+00 6.77404517e-14
1.68414875e+01 5.34702840e-12 6.13687781e-14 0.00000000e+00 5.28565962e-12 0.00000000e+00 6.13702932e-14
1.74051222e+01 5.48431865e-12 5.55977311e-14 0.00000000e+00 5.42872092e-12 0.00000000e+00 5.55991699e-14
1.79876201e+01 5.57878942e-12 5.03694066e-14 0.00000000e+00 5.52842001e-12 0.00000000e+00 5.03707500e-14
1.85896125e+01 5.60821362e-12 4.56327833e-14 0.00000000e+00 5.56258084e-12 0.00000000e+00 4.56339988e-14
1.92117518e+01 5.55608264e-12 4.13416134e-14 0.00000000e+00 5.51474102e-12 0.00000000e+00 4.13426810e-14
1.98547123e+01 5.44904457e-12 3.74539895e-14 0.00000000e+00 5.41159058e-12 0.00000000e+00 3.74549090e-14
2.05191907e+01 5.36160696e-12 3.39319503e-14 0.00000000e+00 5.32767501e-12 0.00000000e+00 3.39327342e-14
2.12059073e+01 5.23490139e-12 3.07411086e-14 0.00000000e+00 5.20416029e-12 0.00000000e+00 3.07417768e-14
2.19156062e+01 5.12113186e-12 2.78503174e-14 0.00000000e+00 5.09328154e-12 0.00000000e+00 2.78508898e-14
2.26490567e+01 5.01357982e-12 2.52313642e-14 0.00000000e+00 4.98834846e-12 0.00000000e+00 2.52318552e-14
2.34070535e+01 4.88956723e-12 2.28586867e-14 0.00000000e+00 4.86670854e-12 0.00000000e+00 2.28591087e-14
2.41904183e+01 4.80410674e-12 2.07091263e-14 0.00000000e+00 4.78339761e-12 0.00000000e+00 2.07094900e-14
2.50000000e+01 4.67816738e-12 1.87617024e-14 0.00000000e+00 4.65940568e-12 0.00000000e+00 1.87620165e-14
2.75422870e+01 4.30857571e-12 1.40311478e-14 0.00000000e+00 4.29454456e-12 0.00000000e+00 1.40313526e-14
3.16227766e+01 3.69614873e-12 9.27031021e-15 0.00000000e+00 3.68687842e-12 0.00000000e+00 9.27042274e-15
3.63078055e+01 2.97502279e-12 6.12484607e-15 0.00000000e+00 2.96889795e-12 0.00000000e+00 6.12490756e-15
4.16869383e+01 2.22879561e-12 4.04665358e-15 0.00000000e+00 2.22474895e-12 0.00000000e+00 4.04668630e-15
4.78630092e+01 1.55061476e-12 2.67360225e-15 0.00000000e+00 1.54794115e-12 0.00000000e+00 2.67361912e-15
5.49540874e+01 1.01426378e-12 1.76643413e-15 0.00000000e+00 1.01249735e-12 0.00000000e+00 1.76644264e-15
6.30957344e+01 6.31209055e-13 1.16707284e-15 0.00000000e+00 6.30041982e-13 0.00000000e+00 1.16707708e-15
7.24435960e+01 3.77396846e-13 7.71078081e-16 0.00000000e+00 3.76625768e-13 0.00000000e+00 7.71080178e-16
8.31763771e+01 2.18929630e-13 5.09446586e-16 0.00000000e+00 2.18420184e-13 0.00000000e+00 5.09447621e-16
9.54992586e+01 1.24252262e-13 3.36588193e-16 0.00000000e+00 1.23915674e-13 0.00000000e+00 3.36588705e-16
1.09647820e+02 6.93728790e-14 2.22381698e-16 0.00000000e+00 6.91504973e-14 0.00000000e+00 2.22381952e-16
1.25892541e+02 3.86505258e-14 1.46926171e-16 0.00000000e+00 3.85035996e-14 0.00000000e+00 1.46926299e-16
1.44543977e+02 2.13893852e-14 9.70731779e-17 0.00000000e+00 2.12923121e-14 0.00000000e+00 9.70732430e-17
1.65958691e+02 1.12696267e-14 6.41356237e-17 0.00000000e+00 1.12054911e-14 0.00000000e+00 6.41356556e-17
1.90546072e+02 5.93916383e-15 4.23739916e-17 0.00000000e+00 5.89678984e-15 0.00000000e+00 4.23740075e-17
2.18776162e+02 3.12338770e-15 2.79962212e-17 0.00000000e+00 3.09539148e-15 0.00000000e+00 2.79962291e-17
2.51188643e+02 1.63663618e-15 1.84969212e-17 0.00000000e+00 1.61813926e-15 0.00000000e+00 1.84969251e-17
2.88403150e+02 8.53604744e-16 1.22207953e-17 0.00000000e+00 8.41383949e-16 0.00000000e+00 1.22207972e-17
3.31131121e+02 4.44134711e-16 8.07419968e-18 0.00000000e+00 4.36060511e-16 0.00000000e+00 8.07420067e-18
3.80189396e+02 2.30351851e-16 5.33457098e-18 0.00000000e+00 2.25017280e-16 0.00000000e+00 5.33457148e-18
4.36515832e+02 1.19299198e-16 3.52451618e-18 0.00000000e+00 1.15774682e-16 0.00000000e+00 3.52451642e-18
5.01187234e+02 6.17101736e-17 2.32862478e-18 0.00000000e+00 5.93815488e-17 0.00000000e+00 2.32862491e-18
5.75439937e+02 3.19177123e-17 1.53850716e-18 0.00000000e+00 3.03792051e-17 0.00000000e+00 1.53850722e-18
6.60693448e+02 1.65236721e-17 1.01648161e-18 0.00000000e+00 1.55071905e-17 0.00000000e+00 1.01648164e-18
7.58577575e+02 8.57182562e-18 6.71582744e-19 0.00000000e+00 7.90024288e-18 0.00000000e+00 6.71582760e-19
8.70963590e+02 4.46074690e-18 4.43710321e-19 0.00000000e+00 4.01703658e-18 0.00000000e+00 4.43710329e-19
1.00000000e+03 2.03885866e-18 0.00000000e+00 0.00000000e+00 2.03885866e-18 0.00000000e+00 0.00000000e+00
