# column 1: lambda (micron)
# column 2: total flux; lambda*F_lambda (W/m2)
# column 3: direct stellar flux; lambda*F_lambda (W/m2)
# column 4: scattered stellar flux; lambda*F_lambda (W/m2)
# column 5: total dust emission flux; lambda*F_lambda (W/m2)
# column 6: dust emission scattered flux; lambda*F_lambda (W/m2)
# column 7: transparent flux; lambda*F_lambda (W/m2)
1.00000000e-03 5.25637601e-13 5.25636674e-13 9.26761778e-19 0.00000000e+00 0.00000000e+00 5.25636674e-13
1.14815362e-03 6.20421252e-13 6.20419813e-13 1.43955925e-18 0.00000000e+00 0.00000000e+00 6.20419813e-13
1.31825674e-03 7.32296520e-13 7.32294308e-13 2.21206810e-18 0.00000000e+00 0.00000000e+00 7.32294308e-13
1.51356125e-03 8.64345554e-13 8.64342083e-13 3.47085033e-18 0.00000000e+00 0.00000000e+00 8.64342083e-13
1.73780083e-03 1.02020696e-12 1.02020080e-12 6.16603387e-18 0.00000000e+00 0.00000000e+00 1.02020080e-12
1.99526231e-03 1.20417502e-12 1.20416405e-12 1.09710795e-17 0.00000000e+00 0.00000000e+00 1.20416405e-12
2.29086765e-03 1.42131674e-12 1.42129968e-12 1.70605232e-17 0.00000000e+00 0.00000000e+00 1.42129968e-12
2.63026799e-03 1.67762372e-12 1.67758934e-12 3.43767211e-17 0.00000000e+00 0.00000000e+00 1.67758934e-12
3.01995172e-03 1.98014609e-12 1.98009332e-12 5.27686532e-17 0.00000000e+00 0.00000000e+00 1.98009332e-12
3.46736850e-03 2.33723315e-12 2.33714500e-12 8.81427982e-17 0.00000000e+00 0.00000000e+00 2.33714500e-12
3.98107171e-03 2.75872372e-12 2.75858048e-12 1.43240366e-16 0.00000000e+00 0.00000000e+00 2.75858048e-12
4.57088190e-03 3.25634396e-12 3.25600946e-12 3.34493636e-16 0.00000000e+00 0.00000000e+00 3.25600946e-12
5.24807460e-03 3.84368460e-12 3.84313516e-12 5.49443511e-16 0.00000000e+00 0.00000000e+00 3.84313516e-12
6.02559586e-03 4.53723242e-12 4.53613173e-12 1.10068514e-15 0.00000000e+00 0.00000000e+00 4.53613173e-12
6.91830971e-03 5.35574275e-12 5.35408989e-12 1.65285696e-15 0.00000000e+00 0.00000000e+00 5.35408989e-12
7.94328235e-03 6.32233482e-12 6.31954278e-12 2.79203830e-15 7.89622037e-304 3.81999258e-306 6.31954278e-12
9.12010839e-03 7.46522612e-12 7.45908676e-12 6.13936828e-15 4.29599335e-265 1.58355649e-267 7.45908676e-12
1.04712855e-02 8.33722717e-12 8.33078048e-12 6.44669081e-15 2.19831275e-231 1.27188584e-233 8.33078048e-12
1.20226443e-02 8.34035185e-12 8.33078048e-12 9.57137570e-15 4.06168197e-202 2.74530252e-204 8.33078048e-12
1.38038426e-02 8.34346631e-12 8.33078048e-12 1.26858352e-14 1.28214855e-176 1.42810082e-178 8.33078048e-12
1.58489319e-02 8.35218336e-12 8.33078048e-12 2.14028884e-14 1.96815631e-154 2.68230089e-156 8.33078048e-12
1.81970086e-02 8.35616588e-12 8.33078048e-12 2.53854056e-14 3.91815657e-135 6.12368310e-137 8.33078048e-12
2.08929613e-02 8.37097459e-12 8.33078048e-12 4.01941153e-14 2.25616753e-118 4.44840200e-120 8.33078048e-12
2.39883292e-02 8.38077345e-12 8.33078048e-12 4.99929717e-14 8.62168727e-104 2.10863800e-105 8.33078048e-12
2.75422870e-02 8.38632294e-12 8.33078048e-12 5.55424687e-14 4.15431447e-91 1.18892252e-92 8.33078048e-12
3.16227766e-02 8.39866186e-12 8.33078048e-12 6.78813886e-14 4.32604786e-80 1.48430469e-81 8.33078048e-12
3.63078055e-02 8.40748493e-12 8.33078048e-12 7.67044507e-14 1.58598914e-70 5.95732307e-72 8.33078048e-12
4.16869383e-02 8.42688681e-12 8.33078048e-12 9.61063302e-14 3.17916796e-62 1.50753844e-63 8.33078048e-12
4.78630092e-02 8.44848849e-12 8.33078048e-12 1.17708014e-13 5.03580144e-55 2.99166642e-56 8.33078048e-12
5.49540874e-02 8.45462420e-12 8.33078048e-12 1.23843726e-13 8.70276138e-49 5.95793639e-50 8.33078048e-12
6.30957344e-02 8.46627160e-12 8.33078048e-12 1.35491120e-13 2.89985333e-43 2.20800807e-44 8.33078048e-12
7.24435960e-02 8.45172740e-12 8.33078048e-12 1.20946923e-13 1.71560236e-38 1.24041641e-39 8.33078048e-12
8.31763771e-02 8.44729790e-12 8.33078048e-12 1.16517424e-13 1.79597781e-34 1.26030722e-35 8.33078048e-12
9.54992586e-02 8.44671153e-12 8.33078048e-12 1.15931051e-13 5.17452970e-31 3.75484522e-32 8.33078048e-12
1.09647820e-01 8.08444511e-12 7.95583672e-12 1.28608395e-13 4.49567266e-28 3.56084422e-29 7.95583672e-12
1.25892541e-01 7.54127346e-12 7.42481883e-12 1.16454624e-13 1.48191723e-25 1.15653917e-26 7.42481883e-12
1.44543977e-01 7.04082740e-12 6.92924411e-12 1.11583286e-13 2.04976834e-23 1.58444018e-24 6.92924411e-12
1.65958691e-01 6.58041263e-12 6.46674687e-12 1.13665759e-13 1.05617526e-21 9.14388163e-23 6.46674687e-12
1.90546072e-01 6.15596328e-12 6.03511933e-12 1.20843932e-13 2.25503045e-20 2.25728150e-21 6.03511933e-12
2.18776162e-01 5.74250341e-12 5.63230107e-12 1.10202078e-13 2.69399860e-19 2.80403178e-20 5.63230107e-12
2.51188643e-01 5.37860030e-12 5.25636919e-12 1.22227774e-13 3.33632360e-18 4.30475046e-19 5.25636919e-12
2.88403150e-01 5.02164232e-12 4.90552916e-12 1.16085194e-13 2.79673014e-17 3.56397904e-18 4.90552916e-12
3.31131121e-01 4.68618409e-12 4.57810618e-12 1.07916837e-13 1.61070949e-16 1.99805214e-17 4.57810618e-12
3.80189396e-01 4.37873298e-12 4.27253728e-12 1.05520134e-13 6.75565367e-16 8.31127500e-17 4.27253728e-12
4.36515832e-01 4.07869232e-12 3.98736380e-12 8.91794398e-14 2.14908516e-15 2.62903832e-16 3.98736380e-12
5.01187234e-01 3.81054273e-12 3.72122441e-12 8.39057395e-14 5.41257792e-15 6.67052210e-16 3.72122441e-12
5.75439937e-01 3.56084059e-12 3.47284869e-12 7.66876465e-14 1.13042593e-14 1.41689396e-15 3.47284869e-12
6.60693448e-01 3.33170073e-12 3.24105097e-12 7.01362758e-14 2.05134788e-14 2.61893389e-15 3.24105097e-12
7.58577575e-01 3.12226075e-12 3.02472476e-12 6.30599442e-14 3.44760444e-14 4.61801956e-15 3.02472476e-12
8.70963590e-01 2.93446371e-12 2.82283739e-12 5.55145039e-14 5.61118137e-14 7.84473968e-15 2.82283739e-12
1.00000000e+00 2.77474050e-12 2.63442513e-12 4.84959810e-14 9.18193818e-14 1.33208556e-14 2.63442513e-12
1.14815362e+00 2.65346022e-12 2.45858859e-12 4.00088987e-14 1.54862734e-13 2.20712643e-14 2.45858859e-12
1.31825674e+00 2.59024583e-12 2.29448837e-12 3.15970941e-14 2.64160361e-13 3.48308129e-14 2.29448837e-12
1.51356125e+00 2.60091941e-12 2.14134114e-12 2.54507082e-14 4.34127556e-13 4.99895826e-14 2.14134114e-12
1.73780083e+00 2.68353250e-12 1.99841583e-12 2.02043723e-14 6.64912300e-13 6.41409980e-14 1.99841583e-12
1.99526231e+00 2.81397054e-12 1.86503017e-12 1.46720974e-14 9.34268277e-13 7.21424204e-14 1.86503017e-12
2.29086765e+00 2.94374948e-12 1.74054743e-12 1.06336867e-14 1.19256837e-12 7.10207254e-14 1.74054743e-12
2.63026799e+00 3.03624751e-12 1.62437337e-12 7.64717235e-15 1.40422697e-12 6.43212841e-14 1.62437337e-12
3.01995172e+00 3.06811566e-12 1.51595343e-12 5.33042728e-15 1.54683180e-12 5.39667376e-14 1.51595343e-12
3.46736850e+00 3.02832779e-12 1.41477006e-12 3.60714062e-15 1.60995059e-12 4.23045814e-14 1.41477006e-12
3.98107171e+00 2.91735520e-12 1.32034025e-12 2.48910952e-15 1.59452585e-12 3.08656098e-14 1.32034025e-12
4.57088190e+00 2.75166553e-12 1.23221321e-12 1.64642816e-15 1.51780588e-12 2.09315761e-14 1.23221321e-12
5.24807460e+00 2.43288100e-12 1.01885146e-12 9.03034585e-16 1.41312651e-12 1.33090549e-14 1.01885146e-12
6.02559586e+00 1.96991374e-12 6.73148485e-13 3.83429237e-16 1.29638182e-12 7.97758485e-15 6.73148485e-13
6.70000000e+00 1.69009941e-12 4.89650796e-13 1.93922767e-16 1.20025469e-12 5.13562752e-15 4.89650796e-13
6.92422916e+00 1.61129536e-12 4.43605145e-13 1.53801080e-16 1.16753641e-12 4.45107265e-15 4.43605145e-13
7.15596261e+00 1.55068326e-12 4.01889522e-13 1.21233093e-16 1.14867250e-12 3.80763178e-15 4.01889522e-13
7.39545150e+00 1.51949167e-12 3.64096743e-13 9.44472438e-17 1.15530048e-12 3.24495841e-15 3.64096743e-13
7.64295536e+00 1.56229287e-12 3.29857910e-13 6.70369925e-17 1.23236793e-12 2.75683815e-15 3.29857910e-13
7.89874245e+00 1.71251762e-12 2.98838820e-13 4.20475195e-17 1.41363675e-12 2.27975864e-15 2.98838820e-13
8.16308998e+00 1.93836764e-12 2.70736695e-13 2.51948756e-17 1.66760575e-12 1.86638941e-15 2.70736695e-13
8.43628443e+00 2.24518214e-12 2.45277229e-13 1.47851647e-17 1.99989013e-12 1.44963003e-15 2.45277229e-13
8.71862190e+00 2.43998863e-12 2.22211915e-13 9.33015578e-18 2.21776739e-12 1.13715019e-15 2.22211915e-13
9.01040836e+00 2.63274704e-12 2.01315610e-13 5.95311689e-18 2.43142548e-12 8.42393235e-16 2.01315610e-13
9.31196005e+00 2.77160968e-12 1.82384346e-13 0.00000000e+00 2.58922533e-12 0.00000000e+00 1.82384346e-13
9.62360379e+00 2.71215500e-12 1.65233336e-13 0.00000000e+00 2.54692166e-12 0.00000000e+00 1.65233336e-13
9.94567731e+00 2.53801840e-12 1.49695167e-13 0.00000000e+00 2.38832323e-12 0.00000000e+00 1.49695167e-13
1.02785297e+01 2.32814267e-12 1.35618173e-13 0.00000000e+00 2.19252450e-12 0.00000000e+00 1.35618173e-13
1.06225216e+01 2.13287549e-12 1.22864947e-13 0.00000000e+00 2.01001054e-12 0.00000000e+00 1.22864947e-13
1.09780260e+01 1.92054587e-12 1.11311006e-13 0.00000000e+00 1.80923486e-12 0.00000000e+00 1.11311006e-13
1.13454280e+01 1.73363652e-12 1.00843571e-13 0.00000000e+00 1.63279295e-12 0.00000000e+00 1.00843571e-13
1.17251259e+01 1.57679939e-12 9.13604705e-14 0.00000000e+00 1.48543892e-12 0.00000000e+00 9.13604705e-14
1.21175312e+01 1.42792656e-12 8.27691389e-14 0.00000000e+00 1.34515742e-12 0.00000000e+00 8.27691389e-14
1.25230691e+01 1.29906837e-12 7.49857166e-14 0.00000000e+00 1.22408265e-12 0.00000000e+00 7.49857166e-14
1.29421791e+01 1.17928743e-12 6.79342298e-14 0.00000000e+00 1.11135320e-12 0.00000000e+00 6.79342298e-14
1.33753155e+01 1.07887509e-12 6.15458488e-14 0.00000000e+00 1.01732924e-12 0.00000000e+00 6.15458488e-14
1.38229477e+01 1.00996895e-12 5.57582167e-14 0.00000000e+00 9.54210729e-13 0.00000000e+00 5.57582167e-14
1.42855609e+01 9.70221503e-13 5.05148403e-14 0.00000000e+00 9.19706663e-13 0.00000000e+00 5.05148403e-14
1.47636563e+01 9.75198567e-13 4.57645392e-14 0.00000000e+00 9.29434028e-13 0.00000000e+00 4.57645392e-14
1.52577522e+01 9.90236768e-13 4.14609457e-14 0.00000000e+00 9.48775822e-13 0.00000000e+00 4.14609457e-14
1.57683840e+01 1.00944191e-12 3.75620523e-14 0.00000000e+00 9.71879862e-13 0.00000000e+00 3.75620523e-14
1.62961051e+01 1.03072830e-12 3.40298020e-14 0.00000000e+00 9.96698493e-13 0.00000000e+00 3.40298020e-14
1.68414875e+01 1.05325846e-12 3.08297166e-14 0.00000000e+00 1.02242874e-12 0.00000000e+00 3.08297166e-14
1.74051222e+01 1.06238433e-12 2.79305599e-14 0.00000000e+00 1.03445377e-12 0.00000000e+00 2.79305599e-14
1.79876201e+01 1.05897766e-12 2.53040334e-14 0.00000000e+00 1.03367363e-12 0.00000000e+00 2.53040334e-14
1.85896125e+01 1.04423143e-12 2.29244994e-14 0.00000000e+00 1.02130693e-12 0.00000000e+00 2.29244994e-14
1.92117518e+01 1.01263961e-12 2.07687314e-14 0.00000000e+00 9.91870876e-13 0.00000000e+00 2.07687314e-14
1.98547123e+01 9.73602377e-13 1.88156870e-14 0.00000000e+00 9.54786690e-13 0.00000000e+00 1.88156870e-14
2.05191907e+01 9.30292193e-13 1.70463024e-14 0.00000000e+00 9.13245891e-13 0.00000000e+00 1.70463024e-14
2.12059073e+01 8.88938747e-13 1.54433068e-14 0.00000000e+00 8.73495441e-13 0.00000000e+00 1.54433068e-14
2.19156062e+01 8.50359822e-13 1.39910532e-14 0.00000000e+00 8.36368768e-13 0.00000000e+00 1.39910532e-14
2.26490567e+01 8.13718565e-13 1.26753663e-14 0.00000000e+00 8.01043198e-13 0.00000000e+00 1.26753663e-14
2.34070535e+01 7.80630086e-13 1.14834036e-14 0.00000000e+00 7.69146682e-13 0.00000000e+00 1.14834036e-14
2.41904183e+01 7.46746160e-13 1.04035303e-14 0.00000000e+00 7.36342629e-13 0.00000000e+00 1.04035303e-14
2.50000000e+01 7.15813289e-13 9.42520591e-15 0.00000000e+00 7.06388083e-13 0.00000000e+00 9.42520591e-15
2.75422870e+01 6.25653514e-13 7.04872996e-15 0.00000000e+00 6.18604785e-13 0.00000000e+00 7.04872996e-15
3.16227766e+01 5.05333982e-13 4.65704970e-15 0.00000000e+00 5.00676933e-13 0.00000000e+00 4.65704970e-15
3.63078055e+01 3.87504398e-13 3.07688223e-15 0.00000000e+00 3.84427516e-13 0.00000000e+00 3.07688223e-15
4.16869383e+01 2.78003877e-13 2.03287593e-15 0.00000000e+00 2.75971001e-13 0.00000000e+00 2.03287593e-15
4.78630092e+01 1.87118475e-13 1.34310781e-15 0.00000000e+00 1.85775367e-13 0.00000000e+00 1.34310781e-15
5.49540874e+01 1.19335200e-13 8.87382527e-16 0.00000000e+00 1.18447818e-13 0.00000000e+00 8.87382527e-16
6.30957344e+01 7.29332486e-14 5.86287821e-16 0.00000000e+00 7.23469608e-14 0.00000000e+00 5.86287821e-16
7.24435960e+01 4.31015583e-14 3.87356522e-16 0.00000000e+00 4.27142018e-14 0.00000000e+00 3.87356522e-16
8.31763771e+01 2.48477470e-14 2.55923916e-16 0.00000000e+00 2.45918230e-14 0.00000000e+00 2.55923916e-16
9.54992586e+01 1.40702537e-14 1.69087255e-16 0.00000000e+00 1.39011665e-14 0.00000000e+00 1.69087255e-16
1.09647820e+02 7.85778228e-15 1.11714841e-16 0.00000000e+00 7.74606744e-15 0.00000000e+00 1.11714841e-16
1.25892541e+02 4.39018325e-15 7.38092637e-17 0.00000000e+00 4.31637399e-15 0.00000000e+00 7.38092637e-17
1.44543977e+02 2.44002102e-15 4.87652969e-17 0.00000000e+00 2.39125572e-15 0.00000000e+00 4.87652969e-17
1.65958691e+02 1.29249572e-15 3.22189122e-17 0.00000000e+00 1.26027680e-15 0.00000000e+00 3.22189122e-17
1.90546072e+02 6.85783306e-16 2.12868242e-17 0.00000000e+00 6.64496482e-16 0.00000000e+00 2.12868242e-17
2.18776162e+02 3.63642574e-16 1.40640653e-17 0.00000000e+00 3.49578508e-16 0.00000000e+00 1.40640653e-17
2.51188643e+02 1.92437472e-16 9.29203577e-18 0.00000000e+00 1.83145436e-16 0.00000000e+00 9.29203577e-18
2.88403150e+02 1.01576883e-16 6.13918715e-18 0.00000000e+00 9.54376955e-17 0.00000000e+00 6.13918715e-18
3.31131121e+02 5.36182967e-17 4.05612073e-18 0.00000000e+00 4.95621760e-17 0.00000000e+00 4.05612073e-18
3.80189396e+02 2.83030989e-17 2.67985239e-18 0.00000000e+00 2.56232465e-17 0.00000000e+00 2.67985239e-18
4.36515832e+02 1.49765370e-17 1.77056092e-18 0.00000000e+00 1.32059761e-17 0.00000000e+00 1.77056092e-18
5.01187234e+02 7.95383264e-18 1.16979800e-18 0.00000000e+00 6.78403464e-18 0.00000000e+00 1.16979800e-18
5.75439937e+02 4.24835444e-18 7.72877871e-19 0.00000000e+00 3.47547657e-18 0.00000000e+00 7.72877871e-19
6.60693448e+02 2.28690983e-18 5.10635346e-19 0.00000000e+00 1.77627449e-18 0.00000000e+00 5.10635346e-19
7.58577575e+02 1.24331702e-18 3.37373427e-19 0.00000000e+00 9.05943590e-19 0.00000000e+00 3.37373427e-19
8.70963590e+02 6.83999545e-19 2.22900413e-19 0.00000000e+00 4.61099132e-19 0.00000000e+00 2.22900413e-19
1.00000000e+03 2.34234455e-19 0.00000000e+00 0.00000000e+00 2.34234455e-19 0.00000000e+00 0.00000000e+00
