# column 1: lambda (micron)
# column 2: total flux; lambda*F_lambda (W/m2)
# column 3: direct stellar flux; lambda*F_lambda (W/m2)
# column 4: scattered stellar flux; lambda*F_lambda (W/m2)
# column 5: total dust emission flux; lambda*F_lambda (W/m2)
# column 6: dust emission scattered flux; lambda*F_lambda (W/m2)
# column 7: transparent flux; lambda*F_lambda (W/m2)
1.00000000e-03 1.07295301e-12 1.07294802e-12 4.99445320e-18 0.00000000e+00 0.00000000e+00 1.07335627e-12
1.14815362e-03 1.26627550e-12 1.26626797e-12 7.53003914e-18 0.00000000e+00 0.00000000e+00 1.26690456e-12
1.31825674e-03 1.49440976e-12 1.49439834e-12 1.14172297e-17 0.00000000e+00 0.00000000e+00 1.49535359e-12
1.51356125e-03 1.76368478e-12 1.76366749e-12 1.72943274e-17 0.00000000e+00 0.00000000e+00 1.76499670e-12
1.73780083e-03 2.08170798e-12 2.08167692e-12 3.10607365e-17 0.00000000e+00 0.00000000e+00 2.08326203e-12
1.99526231e-03 2.45658069e-12 2.45643693e-12 1.43755004e-16 0.00000000e+00 0.00000000e+00 2.45891716e-12
2.29086765e-03 2.89930238e-12 2.89920641e-12 9.59706912e-17 0.00000000e+00 0.00000000e+00 2.90231066e-12
2.63026799e-03 3.42146825e-12 3.42126684e-12 2.01417787e-16 0.00000000e+00 0.00000000e+00 3.42565717e-12
3.01995172e-03 4.03739104e-12 4.03696581e-12 4.25235329e-16 0.00000000e+00 0.00000000e+00 4.04337385e-12
3.46736850e-03 4.76594312e-12 4.76356393e-12 2.37918196e-15 0.00000000e+00 0.00000000e+00 4.77247759e-12
3.98107171e-03 5.69921982e-12 5.62101246e-12 7.82073615e-14 0.00000000e+00 0.00000000e+00 5.63305378e-12
4.57088190e-03 6.64217689e-12 6.63932576e-12 2.85112739e-15 0.00000000e+00 0.00000000e+00 6.64880962e-12
5.24807460e-03 7.89036593e-12 7.83343263e-12 5.69332981e-14 0.00000000e+00 0.00000000e+00 7.84772720e-12
6.02559586e-03 9.26736844e-12 9.24249458e-12 2.48738670e-14 0.00000000e+00 0.00000000e+00 9.26283435e-12
6.91830971e-03 1.09181074e-11 1.09054114e-11 1.26959839e-14 0.00000000e+00 0.00000000e+00 1.09331145e-11
7.94328235e-03 1.29102396e-11 1.28681055e-11 4.21340356e-14 2.79443819e-303 1.62401198e-305 1.29045807e-11
9.12010839e-03 1.52242011e-11 1.51837752e-11 4.04259402e-14 1.20681277e-264 4.19521093e-267 1.52315429e-11
1.04712855e-02 1.70818300e-11 1.69548004e-11 1.27029634e-13 5.05779145e-231 3.04983330e-233 1.70115517e-11
1.20226443e-02 1.70459585e-11 1.69514570e-11 9.45015508e-14 7.86345633e-202 6.73636069e-204 1.70115517e-11
1.38038426e-02 1.70365414e-11 1.69474922e-11 8.90492306e-14 2.12869114e-176 2.36447915e-178 1.70115517e-11
1.58489319e-02 1.70673401e-11 1.69426210e-11 1.24719165e-13 2.86643616e-154 4.19828440e-156 1.70115517e-11
1.81970086e-02 1.70923163e-11 1.69381294e-11 1.54186886e-13 5.09548922e-135 9.39269992e-137 1.70115517e-11
2.08929613e-02 1.71353834e-11 1.69343969e-11 2.00986513e-13 2.65636518e-118 6.16795582e-120 1.70115517e-11
2.39883292e-02 1.71836178e-11 1.69295620e-11 2.54055796e-13 9.33394545e-104 2.90902544e-105 1.70115517e-11
2.75422870e-02 1.72613739e-11 1.69239399e-11 3.37434051e-13 4.18457848e-91 1.62526221e-92 1.70115517e-11
3.16227766e-02 1.73148812e-11 1.69184308e-11 3.96450388e-13 4.08884807e-80 1.91190871e-81 1.70115517e-11
3.63078055e-02 1.73449360e-11 1.69141110e-11 4.30824956e-13 1.41564878e-70 7.11629137e-72 1.70115517e-11
4.16869383e-02 1.74722229e-11 1.69103756e-11 5.61847282e-13 2.71801008e-62 1.80853101e-63 1.70115517e-11
4.78630092e-02 1.75910080e-11 1.69000834e-11 6.90924638e-13 4.13441479e-55 3.34374005e-56 1.70115517e-11
5.49540874e-02 1.76407122e-11 1.68857805e-11 7.54931722e-13 6.90427983e-49 6.39113631e-50 1.70115517e-11
6.30957344e-02 1.76034615e-11 1.68499691e-11 7.53492345e-13 2.22269335e-43 2.16320665e-44 1.70115517e-11
7.24435960e-02 1.74432558e-11 1.68076484e-11 6.35607389e-13 1.27774863e-38 1.17312654e-39 1.70115517e-11
8.31763771e-02 1.74331479e-11 1.68114100e-11 6.21737902e-13 1.30469755e-34 1.17730533e-35 1.70115517e-11
9.54992586e-02 1.74579644e-11 1.68224474e-11 6.35516996e-13 3.67406949e-31 3.38941093e-32 1.70115517e-11
1.09647820e-01 1.67873407e-11 1.60957426e-11 6.91598136e-13 3.12862176e-28 3.11006499e-29 1.62459122e-11
1.25892541e-01 1.57526159e-11 1.50461108e-11 7.06505130e-13 1.01741756e-25 1.04048730e-26 1.51615674e-11
1.44543977e-01 1.47175241e-11 1.40602304e-11 6.57293726e-13 1.38329783e-23 1.38584133e-24 1.41495980e-11
1.65958691e-01 1.37968178e-11 1.31322044e-11 6.64613383e-13 7.03065935e-22 7.65379097e-23 1.32051732e-11
1.90546072e-01 1.29470631e-11 1.22511473e-11 6.95915800e-13 1.48586939e-20 1.81957836e-21 1.23237846e-11
2.18776162e-01 1.20211712e-11 1.14217470e-11 5.99423981e-13 1.75058745e-19 2.13256648e-20 1.15012250e-11
2.51188643e-01 1.13670779e-11 1.06742073e-11 6.92868478e-13 2.13722598e-18 3.03842001e-19 1.07335677e-11
2.88403150e-01 1.06179443e-11 9.97113269e-12 6.46793789e-13 1.78281047e-17 2.55466640e-18 1.00171482e-11
3.31131121e-01 9.92902188e-12 9.31110021e-12 6.17819674e-13 1.01994043e-16 1.42742132e-17 9.34854667e-12
3.80189396e-01 9.26146821e-12 8.69387502e-12 5.67168620e-13 4.24573885e-16 5.80676383e-17 8.72457139e-12
4.36515832e-01 8.63818604e-12 8.11730572e-12 5.19525625e-13 1.35469058e-15 1.87683841e-16 8.14224377e-12
5.01187234e-01 8.05492761e-12 7.57879842e-12 4.72656068e-13 3.47311685e-15 4.97616301e-16 7.59878402e-12
5.75439937e-01 7.50153976e-12 7.07574662e-12 4.17957165e-13 7.83597007e-15 1.23816278e-15 7.09159786e-12
6.60693448e-01 7.00333292e-12 6.60580101e-12 3.80076164e-13 1.74557482e-14 3.41082980e-15 6.61826421e-12
7.58577575e-01 6.54123265e-12 6.16684345e-12 3.32251276e-13 4.21379204e-14 1.00333002e-14 6.17652353e-12
8.70963590e-01 6.14619636e-12 5.75691532e-12 2.83692575e-13 1.05588458e-13 2.77267636e-14 5.76426715e-12
1.00000000e+00 5.87124360e-12 5.37403381e-12 2.39100265e-13 2.58109518e-13 6.82143429e-14 5.37952711e-12
1.14815362e+00 5.79216391e-12 5.01643520e-12 1.92692690e-13 5.83036021e-13 1.43748551e-13 5.02046681e-12
1.31825674e+00 6.03482906e-12 4.68246483e-12 1.51154170e-13 1.20121006e-12 2.63193221e-13 4.68537225e-12
1.51356125e+00 6.70762801e-12 4.37056832e-12 1.18706317e-13 2.21835337e-12 4.25986670e-13 4.37264380e-12
1.73780083e+00 7.84510867e-12 4.07933114e-12 9.16360725e-14 3.67414146e-12 5.97179007e-13 4.08078863e-12
1.99526231e+00 9.33152296e-12 3.80740610e-12 6.99881321e-14 5.45412873e-12 7.25194072e-13 3.80841354e-12
2.29086765e+00 1.09998611e-11 3.55352412e-12 5.30889752e-14 7.39324798e-12 7.83533829e-13 3.55421832e-12
2.63026799e+00 1.27168124e-11 3.31650670e-12 3.96575306e-14 9.36064821e-12 7.60581444e-13 3.31698953e-12
3.01995172e+00 1.40502255e-11 3.09525461e-12 2.86280837e-14 1.09263428e-11 6.76103110e-13 3.09559474e-12
3.46736850e+00 1.50183778e-11 2.88873359e-12 2.06900307e-14 1.21089542e-11 5.56794015e-13 2.88897711e-12
3.98107171e+00 1.55211244e-11 2.69597373e-12 1.44040766e-14 1.28107466e-11 4.29347786e-13 2.69615031e-12
4.57088190e+00 1.56544842e-11 2.51606409e-12 9.71197990e-15 1.31287081e-11 3.09380538e-13 2.51619387e-12
5.24807460e+00 1.51162142e-11 2.08042046e-12 5.57393471e-15 1.30302198e-11 2.07920260e-13 2.08050667e-12
6.02559586e+00 1.41901966e-11 1.37452979e-12 2.46088541e-15 1.28132059e-11 1.32902646e-13 1.37457712e-12
6.70000000e+00 1.34462175e-11 9.99842211e-13 1.26581760e-15 1.24451095e-11 9.03723390e-14 9.99872685e-13
6.92422916e+00 1.32134374e-11 9.05820283e-13 1.02356757e-15 1.23065935e-11 7.93455588e-14 9.05846924e-13
7.15596261e+00 1.30696898e-11 8.20639418e-13 8.12628025e-16 1.22482377e-11 6.90115302e-14 8.20663132e-13
7.39545150e+00 1.30758605e-11 7.43467834e-13 6.18218805e-16 1.23317744e-11 5.91217803e-14 7.43489831e-13
7.64295536e+00 1.35045380e-11 6.73551027e-13 4.27677692e-16 1.28305593e-11 4.86510835e-14 6.73573732e-13
7.89874245e+00 1.44872654e-11 6.10205808e-13 2.61260278e-16 1.38767983e-11 3.79959426e-14 6.10232385e-13
8.16308998e+00 1.57361453e-11 5.52815003e-13 1.49834215e-16 1.51831805e-11 2.86484002e-14 5.52847515e-13
8.43628443e+00 1.73217055e-11 5.00818066e-13 8.09740230e-17 1.68208064e-11 2.09226612e-14 5.00858987e-13
8.71862190e+00 1.81134756e-11 4.53713791e-13 5.02617551e-17 1.76597115e-11 1.63036083e-14 4.53759343e-13
9.01040836e+00 1.88039143e-11 4.11038850e-13 3.08517351e-17 1.83928446e-11 1.24372023e-14 4.11088843e-13
9.31196005e+00 1.93509791e-11 3.72378450e-13 0.00000000e+00 1.89786007e-11 0.00000000e+00 3.72430980e-13
9.62360379e+00 1.90685781e-11 3.37359571e-13 0.00000000e+00 1.87312186e-11 0.00000000e+00 3.37408415e-13
9.94567731e+00 1.84796818e-11 3.05637771e-13 0.00000000e+00 1.81740440e-11 0.00000000e+00 3.05679292e-13
1.02785297e+01 1.79638761e-11 2.76899874e-13 0.00000000e+00 1.76869762e-11 0.00000000e+00 2.76933904e-13
1.06225216e+01 1.72255727e-11 2.50864076e-13 0.00000000e+00 1.69747086e-11 0.00000000e+00 2.50891667e-13
1.09780260e+01 1.64642220e-11 2.27276819e-13 0.00000000e+00 1.62369452e-11 0.00000000e+00 2.27298384e-13
1.13454280e+01 1.58949120e-11 2.05906837e-13 0.00000000e+00 1.56890051e-11 0.00000000e+00 2.05923759e-13
1.17251259e+01 1.52788072e-11 1.86545792e-13 0.00000000e+00 1.50922614e-11 0.00000000e+00 1.86559155e-13
1.21175312e+01 1.47403935e-11 1.69005055e-13 0.00000000e+00 1.45713884e-11 0.00000000e+00 1.69015555e-13
1.25230691e+01 1.41898927e-11 1.53113488e-13 0.00000000e+00 1.40367792e-11 0.00000000e+00 1.53121715e-13
1.29421791e+01 1.38027590e-11 1.38716005e-13 0.00000000e+00 1.36640430e-11 0.00000000e+00 1.38722496e-13
1.33753155e+01 1.32950706e-11 1.25672189e-13 0.00000000e+00 1.31693984e-11 0.00000000e+00 1.25677347e-13
1.38229477e+01 1.30640240e-11 1.13854646e-13 0.00000000e+00 1.29501693e-11 0.00000000e+00 1.13858934e-13
1.42855609e+01 1.29491083e-11 1.03148171e-13 0.00000000e+00 1.28459601e-11 0.00000000e+00 1.03151898e-13
1.47636563e+01 1.31946454e-11 9.34481899e-14 0.00000000e+00 1.31011972e-11 0.00000000e+00 9.34517274e-14
1.52577522e+01 1.34627231e-11 8.46603208e-14 0.00000000e+00 1.33780628e-11 0.00000000e+00 8.46637387e-14
1.57683840e+01 1.38007660e-11 7.66988077e-14 0.00000000e+00 1.37240672e-11 0.00000000e+00 7.67021526e-14
1.62961051e+01 1.40884089e-11 6.94859865e-14 0.00000000e+00 1.40189229e-11 0.00000000e+00 6.94892560e-14
1.68414875e+01 1.43954300e-11 6.29514553e-14 0.00000000e+00 1.43324786e-11 0.00000000e+00 6.29546439e-14
1.74051222e+01 1.45512229e-11 5.70315039e-14 0.00000000e+00 1.44941914e-11 0.00000000e+00 5.70345319e-14
1.79876201e+01 1.47130275e-11 5.16683065e-14 0.00000000e+00 1.46613592e-11 0.00000000e+00 5.16711337e-14
1.85896125e+01 1.45906230e-11 4.68095394e-14 0.00000000e+00 1.45438134e-11 0.00000000e+00 4.68120974e-14
1.92117518e+01 1.45236322e-11 4.24077470e-14 0.00000000e+00 1.44812244e-11 0.00000000e+00 4.24099939e-14
1.98547123e+01 1.43141827e-11 3.84199191e-14 0.00000000e+00 1.42757628e-11 0.00000000e+00 3.84218542e-14
2.05191907e+01 1.39776293e-11 3.48071004e-14 0.00000000e+00 1.39428222e-11 0.00000000e+00 3.48087501e-14
2.12059073e+01 1.36963270e-11 3.15340079e-14 0.00000000e+00 1.36647930e-11 0.00000000e+00 3.15354141e-14
2.19156062e+01 1.34144866e-11 2.85686907e-14 0.00000000e+00 1.33859179e-11 0.00000000e+00 2.85698952e-14
2.26490567e+01 1.30647980e-11 2.58822136e-14 0.00000000e+00 1.30389158e-11 0.00000000e+00 2.58832470e-14
2.34070535e+01 1.27190192e-11 2.34483569e-14 0.00000000e+00 1.26955708e-11 0.00000000e+00 2.34492452e-14
2.41904183e+01 1.22984950e-11 2.12433659e-14 0.00000000e+00 1.22772517e-11 0.00000000e+00 2.12441313e-14
2.50000000e+01 1.19588979e-11 1.92457204e-14 0.00000000e+00 1.19396522e-11 0.00000000e+00 1.92463813e-14
2.75422870e+01 1.06631877e-11 1.43931585e-14 0.00000000e+00 1.06487945e-11 0.00000000e+00 1.43935895e-14
3.16227766e+01 8.69732297e-12 9.50951345e-15 0.00000000e+00 8.68781345e-12 0.00000000e+00 9.50975027e-15
3.63078055e+01 6.66558397e-12 6.28290027e-15 0.00000000e+00 6.65930107e-12 0.00000000e+00 6.28302969e-15
4.16869383e+01 4.75579599e-12 4.15108769e-15 0.00000000e+00 4.75164491e-12 0.00000000e+00 4.15115655e-15
4.78630092e+01 3.17998438e-12 2.74260644e-15 0.00000000e+00 3.17724177e-12 0.00000000e+00 2.74264194e-15
5.49540874e+01 2.00125830e-12 1.81202765e-15 0.00000000e+00 1.99944627e-12 0.00000000e+00 1.81204556e-15
6.30957344e+01 1.20098347e-12 1.19719770e-15 0.00000000e+00 1.19978627e-12 0.00000000e+00 1.19720663e-15
7.24435960e+01 6.94248506e-13 7.90982162e-16 0.00000000e+00 6.93457524e-13 0.00000000e+00 7.90986575e-16
8.31763771e+01 3.90527392e-13 5.22597468e-16 0.00000000e+00 3.90004794e-13 0.00000000e+00 5.22599647e-16
9.54992586e+01 2.15419935e-13 3.45277084e-16 0.00000000e+00 2.15074658e-13 0.00000000e+00 3.45278163e-16
1.09647820e+02 1.17130645e-13 2.28122484e-16 0.00000000e+00 1.16902522e-13 0.00000000e+00 2.28123020e-16
1.25892541e+02 6.37540014e-14 1.50719115e-16 0.00000000e+00 6.36032823e-14 0.00000000e+00 1.50719385e-16
1.44543977e+02 3.45604365e-14 9.95791728e-17 0.00000000e+00 3.44608573e-14 0.00000000e+00 9.95793099e-17
1.65958691e+02 1.78809076e-14 6.57913304e-17 0.00000000e+00 1.78151163e-14 0.00000000e+00 6.57913976e-17
1.90546072e+02 9.27017289e-15 4.34679120e-17 0.00000000e+00 9.22670497e-15 0.00000000e+00 4.34679453e-17
2.18776162e+02 4.80473430e-15 2.87189701e-17 0.00000000e+00 4.77601533e-15 0.00000000e+00 2.87189867e-17
2.51188643e+02 2.48536867e-15 1.89744380e-17 0.00000000e+00 2.46639423e-15 0.00000000e+00 1.89744463e-17
2.88403150e+02 1.28144681e-15 1.25362882e-17 0.00000000e+00 1.26891053e-15 0.00000000e+00 1.25362924e-17
3.31131121e+02 6.59828728e-16 8.28264415e-18 0.00000000e+00 6.51546084e-16 0.00000000e+00 8.28264623e-18
3.80189396e+02 3.38993695e-16 5.47228906e-18 0.00000000e+00 3.33521406e-16 0.00000000e+00 5.47229010e-18
4.36515832e+02 1.74016048e-16 3.61550569e-18 0.00000000e+00 1.70400543e-16 0.00000000e+00 3.61550621e-18
5.01187234e+02 8.92543739e-17 2.38874100e-18 0.00000000e+00 8.68656329e-17 0.00000000e+00 2.38874127e-18
5.75439937e+02 4.57826495e-17 1.57822557e-18 0.00000000e+00 4.42044239e-17 0.00000000e+00 1.57822570e-18
6.60693448e+02 2.35028314e-17 1.04272332e-18 0.00000000e+00 2.24601080e-17 0.00000000e+00 1.04272338e-18
7.58577575e+02 1.20854917e-17 6.88920473e-19 0.00000000e+00 1.13965712e-17 0.00000000e+00 6.88920507e-19
8.70963590e+02 6.22981848e-18 4.55165248e-19 0.00000000e+00 5.77465323e-18 0.00000000e+00 4.55165265e-19
1.00000000e+03 2.92202923e-18 0.00000000e+00 0.00000000e+00 2.92202923e-18 0.00000000e+00 0.00000000e+00
