# column 1: lambda (micron)
# column 2: total flux; lambda*F_lambda (W/m2)
# column 3: direct stellar flux; lambda*F_lambda (W/m2)
# column 4: scattered stellar flux; lambda*F_lambda (W/m2)
# column 5: total dust emission flux; lambda*F_lambda (W/m2)
# column 6: dust emission scattered flux; lambda*F_lambda (W/m2)
# column 7: transparent flux; lambda*F_lambda (W/m2)
1.00000000e-03 1.07335865e-12 1.07335627e-12 2.37906307e-18 0.00000000e+00 0.00000000e+00 1.07335627e-12
1.14815362e-03 1.26690818e-12 1.26690456e-12 3.62668960e-18 0.00000000e+00 0.00000000e+00 1.26690456e-12
1.31825674e-03 1.49535897e-12 1.49535359e-12 5.38178280e-18 0.00000000e+00 0.00000000e+00 1.49535359e-12
1.51356125e-03 1.76500527e-12 1.76499670e-12 8.56873655e-18 0.00000000e+00 0.00000000e+00 1.76499670e-12
1.73780083e-03 2.08327699e-12 2.08326203e-12 1.49607157e-17 0.00000000e+00 0.00000000e+00 2.08326203e-12
1.99526231e-03 2.45894374e-12 2.45891716e-12 2.65792529e-17 0.00000000e+00 0.00000000e+00 2.45891716e-12
2.29086765e-03 2.90235202e-12 2.90231066e-12 4.13570624e-17 0.00000000e+00 0.00000000e+00 2.90231066e-12
2.63026799e-03 3.42573996e-12 3.42565717e-12 8.27947606e-17 0.00000000e+00 0.00000000e+00 3.42565717e-12
3.01995172e-03 4.04351225e-12 4.04337385e-12 1.38399355e-16 0.00000000e+00 0.00000000e+00 4.04337385e-12
3.46736850e-03 4.77270693e-12 4.77247759e-12 2.29339898e-16 0.00000000e+00 0.00000000e+00 4.77247759e-12
3.98107171e-03 5.63344420e-12 5.63305378e-12 3.90423349e-16 0.00000000e+00 0.00000000e+00 5.63305378e-12
4.57088190e-03 6.64963905e-12 6.64880962e-12 8.29429379e-16 0.00000000e+00 0.00000000e+00 6.64880962e-12
5.24807460e-03 7.85003506e-12 7.84772720e-12 2.30785847e-15 0.00000000e+00 0.00000000e+00 7.84772720e-12
6.02559586e-03 9.26559717e-12 9.26283435e-12 2.76281477e-15 0.00000000e+00 0.00000000e+00 9.26283435e-12
6.91830971e-03 1.09372930e-11 1.09331145e-11 4.17842557e-15 0.00000000e+00 0.00000000e+00 1.09331145e-11
7.94328235e-03 1.29156841e-11 1.29045807e-11 1.11034196e-14 0.00000000e+00 0.00000000e+00 1.29045807e-11
9.12010839e-03 1.52430145e-11 1.52315429e-11 1.14716146e-14 0.00000000e+00 0.00000000e+00 1.52315429e-11
1.04712855e-02 1.70285080e-11 1.70115517e-11 1.69562931e-14 0.00000000e+00 0.00000000e+00 1.70115517e-11
1.20226443e-02 1.70351957e-11 1.70115517e-11 2.36440284e-14 1.93011490e-311 7.35128284e-314 1.70115517e-11
1.38038426e-02 1.70661580e-11 1.70115517e-11 5.46063333e-14 3.37041860e-272 1.84261583e-274 1.70115517e-11
1.58489319e-02 1.70591547e-11 1.70115517e-11 4.76029766e-14 4.85177685e-238 4.31063478e-240 1.70115517e-11
1.81970086e-02 1.70833857e-11 1.70115517e-11 7.18339921e-14 2.58903944e-208 3.12420060e-210 1.70115517e-11
2.08929613e-02 1.71093033e-11 1.70115517e-11 9.77515462e-14 1.80303394e-182 2.83661959e-184 1.70115517e-11
2.39883292e-02 1.71460597e-11 1.70115517e-11 1.34508014e-13 5.62722217e-160 1.24645568e-161 1.70115517e-11
2.75422870e-02 1.71753792e-11 1.70115517e-11 1.63827471e-13 2.11390947e-140 6.01814674e-142 1.70115517e-11
3.16227766e-02 1.72175261e-11 1.70115517e-11 2.05974400e-13 2.21602405e-123 7.97347561e-125 1.70115517e-11
3.63078055e-02 1.72510509e-11 1.70115517e-11 2.39499170e-13 1.37502765e-108 5.61928256e-110 1.70115517e-11
4.16869383e-02 1.73437265e-11 1.70115517e-11 3.32174736e-13 9.91521728e-96 5.58566984e-97 1.70115517e-11
4.78630092e-02 1.74443783e-11 1.70115517e-11 4.32826601e-13 1.46308188e-84 1.08485495e-85 1.70115517e-11
5.49540874e-02 1.75346298e-11 1.70115517e-11 5.23078068e-13 7.27224440e-75 6.54960309e-76 1.70115517e-11
6.30957344e-02 1.76126607e-11 1.70115517e-11 6.01109014e-13 2.52220176e-66 2.66685833e-67 1.70115517e-11
7.24435960e-02 1.75705219e-11 1.70115517e-11 5.58970141e-13 6.45369611e-59 6.83337931e-60 1.70115517e-11
8.31763771e-02 1.75578635e-11 1.70115517e-11 5.46311745e-13 1.44042469e-52 1.65304281e-53 1.70115517e-11
9.54992586e-02 1.75728325e-11 1.70115517e-11 5.61280742e-13 5.45403521e-47 7.80815667e-48 1.70115517e-11
1.09647820e-01 1.68458542e-11 1.62459122e-11 5.99942081e-13 4.66683843e-42 8.64097736e-43 1.62459122e-11
1.25892541e-01 1.57048109e-11 1.51615674e-11 5.43243517e-13 1.11803061e-37 2.28162815e-38 1.51615674e-11
1.44543977e-01 1.46483579e-11 1.41495980e-11 4.98759962e-13 7.44825296e-34 1.51478415e-34 1.41495980e-11
1.65958691e-01 1.37226001e-11 1.32051732e-11 5.17426970e-13 1.21600795e-30 2.68230878e-31 1.32051732e-11
1.90546072e-01 1.28898893e-11 1.23237846e-11 5.66104697e-13 5.29591101e-28 1.35403158e-28 1.23237846e-11
2.18776162e-01 1.20408334e-11 1.15012250e-11 5.39608390e-13 8.56254268e-26 2.33747192e-26 1.15012250e-11
2.51188643e-01 1.13465423e-11 1.07335677e-11 6.12974577e-13 1.22315055e-23 3.84425494e-24 1.07335677e-11
2.88403150e-01 1.05842760e-11 1.00171482e-11 5.67127759e-13 8.70071104e-22 2.72991033e-22 1.00171482e-11
3.31131121e-01 9.86803605e-12 9.34854667e-12 5.19489346e-13 3.39688635e-20 1.09538951e-20 9.34854667e-12
3.80189396e-01 9.19792175e-12 8.72457139e-12 4.73349572e-13 7.86125617e-19 2.54265599e-19 8.72457139e-12
4.36515832e-01 8.57397961e-12 8.14224377e-12 4.31724109e-13 1.17291501e-17 3.88152641e-18 8.14224377e-12
5.01187234e-01 7.99615806e-12 7.59878402e-12 3.97255914e-13 1.18127603e-16 3.93203302e-17 7.59878402e-12
5.75439937e-01 7.45465554e-12 7.09159786e-12 3.62221965e-13 8.35710357e-16 2.79082578e-16 7.09159786e-12
6.60693448e-01 6.94969357e-12 6.61826421e-12 3.27025250e-13 4.40410895e-15 1.43415877e-15 6.61826421e-12
7.58577575e-01 6.48500159e-12 6.17652353e-12 2.90505934e-13 1.79721251e-14 5.70394434e-15 6.17652353e-12
8.70963590e-01 6.07876002e-12 5.76426715e-12 2.55343185e-13 5.91496806e-14 1.77604600e-14 5.76426715e-12
1.00000000e+00 5.75368386e-12 5.37952711e-12 2.13582428e-13 1.60574316e-13 4.37858680e-14 5.37952711e-12
1.14815362e+00 5.57009053e-12 5.02046681e-12 1.72325174e-13 3.77298545e-13 9.19480017e-14 5.02046681e-12
1.31825674e+00 5.61271102e-12 4.68537225e-12 1.36911440e-13 7.90427333e-13 1.66789716e-13 4.68537225e-12
1.51356125e+00 5.94387298e-12 4.37264380e-12 1.06610771e-13 1.46461841e-12 2.59495079e-13 4.37264380e-12
1.73780083e+00 6.57541510e-12 4.08078863e-12 8.15849143e-14 2.41304156e-12 3.50088496e-13 4.08078863e-12
1.99526231e+00 7.45909981e-12 3.80841354e-12 6.03111561e-14 3.59037512e-12 4.12318012e-13 3.80841354e-12
2.29086765e+00 8.43368989e-12 3.55421832e-12 4.37097451e-14 4.83576182e-12 4.29151254e-13 3.55421832e-12
2.63026799e+00 9.34116693e-12 3.31698953e-12 3.11921039e-14 5.99298530e-12 4.03220544e-13 3.31698953e-12
3.01995172e+00 1.00893181e-11 3.09559474e-12 2.21293576e-14 6.97159405e-12 3.47690685e-13 3.09559474e-12
3.46736850e+00 1.05504525e-11 2.88897711e-12 1.54358177e-14 7.64603958e-12 2.82432165e-13 2.88897711e-12
3.98107171e+00 1.07320391e-11 2.69615031e-12 1.08086236e-14 8.02508020e-12 2.17308661e-13 2.69615031e-12
4.57088190e+00 1.06277958e-11 2.51619387e-12 7.36220310e-15 8.10423968e-12 1.57030368e-13 2.51619387e-12
5.24807460e+00 1.01235888e-11 2.08050667e-12 4.22474680e-15 8.03885738e-12 1.06789117e-13 2.08050667e-12
6.02559586e+00 9.21474794e-12 1.37457712e-12 1.90228695e-15 7.83826853e-12 6.99524430e-14 1.37457712e-12
6.70000000e+00 8.61990397e-12 9.99872685e-13 9.84677492e-16 7.61904661e-12 4.84386902e-14 9.99872685e-13
6.92422916e+00 8.45399328e-12 9.05846924e-13 8.04415470e-16 7.54734194e-12 4.27290351e-14 9.05846924e-13
7.15596261e+00 8.32255913e-12 8.20663132e-13 6.32095807e-16 7.50126390e-12 3.74788070e-14 8.20663132e-13
7.39545150e+00 8.32603201e-12 7.43489831e-13 4.85191205e-16 7.58205698e-12 3.22142266e-14 7.43489831e-13
7.64295536e+00 8.61575307e-12 6.73573732e-13 3.35404555e-16 7.94184393e-12 2.61800010e-14 6.73573732e-13
7.89874245e+00 9.38780491e-12 6.10232385e-13 2.00499746e-16 8.77737202e-12 2.00146232e-14 6.10232385e-13
8.16308998e+00 1.04403014e-11 5.52847515e-13 1.12926626e-16 9.88734097e-12 1.50941340e-14 5.52847515e-13
8.43628443e+00 1.19065968e-11 5.00858987e-13 6.20556713e-17 1.14056758e-11 1.12075616e-14 5.00858987e-13
8.71862190e+00 1.29111781e-11 4.53759343e-13 3.92999337e-17 1.24573794e-11 8.79950355e-15 4.53759343e-13
9.01040836e+00 1.38672472e-11 4.11088843e-13 2.51912532e-17 1.34561332e-11 6.94835389e-15 4.11088843e-13
9.31196005e+00 1.46626084e-11 3.72430980e-13 0.00000000e+00 1.42901774e-11 0.00000000e+00 3.72430980e-13
9.62360379e+00 1.46848436e-11 3.37408415e-13 0.00000000e+00 1.43474352e-11 0.00000000e+00 3.37408415e-13
9.94567731e+00 1.40627377e-11 3.05679292e-13 0.00000000e+00 1.37570584e-11 0.00000000e+00 3.05679292e-13
1.02785297e+01 1.33231650e-11 2.76933904e-13 0.00000000e+00 1.30462311e-11 0.00000000e+00 2.76933904e-13
1.06225216e+01 1.25017132e-11 2.50891667e-13 0.00000000e+00 1.22508215e-11 0.00000000e+00 2.50891667e-13
1.09780260e+01 1.16709061e-11 2.27298384e-13 0.00000000e+00 1.14436077e-11 0.00000000e+00 2.27298384e-13
1.13454280e+01 1.10213117e-11 2.05923759e-13 0.00000000e+00 1.08153880e-11 0.00000000e+00 2.05923759e-13
1.17251259e+01 1.03423940e-11 1.86559155e-13 0.00000000e+00 1.01558348e-11 0.00000000e+00 1.86559155e-13
1.21175312e+01 9.86437125e-12 1.69015555e-13 0.00000000e+00 9.69535569e-12 0.00000000e+00 1.69015555e-13
1.25230691e+01 9.38401130e-12 1.53121715e-13 0.00000000e+00 9.23088959e-12 0.00000000e+00 1.53121715e-13
1.29421791e+01 9.05338013e-12 1.38722496e-13 0.00000000e+00 8.91465763e-12 0.00000000e+00 1.38722496e-13
1.33753155e+01 8.74695503e-12 1.25677347e-13 0.00000000e+00 8.62127768e-12 0.00000000e+00 1.25677347e-13
1.38229477e+01 8.63213888e-12 1.13858934e-13 0.00000000e+00 8.51827994e-12 0.00000000e+00 1.13858934e-13
1.42855609e+01 8.62549834e-12 1.03151898e-13 0.00000000e+00 8.52234645e-12 0.00000000e+00 1.03151898e-13
1.47636563e+01 8.85702344e-12 9.34517274e-14 0.00000000e+00 8.76357171e-12 0.00000000e+00 9.34517274e-14
1.52577522e+01 9.16576245e-12 8.46637387e-14 0.00000000e+00 9.08109871e-12 0.00000000e+00 8.46637387e-14
1.57683840e+01 9.52844282e-12 7.67021526e-14 0.00000000e+00 9.45174067e-12 0.00000000e+00 7.67021526e-14
1.62961051e+01 9.87599553e-12 6.94892560e-14 0.00000000e+00 9.80650628e-12 0.00000000e+00 6.94892560e-14
1.68414875e+01 1.02355567e-11 6.29546439e-14 0.00000000e+00 1.01726020e-11 0.00000000e+00 6.29546439e-14
1.74051222e+01 1.05319746e-11 5.70345319e-14 0.00000000e+00 1.04749401e-11 0.00000000e+00 5.70345319e-14
1.79876201e+01 1.07551300e-11 5.16711337e-14 0.00000000e+00 1.07034588e-11 0.00000000e+00 5.16711337e-14
1.85896125e+01 1.08882146e-11 4.68120974e-14 0.00000000e+00 1.08414025e-11 0.00000000e+00 4.68120974e-14
1.92117518e+01 1.09524798e-11 4.24099939e-14 0.00000000e+00 1.09100698e-11 0.00000000e+00 4.24099939e-14
1.98547123e+01 1.09684534e-11 3.84218542e-14 0.00000000e+00 1.09300315e-11 0.00000000e+00 3.84218542e-14
2.05191907e+01 1.09160182e-11 3.48087501e-14 0.00000000e+00 1.08812095e-11 0.00000000e+00 3.48087501e-14
2.12059073e+01 1.09411313e-11 3.15354141e-14 0.00000000e+00 1.09095959e-11 0.00000000e+00 3.15354141e-14
2.19156062e+01 1.08777122e-11 2.85698952e-14 0.00000000e+00 1.08491423e-11 0.00000000e+00 2.85698952e-14
2.26490567e+01 1.08230601e-11 2.58832470e-14 0.00000000e+00 1.07971769e-11 0.00000000e+00 2.58832470e-14
2.34070535e+01 1.07682275e-11 2.34492452e-14 0.00000000e+00 1.07447783e-11 0.00000000e+00 2.34492452e-14
2.41904183e+01 1.07031892e-11 2.12441313e-14 0.00000000e+00 1.06819451e-11 0.00000000e+00 2.12441313e-14
2.50000000e+01 1.05151855e-11 1.92463813e-14 0.00000000e+00 1.04959392e-11 0.00000000e+00 1.92463813e-14
2.75422870e+01 1.01053586e-11 1.43935895e-14 0.00000000e+00 1.00909650e-11 0.00000000e+00 1.43935895e-14
3.16227766e+01 9.08514876e-12 9.50975027e-15 0.00000000e+00 9.07563901e-12 0.00000000e+00 9.50975027e-15
3.63078055e+01 7.62563143e-12 6.28302969e-15 0.00000000e+00 7.61934840e-12 0.00000000e+00 6.28302969e-15
4.16869383e+01 5.96780873e-12 4.15115655e-15 0.00000000e+00 5.96365758e-12 0.00000000e+00 4.15115655e-15
4.78630092e+01 4.32445119e-12 2.74264194e-15 0.00000000e+00 4.32170855e-12 0.00000000e+00 2.74264194e-15
5.49540874e+01 2.95260911e-12 1.81204556e-15 0.00000000e+00 2.95079707e-12 0.00000000e+00 1.81204556e-15
6.30957344e+01 1.89995004e-12 1.19720663e-15 0.00000000e+00 1.89875284e-12 0.00000000e+00 1.19720663e-15
7.24435960e+01 1.16727668e-12 7.90986575e-16 0.00000000e+00 1.16648570e-12 0.00000000e+00 7.90986575e-16
8.31763771e+01 6.90690691e-13 5.22599647e-16 0.00000000e+00 6.90168091e-13 0.00000000e+00 5.22599647e-16
9.54992586e+01 3.97565558e-13 3.45278163e-16 0.00000000e+00 3.97220280e-13 0.00000000e+00 3.45278163e-16
1.09647820e+02 2.24288641e-13 2.28123020e-16 0.00000000e+00 2.24060518e-13 0.00000000e+00 2.28123020e-16
1.25892541e+02 1.25760532e-13 1.50719385e-16 0.00000000e+00 1.25609812e-13 0.00000000e+00 1.50719385e-16
1.44543977e+02 6.98049349e-14 9.95793099e-17 0.00000000e+00 6.97053556e-14 0.00000000e+00 9.95793099e-17
1.65958691e+02 3.68943554e-14 6.57913976e-17 0.00000000e+00 3.68285640e-14 0.00000000e+00 6.57913976e-17
1.90546072e+02 1.94669584e-14 4.34679453e-17 0.00000000e+00 1.94234904e-14 0.00000000e+00 4.34679453e-17
2.18776162e+02 1.02357371e-14 2.87189867e-17 0.00000000e+00 1.02070181e-14 0.00000000e+00 2.87189867e-17
2.51188643e+02 5.35681822e-15 1.89744463e-17 0.00000000e+00 5.33784378e-15 0.00000000e+00 1.89744463e-17
2.88403150e+02 2.78795282e-15 1.25362924e-17 0.00000000e+00 2.77541652e-15 0.00000000e+00 1.25362924e-17
3.31131121e+02 1.44628597e-15 8.28264623e-18 0.00000000e+00 1.43800332e-15 0.00000000e+00 8.28264623e-18
3.80189396e+02 7.47126154e-16 5.47229010e-18 0.00000000e+00 7.41653864e-16 0.00000000e+00 5.47229010e-18
4.36515832e+02 3.84996055e-16 3.61550621e-18 0.00000000e+00 3.81380549e-16 0.00000000e+00 3.61550621e-18
5.01187234e+02 1.97881942e-16 2.38874127e-18 0.00000000e+00 1.95493201e-16 0.00000000e+00 2.38874127e-18
5.75439937e+02 1.01527330e-16 1.57822570e-18 0.00000000e+00 9.99491048e-17 0.00000000e+00 1.57822570e-18
6.60693448e+02 5.20297242e-17 1.04272338e-18 0.00000000e+00 5.09870008e-17 0.00000000e+00 1.04272338e-18
7.58577575e+02 2.66491687e-17 6.88920507e-19 0.00000000e+00 2.59602482e-17 0.00000000e+00 6.88920507e-19
8.70963590e+02 1.36478085e-17 4.55165265e-19 0.00000000e+00 1.31926433e-17 0.00000000e+00 4.55165265e-19
1.00000000e+03 6.69246480e-18 0.00000000e+00 0.00000000e+00 6.69246480e-18 0.00000000e+00 0.00000000e+00
