# column 1: lambda (micron)
# column 2: total flux; lambda*F_lambda (W/m2)
# column 3: direct stellar flux; lambda*F_lambda (W/m2)
# column 4: scattered stellar flux; lambda*F_lambda (W/m2)
# column 5: total dust emission flux; lambda*F_lambda (W/m2)
# column 6: dust emission scattered flux; lambda*F_lambda (W/m2)
# column 7: transparent flux; lambda*F_lambda (W/m2)
1.00000000e-03 1.07335760e-12 1.07335627e-12 1.32743314e-18 0.00000000e+00 0.00000000e+00 1.07335627e-12
1.14815362e-03 1.26690659e-12 1.26690456e-12 2.03040842e-18 0.00000000e+00 0.00000000e+00 1.26690456e-12
1.31825674e-03 1.49535666e-12 1.49535359e-12 3.07332176e-18 0.00000000e+00 0.00000000e+00 1.49535359e-12
1.51356125e-03 1.76500153e-12 1.76499670e-12 4.82702298e-18 0.00000000e+00 0.00000000e+00 1.76499670e-12
1.73780083e-03 2.08327058e-12 2.08326203e-12 8.55729794e-18 0.00000000e+00 0.00000000e+00 2.08326203e-12
1.99526231e-03 2.45893195e-12 2.45891716e-12 1.47911230e-17 0.00000000e+00 0.00000000e+00 2.45891716e-12
2.29086765e-03 2.90233392e-12 2.90231066e-12 2.32563755e-17 0.00000000e+00 0.00000000e+00 2.90231066e-12
2.63026799e-03 3.42570442e-12 3.42565717e-12 4.72520129e-17 0.00000000e+00 0.00000000e+00 3.42565717e-12
3.01995172e-03 4.04345104e-12 4.04337385e-12 7.71965533e-17 0.00000000e+00 0.00000000e+00 4.04337385e-12
3.46736850e-03 4.77260554e-12 4.77247759e-12 1.27950374e-16 0.00000000e+00 0.00000000e+00 4.77247759e-12
3.98107171e-03 5.63325451e-12 5.63305378e-12 2.00728691e-16 0.00000000e+00 0.00000000e+00 5.63305378e-12
4.57088190e-03 6.64927248e-12 6.64880962e-12 4.62862029e-16 0.00000000e+00 0.00000000e+00 6.64880962e-12
5.24807460e-03 7.84855521e-12 7.84772720e-12 8.28009379e-16 0.00000000e+00 0.00000000e+00 7.84772720e-12
6.02559586e-03 9.26430910e-12 9.26283435e-12 1.47474850e-15 0.00000000e+00 0.00000000e+00 9.26283435e-12
6.91830971e-03 1.09353762e-11 1.09331145e-11 2.26171513e-15 0.00000000e+00 0.00000000e+00 1.09331145e-11
7.94328235e-03 1.29084689e-11 1.29045807e-11 3.88824860e-15 1.89219857e-303 4.09694127e-306 1.29045807e-11
9.12010839e-03 1.52376310e-11 1.52315429e-11 6.08808786e-15 8.13480910e-265 3.96222803e-267 1.52315429e-11
1.04712855e-02 1.70200054e-11 1.70115517e-11 8.45372683e-15 3.36477734e-231 9.30637302e-234 1.70115517e-11
1.20226443e-02 1.70254474e-11 1.70115517e-11 1.38957129e-14 5.19810569e-202 3.27847804e-204 1.70115517e-11
1.38038426e-02 1.70295446e-11 1.70115517e-11 1.79928768e-14 1.39408609e-176 8.13063048e-179 1.70115517e-11
1.58489319e-02 1.70396925e-11 1.70115517e-11 2.81407706e-14 1.87054970e-154 2.09986655e-156 1.70115517e-11
1.81970086e-02 1.70491779e-11 1.70115517e-11 3.76261552e-14 3.29548135e-135 3.57375022e-137 1.70115517e-11
2.08929613e-02 1.70632403e-11 1.70115517e-11 5.16885777e-14 1.70709662e-118 2.30061194e-120 1.70115517e-11
2.39883292e-02 1.70884425e-11 1.70115517e-11 7.68907825e-14 5.95756531e-104 1.08257862e-105 1.70115517e-11
2.75422870e-02 1.71039578e-11 1.70115517e-11 9.24060562e-14 2.65588685e-91 6.22661632e-93 1.70115517e-11
3.16227766e-02 1.71228687e-11 1.70115517e-11 1.11316969e-13 2.58199198e-80 7.49898265e-82 1.70115517e-11
3.63078055e-02 1.71427636e-11 1.70115517e-11 1.31211858e-13 8.92403699e-71 2.95303300e-72 1.70115517e-11
4.16869383e-02 1.71969339e-11 1.70115517e-11 1.85382168e-13 1.70095574e-62 7.58882204e-64 1.70115517e-11
4.78630092e-02 1.72573923e-11 1.70115517e-11 2.45840556e-13 2.58444864e-55 1.53696705e-56 1.70115517e-11
5.49540874e-02 1.73197481e-11 1.70115517e-11 3.08196339e-13 4.32280522e-49 3.18931180e-50 1.70115517e-11
6.30957344e-02 1.73719149e-11 1.70115517e-11 3.60363159e-13 1.40305413e-43 1.20132485e-44 1.70115517e-11
7.24435960e-02 1.73554587e-11 1.70115517e-11 3.43906991e-13 8.10592797e-39 6.78455587e-40 1.70115517e-11
8.31763771e-02 1.73529089e-11 1.70115517e-11 3.41357154e-13 8.27442350e-35 6.86026728e-36 1.70115517e-11
9.54992586e-02 1.73648710e-11 1.70115517e-11 3.53319286e-13 2.32697548e-31 1.98119676e-32 1.70115517e-11
1.09647820e-01 1.66177247e-11 1.62459122e-11 3.71812561e-13 1.97586836e-28 1.81830064e-29 1.62459122e-11
1.25892541e-01 1.54953253e-11 1.51615674e-11 3.33757932e-13 6.36375414e-26 5.61583522e-27 1.51615674e-11
1.44543977e-01 1.44506648e-11 1.41495980e-11 3.01066869e-13 8.62027163e-24 7.27492739e-25 1.41495980e-11
1.65958691e-01 1.35229404e-11 1.32051732e-11 3.17767257e-13 4.37532309e-22 4.07690259e-23 1.32051732e-11
1.90546072e-01 1.26778359e-11 1.23237846e-11 3.54051204e-13 9.27580237e-21 1.01890925e-21 1.23237846e-11
2.18776162e-01 1.18512910e-11 1.15012250e-11 3.50065824e-13 1.10181308e-19 1.27867452e-20 1.15012250e-11
2.51188643e-01 1.11361566e-11 1.07335677e-11 4.02587486e-13 1.34670459e-18 1.87167315e-19 1.07335677e-11
2.88403150e-01 1.03876305e-11 1.00171482e-11 3.70471086e-13 1.11768894e-17 1.52875166e-18 1.00171482e-11
3.31131121e-01 9.69216064e-12 9.34854667e-12 3.43550107e-13 6.38605470e-17 8.49883320e-18 9.34854667e-12
3.80189396e-01 9.03127168e-12 8.72457139e-12 3.06434880e-13 2.65415777e-16 3.42162181e-17 8.72457139e-12
4.36515832e-01 8.42898038e-12 8.14224377e-12 2.85891034e-13 8.45573880e-16 1.09348255e-16 8.14224377e-12
5.01187234e-01 7.86907422e-12 7.59878402e-12 2.68109970e-13 2.18023252e-15 2.95525395e-16 7.59878402e-12
5.75439937e-01 7.33967224e-12 7.09159786e-12 2.43104727e-13 4.96965325e-15 7.52136397e-16 7.09159786e-12
6.60693448e-01 6.85607411e-12 6.61826421e-12 2.26609109e-13 1.12007937e-14 2.04885716e-15 6.61826421e-12
7.58577575e-01 6.41085161e-12 6.17652353e-12 2.07218641e-13 2.71094344e-14 5.92931250e-15 6.17652353e-12
8.70963590e-01 6.01196126e-12 5.76426715e-12 1.79787849e-13 6.79062582e-14 1.59530654e-14 5.76426715e-12
1.00000000e+00 5.69682533e-12 5.37952711e-12 1.56659232e-13 1.60638986e-13 3.70963205e-14 5.37952711e-12
1.14815362e+00 5.50583510e-12 5.02046681e-12 1.31254241e-13 3.54114044e-13 7.73286202e-14 5.02046681e-12
1.31825674e+00 5.49795461e-12 4.68537225e-12 1.04128996e-13 7.08453367e-13 1.36746213e-13 4.68537225e-12
1.51356125e+00 5.73280837e-12 4.37264380e-12 8.21481340e-14 1.27801644e-12 2.14452033e-13 4.37264380e-12
1.73780083e+00 6.20300474e-12 4.08078863e-12 6.24584602e-14 2.05975765e-12 2.92938567e-13 4.08078863e-12
1.99526231e+00 6.84061933e-12 3.80841354e-12 4.74775736e-14 2.98472822e-12 3.43824045e-13 3.80841354e-12
2.29086765e+00 7.50973790e-12 3.55421832e-12 3.49072695e-14 3.92061232e-12 3.58373931e-13 3.55421832e-12
2.63026799e+00 8.12180876e-12 3.31698953e-12 2.47405081e-14 4.78007872e-12 3.35013817e-13 3.31698953e-12
3.01995172e+00 8.51713396e-12 3.09559474e-12 1.75543061e-14 5.40398491e-12 2.85981449e-13 3.09559474e-12
3.46736850e+00 8.69896805e-12 2.88897711e-12 1.20605424e-14 5.79793040e-12 2.27486565e-13 2.88897711e-12
3.98107171e+00 8.63527135e-12 2.69615031e-12 8.13718103e-15 5.93098386e-12 1.67103563e-13 2.69615031e-12
4.57088190e+00 8.36583169e-12 2.51619387e-12 5.37769129e-15 5.84426013e-12 1.14658511e-13 2.51619387e-12
5.24807460e+00 7.70972616e-12 2.08050667e-12 2.96097784e-15 5.62625851e-12 7.38120193e-14 2.08050667e-12
6.02559586e+00 6.69858615e-12 1.37457712e-12 1.28913476e-15 5.32271989e-12 4.51371076e-14 1.37457712e-12
6.70000000e+00 6.06474257e-12 9.99872685e-13 6.53499913e-16 5.06421639e-12 2.96477990e-14 9.99872685e-13
6.92422916e+00 5.88194542e-12 9.05846924e-13 5.19201112e-16 4.97557929e-12 2.57628708e-14 9.05846924e-13
7.15596261e+00 5.74205061e-12 8.20663132e-13 4.12406437e-16 4.92097507e-12 2.22198714e-14 8.20663132e-13
7.39545150e+00 5.71018874e-12 7.43489831e-13 3.19350762e-16 4.96637956e-12 1.90449444e-14 7.43489831e-13
7.64295536e+00 5.91254442e-12 6.73573732e-13 2.21115589e-16 5.23874957e-12 1.60987818e-14 6.73573732e-13
7.89874245e+00 6.49259084e-12 6.10232385e-13 1.39953340e-16 5.88221850e-12 1.30722867e-14 6.10232385e-13
8.16308998e+00 7.30711704e-12 5.52847515e-13 8.46798191e-17 6.75418484e-12 1.04203838e-14 5.52847515e-13
8.43628443e+00 8.34325739e-12 5.00858987e-13 4.68641786e-17 7.84235154e-12 8.01081003e-15 5.00858987e-13
8.71862190e+00 9.02923733e-12 4.53759343e-13 2.97479521e-17 8.57544824e-12 6.37149395e-15 4.53759343e-13
9.01040836e+00 9.67434009e-12 4.11088843e-13 1.82483495e-17 9.26323300e-12 4.82543879e-15 4.11088843e-13
9.31196005e+00 1.01107078e-11 3.72430980e-13 0.00000000e+00 9.73827683e-12 0.00000000e+00 3.72430980e-13
9.62360379e+00 1.00215820e-11 3.37408415e-13 0.00000000e+00 9.68417356e-12 0.00000000e+00 3.37408415e-13
9.94567731e+00 9.61327438e-12 3.05679292e-13 0.00000000e+00 9.30759509e-12 0.00000000e+00 3.05679292e-13
1.02785297e+01 8.99132937e-12 2.76933904e-13 0.00000000e+00 8.71439547e-12 0.00000000e+00 2.76933904e-13
1.06225216e+01 8.38592455e-12 2.50891667e-13 0.00000000e+00 8.13503289e-12 0.00000000e+00 2.50891667e-13
1.09780260e+01 7.75006539e-12 2.27298384e-13 0.00000000e+00 7.52276700e-12 0.00000000e+00 2.27298384e-13
1.13454280e+01 7.21735210e-12 2.05923759e-13 0.00000000e+00 7.01142834e-12 0.00000000e+00 2.05923759e-13
1.17251259e+01 6.69711586e-12 1.86559155e-13 0.00000000e+00 6.51055671e-12 0.00000000e+00 1.86559155e-13
1.21175312e+01 6.26549506e-12 1.69015555e-13 0.00000000e+00 6.09647950e-12 0.00000000e+00 1.69015555e-13
1.25230691e+01 5.83381170e-12 1.53121715e-13 0.00000000e+00 5.68068998e-12 0.00000000e+00 1.53121715e-13
1.29421791e+01 5.46095780e-12 1.38722496e-13 0.00000000e+00 5.32223530e-12 0.00000000e+00 1.38722496e-13
1.33753155e+01 5.13362571e-12 1.25677347e-13 0.00000000e+00 5.00794837e-12 0.00000000e+00 1.25677347e-13
1.38229477e+01 4.93099714e-12 1.13858934e-13 0.00000000e+00 4.81713821e-12 0.00000000e+00 1.13858934e-13
1.42855609e+01 4.81825429e-12 1.03151898e-13 0.00000000e+00 4.71510239e-12 0.00000000e+00 1.03151898e-13
1.47636563e+01 4.90617182e-12 9.34517274e-14 0.00000000e+00 4.81272009e-12 0.00000000e+00 9.34517274e-14
1.52577522e+01 5.04157341e-12 8.46637387e-14 0.00000000e+00 4.95690967e-12 0.00000000e+00 8.46637387e-14
1.57683840e+01 5.23289822e-12 7.67021526e-14 0.00000000e+00 5.15619606e-12 0.00000000e+00 7.67021526e-14
1.62961051e+01 5.40680584e-12 6.94892560e-14 0.00000000e+00 5.33731659e-12 0.00000000e+00 6.94892560e-14
1.68414875e+01 5.56471595e-12 6.29546439e-14 0.00000000e+00 5.50176131e-12 0.00000000e+00 6.29546439e-14
1.74051222e+01 5.67119328e-12 5.70345319e-14 0.00000000e+00 5.61415875e-12 0.00000000e+00 5.70345319e-14
1.79876201e+01 5.75635555e-12 5.16711337e-14 0.00000000e+00 5.70468441e-12 0.00000000e+00 5.16711337e-14
1.85896125e+01 5.76845612e-12 4.68120974e-14 0.00000000e+00 5.72164402e-12 0.00000000e+00 4.68120974e-14
1.92117518e+01 5.66729299e-12 4.24099939e-14 0.00000000e+00 5.62488300e-12 0.00000000e+00 4.24099939e-14
1.98547123e+01 5.55859344e-12 3.84218542e-14 0.00000000e+00 5.52017159e-12 0.00000000e+00 3.84218542e-14
2.05191907e+01 5.41457456e-12 3.48087501e-14 0.00000000e+00 5.37976581e-12 0.00000000e+00 3.48087501e-14
2.12059073e+01 5.26351568e-12 3.15354141e-14 0.00000000e+00 5.23198026e-12 0.00000000e+00 3.15354141e-14
2.19156062e+01 5.13114141e-12 2.85698952e-14 0.00000000e+00 5.10257151e-12 0.00000000e+00 2.85698952e-14
2.26490567e+01 4.98962207e-12 2.58832470e-14 0.00000000e+00 4.96373882e-12 0.00000000e+00 2.58832470e-14
2.34070535e+01 4.85538450e-12 2.34492452e-14 0.00000000e+00 4.83193526e-12 0.00000000e+00 2.34492452e-14
2.41904183e+01 4.70577494e-12 2.12441313e-14 0.00000000e+00 4.68453081e-12 0.00000000e+00 2.12441313e-14
2.50000000e+01 4.56495466e-12 1.92463813e-14 0.00000000e+00 4.54570828e-12 0.00000000e+00 1.92463813e-14
2.75422870e+01 4.10912270e-12 1.43935895e-14 0.00000000e+00 4.09472911e-12 0.00000000e+00 1.43935895e-14
3.16227766e+01 3.40971263e-12 9.50975027e-15 0.00000000e+00 3.40020288e-12 0.00000000e+00 9.50975027e-15
3.63078055e+01 2.65278118e-12 6.28302969e-15 0.00000000e+00 2.64649815e-12 0.00000000e+00 6.28302969e-15
4.16869383e+01 1.92536213e-12 4.15115655e-15 0.00000000e+00 1.92121098e-12 0.00000000e+00 4.15115655e-15
4.78630092e+01 1.30042538e-12 2.74264194e-15 0.00000000e+00 1.29768273e-12 0.00000000e+00 2.74264194e-15
5.49540874e+01 8.27656224e-13 1.81204556e-15 0.00000000e+00 8.25844179e-13 0.00000000e+00 1.81204556e-15
6.30957344e+01 5.02791774e-13 1.19720663e-15 0.00000000e+00 5.01594567e-13 0.00000000e+00 1.19720663e-15
7.24435960e+01 2.94056444e-13 7.90986575e-16 0.00000000e+00 2.93265458e-13 0.00000000e+00 7.90986575e-16
8.31763771e+01 1.67223015e-13 5.22599647e-16 0.00000000e+00 1.66700415e-13 0.00000000e+00 5.22599647e-16
9.54992586e+01 9.33115318e-14 3.45278163e-16 0.00000000e+00 9.29662537e-14 0.00000000e+00 3.45278163e-16
1.09647820e+02 5.12993117e-14 2.28123020e-16 0.00000000e+00 5.10711887e-14 0.00000000e+00 2.28123020e-16
1.25892541e+02 2.82128602e-14 1.50719385e-16 0.00000000e+00 2.80621408e-14 0.00000000e+00 1.50719385e-16
1.44543977e+02 1.54394418e-14 9.95793099e-17 0.00000000e+00 1.53398625e-14 0.00000000e+00 9.95793099e-17
1.65958691e+02 8.05557192e-15 6.57913976e-17 0.00000000e+00 7.98978052e-15 0.00000000e+00 6.57913976e-17
1.90546072e+02 4.21112831e-15 4.34679453e-17 0.00000000e+00 4.16766036e-15 0.00000000e+00 4.34679453e-17
2.18776162e+02 2.19969249e-15 2.87189867e-17 0.00000000e+00 2.17097351e-15 0.00000000e+00 2.87189867e-17
2.51188643e+02 1.14627646e-15 1.89744463e-17 0.00000000e+00 1.12730202e-15 0.00000000e+00 1.89744463e-17
2.88403150e+02 5.95380068e-16 1.25362924e-17 0.00000000e+00 5.82843776e-16 0.00000000e+00 1.25362924e-17
3.31131121e+02 3.08859025e-16 8.28264623e-18 0.00000000e+00 3.00576378e-16 0.00000000e+00 8.28264623e-18
3.80189396e+02 1.59910152e-16 5.47229010e-18 0.00000000e+00 1.54437862e-16 0.00000000e+00 5.47229010e-18
4.36515832e+02 8.27827247e-17 3.61550621e-18 0.00000000e+00 7.91672185e-17 0.00000000e+00 3.61550621e-18
5.01187234e+02 4.28640133e-17 2.38874127e-18 0.00000000e+00 4.04752720e-17 0.00000000e+00 2.38874127e-18
5.75439937e+02 2.22276360e-17 1.57822570e-18 0.00000000e+00 2.06494103e-17 0.00000000e+00 1.57822570e-18
6.60693448e+02 1.15579562e-17 1.04272338e-18 0.00000000e+00 1.05152328e-17 0.00000000e+00 1.04272338e-18
7.58577575e+02 6.03489826e-18 6.88920507e-19 0.00000000e+00 5.34597775e-18 0.00000000e+00 6.88920507e-19
8.70963590e+02 3.16853891e-18 4.55165265e-19 0.00000000e+00 2.71337364e-18 0.00000000e+00 4.55165265e-19
1.00000000e+03 1.37502690e-18 0.00000000e+00 0.00000000e+00 1.37502690e-18 0.00000000e+00 0.00000000e+00
