# column 1: lambda (micron)
# column 2: total flux; lambda*F_lambda (W/m2)
# column 3: direct stellar flux; lambda*F_lambda (W/m2)
# column 4: scattered stellar flux; lambda*F_lambda (W/m2)
# column 5: total dust emission flux; lambda*F_lambda (W/m2)
# column 6: dust emission scattered flux; lambda*F_lambda (W/m2)
# column 7: transparent flux; lambda*F_lambda (W/m2)
1.00000000e-03 6.93994108e-13 6.93993746e-13 3.61907241e-19 0.00000000e+00 0.00000000e+00 6.93993746e-13
1.14815362e-03 8.19135690e-13 8.19135139e-13 5.50955240e-19 0.00000000e+00 0.00000000e+00 8.19135139e-13
1.31825674e-03 9.66843020e-13 9.66842108e-13 9.11862734e-19 0.00000000e+00 0.00000000e+00 9.66842108e-13
1.51356125e-03 1.14118509e-12 1.14118369e-12 1.39661002e-18 0.00000000e+00 0.00000000e+00 1.14118369e-12
1.73780083e-03 1.34696527e-12 1.34696266e-12 2.61376243e-18 0.00000000e+00 0.00000000e+00 1.34696266e-12
1.99526231e-03 1.58985263e-12 1.58984782e-12 4.80798211e-18 0.00000000e+00 0.00000000e+00 1.58984782e-12
2.29086765e-03 1.87653738e-12 1.87653019e-12 7.19106311e-18 0.00000000e+00 0.00000000e+00 1.87653019e-12
2.63026799e-03 2.21492173e-12 2.21490731e-12 1.44164723e-17 0.00000000e+00 0.00000000e+00 2.21490731e-12
3.01995172e-03 2.61432624e-12 2.61430080e-12 2.54367584e-17 0.00000000e+00 0.00000000e+00 2.61430080e-12
3.46736850e-03 3.08575672e-12 3.08571319e-12 4.35329923e-17 0.00000000e+00 0.00000000e+00 3.08571319e-12
3.98107171e-03 3.64219959e-12 3.64213095e-12 6.86397871e-17 0.00000000e+00 0.00000000e+00 3.64213095e-12
4.57088190e-03 4.29902273e-12 4.29888232e-12 1.40410396e-16 0.00000000e+00 0.00000000e+00 4.29888232e-12
5.24807460e-03 5.07432699e-12 5.07405951e-12 2.67481848e-16 0.00000000e+00 0.00000000e+00 5.07405951e-12
6.02559586e-03 5.98949418e-12 5.98901715e-12 4.77033543e-16 0.00000000e+00 0.00000000e+00 5.98901715e-12
6.91830971e-03 7.06978190e-12 7.06896053e-12 8.21370242e-16 0.00000000e+00 0.00000000e+00 7.06896053e-12
7.94328235e-03 8.34500456e-12 8.34363998e-12 1.36458244e-15 0.00000000e+00 0.00000000e+00 8.34363998e-12
9.12010839e-03 9.85029012e-12 9.84817045e-12 2.11967543e-15 0.00000000e+00 0.00000000e+00 9.84817045e-12
1.04712855e-02 1.10020855e-11 1.09990604e-11 3.02505538e-15 0.00000000e+00 0.00000000e+00 1.09990604e-11
1.20226443e-02 1.10037801e-11 1.09990604e-11 4.71967950e-15 2.91346496e-312 1.30695934e-313 1.09990604e-11
1.38038426e-02 1.10051994e-11 1.09990604e-11 6.13894958e-15 6.02277815e-273 3.77544246e-274 1.09990604e-11
1.58489319e-02 1.10076127e-11 1.09990604e-11 8.55229225e-15 9.80197457e-239 6.01925741e-240 1.09990604e-11
1.81970086e-02 1.10120154e-11 1.09990604e-11 1.29549735e-14 5.81749943e-209 3.61102091e-210 1.09990604e-11
2.08929613e-02 1.10163418e-11 1.09990604e-11 1.72814012e-14 4.47160454e-183 3.14241591e-184 1.09990604e-11
2.39883292e-02 1.10228426e-11 1.09990604e-11 2.37821349e-14 1.50036622e-160 1.06900434e-161 1.09990604e-11
2.75422870e-02 1.10299790e-11 1.09990604e-11 3.09185172e-14 6.01532250e-141 4.66395027e-142 1.09990604e-11
3.16227766e-02 1.10381257e-11 1.09990604e-11 3.90652569e-14 6.65090281e-124 5.53784755e-125 1.09990604e-11
3.63078055e-02 1.10431464e-11 1.09990604e-11 4.40859829e-14 4.31549699e-109 3.66582630e-110 1.09990604e-11
4.16869383e-02 1.10621829e-11 1.09990604e-11 6.31224493e-14 3.23813453e-96 3.17576308e-97 1.09990604e-11
4.78630092e-02 1.10785495e-11 1.09990604e-11 7.94890423e-14 4.86693557e-85 5.28905588e-86 1.09990604e-11
5.49540874e-02 1.11001007e-11 1.09990604e-11 1.01040274e-13 2.45235350e-75 2.93406673e-76 1.09990604e-11
6.30957344e-02 1.11201877e-11 1.09990604e-11 1.21127213e-13 8.53620933e-67 1.15958587e-67 1.09990604e-11
7.24435960e-02 1.11200641e-11 1.09990604e-11 1.21003659e-13 2.33374467e-59 3.23268036e-60 1.09990604e-11
8.31763771e-02 1.11141992e-11 1.09990604e-11 1.15138794e-13 6.80182537e-53 9.45606860e-54 1.09990604e-11
9.54992586e-02 1.11185642e-11 1.09990604e-11 1.19503782e-13 3.61279719e-47 5.35915134e-48 1.09990604e-11
1.09647820e-01 1.06238631e-11 1.05040253e-11 1.19837776e-13 3.79110611e-42 6.01701057e-43 1.05040253e-11
1.25892541e-01 9.91167250e-12 9.80292679e-12 1.08745707e-13 9.09102062e-38 1.39998463e-38 9.80292679e-12
1.44543977e-01 9.24480933e-12 9.14862359e-12 9.61857422e-14 5.58272523e-34 8.29379160e-35 9.14862359e-12
1.65958691e-01 8.63756483e-12 8.53799231e-12 9.95725118e-14 8.16854397e-31 1.30480319e-31 8.53799231e-12
1.90546072e-01 8.08137975e-12 7.96811805e-12 1.13261706e-13 3.29544836e-28 6.24622676e-29 7.96811805e-12
2.18776162e-01 7.54581181e-12 7.43628044e-12 1.09531370e-13 5.14183962e-26 1.07665691e-26 7.43628044e-12
2.51188643e-01 7.06576733e-12 6.93994070e-12 1.25826626e-13 6.56213881e-24 1.60240698e-24 6.93994070e-12
2.88403150e-01 6.58866636e-12 6.47672950e-12 1.11936853e-13 4.22561665e-22 1.01123544e-22 6.47672950e-12
3.31131121e-01 6.14622579e-12 6.04443567e-12 1.01790114e-13 1.47251345e-20 3.45067797e-21 6.04443567e-12
3.80189396e-01 5.73262253e-12 5.64099558e-12 9.16266431e-14 3.04390080e-19 7.00150086e-20 5.64099558e-12
4.36515832e-01 5.34971746e-12 5.26448339e-12 8.52300788e-14 3.99271734e-18 9.05322553e-19 5.26448339e-12
5.01187234e-01 4.99169192e-12 4.91310176e-12 7.85547985e-14 3.53595375e-17 7.97005679e-18 4.91310176e-12
5.75439937e-01 4.65654289e-12 4.58517335e-12 7.11466823e-14 2.22854783e-16 4.96956504e-17 4.58517335e-12
6.60693448e-01 4.34659303e-12 4.27913275e-12 6.64128046e-14 1.04748036e-15 2.29552454e-16 4.27913275e-12
7.58577575e-01 4.05357130e-12 3.99351904e-12 5.61633920e-14 3.88886438e-15 8.33754480e-16 3.99351904e-12
8.70963590e-01 3.78999463e-12 3.72696882e-12 5.12176679e-14 1.18081394e-14 2.42097907e-15 3.72696882e-12
1.00000000e+00 3.55402507e-12 3.47820968e-12 4.58588731e-14 2.99565172e-14 5.70738076e-15 3.47820968e-12
1.14815362e+00 3.34937721e-12 3.24605414e-12 3.65175575e-14 6.68055084e-14 1.14264955e-14 3.24605414e-12
1.31825674e+00 3.19300330e-12 3.02939399e-12 3.05436521e-14 1.33065657e-13 1.99311130e-14 3.02939399e-12
1.51356125e+00 3.08753559e-12 2.82719497e-12 2.31586973e-14 2.37181922e-13 2.99416029e-14 2.82719497e-12
1.73780083e+00 3.03436456e-12 2.63849186e-12 1.78495362e-14 3.78023160e-13 3.88473891e-14 2.63849186e-12
1.99526231e+00 3.01657882e-12 2.46238388e-12 1.31477952e-14 5.41047149e-13 4.30965033e-14 2.46238388e-12
2.29086765e+00 3.01000840e-12 2.29803035e-12 8.98504872e-15 7.02993009e-13 4.17027520e-14 2.29803035e-12
2.63026799e+00 2.99157338e-12 2.14464670e-12 6.51839254e-15 8.40408286e-13 3.65663167e-14 2.14464670e-12
3.01995172e+00 2.95030504e-12 2.00150076e-12 4.28612816e-15 9.44518149e-13 2.95856001e-14 2.00150076e-12
3.46736850e+00 2.87538137e-12 1.86790919e-12 2.94805969e-15 1.00452412e-12 2.28649817e-14 1.86790919e-12
3.98107171e+00 2.76675112e-12 1.74323429e-12 2.00643185e-15 1.02151040e-12 1.65399371e-14 1.74323429e-12
4.57088190e+00 2.63058187e-12 1.62688090e-12 1.30463817e-15 1.00239634e-12 1.14873472e-14 1.62688090e-12
5.24807460e+00 2.30985772e-12 1.34518114e-12 7.41934570e-16 9.63934641e-13 7.51988365e-15 1.34518114e-12
6.02559586e+00 1.80033786e-12 8.88752369e-13 3.30069878e-16 9.11255420e-13 4.74491789e-15 8.88752369e-13
6.70000000e+00 1.51405061e-12 6.46481889e-13 1.74751288e-16 8.67393972e-13 3.16974556e-15 6.46481889e-13
6.92422916e+00 1.43543357e-12 5.85688198e-13 1.38358289e-16 8.49607012e-13 2.75849141e-15 5.85688198e-13
7.15596261e+00 1.37196780e-12 5.30611407e-13 1.08535349e-16 8.41247854e-13 2.38476599e-15 5.30611407e-13
7.39545150e+00 1.33077372e-12 4.80713913e-13 8.44005248e-17 8.49975403e-13 2.05843337e-15 4.80713913e-13
7.64295536e+00 1.34312181e-12 4.35508666e-13 5.90397714e-17 9.07554102e-13 1.68644130e-15 4.35508666e-13
7.89874245e+00 1.43531199e-12 3.94554418e-13 3.60176094e-17 1.04072155e-12 1.35220521e-15 3.94554418e-13
8.16308998e+00 1.59834088e-12 3.57451415e-13 2.04250237e-17 1.24086904e-12 1.06476589e-15 3.57451415e-13
8.43628443e+00 1.83795886e-12 3.23837494e-13 1.19743104e-17 1.51410939e-12 8.14302825e-16 3.23837494e-13
8.71862190e+00 2.00928355e-12 2.93384550e-13 7.36862817e-18 1.71589163e-12 6.38132187e-16 2.93384550e-13
9.01040836e+00 2.19933744e-12 2.65795332e-13 4.77063603e-18 1.93353733e-12 4.94208186e-16 2.65795332e-13
9.31196005e+00 2.35338321e-12 2.40800541e-13 0.00000000e+00 2.11258266e-12 0.00000000e+00 2.40800541e-13
9.62360379e+00 2.34235027e-12 2.18156204e-13 0.00000000e+00 2.12419407e-12 0.00000000e+00 2.18156204e-13
9.94567731e+00 2.20988750e-12 1.97641289e-13 0.00000000e+00 2.01224621e-12 0.00000000e+00 1.97641289e-13
1.02785297e+01 2.02939694e-12 1.79055550e-13 0.00000000e+00 1.85034139e-12 0.00000000e+00 1.79055550e-13
1.06225216e+01 1.85772202e-12 1.62217572e-13 0.00000000e+00 1.69550445e-12 0.00000000e+00 1.62217572e-13
1.09780260e+01 1.66996283e-12 1.46962999e-13 0.00000000e+00 1.52299983e-12 0.00000000e+00 1.46962999e-13
1.13454280e+01 1.50961493e-12 1.33142932e-13 0.00000000e+00 1.37647200e-12 0.00000000e+00 1.33142932e-13
1.17251259e+01 1.37200244e-12 1.20622472e-13 0.00000000e+00 1.25137997e-12 0.00000000e+00 1.20622472e-13
1.21175312e+01 1.25747358e-12 1.09279408e-13 0.00000000e+00 1.14819418e-12 0.00000000e+00 1.09279408e-13
1.25230691e+01 1.14470639e-12 9.90030204e-14 0.00000000e+00 1.04570337e-12 0.00000000e+00 9.90030204e-14
1.29421791e+01 1.05259254e-12 8.96930008e-14 0.00000000e+00 9.62899535e-13 0.00000000e+00 8.96930008e-14
1.33753155e+01 9.76711110e-13 8.12584743e-14 0.00000000e+00 8.95452636e-13 0.00000000e+00 8.12584743e-14
1.38229477e+01 9.27783323e-13 7.36171115e-14 0.00000000e+00 8.54166212e-13 0.00000000e+00 7.36171115e-14
1.42855609e+01 9.03036121e-13 6.66943252e-14 0.00000000e+00 8.36341796e-13 0.00000000e+00 6.66943252e-14
1.47636563e+01 9.18610285e-13 6.04225420e-14 0.00000000e+00 8.58187743e-13 0.00000000e+00 6.04225420e-14
1.52577522e+01 9.45628250e-13 5.47405431e-14 0.00000000e+00 8.90887707e-13 0.00000000e+00 5.47405431e-14
1.57683840e+01 9.82685499e-13 4.95928665e-14 0.00000000e+00 9.33092633e-13 0.00000000e+00 4.95928665e-14
1.62961051e+01 1.02206856e-12 4.49292657e-14 0.00000000e+00 9.77139290e-13 0.00000000e+00 4.49292657e-14
1.68414875e+01 1.06237526e-12 4.07042194e-14 0.00000000e+00 1.02167104e-12 0.00000000e+00 4.07042194e-14
1.74051222e+01 1.09093987e-12 3.68764869e-14 0.00000000e+00 1.05406339e-12 0.00000000e+00 3.68764869e-14
1.79876201e+01 1.11218208e-12 3.34087056e-14 0.00000000e+00 1.07877337e-12 0.00000000e+00 3.34087056e-14
1.85896125e+01 1.12088060e-12 3.02670267e-14 0.00000000e+00 1.09061357e-12 0.00000000e+00 3.02670267e-14
1.92117518e+01 1.11145582e-12 2.74207841e-14 0.00000000e+00 1.08403504e-12 0.00000000e+00 2.74207841e-14
1.98547123e+01 1.08997342e-12 2.48421957e-14 0.00000000e+00 1.06513123e-12 0.00000000e+00 2.48421957e-14
2.05191907e+01 1.06670046e-12 2.25060919e-14 0.00000000e+00 1.04419437e-12 0.00000000e+00 2.25060919e-14
2.12059073e+01 1.04694095e-12 2.03896700e-14 0.00000000e+00 1.02655128e-12 0.00000000e+00 2.03896700e-14
2.19156062e+01 1.02717636e-12 1.84722717e-14 0.00000000e+00 1.00870409e-12 0.00000000e+00 1.84722717e-14
2.26490567e+01 1.01098090e-12 1.67351811e-14 0.00000000e+00 9.94245717e-13 0.00000000e+00 1.67351811e-14
2.34070535e+01 9.98599938e-13 1.51614426e-14 0.00000000e+00 9.83438495e-13 0.00000000e+00 1.51614426e-14
2.41904183e+01 9.85826230e-13 1.37356949e-14 0.00000000e+00 9.72090536e-13 0.00000000e+00 1.37356949e-14
2.50000000e+01 9.73803176e-13 1.24440213e-14 0.00000000e+00 9.61359154e-13 0.00000000e+00 1.24440213e-14
2.75422870e+01 9.34354566e-13 9.30637977e-15 0.00000000e+00 9.25048186e-13 0.00000000e+00 9.30637977e-15
3.16227766e+01 8.66822345e-13 6.14866414e-15 0.00000000e+00 8.60673681e-13 0.00000000e+00 6.14866414e-15
3.63078055e+01 7.67417034e-13 4.06238211e-15 0.00000000e+00 7.63354651e-13 0.00000000e+00 4.06238211e-15
4.16869383e+01 6.36761513e-13 2.68398924e-15 0.00000000e+00 6.34077524e-13 0.00000000e+00 2.68398924e-15
4.78630092e+01 4.94168879e-13 1.77329411e-15 0.00000000e+00 4.92395585e-13 0.00000000e+00 1.77329411e-15
5.49540874e+01 3.59333698e-13 1.17160380e-15 0.00000000e+00 3.58162094e-13 0.00000000e+00 1.17160380e-15
6.30957344e+01 2.47014819e-13 7.74070953e-16 0.00000000e+00 2.46240748e-13 0.00000000e+00 7.74070953e-16
7.24435960e+01 1.61884950e-13 5.11423607e-16 0.00000000e+00 1.61373526e-13 0.00000000e+00 5.11423607e-16
8.31763771e+01 1.01823944e-13 3.37894226e-16 0.00000000e+00 1.01486050e-13 0.00000000e+00 3.37894226e-16
9.54992586e+01 6.20065274e-14 2.23244502e-16 0.00000000e+00 6.17832829e-14 0.00000000e+00 2.23244502e-16
1.09647820e+02 3.67568266e-14 1.47496179e-16 0.00000000e+00 3.66093304e-14 0.00000000e+00 1.47496179e-16
1.25892541e+02 2.15560024e-14 9.74497594e-17 0.00000000e+00 2.14585526e-14 0.00000000e+00 9.74497594e-17
1.44543977e+02 1.24572566e-14 6.43844175e-17 0.00000000e+00 1.23928722e-14 0.00000000e+00 6.43844175e-17
1.65958691e+02 6.82238945e-15 4.25383628e-17 0.00000000e+00 6.77985108e-15 0.00000000e+00 4.25383628e-17
1.90546072e+02 3.71468350e-15 2.81048176e-17 0.00000000e+00 3.68657868e-15 0.00000000e+00 2.81048176e-17
2.18776162e+02 2.00789329e-15 1.85686688e-17 0.00000000e+00 1.98932462e-15 0.00000000e+00 1.85686688e-17
2.51188643e+02 1.07676131e-15 1.22681978e-17 0.00000000e+00 1.06449312e-15 0.00000000e+00 1.22681978e-17
2.88403150e+02 5.72703173e-16 8.10551794e-18 0.00000000e+00 5.64597655e-16 0.00000000e+00 8.10551794e-18
3.31131121e+02 3.02979055e-16 5.35526259e-18 0.00000000e+00 2.97623793e-16 0.00000000e+00 5.35526259e-18
3.80189396e+02 1.59357119e-16 3.53818691e-18 0.00000000e+00 1.55818933e-16 0.00000000e+00 3.53818691e-18
4.36515832e+02 8.35043649e-17 2.33765691e-18 0.00000000e+00 8.11667080e-17 0.00000000e+00 2.33765691e-18
5.01187234e+02 4.36191572e-17 1.54447460e-18 0.00000000e+00 4.20746826e-17 0.00000000e+00 1.54447460e-18
5.75439937e+02 2.27415565e-17 1.02042425e-18 0.00000000e+00 2.17211323e-17 0.00000000e+00 1.02042425e-18
6.60693448e+02 1.18484937e-17 6.74187617e-19 0.00000000e+00 1.11743061e-17 0.00000000e+00 6.74187617e-19
7.58577575e+02 6.17662026e-18 4.45431341e-19 0.00000000e+00 5.73118892e-18 0.00000000e+00 4.45431341e-19
8.70963590e+02 3.22527134e-18 2.94293569e-19 0.00000000e+00 2.93097777e-18 0.00000000e+00 2.94293569e-19
1.00000000e+03 1.49503689e-18 0.00000000e+00 0.00000000e+00 1.49503689e-18 0.00000000e+00 0.00000000e+00
