# column 1: lambda (micron)
# column 2: total flux; lambda*F_lambda (W/m2)
# column 3: direct stellar flux; lambda*F_lambda (W/m2)
# column 4: scattered stellar flux; lambda*F_lambda (W/m2)
# column 5: total dust emission flux; lambda*F_lambda (W/m2)
# column 6: dust emission scattered flux; lambda*F_lambda (W/m2)
# column 7: transparent flux; lambda*F_lambda (W/m2)
1.00000000e-03 5.25636764e-13 5.25636674e-13 9.04171191e-20 0.00000000e+00 0.00000000e+00 5.25636674e-13
1.14815362e-03 6.20419953e-13 6.20419813e-13 1.39792041e-19 0.00000000e+00 0.00000000e+00 6.20419813e-13
1.31825674e-03 7.32294525e-13 7.32294308e-13 2.16609520e-19 0.00000000e+00 0.00000000e+00 7.32294308e-13
1.51356125e-03 8.64342447e-13 8.64342083e-13 3.63629630e-19 0.00000000e+00 0.00000000e+00 8.64342083e-13
1.73780083e-03 1.02020139e-12 1.02020080e-12 5.90677379e-19 0.00000000e+00 0.00000000e+00 1.02020080e-12
1.99526231e-03 1.20416527e-12 1.20416405e-12 1.21504387e-18 0.00000000e+00 0.00000000e+00 1.20416405e-12
2.29086765e-03 1.42130152e-12 1.42129968e-12 1.83711172e-18 0.00000000e+00 0.00000000e+00 1.42129968e-12
2.63026799e-03 1.67759279e-12 1.67758934e-12 3.44852165e-18 0.00000000e+00 0.00000000e+00 1.67758934e-12
3.01995172e-03 1.98010013e-12 1.98009332e-12 6.81269608e-18 0.00000000e+00 0.00000000e+00 1.98009332e-12
3.46736850e-03 2.33715546e-12 2.33714500e-12 1.04590903e-17 0.00000000e+00 0.00000000e+00 2.33714500e-12
3.98107171e-03 2.75859848e-12 2.75858048e-12 1.80014518e-17 0.00000000e+00 0.00000000e+00 2.75858048e-12
4.57088190e-03 3.25604335e-12 3.25600946e-12 3.38920010e-17 0.00000000e+00 0.00000000e+00 3.25600946e-12
5.24807460e-03 3.84320365e-12 3.84313516e-12 6.84949245e-17 0.00000000e+00 0.00000000e+00 3.84313516e-12
6.02559586e-03 4.53626294e-12 4.53613173e-12 1.31204485e-16 0.00000000e+00 0.00000000e+00 4.53613173e-12
6.91830971e-03 5.35427660e-12 5.35408989e-12 1.86707081e-16 0.00000000e+00 0.00000000e+00 5.35408989e-12
7.94328235e-03 6.31991217e-12 6.31954278e-12 3.69382109e-16 1.53690802e-303 3.13780261e-305 6.31954278e-12
9.12010839e-03 7.45966343e-12 7.45908676e-12 5.76675340e-16 6.51218713e-265 6.62424634e-267 7.45908676e-12
1.04712855e-02 8.33288435e-12 8.33078048e-12 2.10387412e-15 2.73302871e-231 6.32982078e-233 8.33078048e-12
1.20226443e-02 8.33189827e-12 8.33078048e-12 1.11779335e-15 4.18218967e-202 7.60549124e-204 8.33078048e-12
1.38038426e-02 8.33235479e-12 8.33078048e-12 1.57431529e-15 1.13016860e-176 3.00222027e-178 8.33078048e-12
1.58489319e-02 8.33345453e-12 8.33078048e-12 2.67405069e-15 1.49283597e-154 2.66918432e-156 8.33078048e-12
1.81970086e-02 8.33380418e-12 8.33078048e-12 3.02370203e-15 2.63860172e-135 5.87961982e-137 8.33078048e-12
2.08929613e-02 8.33510438e-12 8.33078048e-12 4.32390519e-15 1.36444293e-118 3.26301955e-120 8.33078048e-12
2.39883292e-02 8.33640891e-12 8.33078048e-12 5.62843575e-15 4.75287827e-104 1.33187949e-105 8.33078048e-12
2.75422870e-02 8.33861259e-12 8.33078048e-12 7.83211593e-15 2.10958740e-91 6.57184461e-93 8.33078048e-12
3.16227766e-02 8.34115929e-12 8.33078048e-12 1.03788100e-14 2.04672336e-80 7.58889435e-82 8.33078048e-12
3.63078055e-02 8.34247365e-12 8.33078048e-12 1.16931729e-14 7.05419389e-71 2.76890958e-72 8.33078048e-12
4.16869383e-02 8.34797634e-12 8.33078048e-12 1.71958673e-14 1.33948918e-62 6.41092971e-64 8.33078048e-12
4.78630092e-02 8.35352265e-12 8.33078048e-12 2.27421726e-14 2.00908089e-55 1.07736855e-56 8.33078048e-12
5.49540874e-02 8.35782236e-12 8.33078048e-12 2.70418840e-14 3.31422316e-49 1.98846601e-50 8.33078048e-12
6.30957344e-02 8.36231156e-12 8.33078048e-12 3.15310860e-14 1.05711473e-43 7.05733539e-45 8.33078048e-12
7.24435960e-02 8.36442556e-12 8.33078048e-12 3.36450821e-14 6.01796660e-39 3.77251836e-40 8.33078048e-12
8.31763771e-02 8.36260979e-12 8.33078048e-12 3.18293146e-14 6.13625922e-35 3.71201019e-36 8.33078048e-12
9.54992586e-02 8.36236035e-12 8.33078048e-12 3.15798736e-14 1.73051706e-31 1.06414834e-32 8.33078048e-12
1.09647820e-01 7.98985028e-12 7.95583672e-12 3.40135639e-14 1.47770539e-28 9.58327472e-30 7.95583672e-12
1.25892541e-01 7.45320152e-12 7.42481883e-12 2.83826830e-14 4.81936384e-26 3.09814146e-27 7.42481883e-12
1.44543977e-01 6.95447276e-12 6.92924411e-12 2.52286543e-14 6.58320918e-24 4.03149734e-25 6.92924411e-12
1.65958691e-01 6.49385897e-12 6.46674687e-12 2.71120984e-14 3.33945556e-22 2.16241721e-23 6.46674687e-12
1.90546072e-01 6.06177363e-12 6.03511933e-12 2.66542960e-14 6.99184035e-21 5.08126898e-22 6.03511933e-12
2.18776162e-01 5.66069446e-12 5.63230107e-12 2.83933106e-14 8.21536675e-20 6.14227573e-21 5.63230107e-12
2.51188643e-01 5.28800210e-12 5.25636919e-12 3.16319123e-14 9.97250501e-19 8.46256302e-20 5.25636919e-12
2.88403150e-01 4.93400526e-12 4.90552916e-12 2.84677757e-14 8.33180613e-18 6.92831524e-19 4.90552916e-12
3.31131121e-01 4.60393230e-12 4.57810618e-12 2.57784064e-14 4.77109994e-17 3.71708249e-18 4.57810618e-12
3.80189396e-01 4.29595807e-12 4.27253728e-12 2.32220089e-14 1.98780961e-16 1.47092715e-17 4.27253728e-12
4.36515832e-01 4.00720177e-12 3.98736380e-12 1.92086887e-14 6.29289392e-16 4.53905656e-17 3.98736380e-12
5.01187234e-01 3.74212661e-12 3.72122441e-12 1.93339935e-14 1.56820662e-15 1.08260948e-16 3.72122441e-12
5.75439937e-01 3.49290032e-12 3.47284869e-12 1.68376429e-14 3.21399021e-15 2.11940452e-16 3.47284869e-12
6.60693448e-01 3.26169275e-12 3.24105097e-12 1.50445945e-14 5.59717843e-15 3.43672651e-16 3.24105097e-12
7.58577575e-01 3.04646780e-12 3.02472476e-12 1.30810690e-14 8.66197580e-15 5.11291521e-16 3.02472476e-12
8.70963590e-01 2.84582064e-12 2.82283739e-12 1.08234552e-14 1.21597986e-14 6.64604999e-16 2.82283739e-12
1.00000000e+00 2.66087547e-12 2.63442513e-12 1.06318696e-14 1.58184636e-14 7.92582817e-16 2.63442513e-12
1.14815362e+00 2.48646092e-12 2.45858859e-12 7.76419612e-15 2.01081348e-14 9.18650715e-16 2.45858859e-12
1.31825674e+00 2.32673484e-12 2.29448837e-12 6.14773446e-15 2.60987306e-14 1.10510283e-15 2.29448837e-12
1.51356125e+00 2.18150330e-12 2.14134114e-12 4.63235950e-15 3.55297944e-14 1.42349597e-15 2.14134114e-12
1.73780083e+00 2.05292899e-12 1.99841583e-12 3.99928055e-15 5.05138765e-14 1.95138786e-15 1.99841583e-12
1.99526231e+00 1.94010083e-12 1.86503017e-12 2.95673713e-15 7.21139246e-14 2.43248341e-15 1.86503017e-12
2.29086765e+00 1.84227040e-12 1.74054743e-12 2.00796064e-15 9.97150150e-14 2.86580347e-15 1.74054743e-12
2.63026799e+00 1.75652924e-12 1.62437337e-12 1.44385472e-15 1.30712010e-13 3.02207316e-15 1.62437337e-12
3.01995172e+00 1.67822565e-12 1.51595343e-12 9.61299158e-16 1.61310912e-13 2.92346071e-15 1.51595343e-12
3.46736850e+00 1.60230094e-12 1.41477006e-12 6.61358145e-16 1.86869522e-13 2.62539863e-15 1.41477006e-12
3.98107171e+00 1.52477803e-12 1.32034025e-12 4.26581265e-16 2.04011201e-13 2.16556076e-15 1.32034025e-12
4.57088190e+00 1.44377264e-12 1.23221321e-12 2.89372123e-16 2.11270051e-13 1.62354065e-15 1.23221321e-12
5.24807460e+00 1.22914541e-12 1.01885146e-12 1.67810731e-16 2.10126140e-13 1.14671260e-15 1.01885146e-12
6.02559586e+00 8.75573376e-13 6.73148485e-13 7.05229609e-17 2.02354368e-13 7.52291057e-16 6.73148485e-13
6.70000000e+00 6.82938906e-13 4.89650796e-13 3.80321760e-17 1.93250078e-13 5.10924497e-16 4.89650796e-13
6.92422916e+00 6.33438401e-13 4.43605145e-13 2.89173300e-17 1.89804339e-13 4.47465034e-16 4.43605145e-13
7.15596261e+00 5.89857719e-13 4.01889522e-13 2.44432900e-17 1.87943753e-13 3.90838675e-16 4.01889522e-13
7.39545150e+00 5.53601879e-13 3.64096743e-13 1.73484906e-17 1.89487788e-13 3.34523675e-16 3.64096743e-13
7.64295536e+00 5.31863053e-13 3.29857910e-13 1.25330705e-17 2.01992610e-13 2.75820354e-16 3.29857910e-13
7.89874245e+00 5.31343232e-13 2.98838820e-13 7.91494389e-18 2.32496497e-13 2.18750077e-16 2.98838820e-13
8.16308998e+00 5.48967002e-13 2.70736695e-13 4.51667210e-18 2.78225791e-13 1.70433684e-16 2.70736695e-13
8.43628443e+00 5.88819320e-13 2.45277229e-13 2.51695542e-18 3.43539574e-13 1.28714975e-16 2.45277229e-13
8.71862190e+00 6.14881044e-13 2.22211915e-13 1.64824945e-18 3.92667481e-13 9.96886924e-17 2.22211915e-13
9.01040836e+00 6.49067388e-13 2.01315610e-13 1.00595605e-18 4.47750772e-13 7.27022242e-17 2.01315610e-13
9.31196005e+00 6.73771959e-13 1.82384346e-13 0.00000000e+00 4.91387613e-13 0.00000000e+00 1.82384346e-13
9.62360379e+00 6.59312102e-13 1.65233336e-13 0.00000000e+00 4.94078767e-13 0.00000000e+00 1.65233336e-13
9.94567731e+00 6.12684826e-13 1.49695167e-13 0.00000000e+00 4.62989659e-13 0.00000000e+00 1.49695167e-13
1.02785297e+01 5.60990065e-13 1.35618173e-13 0.00000000e+00 4.25371892e-13 0.00000000e+00 1.35618173e-13
1.06225216e+01 5.10149450e-13 1.22864947e-13 0.00000000e+00 3.87284503e-13 0.00000000e+00 1.22864947e-13
1.09780260e+01 4.55698775e-13 1.11311006e-13 0.00000000e+00 3.44387768e-13 0.00000000e+00 1.11311006e-13
1.13454280e+01 4.08161838e-13 1.00843571e-13 0.00000000e+00 3.07318266e-13 0.00000000e+00 1.00843571e-13
1.17251259e+01 3.67301662e-13 9.13604705e-14 0.00000000e+00 2.75941192e-13 0.00000000e+00 9.13604705e-14
1.21175312e+01 3.30723527e-13 8.27691389e-14 0.00000000e+00 2.47954388e-13 0.00000000e+00 8.27691389e-14
1.25230691e+01 2.98198515e-13 7.49857166e-14 0.00000000e+00 2.23212798e-13 0.00000000e+00 7.49857166e-14
1.29421791e+01 2.70089807e-13 6.79342298e-14 0.00000000e+00 2.02155577e-13 0.00000000e+00 6.79342298e-14
1.33753155e+01 2.46181287e-13 6.15458488e-14 0.00000000e+00 1.84635438e-13 0.00000000e+00 6.15458488e-14
1.38229477e+01 2.28913730e-13 5.57582167e-14 0.00000000e+00 1.73155513e-13 0.00000000e+00 5.57582167e-14
1.42855609e+01 2.17378531e-13 5.05148403e-14 0.00000000e+00 1.66863691e-13 0.00000000e+00 5.05148403e-14
1.47636563e+01 2.15085870e-13 4.57645392e-14 0.00000000e+00 1.69321331e-13 0.00000000e+00 4.57645392e-14
1.52577522e+01 2.15563653e-13 4.14609457e-14 0.00000000e+00 1.74102707e-13 0.00000000e+00 4.14609457e-14
1.57683840e+01 2.17831976e-13 3.75620523e-14 0.00000000e+00 1.80269923e-13 0.00000000e+00 3.75620523e-14
1.62961051e+01 2.20716901e-13 3.40298020e-14 0.00000000e+00 1.86687099e-13 0.00000000e+00 3.40298020e-14
1.68414875e+01 2.24279615e-13 3.08297166e-14 0.00000000e+00 1.93449898e-13 0.00000000e+00 3.08297166e-14
1.74051222e+01 2.24586617e-13 2.79305599e-14 0.00000000e+00 1.96656057e-13 0.00000000e+00 2.79305599e-14
1.79876201e+01 2.24587718e-13 2.53040334e-14 0.00000000e+00 1.99283684e-13 0.00000000e+00 2.53040334e-14
1.85896125e+01 2.19144760e-13 2.29244994e-14 0.00000000e+00 1.96220261e-13 0.00000000e+00 2.29244994e-14
1.92117518e+01 2.11628324e-13 2.07687314e-14 0.00000000e+00 1.90859592e-13 0.00000000e+00 2.07687314e-14
1.98547123e+01 2.03274598e-13 1.88156870e-14 0.00000000e+00 1.84458911e-13 0.00000000e+00 1.88156870e-14
2.05191907e+01 1.93707556e-13 1.70463024e-14 0.00000000e+00 1.76661254e-13 0.00000000e+00 1.70463024e-14
2.12059073e+01 1.84410857e-13 1.54433068e-14 0.00000000e+00 1.68967550e-13 0.00000000e+00 1.54433068e-14
2.19156062e+01 1.77060119e-13 1.39910532e-14 0.00000000e+00 1.63069066e-13 0.00000000e+00 1.39910532e-14
2.26490567e+01 1.70226895e-13 1.26753663e-14 0.00000000e+00 1.57551529e-13 0.00000000e+00 1.26753663e-14
2.34070535e+01 1.63210994e-13 1.14834036e-14 0.00000000e+00 1.51727591e-13 0.00000000e+00 1.14834036e-14
2.41904183e+01 1.57377181e-13 1.04035303e-14 0.00000000e+00 1.46973650e-13 0.00000000e+00 1.04035303e-14
2.50000000e+01 1.50901126e-13 9.42520591e-15 0.00000000e+00 1.41475920e-13 0.00000000e+00 9.42520591e-15
2.75422870e+01 1.35236567e-13 7.04872996e-15 0.00000000e+00 1.28187837e-13 0.00000000e+00 7.04872996e-15
3.16227766e+01 1.13258214e-13 4.65704970e-15 0.00000000e+00 1.08601164e-13 0.00000000e+00 4.65704970e-15
3.63078055e+01 9.17091194e-14 3.07688223e-15 0.00000000e+00 8.86322371e-14 0.00000000e+00 3.07688223e-15
4.16869383e+01 6.99519516e-14 2.03287593e-15 0.00000000e+00 6.79190756e-14 0.00000000e+00 2.03287593e-15
4.78630092e+01 5.02470757e-14 1.34310781e-15 0.00000000e+00 4.89039679e-14 0.00000000e+00 1.34310781e-15
5.49540874e+01 3.41750287e-14 8.87382527e-16 0.00000000e+00 3.32876462e-14 0.00000000e+00 8.87382527e-16
6.30957344e+01 2.21994072e-14 5.86287821e-16 0.00000000e+00 2.16131194e-14 0.00000000e+00 5.86287821e-16
7.24435960e+01 1.38395117e-14 3.87356522e-16 0.00000000e+00 1.34521552e-14 0.00000000e+00 3.87356522e-16
8.31763771e+01 8.35925027e-15 2.55923916e-16 0.00000000e+00 8.10332636e-15 0.00000000e+00 2.55923916e-16
9.54992586e+01 4.92642800e-15 1.69087255e-16 0.00000000e+00 4.75734075e-15 0.00000000e+00 1.69087255e-16
1.09647820e+02 2.84772521e-15 1.11714841e-16 0.00000000e+00 2.73601037e-15 0.00000000e+00 1.11714841e-16
1.25892541e+02 1.63712767e-15 7.38092637e-17 0.00000000e+00 1.56331840e-15 0.00000000e+00 7.38092637e-17
1.44543977e+02 9.32921796e-16 4.87652969e-17 0.00000000e+00 8.84156499e-16 0.00000000e+00 4.87652969e-17
1.65958691e+02 5.07008683e-16 3.22189122e-17 0.00000000e+00 4.74789771e-16 0.00000000e+00 3.22189122e-17
1.90546072e+02 2.75453055e-16 2.12868242e-17 0.00000000e+00 2.54166230e-16 0.00000000e+00 2.12868242e-17
2.18776162e+02 1.49456416e-16 1.40640653e-17 0.00000000e+00 1.35392351e-16 0.00000000e+00 1.40640653e-17
2.51188643e+02 8.09553812e-17 9.29203577e-18 0.00000000e+00 7.16633454e-17 0.00000000e+00 9.29203577e-18
2.88403150e+02 4.38032349e-17 6.13918715e-18 0.00000000e+00 3.76640478e-17 0.00000000e+00 6.13918715e-18
3.31131121e+02 2.37557159e-17 4.05612073e-18 0.00000000e+00 1.96995951e-17 0.00000000e+00 4.05612073e-18
3.80189396e+02 1.29258270e-17 2.67985239e-18 0.00000000e+00 1.02459746e-17 0.00000000e+00 2.67985239e-18
4.36515832e+02 7.07796465e-18 1.77056092e-18 0.00000000e+00 5.30740373e-18 0.00000000e+00 1.77056092e-18
5.01187234e+02 3.90779659e-18 1.16979800e-18 0.00000000e+00 2.73799860e-18 0.00000000e+00 1.16979800e-18
5.75439937e+02 2.18061297e-18 7.72877871e-19 0.00000000e+00 1.40773510e-18 0.00000000e+00 7.72877871e-19
6.60693448e+02 1.23230950e-18 5.10635346e-19 0.00000000e+00 7.21674151e-19 0.00000000e+00 5.10635346e-19
7.58577575e+02 7.06396577e-19 3.37373427e-19 0.00000000e+00 3.69023150e-19 0.00000000e+00 3.37373427e-19
8.70963590e+02 4.11137645e-19 2.22900413e-19 0.00000000e+00 1.88237232e-19 0.00000000e+00 2.22900413e-19
1.00000000e+03 9.58033108e-20 0.00000000e+00 0.00000000e+00 9.58033108e-20 0.00000000e+00 0.00000000e+00
