# column 1: lambda (micron)
# column 2: total flux; lambda*F_lambda (W/m2)
# column 3: direct stellar flux; lambda*F_lambda (W/m2)
# column 4: scattered stellar flux; lambda*F_lambda (W/m2)
# column 5: total dust emission flux; lambda*F_lambda (W/m2)
# column 6: dust emission scattered flux; lambda*F_lambda (W/m2)
# column 7: transparent flux; lambda*F_lambda (W/m2)
1.00000000e-03 1.04634568e-12 1.04634360e-12 2.07651962e-18 0.00000000e+00 0.00000000e+00 1.04634360e-12
1.14815362e-03 1.23502423e-12 1.23502095e-12 3.28656297e-18 0.00000000e+00 0.00000000e+00 1.23502095e-12
1.31825674e-03 1.45772582e-12 1.45772071e-12 5.11071100e-18 0.00000000e+00 0.00000000e+00 1.45772071e-12
1.51356125e-03 1.72058571e-12 1.72057784e-12 7.87450028e-18 0.00000000e+00 0.00000000e+00 1.72057784e-12
1.73780083e-03 2.03084749e-12 2.03083353e-12 1.39630449e-17 0.00000000e+00 0.00000000e+00 2.03083353e-12
1.99526231e-03 2.39705954e-12 2.39703472e-12 2.48197025e-17 0.00000000e+00 0.00000000e+00 2.39703472e-12
2.29086765e-03 2.82930841e-12 2.82926954e-12 3.88716130e-17 0.00000000e+00 0.00000000e+00 2.82926954e-12
2.63026799e-03 3.33952366e-12 3.33944522e-12 7.84400104e-17 0.00000000e+00 0.00000000e+00 3.33944522e-12
3.01995172e-03 3.94174760e-12 3.94161611e-12 1.31487404e-16 0.00000000e+00 0.00000000e+00 3.94161611e-12
3.46736850e-03 4.65259086e-12 4.65237083e-12 2.20027280e-16 0.00000000e+00 0.00000000e+00 4.65237083e-12
3.98107171e-03 5.49165189e-12 5.49128930e-12 3.62594920e-16 0.00000000e+00 0.00000000e+00 5.49128930e-12
4.57088190e-03 6.48225821e-12 6.48148207e-12 7.76139951e-16 0.00000000e+00 0.00000000e+00 6.48148207e-12
5.24807460e-03 7.65164656e-12 7.65022704e-12 1.41952187e-15 0.00000000e+00 0.00000000e+00 7.65022704e-12
6.02559586e-03 9.03279355e-12 9.02972084e-12 3.07270246e-15 0.00000000e+00 0.00000000e+00 9.02972084e-12
6.91830971e-03 1.06621336e-11 1.06579658e-11 4.16775934e-15 0.00000000e+00 0.00000000e+00 1.06579658e-11
7.94328235e-03 1.25881134e-11 1.25798170e-11 8.29635761e-15 0.00000000e+00 0.00000000e+00 1.25798170e-11
9.12010839e-03 1.48595489e-11 1.48482176e-11 1.13312991e-14 0.00000000e+00 0.00000000e+00 1.48482176e-11
1.04712855e-02 1.65991746e-11 1.65834298e-11 1.57448044e-14 0.00000000e+00 0.00000000e+00 1.65834298e-11
1.20226443e-02 1.66096915e-11 1.65834298e-11 2.62616975e-14 0.00000000e+00 0.00000000e+00 1.65834298e-11
1.38038426e-02 1.66226132e-11 1.65834298e-11 3.91833859e-14 4.08720977e-288 2.55842286e-289 1.65834298e-11
1.58489319e-02 1.66407199e-11 1.65834298e-11 5.72901216e-14 1.72701301e-251 9.78716424e-253 1.65834298e-11
1.81970086e-02 1.66531563e-11 1.65834298e-11 6.97265349e-14 1.31627248e-219 8.72853161e-221 1.65834298e-11
2.08929613e-02 1.66904763e-11 1.65834298e-11 1.07046512e-13 6.87965722e-192 5.08545082e-193 1.65834298e-11
2.39883292e-02 1.67207369e-11 1.65834298e-11 1.37307076e-13 9.18253826e-168 7.13591836e-169 1.65834298e-11
2.75422870e-02 1.67653218e-11 1.65834298e-11 1.81891977e-13 9.10851826e-147 7.79846387e-148 1.65834298e-11
3.16227766e-02 1.68082266e-11 1.65834298e-11 2.24796778e-13 1.65447144e-128 1.50752559e-129 1.65834298e-11
3.63078055e-02 1.68370571e-11 1.65834298e-11 2.53627344e-13 1.23764664e-112 1.15636944e-113 1.65834298e-11
4.16869383e-02 1.69309163e-11 1.65834298e-11 3.47486537e-13 7.94850205e-99 8.96782692e-100 1.65834298e-11
4.78630092e-02 1.70139377e-11 1.65834298e-11 4.30507889e-13 7.82443108e-87 9.96175438e-88 1.65834298e-11
5.49540874e-02 1.70879059e-11 1.65834298e-11 5.04476140e-13 2.04801558e-76 2.87460106e-77 1.65834298e-11
6.30957344e-02 1.71353547e-11 1.65834298e-11 5.51924923e-13 2.94341693e-67 4.34575096e-68 1.65834298e-11
7.24435960e-02 1.71024532e-11 1.65834298e-11 5.19023439e-13 2.54936952e-59 3.51424403e-60 1.65834298e-11
8.31763771e-02 1.70840969e-11 1.65834298e-11 5.00667082e-13 1.63060380e-52 2.20886774e-53 1.65834298e-11
9.54992586e-02 1.70922420e-11 1.65834298e-11 5.08812237e-13 1.28426950e-46 1.80664490e-47 1.65834298e-11
1.09647820e-01 1.63597439e-11 1.58370587e-11 5.22685177e-13 1.55454835e-41 2.40580604e-42 1.58370587e-11
1.25892541e-01 1.52704293e-11 1.47800032e-11 4.90426130e-13 3.83677246e-37 6.05250674e-38 1.47800032e-11
1.44543977e-01 1.42297357e-11 1.37935015e-11 4.36234168e-13 2.30396214e-33 3.63466785e-34 1.37935015e-11
1.65958691e-01 1.33228298e-11 1.28728446e-11 4.49985222e-13 3.24642177e-30 5.68881123e-31 1.28728446e-11
1.90546072e-01 1.24929161e-11 1.20136376e-11 4.79278467e-13 1.24237516e-27 2.50767485e-28 1.20136376e-11
2.18776162e-01 1.16614105e-11 1.12117790e-11 4.49631495e-13 1.81957121e-25 3.77690369e-26 1.12117790e-11
2.51188643e-01 1.09718765e-11 1.04634409e-11 5.08435611e-13 2.28553757e-23 5.90737183e-24 1.04634409e-11
2.88403150e-01 1.02398858e-11 9.76505125e-12 4.74834586e-13 1.46816876e-21 3.93589006e-22 9.76505125e-12
3.31131121e-01 9.54817892e-12 9.11327608e-12 4.34902785e-13 5.22608675e-20 1.42628328e-20 9.11327608e-12
3.80189396e-01 8.90196764e-12 8.50500410e-12 3.96962404e-13 1.14105882e-18 3.20002381e-19 8.50500410e-12
4.36515832e-01 8.30119196e-12 7.93733165e-12 3.63844195e-13 1.61174834e-17 4.67929648e-18 7.93733165e-12
5.01187234e-01 7.74582279e-12 7.40754890e-12 3.38117245e-13 1.56650145e-16 4.65598046e-17 7.40754890e-12
5.75439937e-01 7.23026729e-12 6.91312687e-12 3.16049985e-13 1.09043624e-15 3.27908079e-16 6.91312687e-12
6.60693448e-01 6.74231994e-12 6.45170538e-12 2.84959631e-13 5.65492645e-15 1.71845093e-15 6.45170538e-12
7.58577575e-01 6.30228153e-12 6.02108180e-12 2.58255102e-13 2.29446355e-14 6.86692248e-15 6.02108180e-12
8.70963590e-01 5.92718053e-12 5.61920048e-12 2.32066903e-13 7.59131449e-14 2.19305202e-14 5.61920048e-12
1.00000000e+00 5.64815805e-12 5.24414302e-12 1.96943833e-13 2.07071202e-13 5.62362917e-14 5.24414302e-12
1.14815362e+00 5.54230782e-12 4.89411902e-12 1.61086094e-13 4.87102698e-13 1.20371536e-13 4.89411902e-12
1.31825674e+00 5.70649423e-12 4.56745763e-12 1.27082150e-13 1.01195445e-12 2.22061892e-13 4.56745763e-12
1.51356125e+00 6.21269821e-12 4.26259947e-12 9.91350762e-14 1.85096366e-12 3.50491184e-13 4.26259947e-12
1.73780083e+00 7.07966647e-12 3.97808929e-12 7.56125844e-14 3.02596459e-12 4.77864124e-13 3.97808929e-12
1.99526231e+00 8.11151684e-12 3.71256894e-12 5.64620640e-14 4.34248583e-12 5.56507717e-13 3.71256894e-12
2.29086765e+00 9.19732443e-12 3.46477093e-12 4.12983872e-14 5.69125512e-12 5.71883645e-13 3.46477093e-12
2.63026799e+00 1.00709218e-11 3.23351237e-12 2.92959119e-14 6.80811353e-12 5.33385034e-13 3.23351237e-12
3.01995172e+00 1.06477334e-11 3.01768933e-12 2.04550508e-14 7.60958901e-12 4.54469677e-13 3.01768933e-12
3.46736850e+00 1.08917385e-11 2.81627154e-12 1.41370314e-14 8.06132990e-12 3.58503271e-13 2.81627154e-12
3.98107171e+00 1.07914061e-11 2.62829753e-12 9.30368279e-15 8.15380489e-12 2.61261927e-13 2.62829753e-12
4.57088190e+00 1.03600003e-11 2.45286997e-12 5.87823184e-15 7.90125213e-12 1.73720949e-13 2.45286997e-12
5.24807460e+00 9.51224006e-12 2.02814751e-12 3.20347305e-15 7.48088907e-12 1.08451059e-13 2.02814751e-12
6.02559586e+00 8.28254466e-12 1.33998377e-12 1.32151968e-15 6.94123937e-12 6.30357115e-14 1.33998377e-12
6.70000000e+00 7.44921890e-12 9.74709347e-13 6.64641441e-16 6.47384492e-12 3.96623149e-14 9.74709347e-13
6.92422916e+00 7.19809750e-12 8.83049889e-13 5.29074792e-16 6.31451854e-12 3.39272578e-14 8.83049889e-13
7.15596261e+00 7.01554364e-12 8.00009879e-13 4.16593180e-16 6.21511717e-12 2.89501113e-14 8.00009879e-13
7.39545150e+00 6.95476834e-12 7.24778763e-13 3.19987420e-16 6.22966959e-12 2.46157976e-14 7.24778763e-13
7.64295536e+00 7.24741551e-12 6.56622211e-13 2.31214919e-16 6.59056209e-12 2.11210996e-14 6.56622211e-13
7.89874245e+00 7.99991565e-12 5.94874946e-13 1.52157231e-16 7.40488855e-12 1.77749023e-14 5.94874946e-13
8.16308998e+00 9.04113760e-12 5.38934254e-13 9.33699689e-17 8.50210997e-12 1.47166969e-14 5.38934254e-13
8.43628443e+00 1.03145294e-11 4.88254098e-13 5.35015004e-17 9.82622177e-12 1.14749970e-14 4.88254098e-13
8.71862190e+00 1.10879858e-11 4.42339790e-13 3.38975914e-17 1.06456121e-11 9.08416370e-15 4.42339790e-13
9.01040836e+00 1.17290777e-11 4.00743158e-13 1.94028532e-17 1.13283151e-11 6.67727667e-15 4.00743158e-13
9.31196005e+00 1.21489942e-11 3.63058180e-13 0.00000000e+00 1.17859360e-11 0.00000000e+00 3.63058180e-13
9.62360379e+00 1.19537116e-11 3.28917012e-13 0.00000000e+00 1.16247946e-11 0.00000000e+00 3.28917012e-13
9.94567731e+00 1.14090385e-11 2.97986401e-13 0.00000000e+00 1.11110521e-11 0.00000000e+00 2.97986401e-13
1.02785297e+01 1.07210641e-11 2.69964435e-13 0.00000000e+00 1.04510997e-11 0.00000000e+00 2.69964435e-13
1.06225216e+01 1.00098302e-11 2.44577592e-13 0.00000000e+00 9.76525256e-12 0.00000000e+00 2.44577592e-13
1.09780260e+01 9.25772849e-12 2.21578069e-13 0.00000000e+00 9.03615042e-12 0.00000000e+00 2.21578069e-13
1.13454280e+01 8.54365775e-12 2.00741370e-13 0.00000000e+00 8.34291638e-12 0.00000000e+00 2.00741370e-13
1.17251259e+01 7.87054799e-12 1.81864106e-13 0.00000000e+00 7.68868389e-12 0.00000000e+00 1.81864106e-13
1.21175312e+01 7.24011763e-12 1.64762018e-13 0.00000000e+00 7.07535561e-12 0.00000000e+00 1.64762018e-13
1.25230691e+01 6.64832272e-12 1.49268171e-13 0.00000000e+00 6.49905455e-12 0.00000000e+00 1.49268171e-13
1.29421791e+01 6.10494962e-12 1.35231331e-13 0.00000000e+00 5.96971829e-12 0.00000000e+00 1.35231331e-13
1.33753155e+01 5.60756129e-12 1.22514483e-13 0.00000000e+00 5.48504681e-12 0.00000000e+00 1.22514483e-13
1.38229477e+01 5.26795807e-12 1.10993499e-13 0.00000000e+00 5.15696457e-12 0.00000000e+00 1.10993499e-13
1.42855609e+01 5.07515089e-12 1.00555922e-13 0.00000000e+00 4.97459497e-12 0.00000000e+00 1.00555922e-13
1.47636563e+01 5.11772006e-12 9.10998706e-14 0.00000000e+00 5.02662019e-12 0.00000000e+00 9.10998706e-14
1.52577522e+01 5.21873572e-12 8.25330452e-14 0.00000000e+00 5.13620267e-12 0.00000000e+00 8.25330452e-14
1.57683840e+01 5.35477653e-12 7.47718247e-14 0.00000000e+00 5.28000471e-12 0.00000000e+00 7.47718247e-14
1.62961051e+01 5.50402388e-12 6.77404517e-14 0.00000000e+00 5.43628343e-12 0.00000000e+00 6.77404517e-14
1.68414875e+01 5.65051161e-12 6.13702932e-14 0.00000000e+00 5.58914132e-12 0.00000000e+00 6.13702932e-14
1.74051222e+01 5.72096538e-12 5.55991699e-14 0.00000000e+00 5.66536621e-12 0.00000000e+00 5.55991699e-14
1.79876201e+01 5.73941343e-12 5.03707500e-14 0.00000000e+00 5.68904268e-12 0.00000000e+00 5.03707500e-14
1.85896125e+01 5.67706508e-12 4.56339988e-14 0.00000000e+00 5.63143108e-12 0.00000000e+00 4.56339988e-14
1.92117518e+01 5.50458519e-12 4.13426810e-14 0.00000000e+00 5.46324250e-12 0.00000000e+00 4.13426810e-14
1.98547123e+01 5.29896420e-12 3.74549090e-14 0.00000000e+00 5.26150929e-12 0.00000000e+00 3.74549090e-14
2.05191907e+01 5.05268686e-12 3.39327342e-14 0.00000000e+00 5.01875413e-12 0.00000000e+00 3.39327342e-14
2.12059073e+01 4.81719724e-12 3.07417768e-14 0.00000000e+00 4.78645547e-12 0.00000000e+00 3.07417768e-14
2.19156062e+01 4.60538010e-12 2.78508898e-14 0.00000000e+00 4.57752921e-12 0.00000000e+00 2.78508898e-14
2.26490567e+01 4.40520019e-12 2.52318552e-14 0.00000000e+00 4.37996833e-12 0.00000000e+00 2.52318552e-14
2.34070535e+01 4.19911216e-12 2.28591087e-14 0.00000000e+00 4.17625305e-12 0.00000000e+00 2.28591087e-14
2.41904183e+01 4.00822245e-12 2.07094900e-14 0.00000000e+00 3.98751296e-12 0.00000000e+00 2.07094900e-14
2.50000000e+01 3.82226976e-12 1.87620165e-14 0.00000000e+00 3.80350774e-12 0.00000000e+00 1.87620165e-14
2.75422870e+01 3.29255435e-12 1.40313526e-14 0.00000000e+00 3.27852300e-12 0.00000000e+00 1.40313526e-14
3.16227766e+01 2.58374749e-12 9.27042274e-15 0.00000000e+00 2.57447707e-12 0.00000000e+00 9.27042274e-15
3.63078055e+01 1.91889670e-12 6.12490756e-15 0.00000000e+00 1.91277179e-12 0.00000000e+00 6.12490756e-15
4.16869383e+01 1.33086151e-12 4.04668630e-15 0.00000000e+00 1.32681483e-12 0.00000000e+00 4.04668630e-15
4.78630092e+01 8.63488861e-13 2.67361912e-15 0.00000000e+00 8.60815242e-13 0.00000000e+00 2.67361912e-15
5.49540874e+01 5.31418573e-13 1.76644264e-15 0.00000000e+00 5.29652130e-13 0.00000000e+00 1.76644264e-15
6.30957344e+01 3.13961981e-13 1.16707708e-15 0.00000000e+00 3.12794904e-13 0.00000000e+00 1.16707708e-15
7.24435960e+01 1.79806835e-13 7.71080178e-16 0.00000000e+00 1.79035755e-13 0.00000000e+00 7.71080178e-16
8.31763771e+01 1.00706821e-13 5.09447621e-16 0.00000000e+00 1.00197374e-13 0.00000000e+00 5.09447621e-16
9.54992586e+01 5.55636977e-14 3.36588705e-16 0.00000000e+00 5.52271090e-14 0.00000000e+00 3.36588705e-16
1.09647820e+02 3.03173937e-14 2.22381952e-16 0.00000000e+00 3.00950117e-14 0.00000000e+00 2.22381952e-16
1.25892541e+02 1.65975105e-14 1.46926299e-16 0.00000000e+00 1.64505842e-14 0.00000000e+00 1.46926299e-16
1.44543977e+02 9.05943793e-15 9.70732430e-17 0.00000000e+00 8.96236469e-15 0.00000000e+00 9.70732430e-17
1.65958691e+02 4.71699206e-15 6.41356556e-17 0.00000000e+00 4.65285641e-15 0.00000000e+00 6.41356556e-17
1.90546072e+02 2.46413668e-15 4.23740075e-17 0.00000000e+00 2.42176268e-15 0.00000000e+00 4.23740075e-17
2.18776162e+02 1.28800532e-15 2.79962291e-17 0.00000000e+00 1.26000909e-15 0.00000000e+00 2.79962291e-17
2.51188643e+02 6.72340587e-16 1.84969251e-17 0.00000000e+00 6.53843661e-16 0.00000000e+00 1.84969251e-17
2.88403150e+02 3.50147335e-16 1.22207972e-17 0.00000000e+00 3.37926537e-16 0.00000000e+00 1.22207972e-17
3.31131121e+02 1.82323787e-16 8.07420067e-18 0.00000000e+00 1.74249586e-16 0.00000000e+00 8.07420067e-18
3.80189396e+02 9.48701269e-17 5.33457148e-18 0.00000000e+00 8.95355554e-17 0.00000000e+00 5.33457148e-18
4.36515832e+02 4.94281299e-17 3.52451642e-18 0.00000000e+00 4.59036135e-17 0.00000000e+00 3.52451642e-18
5.01187234e+02 2.58025650e-17 2.32862491e-18 0.00000000e+00 2.34739401e-17 0.00000000e+00 2.32862491e-18
5.75439937e+02 1.35171612e-17 1.53850722e-18 0.00000000e+00 1.19786540e-17 0.00000000e+00 1.53850722e-18
6.60693448e+02 7.11788231e-18 1.01648164e-18 0.00000000e+00 6.10140067e-18 0.00000000e+00 1.01648164e-18
7.58577575e+02 3.77432633e-18 6.71582760e-19 0.00000000e+00 3.10274357e-18 0.00000000e+00 6.71582760e-19
8.70963590e+02 2.01891896e-18 4.43710329e-19 0.00000000e+00 1.57520863e-18 0.00000000e+00 4.43710329e-19
1.00000000e+03 7.98439752e-19 0.00000000e+00 0.00000000e+00 7.98439752e-19 0.00000000e+00 0.00000000e+00
