# column 1: lambda (micron)
# column 2: total flux; lambda*F_lambda (W/m2)
# column 3: direct stellar flux; lambda*F_lambda (W/m2)
# column 4: scattered stellar flux; lambda*F_lambda (W/m2)
# column 5: total dust emission flux; lambda*F_lambda (W/m2)
# column 6: dust emission scattered flux; lambda*F_lambda (W/m2)
# column 7: transparent flux; lambda*F_lambda (W/m2)
1.00000000e-03 8.46529452e-13 8.46529401e-13 5.15199373e-20 0.00000000e+00 0.00000000e+00 8.46529401e-13
1.14815362e-03 9.99176207e-13 9.99176121e-13 8.59913766e-20 0.00000000e+00 0.00000000e+00 9.99176121e-13
1.31825674e-03 1.17934834e-12 1.17934819e-12 1.42911929e-19 0.00000000e+00 0.00000000e+00 1.17934819e-12
1.51356125e-03 1.39200921e-12 1.39200901e-12 2.02328433e-19 0.00000000e+00 0.00000000e+00 1.39200901e-12
1.73780083e-03 1.64301733e-12 1.64301696e-12 3.70116276e-19 0.00000000e+00 0.00000000e+00 1.64301696e-12
1.99526231e-03 1.93928747e-12 1.93928682e-12 6.49577741e-19 0.00000000e+00 0.00000000e+00 1.93928682e-12
2.29086765e-03 2.28898137e-12 2.28898025e-12 1.11311191e-18 0.00000000e+00 0.00000000e+00 2.28898025e-12
2.63026799e-03 2.70173274e-12 2.70173063e-12 2.10886138e-18 0.00000000e+00 0.00000000e+00 2.70173063e-12
3.01995172e-03 3.18891199e-12 3.18890841e-12 3.57229091e-18 0.00000000e+00 0.00000000e+00 3.18890841e-12
3.46736850e-03 3.76394060e-12 3.76393440e-12 6.20002664e-18 0.00000000e+00 0.00000000e+00 3.76393440e-12
3.98107171e-03 4.44266047e-12 4.44264945e-12 1.10192851e-17 0.00000000e+00 0.00000000e+00 4.44264945e-12
4.57088190e-03 5.24377335e-12 5.24375082e-12 2.25308750e-17 0.00000000e+00 0.00000000e+00 5.24375082e-12
5.24807460e-03 6.18934592e-12 6.18930730e-12 3.86189950e-17 0.00000000e+00 0.00000000e+00 6.18930730e-12
6.02559586e-03 7.30543710e-12 7.30536713e-12 6.99722403e-17 0.00000000e+00 0.00000000e+00 7.30536713e-12
6.91830971e-03 8.62278745e-12 8.62267558e-12 1.11878503e-16 0.00000000e+00 0.00000000e+00 8.62267558e-12
7.94328235e-03 1.01777233e-11 1.01775219e-11 2.01383017e-16 3.19542195e-304 1.26885970e-307 1.01775219e-11
9.12010839e-03 1.20130459e-11 1.20127391e-11 3.06783100e-16 1.42893533e-265 7.80566468e-269 1.20127391e-11
1.04712855e-02 1.34170371e-11 1.34165878e-11 4.49211380e-16 6.14394890e-232 4.13643615e-235 1.34165878e-11
1.20226443e-02 1.34172395e-11 1.34165878e-11 6.51660465e-16 9.76699605e-203 1.00889926e-205 1.34165878e-11
1.38038426e-02 1.34175706e-11 1.34165878e-11 9.82715285e-16 2.69561473e-177 4.03420810e-180 1.34165878e-11
1.58489319e-02 1.34178636e-11 1.34165878e-11 1.27574702e-15 3.68739936e-155 7.59079184e-158 1.34165878e-11
1.81970086e-02 1.34190673e-11 1.34165878e-11 2.47943850e-15 6.64590620e-136 2.21674010e-138 1.34165878e-11
2.08929613e-02 1.34191206e-11 1.34165878e-11 2.53272275e-15 3.50059895e-119 1.51737222e-121 1.34165878e-11
2.39883292e-02 1.34198411e-11 1.34165878e-11 3.25330334e-15 1.23759067e-104 7.46304762e-107 1.34165878e-11
2.75422870e-02 1.34211348e-11 1.34165878e-11 4.54695934e-15 5.57474905e-92 4.33718253e-94 1.34165878e-11
3.16227766e-02 1.34226402e-11 1.34165878e-11 6.05231884e-15 5.46652001e-81 5.41698343e-83 1.34165878e-11
3.63078055e-02 1.34238106e-11 1.34165878e-11 7.22277617e-15 1.90488545e-71 2.21818827e-73 1.34165878e-11
4.16869383e-02 1.34260405e-11 1.34165878e-11 9.45262256e-15 3.63974539e-63 6.09786229e-65 1.34165878e-11
4.78630092e-02 1.34305587e-11 1.34165878e-11 1.39709048e-14 5.52574414e-56 1.28310961e-57 1.34165878e-11
5.49540874e-02 1.34352347e-11 1.34165878e-11 1.86468977e-14 9.23484080e-50 2.78855961e-51 1.34165878e-11
6.30957344e-02 1.34403593e-11 1.34165878e-11 2.37714701e-14 3.01036622e-44 1.20426278e-45 1.34165878e-11
7.24435960e-02 1.34429630e-11 1.34165878e-11 2.63752098e-14 1.75700923e-39 7.30640987e-41 1.34165878e-11
8.31763771e-02 1.34412378e-11 1.34165878e-11 2.46499582e-14 1.80300558e-35 7.48766959e-37 1.34165878e-11
9.54992586e-02 1.34421033e-11 1.34165878e-11 2.55154499e-14 5.08529147e-32 2.19188312e-33 1.34165878e-11
1.09647820e-01 1.28389913e-11 1.28127470e-11 2.62443521e-14 4.30635603e-29 1.94959720e-30 1.28127470e-11
1.25892541e-01 1.19782245e-11 1.19575512e-11 2.06732846e-14 1.38934841e-26 5.66681282e-28 1.19575512e-11
1.44543977e-01 1.11782255e-11 1.11594361e-11 1.87894104e-14 1.88812078e-24 7.15721246e-26 1.11594361e-11
1.65958691e-01 1.04345790e-11 1.04145917e-11 1.99872906e-14 9.54726705e-23 3.98043385e-24 1.04145917e-11
1.90546072e-01 9.74023038e-12 9.71946251e-12 2.07678641e-14 2.01332123e-21 1.05179544e-22 9.71946251e-12
2.18776162e-01 9.09449684e-12 9.07073019e-12 2.37666181e-14 2.39935835e-20 1.43582538e-21 9.07073019e-12
2.51188643e-01 8.49274583e-12 8.46529796e-12 2.74475750e-14 2.89831879e-19 2.10368164e-20 8.46529796e-12
2.88403150e-01 7.92360402e-12 7.90027573e-12 2.33258886e-14 2.40098638e-18 1.62456212e-19 7.90027573e-12
3.31131121e-01 7.39411360e-12 7.37296631e-12 2.11335731e-14 1.37246631e-17 8.70923050e-19 7.37296631e-12
3.80189396e-01 6.90011792e-12 6.88085251e-12 1.92082939e-14 5.71154584e-17 3.46725503e-18 6.88085251e-12
4.36515832e-01 6.43997155e-12 6.42158520e-12 1.82056266e-14 1.80723464e-16 1.09310532e-17 6.42158520e-12
5.01187234e-01 6.00889445e-12 5.99297201e-12 1.54720395e-14 4.50406915e-16 2.66209731e-17 5.99297201e-12
5.75439937e-01 5.60881215e-12 5.59296690e-12 1.49191640e-14 9.26081399e-16 5.44179422e-17 5.59296690e-12
6.60693448e-01 5.23470138e-12 5.21966041e-12 1.34109285e-14 1.63004134e-15 9.66066240e-17 5.21966041e-12
7.58577575e-01 4.88682578e-12 4.87127053e-12 1.29847895e-14 2.57046258e-15 1.49067763e-16 4.87127053e-12
8.70963590e-01 4.56162575e-12 4.54613417e-12 1.17187380e-14 3.77284274e-15 2.10526303e-16 4.54613417e-12
1.00000000e+00 4.25850866e-12 4.24269927e-12 1.04367879e-14 5.37260520e-15 2.91635348e-16 4.24269927e-12
1.14815362e+00 3.97551030e-12 3.95951734e-12 8.03769332e-15 7.95526472e-15 4.11938746e-16 3.95951734e-12
1.31825674e+00 3.71457425e-12 3.69523659e-12 6.58533444e-15 1.27523293e-14 6.51293173e-16 3.69523659e-12
1.51356125e+00 3.47545336e-12 3.44859544e-12 5.24336654e-15 2.16145567e-14 1.05455828e-15 3.44859544e-12
1.73780083e+00 3.25897598e-12 3.21841652e-12 3.96723720e-15 3.65922211e-14 1.66650050e-15 3.21841652e-12
1.99526231e+00 3.06550860e-12 3.00360106e-12 3.04026068e-15 5.88672734e-14 2.27297866e-15 3.00360106e-12
2.29086765e+00 2.89283179e-12 2.80312361e-12 2.10387840e-15 8.76043051e-14 2.79156131e-15 2.80312361e-12
2.63026799e+00 2.73798246e-12 2.61602716e-12 1.45486581e-15 1.20500434e-13 3.03318778e-15 2.61602716e-12
3.01995172e+00 2.59533832e-12 2.44141860e-12 1.05863581e-15 1.52861080e-13 2.99577231e-15 2.44141860e-12
3.46736850e+00 2.46080081e-12 2.27846441e-12 7.05341250e-16 1.81631058e-13 2.65294947e-15 2.27846441e-12
3.98107171e+00 2.32842524e-12 2.12638671e-12 4.33054559e-16 2.01605474e-13 2.21367195e-15 2.12638671e-12
4.57088190e+00 2.19607399e-12 1.98445954e-12 3.07322598e-16 2.11307125e-13 1.67298868e-15 1.98445954e-12
5.24807460e+00 1.85301138e-12 1.64084388e-12 1.65733621e-16 2.12001771e-13 1.17163341e-15 1.64084388e-12
6.02559586e+00 1.28970653e-12 1.08409480e-12 6.98075178e-17 2.05541920e-13 7.53999932e-16 1.08409480e-12
6.70000000e+00 9.85200131e-13 7.88574724e-13 3.86541434e-17 1.96586752e-13 5.10727101e-16 7.88574724e-13
6.92422916e+00 9.07786971e-13 7.14418944e-13 3.06091165e-17 1.93337418e-13 4.51146122e-16 7.14418944e-13
7.15596261e+00 8.38814386e-13 6.47236606e-13 2.30264502e-17 1.91554754e-13 3.85344221e-16 6.47236606e-13
7.39545150e+00 7.79421891e-13 5.86371942e-13 1.72991140e-17 1.93032649e-13 3.32119931e-16 5.86371942e-13
7.64295536e+00 7.37212979e-13 5.31230854e-13 1.27656744e-17 2.05969360e-13 2.75944392e-16 5.31230854e-13
7.89874245e+00 7.18188139e-13 4.81275108e-13 8.12363426e-18 2.36904907e-13 2.22876398e-16 4.81275108e-13
8.16308998e+00 7.20271181e-13 4.36017088e-13 4.47631045e-18 2.84249617e-13 1.75856349e-16 4.36017088e-13
8.43628443e+00 7.46321585e-13 3.95015029e-13 2.56683342e-18 3.51303989e-13 1.34829278e-16 3.95015029e-13
8.71862190e+00 7.60181055e-13 3.57868711e-13 1.68125169e-18 4.02310663e-13 1.04583330e-16 3.57868711e-13
9.01040836e+00 7.82826162e-13 3.24215549e-13 1.05019161e-18 4.58609563e-13 7.77380439e-17 3.24215549e-13
9.31196005e+00 7.98510421e-13 2.93727053e-13 0.00000000e+00 5.04783368e-13 0.00000000e+00 2.93727053e-13
9.62360379e+00 7.74170989e-13 2.66105627e-13 0.00000000e+00 5.08065362e-13 0.00000000e+00 2.66105627e-13
9.94567731e+00 7.20360156e-13 2.41081657e-13 0.00000000e+00 4.79278499e-13 0.00000000e+00 2.41081657e-13
1.02785297e+01 6.58278195e-13 2.18410884e-13 0.00000000e+00 4.39867311e-13 0.00000000e+00 2.18410884e-13
1.06225216e+01 5.98265312e-13 1.97872020e-13 0.00000000e+00 4.00393293e-13 0.00000000e+00 1.97872020e-13
1.09780260e+01 5.35601596e-13 1.79264583e-13 0.00000000e+00 3.56337013e-13 0.00000000e+00 1.79264583e-13
1.13454280e+01 4.81321756e-13 1.62406948e-13 0.00000000e+00 3.18914808e-13 0.00000000e+00 1.62406948e-13
1.17251259e+01 4.32746203e-13 1.47134567e-13 0.00000000e+00 2.85611636e-13 0.00000000e+00 1.47134567e-13
1.21175312e+01 3.89328329e-13 1.33298366e-13 0.00000000e+00 2.56029963e-13 0.00000000e+00 1.33298366e-13
1.25230691e+01 3.51436705e-13 1.20763289e-13 0.00000000e+00 2.30673415e-13 0.00000000e+00 1.20763289e-13
1.29421791e+01 3.17739080e-13 1.09406983e-13 0.00000000e+00 2.08332097e-13 0.00000000e+00 1.09406983e-13
1.33753155e+01 2.88539695e-13 9.91185987e-14 0.00000000e+00 1.89421097e-13 0.00000000e+00 9.91185987e-14
1.38229477e+01 2.67502394e-13 8.97977103e-14 0.00000000e+00 1.77704684e-13 0.00000000e+00 8.97977103e-14
1.42855609e+01 2.52538403e-13 8.13533371e-14 0.00000000e+00 1.71185066e-13 0.00000000e+00 8.13533371e-14
1.47636563e+01 2.47611826e-13 7.37030537e-14 0.00000000e+00 1.73908772e-13 0.00000000e+00 7.37030537e-14
1.52577522e+01 2.45698689e-13 6.67721855e-14 0.00000000e+00 1.78926504e-13 0.00000000e+00 6.67721855e-14
1.57683840e+01 2.46446231e-13 6.04930805e-14 0.00000000e+00 1.85953151e-13 0.00000000e+00 6.04930805e-14
1.62961051e+01 2.47576621e-13 5.48044484e-14 0.00000000e+00 1.92772173e-13 0.00000000e+00 5.48044484e-14
1.68414875e+01 2.49851578e-13 4.96507622e-14 0.00000000e+00 2.00200816e-13 0.00000000e+00 4.96507622e-14
1.74051222e+01 2.48688406e-13 4.49817171e-14 0.00000000e+00 2.03706689e-13 0.00000000e+00 4.49817171e-14
1.79876201e+01 2.46794935e-13 4.07517384e-14 0.00000000e+00 2.06043197e-13 0.00000000e+00 4.07517384e-14
1.85896125e+01 2.40654521e-13 3.69195372e-14 0.00000000e+00 2.03734984e-13 0.00000000e+00 3.69195372e-14
1.92117518e+01 2.30865584e-13 3.34477076e-14 0.00000000e+00 1.97417877e-13 0.00000000e+00 3.34477076e-14
1.98547123e+01 2.21220198e-13 3.03023610e-14 0.00000000e+00 1.90917837e-13 0.00000000e+00 3.03023610e-14
2.05191907e+01 2.09642743e-13 2.74527957e-14 0.00000000e+00 1.82189947e-13 0.00000000e+00 2.74527957e-14
2.12059073e+01 1.98680336e-13 2.48711970e-14 0.00000000e+00 1.73809139e-13 0.00000000e+00 2.48711970e-14
2.19156062e+01 1.89525898e-13 2.25323660e-14 0.00000000e+00 1.66993532e-13 0.00000000e+00 2.25323660e-14
2.26490567e+01 1.80972664e-13 2.04134733e-14 0.00000000e+00 1.60559191e-13 0.00000000e+00 2.04134733e-14
2.34070535e+01 1.73239885e-13 1.84938366e-14 0.00000000e+00 1.54746048e-13 0.00000000e+00 1.84938366e-14
2.41904183e+01 1.65670626e-13 1.67547181e-14 0.00000000e+00 1.48915908e-13 0.00000000e+00 1.67547181e-14
2.50000000e+01 1.58647537e-13 1.51791424e-14 0.00000000e+00 1.43468394e-13 0.00000000e+00 1.51791424e-14
2.75422870e+01 1.39544551e-13 1.13518661e-14 0.00000000e+00 1.28192685e-13 0.00000000e+00 1.13518661e-14
3.16227766e+01 1.15335777e-13 7.50010357e-15 0.00000000e+00 1.07835673e-13 0.00000000e+00 7.50010357e-15
3.63078055e+01 9.17199996e-14 4.95526929e-15 0.00000000e+00 8.67647303e-14 0.00000000e+00 4.95526929e-15
4.16869383e+01 6.90434451e-14 3.27391395e-15 0.00000000e+00 6.57695311e-14 0.00000000e+00 3.27391395e-15
4.78630092e+01 4.89448652e-14 2.16305350e-15 0.00000000e+00 4.67818117e-14 0.00000000e+00 2.16305350e-15
5.49540874e+01 3.29350151e-14 1.42911527e-15 0.00000000e+00 3.15058998e-14 0.00000000e+00 1.42911527e-15
6.30957344e+01 2.11845636e-14 9.44207098e-16 0.00000000e+00 2.02403565e-14 0.00000000e+00 9.44207098e-16
7.24435960e+01 1.31203672e-14 6.23831443e-16 0.00000000e+00 1.24965358e-14 0.00000000e+00 6.23831443e-16
8.31763771e+01 7.88737176e-15 4.12161347e-16 0.00000000e+00 7.47521041e-15 0.00000000e+00 4.12161347e-16
9.54992586e+01 4.63705303e-15 2.72312302e-16 0.00000000e+00 4.36474073e-15 0.00000000e+00 2.72312302e-16
1.09647820e+02 2.67844683e-15 1.79914953e-16 0.00000000e+00 2.49853188e-15 0.00000000e+00 1.79914953e-16
1.25892541e+02 1.54150091e-15 1.18868631e-16 0.00000000e+00 1.42263227e-15 0.00000000e+00 1.18868631e-16
1.44543977e+02 8.80721296e-16 7.85357256e-17 0.00000000e+00 8.02185570e-16 0.00000000e+00 7.85357256e-17
1.65958691e+02 4.81644150e-16 5.18880394e-17 0.00000000e+00 4.29756110e-16 0.00000000e+00 5.18880394e-17
1.90546072e+02 2.63921936e-16 3.42820876e-17 0.00000000e+00 2.29639848e-16 0.00000000e+00 3.42820876e-17
2.18776162e+02 1.44789049e-16 2.26499507e-17 0.00000000e+00 1.22139098e-16 0.00000000e+00 2.26499507e-17
2.51188643e+02 7.95351249e-17 1.49646740e-17 0.00000000e+00 6.45704509e-17 0.00000000e+00 1.49646740e-17
2.88403150e+02 4.37890927e-17 9.88706207e-18 0.00000000e+00 3.39020306e-17 0.00000000e+00 9.88706207e-18
3.31131121e+02 2.42497819e-17 6.53231713e-18 0.00000000e+00 1.77174647e-17 0.00000000e+00 6.53231713e-18
3.80189396e+02 1.35240934e-17 4.31585913e-18 0.00000000e+00 9.20823429e-18 0.00000000e+00 4.31585913e-18
4.36515832e+02 7.61856517e-18 2.85145985e-18 0.00000000e+00 4.76710532e-18 0.00000000e+00 2.85145985e-18
5.01187234e+02 4.34207607e-18 1.88394084e-18 0.00000000e+00 2.45813523e-18 0.00000000e+00 1.88394084e-18
5.75439937e+02 2.50804410e-18 1.24470737e-18 0.00000000e+00 1.26333673e-18 0.00000000e+00 1.24470737e-18
6.60693448e+02 1.46980313e-18 8.22370004e-19 0.00000000e+00 6.47433122e-19 0.00000000e+00 8.22370004e-19
7.58577575e+02 8.74304837e-19 5.43334473e-19 0.00000000e+00 3.30970364e-19 0.00000000e+00 5.43334473e-19
8.70963590e+02 5.27763533e-19 3.58977527e-19 0.00000000e+00 1.68786006e-19 0.00000000e+00 3.58977527e-19
1.00000000e+03 8.58867292e-20 0.00000000e+00 0.00000000e+00 8.58867292e-20 0.00000000e+00 0.00000000e+00
