# column 1: lambda (micron)
# column 2: total flux; lambda*F_lambda (W/m2)
# column 3: direct stellar flux; lambda*F_lambda (W/m2)
# column 4: scattered stellar flux; lambda*F_lambda (W/m2)
# column 5: total dust emission flux; lambda*F_lambda (W/m2)
# column 6: dust emission scattered flux; lambda*F_lambda (W/m2)
# column 7: transparent flux; lambda*F_lambda (W/m2)
1.00000000e-03 2.05478034e-13 2.05470449e-13 7.58479159e-18 0.00000000e+00 0.00000000e+00 2.06075710e-13
1.14815362e-03 2.42295224e-13 2.42292020e-13 3.20377123e-18 0.00000000e+00 0.00000000e+00 2.43235413e-13
1.31825674e-03 2.85688709e-13 2.85680793e-13 7.91654623e-18 0.00000000e+00 0.00000000e+00 2.87095777e-13
1.51356125e-03 3.36911814e-13 3.36896902e-13 1.49119345e-17 0.00000000e+00 0.00000000e+00 3.38865070e-13
1.73780083e-03 3.97641868e-13 3.97622427e-13 1.94409945e-17 0.00000000e+00 0.00000000e+00 3.99969435e-13
1.99526231e-03 4.68449571e-13 4.68422851e-13 2.67196752e-17 0.00000000e+00 0.00000000e+00 4.72092178e-13
2.29086765e-03 5.52680325e-13 5.52628542e-13 5.17830056e-17 0.00000000e+00 0.00000000e+00 5.57220139e-13
2.63026799e-03 6.53213436e-13 6.51209190e-13 2.00424557e-15 0.00000000e+00 0.00000000e+00 6.57698429e-13
3.01995172e-03 7.67108920e-13 7.66833126e-13 2.75794386e-16 0.00000000e+00 0.00000000e+00 7.76295028e-13
3.46736850e-03 9.04100262e-13 9.03127942e-13 9.72320316e-16 0.00000000e+00 0.00000000e+00 9.16277040e-13
3.98107171e-03 1.06440051e-12 1.06375389e-12 6.46618789e-16 0.00000000e+00 0.00000000e+00 1.08150070e-12
4.57088190e-03 1.26391887e-12 1.26250657e-12 1.41230064e-15 0.00000000e+00 0.00000000e+00 1.27651759e-12
5.24807460e-03 1.48876872e-12 1.48560996e-12 3.15875762e-15 0.00000000e+00 0.00000000e+00 1.50670006e-12
6.02559586e-03 1.75673479e-12 1.74841776e-12 8.31703293e-15 0.00000000e+00 0.00000000e+00 1.77838917e-12
6.91830971e-03 2.07231272e-12 2.05829425e-12 1.40184703e-14 0.00000000e+00 0.00000000e+00 2.09906943e-12
7.94328235e-03 2.44702313e-12 2.42394132e-12 2.30818147e-14 1.05340679e-303 2.71818472e-305 2.47757497e-12
9.12010839e-03 2.87320005e-12 2.85416751e-12 1.90325396e-14 6.50492163e-265 4.85276226e-266 2.92433286e-12
1.04712855e-02 3.20777522e-12 3.18277493e-12 2.50002870e-14 3.55842388e-231 2.96607039e-232 3.26608014e-12
1.20226443e-02 3.23039852e-12 3.17792536e-12 5.24731615e-14 6.86684950e-202 4.59094059e-203 3.26608014e-12
1.38038426e-02 3.24019180e-12 3.17218281e-12 6.80089925e-14 2.27776386e-176 1.73647457e-177 3.26608014e-12
1.58489319e-02 3.23352312e-12 3.16513987e-12 6.83832502e-14 3.72217444e-154 3.47889265e-155 3.26608014e-12
1.81970086e-02 3.24768775e-12 3.15865788e-12 8.90298683e-14 7.57982629e-135 6.43211903e-136 3.26608014e-12
2.08929613e-02 3.25054481e-12 3.15328006e-12 9.72647505e-14 4.38153321e-118 2.65375515e-119 3.26608014e-12
2.39883292e-02 3.25143305e-12 3.14632582e-12 1.05107227e-13 1.72796616e-103 1.28762286e-104 3.26608014e-12
2.75422870e-02 3.24503971e-12 3.13825613e-12 1.06783586e-13 8.49325491e-91 6.32094469e-92 3.26608014e-12
3.16227766e-02 3.24333680e-12 3.13036617e-12 1.12970633e-13 8.97535695e-80 6.76302594e-81 3.26608014e-12
3.63078055e-02 3.23765519e-12 3.12419155e-12 1.13463641e-13 3.31728709e-70 2.28139650e-71 3.26608014e-12
4.16869383e-02 3.22827510e-12 3.11886080e-12 1.09414298e-13 6.73360065e-62 5.22906181e-63 3.26608014e-12
4.78630092e-02 3.20487265e-12 3.10421376e-12 1.00658895e-13 1.07098645e-54 8.85200749e-56 3.26608014e-12
5.49540874e-02 3.18716770e-12 3.08395854e-12 1.03209163e-13 1.83802051e-48 1.48901656e-49 3.26608014e-12
6.30957344e-02 3.14299261e-12 3.03374789e-12 1.09244716e-13 6.07270007e-43 4.72385280e-44 3.26608014e-12
7.24435960e-02 3.08032693e-12 2.97532935e-12 1.04997582e-13 3.52758106e-38 2.43023207e-39 3.26608014e-12
8.31763771e-02 3.07919997e-12 2.98048182e-12 9.87181468e-14 3.78839749e-34 2.58531839e-35 3.26608014e-12
9.54992586e-02 3.09224448e-12 2.99564527e-12 9.65992125e-14 1.09406597e-30 7.64227399e-32 3.26608014e-12
1.09647820e-01 2.99737575e-12 2.90297708e-12 9.43986675e-14 9.67366908e-28 7.22713628e-29 3.11908354e-12
1.25892541e-01 2.83065221e-12 2.74383686e-12 8.68153484e-14 3.25812163e-25 2.56944921e-26 2.91089813e-12
1.44543977e-01 2.66155657e-12 2.58673186e-12 7.48247118e-14 4.58268989e-23 3.86511369e-24 2.71660820e-12
1.65958691e-01 2.49875963e-12 2.42896042e-12 6.97992010e-14 2.38635203e-21 2.10209539e-22 2.53528629e-12
1.90546072e-01 2.33197844e-12 2.26035471e-12 7.16236826e-14 5.10864737e-20 5.00019696e-21 2.36606683e-12
2.18776162e-01 2.16146496e-12 2.09286823e-12 6.85961323e-14 5.98403688e-19 5.75658241e-20 2.20814205e-12
2.51188643e-01 2.04539781e-12 1.97426284e-12 7.11274255e-14 7.54879660e-18 8.91969376e-19 2.06075806e-12
2.88403150e-01 1.91834876e-12 1.85594993e-12 6.23341371e-14 6.46906278e-17 7.83768395e-18 1.92321132e-12
3.31131121e-01 1.79570440e-12 1.74000113e-12 5.53233051e-14 3.79967032e-16 4.59550948e-17 1.79484524e-12
3.80189396e-01 1.68064045e-12 1.63001545e-12 4.90138667e-14 1.61113161e-15 1.92119937e-16 1.67504704e-12
4.36515832e-01 1.57291308e-12 1.52660467e-12 4.10821587e-14 5.22625684e-15 6.25068461e-16 1.56324485e-12
5.01187234e-01 1.47981095e-12 1.42949844e-12 3.71172258e-14 1.31952837e-14 1.63137441e-15 1.45890498e-12
5.75439937e-01 1.39971579e-12 1.33817505e-12 3.36957806e-14 2.78449558e-14 3.37442027e-15 1.36152935e-12
6.60693448e-01 1.32940353e-12 1.25226882e-12 2.74340807e-14 4.97006366e-14 5.94211849e-15 1.27065312e-12
7.58577575e-01 1.27478510e-12 1.17154834e-12 2.43567776e-14 7.88799811e-14 9.07321652e-15 1.18584249e-12
8.70963590e-01 1.22934903e-12 1.09582583e-12 2.03789182e-14 1.13144287e-13 1.23926104e-14 1.10669260e-12
1.00000000e+00 1.19075814e-12 1.02469901e-12 1.71016466e-14 1.48957484e-13 1.54385721e-14 1.03282563e-12
1.14815362e+00 1.15933734e-12 9.57920332e-13 1.32151346e-14 1.88201878e-13 1.77436603e-14 9.63888963e-13
1.31825674e+00 1.13764937e-12 8.95246580e-13 1.03549125e-14 2.32047874e-13 1.96023049e-14 8.99553520e-13
1.51356125e+00 1.12970729e-12 8.36436136e-13 8.26353898e-15 2.85007613e-13 2.04157596e-14 8.39512191e-13
1.73780083e+00 1.13468223e-12 7.81317372e-13 5.61219311e-15 3.47752669e-13 2.05564331e-14 7.83478363e-13
1.99526231e+00 1.14545445e-12 7.29690368e-13 4.13936849e-15 4.11624716e-13 1.87036204e-14 7.31184552e-13
2.29086765e+00 1.15598307e-12 6.81351297e-13 2.86256678e-15 4.71769205e-13 1.62178759e-14 6.82381128e-13
2.63026799e+00 1.15441979e-12 6.36118735e-13 2.01257928e-15 5.16288479e-13 1.30076008e-14 6.36835122e-13
3.01995172e+00 1.13211734e-12 5.93824389e-13 1.40071741e-15 5.36892233e-13 9.99611235e-15 5.94329117e-13
3.46736850e+00 1.08786595e-12 5.54298810e-13 9.17220039e-16 5.32649923e-13 7.29839832e-15 5.54660204e-13
3.98107171e+00 1.02395710e-12 5.17376957e-13 5.88527629e-16 5.05991614e-13 5.16547156e-15 5.17639021e-13
4.57088190e+00 9.48668844e-13 4.82896217e-13 3.90545450e-16 4.65382082e-13 3.39440752e-15 4.83088843e-13
5.24807460e+00 8.18445382e-13 3.99312476e-13 2.23884879e-16 4.18909021e-13 2.12800546e-15 3.99440428e-13
6.02559586e+00 6.38209001e-13 2.63837422e-13 9.50429283e-17 3.74276536e-13 1.26999806e-15 2.63907674e-13
6.70000000e+00 5.32278720e-13 1.91922224e-13 4.70729059e-17 3.40309423e-13 8.12583352e-16 1.91967457e-13
6.92422916e+00 5.03207386e-13 1.73875730e-13 3.73332567e-17 3.29294323e-13 6.93824651e-16 1.73915272e-13
7.15596261e+00 4.79330292e-13 1.57525476e-13 3.04383672e-17 3.21774378e-13 5.91443190e-16 1.57560674e-13
7.39545150e+00 4.64672154e-13 1.42711376e-13 2.25169352e-17 3.21938261e-13 5.06432440e-16 1.42744025e-13
7.64295536e+00 4.72736699e-13 1.29286999e-13 1.59637918e-17 3.43433736e-13 4.24006878e-16 1.29320701e-13
7.89874245e+00 5.14060751e-13 1.17120228e-13 1.00399017e-17 3.96930483e-13 3.40385344e-16 1.17159675e-13
8.16308998e+00 5.79906884e-13 1.06093992e-13 5.73382752e-18 4.73807158e-13 2.72196557e-16 1.06142245e-13
8.43628443e+00 6.75672590e-13 9.61001400e-14 3.24020247e-18 5.79569210e-13 2.06207359e-16 9.61608686e-14
8.71862190e+00 7.38258539e-13 8.70505209e-14 2.18409548e-18 6.51205834e-13 1.57452799e-16 8.71181185e-14
9.01040836e+00 8.00377300e-13 7.88515462e-14 1.38114040e-18 7.21524373e-13 1.18956534e-16 7.89257281e-14
9.31196005e+00 8.49224353e-13 7.14257893e-14 0.00000000e+00 7.77798563e-13 0.00000000e+00 7.15037315e-14
9.62360379e+00 8.28969677e-13 6.47072108e-14 0.00000000e+00 7.64262466e-13 0.00000000e+00 6.47796826e-14
9.94567731e+00 7.66624697e-13 5.86263401e-14 0.00000000e+00 7.07998357e-13 0.00000000e+00 5.86879481e-14
1.02785297e+01 6.95020030e-13 5.31185711e-14 0.00000000e+00 6.41901459e-13 0.00000000e+00 5.31690665e-14
1.06225216e+01 6.22254570e-13 4.81282245e-14 0.00000000e+00 5.74126345e-13 0.00000000e+00 4.81691679e-14
1.09780260e+01 5.49359746e-13 4.36074469e-14 0.00000000e+00 5.05752299e-13 0.00000000e+00 4.36394486e-14
1.13454280e+01 4.87876802e-13 3.95105812e-14 0.00000000e+00 4.48366220e-13 0.00000000e+00 3.95356937e-14
1.17251259e+01 4.33804905e-13 3.57980135e-14 0.00000000e+00 3.98006891e-13 0.00000000e+00 3.58178467e-14
1.21175312e+01 3.86704445e-13 3.24340343e-14 0.00000000e+00 3.54270411e-13 0.00000000e+00 3.24496176e-14
1.25230691e+01 3.45616832e-13 2.93859185e-14 0.00000000e+00 3.16230914e-13 0.00000000e+00 2.93981291e-14
1.29421791e+01 3.09916628e-13 2.66239609e-14 0.00000000e+00 2.83292667e-13 0.00000000e+00 2.66335956e-14
1.33753155e+01 2.80234908e-13 2.41213761e-14 0.00000000e+00 2.56113532e-13 0.00000000e+00 2.41290327e-14
1.38229477e+01 2.59772183e-13 2.18536278e-14 0.00000000e+00 2.37918555e-13 0.00000000e+00 2.18599931e-14
1.42855609e+01 2.47277137e-13 1.97987966e-14 0.00000000e+00 2.27478340e-13 0.00000000e+00 1.98043289e-14
1.47636563e+01 2.46094691e-13 1.79367242e-14 0.00000000e+00 2.28157967e-13 0.00000000e+00 1.79419747e-14
1.52577522e+01 2.48072685e-13 1.62496789e-14 0.00000000e+00 2.31823006e-13 0.00000000e+00 1.62547521e-14
1.57683840e+01 2.50959785e-13 1.47212273e-14 0.00000000e+00 2.36238557e-13 0.00000000e+00 1.47261920e-14
1.62961051e+01 2.54611222e-13 1.33365216e-14 0.00000000e+00 2.41274700e-13 0.00000000e+00 1.33413743e-14
1.68414875e+01 2.58125550e-13 1.20820491e-14 0.00000000e+00 2.46043501e-13 0.00000000e+00 1.20867817e-14
1.74051222e+01 2.58086808e-13 1.09456740e-14 0.00000000e+00 2.47141134e-13 0.00000000e+00 1.09501681e-14
1.79876201e+01 2.55599001e-13 9.91624306e-15 0.00000000e+00 2.45682758e-13 0.00000000e+00 9.92043915e-15
1.85896125e+01 2.49840494e-13 8.98374691e-15 0.00000000e+00 2.40856747e-13 0.00000000e+00 8.98754353e-15
1.92117518e+01 2.40589654e-13 8.13904046e-15 0.00000000e+00 2.32450614e-13 0.00000000e+00 8.14237531e-15
1.98547123e+01 2.29459365e-13 7.37381271e-15 0.00000000e+00 2.22085552e-13 0.00000000e+00 7.37668479e-15
2.05191907e+01 2.18266779e-13 6.68054949e-15 0.00000000e+00 2.11586229e-13 0.00000000e+00 6.68299807e-15
2.12059073e+01 2.07661594e-13 6.05245687e-15 0.00000000e+00 2.01609137e-13 0.00000000e+00 6.05454408e-15
2.19156062e+01 1.98068603e-13 5.48340063e-15 0.00000000e+00 1.92585203e-13 0.00000000e+00 5.48518847e-15
2.26490567e+01 1.89450725e-13 4.96783993e-15 0.00000000e+00 1.84482885e-13 0.00000000e+00 4.96937378e-15
2.34070535e+01 1.80850989e-13 4.50074675e-15 0.00000000e+00 1.76350242e-13 0.00000000e+00 4.50206513e-15
2.41904183e+01 1.73457471e-13 4.07756509e-15 0.00000000e+00 1.69379906e-13 0.00000000e+00 4.07870113e-15
2.50000000e+01 1.66157617e-13 3.69416829e-15 0.00000000e+00 1.62463449e-13 0.00000000e+00 3.69514932e-15
2.75422870e+01 1.46280977e-13 2.76281280e-15 0.00000000e+00 1.43518164e-13 0.00000000e+00 2.76345259e-15
3.16227766e+01 1.19910568e-13 1.82544351e-15 0.00000000e+00 1.18085124e-13 0.00000000e+00 1.82579502e-15
3.63078055e+01 9.39300746e-14 1.20609870e-15 0.00000000e+00 9.27239759e-14 0.00000000e+00 1.20629081e-15
4.16869383e+01 6.90744615e-14 7.96886219e-16 0.00000000e+00 6.82775753e-14 0.00000000e+00 7.96988434e-16
4.78630092e+01 4.78010132e-14 5.26512341e-16 0.00000000e+00 4.72745009e-14 0.00000000e+00 5.26565037e-16
5.49540874e+01 3.14560066e-14 3.47871481e-16 0.00000000e+00 3.11081352e-14 0.00000000e+00 3.47898070e-16
6.30957344e+01 1.98711034e-14 2.29840730e-16 0.00000000e+00 1.96412627e-14 0.00000000e+00 2.29853975e-16
7.24435960e+01 1.21414510e-14 1.51856465e-16 0.00000000e+00 1.19895946e-14 0.00000000e+00 1.51863015e-16
8.31763771e+01 7.23588051e-15 1.00331665e-16 0.00000000e+00 7.13554884e-15 0.00000000e+00 1.00334899e-16
9.54992586e+01 4.22860435e-15 6.62890095e-17 0.00000000e+00 4.16231534e-15 0.00000000e+00 6.62906105e-17
1.09647820e+02 2.43213537e-15 4.37969768e-17 0.00000000e+00 2.38833839e-15 0.00000000e+00 4.37977720e-17
1.25892541e+02 1.39633979e-15 2.89365002e-17 0.00000000e+00 1.36740329e-15 0.00000000e+00 2.89369010e-17
1.44543977e+02 7.95382043e-16 1.91182174e-17 0.00000000e+00 7.76263826e-16 0.00000000e+00 1.91184209e-17
1.65958691e+02 4.30387836e-16 1.26313156e-17 0.00000000e+00 4.17756521e-16 0.00000000e+00 1.26314154e-17
1.90546072e+02 2.32743441e-16 8.34544399e-18 0.00000000e+00 2.24397997e-16 0.00000000e+00 8.34549342e-18
2.18776162e+02 1.25518044e-16 5.51378820e-18 0.00000000e+00 1.20004255e-16 0.00000000e+00 5.51381282e-18
2.51188643e+02 6.74231293e-17 3.64292770e-18 0.00000000e+00 6.37802016e-17 0.00000000e+00 3.64294000e-18
2.88403150e+02 3.60613386e-17 2.40686044e-18 0.00000000e+00 3.36544781e-17 0.00000000e+00 2.40686659e-18
3.31131121e+02 1.92578767e-17 1.59019790e-18 0.00000000e+00 1.76676788e-17 0.00000000e+00 1.59020099e-18
3.80189396e+02 1.02710678e-17 1.05063383e-18 0.00000000e+00 9.22043397e-18 0.00000000e+00 1.05063537e-18
4.36515832e+02 5.48529906e-18 6.94147131e-19 0.00000000e+00 4.79115193e-18 0.00000000e+00 6.94147908e-19
5.01187234e+02 2.93730615e-18 4.58618585e-19 0.00000000e+00 2.47868757e-18 0.00000000e+00 4.58618975e-19
5.75439937e+02 1.58065954e-18 3.03006356e-19 0.00000000e+00 1.27765318e-18 0.00000000e+00 3.03006552e-19
6.60693448e+02 8.56661164e-19 2.00194345e-19 0.00000000e+00 6.56466819e-19 0.00000000e+00 2.00194443e-19
7.58577575e+02 4.68625035e-19 1.32267108e-19 0.00000000e+00 3.36357928e-19 0.00000000e+00 1.32267157e-19
8.70963590e+02 2.59268630e-19 8.73880192e-20 0.00000000e+00 1.71880611e-19 0.00000000e+00 8.73880441e-20
1.00000000e+03 8.76167862e-20 0.00000000e+00 0.00000000e+00 8.76167862e-20 0.00000000e+00 0.00000000e+00
