# column 1: lambda (micron)
# column 2: total flux; lambda*F_lambda (W/m2)
# column 3: direct stellar flux; lambda*F_lambda (W/m2)
# column 4: scattered stellar flux; lambda*F_lambda (W/m2)
# column 5: total dust emission flux; lambda*F_lambda (W/m2)
# column 6: dust emission scattered flux; lambda*F_lambda (W/m2)
# column 7: transparent flux; lambda*F_lambda (W/m2)
1.00000000e-03 6.93994075e-13 6.93993746e-13 3.29778370e-19 0.00000000e+00 0.00000000e+00 6.93993746e-13
1.14815362e-03 8.19135704e-13 8.19135139e-13 5.65081596e-19 0.00000000e+00 0.00000000e+00 8.19135139e-13
1.31825674e-03 9.66842943e-13 9.66842108e-13 8.34720411e-19 0.00000000e+00 0.00000000e+00 9.66842108e-13
1.51356125e-03 1.14118504e-12 1.14118369e-12 1.35188185e-18 0.00000000e+00 0.00000000e+00 1.14118369e-12
1.73780083e-03 1.34696503e-12 1.34696266e-12 2.37467035e-18 0.00000000e+00 0.00000000e+00 1.34696266e-12
1.99526231e-03 1.58985218e-12 1.58984782e-12 4.35232638e-18 0.00000000e+00 0.00000000e+00 1.58984782e-12
2.29086765e-03 1.87653740e-12 1.87653019e-12 7.20675164e-18 0.00000000e+00 0.00000000e+00 1.87653019e-12
2.63026799e-03 2.21492099e-12 2.21490731e-12 1.36770903e-17 0.00000000e+00 0.00000000e+00 2.21490731e-12
3.01995172e-03 2.61432352e-12 2.61430080e-12 2.27200290e-17 0.00000000e+00 0.00000000e+00 2.61430080e-12
3.46736850e-03 3.08575252e-12 3.08571319e-12 3.93332053e-17 0.00000000e+00 0.00000000e+00 3.08571319e-12
3.98107171e-03 3.64219816e-12 3.64213095e-12 6.72114535e-17 0.00000000e+00 0.00000000e+00 3.64213095e-12
4.57088190e-03 4.29902519e-12 4.29888232e-12 1.42867015e-16 0.00000000e+00 0.00000000e+00 4.29888232e-12
5.24807460e-03 5.07431161e-12 5.07405951e-12 2.52096337e-16 0.00000000e+00 0.00000000e+00 5.07405951e-12
6.02559586e-03 5.98949211e-12 5.98901715e-12 4.74964297e-16 0.00000000e+00 0.00000000e+00 5.98901715e-12
6.91830971e-03 7.06967512e-12 7.06896053e-12 7.14592872e-16 0.00000000e+00 0.00000000e+00 7.06896053e-12
7.94328235e-03 8.34488981e-12 8.34363998e-12 1.24982533e-15 2.64423827e-304 2.46909683e-307 8.34363998e-12
9.12010839e-03 9.85027780e-12 9.84817045e-12 2.10735234e-15 1.11490511e-265 1.39609936e-268 9.84817045e-12
1.04712855e-02 1.10017109e-11 1.09990604e-11 2.65045577e-15 4.55421015e-232 6.85957114e-235 1.09990604e-11
1.20226443e-02 1.10029818e-11 1.09990604e-11 3.92137249e-15 6.93506053e-203 2.50563521e-205 1.09990604e-11
1.38038426e-02 1.10044973e-11 1.09990604e-11 5.43684314e-15 1.84252983e-177 9.17509483e-180 1.09990604e-11
1.58489319e-02 1.10077167e-11 1.09990604e-11 8.65628330e-15 2.43492632e-155 1.21017781e-157 1.09990604e-11
1.81970086e-02 1.10100033e-11 1.09990604e-11 1.09428592e-14 4.26402404e-136 2.99299741e-138 1.09990604e-11
2.08929613e-02 1.10212462e-11 1.09990604e-11 2.21857982e-14 2.19293206e-119 2.15840667e-121 1.09990604e-11
2.39883292e-02 1.10201703e-11 1.09990604e-11 2.11098599e-14 7.59110915e-105 9.76224822e-107 1.09990604e-11
2.75422870e-02 1.10291679e-11 1.09990604e-11 3.01074984e-14 3.36140627e-92 5.70583219e-94 1.09990604e-11
3.16227766e-02 1.10358542e-11 1.09990604e-11 3.67937575e-14 3.24976350e-81 7.10400633e-83 1.09990604e-11
3.63078055e-02 1.10394370e-11 1.09990604e-11 4.03765864e-14 1.11718905e-71 2.77193282e-73 1.09990604e-11
4.16869383e-02 1.10566120e-11 1.09990604e-11 5.75515541e-14 2.11668102e-63 7.23045209e-65 1.09990604e-11
4.78630092e-02 1.10775066e-11 1.09990604e-11 7.84461163e-14 3.19317598e-56 1.44287194e-57 1.09990604e-11
5.49540874e-02 1.10926679e-11 1.09990604e-11 9.36074275e-14 5.30458886e-50 2.94762285e-51 1.09990604e-11
6.30957344e-02 1.11114388e-11 1.09990604e-11 1.12378333e-13 1.71611596e-44 1.13189074e-45 1.09990604e-11
7.24435960e-02 1.11026626e-11 1.09990604e-11 1.03602198e-13 9.91106309e-40 6.39461548e-41 1.09990604e-11
8.31763771e-02 1.11017344e-11 1.09990604e-11 1.02674005e-13 1.01001843e-35 6.46629680e-37 1.09990604e-11
9.54992586e-02 1.11103278e-11 1.09990604e-11 1.11267319e-13 2.83362476e-32 1.86667764e-33 1.09990604e-11
1.09647820e-01 1.06141399e-11 1.05040253e-11 1.10114561e-13 2.39361789e-29 1.68257056e-30 1.05040253e-11
1.25892541e-01 9.90335329e-12 9.80292679e-12 1.00426495e-13 7.70038231e-27 5.18107871e-28 9.80292679e-12
1.44543977e-01 9.23510384e-12 9.14862359e-12 8.64802436e-14 1.04214828e-24 6.68130843e-26 9.14862359e-12
1.65958691e-01 8.63110883e-12 8.53799231e-12 9.31165157e-14 5.26994185e-23 3.73570345e-24 8.53799231e-12
1.90546072e-01 8.07113390e-12 7.96811805e-12 1.03015856e-13 1.11134113e-21 9.30352127e-23 7.96811805e-12
2.18776162e-01 7.53473881e-12 7.43628044e-12 9.84583612e-14 1.31848971e-20 1.17591019e-21 7.43628044e-12
2.51188643e-01 7.05534614e-12 6.93994070e-12 1.15405286e-13 1.59810983e-19 1.70247737e-20 6.93994070e-12
2.88403150e-01 6.58014440e-12 6.47672950e-12 1.03413567e-13 1.32348343e-18 1.36531741e-19 6.47672950e-12
3.31131121e-01 6.13625816e-12 6.04443567e-12 9.18149369e-14 7.55752647e-18 7.50700151e-19 6.04443567e-12
3.80189396e-01 5.72326030e-12 5.64099558e-12 8.22332487e-14 3.14675072e-17 3.03747964e-18 5.64099558e-12
4.36515832e-01 5.34196331e-12 5.26448339e-12 7.73794978e-14 1.00425957e-16 9.68145599e-18 5.26448339e-12
5.01187234e-01 4.98258011e-12 4.91310176e-12 6.92179610e-14 2.60383543e-16 2.58970901e-17 4.91310176e-12
5.75439937e-01 4.65085000e-12 4.58517335e-12 6.50737681e-14 6.02879542e-16 6.68672263e-17 4.58517335e-12
6.60693448e-01 4.33782895e-12 4.27913275e-12 5.73065924e-14 1.38960912e-15 1.87025931e-16 4.27913275e-12
7.58577575e-01 4.04977118e-12 3.99351904e-12 5.28479391e-14 3.40420245e-15 5.36156460e-16 3.99351904e-12
8.70963590e-01 3.78185907e-12 3.72696882e-12 4.63858649e-14 8.50438258e-15 1.43655933e-15 3.72696882e-12
1.00000000e+00 3.53820789e-12 3.47820968e-12 3.98716845e-14 2.01265281e-14 3.35622516e-15 3.47820968e-12
1.14815362e+00 3.32411752e-12 3.24605414e-12 3.36762427e-14 4.43871295e-14 6.81487162e-15 3.24605414e-12
1.31825674e+00 3.14672602e-12 3.02939399e-12 2.70870230e-14 9.02450100e-14 1.22371508e-14 3.02939399e-12
1.51356125e+00 3.01476989e-12 2.82719497e-12 2.10834219e-14 1.66491500e-13 1.92624268e-14 2.82719497e-12
1.73780083e+00 2.93030256e-12 2.63849186e-12 1.58699349e-14 2.75940761e-13 2.61698228e-14 2.63849186e-12
1.99526231e+00 2.88707178e-12 2.46238388e-12 1.21156334e-14 4.12572264e-13 3.06130696e-14 2.46238388e-12
2.29086765e+00 2.86780099e-12 2.29803035e-12 8.34405866e-15 5.61426590e-13 3.12399085e-14 2.29803035e-12
2.63026799e+00 2.85662414e-12 2.14464670e-12 6.00588528e-15 7.05971549e-13 2.94725250e-14 2.14464670e-12
3.01995172e+00 2.83327558e-12 2.00150076e-12 4.13264129e-15 8.27642183e-13 2.51948759e-14 2.00150076e-12
3.46736850e+00 2.78893346e-12 1.86790919e-12 2.84469482e-15 9.18179571e-13 2.04379802e-14 1.86790919e-12
3.98107171e+00 2.71223038e-12 1.74323429e-12 1.90235170e-15 9.67093740e-13 1.57120025e-14 1.74323429e-12
4.57088190e+00 2.60434691e-12 1.62688090e-12 1.26509653e-15 9.76200920e-13 1.11372587e-14 1.62688090e-12
5.24807460e+00 2.29988723e-12 1.34518114e-12 7.16547002e-16 9.53989535e-13 7.57130545e-15 1.34518114e-12
6.02559586e+00 1.80628564e-12 8.88752369e-13 3.20016736e-16 9.17213255e-13 4.77113184e-15 8.88752369e-13
6.70000000e+00 1.52409942e-12 6.46481889e-13 1.61084684e-16 8.77456444e-13 3.25455220e-15 6.46481889e-13
6.92422916e+00 1.44850869e-12 5.85688198e-13 1.32247903e-16 8.62688240e-13 2.86216028e-15 5.85688198e-13
7.15596261e+00 1.38587805e-12 5.30611407e-13 1.03759996e-16 8.55162883e-13 2.48938218e-15 5.30611407e-13
7.39545150e+00 1.34409791e-12 4.80713913e-13 7.74685746e-17 8.63306534e-13 2.11653673e-15 4.80713913e-13
7.64295536e+00 1.35461774e-12 4.35508666e-13 5.45166146e-17 9.19054558e-13 1.76802901e-15 4.35508666e-13
7.89874245e+00 1.44265619e-12 3.94554418e-13 3.35963094e-17 1.04806817e-12 1.39818860e-15 3.94554418e-13
8.16308998e+00 1.59621437e-12 3.57451415e-13 1.96877754e-17 1.23874327e-12 1.10404057e-15 3.57451415e-13
8.43628443e+00 1.83392310e-12 3.23837494e-13 1.10716697e-17 1.51007454e-12 8.40125460e-16 3.23837494e-13
8.71862190e+00 1.99018477e-12 2.93384550e-13 6.83344904e-18 1.69679339e-12 6.66068001e-16 2.93384550e-13
9.01040836e+00 2.17928272e-12 2.65795332e-13 4.37784043e-18 1.91348301e-12 5.09099120e-16 2.65795332e-13
9.31196005e+00 2.33420407e-12 2.40800541e-13 0.00000000e+00 2.09340352e-12 0.00000000e+00 2.40800541e-13
9.62360379e+00 2.31420615e-12 2.18156204e-13 0.00000000e+00 2.09604994e-12 0.00000000e+00 2.18156204e-13
9.94567731e+00 2.17842655e-12 1.97641289e-13 0.00000000e+00 1.98078526e-12 0.00000000e+00 1.97641289e-13
1.02785297e+01 2.00506136e-12 1.79055550e-13 0.00000000e+00 1.82600581e-12 0.00000000e+00 1.79055550e-13
1.06225216e+01 1.84445298e-12 1.62217572e-13 0.00000000e+00 1.68223541e-12 0.00000000e+00 1.62217572e-13
1.09780260e+01 1.66425789e-12 1.46962999e-13 0.00000000e+00 1.51729489e-12 0.00000000e+00 1.46962999e-13
1.13454280e+01 1.50608301e-12 1.33142932e-13 0.00000000e+00 1.37294008e-12 0.00000000e+00 1.33142932e-13
1.17251259e+01 1.37465922e-12 1.20622472e-13 0.00000000e+00 1.25403675e-12 0.00000000e+00 1.20622472e-13
1.21175312e+01 1.25485954e-12 1.09279408e-13 0.00000000e+00 1.14558013e-12 0.00000000e+00 1.09279408e-13
1.25230691e+01 1.14903490e-12 9.90030204e-14 0.00000000e+00 1.05003188e-12 0.00000000e+00 9.90030204e-14
1.29421791e+01 1.05888963e-12 8.96930008e-14 0.00000000e+00 9.69196632e-13 0.00000000e+00 8.96930008e-14
1.33753155e+01 9.78509441e-13 8.12584743e-14 0.00000000e+00 8.97250967e-13 0.00000000e+00 8.12584743e-14
1.38229477e+01 9.30632925e-13 7.36171115e-14 0.00000000e+00 8.57015813e-13 0.00000000e+00 7.36171115e-14
1.42855609e+01 9.04061841e-13 6.66943252e-14 0.00000000e+00 8.37367516e-13 0.00000000e+00 6.66943252e-14
1.47636563e+01 9.18121388e-13 6.04225420e-14 0.00000000e+00 8.57698846e-13 0.00000000e+00 6.04225420e-14
1.52577522e+01 9.43310492e-13 5.47405431e-14 0.00000000e+00 8.88569949e-13 0.00000000e+00 5.47405431e-14
1.57683840e+01 9.77683874e-13 4.95928665e-14 0.00000000e+00 9.28091007e-13 0.00000000e+00 4.95928665e-14
1.62961051e+01 1.00617360e-12 4.49292657e-14 0.00000000e+00 9.61244339e-13 0.00000000e+00 4.49292657e-14
1.68414875e+01 1.04314695e-12 4.07042194e-14 0.00000000e+00 1.00244273e-12 0.00000000e+00 4.07042194e-14
1.74051222e+01 1.06994804e-12 3.68764869e-14 0.00000000e+00 1.03307155e-12 0.00000000e+00 3.68764869e-14
1.79876201e+01 1.08147716e-12 3.34087056e-14 0.00000000e+00 1.04806845e-12 0.00000000e+00 3.34087056e-14
1.85896125e+01 1.08371663e-12 3.02670267e-14 0.00000000e+00 1.05344960e-12 0.00000000e+00 3.02670267e-14
1.92117518e+01 1.07258339e-12 2.74207841e-14 0.00000000e+00 1.04516261e-12 0.00000000e+00 2.74207841e-14
1.98547123e+01 1.04886722e-12 2.48421957e-14 0.00000000e+00 1.02402502e-12 0.00000000e+00 2.48421957e-14
2.05191907e+01 1.02506349e-12 2.25060919e-14 0.00000000e+00 1.00255739e-12 0.00000000e+00 2.25060919e-14
2.12059073e+01 9.97136230e-13 2.03896700e-14 0.00000000e+00 9.76746560e-13 0.00000000e+00 2.03896700e-14
2.19156062e+01 9.73552809e-13 1.84722717e-14 0.00000000e+00 9.55080537e-13 0.00000000e+00 1.84722717e-14
2.26490567e+01 9.53547890e-13 1.67351811e-14 0.00000000e+00 9.36812709e-13 0.00000000e+00 1.67351811e-14
2.34070535e+01 9.34139997e-13 1.51614426e-14 0.00000000e+00 9.18978555e-13 0.00000000e+00 1.51614426e-14
2.41904183e+01 9.17632589e-13 1.37356949e-14 0.00000000e+00 9.03896894e-13 0.00000000e+00 1.37356949e-14
2.50000000e+01 8.99605861e-13 1.24440213e-14 0.00000000e+00 8.87161840e-13 0.00000000e+00 1.24440213e-14
2.75422870e+01 8.45354270e-13 9.30637977e-15 0.00000000e+00 8.36047890e-13 0.00000000e+00 9.30637977e-15
3.16227766e+01 7.51957484e-13 6.14866414e-15 0.00000000e+00 7.45808820e-13 0.00000000e+00 6.14866414e-15
3.63078055e+01 6.34222073e-13 4.06238211e-15 0.00000000e+00 6.30159690e-13 0.00000000e+00 4.06238211e-15
4.16869383e+01 5.02745828e-13 2.68398924e-15 0.00000000e+00 5.00061839e-13 0.00000000e+00 2.68398924e-15
4.78630092e+01 3.70197803e-13 1.77329411e-15 0.00000000e+00 3.68424509e-13 0.00000000e+00 1.77329411e-15
5.49540874e+01 2.56570686e-13 1.17160380e-15 0.00000000e+00 2.55399082e-13 0.00000000e+00 1.17160380e-15
6.30957344e+01 1.68345057e-13 7.74070953e-16 0.00000000e+00 1.67570986e-13 0.00000000e+00 7.74070953e-16
7.24435960e+01 1.05727228e-13 5.11423607e-16 0.00000000e+00 1.05215804e-13 0.00000000e+00 5.11423607e-16
8.31763771e+01 6.40121823e-14 3.37894226e-16 0.00000000e+00 6.36742880e-14 0.00000000e+00 3.37894226e-16
9.54992586e+01 3.77092394e-14 2.23244502e-16 0.00000000e+00 3.74859949e-14 0.00000000e+00 2.23244502e-16
1.09647820e+02 2.17373739e-14 1.47496179e-16 0.00000000e+00 2.15898778e-14 0.00000000e+00 1.47496179e-16
1.25892541e+02 1.24390391e-14 9.74497594e-17 0.00000000e+00 1.23415894e-14 0.00000000e+00 9.74497594e-17
1.44543977e+02 7.04020133e-15 6.43844175e-17 0.00000000e+00 6.97581692e-15 0.00000000e+00 6.43844175e-17
1.65958691e+02 3.78834299e-15 4.25383628e-17 0.00000000e+00 3.74580463e-15 0.00000000e+00 4.25383628e-17
1.90546072e+02 2.03237102e-15 2.81048176e-17 0.00000000e+00 2.00426621e-15 0.00000000e+00 2.81048176e-17
2.18776162e+02 1.08554863e-15 1.85686688e-17 0.00000000e+00 1.06697996e-15 0.00000000e+00 1.85686688e-17
2.51188643e+02 5.76635481e-16 1.22681978e-17 0.00000000e+00 5.64367283e-16 0.00000000e+00 1.22681978e-17
2.88403150e+02 3.04518473e-16 8.10551794e-18 0.00000000e+00 2.96412955e-16 0.00000000e+00 8.10551794e-18
3.31131121e+02 1.60297269e-16 5.35526259e-18 0.00000000e+00 1.54942007e-16 0.00000000e+00 5.35526259e-18
3.80189396e+02 8.40764780e-17 3.53818691e-18 0.00000000e+00 8.05382910e-17 0.00000000e+00 3.53818691e-18
4.36515832e+02 4.40325523e-17 2.33765691e-18 0.00000000e+00 4.16948954e-17 0.00000000e+00 2.33765691e-18
5.01187234e+02 2.30440760e-17 1.54447460e-18 0.00000000e+00 2.14996014e-17 0.00000000e+00 1.54447460e-18
5.75439937e+02 1.20694313e-17 1.02042425e-18 0.00000000e+00 1.10490070e-17 0.00000000e+00 1.02042425e-18
6.60693448e+02 6.33616450e-18 6.74187617e-19 0.00000000e+00 5.66197688e-18 0.00000000e+00 6.74187617e-19
7.58577575e+02 3.33964663e-18 4.45431341e-19 0.00000000e+00 2.89421529e-18 0.00000000e+00 4.45431341e-19
8.70963590e+02 1.77015679e-18 2.94293569e-19 0.00000000e+00 1.47586322e-18 0.00000000e+00 2.94293569e-19
1.00000000e+03 7.50932595e-19 0.00000000e+00 0.00000000e+00 7.50932595e-19 0.00000000e+00 0.00000000e+00
