# column 1: lambda (micron)
# column 2: total flux; lambda*F_lambda (W/m2)
# column 3: direct stellar flux; lambda*F_lambda (W/m2)
# column 4: scattered stellar flux; lambda*F_lambda (W/m2)
# column 5: total dust emission flux; lambda*F_lambda (W/m2)
# column 6: dust emission scattered flux; lambda*F_lambda (W/m2)
# column 7: transparent flux; lambda*F_lambda (W/m2)
1.00000000e-03 9.67942834e-13 9.67941076e-13 1.75868569e-18 0.00000000e+00 0.00000000e+00 9.68073281e-13
1.14815362e-03 1.14243346e-12 1.14243071e-12 2.74201622e-18 0.00000000e+00 0.00000000e+00 1.14263687e-12
1.31825674e-03 1.34837269e-12 1.34836851e-12 4.17944262e-18 0.00000000e+00 0.00000000e+00 1.34867788e-12
1.51356125e-03 1.59144806e-12 1.59144184e-12 6.22803744e-18 0.00000000e+00 0.00000000e+00 1.59187233e-12
1.73780083e-03 1.87841779e-12 1.87840639e-12 1.13973699e-17 0.00000000e+00 0.00000000e+00 1.87891976e-12
1.99526231e-03 2.21694444e-12 2.21692443e-12 2.00144455e-17 0.00000000e+00 0.00000000e+00 2.21772777e-12
2.29086765e-03 2.61665550e-12 2.61662436e-12 3.11371282e-17 0.00000000e+00 0.00000000e+00 2.61762985e-12
2.63026799e-03 3.08828271e-12 3.08822038e-12 6.23297596e-17 0.00000000e+00 0.00000000e+00 3.08964252e-12
3.01995172e-03 3.64479778e-12 3.64469289e-12 1.04889068e-16 0.00000000e+00 0.00000000e+00 3.64676883e-12
3.46736850e-03 4.30170343e-12 4.30146859e-12 2.34833327e-16 0.00000000e+00 0.00000000e+00 4.30435650e-12
3.98107171e-03 5.07689687e-12 5.07661923e-12 2.77635951e-16 0.00000000e+00 0.00000000e+00 5.08052080e-12
4.57088190e-03 5.99419355e-12 5.99357133e-12 6.22217080e-16 0.00000000e+00 0.00000000e+00 5.99664354e-12
5.24807460e-03 7.07446805e-12 7.07333093e-12 1.13711995e-15 0.00000000e+00 0.00000000e+00 7.07796211e-12
6.02559586e-03 8.34971796e-12 8.34767423e-12 2.04373662e-15 0.00000000e+00 0.00000000e+00 8.35426474e-12
6.91830971e-03 9.85497222e-12 9.85173371e-12 3.23851076e-15 0.00000000e+00 0.00000000e+00 9.86071107e-12
7.94328235e-03 1.16325786e-11 1.16269796e-11 5.59893142e-15 0.00000000e+00 0.00000000e+00 1.16388008e-11
9.12010839e-03 1.37305323e-11 1.37220343e-11 8.49800505e-15 0.00000000e+00 0.00000000e+00 1.37375167e-11
1.04712855e-02 1.53368865e-11 1.53245333e-11 1.23531584e-14 0.00000000e+00 0.00000000e+00 1.53429287e-11
1.20226443e-02 1.53411990e-11 1.53234483e-11 1.77506886e-14 3.09996883e-311 4.79729260e-313 1.53429287e-11
1.38038426e-02 1.53479469e-11 1.53221615e-11 2.57853149e-14 6.04551246e-272 1.21248467e-273 1.53429287e-11
1.58489319e-02 1.53635156e-11 1.53205803e-11 4.29353123e-14 9.61625448e-238 3.09905089e-239 1.53429287e-11
1.81970086e-02 1.53720489e-11 1.53191221e-11 5.29268538e-14 5.52153082e-208 1.73765596e-209 1.53429287e-11
2.08929613e-02 1.53909975e-11 1.53179101e-11 7.30874766e-14 4.11719945e-182 1.54905269e-183 1.53429287e-11
2.39883292e-02 1.54123792e-11 1.53163398e-11 9.60393860e-14 1.35561790e-159 5.70270730e-161 1.53429287e-11
2.75422870e-02 1.54405877e-11 1.53145136e-11 1.26074129e-13 5.34459569e-140 2.65374244e-141 1.53429287e-11
3.16227766e-02 1.54671349e-11 1.53127237e-11 1.54411219e-13 5.83023823e-123 3.34371719e-124 1.53429287e-11
3.63078055e-02 1.54884516e-11 1.53113200e-11 1.77131648e-13 3.74637227e-108 2.33549494e-109 1.53429287e-11
4.16869383e-02 1.55609056e-11 1.53101059e-11 2.50799674e-13 2.78444641e-95 2.18063466e-96 1.53429287e-11
4.78630092e-02 1.56298559e-11 1.53067599e-11 3.23095954e-13 4.20924465e-84 4.11747188e-85 1.53429287e-11
5.49540874e-02 1.56798159e-11 1.53021079e-11 3.77707923e-13 2.12729207e-74 2.41183397e-75 1.53429287e-11
6.30957344e-02 1.57119365e-11 1.52904493e-11 4.21487278e-13 7.39032053e-66 9.43696379e-67 1.53429287e-11
7.24435960e-02 1.56729666e-11 1.52766509e-11 3.96315660e-13 1.87488065e-58 2.38481238e-59 1.53429287e-11
8.31763771e-02 1.56641778e-11 1.52778782e-11 3.86299537e-13 4.11495535e-52 5.35327025e-53 1.53429287e-11
9.54992586e-02 1.56876544e-11 1.52814786e-11 4.06175827e-13 1.41154486e-46 2.08182794e-47 1.53429287e-11
1.09647820e-01 1.50313625e-11 1.46036203e-11 4.27742289e-13 9.78508013e-42 1.71420700e-42 1.46523889e-11
1.25892541e-01 1.40354689e-11 1.36369293e-11 3.98539600e-13 1.83203828e-37 3.49684673e-38 1.36744049e-11
1.44543977e-01 1.30878763e-11 1.27327019e-11 3.55174484e-13 1.00286247e-33 1.94611995e-34 1.27616972e-11
1.65958691e-01 1.22594769e-11 1.18862401e-11 3.73236855e-13 1.43229621e-30 3.09963650e-31 1.19099088e-11
1.90546072e-01 1.15000745e-11 1.10914096e-11 4.08664850e-13 5.86721137e-28 1.50636741e-28 1.11149736e-11
2.18776162e-01 1.07380734e-11 1.03473053e-11 3.90768072e-13 9.42260140e-26 2.58787847e-26 1.03730969e-11
2.51188643e-01 1.01075934e-11 9.66148268e-12 4.46110730e-13 1.34795191e-23 4.39424517e-24 9.68073733e-12
2.88403150e-01 9.43822560e-12 9.01966825e-12 4.18557350e-13 9.74047180e-22 3.22106845e-22 9.03458975e-12
3.31131121e-01 8.80429047e-12 8.41942924e-12 3.84861186e-13 3.85550873e-20 1.27385371e-20 8.43156974e-12
3.80189396e-01 8.20389687e-12 7.85884823e-12 3.45047742e-13 9.01371247e-19 3.00569866e-19 7.86879872e-12
4.36515832e-01 7.65994745e-12 7.33550755e-12 3.24426426e-13 1.34809396e-17 4.47408775e-18 7.34359025e-12
5.01187234e-01 7.14358762e-12 6.84696053e-12 2.96492675e-13 1.34414585e-16 4.46184092e-17 6.85343719e-12
5.75439937e-01 6.66907359e-12 6.39086353e-12 2.77261421e-13 9.48645978e-16 3.11018662e-16 6.39599973e-12
6.60693448e-01 6.22122162e-12 5.96505632e-12 2.51281882e-13 4.88342145e-15 1.56918699e-15 5.96909425e-12
7.58577575e-01 5.81205271e-12 5.56754697e-12 2.24861355e-13 1.96443882e-14 6.17141465e-15 5.57068288e-12
8.70963590e-01 5.45859158e-12 5.19648232e-12 1.98783725e-13 6.33255419e-14 1.88919518e-14 5.19886376e-12
1.00000000e+00 5.18772045e-12 4.85008269e-12 1.68844448e-13 1.68793315e-13 4.65389653e-14 4.85186196e-12
1.14815362e+00 5.05526571e-12 4.52671530e-12 1.39392903e-13 3.89157510e-13 9.68164471e-14 4.52802104e-12
1.31825674e+00 5.12982352e-12 4.22485353e-12 1.10232859e-13 7.94737131e-13 1.72721642e-13 4.22579511e-12
1.51356125e+00 5.46820783e-12 3.94306934e-12 8.72422080e-14 1.43789628e-12 2.67380069e-13 3.94374146e-12
1.73780083e+00 6.06395132e-12 3.68004170e-12 6.57101389e-14 2.31819947e-12 3.57518050e-13 3.68051368e-12
1.99526231e+00 6.80686283e-12 3.43452899e-12 4.91396674e-14 3.32319417e-12 4.08601901e-13 3.43485522e-12
2.29086765e+00 7.59042807e-12 3.20536862e-12 3.56600624e-14 4.34939939e-12 4.14135903e-13 3.20559341e-12
2.63026799e+00 8.22649000e-12 2.99147749e-12 2.55662043e-14 5.20944630e-12 3.75756576e-13 2.99163384e-12
3.01995172e+00 8.61954254e-12 2.79184501e-12 1.79909724e-14 5.80970656e-12 3.11091013e-13 2.79195514e-12
3.46736850e+00 8.75023373e-12 2.60552529e-12 1.24049944e-14 6.13230344e-12 2.40066665e-13 2.60560415e-12
3.98107171e+00 8.58414604e-12 2.43163410e-12 8.42216696e-15 6.14408978e-12 1.72716252e-13 2.43169128e-12
4.57088190e+00 8.22685760e-12 2.26934432e-12 5.52306253e-15 5.95199022e-12 1.16073665e-13 2.26938634e-12
5.24807460e+00 7.50067486e-12 1.87640676e-12 3.05808005e-15 5.62121002e-12 7.33461612e-14 1.87643467e-12
6.02559586e+00 6.49420245e-12 1.23973277e-12 1.32372091e-15 5.25314596e-12 4.40162970e-14 1.23974809e-12
6.70000000e+00 5.85489888e-12 9.01787660e-13 6.64791627e-16 4.95244643e-12 2.86687442e-14 9.01797527e-13
6.92422916e+00 5.66418992e-12 8.16985906e-13 5.36096223e-16 4.84666792e-12 2.47837952e-14 8.16994532e-13
7.15596261e+00 5.53050052e-12 7.40158539e-13 4.28191188e-16 4.78991379e-12 2.13631981e-14 7.40166218e-13
7.39545150e+00 5.49679806e-12 6.70555542e-13 3.22136491e-16 4.82592038e-12 1.82633136e-14 6.70562664e-13
7.64295536e+00 5.72190573e-12 6.07497119e-13 2.30274988e-16 5.11417834e-12 1.53827249e-14 6.07504471e-13
7.89874245e+00 6.30842329e-12 5.50367522e-13 1.42728851e-16 5.75791304e-12 1.25433726e-14 5.50376127e-13
8.16308998e+00 7.14533658e-12 4.98609476e-13 8.67359106e-17 6.64664037e-12 1.00809671e-14 4.98620004e-13
8.43628443e+00 8.23474220e-12 4.51717658e-13 4.81770541e-17 7.78297636e-12 7.74089906e-15 4.51730909e-13
8.71862190e+00 8.91615603e-12 4.09236408e-13 3.05099318e-17 8.50688911e-12 6.11426667e-15 4.09251158e-13
9.01040836e+00 9.56577251e-12 3.70749918e-13 1.86474283e-17 9.19500394e-12 4.70979152e-15 3.70766106e-13
9.31196005e+00 1.00419124e-11 3.35883092e-13 0.00000000e+00 9.70602930e-12 0.00000000e+00 3.35900102e-13
9.62360379e+00 9.92205360e-12 3.04297002e-13 0.00000000e+00 9.61775660e-12 0.00000000e+00 3.04312818e-13
9.94567731e+00 9.43154043e-12 2.75682485e-13 0.00000000e+00 9.15585795e-12 0.00000000e+00 2.75695930e-13
1.02785297e+01 8.77967701e-12 2.49759090e-13 0.00000000e+00 8.52991792e-12 0.00000000e+00 2.49770110e-13
1.06225216e+01 8.21740950e-12 2.26273360e-13 0.00000000e+00 7.99113614e-12 0.00000000e+00 2.26282295e-13
1.09780260e+01 7.52973836e-12 2.04996238e-13 0.00000000e+00 7.32474212e-12 0.00000000e+00 2.05003220e-13
1.13454280e+01 7.01131862e-12 1.85719703e-13 0.00000000e+00 6.82559892e-12 0.00000000e+00 1.85725182e-13
1.17251259e+01 6.48795829e-12 1.68255680e-13 0.00000000e+00 6.31970261e-12 0.00000000e+00 1.68260007e-13
1.21175312e+01 6.05221495e-12 1.52433817e-13 0.00000000e+00 5.89978114e-12 0.00000000e+00 1.52437217e-13
1.25230691e+01 5.62648219e-12 1.38099703e-13 0.00000000e+00 5.48838249e-12 0.00000000e+00 1.38102367e-13
1.29421791e+01 5.25410947e-12 1.25113431e-13 0.00000000e+00 5.12899604e-12 0.00000000e+00 1.25115533e-13
1.33753155e+01 4.95421647e-12 1.13348282e-13 0.00000000e+00 4.84086819e-12 0.00000000e+00 1.13349952e-13
1.38229477e+01 4.75526479e-12 1.02689391e-13 0.00000000e+00 4.65257540e-12 0.00000000e+00 1.02690779e-13
1.42855609e+01 4.67943999e-12 9.30327644e-14 0.00000000e+00 4.58640723e-12 0.00000000e+00 9.30339713e-14
1.47636563e+01 4.77276659e-12 8.42841221e-14 0.00000000e+00 4.68848247e-12 0.00000000e+00 8.42852675e-14
1.52577522e+01 4.93095439e-12 7.63581652e-14 0.00000000e+00 4.85459622e-12 0.00000000e+00 7.63592720e-14
1.57683840e+01 5.12461587e-12 6.91775360e-14 0.00000000e+00 5.05543833e-12 0.00000000e+00 6.91786191e-14
1.62961051e+01 5.31838099e-12 6.26721599e-14 0.00000000e+00 5.25570883e-12 0.00000000e+00 6.26732185e-14
1.68414875e+01 5.51511965e-12 5.67785386e-14 0.00000000e+00 5.45834111e-12 0.00000000e+00 5.67795711e-14
1.74051222e+01 5.67568985e-12 5.14391685e-14 0.00000000e+00 5.62425068e-12 0.00000000e+00 5.14401489e-14
1.79876201e+01 5.77736193e-12 4.66019185e-14 0.00000000e+00 5.73076002e-12 0.00000000e+00 4.66028339e-14
1.85896125e+01 5.81990124e-12 4.22195807e-14 0.00000000e+00 5.77768166e-12 0.00000000e+00 4.22204090e-14
1.92117518e+01 5.78085290e-12 3.82493699e-14 0.00000000e+00 5.74260353e-12 0.00000000e+00 3.82500974e-14
1.98547123e+01 5.73896909e-12 3.46525184e-14 0.00000000e+00 5.70431657e-12 0.00000000e+00 3.46531450e-14
2.05191907e+01 5.63235229e-12 3.13939076e-14 0.00000000e+00 5.60095838e-12 0.00000000e+00 3.13944418e-14
2.12059073e+01 5.52888978e-12 2.84417243e-14 0.00000000e+00 5.50044805e-12 0.00000000e+00 2.84421796e-14
2.19156062e+01 5.45054475e-12 2.57671515e-14 0.00000000e+00 5.42477760e-12 0.00000000e+00 2.57675415e-14
2.26490567e+01 5.35292158e-12 2.33440857e-14 0.00000000e+00 5.32957749e-12 0.00000000e+00 2.33444203e-14
2.34070535e+01 5.25782863e-12 2.11488763e-14 0.00000000e+00 5.23667975e-12 0.00000000e+00 2.11491639e-14
2.41904183e+01 5.15918942e-12 1.91600966e-14 0.00000000e+00 5.14002932e-12 0.00000000e+00 1.91603445e-14
2.50000000e+01 5.05531366e-12 1.73583351e-14 0.00000000e+00 5.03795533e-12 0.00000000e+00 1.73585491e-14
2.75422870e+01 4.70945713e-12 1.29816166e-14 0.00000000e+00 4.69647551e-12 0.00000000e+00 1.29817562e-14
3.16227766e+01 4.09877094e-12 8.57688458e-15 0.00000000e+00 4.09019405e-12 0.00000000e+00 8.57696126e-15
3.63078055e+01 3.33788422e-12 5.66670020e-15 0.00000000e+00 3.33221752e-12 0.00000000e+00 5.66674211e-15
4.16869383e+01 2.52443362e-12 3.74395708e-15 0.00000000e+00 2.52068967e-12 0.00000000e+00 3.74397938e-15
4.78630092e+01 1.77513713e-12 2.47361115e-15 0.00000000e+00 1.77266352e-12 0.00000000e+00 2.47362265e-15
5.49540874e+01 1.17026952e-12 1.63430048e-15 0.00000000e+00 1.16863522e-12 0.00000000e+00 1.63430628e-15
6.30957344e+01 7.33175043e-13 1.07977256e-15 0.00000000e+00 7.32095270e-13 0.00000000e+00 1.07977545e-15
7.24435960e+01 4.41066835e-13 7.13399135e-16 0.00000000e+00 4.40353436e-13 0.00000000e+00 7.13400564e-16
8.31763771e+01 2.57127270e-13 4.71338373e-16 0.00000000e+00 2.56655932e-13 0.00000000e+00 4.71339078e-16
9.54992586e+01 1.46436889e-13 3.11410292e-16 0.00000000e+00 1.46125479e-13 0.00000000e+00 3.11410641e-16
1.09647820e+02 8.19199497e-14 2.05746797e-16 0.00000000e+00 8.17142029e-14 0.00000000e+00 2.05746970e-16
1.25892541e+02 4.57345664e-14 1.35935588e-16 0.00000000e+00 4.55986308e-14 0.00000000e+00 1.35935675e-16
1.44543977e+02 2.53462955e-14 8.98117655e-17 0.00000000e+00 2.52564837e-14 0.00000000e+00 8.98118099e-17
1.65958691e+02 1.33711106e-14 5.93380526e-17 0.00000000e+00 1.33117725e-14 0.00000000e+00 5.93380743e-17
1.90546072e+02 7.05111750e-15 3.92042662e-17 0.00000000e+00 7.01191324e-15 0.00000000e+00 3.92042769e-17
2.18776162e+02 3.71011069e-15 2.59020035e-17 0.00000000e+00 3.68420869e-15 0.00000000e+00 2.59020089e-17
2.51188643e+02 1.94424925e-15 1.71132849e-17 0.00000000e+00 1.92713596e-15 0.00000000e+00 1.71132876e-17
2.88403150e+02 1.01389244e-15 1.13066356e-17 0.00000000e+00 1.00258581e-15 0.00000000e+00 1.13066370e-17
3.31131121e+02 5.27282993e-16 7.47022029e-18 0.00000000e+00 5.19812772e-16 0.00000000e+00 7.47022097e-18
3.80189396e+02 2.73271903e-16 4.93552571e-18 0.00000000e+00 2.68336377e-16 0.00000000e+00 4.93552605e-18
4.36515832e+02 1.41362042e-16 3.26086955e-18 0.00000000e+00 1.38101172e-16 0.00000000e+00 3.26086972e-18
5.01187234e+02 7.30042648e-17 2.15443518e-18 0.00000000e+00 7.08498296e-17 0.00000000e+00 2.15443526e-18
5.75439937e+02 3.76762477e-17 1.42342122e-18 0.00000000e+00 3.62528265e-17 0.00000000e+00 1.42342126e-18
6.60693448e+02 1.94486879e-17 9.40445079e-19 0.00000000e+00 1.85082428e-17 0.00000000e+00 9.40445101e-19
7.58577575e+02 1.00517779e-17 6.21345905e-19 0.00000000e+00 9.43043204e-18 0.00000000e+00 6.21345916e-19
8.70963590e+02 5.20614141e-18 4.10519170e-19 0.00000000e+00 4.79562224e-18 0.00000000e+00 4.10519176e-19
1.00000000e+03 2.43423413e-18 0.00000000e+00 0.00000000e+00 2.43423413e-18 0.00000000e+00 0.00000000e+00
