# column 1: lambda (micron)
# column 2: total flux; lambda*F_lambda (W/m2)
# column 3: direct stellar flux; lambda*F_lambda (W/m2)
# column 4: scattered stellar flux; lambda*F_lambda (W/m2)
# column 5: total dust emission flux; lambda*F_lambda (W/m2)
# column 6: dust emission scattered flux; lambda*F_lambda (W/m2)
# column 7: transparent flux; lambda*F_lambda (W/m2)
1.00000000e-03 1.07335736e-12 1.07335627e-12 1.09003990e-18 0.00000000e+00 0.00000000e+00 1.07335627e-12
1.14815362e-03 1.26690623e-12 1.26690456e-12 1.67637031e-18 0.00000000e+00 0.00000000e+00 1.26690456e-12
1.31825674e-03 1.49535618e-12 1.49535359e-12 2.58910707e-18 0.00000000e+00 0.00000000e+00 1.49535359e-12
1.51356125e-03 1.76500066e-12 1.76499670e-12 3.96026818e-18 0.00000000e+00 0.00000000e+00 1.76499670e-12
1.73780083e-03 2.08327221e-12 2.08326203e-12 1.01825572e-17 0.00000000e+00 0.00000000e+00 2.08326203e-12
1.99526231e-03 2.45892993e-12 2.45891716e-12 1.27726037e-17 0.00000000e+00 0.00000000e+00 2.45891716e-12
2.29086765e-03 2.90233019e-12 2.90231066e-12 1.95229916e-17 0.00000000e+00 0.00000000e+00 2.90231066e-12
2.63026799e-03 3.42569631e-12 3.42565717e-12 3.91447029e-17 0.00000000e+00 0.00000000e+00 3.42565717e-12
3.01995172e-03 4.04343888e-12 4.04337385e-12 6.50318341e-17 0.00000000e+00 0.00000000e+00 4.04337385e-12
3.46736850e-03 4.77258492e-12 4.77247759e-12 1.07332635e-16 0.00000000e+00 0.00000000e+00 4.77247759e-12
3.98107171e-03 5.63322899e-12 5.63305378e-12 1.75203729e-16 0.00000000e+00 0.00000000e+00 5.63305378e-12
4.57088190e-03 6.64919767e-12 6.64880962e-12 3.88052529e-16 0.00000000e+00 0.00000000e+00 6.64880962e-12
5.24807460e-03 7.84843736e-12 7.84772720e-12 7.10160050e-16 0.00000000e+00 0.00000000e+00 7.84772720e-12
6.02559586e-03 9.26415918e-12 9.26283435e-12 1.32482684e-15 0.00000000e+00 0.00000000e+00 9.26283435e-12
6.91830971e-03 1.09370699e-11 1.09331145e-11 3.95535212e-15 0.00000000e+00 0.00000000e+00 1.09331145e-11
7.94328235e-03 1.29108699e-11 1.29045807e-11 6.28917488e-15 6.37823150e-304 7.22767319e-307 1.29045807e-11
9.12010839e-03 1.52412505e-11 1.52315429e-11 9.70759350e-15 2.77973901e-265 4.04977095e-268 1.52315429e-11
1.04712855e-02 1.70252427e-11 1.70115517e-11 1.36909782e-14 1.16877509e-231 2.09178028e-234 1.70115517e-11
1.20226443e-02 1.70296671e-11 1.70115517e-11 1.81153852e-14 1.82289412e-202 4.97211238e-205 1.70115517e-11
1.38038426e-02 1.70339895e-11 1.70115517e-11 2.24377390e-14 4.95071361e-177 2.08988842e-179 1.70115517e-11
1.58489319e-02 1.70403290e-11 1.70115517e-11 2.87772615e-14 6.67603299e-155 3.62285495e-157 1.70115517e-11
1.81970086e-02 1.70500177e-11 1.70115517e-11 3.84659512e-14 1.19079988e-135 1.10770257e-137 1.70115517e-11
2.08929613e-02 1.70627897e-11 1.70115517e-11 5.12380277e-14 6.20289239e-119 6.51277773e-121 1.70115517e-11
2.39883292e-02 1.70797856e-11 1.70115517e-11 6.82339245e-14 2.17903820e-104 3.41417541e-106 1.70115517e-11
2.75422870e-02 1.71005483e-11 1.70115517e-11 8.89965466e-14 9.74504040e-92 1.83328710e-93 1.70115517e-11
3.16227766e-02 1.71191892e-11 1.70115517e-11 1.07637478e-13 9.52033815e-81 2.34622779e-82 1.70115517e-11
3.63078055e-02 1.71351899e-11 1.70115517e-11 1.23638158e-13 3.30226878e-71 9.32989906e-73 1.70115517e-11
4.16869383e-02 1.71812564e-11 1.70115517e-11 1.69704720e-13 6.31599129e-63 2.50915252e-64 1.70115517e-11
4.78630092e-02 1.72385128e-11 1.70115517e-11 2.26961087e-13 9.62984518e-56 5.28941398e-57 1.70115517e-11
5.49540874e-02 1.72900954e-11 1.70115517e-11 2.78543666e-13 1.61593640e-49 1.12604353e-50 1.70115517e-11
6.30957344e-02 1.73475589e-11 1.70115517e-11 3.36007149e-13 5.28308041e-44 4.52772232e-45 1.70115517e-11
7.24435960e-02 1.73255475e-11 1.70115517e-11 3.13995816e-13 3.06404781e-39 2.60426770e-40 1.70115517e-11
8.31763771e-02 1.73274648e-11 1.70115517e-11 3.15913091e-13 3.13399092e-35 2.64798833e-36 1.70115517e-11
9.54992586e-02 1.73375234e-11 1.70115517e-11 3.25971634e-13 8.84153834e-32 7.80924590e-33 1.70115517e-11
1.09647820e-01 1.65884036e-11 1.62459122e-11 3.42491479e-13 7.50369986e-29 7.04538652e-30 1.62459122e-11
1.25892541e-01 1.54739758e-11 1.51615674e-11 3.12408365e-13 2.41334424e-26 2.12653315e-27 1.51615674e-11
1.44543977e-01 1.44294775e-11 1.41495980e-11 2.79879570e-13 3.27140146e-24 2.75564182e-25 1.41495980e-11
1.65958691e-01 1.34985699e-11 1.32051732e-11 2.93396783e-13 1.66154782e-22 1.54505139e-23 1.32051732e-11
1.90546072e-01 1.26537314e-11 1.23237846e-11 3.29946746e-13 3.54143617e-21 4.02542756e-22 1.23237846e-11
2.18776162e-01 1.18261590e-11 1.15012250e-11 3.24933936e-13 4.22885068e-20 5.23102887e-21 1.15012250e-11
2.51188643e-01 1.11085622e-11 1.07335677e-11 3.74993917e-13 5.19499883e-19 7.81819393e-20 1.07335677e-11
2.88403150e-01 1.03590836e-11 1.00171482e-11 3.41931023e-13 4.29681993e-18 6.23426880e-19 1.00171482e-11
3.31131121e-01 9.65354369e-12 9.34854667e-12 3.04972537e-13 2.44822192e-17 3.39435225e-18 9.34854667e-12
3.80189396e-01 9.00239520e-12 8.72457139e-12 2.77721966e-13 1.01846215e-16 1.37121693e-17 8.72457139e-12
4.36515832e-01 8.39904553e-12 8.14224377e-12 2.56475831e-13 3.25923524e-16 4.40084383e-17 8.14224377e-12
5.01187234e-01 7.83653571e-12 7.59878402e-12 2.36888264e-13 8.63431449e-16 1.23936644e-16 7.59878402e-12
5.75439937e-01 7.31080136e-12 7.09159786e-12 2.17045233e-13 2.15825812e-15 3.61202676e-16 7.09159786e-12
6.60693448e-01 6.82683449e-12 6.61826421e-12 2.02830150e-13 5.74012865e-15 1.16313425e-15 6.61826421e-12
7.58577575e-01 6.37471604e-12 6.17652353e-12 1.81269987e-13 1.69225202e-14 3.87575548e-15 6.17652353e-12
8.70963590e-01 5.97398215e-12 5.76426715e-12 1.60941930e-13 4.87730704e-14 1.13941898e-14 5.76426715e-12
1.00000000e+00 5.64443739e-12 5.37952711e-12 1.37802036e-13 1.27108238e-13 2.84399979e-14 5.37952711e-12
1.14815362e+00 5.43055975e-12 5.02046681e-12 1.13365179e-13 2.96727759e-13 6.08535548e-14 5.02046681e-12
1.31825674e+00 5.39429647e-12 4.68537225e-12 8.90214505e-14 6.19902772e-13 1.12113444e-13 4.68537225e-12
1.51356125e+00 5.58697357e-12 4.37264380e-12 7.11096428e-14 1.14322013e-12 1.79556082e-13 4.37264380e-12
1.73780083e+00 6.01323987e-12 4.08078863e-12 5.37730545e-14 1.87867818e-12 2.48120237e-13 4.08078863e-12
1.99526231e+00 6.61794778e-12 3.80841354e-12 3.98558756e-14 2.76967837e-12 3.00492474e-13 3.80841354e-12
2.29086765e+00 7.30163582e-12 3.55421832e-12 2.92792097e-14 3.71813830e-12 3.21947345e-13 3.55421832e-12
2.63026799e+00 7.92069091e-12 3.31698953e-12 2.11846343e-14 4.58251674e-12 3.10138082e-13 3.31698953e-12
3.01995172e+00 8.38778446e-12 3.09559474e-12 1.48699084e-14 5.27731981e-12 2.76063472e-13 3.09559474e-12
3.46736850e+00 8.70152017e-12 2.88897711e-12 1.04769646e-14 5.80206610e-12 2.26293693e-13 2.88897711e-12
3.98107171e+00 8.76490419e-12 2.69615031e-12 7.16462728e-15 6.06158926e-12 1.74435062e-13 2.69615031e-12
4.57088190e+00 8.62691585e-12 2.51619387e-12 4.77693383e-15 6.10594504e-12 1.24046459e-13 2.51619387e-12
5.24807460e+00 8.09618003e-12 2.08050667e-12 2.66102736e-15 6.01301233e-12 8.28181493e-14 2.08050667e-12
6.02559586e+00 7.19029843e-12 1.37457712e-12 1.15428511e-15 5.81456702e-12 5.18528518e-14 1.37457712e-12
6.70000000e+00 6.59476836e-12 9.99872685e-13 5.94363633e-16 5.59430131e-12 3.46243352e-14 9.99872685e-13
6.92422916e+00 6.42694043e-12 9.05846924e-13 4.74079137e-16 5.52061943e-12 3.02681901e-14 9.05846924e-13
7.15596261e+00 6.29420234e-12 8.20663132e-13 3.79394420e-16 5.47315982e-12 2.61822934e-14 8.20663132e-13
7.39545150e+00 6.23657741e-12 7.43489831e-13 2.90275996e-16 5.49279731e-12 2.23549072e-14 7.43489831e-13
7.64295536e+00 6.44022409e-12 6.73573732e-13 2.02572635e-16 5.76644779e-12 1.86864522e-14 6.73573732e-13
7.89874245e+00 6.97028606e-12 6.10232385e-13 1.25684895e-16 6.35992799e-12 1.47906283e-14 6.10232385e-13
8.16308998e+00 7.70860144e-12 5.52847515e-13 7.29970643e-17 7.15568093e-12 1.16932427e-14 5.52847515e-13
8.43628443e+00 8.62753847e-12 5.00858987e-13 4.01260246e-17 8.12663936e-12 8.68565195e-15 5.00858987e-13
8.71862190e+00 9.22877341e-12 4.53759343e-13 2.49473957e-17 8.77498912e-12 6.71734373e-15 4.53759343e-13
9.01040836e+00 9.78839829e-12 4.11088843e-13 1.50210741e-17 9.37729442e-12 5.02459793e-15 4.11088843e-13
9.31196005e+00 1.02078848e-11 3.72430980e-13 0.00000000e+00 9.83545384e-12 0.00000000e+00 3.72430980e-13
9.62360379e+00 1.00736701e-11 3.37408415e-13 0.00000000e+00 9.73626173e-12 0.00000000e+00 3.37408415e-13
9.94567731e+00 9.63295940e-12 3.05679292e-13 0.00000000e+00 9.32728010e-12 0.00000000e+00 3.05679292e-13
1.02785297e+01 9.09868635e-12 2.76933904e-13 0.00000000e+00 8.82175244e-12 0.00000000e+00 2.76933904e-13
1.06225216e+01 8.52238981e-12 2.50891667e-13 0.00000000e+00 8.27149815e-12 0.00000000e+00 2.50891667e-13
1.09780260e+01 7.94723806e-12 2.27298384e-13 0.00000000e+00 7.71993968e-12 0.00000000e+00 2.27298384e-13
1.13454280e+01 7.44154148e-12 2.05923759e-13 0.00000000e+00 7.23561772e-12 0.00000000e+00 2.05923759e-13
1.17251259e+01 6.97244823e-12 1.86559155e-13 0.00000000e+00 6.78588907e-12 0.00000000e+00 1.86559155e-13
1.21175312e+01 6.51446972e-12 1.69015555e-13 0.00000000e+00 6.34545417e-12 0.00000000e+00 1.69015555e-13
1.25230691e+01 6.08819245e-12 1.53121715e-13 0.00000000e+00 5.93507073e-12 0.00000000e+00 1.53121715e-13
1.29421791e+01 5.72657123e-12 1.38722496e-13 0.00000000e+00 5.58784874e-12 0.00000000e+00 1.38722496e-13
1.33753155e+01 5.35999189e-12 1.25677347e-13 0.00000000e+00 5.23431454e-12 0.00000000e+00 1.25677347e-13
1.38229477e+01 5.12624187e-12 1.13858934e-13 0.00000000e+00 5.01238294e-12 0.00000000e+00 1.13858934e-13
1.42855609e+01 4.97914918e-12 1.03151898e-13 0.00000000e+00 4.87599728e-12 0.00000000e+00 1.03151898e-13
1.47636563e+01 5.00041903e-12 9.34517274e-14 0.00000000e+00 4.90696730e-12 0.00000000e+00 9.34517274e-14
1.52577522e+01 5.06587760e-12 8.46637387e-14 0.00000000e+00 4.98121386e-12 0.00000000e+00 8.46637387e-14
1.57683840e+01 5.16264126e-12 7.67021526e-14 0.00000000e+00 5.08593911e-12 0.00000000e+00 7.67021526e-14
1.62961051e+01 5.24931900e-12 6.94892560e-14 0.00000000e+00 5.17982975e-12 0.00000000e+00 6.94892560e-14
1.68414875e+01 5.31684725e-12 6.29546439e-14 0.00000000e+00 5.25389260e-12 0.00000000e+00 6.29546439e-14
1.74051222e+01 5.33199877e-12 5.70345319e-14 0.00000000e+00 5.27496424e-12 0.00000000e+00 5.70345319e-14
1.79876201e+01 5.30317219e-12 5.16711337e-14 0.00000000e+00 5.25150106e-12 0.00000000e+00 5.16711337e-14
1.85896125e+01 5.19034112e-12 4.68120974e-14 0.00000000e+00 5.14352902e-12 0.00000000e+00 4.68120974e-14
1.92117518e+01 5.06633265e-12 4.24099939e-14 0.00000000e+00 5.02392266e-12 0.00000000e+00 4.24099939e-14
1.98547123e+01 4.86939093e-12 3.84218542e-14 0.00000000e+00 4.83096908e-12 0.00000000e+00 3.84218542e-14
2.05191907e+01 4.66596886e-12 3.48087501e-14 0.00000000e+00 4.63116011e-12 0.00000000e+00 3.48087501e-14
2.12059073e+01 4.47235418e-12 3.15354141e-14 0.00000000e+00 4.44081876e-12 0.00000000e+00 3.15354141e-14
2.19156062e+01 4.26989154e-12 2.85698952e-14 0.00000000e+00 4.24132165e-12 0.00000000e+00 2.85698952e-14
2.26490567e+01 4.08991715e-12 2.58832470e-14 0.00000000e+00 4.06403390e-12 0.00000000e+00 2.58832470e-14
2.34070535e+01 3.89019270e-12 2.34492452e-14 0.00000000e+00 3.86674346e-12 0.00000000e+00 2.34492452e-14
2.41904183e+01 3.70564813e-12 2.12441313e-14 0.00000000e+00 3.68440400e-12 0.00000000e+00 2.12441313e-14
2.50000000e+01 3.53174191e-12 1.92463813e-14 0.00000000e+00 3.51249553e-12 0.00000000e+00 1.92463813e-14
2.75422870e+01 3.01210709e-12 1.43935895e-14 0.00000000e+00 2.99771350e-12 0.00000000e+00 1.43935895e-14
3.16227766e+01 2.31576983e-12 9.50975027e-15 0.00000000e+00 2.30626008e-12 0.00000000e+00 9.50975027e-15
3.63078055e+01 1.68853132e-12 6.28302969e-15 0.00000000e+00 1.68224829e-12 0.00000000e+00 6.28302969e-15
4.16869383e+01 1.14826137e-12 4.15115655e-15 0.00000000e+00 1.14411021e-12 0.00000000e+00 4.15115655e-15
4.78630092e+01 7.35562840e-13 2.74264194e-15 0.00000000e+00 7.32820198e-13 0.00000000e+00 2.74264194e-15
5.49540874e+01 4.46914879e-13 1.81204556e-15 0.00000000e+00 4.45102833e-13 0.00000000e+00 1.81204556e-15
6.30957344e+01 2.60032027e-13 1.19720663e-15 0.00000000e+00 2.58834820e-13 0.00000000e+00 1.19720663e-15
7.24435960e+01 1.46740669e-13 7.90986575e-16 0.00000000e+00 1.45949682e-13 0.00000000e+00 7.90986575e-16
8.31763771e+01 8.08537726e-14 5.22599647e-16 0.00000000e+00 8.03311729e-14 0.00000000e+00 5.22599647e-16
9.54992586e+01 4.38754387e-14 3.45278163e-16 0.00000000e+00 4.35301605e-14 0.00000000e+00 3.45278163e-16
1.09647820e+02 2.35736273e-14 2.28123020e-16 0.00000000e+00 2.33455043e-14 0.00000000e+00 2.28123020e-16
1.25892541e+02 1.27106988e-14 1.50719385e-16 0.00000000e+00 1.25599794e-14 0.00000000e+00 1.50719385e-16
1.44543977e+02 6.84242845e-15 9.95793099e-17 0.00000000e+00 6.74284914e-15 0.00000000e+00 9.95793099e-17
1.65958691e+02 3.52161025e-15 6.57913976e-17 0.00000000e+00 3.45581885e-15 0.00000000e+00 6.57913976e-17
1.90546072e+02 1.82087515e-15 4.34679453e-17 0.00000000e+00 1.77740721e-15 0.00000000e+00 4.34679453e-17
2.18776162e+02 9.43575746e-16 2.87189867e-17 0.00000000e+00 9.14856760e-16 0.00000000e+00 2.87189867e-17
2.51188643e+02 4.89180148e-16 1.89744463e-17 0.00000000e+00 4.70205702e-16 0.00000000e+00 1.89744463e-17
2.88403150e+02 2.53474727e-16 1.25362924e-17 0.00000000e+00 2.40938435e-16 0.00000000e+00 1.25362924e-17
3.31131121e+02 1.31582921e-16 8.28264623e-18 0.00000000e+00 1.23300274e-16 0.00000000e+00 8.28264623e-18
3.80189396e+02 6.84084977e-17 5.47229010e-18 0.00000000e+00 6.29362076e-17 0.00000000e+00 5.47229010e-18
4.36515832e+02 3.56928982e-17 3.61550621e-18 0.00000000e+00 3.20773920e-17 0.00000000e+00 3.61550621e-18
5.01187234e+02 1.87075040e-17 2.38874127e-18 0.00000000e+00 1.63187628e-17 0.00000000e+00 2.38874127e-18
5.75439937e+02 9.86819948e-18 1.57822570e-18 0.00000000e+00 8.28997378e-18 0.00000000e+00 1.57822570e-18
6.60693448e+02 5.24854632e-18 1.04272338e-18 0.00000000e+00 4.20582294e-18 0.00000000e+00 1.04272338e-18
7.58577575e+02 2.82033801e-18 6.88920507e-19 0.00000000e+00 2.13141750e-18 0.00000000e+00 6.88920507e-19
8.70963590e+02 1.53397719e-18 4.55165265e-19 0.00000000e+00 1.07881192e-18 0.00000000e+00 4.55165265e-19
1.00000000e+03 5.45380011e-19 0.00000000e+00 0.00000000e+00 5.45380011e-19 0.00000000e+00 0.00000000e+00
