# column 1: lambda (micron)
# column 2: total flux; lambda*F_lambda (W/m2)
# column 3: direct stellar flux; lambda*F_lambda (W/m2)
# column 4: scattered stellar flux; lambda*F_lambda (W/m2)
# column 5: total dust emission flux; lambda*F_lambda (W/m2)
# column 6: dust emission scattered flux; lambda*F_lambda (W/m2)
# column 7: transparent flux; lambda*F_lambda (W/m2)
1.00000000e-03 1.04634796e-12 1.04634360e-12 4.36042654e-18 0.00000000e+00 0.00000000e+00 1.04634360e-12
1.14815362e-03 1.23502760e-12 1.23502095e-12 6.65154200e-18 0.00000000e+00 0.00000000e+00 1.23502095e-12
1.31825674e-03 1.45773065e-12 1.45772071e-12 9.94323748e-18 0.00000000e+00 0.00000000e+00 1.45772071e-12
1.51356125e-03 1.72059305e-12 1.72057784e-12 1.52102221e-17 0.00000000e+00 0.00000000e+00 1.72057784e-12
1.73780083e-03 2.03086016e-12 2.03083353e-12 2.66349611e-17 0.00000000e+00 0.00000000e+00 2.03083353e-12
1.99526231e-03 2.39708221e-12 2.39703472e-12 4.74914396e-17 0.00000000e+00 0.00000000e+00 2.39703472e-12
2.29086765e-03 2.82934436e-12 2.82926954e-12 7.48149555e-17 0.00000000e+00 0.00000000e+00 2.82926954e-12
2.63026799e-03 3.33959673e-12 3.33944522e-12 1.51508585e-16 0.00000000e+00 0.00000000e+00 3.33944522e-12
3.01995172e-03 3.94187281e-12 3.94161611e-12 2.56705805e-16 0.00000000e+00 0.00000000e+00 3.94161611e-12
3.46736850e-03 4.65278344e-12 4.65237083e-12 4.12609997e-16 0.00000000e+00 0.00000000e+00 4.65237083e-12
3.98107171e-03 5.49198307e-12 5.49128930e-12 6.93777536e-16 0.00000000e+00 0.00000000e+00 5.49128930e-12
4.57088190e-03 6.48297316e-12 6.48148207e-12 1.49108434e-15 0.00000000e+00 0.00000000e+00 6.48148207e-12
5.24807460e-03 7.65284525e-12 7.65022704e-12 2.61820636e-15 0.00000000e+00 0.00000000e+00 7.65022704e-12
6.02559586e-03 9.03455249e-12 9.02972084e-12 4.83164260e-15 0.00000000e+00 0.00000000e+00 9.02972084e-12
6.91830971e-03 1.06826564e-11 1.06579658e-11 2.46905839e-14 0.00000000e+00 0.00000000e+00 1.06579658e-11
7.94328235e-03 1.25924246e-11 1.25798170e-11 1.26075352e-14 0.00000000e+00 0.00000000e+00 1.25798170e-11
9.12010839e-03 1.48687968e-11 1.48482176e-11 2.05791360e-14 0.00000000e+00 0.00000000e+00 1.48482176e-11
1.04712855e-02 1.66115212e-11 1.65834298e-11 2.80914196e-14 0.00000000e+00 0.00000000e+00 1.65834298e-11
1.20226443e-02 1.66427791e-11 1.65834298e-11 5.93493561e-14 0.00000000e+00 0.00000000e+00 1.65834298e-11
1.38038426e-02 1.66655947e-11 1.65834298e-11 8.21648977e-14 4.02248145e-303 1.75446507e-303 1.65834298e-11
1.58489319e-02 1.66760003e-11 1.65834298e-11 9.25704729e-14 4.74809853e-265 1.04948706e-265 1.65834298e-11
1.81970086e-02 1.67175128e-11 1.65834298e-11 1.34083009e-13 9.33183233e-232 3.16281688e-232 1.65834298e-11
2.08929613e-02 1.67552087e-11 1.65834298e-11 1.71778961e-13 8.95438692e-203 3.62153551e-203 1.65834298e-11
2.39883292e-02 1.68137299e-11 1.65834298e-11 2.30300079e-13 1.36113007e-177 5.71625327e-178 1.65834298e-11
2.75422870e-02 1.68723215e-11 1.65834298e-11 2.88891762e-13 1.15694404e-155 5.26321099e-156 1.65834298e-11
3.16227766e-02 1.69332526e-11 1.65834298e-11 3.49822786e-13 1.42245522e-136 7.27695578e-137 1.65834298e-11
3.63078055e-02 1.69576605e-11 1.65834298e-11 3.74230713e-13 5.34219497e-120 2.82179461e-120 1.65834298e-11
4.16869383e-02 1.70698079e-11 1.65834298e-11 4.86378142e-13 1.54395094e-105 9.65308976e-106 1.65834298e-11
4.78630092e-02 1.71405811e-11 1.65834298e-11 5.57151266e-13 5.59128583e-93 3.75579681e-93 1.65834298e-11
5.49540874e-02 1.71739380e-11 1.65834298e-11 5.90508260e-13 4.48689629e-82 3.18895465e-82 1.65834298e-11
6.30957344e-02 1.71157557e-11 1.65834298e-11 5.32325923e-13 1.61522551e-72 1.21013907e-72 1.65834298e-11
7.24435960e-02 1.70168853e-11 1.65834298e-11 4.33455521e-13 2.66247095e-64 1.94918498e-64 1.65834298e-11
8.31763771e-02 1.70042696e-11 1.65834298e-11 4.20839849e-13 3.35355025e-57 2.35973468e-57 1.65834298e-11
9.54992586e-02 1.70225561e-11 1.65834298e-11 4.39126277e-13 5.76792041e-51 3.68345445e-51 1.65834298e-11
1.09647820e-01 1.63345715e-11 1.58370587e-11 4.97512742e-13 2.06545368e-45 1.10228286e-45 1.58370587e-11
1.25892541e-01 1.52995992e-11 1.47800032e-11 5.19596057e-13 1.82235439e-40 7.75730563e-41 1.47800032e-11
1.44543977e-01 1.42939368e-11 1.37935015e-11 5.00435289e-13 3.96711740e-36 1.49428531e-36 1.37935015e-11
1.65958691e-01 1.33982785e-11 1.28728446e-11 5.25433848e-13 1.84613733e-32 6.89755611e-33 1.28728446e-11
1.90546072e-01 1.25409105e-11 1.20136376e-11 5.27272923e-13 1.84385961e-29 7.30381691e-30 1.20136376e-11
2.18776162e-01 1.16732745e-11 1.12117790e-11 4.61495527e-13 5.52543737e-27 2.19954725e-27 1.12117790e-11
2.51188643e-01 1.09924556e-11 1.04634409e-11 5.29014626e-13 1.61954004e-24 6.95408473e-25 1.04634409e-11
2.88403150e-01 1.02783399e-11 9.76505125e-12 5.13288605e-13 2.02990828e-22 8.58347313e-23 9.76505125e-12
3.31131121e-01 9.60093544e-12 9.11327608e-12 4.87659345e-13 1.21638445e-20 5.01632394e-21 9.11327608e-12
3.80189396e-01 8.95750649e-12 8.50500410e-12 4.52502002e-13 3.92560744e-19 1.56805371e-19 8.50500410e-12
4.36515832e-01 8.35867760e-12 7.93733165e-12 4.21338438e-13 7.50749224e-18 2.85461157e-18 7.93733165e-12
5.01187234e-01 7.78256149e-12 7.40754890e-12 3.74921926e-13 9.06612886e-17 3.33370843e-17 7.40754890e-12
5.75439937e-01 7.26062810e-12 6.91312687e-12 3.46756182e-13 7.45046013e-16 2.63391008e-16 6.91312687e-12
6.60693448e-01 6.75678223e-12 6.45170538e-12 3.00719225e-13 4.35761851e-15 1.44315931e-15 6.45170538e-12
7.58577575e-01 6.30373764e-12 6.02108180e-12 2.63176735e-13 1.94791070e-14 6.10166674e-15 6.02108180e-12
8.70963590e-01 5.91553814e-12 5.61920048e-12 2.28072806e-13 6.82648573e-14 1.99322743e-14 5.61920048e-12
1.00000000e+00 5.62342810e-12 5.24414302e-12 1.84376341e-13 1.94908741e-13 5.10200178e-14 5.24414302e-12
1.14815362e+00 5.52223047e-12 4.89411902e-12 1.48833368e-13 4.79278077e-13 1.09374360e-13 4.89411902e-12
1.31825674e+00 5.71335409e-12 4.56745763e-12 1.14955600e-13 1.03094086e-12 2.03513189e-13 4.56745763e-12
1.51356125e+00 6.31320076e-12 4.26259947e-12 8.80214377e-14 1.96257985e-12 3.27746482e-13 4.26259947e-12
1.73780083e+00 7.30215637e-12 3.97808929e-12 6.70151116e-14 3.25705197e-12 4.51301662e-13 3.97808929e-12
1.99526231e+00 8.63282501e-12 3.71256894e-12 5.09047478e-14 4.86935132e-12 5.59762296e-13 3.71256894e-12
2.29086765e+00 1.01303176e-11 3.46477093e-12 3.80297276e-14 6.62751696e-12 6.08285918e-13 3.46477093e-12
2.63026799e+00 1.15954687e-11 3.23351237e-12 2.81099515e-14 8.33384634e-12 6.10457386e-13 3.23351237e-12
3.01995172e+00 1.28693084e-11 3.01768933e-12 2.10039655e-14 9.83061514e-12 5.72093159e-13 3.01768933e-12
3.46736850e+00 1.38999364e-11 2.81627154e-12 1.52352394e-14 1.10684296e-11 4.98348124e-13 2.81627154e-12
3.98107171e+00 1.48615174e-11 2.62829753e-12 1.11414458e-14 1.22220784e-11 4.17168048e-13 2.62829753e-12
4.57088190e+00 1.54090974e-11 2.45286997e-12 7.95081881e-15 1.29482766e-11 3.26779770e-13 2.45286997e-12
5.24807460e+00 1.56315645e-11 2.02814751e-12 4.75107316e-15 1.35986659e-11 2.37854656e-13 2.02814751e-12
6.02559586e+00 1.52800553e-11 1.33998377e-12 2.17504287e-15 1.39378965e-11 1.63443355e-13 1.33998377e-12
6.70000000e+00 1.50020350e-11 9.74709347e-13 1.15052620e-15 1.40261752e-11 1.16152110e-13 9.74709347e-13
6.92422916e+00 1.49085934e-11 8.83049889e-13 9.40371197e-16 1.40246031e-11 1.03557026e-13 8.83049889e-13
7.15596261e+00 1.49008892e-11 8.00009879e-13 7.46143355e-16 1.41001332e-11 9.10618179e-14 8.00009879e-13
7.39545150e+00 1.48958003e-11 7.24778763e-13 5.65144044e-16 1.41704564e-11 7.75130255e-14 7.24778763e-13
7.64295536e+00 1.51264225e-11 6.56622211e-13 3.81597296e-16 1.44694187e-11 6.21187893e-14 6.56622211e-13
7.89874245e+00 1.55989872e-11 5.94874946e-13 2.20450707e-16 1.50038918e-11 4.55713183e-14 5.94874946e-13
8.16308998e+00 1.62984867e-11 5.38934254e-13 1.18837975e-16 1.57594336e-11 3.24296780e-14 5.38934254e-13
8.43628443e+00 1.70354886e-11 4.88254098e-13 6.10394584e-17 1.65471735e-11 2.21569904e-14 4.88254098e-13
8.71862190e+00 1.74619012e-11 4.42339790e-13 3.72538067e-17 1.70195241e-11 1.65838982e-14 4.42339790e-13
9.01040836e+00 1.79981109e-11 4.00743158e-13 2.27847273e-17 1.75973449e-11 1.23788974e-14 4.00743158e-13
9.31196005e+00 1.81347353e-11 3.63058180e-13 0.00000000e+00 1.77716771e-11 0.00000000e+00 3.63058180e-13
9.62360379e+00 1.81775589e-11 3.28917012e-13 0.00000000e+00 1.78486419e-11 0.00000000e+00 3.28917012e-13
9.94567731e+00 1.78253331e-11 2.97986401e-13 0.00000000e+00 1.75273467e-11 0.00000000e+00 2.97986401e-13
1.02785297e+01 1.73091876e-11 2.69964435e-13 0.00000000e+00 1.70392232e-11 0.00000000e+00 2.69964435e-13
1.06225216e+01 1.66842085e-11 2.44577592e-13 0.00000000e+00 1.64396309e-11 0.00000000e+00 2.44577592e-13
1.09780260e+01 1.64289810e-11 2.21578069e-13 0.00000000e+00 1.62074029e-11 0.00000000e+00 2.21578069e-13
1.13454280e+01 1.61142845e-11 2.00741370e-13 0.00000000e+00 1.59135431e-11 0.00000000e+00 2.00741370e-13
1.17251259e+01 1.56814672e-11 1.81864106e-13 0.00000000e+00 1.54996031e-11 0.00000000e+00 1.81864106e-13
1.21175312e+01 1.53895413e-11 1.64762018e-13 0.00000000e+00 1.52247792e-11 0.00000000e+00 1.64762018e-13
1.25230691e+01 1.51272438e-11 1.49268171e-13 0.00000000e+00 1.49779757e-11 0.00000000e+00 1.49268171e-13
1.29421791e+01 1.46198393e-11 1.35231331e-13 0.00000000e+00 1.44846080e-11 0.00000000e+00 1.35231331e-13
1.33753155e+01 1.44296981e-11 1.22514483e-13 0.00000000e+00 1.43071836e-11 0.00000000e+00 1.22514483e-13
1.38229477e+01 1.40639982e-11 1.10993499e-13 0.00000000e+00 1.39530047e-11 0.00000000e+00 1.10993499e-13
1.42855609e+01 1.38522046e-11 1.00555922e-13 0.00000000e+00 1.37516487e-11 0.00000000e+00 1.00555922e-13
1.47636563e+01 1.38456829e-11 9.10998706e-14 0.00000000e+00 1.37545830e-11 0.00000000e+00 9.10998706e-14
1.52577522e+01 1.37906262e-11 8.25330452e-14 0.00000000e+00 1.37080931e-11 0.00000000e+00 8.25330452e-14
1.57683840e+01 1.37545570e-11 7.47718247e-14 0.00000000e+00 1.36797852e-11 0.00000000e+00 7.47718247e-14
1.62961051e+01 1.37878014e-11 6.77404517e-14 0.00000000e+00 1.37200610e-11 0.00000000e+00 6.77404517e-14
1.68414875e+01 1.36921967e-11 6.13702932e-14 0.00000000e+00 1.36308265e-11 0.00000000e+00 6.13702932e-14
1.74051222e+01 1.35808183e-11 5.55991699e-14 0.00000000e+00 1.35252192e-11 0.00000000e+00 5.55991699e-14
1.79876201e+01 1.33503155e-11 5.03707500e-14 0.00000000e+00 1.32999447e-11 0.00000000e+00 5.03707500e-14
1.85896125e+01 1.30689178e-11 4.56339988e-14 0.00000000e+00 1.30232838e-11 0.00000000e+00 4.56339988e-14
1.92117518e+01 1.27927200e-11 4.13426810e-14 0.00000000e+00 1.27513773e-11 0.00000000e+00 4.13426810e-14
1.98547123e+01 1.23773741e-11 3.74549090e-14 0.00000000e+00 1.23399192e-11 0.00000000e+00 3.74549090e-14
2.05191907e+01 1.19582281e-11 3.39327342e-14 0.00000000e+00 1.19242954e-11 0.00000000e+00 3.39327342e-14
2.12059073e+01 1.15103170e-11 3.07417768e-14 0.00000000e+00 1.14795752e-11 0.00000000e+00 3.07417768e-14
2.19156062e+01 1.11132099e-11 2.78508898e-14 0.00000000e+00 1.10853590e-11 0.00000000e+00 2.78508898e-14
2.26490567e+01 1.06128436e-11 2.52318552e-14 0.00000000e+00 1.05876117e-11 0.00000000e+00 2.52318552e-14
2.34070535e+01 1.01465245e-11 2.28591087e-14 0.00000000e+00 1.01236654e-11 0.00000000e+00 2.28591087e-14
2.41904183e+01 9.68622849e-12 2.07094900e-14 0.00000000e+00 9.66551900e-12 0.00000000e+00 2.07094900e-14
2.50000000e+01 9.30078793e-12 1.87620165e-14 0.00000000e+00 9.28202592e-12 0.00000000e+00 1.87620165e-14
2.75422870e+01 7.93847675e-12 1.40313526e-14 0.00000000e+00 7.92444539e-12 0.00000000e+00 1.40313526e-14
3.16227766e+01 6.10775532e-12 9.27042274e-15 0.00000000e+00 6.09848490e-12 0.00000000e+00 9.27042274e-15
3.63078055e+01 4.44317821e-12 6.12490756e-15 0.00000000e+00 4.43705331e-12 0.00000000e+00 6.12490756e-15
4.16869383e+01 3.06935983e-12 4.04668630e-15 0.00000000e+00 3.06531315e-12 0.00000000e+00 4.04668630e-15
4.78630092e+01 1.99181483e-12 2.67361912e-15 0.00000000e+00 1.98914121e-12 0.00000000e+00 2.67361912e-15
5.49540874e+01 1.22919425e-12 1.76644264e-15 0.00000000e+00 1.22742780e-12 0.00000000e+00 1.76644264e-15
6.30957344e+01 7.23374774e-13 1.16707708e-15 0.00000000e+00 7.22207697e-13 0.00000000e+00 1.16707708e-15
7.24435960e+01 4.11444738e-13 7.71080178e-16 0.00000000e+00 4.10673657e-13 0.00000000e+00 7.71080178e-16
8.31763771e+01 2.28135417e-13 5.09447621e-16 0.00000000e+00 2.27625969e-13 0.00000000e+00 5.09447621e-16
9.54992586e+01 1.24191547e-13 3.36588705e-16 0.00000000e+00 1.23854958e-13 0.00000000e+00 3.36588705e-16
1.09647820e+02 6.66978540e-14 2.22381952e-16 0.00000000e+00 6.64754721e-14 0.00000000e+00 2.22381952e-16
1.25892541e+02 3.58807282e-14 1.46926299e-16 0.00000000e+00 3.57338019e-14 0.00000000e+00 1.46926299e-16
1.44543977e+02 1.92466763e-14 9.70732430e-17 0.00000000e+00 1.91496031e-14 0.00000000e+00 9.70732430e-17
1.65958691e+02 9.87442988e-15 6.41356556e-17 0.00000000e+00 9.81029423e-15 0.00000000e+00 6.41356556e-17
1.90546072e+02 5.08001947e-15 4.23740075e-17 0.00000000e+00 5.03764547e-15 0.00000000e+00 4.23740075e-17
2.18776162e+02 2.61592276e-15 2.79962291e-17 0.00000000e+00 2.58792653e-15 0.00000000e+00 2.79962291e-17
2.51188643e+02 1.34594448e-15 1.84969251e-17 0.00000000e+00 1.32744755e-15 0.00000000e+00 1.84969251e-17
2.88403150e+02 6.91059210e-16 1.22207972e-17 0.00000000e+00 6.78838413e-16 0.00000000e+00 1.22207972e-17
3.31131121e+02 3.54798181e-16 8.07420067e-18 0.00000000e+00 3.46723980e-16 0.00000000e+00 8.07420067e-18
3.80189396e+02 1.81985983e-16 5.33457148e-18 0.00000000e+00 1.76651411e-16 0.00000000e+00 5.33457148e-18
4.36515832e+02 9.34059147e-17 3.52451642e-18 0.00000000e+00 8.98813983e-17 0.00000000e+00 3.52451642e-18
5.01187234e+02 4.79836786e-17 2.32862491e-18 0.00000000e+00 4.56550537e-17 0.00000000e+00 2.32862491e-18
5.75439937e+02 2.46975595e-17 1.53850722e-18 0.00000000e+00 2.31590523e-17 0.00000000e+00 1.53850722e-18
6.60693448e+02 1.27510313e-17 1.01648164e-18 0.00000000e+00 1.17345497e-17 0.00000000e+00 1.01648164e-18
7.58577575e+02 6.61151004e-18 6.71582760e-19 0.00000000e+00 5.93992728e-18 0.00000000e+00 6.71582760e-19
8.70963590e+02 3.44710898e-18 4.43710329e-19 0.00000000e+00 3.00339865e-18 0.00000000e+00 4.43710329e-19
1.00000000e+03 1.51692934e-18 0.00000000e+00 0.00000000e+00 1.51692934e-18 0.00000000e+00 0.00000000e+00
