# column 1: lambda (micron)
# column 2: total flux; lambda*F_lambda (W/m2)
# column 3: direct stellar flux; lambda*F_lambda (W/m2)
# column 4: scattered stellar flux; lambda*F_lambda (W/m2)
# column 5: total dust emission flux; lambda*F_lambda (W/m2)
# column 6: dust emission scattered flux; lambda*F_lambda (W/m2)
# column 7: transparent flux; lambda*F_lambda (W/m2)
1.00000000e-03 1.04404264e-12 1.04403713e-12 5.50737489e-18 0.00000000e+00 0.00000000e+00 1.04634360e-12
1.14815362e-03 1.23144525e-12 1.23142552e-12 1.97265874e-17 0.00000000e+00 0.00000000e+00 1.23502095e-12
1.31825674e-03 1.45234693e-12 1.45232726e-12 1.96625327e-17 0.00000000e+00 0.00000000e+00 1.45772071e-12
1.51356125e-03 1.71310025e-12 1.71307501e-12 2.52364729e-17 0.00000000e+00 0.00000000e+00 1.72057784e-12
1.73780083e-03 2.02205147e-12 2.02188646e-12 1.65003656e-16 0.00000000e+00 0.00000000e+00 2.03083353e-12
1.99526231e-03 2.38423946e-12 2.38304348e-12 1.19598292e-15 0.00000000e+00 0.00000000e+00 2.39703472e-12
2.29086765e-03 2.81206287e-12 2.81176063e-12 3.02235440e-16 0.00000000e+00 0.00000000e+00 2.82926954e-12
2.63026799e-03 3.31577835e-12 3.31469507e-12 1.08327552e-15 0.00000000e+00 0.00000000e+00 3.33944522e-12
3.01995172e-03 3.90610847e-12 3.90551759e-12 5.90882390e-16 0.00000000e+00 0.00000000e+00 3.94161611e-12
3.46736850e-03 4.60576597e-12 4.60219144e-12 3.57452172e-15 0.00000000e+00 0.00000000e+00 4.65237083e-12
3.98107171e-03 5.43019721e-12 5.42354659e-12 6.65062404e-15 0.00000000e+00 0.00000000e+00 5.49128930e-12
4.57088190e-03 6.44170812e-12 6.42803615e-12 1.36719763e-14 0.00000000e+00 0.00000000e+00 6.48148207e-12
5.24807460e-03 7.62348653e-12 7.56974692e-12 5.37396098e-14 0.00000000e+00 0.00000000e+00 7.65022704e-12
6.02559586e-03 8.94579050e-12 8.91530827e-12 3.04822260e-14 0.00000000e+00 0.00000000e+00 9.02972084e-12
6.91830971e-03 1.05432716e-11 1.05022604e-11 4.10112363e-14 0.00000000e+00 0.00000000e+00 1.06579658e-11
7.94328235e-03 1.24073193e-11 1.23749521e-11 3.23671837e-14 1.09281726e-303 6.04374185e-306 1.25798170e-11
9.12010839e-03 1.46896052e-11 1.45801266e-11 1.09478554e-13 6.67161765e-265 7.53516182e-267 1.48482176e-11
1.04712855e-02 1.63744149e-11 1.62650722e-11 1.09342700e-13 3.72556721e-231 2.33031750e-233 1.65834298e-11
1.20226443e-02 1.63085509e-11 1.62464755e-11 6.20753685e-14 7.49172464e-202 7.25559662e-204 1.65834298e-11
1.38038426e-02 1.63043330e-11 1.62244453e-11 7.98876303e-14 2.52849825e-176 2.42240814e-178 1.65834298e-11
1.58489319e-02 1.62798338e-11 1.61974129e-11 8.24209370e-14 4.12797265e-154 4.75691786e-156 1.65834298e-11
1.81970086e-02 1.62963301e-11 1.61725202e-11 1.23809924e-13 8.70367674e-135 1.48222937e-136 1.65834298e-11
2.08929613e-02 1.62610921e-11 1.61518581e-11 1.09233953e-13 5.23697047e-118 9.38268292e-120 1.65834298e-11
2.39883292e-02 1.62521807e-11 1.61251263e-11 1.27054429e-13 2.07872132e-103 4.14317860e-105 1.65834298e-11
2.75422870e-02 1.62333913e-11 1.60940882e-11 1.39303161e-13 1.03673289e-90 2.40459364e-92 1.65834298e-11
3.16227766e-02 1.62087776e-11 1.60637221e-11 1.45055470e-13 1.11176860e-79 3.07352262e-81 1.65834298e-11
3.63078055e-02 1.61887824e-11 1.60399445e-11 1.48837873e-13 4.18598818e-70 1.28348032e-71 1.65834298e-11
4.16869383e-02 1.61896910e-11 1.60194071e-11 1.70283926e-13 8.58256167e-62 3.41909647e-63 1.65834298e-11
4.78630092e-02 1.61622449e-11 1.59629323e-11 1.99312629e-13 1.38645723e-54 7.23219430e-56 1.65834298e-11
5.49540874e-02 1.61118596e-11 1.58847241e-11 2.27135536e-13 2.44115597e-48 1.54739743e-49 1.65834298e-11
6.30957344e-02 1.59555696e-11 1.56902979e-11 2.65271719e-13 8.28141848e-43 6.36840083e-44 1.65834298e-11
7.24435960e-02 1.57353616e-11 1.54630743e-11 2.72287344e-13 4.96059023e-38 3.79304364e-39 1.65834298e-11
8.31763771e-02 1.57447266e-11 1.54831598e-11 2.61566858e-13 5.26439630e-34 3.97998235e-35 1.65834298e-11
9.54992586e-02 1.57995067e-11 1.55422200e-11 2.57286737e-13 1.53700192e-30 1.22143703e-31 1.65834298e-11
1.09647820e-01 1.52549031e-11 1.50065040e-11 2.48399129e-13 1.34917290e-27 1.12991157e-28 1.58370587e-11
1.25892541e-01 1.43543949e-11 1.41389401e-11 2.15454812e-13 4.48101153e-25 3.55069463e-26 1.47800032e-11
1.44543977e-01 1.34801661e-11 1.32957472e-11 1.84418949e-13 6.23971718e-23 4.74184225e-24 1.37935015e-11
1.65958691e-01 1.26435865e-11 1.24656565e-11 1.77929928e-13 3.24031693e-21 2.76740381e-22 1.28728446e-11
1.90546072e-01 1.18022092e-11 1.16086570e-11 1.93552132e-13 7.00186893e-20 7.39220196e-21 1.20136376e-11
2.18776162e-01 1.09613257e-11 1.07697377e-11 1.91587209e-13 8.43481469e-19 9.69233899e-20 1.12117790e-11
2.51188643e-01 1.03352915e-11 1.01321953e-11 2.03085606e-13 1.05767164e-17 1.52792990e-18 1.04634409e-11
2.88403150e-01 9.68691124e-12 9.50769563e-12 1.79126614e-13 8.89965411e-17 1.25963229e-17 9.76505125e-12
3.31131121e-01 9.06250962e-12 8.90354996e-12 1.58446230e-13 5.13431185e-16 6.98681429e-17 9.11327608e-12
3.80189396e-01 8.47498612e-12 8.33288208e-12 1.39947147e-13 2.15688430e-15 2.87813600e-16 8.50500410e-12
4.36515832e-01 7.92939072e-12 7.79734501e-12 1.25154579e-13 6.89113109e-15 9.25454724e-16 7.93733165e-12
5.01187234e-01 7.42809698e-12 7.29524572e-12 1.15496445e-13 1.73548139e-14 2.34718101e-15 7.40754890e-12
5.75439937e-01 6.96306438e-12 6.82397101e-12 1.03084609e-13 3.60087622e-14 4.90455624e-15 6.91312687e-12
6.60693448e-01 6.53925967e-12 6.38154645e-12 9.35673601e-14 6.41458672e-14 8.97950305e-15 6.45170538e-12
7.58577575e-01 6.15469391e-12 5.96654849e-12 8.56324677e-14 1.02512950e-13 1.46903564e-14 6.02108180e-12
8.70963590e-01 5.80492074e-12 5.57775452e-12 7.47276116e-14 1.52438608e-13 2.23033239e-14 5.61920048e-12
1.00000000e+00 5.49432122e-12 5.21315562e-12 6.44157664e-14 2.16749825e-13 3.19089979e-14 5.24414302e-12
1.14815362e+00 5.23470865e-12 4.87136499e-12 5.32097625e-14 3.10133890e-13 4.46738778e-14 4.89411902e-12
1.31825674e+00 5.04589358e-12 4.55104130e-12 4.23371433e-14 4.52515132e-13 6.11072223e-14 4.56745763e-12
1.51356125e+00 4.94342338e-12 4.25087644e-12 3.22230757e-14 6.60323864e-13 7.87749979e-14 4.26259947e-12
1.73780083e+00 4.92282226e-12 3.96985455e-12 2.38686333e-14 9.29099077e-13 9.28626109e-14 3.97808929e-12
1.99526231e+00 4.95239993e-12 3.70687567e-12 1.77455046e-14 1.22777876e-12 9.78346275e-14 3.71256894e-12
2.29086765e+00 4.98345811e-12 3.46084724e-12 1.23246758e-14 1.51028620e-12 9.33133463e-14 3.46477093e-12
2.63026799e+00 4.96913711e-12 3.23078304e-12 8.81769984e-15 1.72953637e-12 8.23568304e-14 3.23351237e-12
3.01995172e+00 4.88417593e-12 3.01576646e-12 6.13672802e-15 1.86227275e-12 6.69375530e-14 3.01768933e-12
3.46736850e+00 4.72335301e-12 2.81489477e-12 4.31320682e-15 1.90414503e-12 5.23011020e-14 2.81627154e-12
3.98107171e+00 4.49068073e-12 2.62729918e-12 2.80260591e-15 1.86057894e-12 3.79960481e-14 2.62829753e-12
4.57088190e+00 4.21444812e-12 2.45213617e-12 1.85102802e-15 1.76046093e-12 2.59087127e-14 2.45286997e-12
5.24807460e+00 3.65547663e-12 2.02766008e-12 1.03321198e-15 1.62678334e-12 1.65850573e-14 2.02814751e-12
6.02559586e+00 2.83129914e-12 1.33971615e-12 4.44902112e-16 1.49113808e-12 1.00065027e-14 1.33998377e-12
6.70000000e+00 2.35554527e-12 9.74537038e-13 2.23863102e-16 1.38078437e-12 6.51136239e-15 9.74709347e-13
6.92422916e+00 2.23057128e-12 8.82899255e-13 1.81476528e-16 1.34749055e-12 5.64261817e-15 8.83049889e-13
7.15596261e+00 2.12586031e-12 7.99875793e-13 1.40335959e-16 1.32584419e-12 4.85061785e-15 8.00009879e-13
7.39545150e+00 2.05759557e-12 7.24654386e-13 1.10608173e-16 1.33283058e-12 4.15502667e-15 7.24778763e-13
7.64295536e+00 2.08036031e-12 6.56493827e-13 7.69608154e-17 1.42378952e-12 3.51349853e-15 6.56622211e-13
7.89874245e+00 2.23842289e-12 5.94724674e-13 4.84241849e-17 1.64364979e-12 2.89695735e-15 5.94874946e-13
8.16308998e+00 2.49839498e-12 5.38750435e-13 2.92288627e-17 1.95961531e-12 2.35244742e-15 5.38934254e-13
8.43628443e+00 2.86507178e-12 4.88022746e-13 1.69909737e-17 2.37703204e-12 1.86202533e-15 4.88254098e-13
8.71862190e+00 3.10274168e-12 4.42082264e-13 1.09342016e-17 2.66064849e-12 1.47725410e-15 4.42339790e-13
9.01040836e+00 3.33633401e-12 4.00460543e-13 7.20832045e-18 2.93586626e-12 1.12535022e-15 4.00743158e-13
9.31196005e+00 3.51711364e-12 3.62761233e-13 0.00000000e+00 3.15435241e-12 0.00000000e+00 3.63058180e-13
9.62360379e+00 3.44852822e-12 3.28640905e-13 0.00000000e+00 3.11988732e-12 0.00000000e+00 3.28917012e-13
9.94567731e+00 3.22584529e-12 2.97751686e-13 0.00000000e+00 2.92809360e-12 0.00000000e+00 2.97986401e-13
1.02785297e+01 2.96547552e-12 2.69772060e-13 0.00000000e+00 2.69570346e-12 0.00000000e+00 2.69964435e-13
1.06225216e+01 2.70282392e-12 2.44421609e-13 0.00000000e+00 2.45840231e-12 0.00000000e+00 2.44577592e-13
1.09780260e+01 2.42267429e-12 2.21456154e-13 0.00000000e+00 2.20121814e-12 0.00000000e+00 2.21578069e-13
1.13454280e+01 2.18798877e-12 2.00645701e-13 0.00000000e+00 1.98734307e-12 0.00000000e+00 2.00741370e-13
1.17251259e+01 1.98098621e-12 1.81788550e-13 0.00000000e+00 1.79919766e-12 0.00000000e+00 1.81864106e-13
1.21175312e+01 1.79207668e-12 1.64702653e-13 0.00000000e+00 1.62737403e-12 0.00000000e+00 1.64762018e-13
1.25230691e+01 1.61896573e-12 1.49221655e-13 0.00000000e+00 1.46974407e-12 0.00000000e+00 1.49268171e-13
1.29421791e+01 1.47201925e-12 1.35194627e-13 0.00000000e+00 1.33682463e-12 0.00000000e+00 1.35231331e-13
1.33753155e+01 1.34300016e-12 1.22485315e-13 0.00000000e+00 1.22051485e-12 0.00000000e+00 1.22514483e-13
1.38229477e+01 1.25408663e-12 1.10969250e-13 0.00000000e+00 1.14311738e-12 0.00000000e+00 1.10993499e-13
1.42855609e+01 1.20078633e-12 1.00534847e-13 0.00000000e+00 1.10025148e-12 0.00000000e+00 1.00555922e-13
1.47636563e+01 1.20533694e-12 9.10798689e-14 0.00000000e+00 1.11425707e-12 0.00000000e+00 9.10998706e-14
1.52577522e+01 1.22474854e-12 8.25137191e-14 0.00000000e+00 1.14223482e-12 0.00000000e+00 8.25330452e-14
1.57683840e+01 1.25266700e-12 7.47529117e-14 0.00000000e+00 1.17791409e-12 0.00000000e+00 7.47718247e-14
1.62961051e+01 1.28086210e-12 6.77219655e-14 0.00000000e+00 1.21314014e-12 0.00000000e+00 6.77404517e-14
1.68414875e+01 1.31261813e-12 6.13522645e-14 0.00000000e+00 1.25126586e-12 0.00000000e+00 6.13702932e-14
1.74051222e+01 1.32335740e-12 5.55820495e-14 0.00000000e+00 1.26777535e-12 0.00000000e+00 5.55991699e-14
1.79876201e+01 1.32173536e-12 5.03547649e-14 0.00000000e+00 1.27138060e-12 0.00000000e+00 5.03707500e-14
1.85896125e+01 1.30360101e-12 4.56195355e-14 0.00000000e+00 1.25798147e-12 0.00000000e+00 4.56339988e-14
1.92117518e+01 1.26239925e-12 4.13299769e-14 0.00000000e+00 1.22106928e-12 0.00000000e+00 4.13426810e-14
1.98547123e+01 1.20757471e-12 3.74439678e-14 0.00000000e+00 1.17013074e-12 0.00000000e+00 3.74549090e-14
2.05191907e+01 1.15279956e-12 3.39234064e-14 0.00000000e+00 1.11887616e-12 0.00000000e+00 3.39327342e-14
2.12059073e+01 1.09743201e-12 3.07338256e-14 0.00000000e+00 1.06669819e-12 0.00000000e+00 3.07417768e-14
2.19156062e+01 1.04722054e-12 2.78440791e-14 0.00000000e+00 1.01937646e-12 0.00000000e+00 2.78508898e-14
2.26490567e+01 1.00119478e-12 2.52260121e-14 0.00000000e+00 9.75968766e-13 0.00000000e+00 2.52318552e-14
2.34070535e+01 9.57719822e-13 2.28540864e-14 0.00000000e+00 9.34865736e-13 0.00000000e+00 2.28591087e-14
2.41904183e+01 9.15504963e-13 2.07051623e-14 0.00000000e+00 8.94799800e-13 0.00000000e+00 2.07094900e-14
2.50000000e+01 8.74048063e-13 1.87582793e-14 0.00000000e+00 8.55289784e-13 0.00000000e+00 1.87620165e-14
2.75422870e+01 7.59575402e-13 1.40289154e-14 0.00000000e+00 7.45546486e-13 0.00000000e+00 1.40313526e-14
3.16227766e+01 6.06768632e-13 9.26908367e-15 0.00000000e+00 5.97499549e-13 0.00000000e+00 9.27042274e-15
3.63078055e+01 4.61331465e-13 6.12417573e-15 0.00000000e+00 4.55207289e-13 0.00000000e+00 6.12490756e-15
4.16869383e+01 3.28789923e-13 4.04629692e-15 0.00000000e+00 3.24743626e-13 0.00000000e+00 4.04668630e-15
4.78630092e+01 2.19788285e-13 2.67341839e-15 0.00000000e+00 2.17114867e-13 0.00000000e+00 2.67361912e-15
5.49540874e+01 1.39559339e-13 1.76634135e-15 0.00000000e+00 1.37792998e-13 0.00000000e+00 1.76644264e-15
6.30957344e+01 8.50176989e-14 1.16702662e-15 0.00000000e+00 8.38506723e-14 0.00000000e+00 1.16707708e-15
7.24435960e+01 5.01538203e-14 7.71055224e-16 0.00000000e+00 4.93827651e-14 0.00000000e+00 7.71080178e-16
8.31763771e+01 2.88895267e-14 5.09435299e-16 0.00000000e+00 2.83800914e-14 0.00000000e+00 5.09447621e-16
9.54992586e+01 1.63587000e-14 3.36582607e-16 0.00000000e+00 1.60221174e-14 0.00000000e+00 3.36588705e-16
1.09647820e+02 9.14415396e-15 2.22378923e-16 0.00000000e+00 8.92177503e-15 0.00000000e+00 2.22381952e-16
1.25892541e+02 5.11651151e-15 1.46924772e-16 0.00000000e+00 4.96958674e-15 0.00000000e+00 1.46926299e-16
1.44543977e+02 2.84942855e-15 9.70724676e-17 0.00000000e+00 2.75235608e-15 0.00000000e+00 9.70732430e-17
1.65958691e+02 1.51444457e-15 6.41352754e-17 0.00000000e+00 1.45030929e-15 0.00000000e+00 6.41356556e-17
1.90546072e+02 8.07001174e-16 4.23738192e-17 0.00000000e+00 7.64627355e-16 0.00000000e+00 4.23740075e-17
2.18776162e+02 4.30251059e-16 2.79961353e-17 0.00000000e+00 4.02254924e-16 0.00000000e+00 2.79962291e-17
2.51188643e+02 2.29255739e-16 1.84968783e-17 0.00000000e+00 2.10758860e-16 0.00000000e+00 1.84969251e-17
2.88403150e+02 1.22049287e-16 1.22207738e-17 0.00000000e+00 1.09828513e-16 0.00000000e+00 1.22207972e-17
3.31131121e+02 6.51137804e-17 8.07418891e-18 0.00000000e+00 5.70395915e-17 0.00000000e+00 8.07420067e-18
3.80189396e+02 3.48251940e-17 5.33456559e-18 0.00000000e+00 2.94906284e-17 0.00000000e+00 5.33457148e-18
4.36515832e+02 1.87249182e-17 3.52451347e-18 0.00000000e+00 1.52004047e-17 0.00000000e+00 3.52451642e-18
5.01187234e+02 1.01377200e-17 2.32862342e-18 0.00000000e+00 7.80909660e-18 0.00000000e+00 2.32862491e-18
5.75439937e+02 5.53937997e-18 1.53850647e-18 0.00000000e+00 4.00087349e-18 0.00000000e+00 1.53850722e-18
6.60693448e+02 3.06139918e-18 1.01648127e-18 0.00000000e+00 2.04491791e-18 0.00000000e+00 1.01648164e-18
7.58577575e+02 1.71459484e-18 6.71582571e-19 0.00000000e+00 1.04301226e-18 0.00000000e+00 6.71582760e-19
8.70963590e+02 9.74598840e-19 4.43710235e-19 0.00000000e+00 5.30888605e-19 0.00000000e+00 4.43710329e-19
1.00000000e+03 2.69699033e-19 0.00000000e+00 0.00000000e+00 2.69699033e-19 0.00000000e+00 0.00000000e+00
