# column 1: lambda (micron)
# column 2: total flux; lambda*F_lambda (W/m2)
# column 3: direct stellar flux; lambda*F_lambda (W/m2)
# column 4: scattered stellar flux; lambda*F_lambda (W/m2)
# column 5: total dust emission flux; lambda*F_lambda (W/m2)
# column 6: dust emission scattered flux; lambda*F_lambda (W/m2)
# column 7: transparent flux; lambda*F_lambda (W/m2)
1.00000000e-03 2.06057563e-13 2.06056732e-13 8.31233103e-19 0.00000000e+00 0.00000000e+00 2.06075710e-13
1.14815362e-03 2.43207435e-13 2.43205819e-13 1.61618343e-18 0.00000000e+00 0.00000000e+00 2.43235413e-13
1.31825674e-03 2.87053736e-13 2.87051367e-13 2.36896578e-18 0.00000000e+00 0.00000000e+00 2.87095777e-13
1.51356125e-03 3.38807938e-13 3.38803271e-13 4.66712943e-18 0.00000000e+00 0.00000000e+00 3.38865070e-13
1.73780083e-03 3.99901945e-13 3.99895739e-13 6.20634592e-18 0.00000000e+00 0.00000000e+00 3.99969435e-13
1.99526231e-03 4.71989491e-13 4.71976854e-13 1.26372040e-17 0.00000000e+00 0.00000000e+00 4.72092178e-13
2.29086765e-03 5.57092867e-13 5.57075796e-13 1.70706523e-17 0.00000000e+00 0.00000000e+00 5.57220139e-13
2.63026799e-03 6.57536622e-13 6.57494269e-13 4.23531907e-17 0.00000000e+00 0.00000000e+00 6.57698429e-13
3.01995172e-03 7.76067881e-13 7.75997006e-13 7.08748193e-17 0.00000000e+00 0.00000000e+00 7.76295028e-13
3.46736850e-03 9.15981293e-13 9.15862444e-13 1.18848693e-16 0.00000000e+00 0.00000000e+00 9.16277040e-13
3.98107171e-03 1.08114915e-12 1.08094057e-12 2.08584361e-16 0.00000000e+00 0.00000000e+00 1.08150070e-12
4.57088190e-03 1.27652091e-12 1.27607655e-12 4.44359923e-16 0.00000000e+00 0.00000000e+00 1.27651759e-12
5.24807460e-03 1.50686293e-12 1.50603519e-12 8.27734534e-16 0.00000000e+00 0.00000000e+00 1.50670006e-12
6.02559586e-03 1.77891859e-12 1.77744300e-12 1.47559633e-15 0.00000000e+00 0.00000000e+00 1.77838917e-12
6.91830971e-03 2.10087748e-12 2.09778057e-12 3.09691554e-15 0.00000000e+00 0.00000000e+00 2.09906943e-12
7.94328235e-03 2.47989974e-12 2.47587780e-12 4.02194162e-15 0.00000000e+00 0.00000000e+00 2.47757497e-12
9.12010839e-03 2.92920667e-12 2.92211000e-12 7.09667189e-15 0.00000000e+00 0.00000000e+00 2.92433286e-12
1.04712855e-02 3.27322004e-12 3.26343902e-12 9.78101422e-15 0.00000000e+00 0.00000000e+00 3.26608014e-12
1.20226443e-02 3.27516642e-12 3.26328322e-12 1.18832078e-14 0.00000000e+00 0.00000000e+00 3.26608014e-12
1.38038426e-02 3.28533307e-12 3.26309842e-12 2.22346478e-14 6.27271947e-290 1.69797167e-291 3.26608014e-12
1.58489319e-02 3.29343285e-12 3.26287134e-12 3.05615139e-14 3.48363629e-253 1.54564531e-254 3.26608014e-12
1.81970086e-02 3.29762594e-12 3.26266191e-12 3.49640309e-14 3.29149106e-221 1.44843177e-222 3.26608014e-12
2.08929613e-02 3.31242914e-12 3.26248784e-12 4.99413028e-14 2.10430992e-193 1.18700182e-194 3.26608014e-12
2.39883292e-02 3.31068493e-12 3.26226231e-12 4.84226175e-14 3.29624633e-169 1.73569482e-170 3.26608014e-12
2.75422870e-02 3.31366647e-12 3.26200001e-12 5.16664636e-14 3.80059861e-148 2.29791181e-149 3.26608014e-12
3.16227766e-02 3.32757824e-12 3.26174291e-12 6.58353256e-14 7.83015623e-130 5.00464797e-131 3.26608014e-12
3.63078055e-02 3.32120318e-12 3.26154128e-12 5.96619015e-14 6.43831013e-114 3.82844497e-115 3.26608014e-12
4.16869383e-02 3.32007780e-12 3.26136688e-12 5.87109177e-14 4.42560547e-100 3.05566064e-101 3.26608014e-12
4.78630092e-02 3.31459867e-12 3.26088623e-12 5.37124454e-14 4.57212832e-88 3.17857821e-89 3.26608014e-12
5.49540874e-02 3.31190488e-12 3.26021790e-12 5.16869773e-14 1.22948182e-77 8.86894487e-79 3.26608014e-12
6.30957344e-02 3.30757306e-12 3.25854267e-12 4.90303871e-14 1.81935841e-68 1.33542462e-69 3.26608014e-12
7.24435960e-02 3.29766163e-12 3.25655945e-12 4.11021830e-14 1.61122506e-60 1.12532362e-61 3.26608014e-12
8.31763771e-02 3.29797804e-12 3.25673588e-12 4.12421644e-14 1.00839795e-53 6.84189589e-55 3.26608014e-12
9.54992586e-02 3.29887043e-12 3.25725339e-12 4.16170456e-14 7.61685902e-48 5.23597557e-49 3.26608014e-12
1.09647820e-01 3.15659866e-12 3.11207915e-12 4.45195063e-14 8.56000997e-43 6.19256191e-44 3.11908354e-12
1.25892541e-01 2.94674815e-12 2.90551621e-12 4.12319416e-14 1.95879186e-38 1.40002866e-39 2.91089813e-12
1.44543977e-01 2.74893265e-12 2.71244446e-12 3.64881930e-14 1.09226051e-34 7.67638404e-36 2.71660820e-12
1.65958691e-01 2.57067975e-12 2.53188761e-12 3.87921482e-14 1.39576540e-31 1.02818960e-32 2.53528629e-12
1.90546072e-01 2.40122268e-12 2.36268311e-12 3.85395678e-14 4.82615255e-29 3.95236269e-30 2.36606683e-12
2.18776162e-01 2.23917336e-12 2.20443823e-12 3.47351336e-14 6.55656207e-27 5.49895448e-28 2.20814205e-12
2.51188643e-01 2.09449755e-12 2.05799322e-12 3.65043331e-14 7.04102727e-25 6.90748465e-26 2.06075806e-12
2.88403150e-01 1.95688816e-12 1.92106881e-12 3.58193529e-14 4.08114309e-23 3.94054515e-24 1.92321132e-12
3.31131121e-01 1.82447436e-12 1.79310210e-12 3.13722591e-14 1.34798246e-21 1.29893307e-22 1.79484524e-12
3.80189396e-01 1.70220413e-12 1.67361838e-12 2.85857225e-14 2.77777493e-20 2.64228174e-21 1.67504704e-12
4.36515832e-01 1.58656042e-12 1.56208440e-12 2.44756366e-14 3.83347871e-19 3.69057557e-20 1.56324485e-12
5.01187234e-01 1.48085548e-12 1.45797513e-12 2.28766621e-14 3.68538025e-18 3.56677876e-19 1.45890498e-12
5.75439937e-01 1.38117140e-12 1.36079197e-12 2.03535309e-14 2.59022117e-17 2.54450811e-18 1.36152935e-12
6.60693448e-01 1.28970285e-12 1.27007342e-12 1.94929962e-14 1.36434104e-16 1.32868451e-17 1.27065312e-12
7.58577575e-01 1.20220633e-12 1.18539230e-12 1.62425081e-14 5.71530767e-16 5.54117256e-17 1.18584249e-12
8.70963590e-01 1.12349721e-12 1.10635073e-12 1.51919344e-14 1.95454776e-15 1.88055021e-16 1.10669260e-12
1.00000000e+00 1.05060369e-12 1.03257021e-12 1.24539487e-14 5.57953234e-15 5.17785844e-16 1.03282563e-12
1.14815362e+00 9.87734460e-13 9.63701518e-13 1.00821421e-14 1.39507996e-14 1.21482889e-15 9.63888963e-13
1.31825674e+00 9.38675596e-13 8.99418353e-13 8.24117236e-15 3.10160703e-14 2.45432829e-15 8.99553520e-13
1.51356125e+00 9.06947542e-13 8.39415707e-13 6.53077083e-15 6.10010646e-14 4.25250288e-15 8.39512191e-13
1.73780083e+00 8.93870906e-13 7.83410610e-13 5.03855431e-15 1.05421741e-13 6.24148884e-15 7.83478363e-13
1.99526231e+00 8.96590334e-13 7.31137722e-13 3.69037098e-15 1.61762241e-13 7.61952091e-15 7.31184552e-13
2.29086765e+00 9.07012582e-13 6.82348859e-13 2.54321302e-15 2.22120510e-13 8.01372657e-15 6.82381128e-13
2.63026799e+00 9.16802072e-13 6.36812679e-13 1.77748509e-15 2.78211908e-13 7.48158336e-15 6.36835122e-13
3.01995172e+00 9.17320620e-13 5.94313307e-13 1.26071349e-15 3.21746600e-13 6.40522429e-15 5.94329117e-13
3.46736850e+00 9.03266715e-13 5.54648885e-13 8.32016437e-16 3.47785814e-13 5.06659159e-15 5.54660204e-13
3.98107171e+00 8.72322792e-13 5.17630814e-13 5.59835136e-16 3.54132143e-13 3.72082504e-15 5.17639021e-13
4.57088190e+00 8.27681917e-13 4.83082810e-13 3.56779611e-16 3.44242328e-13 2.52772503e-15 4.83088843e-13
5.24807460e+00 7.21097651e-13 3.99436422e-13 1.93572231e-16 3.21467657e-13 1.59132126e-15 3.99440428e-13
6.02559586e+00 5.57392659e-13 2.63905474e-13 8.70383086e-17 2.93400147e-13 9.59793545e-16 2.63907674e-13
6.70000000e+00 4.61375680e-13 1.91966040e-13 4.34809086e-17 2.69366159e-13 6.05596009e-16 1.91967457e-13
6.92422916e+00 4.35237169e-13 1.73914034e-13 3.52694261e-17 2.61287865e-13 5.20399757e-16 1.73915272e-13
7.15596261e+00 4.13577258e-13 1.57559572e-13 2.77730912e-17 2.55989913e-13 4.50156426e-16 1.57560674e-13
7.39545150e+00 3.99621769e-13 1.42743003e-13 2.07624534e-17 2.56858004e-13 3.74437517e-16 1.42744025e-13
7.64295536e+00 4.05440777e-13 1.29319645e-13 1.42476171e-17 2.76106884e-13 3.14250006e-16 1.29320701e-13
7.89874245e+00 4.40636986e-13 1.17158440e-13 9.17872225e-18 3.23469368e-13 2.57093672e-16 1.17159675e-13
8.16308998e+00 4.98200790e-13 1.06140734e-13 5.40566259e-18 3.92054650e-13 2.09034760e-16 1.06142245e-13
8.43628443e+00 5.84184654e-13 9.61589666e-14 2.90656797e-18 4.88022781e-13 1.61806726e-16 9.61608686e-14
8.71862190e+00 6.41747739e-13 8.71160012e-14 1.82323062e-18 5.54629914e-13 1.24432197e-16 8.71181185e-14
9.01040836e+00 7.01848878e-13 7.89234043e-14 1.21054433e-18 6.22924263e-13 9.17328693e-17 7.89257281e-14
9.31196005e+00 7.49774474e-13 7.15012898e-14 0.00000000e+00 6.78273184e-13 0.00000000e+00 7.15037315e-14
9.62360379e+00 7.39237377e-13 6.47774122e-14 0.00000000e+00 6.74459964e-13 0.00000000e+00 6.47796826e-14
9.94567731e+00 6.85787654e-13 5.86860181e-14 0.00000000e+00 6.27101636e-13 0.00000000e+00 5.86879481e-14
1.02785297e+01 6.19935437e-13 5.31674847e-14 0.00000000e+00 5.66767952e-13 0.00000000e+00 5.31690665e-14
1.06225216e+01 5.57188468e-13 4.81678855e-14 0.00000000e+00 5.09020582e-13 0.00000000e+00 4.81691679e-14
1.09780260e+01 4.89595404e-13 4.36384462e-14 0.00000000e+00 4.45956958e-13 0.00000000e+00 4.36394486e-14
1.13454280e+01 4.32004085e-13 3.95349072e-14 0.00000000e+00 3.92469178e-13 0.00000000e+00 3.95356937e-14
1.17251259e+01 3.83175290e-13 3.58172255e-14 0.00000000e+00 3.47358064e-13 0.00000000e+00 3.58178467e-14
1.21175312e+01 3.39373827e-13 3.24491295e-14 0.00000000e+00 3.06924697e-13 0.00000000e+00 3.24496176e-14
1.25230691e+01 3.00302295e-13 2.93977467e-14 0.00000000e+00 2.70904548e-13 0.00000000e+00 2.93981291e-14
1.29421791e+01 2.67609746e-13 2.66332939e-14 0.00000000e+00 2.40976452e-13 0.00000000e+00 2.66335956e-14
1.33753155e+01 2.40306204e-13 2.41287929e-14 0.00000000e+00 2.16177411e-13 0.00000000e+00 2.41290327e-14
1.38229477e+01 2.21382758e-13 2.18597938e-14 0.00000000e+00 1.99522964e-13 0.00000000e+00 2.18599931e-14
1.42855609e+01 2.09893279e-13 1.98041557e-14 0.00000000e+00 1.90089124e-13 0.00000000e+00 1.98043289e-14
1.47636563e+01 2.10280915e-13 1.79418103e-14 0.00000000e+00 1.92339105e-13 0.00000000e+00 1.79419747e-14
1.52577522e+01 2.13171845e-13 1.62545932e-14 0.00000000e+00 1.96917252e-13 0.00000000e+00 1.62547521e-14
1.57683840e+01 2.18096680e-13 1.47260365e-14 0.00000000e+00 2.03370643e-13 0.00000000e+00 1.47261920e-14
1.62961051e+01 2.22726639e-13 1.33412223e-14 0.00000000e+00 2.09385417e-13 0.00000000e+00 1.33413743e-14
1.68414875e+01 2.27739842e-13 1.20866335e-14 0.00000000e+00 2.15653208e-13 0.00000000e+00 1.20867817e-14
1.74051222e+01 2.29725620e-13 1.09500274e-14 0.00000000e+00 2.18775592e-13 0.00000000e+00 1.09501681e-14
1.79876201e+01 2.29615964e-13 9.92030774e-15 0.00000000e+00 2.19695656e-13 0.00000000e+00 9.92043915e-15
1.85896125e+01 2.25716633e-13 8.98742463e-15 0.00000000e+00 2.16729209e-13 0.00000000e+00 8.98754353e-15
1.92117518e+01 2.17868031e-13 8.14227087e-15 0.00000000e+00 2.09725760e-13 0.00000000e+00 8.14237531e-15
1.98547123e+01 2.08123812e-13 7.37659484e-15 0.00000000e+00 2.00747217e-13 0.00000000e+00 7.37668479e-15
2.05191907e+01 1.98199093e-13 6.68292139e-15 0.00000000e+00 1.91516172e-13 0.00000000e+00 6.68299807e-15
2.12059073e+01 1.88790930e-13 6.05447871e-15 0.00000000e+00 1.82736451e-13 0.00000000e+00 6.05454408e-15
2.19156062e+01 1.81416671e-13 5.48513249e-15 0.00000000e+00 1.75931538e-13 0.00000000e+00 5.48518847e-15
2.26490567e+01 1.74017143e-13 4.96932575e-15 0.00000000e+00 1.69047817e-13 0.00000000e+00 4.96937378e-15
2.34070535e+01 1.68145798e-13 4.50202385e-15 0.00000000e+00 1.63643774e-13 0.00000000e+00 4.50206513e-15
2.41904183e+01 1.62438349e-13 4.07866556e-15 0.00000000e+00 1.58359683e-13 0.00000000e+00 4.07870113e-15
2.50000000e+01 1.57312550e-13 3.69511860e-15 0.00000000e+00 1.53617432e-13 0.00000000e+00 3.69514932e-15
2.75422870e+01 1.44028545e-13 2.76343256e-15 0.00000000e+00 1.41265112e-13 0.00000000e+00 2.76345259e-15
3.16227766e+01 1.28105506e-13 1.82578402e-15 0.00000000e+00 1.26279722e-13 0.00000000e+00 1.82579502e-15
3.63078055e+01 1.11304300e-13 1.20628479e-15 0.00000000e+00 1.10098016e-13 0.00000000e+00 1.20629081e-15
4.16869383e+01 9.29319427e-14 7.96985233e-16 0.00000000e+00 9.21349574e-14 0.00000000e+00 7.96988434e-16
4.78630092e+01 7.37638296e-14 5.26563386e-16 0.00000000e+00 7.32372662e-14 0.00000000e+00 5.26565037e-16
5.49540874e+01 5.57336369e-14 3.47897237e-16 0.00000000e+00 5.53857397e-14 0.00000000e+00 3.47898070e-16
6.30957344e+01 4.01125105e-14 2.29853560e-16 0.00000000e+00 3.98826570e-14 0.00000000e+00 2.29853975e-16
7.24435960e+01 2.76227520e-14 1.51862810e-16 0.00000000e+00 2.74708892e-14 0.00000000e+00 1.51863015e-16
8.31763771e+01 1.82934528e-14 1.00334798e-16 0.00000000e+00 1.81931180e-14 0.00000000e+00 1.00334899e-16
9.54992586e+01 1.17160527e-14 6.62905604e-17 0.00000000e+00 1.16497621e-14 0.00000000e+00 6.62906105e-17
1.09647820e+02 7.27859929e-15 4.37977472e-17 0.00000000e+00 7.23480154e-15 0.00000000e+00 4.37977720e-17
1.25892541e+02 4.45573464e-15 2.89368885e-17 0.00000000e+00 4.42679775e-15 0.00000000e+00 2.89369010e-17
1.44543977e+02 2.67553716e-15 1.91184145e-17 0.00000000e+00 2.65641874e-15 0.00000000e+00 1.91184209e-17
1.65958691e+02 1.51644977e-15 1.26314123e-17 0.00000000e+00 1.50381835e-15 0.00000000e+00 1.26314154e-17
1.90546072e+02 8.50723683e-16 8.34549187e-18 0.00000000e+00 8.42378191e-16 0.00000000e+00 8.34549342e-18
2.18776162e+02 4.71971349e-16 5.51381205e-18 0.00000000e+00 4.66457537e-16 0.00000000e+00 5.51381282e-18
2.51188643e+02 2.58922025e-16 3.64293962e-18 0.00000000e+00 2.55279085e-16 0.00000000e+00 3.64294000e-18
2.88403150e+02 1.40465360e-16 2.40686640e-18 0.00000000e+00 1.38058494e-16 0.00000000e+00 2.40686659e-18
3.31131121e+02 7.55928326e-17 1.59020089e-18 0.00000000e+00 7.40026318e-17 0.00000000e+00 1.59020099e-18
3.80189396e+02 4.03574216e-17 1.05063533e-18 0.00000000e+00 3.93067863e-17 0.00000000e+00 1.05063537e-18
4.36515832e+02 2.14258700e-17 6.94147883e-19 0.00000000e+00 2.07317222e-17 0.00000000e+00 6.94147908e-19
5.01187234e+02 1.13213279e-17 4.58618962e-19 0.00000000e+00 1.08627090e-17 0.00000000e+00 4.58618975e-19
5.75439937e+02 5.96306665e-18 3.03006545e-19 0.00000000e+00 5.66006010e-18 0.00000000e+00 3.03006552e-19
6.60693448e+02 3.13533448e-18 2.00194440e-19 0.00000000e+00 2.93514004e-18 0.00000000e+00 2.00194443e-19
7.58577575e+02 1.64807017e-18 1.32267156e-19 0.00000000e+00 1.51580301e-18 0.00000000e+00 1.32267157e-19
8.70963590e+02 8.67225767e-19 8.73880433e-20 0.00000000e+00 7.79837724e-19 0.00000000e+00 8.73880441e-20
1.00000000e+03 3.99836545e-19 0.00000000e+00 0.00000000e+00 3.99836545e-19 0.00000000e+00 0.00000000e+00
