# column 1: lambda (micron)
# column 2: total flux; lambda*F_lambda (W/m2)
# column 3: direct stellar flux; lambda*F_lambda (W/m2)
# column 4: scattered stellar flux; lambda*F_lambda (W/m2)
# column 5: total dust emission flux; lambda*F_lambda (W/m2)
# column 6: dust emission scattered flux; lambda*F_lambda (W/m2)
# column 7: transparent flux; lambda*F_lambda (W/m2)
1.00000000e-03 8.46530146e-13 8.46529401e-13 7.45167307e-19 0.00000000e+00 0.00000000e+00 8.46529401e-13
1.14815362e-03 9.99177305e-13 9.99176121e-13 1.18462746e-18 0.00000000e+00 0.00000000e+00 9.99176121e-13
1.31825674e-03 1.17934998e-12 1.17934819e-12 1.78611625e-18 0.00000000e+00 0.00000000e+00 1.17934819e-12
1.51356125e-03 1.39201177e-12 1.39200901e-12 2.76091118e-18 0.00000000e+00 0.00000000e+00 1.39200901e-12
1.73780083e-03 1.64302191e-12 1.64301696e-12 4.95083327e-18 0.00000000e+00 0.00000000e+00 1.64301696e-12
1.99526231e-03 1.93929567e-12 1.93928682e-12 8.84760870e-18 0.00000000e+00 0.00000000e+00 1.93928682e-12
2.29086765e-03 2.28899402e-12 2.28898025e-12 1.37631401e-17 0.00000000e+00 0.00000000e+00 2.28898025e-12
2.63026799e-03 2.70175931e-12 2.70173063e-12 2.86864754e-17 0.00000000e+00 0.00000000e+00 2.70173063e-12
3.01995172e-03 3.18895467e-12 3.18890841e-12 4.62588927e-17 0.00000000e+00 0.00000000e+00 3.18890841e-12
3.46736850e-03 3.76401282e-12 3.76393440e-12 7.84198621e-17 0.00000000e+00 0.00000000e+00 3.76393440e-12
3.98107171e-03 4.44277629e-12 4.44264945e-12 1.26838815e-16 0.00000000e+00 0.00000000e+00 4.44264945e-12
4.57088190e-03 5.24403307e-12 5.24375082e-12 2.82251319e-16 0.00000000e+00 0.00000000e+00 5.24375082e-12
5.24807460e-03 6.18979506e-12 6.18930730e-12 4.87754881e-16 0.00000000e+00 0.00000000e+00 6.18930730e-12
6.02559586e-03 7.30648933e-12 7.30536713e-12 1.12220280e-15 0.00000000e+00 0.00000000e+00 7.30536713e-12
6.91830971e-03 8.62407038e-12 8.62267558e-12 1.39480251e-15 0.00000000e+00 0.00000000e+00 8.62267558e-12
7.94328235e-03 1.01817365e-11 1.01775219e-11 4.21462931e-15 2.04200826e-303 4.64683997e-306 1.01775219e-11
9.12010839e-03 1.20174805e-11 1.20127391e-11 4.74140237e-15 8.85608525e-265 3.58456099e-267 1.20127391e-11
1.04712855e-02 1.34230094e-11 1.34165878e-11 6.42158268e-15 3.71127032e-231 2.20325556e-233 1.34165878e-11
1.20226443e-02 1.34250267e-11 1.34165878e-11 8.43889700e-15 5.79151732e-202 7.21822415e-204 1.34165878e-11
1.38038426e-02 1.34288914e-11 1.34165878e-11 1.23035556e-14 1.56773341e-176 2.31179137e-178 1.34165878e-11
1.58489319e-02 1.34332418e-11 1.34165878e-11 1.66539299e-14 2.10307232e-154 3.12343417e-156 1.34165878e-11
1.81970086e-02 1.34418135e-11 1.34165878e-11 2.52256816e-14 3.74786686e-135 7.96864530e-137 1.34165878e-11
2.08929613e-02 1.34542514e-11 1.34165878e-11 3.76635835e-14 1.95120249e-118 4.89405961e-120 1.34165878e-11
2.39883292e-02 1.34643896e-11 1.34165878e-11 4.78018004e-14 6.82779514e-104 1.99118969e-105 1.34165878e-11
2.75422870e-02 1.34736221e-11 1.34165878e-11 5.70342890e-14 3.05390691e-91 1.08692759e-92 1.34165878e-11
3.16227766e-02 1.34929115e-11 1.34165878e-11 7.63236993e-14 2.96883661e-80 1.16343029e-81 1.34165878e-11
3.63078055e-02 1.35028745e-11 1.34165878e-11 8.62866237e-14 1.02910071e-70 4.46645793e-72 1.34165878e-11
4.16869383e-02 1.35323195e-11 1.34165878e-11 1.15731699e-13 1.96245828e-62 1.06878652e-63 1.34165878e-11
4.78630092e-02 1.35704199e-11 1.34165878e-11 1.53832019e-13 2.97320123e-55 1.99440795e-56 1.34165878e-11
5.49540874e-02 1.36034753e-11 1.34165878e-11 1.86887444e-13 4.94802806e-49 3.83132144e-50 1.34165878e-11
6.30957344e-02 1.36237955e-11 1.34165878e-11 2.07207687e-13 1.59080437e-43 1.35434817e-44 1.34165878e-11
7.24435960e-02 1.36173650e-11 1.34165878e-11 2.00777197e-13 9.09325896e-39 7.12275425e-40 1.34165878e-11
8.31763771e-02 1.36158566e-11 1.34165878e-11 1.99268744e-13 9.28540375e-35 7.14158025e-36 1.34165878e-11
9.54992586e-02 1.36225056e-11 1.34165878e-11 2.05917786e-13 2.62178674e-31 2.09161893e-32 1.34165878e-11
1.09647820e-01 1.30262656e-11 1.28127470e-11 2.13518617e-13 2.24492833e-28 1.98019718e-29 1.28127470e-11
1.25892541e-01 1.21527588e-11 1.19575512e-11 1.95207595e-13 7.29628727e-26 6.37900925e-27 1.19575512e-11
1.44543977e-01 1.13401451e-11 1.11594361e-11 1.80709053e-13 9.95504299e-24 8.48284712e-25 1.11594361e-11
1.65958691e-01 1.06004067e-11 1.04145917e-11 1.85814985e-13 5.06834053e-22 4.72215561e-23 1.04145917e-11
1.90546072e-01 9.92169776e-12 9.71946251e-12 2.02235233e-13 1.07229840e-20 1.17182015e-21 9.71946251e-12
2.18776162e-01 9.26864940e-12 9.07073019e-12 1.97919076e-13 1.26604148e-19 1.42985095e-20 9.07073019e-12
2.51188643e-01 8.68814233e-12 8.46529796e-12 2.22842814e-13 1.55444541e-18 2.09518983e-19 8.46529796e-12
2.88403150e-01 8.10641333e-12 7.90027573e-12 2.06124652e-13 1.29417138e-17 1.70416842e-18 7.90027573e-12
3.31131121e-01 7.55943201e-12 7.37296631e-12 1.86391852e-13 7.38562991e-17 9.21881820e-18 7.37296631e-12
3.80189396e-01 7.04904531e-12 6.88085251e-12 1.67884357e-13 3.08439084e-16 3.79939248e-17 6.88085251e-12
4.36515832e-01 6.57685481e-12 6.42158520e-12 1.54292127e-13 9.77482514e-16 1.18431872e-16 6.42158520e-12
5.01187234e-01 6.13821980e-12 5.99297201e-12 1.42786475e-13 2.46131437e-15 2.94843923e-16 5.99297201e-12
5.75439937e-01 5.72895188e-12 5.59296690e-12 1.30752349e-13 5.23262594e-15 6.40102030e-16 5.59296690e-12
6.60693448e-01 5.35050544e-12 5.21966041e-12 1.20717668e-13 1.01273598e-14 1.34896449e-15 5.21966041e-12
7.58577575e-01 4.99759769e-12 4.87127053e-12 1.06696258e-13 1.96308993e-14 2.97211126e-15 4.87127053e-12
8.70963590e-01 4.67904753e-12 4.54613417e-12 9.28824182e-14 4.00309384e-14 6.80577797e-15 4.54613417e-12
1.00000000e+00 4.40693268e-12 4.24269927e-12 8.05274392e-14 8.37059708e-14 1.49357201e-14 4.24269927e-12
1.14815362e+00 4.20191761e-12 3.95951734e-12 6.78684391e-14 1.74531831e-13 2.96286183e-14 3.95951734e-12
1.31825674e+00 4.09351880e-12 3.69523659e-12 5.42073719e-14 3.44074838e-13 5.28741865e-14 3.69523659e-12
1.51356125e+00 4.11871391e-12 3.44859544e-12 4.23412746e-14 6.27777199e-13 8.41436163e-14 3.44859544e-12
1.73780083e+00 4.27761627e-12 3.21841652e-12 3.29709112e-14 1.02622883e-12 1.17106704e-13 3.21841652e-12
1.99526231e+00 4.53389703e-12 3.00360106e-12 2.46259112e-14 1.50567006e-12 1.39483596e-13 3.00360106e-12
2.29086765e+00 4.83570643e-12 2.80312361e-12 1.81358916e-14 2.01444693e-12 1.47703653e-13 2.80312361e-12
2.63026799e+00 5.09962820e-12 2.61602716e-12 1.28715061e-14 2.47072953e-12 1.40213443e-13 2.61602716e-12
3.01995172e+00 5.27421125e-12 2.44141860e-12 8.93113799e-15 2.82386151e-12 1.22281814e-13 2.44141860e-12
3.46736850e+00 5.32301390e-12 2.27846441e-12 6.18994656e-15 3.03835954e-12 9.88789136e-14 2.27846441e-12
3.98107171e+00 5.24627308e-12 2.12638671e-12 4.18746372e-15 3.11569890e-12 7.42382456e-14 2.12638671e-12
4.57088190e+00 5.06964146e-12 1.98445954e-12 2.75197606e-15 3.08242994e-12 5.13789018e-14 1.98445954e-12
5.24807460e+00 4.60218834e-12 1.64084388e-12 1.53605909e-15 2.95980840e-12 3.37654530e-14 1.64084388e-12
6.02559586e+00 3.88315465e-12 1.08409480e-12 6.60915389e-16 2.79839894e-12 2.05987141e-14 1.08409480e-12
6.70000000e+00 3.43395944e-12 7.88574724e-13 3.38529438e-16 2.64504618e-12 1.36129304e-14 7.88574724e-13
6.92422916e+00 3.31148709e-12 7.14418944e-13 2.66333162e-16 2.59680181e-12 1.17908354e-14 7.14418944e-13
7.15596261e+00 3.21169094e-12 6.47236606e-13 2.09361803e-16 2.56424498e-12 1.02116227e-14 6.47236606e-13
7.39545150e+00 3.16803499e-12 5.86371942e-13 1.62007142e-16 2.58150104e-12 8.70579881e-15 5.86371942e-13
7.64295536e+00 3.26085714e-12 5.31230854e-13 1.14963241e-16 2.72951132e-12 7.33603635e-15 5.31230854e-13
7.89874245e+00 3.55239986e-12 4.81275108e-13 7.12765235e-17 3.07105348e-12 5.96725424e-15 4.81275108e-13
8.16308998e+00 3.97664316e-12 4.36017088e-13 4.34875892e-17 3.54058259e-12 4.72297864e-15 4.36017088e-13
8.43628443e+00 4.55766887e-12 3.95015029e-13 2.36809967e-17 4.16263016e-12 3.61857239e-15 3.95015029e-13
8.71862190e+00 4.90395565e-12 3.57868711e-13 1.47096594e-17 4.54607223e-12 2.82594953e-15 3.57868711e-13
9.01040836e+00 5.25464411e-12 3.24215549e-13 9.01644255e-18 4.93041955e-12 2.10655814e-15 3.24215549e-13
9.31196005e+00 5.50787674e-12 2.93727053e-13 0.00000000e+00 5.21414969e-12 0.00000000e+00 2.93727053e-13
9.62360379e+00 5.40493951e-12 2.66105627e-13 0.00000000e+00 5.13883389e-12 0.00000000e+00 2.66105627e-13
9.94567731e+00 5.14140290e-12 2.41081657e-13 0.00000000e+00 4.90032124e-12 0.00000000e+00 2.41081657e-13
1.02785297e+01 4.75638035e-12 2.18410884e-13 0.00000000e+00 4.53796946e-12 0.00000000e+00 2.18410884e-13
1.06225216e+01 4.39188024e-12 1.97872020e-13 0.00000000e+00 4.19400822e-12 0.00000000e+00 1.97872020e-13
1.09780260e+01 4.04905495e-12 1.79264583e-13 0.00000000e+00 3.86979037e-12 0.00000000e+00 1.79264583e-13
1.13454280e+01 3.71161629e-12 1.62406948e-13 0.00000000e+00 3.54920934e-12 0.00000000e+00 1.62406948e-13
1.17251259e+01 3.41295094e-12 1.47134567e-13 0.00000000e+00 3.26581637e-12 0.00000000e+00 1.47134567e-13
1.21175312e+01 3.14323232e-12 1.33298366e-13 0.00000000e+00 3.00993395e-12 0.00000000e+00 1.33298366e-13
1.25230691e+01 2.89109147e-12 1.20763289e-13 0.00000000e+00 2.77032818e-12 0.00000000e+00 1.20763289e-13
1.29421791e+01 2.67806392e-12 1.09406983e-13 0.00000000e+00 2.56865694e-12 0.00000000e+00 1.09406983e-13
1.33753155e+01 2.48171988e-12 9.91185987e-14 0.00000000e+00 2.38260128e-12 0.00000000e+00 9.91185987e-14
1.38229477e+01 2.35435606e-12 8.97977103e-14 0.00000000e+00 2.26455835e-12 0.00000000e+00 8.97977103e-14
1.42855609e+01 2.27905120e-12 8.13533371e-14 0.00000000e+00 2.19769787e-12 0.00000000e+00 8.13533371e-14
1.47636563e+01 2.29385552e-12 7.37030537e-14 0.00000000e+00 2.22015247e-12 0.00000000e+00 7.37030537e-14
1.52577522e+01 2.33145677e-12 6.67721855e-14 0.00000000e+00 2.26468459e-12 0.00000000e+00 6.67721855e-14
1.57683840e+01 2.37794098e-12 6.04930805e-14 0.00000000e+00 2.31744790e-12 0.00000000e+00 6.04930805e-14
1.62961051e+01 2.43375558e-12 5.48044484e-14 0.00000000e+00 2.37895114e-12 0.00000000e+00 5.48044484e-14
1.68414875e+01 2.47590061e-12 4.96507622e-14 0.00000000e+00 2.42624984e-12 0.00000000e+00 4.96507622e-14
1.74051222e+01 2.50207595e-12 4.49817171e-14 0.00000000e+00 2.45709423e-12 0.00000000e+00 4.49817171e-14
1.79876201e+01 2.49699296e-12 4.07517384e-14 0.00000000e+00 2.45624123e-12 0.00000000e+00 4.07517384e-14
1.85896125e+01 2.45755813e-12 3.69195372e-14 0.00000000e+00 2.42063859e-12 0.00000000e+00 3.69195372e-14
1.92117518e+01 2.39818932e-12 3.34477076e-14 0.00000000e+00 2.36474161e-12 0.00000000e+00 3.34477076e-14
1.98547123e+01 2.30621230e-12 3.03023610e-14 0.00000000e+00 2.27590994e-12 0.00000000e+00 3.03023610e-14
2.05191907e+01 2.21158364e-12 2.74527957e-14 0.00000000e+00 2.18413084e-12 0.00000000e+00 2.74527957e-14
2.12059073e+01 2.12255277e-12 2.48711970e-14 0.00000000e+00 2.09768157e-12 0.00000000e+00 2.48711970e-14
2.19156062e+01 2.03195992e-12 2.25323660e-14 0.00000000e+00 2.00942755e-12 0.00000000e+00 2.25323660e-14
2.26490567e+01 1.94590596e-12 2.04134733e-14 0.00000000e+00 1.92549249e-12 0.00000000e+00 2.04134733e-14
2.34070535e+01 1.85808728e-12 1.84938366e-14 0.00000000e+00 1.83959345e-12 0.00000000e+00 1.84938366e-14
2.41904183e+01 1.78203768e-12 1.67547181e-14 0.00000000e+00 1.76528297e-12 0.00000000e+00 1.67547181e-14
2.50000000e+01 1.70308404e-12 1.51791424e-14 0.00000000e+00 1.68790490e-12 0.00000000e+00 1.51791424e-14
2.75422870e+01 1.47118664e-12 1.13518661e-14 0.00000000e+00 1.45983477e-12 0.00000000e+00 1.13518661e-14
3.16227766e+01 1.15624881e-12 7.50010357e-15 0.00000000e+00 1.14874871e-12 0.00000000e+00 7.50010357e-15
3.63078055e+01 8.57241390e-13 4.95526929e-15 0.00000000e+00 8.52286120e-13 0.00000000e+00 4.95526929e-15
4.16869383e+01 5.94914481e-13 3.27391395e-15 0.00000000e+00 5.91640567e-13 0.00000000e+00 3.27391395e-15
4.78630092e+01 3.86055324e-13 2.16305350e-15 0.00000000e+00 3.83892270e-13 0.00000000e+00 2.16305350e-15
5.49540874e+01 2.37381926e-13 1.42911527e-15 0.00000000e+00 2.35952811e-13 0.00000000e+00 1.42911527e-15
6.30957344e+01 1.40037898e-13 9.44207098e-16 0.00000000e+00 1.39093691e-13 0.00000000e+00 9.44207098e-16
7.24435960e+01 7.98571381e-14 6.23831443e-16 0.00000000e+00 7.92333067e-14 0.00000000e+00 6.23831443e-16
8.31763771e+01 4.44619763e-14 4.12161347e-16 0.00000000e+00 4.40498149e-14 0.00000000e+00 4.12161347e-16
9.54992586e+01 2.43654379e-14 2.72312302e-16 0.00000000e+00 2.40931256e-14 0.00000000e+00 2.72312302e-16
1.09647820e+02 1.32014734e-14 1.79914953e-16 0.00000000e+00 1.30215584e-14 0.00000000e+00 1.79914953e-16
1.25892541e+02 7.17707391e-15 1.18868631e-16 0.00000000e+00 7.05820528e-15 0.00000000e+00 1.18868631e-16
1.44543977e+02 3.89271378e-15 7.85357256e-17 0.00000000e+00 3.81417806e-15 0.00000000e+00 7.85357256e-17
1.65958691e+02 2.01809168e-15 5.18880394e-17 0.00000000e+00 1.96620364e-15 0.00000000e+00 5.18880394e-17
1.90546072e+02 1.05087983e-15 3.42820876e-17 0.00000000e+00 1.01659775e-15 0.00000000e+00 3.42820876e-17
2.18776162e+02 5.48294683e-16 2.26499507e-17 0.00000000e+00 5.25644732e-16 0.00000000e+00 2.26499507e-17
2.51188643e+02 2.86215205e-16 1.49646740e-17 0.00000000e+00 2.71250531e-16 0.00000000e+00 1.49646740e-17
2.88403150e+02 1.49365387e-16 9.88706207e-18 0.00000000e+00 1.39478325e-16 0.00000000e+00 9.88706207e-18
3.31131121e+02 7.81299224e-17 6.53231713e-18 0.00000000e+00 7.15976053e-17 0.00000000e+00 6.53231713e-18
3.80189396e+02 4.09575738e-17 4.31585913e-18 0.00000000e+00 3.66417146e-17 0.00000000e+00 4.31585913e-18
4.36515832e+02 2.15707930e-17 2.85145985e-18 0.00000000e+00 1.87193331e-17 0.00000000e+00 2.85145985e-18
5.01187234e+02 1.14267866e-17 1.88394084e-18 0.00000000e+00 9.54284573e-18 0.00000000e+00 1.88394084e-18
5.75439937e+02 6.10099528e-18 1.24470737e-18 0.00000000e+00 4.85628791e-18 0.00000000e+00 1.24470737e-18
6.60693448e+02 3.28998988e-18 8.22370004e-19 0.00000000e+00 2.46761987e-18 0.00000000e+00 8.22370004e-19
7.58577575e+02 1.79553986e-18 5.43334473e-19 0.00000000e+00 1.25220538e-18 0.00000000e+00 5.43334473e-19
8.70963590e+02 9.93521518e-19 3.58977527e-19 0.00000000e+00 6.34543991e-19 0.00000000e+00 3.58977527e-19
1.00000000e+03 3.21114053e-19 0.00000000e+00 0.00000000e+00 3.21114053e-19 0.00000000e+00 0.00000000e+00
