# column 1: lambda (micron)
# column 2: total flux; lambda*F_lambda (W/m2)
# column 3: direct stellar flux; lambda*F_lambda (W/m2)
# column 4: scattered stellar flux; lambda*F_lambda (W/m2)
# column 5: total dust emission flux; lambda*F_lambda (W/m2)
# column 6: dust emission scattered flux; lambda*F_lambda (W/m2)
# column 7: transparent flux; lambda*F_lambda (W/m2)
1.00000000e-03 3.57745354e-13 3.57744142e-13 1.21224267e-18 0.00000000e+00 0.00000000e+00 3.57785423e-13
1.14815362e-03 4.22238909e-13 4.22237145e-13 1.76341067e-18 0.00000000e+00 0.00000000e+00 4.22301518e-13
1.31825674e-03 4.98357839e-13 4.98354595e-13 3.24403486e-18 0.00000000e+00 0.00000000e+00 4.98451197e-13
1.51356125e-03 5.88202591e-13 5.88197809e-13 4.78220097e-18 0.00000000e+00 0.00000000e+00 5.88332233e-13
1.73780083e-03 6.94269096e-13 6.94260372e-13 8.72394865e-18 0.00000000e+00 0.00000000e+00 6.94420676e-13
1.99526231e-03 8.19404850e-13 8.19388203e-13 1.66475445e-17 0.00000000e+00 0.00000000e+00 8.19639053e-13
2.29086765e-03 9.67146816e-13 9.67122917e-13 2.38991013e-17 0.00000000e+00 0.00000000e+00 9.67436888e-13
2.63026799e-03 1.14149006e-12 1.14144164e-12 4.84155803e-17 0.00000000e+00 0.00000000e+00 1.14188572e-12
3.01995172e-03 1.34723638e-12 1.34714304e-12 9.33404418e-17 0.00000000e+00 0.00000000e+00 1.34779128e-12
3.46736850e-03 1.59007644e-12 1.58992406e-12 1.52378948e-16 0.00000000e+00 0.00000000e+00 1.59082586e-12
3.98107171e-03 1.87671165e-12 1.87646625e-12 2.45400127e-16 0.00000000e+00 0.00000000e+00 1.87768459e-12
4.57088190e-03 2.21581190e-12 2.21531053e-12 5.01362284e-16 0.00000000e+00 0.00000000e+00 2.21626987e-12
5.24807460e-03 2.61547542e-12 2.61446290e-12 1.01252209e-15 0.00000000e+00 0.00000000e+00 2.61590907e-12
6.02559586e-03 3.08723457e-12 3.08555343e-12 1.68114337e-15 0.00000000e+00 0.00000000e+00 3.08761145e-12
6.91830971e-03 3.65551514e-12 3.64156812e-12 1.39470171e-14 0.00000000e+00 0.00000000e+00 3.64437151e-12
7.94328235e-03 4.30485861e-12 4.29783545e-12 7.02315669e-15 0.00000000e+00 0.00000000e+00 4.30152690e-12
9.12010839e-03 5.08003945e-12 5.07234614e-12 7.69330450e-15 0.00000000e+00 0.00000000e+00 5.07718096e-12
1.04712855e-02 5.67666821e-12 5.66477274e-12 1.18954678e-14 0.00000000e+00 0.00000000e+00 5.67051724e-12
1.20226443e-02 5.68884376e-12 5.66443389e-12 2.44098645e-14 4.90092221e-312 3.49972039e-314 5.67051724e-12
1.38038426e-02 5.69681691e-12 5.66403201e-12 3.27849038e-14 9.05135865e-273 9.00889848e-275 5.67051724e-12
1.58489319e-02 5.69828325e-12 5.66353816e-12 3.47450876e-14 1.36518195e-238 1.98803480e-240 5.67051724e-12
1.81970086e-02 5.70744841e-12 5.66308272e-12 4.43656866e-14 7.56404152e-209 1.32973318e-210 5.67051724e-12
2.08929613e-02 5.72872400e-12 5.66270417e-12 6.60198273e-14 5.45706235e-183 1.36601810e-184 5.67051724e-12
2.39883292e-02 5.74598736e-12 5.66221374e-12 8.37736203e-14 1.74474305e-160 5.12051395e-162 5.67051724e-12
2.75422870e-02 5.75195034e-12 5.66164334e-12 9.03070011e-14 6.73109692e-141 2.70037318e-142 5.67051724e-12
3.16227766e-02 5.76497455e-12 5.66108428e-12 1.03890273e-13 7.16655246e-124 3.20643711e-125 5.67051724e-12
3.63078055e-02 5.77717997e-12 5.66064582e-12 1.16534154e-13 4.51406081e-109 2.21460374e-110 5.67051724e-12
4.16869383e-02 5.80328234e-12 5.66026661e-12 1.43015733e-13 3.28027414e-96 1.94248424e-97 5.67051724e-12
4.78630092e-02 5.80196945e-12 5.65922146e-12 1.42747988e-13 4.84362558e-85 3.25074598e-86 5.67051724e-12
5.49540874e-02 5.80558076e-12 5.65776830e-12 1.47812457e-13 2.40641324e-75 1.73487870e-76 5.67051724e-12
6.30957344e-02 5.79267622e-12 5.65412615e-12 1.38550070e-13 8.41868162e-67 6.60607413e-68 5.67051724e-12
7.24435960e-02 5.76794644e-12 5.64981501e-12 1.18131435e-13 2.27465627e-59 1.78628062e-60 5.67051724e-12
8.31763771e-02 5.76641032e-12 5.65019850e-12 1.16211817e-13 5.88204150e-53 5.34285596e-54 5.67051724e-12
9.54992586e-02 5.76948596e-12 5.65132342e-12 1.18162534e-13 2.77163023e-47 3.13969789e-48 5.67051724e-12
1.09647820e-01 5.52643765e-12 5.40007207e-12 1.26365578e-13 2.72307754e-42 3.63972685e-43 5.41530405e-12
1.25892541e-01 5.16477871e-12 5.04215150e-12 1.22627209e-13 6.49531958e-38 8.98792271e-39 5.05385580e-12
1.44543977e-01 4.82052010e-12 4.70747723e-12 1.13042869e-13 4.01848163e-34 5.35839430e-35 4.71653266e-12
1.65958691e-01 4.49993015e-12 4.39433266e-12 1.05597485e-13 5.95440880e-31 8.62678692e-32 4.40172439e-12
1.90546072e-01 4.21598718e-12 4.10056912e-12 1.15418058e-13 2.43795532e-28 4.18915617e-29 4.10792822e-12
2.18776162e-01 3.92850394e-12 3.82568666e-12 1.02817276e-13 3.86586308e-26 7.14931952e-27 3.83374167e-12
2.51188643e-01 3.68442577e-12 3.57184270e-12 1.12583074e-13 4.88673978e-24 1.05347045e-24 3.57785591e-12
2.88403150e-01 3.43795201e-12 3.33438956e-12 1.03562442e-13 3.15396856e-22 6.66072356e-23 3.33904941e-12
3.31131121e-01 3.20220347e-12 3.11239092e-12 8.98125434e-14 1.11280800e-20 2.32537148e-21 3.11618222e-12
3.80189396e-01 2.98800448e-12 2.90508311e-12 8.29211355e-14 2.33513187e-19 4.81508895e-20 2.90819046e-12
4.36515832e-01 2.78814466e-12 2.71155721e-12 7.65843185e-14 3.12903851e-18 6.42400833e-19 2.71408126e-12
5.01187234e-01 2.59943891e-12 2.53090552e-12 6.85050910e-14 2.83003359e-17 5.84972698e-18 2.53292801e-12
5.75439937e-01 2.42589301e-12 2.36226207e-12 6.34489457e-14 1.81996389e-16 3.71057644e-17 2.36386595e-12
6.60693448e-01 2.25978880e-12 2.20482715e-12 5.40842198e-14 8.77428124e-16 1.77873955e-16 2.20608807e-12
7.58577575e-01 2.10936169e-12 2.05786194e-12 4.81813246e-14 3.31842105e-15 6.53256852e-16 2.05884118e-12
8.70963590e-01 1.97394306e-12 1.92067875e-12 4.29849809e-14 1.02793276e-14 1.94142565e-15 1.92142238e-12
1.00000000e+00 1.85539833e-12 1.79262011e-12 3.62222844e-14 2.65559356e-14 4.68138590e-15 1.79317570e-12
1.14815362e+00 1.76355133e-12 1.67308121e-12 3.02380793e-14 6.02320400e-14 9.68311317e-15 1.67348894e-12
1.31825674e+00 1.70752538e-12 1.56149673e-12 2.45865858e-14 1.21442058e-13 1.70660601e-14 1.56179075e-12
1.51356125e+00 1.69660840e-12 1.45733806e-12 1.97211666e-14 2.19549178e-13 2.62462571e-14 1.45754793e-12
1.73780083e+00 1.72829079e-12 1.36011550e-12 1.49930244e-14 3.53182265e-13 3.42702061e-14 1.36026288e-12
1.99526231e+00 1.79031098e-12 1.26936931e-12 1.10342959e-14 5.09907371e-13 3.87463186e-14 1.26947118e-12
2.29086765e+00 1.86010802e-12 1.18466925e-12 7.79793801e-15 6.67640833e-13 3.76253719e-14 1.18473944e-12
2.63026799e+00 1.91723751e-12 1.10561436e-12 5.36900356e-15 8.06254147e-13 3.29020383e-14 1.10566318e-12
3.01995172e+00 1.94664907e-12 1.03183052e-12 3.79987538e-15 9.11018670e-13 2.68864833e-14 1.03186491e-12
3.46736850e+00 1.94178956e-12 9.62967748e-13 2.56267314e-15 9.76259141e-13 2.05626949e-14 9.62992369e-13
3.98107171e+00 1.89497796e-12 8.98698917e-13 1.74398200e-15 9.94535056e-13 1.50095828e-14 8.98716770e-13
4.57088190e+00 1.81339152e-12 8.38718169e-13 1.14188485e-15 9.73531469e-13 1.02143340e-14 8.38731291e-13
5.24807460e+00 1.62890108e-12 6.93493507e-13 6.61184558e-16 9.34746391e-13 6.64302560e-15 6.93502223e-13
6.02559586e+00 1.34013475e-12 4.58187590e-13 2.81721275e-16 8.81665439e-13 4.12157152e-15 4.58192375e-13
6.70000000e+00 1.17098434e-12 3.33287814e-13 1.44094840e-16 8.37552431e-13 2.74495443e-15 3.33290895e-13
6.92422916e+00 1.12477989e-12 3.01946281e-13 1.14582818e-16 8.22719021e-13 2.39036544e-15 3.01948975e-13
7.15596261e+00 1.08720551e-12 2.73551980e-13 9.25420759e-17 8.13560992e-13 2.07909390e-15 2.73554377e-13
7.39545150e+00 1.06959117e-12 2.47827720e-13 7.04264508e-17 8.21693026e-13 1.77950268e-15 2.47829944e-13
7.64295536e+00 1.09929465e-12 2.24522282e-13 5.00593909e-17 8.74722308e-13 1.48037418e-15 2.24524577e-13
7.89874245e+00 1.20507079e-12 2.03408108e-13 3.08781038e-17 1.00163180e-12 1.18211556e-15 2.03410795e-13
8.16308998e+00 1.36856598e-12 1.84279218e-13 1.76996743e-17 1.18426906e-12 9.41258914e-16 1.84282505e-13
8.43628443e+00 1.60949316e-12 1.66948858e-13 9.83141802e-18 1.44253447e-12 7.10948094e-16 1.66952996e-13
8.71862190e+00 1.78282788e-12 1.51248509e-13 6.15042310e-18 1.63157322e-12 5.58865515e-16 1.51253114e-13
9.01040836e+00 1.96771083e-12 1.37024560e-13 3.80096708e-18 1.83068247e-12 4.21915090e-16 1.37029614e-13
9.31196005e+00 2.11447846e-12 1.24138349e-13 0.00000000e+00 1.99034011e-12 0.00000000e+00 1.24143660e-13
9.62360379e+00 2.10116143e-12 1.12464533e-13 0.00000000e+00 1.98869689e-12 0.00000000e+00 1.12469472e-13
9.94567731e+00 1.97319843e-12 1.01888899e-13 0.00000000e+00 1.87130953e-12 0.00000000e+00 1.01893097e-13
1.02785297e+01 1.81205451e-12 9.23078607e-14 0.00000000e+00 1.71974665e-12 0.00000000e+00 9.23113014e-14
1.06225216e+01 1.66047332e-12 8.36277661e-14 0.00000000e+00 1.57684555e-12 0.00000000e+00 8.36305558e-14
1.09780260e+01 1.48885955e-12 7.57639475e-14 0.00000000e+00 1.41309560e-12 0.00000000e+00 7.57661279e-14
1.13454280e+01 1.34983266e-12 6.86395420e-14 0.00000000e+00 1.28119312e-12 0.00000000e+00 6.86412529e-14
1.17251259e+01 1.23111888e-12 6.21850339e-14 0.00000000e+00 1.16893384e-12 0.00000000e+00 6.21863851e-14
1.21175312e+01 1.12202148e-12 5.63374568e-14 0.00000000e+00 1.06568402e-12 0.00000000e+00 5.63385184e-14
1.25230691e+01 1.02672809e-12 5.10397400e-14 0.00000000e+00 9.75688347e-13 0.00000000e+00 5.10405718e-14
1.29421791e+01 9.47912074e-13 4.62401758e-14 0.00000000e+00 9.01671898e-13 0.00000000e+00 4.62408321e-14
1.33753155e+01 8.81281935e-13 4.18919275e-14 0.00000000e+00 8.39390007e-13 0.00000000e+00 4.18924490e-14
1.38229477e+01 8.38405048e-13 3.79525445e-14 0.00000000e+00 8.00452503e-13 0.00000000e+00 3.79529781e-14
1.42855609e+01 8.17805130e-13 3.43835892e-14 0.00000000e+00 7.83421540e-13 0.00000000e+00 3.43839660e-14
1.47636563e+01 8.33011315e-13 3.11502181e-14 0.00000000e+00 8.01861096e-13 0.00000000e+00 3.11505758e-14
1.52577522e+01 8.57169331e-13 2.82209007e-14 0.00000000e+00 8.28948430e-13 0.00000000e+00 2.82212462e-14
1.57683840e+01 8.87806015e-13 2.55670460e-14 0.00000000e+00 8.62238969e-13 0.00000000e+00 2.55673842e-14
1.62961051e+01 9.23533685e-13 2.31627548e-14 0.00000000e+00 9.00370930e-13 0.00000000e+00 2.31630853e-14
1.68414875e+01 9.54194900e-13 2.09845589e-14 0.00000000e+00 9.33210341e-13 0.00000000e+00 2.09848813e-14
1.74051222e+01 9.83990902e-13 1.90112045e-14 0.00000000e+00 9.64979698e-13 0.00000000e+00 1.90115106e-14
1.79876201e+01 9.97149242e-13 1.72234254e-14 0.00000000e+00 9.79925816e-13 0.00000000e+00 1.72237112e-14
1.85896125e+01 1.00297494e-12 1.56037738e-14 0.00000000e+00 9.87371168e-13 0.00000000e+00 1.56040325e-14
1.92117518e+01 9.90494364e-13 1.41364375e-14 0.00000000e+00 9.76357926e-13 0.00000000e+00 1.41366646e-14
1.98547123e+01 9.73366702e-13 1.28070891e-14 0.00000000e+00 9.60559613e-13 0.00000000e+00 1.28072847e-14
2.05191907e+01 9.57431875e-13 1.16027499e-14 0.00000000e+00 9.45829126e-13 0.00000000e+00 1.16029167e-14
2.12059073e+01 9.36699656e-13 1.05116625e-14 0.00000000e+00 9.26187993e-13 0.00000000e+00 1.05118047e-14
2.19156062e+01 9.22595436e-13 9.52317663e-15 0.00000000e+00 9.13072260e-13 0.00000000e+00 9.52329842e-15
2.26490567e+01 9.08512098e-13 8.62764453e-15 0.00000000e+00 8.99884453e-13 0.00000000e+00 8.62774902e-15
2.34070535e+01 8.94803540e-13 7.81632525e-15 0.00000000e+00 8.86987215e-13 0.00000000e+00 7.81641505e-15
2.41904183e+01 8.83028964e-13 7.08129971e-15 0.00000000e+00 8.75947664e-13 0.00000000e+00 7.08137710e-15
2.50000000e+01 8.70340472e-13 6.41539362e-15 0.00000000e+00 8.63925078e-13 0.00000000e+00 6.41546044e-15
2.75422870e+01 8.38029780e-13 4.79781958e-15 0.00000000e+00 8.33231960e-13 0.00000000e+00 4.79786316e-15
3.16227766e+01 7.69692337e-13 3.16989281e-15 0.00000000e+00 7.66522444e-13 0.00000000e+00 3.16991676e-15
3.63078055e+01 6.73691318e-13 2.09433015e-15 0.00000000e+00 6.71596987e-13 0.00000000e+00 2.09434323e-15
4.16869383e+01 5.53109540e-13 1.38371189e-15 0.00000000e+00 5.51725828e-13 0.00000000e+00 1.38371885e-15
4.78630092e+01 4.22784862e-13 9.14210389e-16 0.00000000e+00 4.21870652e-13 0.00000000e+00 9.14213979e-16
5.49540874e+01 3.03582579e-13 6.04013375e-16 0.00000000e+00 3.02978566e-13 0.00000000e+00 6.04015186e-16
6.30957344e+01 2.06118112e-13 3.99067974e-16 0.00000000e+00 2.05719044e-13 0.00000000e+00 3.99068876e-16
7.24435960e+01 1.33331581e-13 2.63661745e-16 0.00000000e+00 1.33067919e-13 0.00000000e+00 2.63662192e-16
8.31763771e+01 8.29042507e-14 1.74199662e-16 0.00000000e+00 8.27300510e-14 0.00000000e+00 1.74199882e-16
9.54992586e+01 5.00077319e-14 1.15092612e-16 0.00000000e+00 4.98926393e-14 0.00000000e+00 1.15092721e-16
1.09647820e+02 2.93909465e-14 7.60409525e-17 0.00000000e+00 2.93149056e-14 0.00000000e+00 7.60410067e-17
1.25892541e+02 1.71064872e-14 5.02397676e-17 0.00000000e+00 1.70562474e-14 0.00000000e+00 5.02397949e-17
1.44543977e+02 9.82375024e-15 3.31930894e-17 0.00000000e+00 9.79055715e-15 0.00000000e+00 3.31931033e-17
1.65958691e+02 5.34926237e-15 2.19304591e-17 0.00000000e+00 5.32733192e-15 0.00000000e+00 2.19304659e-17
1.90546072e+02 2.89774323e-15 1.44893117e-17 0.00000000e+00 2.88325392e-15 0.00000000e+00 1.44893151e-17
2.18776162e+02 1.55947964e-15 9.57299388e-18 0.00000000e+00 1.54990664e-15 0.00000000e+00 9.57299556e-18
2.51188643e+02 8.33061559e-16 6.32481461e-18 0.00000000e+00 8.26736745e-16 0.00000000e+00 6.32481544e-18
2.88403150e+02 4.41503354e-16 4.17876371e-18 0.00000000e+00 4.37324590e-16 0.00000000e+00 4.17876412e-18
3.31131121e+02 2.32754942e-16 2.76088187e-18 0.00000000e+00 2.29994060e-16 0.00000000e+00 2.76088208e-18
3.80189396e+02 1.22002707e-16 1.82409659e-18 0.00000000e+00 1.20178610e-16 0.00000000e+00 1.82409670e-18
4.36515832e+02 6.37055442e-17 1.20516868e-18 0.00000000e+00 6.25003755e-17 0.00000000e+00 1.20516874e-18
5.01187234e+02 3.31483891e-17 7.96247062e-19 0.00000000e+00 3.23521420e-17 0.00000000e+00 7.96247089e-19
5.75439937e+02 1.72081311e-17 5.26075221e-19 0.00000000e+00 1.66820559e-17 0.00000000e+00 5.26075235e-19
6.60693448e+02 8.92069452e-18 3.47574454e-19 0.00000000e+00 8.57312007e-18 0.00000000e+00 3.47574461e-19
7.58577575e+02 4.62278472e-18 2.29640165e-19 0.00000000e+00 4.39314455e-18 0.00000000e+00 2.29640169e-19
8.70963590e+02 2.39672248e-18 1.51721753e-19 0.00000000e+00 2.24500073e-18 0.00000000e+00 1.51721755e-19
1.00000000e+03 1.14439571e-18 0.00000000e+00 0.00000000e+00 1.14439571e-18 0.00000000e+00 0.00000000e+00
