# column 1: lambda (micron)
# column 2: total flux; lambda*F_lambda (W/m2)
# column 3: direct stellar flux; lambda*F_lambda (W/m2)
# column 4: scattered stellar flux; lambda*F_lambda (W/m2)
# column 5: total dust emission flux; lambda*F_lambda (W/m2)
# column 6: dust emission scattered flux; lambda*F_lambda (W/m2)
# column 7: transparent flux; lambda*F_lambda (W/m2)
1.00000000e-03 1.07328913e-12 1.07326431e-12 2.48116914e-17 0.00000000e+00 0.00000000e+00 1.07335627e-12
1.14815362e-03 1.26679756e-12 1.26676116e-12 3.63970716e-17 0.00000000e+00 0.00000000e+00 1.26690456e-12
1.31825674e-03 1.49519340e-12 1.49513840e-12 5.49985289e-17 0.00000000e+00 0.00000000e+00 1.49535359e-12
1.51356125e-03 1.76478064e-12 1.76469726e-12 8.33766965e-17 0.00000000e+00 0.00000000e+00 1.76499670e-12
1.73780083e-03 2.08305495e-12 2.08290494e-12 1.50014706e-16 0.00000000e+00 0.00000000e+00 2.08326203e-12
1.99526231e-03 2.45860712e-12 2.45835837e-12 2.48759419e-16 0.00000000e+00 0.00000000e+00 2.45891716e-12
2.29086765e-03 2.90199400e-12 2.90161126e-12 3.82744310e-16 0.00000000e+00 0.00000000e+00 2.90231066e-12
2.63026799e-03 3.42549947e-12 3.42466792e-12 8.31544484e-16 0.00000000e+00 0.00000000e+00 3.42565717e-12
3.01995172e-03 4.04332354e-12 4.04192980e-12 1.39374239e-15 0.00000000e+00 0.00000000e+00 4.04337385e-12
3.46736850e-03 4.77268008e-12 4.77046868e-12 2.21140044e-15 0.00000000e+00 0.00000000e+00 4.77247759e-12
3.98107171e-03 5.63401147e-12 5.63033969e-12 3.67178599e-15 0.00000000e+00 0.00000000e+00 5.63305378e-12
4.57088190e-03 6.65446331e-12 6.64667256e-12 7.79074207e-15 0.00000000e+00 0.00000000e+00 6.64880962e-12
5.24807460e-03 7.85977043e-12 7.84450562e-12 1.52648115e-14 0.00000000e+00 0.00000000e+00 7.84772720e-12
6.02559586e-03 9.28539716e-12 9.25824970e-12 2.71474606e-14 0.00000000e+00 0.00000000e+00 9.26283435e-12
6.91830971e-03 1.09687671e-11 1.09268693e-11 4.18977942e-14 0.00000000e+00 0.00000000e+00 1.09331145e-11
7.94328235e-03 1.30025775e-11 1.28963571e-11 1.06220451e-13 0.00000000e+00 0.00000000e+00 1.29045807e-11
9.12010839e-03 1.54816052e-11 1.52207719e-11 2.60833240e-13 0.00000000e+00 0.00000000e+00 1.52315429e-11
1.04712855e-02 1.71790317e-11 1.69987541e-11 1.80277556e-13 0.00000000e+00 0.00000000e+00 1.70115517e-11
1.20226443e-02 1.72544563e-11 1.69979991e-11 2.56457164e-13 0.00000000e+00 0.00000000e+00 1.70115517e-11
1.38038426e-02 1.73737197e-11 1.69971037e-11 3.76616072e-13 1.46497882e-294 4.66483897e-295 1.70115517e-11
1.58489319e-02 1.75124337e-11 1.69960033e-11 5.16430389e-13 3.43336377e-257 9.95396286e-258 1.70115517e-11
1.81970086e-02 1.76632487e-11 1.69949884e-11 6.68260299e-13 1.25917146e-224 3.99323861e-225 1.70115517e-11
2.08929613e-02 1.78952085e-11 1.69941449e-11 9.01063570e-13 2.51996154e-196 8.13953081e-197 1.70115517e-11
2.39883292e-02 1.81411296e-11 1.69930521e-11 1.14807752e-12 1.12714656e-171 3.91758533e-172 1.70115517e-11
2.75422870e-02 1.83458749e-11 1.69917810e-11 1.35409384e-12 3.04785221e-150 9.95404634e-151 1.70115517e-11
3.16227766e-02 1.84631009e-11 1.69905352e-11 1.47256576e-12 1.32003632e-131 4.11678607e-132 1.70115517e-11
3.63078055e-02 1.84344229e-11 1.69895581e-11 1.44486477e-12 2.16698627e-115 6.62046012e-116 1.70115517e-11
4.16869383e-02 1.86141472e-11 1.69887130e-11 1.62543419e-12 2.66868654e-101 7.93603636e-102 1.70115517e-11
4.78630092e-02 1.84580572e-11 1.69863838e-11 1.47167343e-12 4.47374083e-89 1.26563033e-89 1.70115517e-11
5.49540874e-02 1.82583836e-11 1.69831451e-11 1.27523851e-12 1.81562719e-78 4.88774415e-79 1.70115517e-11
6.30957344e-02 1.79149802e-11 1.69750268e-11 9.39953407e-13 3.41749099e-69 8.01918038e-70 1.70115517e-11
7.24435960e-02 1.76262962e-11 1.69654156e-11 6.60880658e-13 3.69565077e-61 7.28278934e-62 1.70115517e-11
8.31763771e-02 1.75656642e-11 1.69662706e-11 5.99393576e-13 3.23341693e-54 6.11913667e-55 1.70115517e-11
9.54992586e-02 1.75880777e-11 1.69687786e-11 6.19299053e-13 3.41790456e-48 6.58474118e-49 1.70115517e-11
1.09647820e-01 1.69376029e-11 1.62119705e-11 7.25632467e-13 5.81367303e-43 1.24546158e-43 1.62459122e-11
1.25892541e-01 1.59809145e-11 1.51354882e-11 8.45426325e-13 1.96274720e-38 4.74214096e-39 1.51615674e-11
1.44543977e-01 1.49674141e-11 1.41294219e-11 8.37992180e-13 1.55103560e-34 3.80628544e-35 1.41495980e-11
1.65958691e-01 1.40202420e-11 1.31887045e-11 8.31537545e-13 2.73444152e-31 7.10571518e-32 1.32051732e-11
1.90546072e-01 1.30512651e-11 1.23073884e-11 7.43876742e-13 1.19440773e-28 3.44067462e-29 1.23237846e-11
2.18776162e-01 1.20395213e-11 1.14832775e-11 5.56243746e-13 1.87654138e-26 5.40624346e-27 1.15012250e-11
2.51188643e-01 1.13272669e-11 1.07201703e-11 6.07096603e-13 3.23095317e-24 1.13109732e-24 1.07335677e-11
2.88403150e-01 1.06016741e-11 1.00067665e-11 5.94907590e-13 2.91856562e-22 1.08498219e-22 1.00171482e-11
3.31131121e-01 9.93443271e-12 9.34010018e-12 5.94332518e-13 1.42229892e-20 5.43636394e-21 9.34854667e-12
3.80189396e-01 9.26645163e-12 8.71764877e-12 5.48802453e-13 4.08011004e-19 1.57294358e-19 8.72457139e-12
4.36515832e-01 8.64286491e-12 8.13662076e-12 5.06236804e-13 7.35299117e-18 2.79523707e-18 8.14224377e-12
5.01187234e-01 8.03490886e-12 7.59427844e-12 4.40542631e-13 8.77919074e-17 3.23801437e-17 7.59878402e-12
5.75439937e-01 7.47382457e-12 7.08802489e-12 3.85075321e-13 7.24363607e-16 2.55160719e-16 7.09159786e-12
6.60693448e-01 6.94843137e-12 6.61545530e-12 3.28709410e-13 4.26666355e-15 1.43517510e-15 6.61826421e-12
7.58577575e-01 6.47481797e-12 6.17434214e-12 2.81124115e-13 1.93517082e-14 6.12516743e-15 6.17652353e-12
8.70963590e-01 6.07470567e-12 5.76261062e-12 2.41927066e-13 7.01679826e-14 2.01157887e-14 5.76426715e-12
1.00000000e+00 5.78914913e-12 5.37828947e-12 2.01659711e-13 2.09199948e-13 5.45636743e-14 5.37952711e-12
1.14815362e+00 5.71472607e-12 5.01955856e-12 1.65468432e-13 5.29699076e-13 1.21250385e-13 5.02046681e-12
1.31825674e+00 5.99342040e-12 4.68471730e-12 1.31361013e-13 1.17734208e-12 2.32629659e-13 4.68537225e-12
1.51356125e+00 6.79582857e-12 4.37217629e-12 1.07426070e-13 2.31622621e-12 3.89774306e-13 4.37264380e-12
1.73780083e+00 8.14666202e-12 4.08046034e-12 8.70853964e-14 3.97911628e-12 5.52612794e-13 4.08078863e-12
1.99526231e+00 9.97608059e-12 3.80818663e-12 7.00401418e-14 6.09785382e-12 6.89483465e-13 3.80841354e-12
2.29086765e+00 1.20047213e-11 3.55406196e-12 5.54979866e-14 8.39516136e-12 7.54859499e-13 3.55421832e-12
2.63026799e+00 1.38695741e-11 3.31688078e-12 4.28838414e-14 1.05098095e-11 7.55102386e-13 3.31698953e-12
3.01995172e+00 1.54269725e-11 3.09551814e-12 3.19426869e-14 1.22995116e-11 6.85025746e-13 3.09559474e-12
3.46736850e+00 1.65434689e-11 2.88892226e-12 2.31136750e-14 1.36314330e-11 5.83242701e-13 2.88897711e-12
3.98107171e+00 1.71171050e-11 2.69611054e-12 1.63290420e-14 1.44046654e-11 4.59822238e-13 2.69615031e-12
4.57088190e+00 1.73228760e-11 2.51616464e-12 1.08965144e-14 1.47958148e-11 3.35957341e-13 2.51619387e-12
5.24807460e+00 1.69520747e-11 2.08048725e-12 6.26804919e-15 1.48653194e-11 2.30710080e-13 2.08050667e-12
6.02559586e+00 1.60365353e-11 1.37456647e-12 2.73431527e-15 1.46592345e-11 1.48170470e-13 1.37457712e-12
6.70000000e+00 1.53544890e-11 9.99865822e-13 1.40016189e-15 1.43532230e-11 1.00606658e-13 9.99872685e-13
6.92422916e+00 1.51778802e-11 9.05840924e-13 1.12229232e-15 1.42709170e-11 8.83222859e-14 9.05846924e-13
7.15596261e+00 1.50111937e-11 8.20657791e-13 8.90306130e-16 1.41896456e-11 7.69891747e-14 8.20663132e-13
7.39545150e+00 1.50829385e-11 7.43484877e-13 6.81095165e-16 1.43387725e-11 6.60147987e-14 7.43489831e-13
7.64295536e+00 1.55180049e-11 6.73568619e-13 4.73240936e-16 1.48439631e-11 5.45987615e-14 6.73573732e-13
7.89874245e+00 1.64173889e-11 6.10226399e-13 2.89282736e-16 1.58068732e-11 4.24849369e-14 6.10232385e-13
8.16308998e+00 1.75327384e-11 5.52840192e-13 1.66595182e-16 1.69797316e-11 3.18795918e-14 5.52847515e-13
8.43628443e+00 1.87431307e-11 5.00849771e-13 8.67693846e-17 1.82421941e-11 2.26587603e-14 5.00858987e-13
8.71862190e+00 1.95104379e-11 4.53749084e-13 5.17525560e-17 1.90566371e-11 1.71941207e-14 4.53759343e-13
9.01040836e+00 1.98800147e-11 4.11077584e-13 2.83797142e-17 1.94689087e-11 1.24825731e-14 4.11088843e-13
9.31196005e+00 2.02683376e-11 3.72419149e-13 0.00000000e+00 1.98959184e-11 0.00000000e+00 3.72430980e-13
9.62360379e+00 1.99027375e-11 3.37397414e-13 0.00000000e+00 1.95653401e-11 0.00000000e+00 3.37408415e-13
9.94567731e+00 1.95935940e-11 3.05669941e-13 0.00000000e+00 1.92879241e-11 0.00000000e+00 3.05679292e-13
1.02785297e+01 1.92232307e-11 2.76926240e-13 0.00000000e+00 1.89463044e-11 0.00000000e+00 2.76933904e-13
1.06225216e+01 1.87325551e-11 2.50885453e-13 0.00000000e+00 1.84816697e-11 0.00000000e+00 2.50891667e-13
1.09780260e+01 1.83687786e-11 2.27293527e-13 0.00000000e+00 1.81414851e-11 0.00000000e+00 2.27298384e-13
1.13454280e+01 1.79415445e-11 2.05919948e-13 0.00000000e+00 1.77356245e-11 0.00000000e+00 2.05923759e-13
1.17251259e+01 1.76603905e-11 1.86556145e-13 0.00000000e+00 1.74738343e-11 0.00000000e+00 1.86559155e-13
1.21175312e+01 1.73260342e-11 1.69013190e-13 0.00000000e+00 1.71570210e-11 0.00000000e+00 1.69015555e-13
1.25230691e+01 1.70686417e-11 1.53119862e-13 0.00000000e+00 1.69155218e-11 0.00000000e+00 1.53121715e-13
1.29421791e+01 1.66880053e-11 1.38721034e-13 0.00000000e+00 1.65492842e-11 0.00000000e+00 1.38722496e-13
1.33753155e+01 1.63650468e-11 1.25676185e-13 0.00000000e+00 1.62393707e-11 0.00000000e+00 1.25677347e-13
1.38229477e+01 1.62965104e-11 1.13857968e-13 0.00000000e+00 1.61826525e-11 0.00000000e+00 1.13858934e-13
1.42855609e+01 1.63404425e-11 1.03151059e-13 0.00000000e+00 1.62372915e-11 0.00000000e+00 1.03151898e-13
1.47636563e+01 1.67257225e-11 9.34509307e-14 0.00000000e+00 1.66322715e-11 0.00000000e+00 9.34517274e-14
1.52577522e+01 1.72054662e-11 8.46629690e-14 0.00000000e+00 1.71208033e-11 0.00000000e+00 8.46637387e-14
1.57683840e+01 1.78758284e-11 7.67013993e-14 0.00000000e+00 1.77991270e-11 0.00000000e+00 7.67021526e-14
1.62961051e+01 1.84613424e-11 6.94885197e-14 0.00000000e+00 1.83918539e-11 0.00000000e+00 6.94892560e-14
1.68414875e+01 1.89592036e-11 6.29539258e-14 0.00000000e+00 1.88962497e-11 0.00000000e+00 6.29546439e-14
1.74051222e+01 1.95171767e-11 5.70338499e-14 0.00000000e+00 1.94601428e-11 0.00000000e+00 5.70345319e-14
1.79876201e+01 1.98255838e-11 5.16704970e-14 0.00000000e+00 1.97739134e-11 0.00000000e+00 5.16711337e-14
1.85896125e+01 1.99972973e-11 4.68115213e-14 0.00000000e+00 1.99504857e-11 0.00000000e+00 4.68120974e-14
1.92117518e+01 2.00339620e-11 4.24094878e-14 0.00000000e+00 1.99915525e-11 0.00000000e+00 4.24099939e-14
1.98547123e+01 2.00445870e-11 3.84214184e-14 0.00000000e+00 2.00061655e-11 0.00000000e+00 3.84218542e-14
2.05191907e+01 1.99315405e-11 3.48083785e-14 0.00000000e+00 1.98967321e-11 0.00000000e+00 3.48087501e-14
2.12059073e+01 1.96096070e-11 3.15350974e-14 0.00000000e+00 1.95780719e-11 0.00000000e+00 3.15354141e-14
2.19156062e+01 1.93920434e-11 2.85696240e-14 0.00000000e+00 1.93634737e-11 0.00000000e+00 2.85698952e-14
2.26490567e+01 1.90756434e-11 2.58830143e-14 0.00000000e+00 1.90497604e-11 0.00000000e+00 2.58832470e-14
2.34070535e+01 1.87278981e-11 2.34490451e-14 0.00000000e+00 1.87044491e-11 0.00000000e+00 2.34492452e-14
2.41904183e+01 1.83136766e-11 2.12439589e-14 0.00000000e+00 1.82924326e-11 0.00000000e+00 2.12441313e-14
2.50000000e+01 1.78526357e-11 1.92462325e-14 0.00000000e+00 1.78333895e-11 0.00000000e+00 1.92463813e-14
2.75422870e+01 1.62655258e-11 1.43934924e-14 0.00000000e+00 1.62511323e-11 0.00000000e+00 1.43935895e-14
3.16227766e+01 1.36484139e-11 9.50969693e-15 0.00000000e+00 1.36389043e-11 0.00000000e+00 9.50975027e-15
3.63078055e+01 1.06715415e-11 6.28300055e-15 0.00000000e+00 1.06652585e-11 0.00000000e+00 6.28302969e-15
4.16869383e+01 7.76385064e-12 4.15114104e-15 0.00000000e+00 7.75969949e-12 0.00000000e+00 4.15115655e-15
4.78630092e+01 5.24610819e-12 2.74263394e-15 0.00000000e+00 5.24336556e-12 0.00000000e+00 2.74264194e-15
5.49540874e+01 3.33570342e-12 1.81204152e-15 0.00000000e+00 3.33389138e-12 0.00000000e+00 1.81204556e-15
6.30957344e+01 2.01900549e-12 1.19720462e-15 0.00000000e+00 2.01780828e-12 0.00000000e+00 1.19720663e-15
7.24435960e+01 1.17532896e-12 7.90985581e-16 0.00000000e+00 1.17453797e-12 0.00000000e+00 7.90986575e-16
8.31763771e+01 6.65291242e-13 5.22599157e-16 0.00000000e+00 6.64768643e-13 0.00000000e+00 5.22599647e-16
9.54992586e+01 3.69021023e-13 3.45277920e-16 0.00000000e+00 3.68675746e-13 0.00000000e+00 3.45278163e-16
1.09647820e+02 2.01790357e-13 2.28122899e-16 0.00000000e+00 2.01562234e-13 0.00000000e+00 2.28123020e-16
1.25892541e+02 1.10306009e-13 1.50719324e-16 0.00000000e+00 1.10155290e-13 0.00000000e+00 1.50719385e-16
1.44543977e+02 6.00362566e-14 9.95792790e-17 0.00000000e+00 5.99366773e-14 0.00000000e+00 9.95793099e-17
1.65958691e+02 3.11674874e-14 6.57913825e-17 0.00000000e+00 3.11016960e-14 0.00000000e+00 6.57913976e-17
1.90546072e+02 1.62075062e-14 4.34679378e-17 0.00000000e+00 1.61640383e-14 0.00000000e+00 4.34679453e-17
2.18776162e+02 8.42228792e-15 2.87189829e-17 0.00000000e+00 8.39356893e-15 0.00000000e+00 2.87189867e-17
2.51188643e+02 4.36519247e-15 1.89744445e-17 0.00000000e+00 4.34621802e-15 0.00000000e+00 1.89744463e-17
2.88403150e+02 2.25385752e-15 1.25362914e-17 0.00000000e+00 2.24132123e-15 0.00000000e+00 1.25362924e-17
3.31131121e+02 1.16148418e-15 8.28264577e-18 0.00000000e+00 1.15320154e-15 0.00000000e+00 8.28264623e-18
3.80189396e+02 5.96829231e-16 5.47228986e-18 0.00000000e+00 5.91356941e-16 0.00000000e+00 5.47229010e-18
4.36515832e+02 3.06222621e-16 3.61550610e-18 0.00000000e+00 3.02607115e-16 0.00000000e+00 3.61550621e-18
5.01187234e+02 1.56865553e-16 2.38874121e-18 0.00000000e+00 1.54476812e-16 0.00000000e+00 2.38874127e-18
5.75439937e+02 8.02813402e-17 1.57822567e-18 0.00000000e+00 7.87031145e-17 0.00000000e+00 1.57822570e-18
6.60693448e+02 4.10730133e-17 1.04272337e-18 0.00000000e+00 4.00302900e-17 0.00000000e+00 1.04272338e-18
7.58577575e+02 2.10194681e-17 6.88920499e-19 0.00000000e+00 2.03305476e-17 0.00000000e+00 6.88920507e-19
8.70963590e+02 1.07647120e-17 4.55165261e-19 0.00000000e+00 1.03095467e-17 0.00000000e+00 4.55165265e-19
1.00000000e+03 5.22031650e-18 0.00000000e+00 0.00000000e+00 5.22031650e-18 0.00000000e+00 0.00000000e+00
