# column 1: lambda (micron)
# column 2: total flux; lambda*F_lambda (W/m2)
# column 3: direct stellar flux; lambda*F_lambda (W/m2)
# column 4: scattered stellar flux; lambda*F_lambda (W/m2)
# column 5: total dust emission flux; lambda*F_lambda (W/m2)
# column 6: dust emission scattered flux; lambda*F_lambda (W/m2)
# column 7: transparent flux; lambda*F_lambda (W/m2)
1.00000000e-03 1.07335683e-12 1.07335627e-12 5.64175643e-19 0.00000000e+00 0.00000000e+00 1.07335627e-12
1.14815362e-03 1.26691958e-12 1.26690456e-12 1.50266908e-17 0.00000000e+00 0.00000000e+00 1.26690456e-12
1.31825674e-03 1.54589480e-12 1.49535359e-12 5.05412066e-14 0.00000000e+00 0.00000000e+00 1.49535359e-12
1.51356125e-03 1.76546769e-12 1.76499670e-12 4.70986926e-16 0.00000000e+00 0.00000000e+00 1.76499670e-12
1.73780083e-03 2.08327848e-12 2.08326203e-12 1.64534502e-17 0.00000000e+00 0.00000000e+00 2.08326203e-12
1.99526231e-03 2.45935295e-12 2.45891716e-12 4.35789160e-16 0.00000000e+00 0.00000000e+00 2.45891716e-12
2.29086765e-03 2.90256864e-12 2.90231066e-12 2.57979620e-16 0.00000000e+00 0.00000000e+00 2.90231066e-12
2.63026799e-03 3.42786870e-12 3.42565717e-12 2.21153111e-15 0.00000000e+00 0.00000000e+00 3.42565717e-12
3.01995172e-03 4.04431278e-12 4.04337385e-12 9.38935744e-16 0.00000000e+00 0.00000000e+00 4.04337385e-12
3.46736850e-03 5.25549978e-12 4.77247759e-12 4.83022187e-13 0.00000000e+00 0.00000000e+00 4.77247759e-12
3.98107171e-03 5.89992245e-12 5.63305378e-12 2.66868668e-13 0.00000000e+00 0.00000000e+00 5.63305378e-12
4.57088190e-03 6.65858209e-12 6.64880962e-12 9.77246659e-15 0.00000000e+00 0.00000000e+00 6.64880962e-12
5.24807460e-03 7.85355368e-12 7.84772720e-12 5.82648433e-15 0.00000000e+00 0.00000000e+00 7.84772720e-12
6.02559586e-03 9.39195292e-12 9.26283435e-12 1.29118571e-13 0.00000000e+00 0.00000000e+00 9.26283435e-12
6.91830971e-03 1.09817960e-11 1.09331145e-11 4.86814638e-14 0.00000000e+00 0.00000000e+00 1.09331145e-11
7.94328235e-03 1.29289813e-11 1.29045807e-11 2.44006460e-14 3.06289478e-303 9.96885553e-306 1.29045807e-11
9.12010839e-03 1.53101271e-11 1.52315429e-11 7.85841755e-14 1.57237625e-264 1.16624031e-266 1.52315429e-11
1.04712855e-02 1.70432571e-11 1.70115517e-11 3.17053756e-14 7.57215449e-231 3.20107330e-233 1.70115517e-11
1.20226443e-02 1.70469253e-11 1.70115517e-11 3.53736239e-14 1.33574744e-201 9.33426464e-204 1.70115517e-11
1.38038426e-02 1.70510654e-11 1.70115517e-11 3.95137100e-14 4.02860634e-176 3.10378234e-178 1.70115517e-11
1.58489319e-02 1.70737880e-11 1.70115517e-11 6.22363172e-14 5.96869869e-154 6.78960152e-156 1.70115517e-11
1.81970086e-02 1.70705623e-11 1.70115517e-11 5.90106239e-14 1.15213201e-134 1.64913003e-136 1.70115517e-11
2.08929613e-02 1.70773892e-11 1.70115517e-11 6.58374951e-14 6.44420385e-118 1.09730452e-119 1.70115517e-11
2.39883292e-02 1.70846286e-11 1.70115517e-11 7.30769320e-14 2.40211368e-103 5.07454342e-105 1.70115517e-11
2.75422870e-02 1.70948359e-11 1.70115517e-11 8.32841673e-14 1.13382842e-90 2.91818092e-92 1.70115517e-11
3.16227766e-02 1.71061202e-11 1.70115517e-11 9.45684982e-14 1.15981097e-79 3.69465311e-81 1.70115517e-11
3.63078055e-02 1.71143804e-11 1.70115517e-11 1.02828667e-13 4.18583629e-70 1.48211682e-71 1.70115517e-11
4.16869383e-02 1.71442248e-11 1.70115517e-11 1.32673080e-13 8.28018365e-62 3.80779039e-63 1.70115517e-11
4.78630092e-02 1.71784621e-11 1.70115517e-11 1.66910406e-13 1.29664056e-54 7.60994705e-56 1.70115517e-11
5.49540874e-02 1.72093483e-11 1.70115517e-11 1.97796589e-13 2.21873627e-48 1.51529108e-49 1.70115517e-11
6.30957344e-02 1.72490881e-11 1.70115517e-11 2.37536394e-13 7.33042268e-43 5.61596817e-44 1.70115517e-11
7.24435960e-02 1.72435262e-11 1.70115517e-11 2.31974470e-13 4.28918016e-38 2.99246565e-39 1.70115517e-11
8.31763771e-02 1.72388254e-11 1.70115517e-11 2.27273654e-13 4.46350202e-34 3.07170116e-35 1.70115517e-11
9.54992586e-02 1.72466342e-11 1.70115517e-11 2.35082440e-13 1.28014768e-30 9.26684497e-32 1.70115517e-11
1.09647820e-01 1.64851939e-11 1.62459122e-11 2.39281695e-13 1.10858565e-27 8.98333027e-29 1.62459122e-11
1.25892541e-01 1.53723359e-11 1.51615674e-11 2.10768475e-13 3.64154643e-25 2.93869021e-26 1.51615674e-11
1.44543977e-01 1.43346033e-11 1.41495980e-11 1.85005303e-13 5.01987356e-23 4.04441275e-24 1.41495980e-11
1.65958691e-01 1.33939942e-11 1.32051732e-11 1.88820992e-13 2.58026340e-21 2.33867497e-22 1.32051732e-11
1.90546072e-01 1.25377003e-11 1.23237846e-11 2.13915593e-13 5.51457181e-20 5.94123046e-21 1.23237846e-11
2.18776162e-01 1.17128023e-11 1.15012250e-11 2.11576594e-13 6.56260074e-19 7.26920454e-20 1.15012250e-11
2.51188643e-01 1.09848422e-11 1.07335677e-11 2.51266357e-13 8.16240318e-18 1.15167538e-18 1.07335677e-11
2.88403150e-01 1.02403247e-11 1.00171482e-11 2.23108063e-13 6.83772847e-17 9.61530988e-18 1.00171482e-11
3.31131121e-01 9.54837218e-12 9.34854667e-12 1.99433321e-13 3.92187620e-16 5.30754310e-17 9.34854667e-12
3.80189396e-01 8.90555451e-12 8.72457139e-12 1.79343415e-13 1.63970482e-15 2.17928889e-16 8.72457139e-12
4.36515832e-01 8.31498337e-12 8.14224377e-12 1.67540291e-13 5.19930641e-15 6.80801083e-16 8.14224377e-12
5.01187234e-01 7.76305095e-12 7.59878402e-12 1.51218102e-13 1.30488295e-14 1.70840310e-15 7.59878402e-12
5.75439937e-01 7.25908351e-12 7.09159786e-12 1.40454220e-13 2.70314206e-14 3.50162892e-15 7.09159786e-12
6.60693448e-01 6.79730811e-12 6.61826421e-12 1.30303903e-13 4.87400000e-14 6.46309913e-15 6.61826421e-12
7.58577575e-01 6.37445688e-12 6.17652353e-12 1.16898717e-13 8.10346286e-14 1.11375720e-14 6.17652353e-12
8.70963590e-01 5.99942895e-12 5.76426715e-12 1.04384688e-13 1.30777112e-13 1.89008691e-14 5.76426715e-12
1.00000000e+00 5.68140749e-12 5.37952711e-12 8.89208361e-14 2.12959541e-13 3.23936881e-14 5.37952711e-12
1.14815362e+00 5.45331576e-12 5.02046681e-12 7.43527198e-14 3.58496227e-13 5.43323966e-14 5.02046681e-12
1.31825674e+00 5.35273309e-12 4.68537225e-12 5.87240195e-14 6.08636822e-13 8.53395332e-14 4.68537225e-12
1.51356125e+00 5.41323661e-12 4.37264380e-12 4.55834954e-14 9.95009314e-13 1.23883046e-13 4.37264380e-12
1.73780083e+00 5.62191145e-12 4.08078863e-12 3.41444134e-14 1.50697841e-12 1.59651966e-13 4.08078863e-12
1.99526231e+00 5.92098627e-12 3.80841354e-12 2.58196133e-14 2.08675312e-12 1.79599267e-13 3.80841354e-12
2.29086765e+00 6.22303983e-12 3.55421832e-12 1.89754540e-14 2.64984606e-12 1.83205410e-13 3.55421832e-12
2.63026799e+00 6.45785172e-12 3.31698953e-12 1.34749869e-14 3.12738721e-12 1.74751399e-13 3.31698953e-12
3.01995172e+00 6.55842618e-12 3.09559474e-12 9.74821909e-15 3.45308322e-12 1.52322940e-13 3.09559474e-12
3.46736850e+00 6.54717564e-12 2.88897711e-12 6.77862108e-15 3.65141992e-12 1.26473140e-13 2.88897711e-12
3.98107171e+00 6.39760712e-12 2.69615031e-12 4.84204688e-15 3.69661476e-12 9.81197431e-14 2.69615031e-12
4.57088190e+00 6.16996416e-12 2.51619387e-12 3.26396021e-15 3.65050633e-12 7.13481437e-14 2.51619387e-12
5.24807460e+00 5.60902176e-12 2.08050667e-12 1.88463772e-15 3.52663046e-12 4.84650986e-14 2.08050667e-12
6.02559586e+00 4.75451856e-12 1.37457712e-12 8.42166443e-16 3.37909927e-12 3.07406915e-14 1.37457712e-12
6.70000000e+00 4.22140627e-12 9.99872685e-13 4.33197673e-16 3.22110038e-12 2.06360788e-14 9.99872685e-13
6.92422916e+00 4.07697615e-12 9.05846924e-13 3.52106859e-16 3.17077712e-12 1.80344413e-14 9.05846924e-13
7.15596261e+00 3.95731272e-12 8.20663132e-13 2.81059543e-16 3.13636853e-12 1.56253178e-14 8.20663132e-13
7.39545150e+00 3.89152261e-12 7.43489831e-13 2.14032730e-16 3.14781874e-12 1.33430538e-14 7.43489831e-13
7.64295536e+00 3.97690942e-12 6.73573732e-13 1.46443145e-16 3.30318925e-12 1.10665605e-14 6.73573732e-13
7.89874245e+00 4.28183059e-12 6.10232385e-13 8.97533203e-17 3.67150845e-12 8.66417527e-15 6.10232385e-13
8.16308998e+00 4.71172941e-12 5.52847515e-13 5.14360708e-17 4.15883046e-12 6.66484293e-15 5.52847515e-13
8.43628443e+00 5.28082095e-12 5.00858987e-13 2.77585358e-17 4.77993420e-12 4.93859392e-15 5.00858987e-13
8.71862190e+00 5.61015548e-12 4.53759343e-13 1.76166347e-17 5.15637852e-12 3.85288234e-15 4.53759343e-13
9.01040836e+00 5.95898822e-12 4.11088843e-13 1.10794706e-17 5.54788829e-12 2.91238742e-15 4.11088843e-13
9.31196005e+00 6.20575841e-12 3.72430980e-13 0.00000000e+00 5.83332743e-12 0.00000000e+00 3.72430980e-13
9.62360379e+00 6.10743427e-12 3.37408415e-13 0.00000000e+00 5.77002585e-12 0.00000000e+00 3.37408415e-13
9.94567731e+00 5.79085372e-12 3.05679292e-13 0.00000000e+00 5.48517443e-12 0.00000000e+00 3.05679292e-13
1.02785297e+01 5.41720344e-12 2.76933904e-13 0.00000000e+00 5.14026953e-12 0.00000000e+00 2.76933904e-13
1.06225216e+01 5.05238547e-12 2.50891667e-13 0.00000000e+00 4.80149380e-12 0.00000000e+00 2.50891667e-13
1.09780260e+01 4.66392928e-12 2.27298384e-13 0.00000000e+00 4.43663090e-12 0.00000000e+00 2.27298384e-13
1.13454280e+01 4.33018543e-12 2.05923759e-13 0.00000000e+00 4.12426167e-12 0.00000000e+00 2.05923759e-13
1.17251259e+01 4.03106039e-12 1.86559155e-13 0.00000000e+00 3.84450124e-12 0.00000000e+00 1.86559155e-13
1.21175312e+01 3.74401416e-12 1.69015555e-13 0.00000000e+00 3.57499860e-12 0.00000000e+00 1.69015555e-13
1.25230691e+01 3.48874187e-12 1.53121715e-13 0.00000000e+00 3.33562016e-12 0.00000000e+00 1.53121715e-13
1.29421791e+01 3.25951257e-12 1.38722496e-13 0.00000000e+00 3.12079007e-12 0.00000000e+00 1.38722496e-13
1.33753155e+01 3.04070118e-12 1.25677347e-13 0.00000000e+00 2.91502383e-12 0.00000000e+00 1.25677347e-13
1.38229477e+01 2.89014264e-12 1.13858934e-13 0.00000000e+00 2.77628371e-12 0.00000000e+00 1.13858934e-13
1.42855609e+01 2.79920960e-12 1.03151898e-13 0.00000000e+00 2.69605770e-12 0.00000000e+00 1.03151898e-13
1.47636563e+01 2.81128194e-12 9.34517274e-14 0.00000000e+00 2.71783022e-12 0.00000000e+00 9.34517274e-14
1.52577522e+01 2.85172949e-12 8.46637387e-14 0.00000000e+00 2.76706575e-12 0.00000000e+00 8.46637387e-14
1.57683840e+01 2.89605084e-12 7.67021526e-14 0.00000000e+00 2.81934869e-12 0.00000000e+00 7.67021526e-14
1.62961051e+01 2.95732780e-12 6.94892560e-14 0.00000000e+00 2.88783855e-12 0.00000000e+00 6.94892560e-14
1.68414875e+01 2.98530522e-12 6.29546439e-14 0.00000000e+00 2.92235058e-12 0.00000000e+00 6.29546439e-14
1.74051222e+01 3.00301653e-12 5.70345319e-14 0.00000000e+00 2.94598199e-12 0.00000000e+00 5.70345319e-14
1.79876201e+01 3.00788181e-12 5.16711337e-14 0.00000000e+00 2.95621068e-12 0.00000000e+00 5.16711337e-14
1.85896125e+01 2.95290246e-12 4.68120974e-14 0.00000000e+00 2.90609036e-12 0.00000000e+00 4.68120974e-14
1.92117518e+01 2.87484968e-12 4.24099939e-14 0.00000000e+00 2.83243968e-12 0.00000000e+00 4.24099939e-14
1.98547123e+01 2.77138051e-12 3.84218542e-14 0.00000000e+00 2.73295866e-12 0.00000000e+00 3.84218542e-14
2.05191907e+01 2.65424498e-12 3.48087501e-14 0.00000000e+00 2.61943623e-12 0.00000000e+00 3.48087501e-14
2.12059073e+01 2.54577992e-12 3.15354141e-14 0.00000000e+00 2.51424450e-12 0.00000000e+00 3.15354141e-14
2.19156062e+01 2.44678220e-12 2.85698952e-14 0.00000000e+00 2.41821230e-12 0.00000000e+00 2.85698952e-14
2.26490567e+01 2.34666898e-12 2.58832470e-14 0.00000000e+00 2.32078573e-12 0.00000000e+00 2.58832470e-14
2.34070535e+01 2.24252357e-12 2.34492452e-14 0.00000000e+00 2.21907433e-12 0.00000000e+00 2.34492452e-14
2.41904183e+01 2.14826187e-12 2.12441313e-14 0.00000000e+00 2.12701774e-12 0.00000000e+00 2.12441313e-14
2.50000000e+01 2.04550666e-12 1.92463813e-14 0.00000000e+00 2.02626028e-12 0.00000000e+00 1.92463813e-14
2.75422870e+01 1.77034732e-12 1.43935895e-14 0.00000000e+00 1.75595374e-12 0.00000000e+00 1.43935895e-14
3.16227766e+01 1.38597446e-12 9.50975027e-15 0.00000000e+00 1.37646471e-12 0.00000000e+00 9.50975027e-15
3.63078055e+01 1.02437833e-12 6.28302969e-15 0.00000000e+00 1.01809530e-12 0.00000000e+00 6.28302969e-15
4.16869383e+01 7.11622091e-13 4.15115655e-15 0.00000000e+00 7.07470934e-13 0.00000000e+00 4.15115655e-15
4.78630092e+01 4.61137436e-13 2.74264194e-15 0.00000000e+00 4.58394794e-13 0.00000000e+00 2.74264194e-15
5.49540874e+01 2.83421684e-13 1.81204556e-15 0.00000000e+00 2.81609638e-13 0.00000000e+00 1.81204556e-15
6.30957344e+01 1.67057448e-13 1.19720663e-15 0.00000000e+00 1.65860242e-13 0.00000000e+00 1.19720663e-15
7.24435960e+01 9.52444917e-14 7.90986575e-16 0.00000000e+00 9.44535052e-14 0.00000000e+00 7.90986575e-16
8.31763771e+01 5.30235684e-14 5.22599647e-16 0.00000000e+00 5.25009688e-14 0.00000000e+00 5.22599647e-16
9.54992586e+01 2.90704227e-14 3.45278163e-16 0.00000000e+00 2.87251446e-14 0.00000000e+00 3.45278163e-16
1.09647820e+02 1.57451019e-14 2.28123020e-16 0.00000000e+00 1.55169789e-14 0.00000000e+00 2.28123020e-16
1.25892541e+02 8.56172320e-15 1.50719385e-16 0.00000000e+00 8.41100381e-15 0.00000000e+00 1.50719385e-16
1.44543977e+02 4.64480130e-15 9.95793099e-17 0.00000000e+00 4.54522199e-15 0.00000000e+00 9.95793099e-17
1.65958691e+02 2.40828809e-15 6.57913976e-17 0.00000000e+00 2.34249669e-15 0.00000000e+00 6.57913976e-17
1.90546072e+02 1.25444772e-15 4.34679453e-17 0.00000000e+00 1.21097978e-15 0.00000000e+00 4.34679453e-17
2.18776162e+02 6.54821995e-16 2.87189867e-17 0.00000000e+00 6.26103008e-16 0.00000000e+00 2.87189867e-17
2.51188643e+02 3.42021036e-16 1.89744463e-17 0.00000000e+00 3.23046590e-16 0.00000000e+00 1.89744463e-17
2.88403150e+02 1.78638619e-16 1.25362924e-17 0.00000000e+00 1.66102327e-16 0.00000000e+00 1.25362924e-17
3.31131121e+02 9.35436593e-17 8.28264623e-18 0.00000000e+00 8.52610130e-17 0.00000000e+00 8.28264623e-18
3.80189396e+02 4.91055899e-17 5.47229010e-18 0.00000000e+00 4.36332998e-17 0.00000000e+00 5.47229010e-18
4.36515832e+02 2.59056224e-17 3.61550621e-18 0.00000000e+00 2.22901162e-17 0.00000000e+00 3.61550621e-18
5.01187234e+02 1.37513202e-17 2.38874127e-18 0.00000000e+00 1.13625790e-17 0.00000000e+00 2.38874127e-18
5.75439937e+02 7.36043930e-18 1.57822570e-18 0.00000000e+00 5.78221359e-18 0.00000000e+00 1.57822570e-18
6.60693448e+02 3.98070579e-18 1.04272338e-18 0.00000000e+00 2.93798241e-18 0.00000000e+00 1.04272338e-18
7.58577575e+02 2.17979125e-18 6.88920507e-19 0.00000000e+00 1.49087074e-18 0.00000000e+00 6.88920507e-19
8.70963590e+02 1.21062877e-18 4.55165265e-19 0.00000000e+00 7.55463503e-19 0.00000000e+00 4.55165265e-19
1.00000000e+03 3.82298058e-19 0.00000000e+00 0.00000000e+00 3.82298058e-19 0.00000000e+00 0.00000000e+00
