# column 1: lambda (micron)
# column 2: total flux; lambda*F_lambda (W/m2)
# column 3: direct stellar flux; lambda*F_lambda (W/m2)
# column 4: scattered stellar flux; lambda*F_lambda (W/m2)
# column 5: total dust emission flux; lambda*F_lambda (W/m2)
# column 6: dust emission scattered flux; lambda*F_lambda (W/m2)
# column 7: transparent flux; lambda*F_lambda (W/m2)
1.00000000e-03 8.46531069e-13 8.46529401e-13 1.66781508e-18 0.00000000e+00 0.00000000e+00 8.46529401e-13
1.14815362e-03 9.99178792e-13 9.99176121e-13 2.67144153e-18 0.00000000e+00 0.00000000e+00 9.99176121e-13
1.31825674e-03 1.17935243e-12 1.17934819e-12 4.23700964e-18 0.00000000e+00 0.00000000e+00 1.17934819e-12
1.51356125e-03 1.39201555e-12 1.39200901e-12 6.54014268e-18 0.00000000e+00 0.00000000e+00 1.39200901e-12
1.73780083e-03 1.64302870e-12 1.64301696e-12 1.17417509e-17 0.00000000e+00 0.00000000e+00 1.64301696e-12
1.99526231e-03 1.93930787e-12 1.93928682e-12 2.10515867e-17 0.00000000e+00 0.00000000e+00 1.93928682e-12
2.29086765e-03 2.28901329e-12 2.28898025e-12 3.30344311e-17 0.00000000e+00 0.00000000e+00 2.28898025e-12
2.63026799e-03 2.70180027e-12 2.70173063e-12 6.96409008e-17 0.00000000e+00 0.00000000e+00 2.70173063e-12
3.01995172e-03 3.18902262e-12 3.18890841e-12 1.14203970e-16 0.00000000e+00 0.00000000e+00 3.18890841e-12
3.46736850e-03 3.76413748e-12 3.76393440e-12 2.03072832e-16 0.00000000e+00 0.00000000e+00 3.76393440e-12
3.98107171e-03 4.44299131e-12 4.44264945e-12 3.41864071e-16 0.00000000e+00 0.00000000e+00 4.44264945e-12
4.57088190e-03 5.24441350e-12 5.24375082e-12 6.62677534e-16 0.00000000e+00 0.00000000e+00 5.24375082e-12
5.24807460e-03 6.19056740e-12 6.18930730e-12 1.26009193e-15 0.00000000e+00 0.00000000e+00 6.18930730e-12
6.02559586e-03 7.30764267e-12 7.30536713e-12 2.27554226e-15 0.00000000e+00 0.00000000e+00 7.30536713e-12
6.91830971e-03 8.62641783e-12 8.62267558e-12 3.74225464e-15 0.00000000e+00 0.00000000e+00 8.62267558e-12
7.94328235e-03 1.01839405e-11 1.01775219e-11 6.41861252e-15 1.30820155e-303 5.24405758e-306 1.01775219e-11
9.12010839e-03 1.20227054e-11 1.20127391e-11 9.96627016e-15 5.56353005e-265 2.53445325e-267 1.20127391e-11
1.04712855e-02 1.34313241e-11 1.34165878e-11 1.47362815e-14 2.30704646e-231 2.83327608e-233 1.34165878e-11
1.20226443e-02 1.34551450e-11 1.34165878e-11 3.85571471e-14 3.50827694e-202 2.21481151e-204 1.34165878e-11
1.38038426e-02 1.34504583e-11 1.34165878e-11 3.38704908e-14 9.39864985e-177 9.87051958e-179 1.34165878e-11
1.58489319e-02 1.34625855e-11 1.34165878e-11 4.59976203e-14 1.24919037e-154 1.44727113e-156 1.34165878e-11
1.81970086e-02 1.34839685e-11 1.34165878e-11 6.73806501e-14 2.20676922e-135 4.00599485e-137 1.34165878e-11
2.08929613e-02 1.35040725e-11 1.34165878e-11 8.74846875e-14 1.14154814e-118 2.63908376e-120 1.34165878e-11
2.39883292e-02 1.35357774e-11 1.34165878e-11 1.19189609e-13 3.97791233e-104 1.17194405e-105 1.34165878e-11
2.75422870e-02 1.35678259e-11 1.34165878e-11 1.51238020e-13 1.76590142e-91 5.93706714e-93 1.34165878e-11
3.16227766e-02 1.35971121e-11 1.34165878e-11 1.80524248e-13 1.71673883e-80 7.11214947e-82 1.34165878e-11
3.63078055e-02 1.36239964e-11 1.34165878e-11 2.07408571e-13 5.92255889e-71 2.72079722e-72 1.34165878e-11
4.16869383e-02 1.36924276e-11 1.34165878e-11 2.75839772e-13 1.12876739e-62 6.68423579e-64 1.34165878e-11
4.78630092e-02 1.37524687e-11 1.34165878e-11 3.35880850e-13 1.70644587e-55 1.21380347e-56 1.34165878e-11
5.49540874e-02 1.37917557e-11 1.34165878e-11 3.75167836e-13 2.83064132e-49 2.25492922e-50 1.34165878e-11
6.30957344e-02 1.38226581e-11 1.34165878e-11 4.06070229e-13 9.11032811e-44 7.85957437e-45 1.34165878e-11
7.24435960e-02 1.37615077e-11 1.34165878e-11 3.44919889e-13 5.22198966e-39 4.15506726e-40 1.34165878e-11
8.31763771e-02 1.37640443e-11 1.34165878e-11 3.47456508e-13 5.32079069e-35 4.15789476e-36 1.34165878e-11
9.54992586e-02 1.37715055e-11 1.34165878e-11 3.54917693e-13 1.49724567e-31 1.21243404e-32 1.34165878e-11
1.09647820e-01 1.31891334e-11 1.28127470e-11 3.76386428e-13 1.27164551e-28 1.11354899e-29 1.28127470e-11
1.25892541e-01 1.23239651e-11 1.19575512e-11 3.66413876e-13 4.12309134e-26 3.68138756e-27 1.19575512e-11
1.44543977e-01 1.14917316e-11 1.11594361e-11 3.32295466e-13 5.59673015e-24 4.84835924e-25 1.11594361e-11
1.65958691e-01 1.07651027e-11 1.04145917e-11 3.50511009e-13 2.83696006e-22 2.67332306e-23 1.04145917e-11
1.90546072e-01 1.00891462e-11 9.71946251e-12 3.69683719e-13 5.99036932e-21 6.45722965e-22 9.71946251e-12
2.18776162e-01 9.40972834e-12 9.07073019e-12 3.38998072e-13 7.08049851e-20 7.84987374e-21 9.07073019e-12
2.51188643e-01 8.84257359e-12 8.46529796e-12 3.77274763e-13 8.63963874e-19 1.13661696e-19 8.46529796e-12
2.88403150e-01 8.25591917e-12 7.90027573e-12 3.55636262e-13 7.17680703e-18 9.29841797e-19 7.90027573e-12
3.31131121e-01 7.69668815e-12 7.37296631e-12 3.23680806e-13 4.10431171e-17 5.19170909e-18 7.37296631e-12
3.80189396e-01 7.17059376e-12 6.88085251e-12 2.89570651e-13 1.70594498e-16 2.09328037e-17 6.88085251e-12
4.36515832e-01 6.68916485e-12 6.42158520e-12 2.67037772e-13 5.41876484e-16 6.64039661e-17 6.42158520e-12
5.01187234e-01 6.23611986e-12 5.99297201e-12 2.41766699e-13 1.38115214e-15 1.70189709e-16 5.99297201e-12
5.75439937e-01 5.81645200e-12 5.59296690e-12 2.20417187e-13 3.06790810e-15 3.99556010e-16 5.59296690e-12
6.60693448e-01 5.41874235e-12 5.21966041e-12 1.92393233e-13 6.68870154e-15 1.02848356e-15 5.21966041e-12
7.58577575e-01 5.05624882e-12 4.87127053e-12 1.69193850e-13 1.57844393e-14 2.91586582e-15 4.87127053e-12
8.70963590e-01 4.73414613e-12 4.54613417e-12 1.48267083e-13 3.97448777e-14 7.92447043e-15 4.54613417e-12
1.00000000e+00 4.46260614e-12 4.24269927e-12 1.23463258e-13 9.64436124e-14 1.90400610e-14 4.24269927e-12
1.14815362e+00 4.28149822e-12 3.95951734e-12 1.00330786e-13 2.21650095e-13 4.12132974e-14 3.95951734e-12
1.31825674e+00 4.24035158e-12 3.69523659e-12 8.09573844e-14 4.64157605e-13 7.64918744e-14 3.69523659e-12
1.51356125e+00 4.38939360e-12 3.44859544e-12 6.33504616e-14 8.77447703e-13 1.24313568e-13 3.44859544e-12
1.73780083e+00 4.73117726e-12 3.21841652e-12 4.79482141e-14 1.46481252e-12 1.75009657e-13 3.21841652e-12
1.99526231e+00 5.25297354e-12 3.00360106e-12 3.58346864e-14 2.21353779e-12 2.11848423e-13 3.00360106e-12
2.29086765e+00 5.83542207e-12 2.80312361e-12 2.56788654e-14 3.00661960e-12 2.27976645e-13 2.80312361e-12
2.63026799e+00 6.41059510e-12 2.61602716e-12 1.80817137e-14 3.77648622e-12 2.22624947e-13 2.61602716e-12
3.01995172e+00 6.86956699e-12 2.44141860e-12 1.27197537e-14 4.41542864e-12 1.97966724e-13 2.44141860e-12
3.46736850e+00 7.18644090e-12 2.27846441e-12 9.07435480e-15 4.89890214e-12 1.66673282e-13 2.27846441e-12
3.98107171e+00 7.31271992e-12 2.12638671e-12 6.26175411e-15 5.18007146e-12 1.32087990e-13 2.12638671e-12
4.57088190e+00 7.29087040e-12 1.98445954e-12 4.22260121e-15 5.30218826e-12 9.85329047e-14 1.98445954e-12
5.24807460e+00 6.97118153e-12 1.64084388e-12 2.43853358e-15 5.32789912e-12 6.90026269e-14 1.64084388e-12
6.02559586e+00 6.34271171e-12 1.08409480e-12 1.08609117e-15 5.25753082e-12 4.61753000e-14 1.08409480e-12
6.70000000e+00 5.93906395e-12 7.88574724e-13 5.61260194e-16 5.14992796e-12 3.21787607e-14 7.88574724e-13
6.92422916e+00 5.83374405e-12 7.14418944e-13 4.58419387e-16 5.11886668e-12 2.86212932e-14 7.14418944e-13
7.15596261e+00 5.73916538e-12 6.47236606e-13 3.62857045e-16 5.09156592e-12 2.50216629e-14 6.47236606e-13
7.39545150e+00 5.73230798e-12 5.86371942e-13 2.73687332e-16 5.14566235e-12 2.13462422e-14 5.86371942e-13
7.64295536e+00 5.87992362e-12 5.31230854e-13 1.88446833e-16 5.34850432e-12 1.75259629e-14 5.31230854e-13
7.89874245e+00 6.32124020e-12 4.81275108e-13 1.11905229e-16 5.83985318e-12 1.32996796e-14 4.81275108e-13
8.16308998e+00 6.92823021e-12 4.36017088e-13 6.42447771e-17 6.49214888e-12 9.93609543e-15 4.36017088e-13
8.43628443e+00 7.73985389e-12 3.95015029e-13 3.47832415e-17 7.34480408e-12 7.21148311e-15 3.95015029e-13
8.71862190e+00 8.28340905e-12 3.57868711e-13 2.15966615e-17 7.92551874e-12 5.57682343e-15 3.57868711e-13
9.01040836e+00 8.83530313e-12 3.24215549e-13 1.33836592e-17 8.51107420e-12 4.20008804e-15 3.24215549e-13
9.31196005e+00 9.29573646e-12 2.93727053e-13 0.00000000e+00 9.00200941e-12 0.00000000e+00 2.93727053e-13
9.62360379e+00 9.22772846e-12 2.66105627e-13 0.00000000e+00 8.96162283e-12 0.00000000e+00 2.66105627e-13
9.94567731e+00 8.77039559e-12 2.41081657e-13 0.00000000e+00 8.52931394e-12 0.00000000e+00 2.41081657e-13
1.02785297e+01 8.32484017e-12 2.18410884e-13 0.00000000e+00 8.10642928e-12 0.00000000e+00 2.18410884e-13
1.06225216e+01 7.87364191e-12 1.97872020e-13 0.00000000e+00 7.67576989e-12 0.00000000e+00 1.97872020e-13
1.09780260e+01 7.38633268e-12 1.79264583e-13 0.00000000e+00 7.20706810e-12 0.00000000e+00 1.79264583e-13
1.13454280e+01 6.96027097e-12 1.62406948e-13 0.00000000e+00 6.79786402e-12 0.00000000e+00 1.62406948e-13
1.17251259e+01 6.57479155e-12 1.47134567e-13 0.00000000e+00 6.42765698e-12 0.00000000e+00 1.47134567e-13
1.21175312e+01 6.26718332e-12 1.33298366e-13 0.00000000e+00 6.13388495e-12 0.00000000e+00 1.33298366e-13
1.25230691e+01 5.93646301e-12 1.20763289e-13 0.00000000e+00 5.81569972e-12 0.00000000e+00 1.20763289e-13
1.29421791e+01 5.64630106e-12 1.09406983e-13 0.00000000e+00 5.53689408e-12 0.00000000e+00 1.09406983e-13
1.33753155e+01 5.43003983e-12 9.91185987e-14 0.00000000e+00 5.33092123e-12 0.00000000e+00 9.91185987e-14
1.38229477e+01 5.26237902e-12 8.97977103e-14 0.00000000e+00 5.17258131e-12 0.00000000e+00 8.97977103e-14
1.42855609e+01 5.16880593e-12 8.13533371e-14 0.00000000e+00 5.08745259e-12 0.00000000e+00 8.13533371e-14
1.47636563e+01 5.22377157e-12 7.37030537e-14 0.00000000e+00 5.15006852e-12 0.00000000e+00 7.37030537e-14
1.52577522e+01 5.27510307e-12 6.67721855e-14 0.00000000e+00 5.20833088e-12 0.00000000e+00 6.67721855e-14
1.57683840e+01 5.38869405e-12 6.04930805e-14 0.00000000e+00 5.32820097e-12 0.00000000e+00 6.04930805e-14
1.62961051e+01 5.46119530e-12 5.48044484e-14 0.00000000e+00 5.40639085e-12 0.00000000e+00 5.48044484e-14
1.68414875e+01 5.53455087e-12 4.96507622e-14 0.00000000e+00 5.48490011e-12 0.00000000e+00 4.96507622e-14
1.74051222e+01 5.56404011e-12 4.49817171e-14 0.00000000e+00 5.51905840e-12 0.00000000e+00 4.49817171e-14
1.79876201e+01 5.55534362e-12 4.07517384e-14 0.00000000e+00 5.51459188e-12 0.00000000e+00 4.07517384e-14
1.85896125e+01 5.47807128e-12 3.69195372e-14 0.00000000e+00 5.44115174e-12 0.00000000e+00 3.69195372e-14
1.92117518e+01 5.37021039e-12 3.34477076e-14 0.00000000e+00 5.33676268e-12 0.00000000e+00 3.34477076e-14
1.98547123e+01 5.21251716e-12 3.03023610e-14 0.00000000e+00 5.18221479e-12 0.00000000e+00 3.03023610e-14
2.05191907e+01 5.05827686e-12 2.74527957e-14 0.00000000e+00 5.03082406e-12 0.00000000e+00 2.74527957e-14
2.12059073e+01 4.86719238e-12 2.48711970e-14 0.00000000e+00 4.84232118e-12 0.00000000e+00 2.48711970e-14
2.19156062e+01 4.72033842e-12 2.25323660e-14 0.00000000e+00 4.69780605e-12 0.00000000e+00 2.25323660e-14
2.26490567e+01 4.55625231e-12 2.04134733e-14 0.00000000e+00 4.53583883e-12 0.00000000e+00 2.04134733e-14
2.34070535e+01 4.38227639e-12 1.84938366e-14 0.00000000e+00 4.36378256e-12 0.00000000e+00 1.84938366e-14
2.41904183e+01 4.22507587e-12 1.67547181e-14 0.00000000e+00 4.20832115e-12 0.00000000e+00 1.67547181e-14
2.50000000e+01 4.07127856e-12 1.51791424e-14 0.00000000e+00 4.05609942e-12 0.00000000e+00 1.51791424e-14
2.75422870e+01 3.53088801e-12 1.13518661e-14 0.00000000e+00 3.51953614e-12 0.00000000e+00 1.13518661e-14
3.16227766e+01 2.79792213e-12 7.50010357e-15 0.00000000e+00 2.79042203e-12 0.00000000e+00 7.50010357e-15
3.63078055e+01 2.08346726e-12 4.95526929e-15 0.00000000e+00 2.07851199e-12 0.00000000e+00 4.95526929e-15
4.16869383e+01 1.46719047e-12 3.27391395e-15 0.00000000e+00 1.46391656e-12 0.00000000e+00 3.27391395e-15
4.78630092e+01 9.60965793e-13 2.16305350e-15 0.00000000e+00 9.58802740e-13 0.00000000e+00 2.16305350e-15
5.49540874e+01 5.98287579e-13 1.42911527e-15 0.00000000e+00 5.96858463e-13 0.00000000e+00 1.42911527e-15
6.30957344e+01 3.55667871e-13 9.44207098e-16 0.00000000e+00 3.54723664e-13 0.00000000e+00 9.44207098e-16
7.24435960e+01 2.04173498e-13 6.23831443e-16 0.00000000e+00 2.03549666e-13 0.00000000e+00 6.23831443e-16
8.31763771e+01 1.14193610e-13 4.12161347e-16 0.00000000e+00 1.13781449e-13 0.00000000e+00 4.12161347e-16
9.54992586e+01 6.26046352e-14 2.72312302e-16 0.00000000e+00 6.23323229e-14 0.00000000e+00 2.72312302e-16
1.09647820e+02 3.38923523e-14 1.79914953e-16 0.00000000e+00 3.37124373e-14 0.00000000e+00 1.79914953e-16
1.25892541e+02 1.83715157e-14 1.18868631e-16 0.00000000e+00 1.82526471e-14 0.00000000e+00 1.18868631e-16
1.44543977e+02 9.92232910e-15 7.85357256e-17 0.00000000e+00 9.84379338e-15 0.00000000e+00 7.85357256e-17
1.65958691e+02 5.12017077e-15 5.18880394e-17 0.00000000e+00 5.06828273e-15 0.00000000e+00 5.18880394e-17
1.90546072e+02 2.64979782e-15 3.42820876e-17 0.00000000e+00 2.61551573e-15 0.00000000e+00 3.42820876e-17
2.18776162e+02 1.37214657e-15 2.26499507e-17 0.00000000e+00 1.34949662e-15 0.00000000e+00 2.26499507e-17
2.51188643e+02 7.09883814e-16 1.49646740e-17 0.00000000e+00 6.94919140e-16 0.00000000e+00 1.49646740e-17
2.88403150e+02 3.66513552e-16 9.88706207e-18 0.00000000e+00 3.56626490e-16 0.00000000e+00 9.88706207e-18
3.31131121e+02 1.89242262e-16 6.53231713e-18 0.00000000e+00 1.82709945e-16 0.00000000e+00 6.53231713e-18
3.80189396e+02 9.76553229e-17 4.31585913e-18 0.00000000e+00 9.33394638e-17 0.00000000e+00 4.31585913e-18
4.36515832e+02 5.04576129e-17 2.85145985e-18 0.00000000e+00 4.76061530e-17 0.00000000e+00 2.85145985e-18
5.01187234e+02 2.61164060e-17 1.88394084e-18 0.00000000e+00 2.42324652e-17 0.00000000e+00 1.88394084e-18
5.75439937e+02 1.35598157e-17 1.24470737e-18 0.00000000e+00 1.23151083e-17 0.00000000e+00 1.24470737e-18
6.60693448e+02 7.07248977e-18 8.22370004e-19 0.00000000e+00 6.25011976e-18 0.00000000e+00 8.22370004e-19
7.58577575e+02 3.71156420e-18 5.43334473e-19 0.00000000e+00 3.16822973e-18 0.00000000e+00 5.43334473e-19
8.70963590e+02 1.96290309e-18 3.58977527e-19 0.00000000e+00 1.60392557e-18 0.00000000e+00 3.58977527e-19
1.00000000e+03 8.10987743e-19 0.00000000e+00 0.00000000e+00 8.10987743e-19 0.00000000e+00 0.00000000e+00
