# column 1: lambda (micron)
# column 2: total flux; lambda*F_lambda (W/m2)
# column 3: direct stellar flux; lambda*F_lambda (W/m2)
# column 4: scattered stellar flux; lambda*F_lambda (W/m2)
# column 5: total dust emission flux; lambda*F_lambda (W/m2)
# column 6: dust emission scattered flux; lambda*F_lambda (W/m2)
# column 7: transparent flux; lambda*F_lambda (W/m2)
1.00000000e-03 9.66416720e-13 9.66412143e-13 4.57698108e-18 0.00000000e+00 0.00000000e+00 9.68073281e-13
1.14815362e-03 1.14005702e-12 1.14004722e-12 9.79771955e-18 0.00000000e+00 0.00000000e+00 1.14263687e-12
1.31825674e-03 1.34480683e-12 1.34479284e-12 1.39884231e-17 0.00000000e+00 0.00000000e+00 1.34867788e-12
1.51356125e-03 1.58649415e-12 1.58646746e-12 2.66949083e-17 0.00000000e+00 0.00000000e+00 1.59187233e-12
1.73780083e-03 1.87256474e-12 1.87247446e-12 9.02852057e-17 0.00000000e+00 0.00000000e+00 1.87891976e-12
1.99526231e-03 2.20812511e-12 2.20764713e-12 4.77981262e-16 0.00000000e+00 0.00000000e+00 2.21772777e-12
2.29086765e-03 2.60517746e-12 2.60501424e-12 1.63221510e-16 0.00000000e+00 0.00000000e+00 2.61762985e-12
2.63026799e-03 3.07213984e-12 3.07180699e-12 3.32849091e-16 0.00000000e+00 0.00000000e+00 3.08964252e-12
3.01995172e-03 3.62210079e-12 3.62075033e-12 1.35046442e-15 0.00000000e+00 0.00000000e+00 3.64676883e-12
3.46736850e-03 4.29418958e-12 4.26818246e-12 2.60071250e-14 0.00000000e+00 0.00000000e+00 4.30435650e-12
3.98107171e-03 5.03344759e-12 5.03167699e-12 1.77059743e-15 0.00000000e+00 0.00000000e+00 5.08052080e-12
4.57088190e-03 5.96240653e-12 5.95812559e-12 4.28094323e-15 0.00000000e+00 0.00000000e+00 5.99664354e-12
5.24807460e-03 7.03628077e-12 7.01994616e-12 1.63346049e-14 0.00000000e+00 0.00000000e+00 7.07796211e-12
6.02559586e-03 8.29068712e-12 8.27176797e-12 1.89191501e-14 0.00000000e+00 0.00000000e+00 8.35426474e-12
6.91830971e-03 9.78451026e-12 9.74841585e-12 3.60944139e-14 0.00000000e+00 0.00000000e+00 9.86071107e-12
7.94328235e-03 1.15806367e-11 1.14910238e-11 8.96128426e-14 1.91948338e-303 8.75406561e-306 1.16388008e-11
9.12010839e-03 1.36132167e-11 1.35440939e-11 6.91227645e-14 9.14866846e-265 7.10998561e-267 1.37375167e-11
1.04712855e-02 1.52062780e-11 1.51132100e-11 9.30680139e-14 4.15542066e-231 4.14112633e-233 1.53429287e-11
1.20226443e-02 1.51885228e-11 1.50997604e-11 8.87624088e-14 6.90337026e-202 5.75794866e-204 1.53429287e-11
1.38038426e-02 1.52218576e-11 1.50838233e-11 1.38034321e-13 2.00082861e-176 3.54361763e-178 1.53429287e-11
1.58489319e-02 1.52309913e-11 1.50642608e-11 1.66730517e-13 2.82746061e-154 4.58052958e-156 1.53429287e-11
1.81970086e-02 1.52148358e-11 1.50462404e-11 1.68595425e-13 5.27688046e-135 1.16440050e-136 1.53429287e-11
2.08929613e-02 1.52399341e-11 1.50312780e-11 2.08656110e-13 2.85592357e-118 6.82865544e-120 1.53429287e-11
2.39883292e-02 1.52521175e-11 1.50119139e-11 2.40203635e-13 1.04033341e-103 3.39586107e-105 1.53429287e-11
2.75422870e-02 1.52827021e-11 1.49894214e-11 2.93280754e-13 4.79883750e-91 1.84634371e-92 1.53429287e-11
3.16227766e-02 1.53029001e-11 1.49674066e-11 3.35493524e-13 4.81534366e-80 2.23155389e-81 1.53429287e-11
3.63078055e-02 1.53091496e-11 1.49501619e-11 3.58987724e-13 1.70592436e-70 8.45311188e-72 1.53429287e-11
4.16869383e-02 1.53929003e-11 1.49352625e-11 4.57637763e-13 3.33080485e-62 2.09218137e-63 1.53429287e-11
4.78630092e-02 1.54209479e-11 1.48942697e-11 5.26678159e-13 5.15324268e-55 3.95330066e-56 1.53429287e-11
5.49540874e-02 1.54109910e-11 1.48374484e-11 5.73542684e-13 8.70970698e-49 7.48437049e-50 1.53429287e-11
6.30957344e-02 1.52861210e-11 1.46959203e-11 5.90200705e-13 2.84517708e-43 2.65349050e-44 1.53429287e-11
7.24435960e-02 1.50576176e-11 1.45300241e-11 5.27593507e-13 1.64764751e-38 1.40971591e-39 1.53429287e-11
8.31763771e-02 1.50498250e-11 1.45447102e-11 5.05114783e-13 1.70203992e-34 1.43967966e-35 1.53429287e-11
9.54992586e-02 1.51026293e-11 1.45878694e-11 5.14759866e-13 4.84137927e-31 4.23318124e-32 1.53429287e-11
1.09647820e-01 1.45874191e-11 1.40508110e-11 5.36608090e-13 4.16589502e-28 3.99307017e-29 1.46523889e-11
1.25892541e-01 1.37446378e-11 1.32105606e-11 5.34077215e-13 1.36217857e-25 1.31687416e-26 1.36744049e-11
1.44543977e-01 1.28792061e-11 1.24018439e-11 4.77362278e-13 1.86817035e-23 1.79564956e-24 1.27616972e-11
1.65958691e-01 1.21161858e-11 1.16156796e-11 5.00506175e-13 9.57767025e-22 1.02997952e-22 1.19099088e-11
1.90546072e-01 1.13377415e-11 1.08222704e-11 5.15471033e-13 2.04018978e-20 2.53440938e-21 1.11149736e-11
2.18776162e-01 1.05171014e-11 1.00533999e-11 4.63701247e-13 2.41961856e-19 3.06735204e-20 1.03730969e-11
2.51188643e-01 9.97458995e-12 9.44138250e-12 5.33204439e-13 3.00966555e-18 4.78671366e-19 9.68073733e-12
2.88403150e-01 9.34202576e-12 8.84873870e-12 4.93261882e-13 2.51736446e-17 4.00989619e-18 9.03458975e-12
3.31131121e-01 8.74487461e-12 8.28017175e-12 4.64558211e-13 1.44651027e-16 2.27169769e-17 8.43156974e-12
3.80189396e-01 8.17594405e-12 7.74458537e-12 4.30753817e-13 6.04866692e-16 9.39215459e-17 7.86879872e-12
4.36515832e-01 7.64151129e-12 7.24259719e-12 3.96981753e-13 1.93234392e-15 3.00807409e-16 7.34359025e-12
5.01187234e-01 7.14855051e-12 6.77243880e-12 3.71148219e-13 4.96348904e-15 7.89141666e-16 6.85343719e-12
5.75439937e-01 6.68237452e-12 6.33171259e-12 3.39524178e-13 1.11377501e-14 1.92813772e-15 6.39599973e-12
6.60693448e-01 6.24819416e-12 5.91851656e-12 3.05751228e-13 2.39263678e-14 4.77931629e-15 5.96909425e-12
7.58577575e-01 5.86589679e-12 5.53137771e-12 2.80571219e-13 5.39478542e-14 1.27012311e-14 5.57068288e-12
8.70963590e-01 5.54345744e-12 5.16899696e-12 2.46381960e-13 1.28078517e-13 3.32606645e-14 5.19886376e-12
1.00000000e+00 5.34029519e-12 4.82953547e-12 2.13944009e-13 2.96815709e-13 7.90335386e-14 4.85186196e-12
1.14815362e+00 5.34103331e-12 4.51162901e-12 1.76589808e-13 6.52814494e-13 1.64892432e-13 4.52802104e-12
1.31825674e+00 5.66405830e-12 4.21397016e-12 1.40677074e-13 1.30941107e-12 2.95448145e-13 4.22579511e-12
1.51356125e+00 6.42753288e-12 3.93529795e-12 1.11396435e-13 2.38083850e-12 4.67257146e-13 3.94374146e-12
1.73780083e+00 7.56445706e-12 3.67458306e-12 8.69996488e-14 3.80287435e-12 6.24203270e-13 3.68051368e-12
1.99526231e+00 9.00304155e-12 3.43075520e-12 6.56570669e-14 5.50662928e-12 7.31208434e-13 3.43485522e-12
2.29086765e+00 1.04399779e-11 3.20276788e-12 4.93990671e-14 7.18781094e-12 7.62279665e-13 3.20559341e-12
2.63026799e+00 1.17214803e-11 2.98966846e-12 3.55714744e-14 8.69624036e-12 7.22429903e-13 2.99163384e-12
3.01995172e+00 1.27351126e-11 2.79057052e-12 2.51479426e-14 9.91939412e-12 6.36497718e-13 2.79195514e-12
3.46736850e+00 1.32986197e-11 2.60461277e-12 1.73031429e-14 1.06767038e-11 5.15365899e-13 2.60560415e-12
3.98107171e+00 1.35410460e-11 2.43097241e-12 1.15445372e-14 1.10985291e-11 3.87666355e-13 2.43169128e-12
4.57088190e+00 1.33310245e-11 2.26885796e-12 7.38017731e-15 1.10547864e-11 2.64215976e-13 2.26938634e-12
5.24807460e+00 1.26471545e-11 1.87608369e-12 4.03559167e-15 1.07670353e-11 1.67899544e-13 1.87643467e-12
6.02559586e+00 1.15045235e-11 1.23955539e-12 1.71300933e-15 1.02632551e-11 9.89514414e-14 1.23974809e-12
6.70000000e+00 1.06180712e-11 9.01673457e-13 8.49929473e-16 9.71554780e-12 6.26464171e-14 9.01797527e-13
6.92422916e+00 1.03611418e-11 8.16886069e-13 6.80100411e-16 9.54357561e-12 5.40122098e-14 8.16994532e-13
7.15596261e+00 1.01604684e-11 7.40069671e-13 5.38716440e-16 9.41985999e-12 4.60894970e-14 7.40166218e-13
7.39545150e+00 1.01043984e-11 6.70473108e-13 4.11562539e-16 9.43351377e-12 3.91147039e-14 6.70562664e-13
7.64295536e+00 1.04667140e-11 6.07412029e-13 2.94493924e-16 9.85900749e-12 3.32418510e-14 6.07504471e-13
7.89874245e+00 1.14090653e-11 5.50267924e-13 1.91211211e-16 1.08586062e-11 2.76410169e-14 5.50376127e-13
8.16308998e+00 1.25940765e-11 4.98487643e-13 1.15663677e-16 1.20954732e-11 2.22808405e-14 4.98620004e-13
8.43628443e+00 1.39887554e-11 4.51564319e-13 6.45123498e-17 1.35371266e-11 1.69304286e-14 4.51730909e-13
8.71862190e+00 1.47811822e-11 4.09065720e-13 3.86885378e-17 1.43720778e-11 1.29701952e-14 4.09251158e-13
9.01040836e+00 1.54524046e-11 3.70562599e-13 2.06356617e-17 1.50818213e-11 9.19666322e-15 3.70766106e-13
9.31196005e+00 1.58101058e-11 3.35686272e-13 0.00000000e+00 1.54744195e-11 0.00000000e+00 3.35900102e-13
9.62360379e+00 1.57443512e-11 3.04113994e-13 0.00000000e+00 1.54402372e-11 0.00000000e+00 3.04312818e-13
9.94567731e+00 1.50707501e-11 2.75526913e-13 0.00000000e+00 1.47952232e-11 0.00000000e+00 2.75695930e-13
1.02785297e+01 1.43441332e-11 2.49631583e-13 0.00000000e+00 1.40945017e-11 0.00000000e+00 2.49770110e-13
1.06225216e+01 1.36123218e-11 2.26169974e-13 0.00000000e+00 1.33861518e-11 0.00000000e+00 2.26282295e-13
1.09780260e+01 1.28294753e-11 2.04915432e-13 0.00000000e+00 1.26245599e-11 0.00000000e+00 2.05003220e-13
1.13454280e+01 1.20169998e-11 1.85656294e-13 0.00000000e+00 1.18313435e-11 0.00000000e+00 1.85725182e-13
1.17251259e+01 1.12453173e-11 1.68205602e-13 0.00000000e+00 1.10771117e-11 0.00000000e+00 1.68260007e-13
1.21175312e+01 1.04737068e-11 1.52394471e-13 0.00000000e+00 1.03213123e-11 0.00000000e+00 1.52437217e-13
1.25230691e+01 9.72731967e-12 1.38068873e-13 0.00000000e+00 9.58925080e-12 0.00000000e+00 1.38102367e-13
1.29421791e+01 9.06221671e-12 1.25089105e-13 0.00000000e+00 8.93712761e-12 0.00000000e+00 1.25115533e-13
1.33753155e+01 8.41722362e-12 1.13328950e-13 0.00000000e+00 8.30389467e-12 0.00000000e+00 1.13349952e-13
1.38229477e+01 7.95140568e-12 1.02673320e-13 0.00000000e+00 7.84873236e-12 0.00000000e+00 1.02690779e-13
1.42855609e+01 7.65818161e-12 9.30187964e-14 0.00000000e+00 7.56516281e-12 0.00000000e+00 9.30339713e-14
1.47636563e+01 7.69547306e-12 8.42708653e-14 0.00000000e+00 7.61120219e-12 0.00000000e+00 8.42852675e-14
1.52577522e+01 7.82819910e-12 7.63453562e-14 0.00000000e+00 7.75185375e-12 0.00000000e+00 7.63592720e-14
1.57683840e+01 7.99755533e-12 6.91650008e-14 0.00000000e+00 7.92839033e-12 0.00000000e+00 6.91786191e-14
1.62961051e+01 8.12664952e-12 6.26599075e-14 0.00000000e+00 8.06398961e-12 0.00000000e+00 6.26732185e-14
1.68414875e+01 8.30088720e-12 5.67665895e-14 0.00000000e+00 8.24412061e-12 0.00000000e+00 5.67795711e-14
1.74051222e+01 8.34286020e-12 5.14278213e-14 0.00000000e+00 8.29143238e-12 0.00000000e+00 5.14401489e-14
1.79876201e+01 8.33838340e-12 4.65913238e-14 0.00000000e+00 8.29179208e-12 0.00000000e+00 4.66028339e-14
1.85896125e+01 8.18692757e-12 4.22099947e-14 0.00000000e+00 8.14471757e-12 0.00000000e+00 4.22204090e-14
1.92117518e+01 7.94247395e-12 3.82409498e-14 0.00000000e+00 7.90423300e-12 0.00000000e+00 3.82500974e-14
1.98547123e+01 7.61192113e-12 3.46452667e-14 0.00000000e+00 7.57727586e-12 0.00000000e+00 3.46531450e-14
2.05191907e+01 7.23811090e-12 3.13877252e-14 0.00000000e+00 7.20672318e-12 0.00000000e+00 3.13944418e-14
2.12059073e+01 6.88338423e-12 2.84364544e-14 0.00000000e+00 6.85494777e-12 0.00000000e+00 2.84421796e-14
2.19156062e+01 6.54562378e-12 2.57626374e-14 0.00000000e+00 6.51986114e-12 0.00000000e+00 2.57675415e-14
2.26490567e+01 6.19743657e-12 2.33402129e-14 0.00000000e+00 6.17409635e-12 0.00000000e+00 2.33444203e-14
2.34070535e+01 5.89057091e-12 2.11455476e-14 0.00000000e+00 5.86942537e-12 0.00000000e+00 2.11491639e-14
2.41904183e+01 5.58018761e-12 1.91572283e-14 0.00000000e+00 5.56103038e-12 0.00000000e+00 1.91603445e-14
2.50000000e+01 5.27506977e-12 1.73558582e-14 0.00000000e+00 5.25771392e-12 0.00000000e+00 1.73585491e-14
2.75422870e+01 4.44032187e-12 1.29800013e-14 0.00000000e+00 4.42734186e-12 0.00000000e+00 1.29817562e-14
3.16227766e+01 3.34534289e-12 8.57599707e-15 0.00000000e+00 3.33676689e-12 0.00000000e+00 8.57696126e-15
3.63078055e+01 2.39002674e-12 5.66621516e-15 0.00000000e+00 2.38436053e-12 0.00000000e+00 5.66674211e-15
4.16869383e+01 1.59460740e-12 3.74369901e-15 0.00000000e+00 1.59086370e-12 0.00000000e+00 3.74397938e-15
4.78630092e+01 9.98862471e-13 2.47347811e-15 0.00000000e+00 9.96388993e-13 0.00000000e+00 2.47362265e-15
5.49540874e+01 5.94043879e-13 1.63423335e-15 0.00000000e+00 5.92409645e-13 0.00000000e+00 1.63430628e-15
6.30957344e+01 3.40085722e-13 1.07973912e-15 0.00000000e+00 3.39005983e-13 0.00000000e+00 1.07977545e-15
7.24435960e+01 1.89195445e-13 7.13382596e-16 0.00000000e+00 1.88482063e-13 0.00000000e+00 7.13400564e-16
8.31763771e+01 1.03254810e-13 4.71330206e-16 0.00000000e+00 1.02783480e-13 0.00000000e+00 4.71339078e-16
9.54992586e+01 5.56584975e-14 3.11406250e-16 0.00000000e+00 5.53470912e-14 0.00000000e+00 3.11410641e-16
1.09647820e+02 2.97462120e-14 2.05744789e-16 0.00000000e+00 2.95404672e-14 0.00000000e+00 2.05746970e-16
1.25892541e+02 1.59949114e-14 1.35934576e-16 0.00000000e+00 1.58589768e-14 0.00000000e+00 1.35935675e-16
1.44543977e+02 8.59527172e-15 8.98112515e-17 0.00000000e+00 8.50546046e-15 0.00000000e+00 8.98118099e-17
1.65958691e+02 4.41297792e-15 5.93378006e-17 0.00000000e+00 4.35364012e-15 0.00000000e+00 5.93380743e-17
1.90546072e+02 2.27765995e-15 3.92041414e-17 0.00000000e+00 2.23845581e-15 0.00000000e+00 3.92042769e-17
2.18776162e+02 1.17831053e-15 2.59019414e-17 0.00000000e+00 1.15240859e-15 0.00000000e+00 2.59020089e-17
2.51188643e+02 6.09658559e-16 1.71132538e-17 0.00000000e+00 5.92545306e-16 0.00000000e+00 1.71132876e-17
2.88403150e+02 3.15129606e-16 1.13066201e-17 0.00000000e+00 3.03822985e-16 0.00000000e+00 1.13066370e-17
3.31131121e+02 1.63063318e-16 7.47021250e-18 0.00000000e+00 1.55593105e-16 0.00000000e+00 7.47022097e-18
3.80189396e+02 8.44096349e-17 4.93552180e-18 0.00000000e+00 7.94741131e-17 0.00000000e+00 4.93552605e-18
4.36515832e+02 4.37965432e-17 3.26086759e-18 0.00000000e+00 4.05356756e-17 0.00000000e+00 3.26086972e-18
5.01187234e+02 2.27911847e-17 2.15443419e-18 0.00000000e+00 2.06367505e-17 0.00000000e+00 2.15443526e-18
5.75439937e+02 1.19136589e-17 1.42342072e-18 0.00000000e+00 1.04902382e-17 0.00000000e+00 1.42342126e-18
6.60693448e+02 6.26585445e-18 9.40444831e-19 0.00000000e+00 5.32540961e-18 0.00000000e+00 9.40445101e-19
7.58577575e+02 3.32163958e-18 6.21345781e-19 0.00000000e+00 2.70029380e-18 0.00000000e+00 6.21345916e-19
8.70963590e+02 1.77796713e-18 4.10519108e-19 0.00000000e+00 1.36744802e-18 0.00000000e+00 4.10519176e-19
1.00000000e+03 6.91619592e-19 0.00000000e+00 0.00000000e+00 6.91619592e-19 0.00000000e+00 0.00000000e+00
