# column 1: lambda (micron)
# column 2: total flux; lambda*F_lambda (W/m2)
# column 3: direct stellar flux; lambda*F_lambda (W/m2)
# column 4: scattered stellar flux; lambda*F_lambda (W/m2)
# column 5: total dust emission flux; lambda*F_lambda (W/m2)
# column 6: dust emission scattered flux; lambda*F_lambda (W/m2)
# column 7: transparent flux; lambda*F_lambda (W/m2)
1.00000000e-03 5.25638899e-13 5.25636674e-13 2.22486067e-18 0.00000000e+00 0.00000000e+00 5.25636674e-13
1.14815362e-03 6.20422975e-13 6.20419813e-13 3.16252490e-18 0.00000000e+00 0.00000000e+00 6.20419813e-13
1.31825674e-03 7.32299431e-13 7.32294308e-13 5.12294933e-18 0.00000000e+00 0.00000000e+00 7.32294308e-13
1.51356125e-03 8.64350622e-13 8.64342083e-13 8.53940977e-18 0.00000000e+00 0.00000000e+00 8.64342083e-13
1.73780083e-03 1.02021550e-12 1.02020080e-12 1.47037897e-17 0.00000000e+00 0.00000000e+00 1.02020080e-12
1.99526231e-03 1.20419396e-12 1.20416405e-12 2.99098282e-17 0.00000000e+00 0.00000000e+00 1.20416405e-12
2.29086765e-03 1.42134347e-12 1.42129968e-12 4.37851625e-17 0.00000000e+00 0.00000000e+00 1.42129968e-12
2.63026799e-03 1.67768156e-12 1.67758934e-12 9.22177829e-17 0.00000000e+00 0.00000000e+00 1.67758934e-12
3.01995172e-03 1.98024693e-12 1.98009332e-12 1.53606693e-16 0.00000000e+00 0.00000000e+00 1.98009332e-12
3.46736850e-03 2.33740561e-12 2.33714500e-12 2.60609199e-16 0.00000000e+00 0.00000000e+00 2.33714500e-12
3.98107171e-03 2.75900756e-12 2.75858048e-12 4.27082114e-16 0.00000000e+00 0.00000000e+00 2.75858048e-12
4.57088190e-03 3.25684722e-12 3.25600946e-12 8.37757596e-16 0.00000000e+00 0.00000000e+00 3.25600946e-12
5.24807460e-03 3.84459979e-12 3.84313516e-12 1.46462635e-15 0.00000000e+00 0.00000000e+00 3.84313516e-12
6.02559586e-03 4.53931976e-12 4.53613173e-12 3.18802686e-15 0.00000000e+00 0.00000000e+00 4.53613173e-12
6.91830971e-03 5.35882100e-12 5.35408989e-12 4.73110987e-15 0.00000000e+00 0.00000000e+00 5.35408989e-12
7.94328235e-03 6.32872703e-12 6.31954278e-12 9.18424244e-15 0.00000000e+00 0.00000000e+00 6.31954278e-12
9.12010839e-03 7.47665893e-12 7.45908676e-12 1.75721776e-14 0.00000000e+00 0.00000000e+00 7.45908676e-12
1.04712855e-02 8.35321064e-12 8.33078048e-12 2.24301672e-14 0.00000000e+00 0.00000000e+00 8.33078048e-12
1.20226443e-02 8.37402810e-12 8.33078048e-12 4.32476230e-14 1.48015578e-312 3.11322240e-314 8.33078048e-12
1.38038426e-02 8.38390394e-12 8.33078048e-12 5.31234632e-14 3.52308556e-273 7.26055941e-275 8.33078048e-12
1.58489319e-02 8.40053825e-12 8.33078048e-12 6.97577794e-14 6.64451915e-239 1.66700458e-240 8.33078048e-12
1.81970086e-02 8.41911571e-12 8.33078048e-12 8.83352315e-14 4.49633737e-209 1.49487728e-210 8.33078048e-12
2.08929613e-02 8.44735359e-12 8.33078048e-12 1.16573116e-13 3.83889765e-183 1.51638450e-184 8.33078048e-12
2.39883292e-02 8.48729017e-12 8.33078048e-12 1.56509690e-13 1.42827208e-160 6.84827150e-162 8.33078048e-12
2.75422870e-02 8.51521208e-12 8.33078048e-12 1.84431605e-13 6.24938591e-141 3.54520832e-142 8.33078048e-12
3.16227766e-02 8.54453587e-12 8.33078048e-12 2.13755392e-13 7.44699157e-124 4.64565011e-125 8.33078048e-12
3.63078055e-02 8.56207855e-12 8.33078048e-12 2.31298071e-13 5.17273052e-109 3.49580660e-110 8.33078048e-12
4.16869383e-02 8.60689022e-12 8.33078048e-12 2.76109742e-13 4.09175417e-96 3.17836838e-97 8.33078048e-12
4.78630092e-02 8.62558326e-12 8.33078048e-12 2.94802787e-13 6.52278257e-85 5.84096001e-86 8.33078048e-12
5.49540874e-02 8.62534846e-12 8.33078048e-12 2.94567982e-13 3.45386994e-75 3.29303885e-76 8.33078048e-12
6.30957344e-02 8.62464656e-12 8.33078048e-12 2.93866081e-13 1.26975098e-66 1.27308517e-67 8.33078048e-12
7.24435960e-02 8.58029203e-12 8.33078048e-12 2.49511551e-13 3.58490919e-59 3.59285182e-60 8.33078048e-12
8.31763771e-02 8.57147986e-12 8.33078048e-12 2.40699386e-13 9.62203653e-53 1.07278442e-53 8.33078048e-12
9.54992586e-02 8.57210222e-12 8.33078048e-12 2.41321740e-13 4.53713146e-47 6.04849873e-48 8.33078048e-12
1.09647820e-01 8.21294422e-12 7.95583672e-12 2.57107505e-13 4.35745721e-42 6.76948663e-43 7.95583672e-12
1.25892541e-01 7.67699567e-12 7.42481883e-12 2.52176837e-13 1.00991275e-37 1.64052837e-38 7.42481883e-12
1.44543977e-01 7.16378086e-12 6.92924411e-12 2.34536747e-13 6.13978317e-34 9.81291771e-35 6.92924411e-12
1.65958691e-01 6.69492671e-12 6.46674687e-12 2.28179842e-13 9.05991625e-31 1.58108876e-31 6.46674687e-12
1.90546072e-01 6.27082866e-12 6.03511933e-12 2.35709338e-13 3.74109986e-28 7.86645979e-29 6.03511933e-12
2.18776162e-01 5.84381340e-12 5.63230107e-12 2.11512337e-13 5.99630402e-26 1.37085299e-26 5.63230107e-12
2.51188643e-01 5.48626004e-12 5.25636919e-12 2.29890851e-13 8.07436301e-24 2.20337044e-24 5.25636919e-12
2.88403150e-01 5.11982213e-12 4.90552916e-12 2.14292974e-13 5.56422381e-22 1.55351299e-22 4.90552916e-12
3.31131121e-01 4.77659290e-12 4.57810618e-12 1.98486699e-13 2.09071653e-20 5.85292688e-21 4.57810618e-12
3.80189396e-01 4.44824234e-12 4.27253728e-12 1.75704591e-13 4.68158651e-19 1.31795444e-19 4.27253728e-12
4.36515832e-01 4.14950952e-12 3.98736380e-12 1.62139092e-13 6.63161954e-18 1.86913008e-18 3.98736380e-12
5.01187234e-01 3.86348205e-12 3.72122441e-12 1.42194381e-13 6.32536726e-17 1.79499150e-17 3.72122441e-12
5.75439937e-01 3.59894137e-12 3.47284869e-12 1.25666452e-13 4.26227618e-16 1.19687337e-16 3.47284869e-12
6.60693448e-01 3.35719041e-12 3.24105097e-12 1.14016223e-13 2.12321803e-15 5.86625552e-16 3.24105097e-12
7.58577575e-01 3.13487636e-12 3.02472476e-12 1.01921033e-13 8.23056453e-15 2.18872079e-15 3.02472476e-12
8.70963590e-01 2.93678289e-12 2.82283739e-12 8.83240640e-14 2.56214316e-14 6.48665333e-15 2.82283739e-12
1.00000000e+00 2.77588531e-12 2.63442513e-12 7.49676540e-14 6.64925184e-14 1.55668208e-14 2.63442513e-12
1.14815362e+00 2.67161195e-12 2.45858859e-12 6.39310843e-14 1.49092274e-13 3.13458360e-14 2.45858859e-12
1.31825674e+00 2.64248875e-12 2.29448837e-12 5.10164891e-14 2.96983884e-13 5.40335936e-14 2.29448837e-12
1.51356125e+00 2.71155612e-12 2.14134114e-12 4.03143538e-14 5.29900624e-13 8.17462726e-14 2.14134114e-12
1.73780083e+00 2.86894096e-12 1.99841583e-12 3.20002471e-14 8.38524879e-13 1.04981893e-13 1.99841583e-12
1.99526231e+00 3.08695832e-12 1.86503017e-12 2.35968761e-14 1.19833127e-12 1.17077751e-13 1.86503017e-12
2.29086765e+00 3.31315711e-12 1.74054743e-12 1.69691449e-14 1.55564054e-12 1.13154101e-13 1.74054743e-12
2.63026799e+00 3.50663959e-12 1.62437337e-12 1.19245507e-14 1.87034167e-12 1.00436349e-13 1.62437337e-12
3.01995172e+00 3.64253072e-12 1.51595343e-12 8.29718026e-15 2.11828011e-12 8.23422496e-14 1.51595343e-12
3.46736850e+00 3.69151877e-12 1.41477006e-12 5.92237094e-15 2.27082633e-12 6.41144260e-14 1.41477006e-12
3.98107171e+00 3.65264578e-12 1.32034025e-12 4.04380546e-15 2.32826173e-12 4.68508071e-14 1.32034025e-12
4.57088190e+00 3.54262016e-12 1.23221321e-12 2.65341512e-15 2.30775354e-12 3.26125076e-14 1.23221321e-12
5.24807460e+00 3.25999638e-12 1.01885146e-12 1.50248082e-15 2.23964244e-12 2.15592144e-14 1.01885146e-12
6.02559586e+00 2.82150697e-12 6.73148485e-13 6.57385040e-16 2.14770110e-12 1.35428886e-14 6.73148485e-13
6.70000000e+00 2.55346849e-12 4.89650796e-13 3.39637635e-16 2.06347806e-12 9.09054051e-15 4.89650796e-13
6.92422916e+00 2.47912352e-12 4.43605145e-13 2.76950726e-16 2.03524142e-12 8.05939005e-15 4.43605145e-13
7.15596261e+00 2.41832719e-12 4.01889522e-13 2.13073183e-16 2.01622460e-12 6.99646322e-15 4.01889522e-13
7.39545150e+00 2.39934675e-12 3.64096743e-13 1.62890589e-16 2.03508712e-12 5.96962946e-15 3.64096743e-13
7.64295536e+00 2.47514218e-12 3.29857910e-13 1.13466386e-16 2.14517081e-12 4.98254846e-15 3.29857910e-13
7.89874245e+00 2.71888790e-12 2.98838820e-13 7.13383469e-17 2.41997774e-12 3.92469310e-15 2.98838820e-13
8.16308998e+00 3.06473584e-12 2.70736695e-13 4.07490127e-17 2.79395839e-12 3.04679296e-15 2.70736695e-13
8.43628443e+00 3.55988969e-12 2.45277229e-13 2.18514334e-17 3.31459061e-12 2.29336971e-15 2.45277229e-13
8.71862190e+00 3.90532565e-12 2.22211915e-13 1.40902766e-17 3.68309964e-12 1.80910889e-15 2.22211915e-13
9.01040836e+00 4.25813689e-12 2.01315610e-13 8.81562582e-18 4.05681246e-12 1.38054596e-15 2.01315610e-13
9.31196005e+00 4.52359225e-12 1.82384346e-13 0.00000000e+00 4.34120791e-12 0.00000000e+00 1.82384346e-13
9.62360379e+00 4.53140786e-12 1.65233336e-13 0.00000000e+00 4.36617453e-12 0.00000000e+00 1.65233336e-13
9.94567731e+00 4.28614743e-12 1.49695167e-13 0.00000000e+00 4.13645226e-12 0.00000000e+00 1.49695167e-13
1.02785297e+01 3.98638909e-12 1.35618173e-13 0.00000000e+00 3.85077092e-12 0.00000000e+00 1.35618173e-13
1.06225216e+01 3.71387729e-12 1.22864947e-13 0.00000000e+00 3.59101235e-12 0.00000000e+00 1.22864947e-13
1.09780260e+01 3.39087531e-12 1.11311006e-13 0.00000000e+00 3.27956431e-12 0.00000000e+00 1.11311006e-13
1.13454280e+01 3.11485098e-12 1.00843571e-13 0.00000000e+00 3.01400741e-12 0.00000000e+00 1.00843571e-13
1.17251259e+01 2.89657674e-12 9.13604705e-14 0.00000000e+00 2.80521627e-12 0.00000000e+00 9.13604705e-14
1.21175312e+01 2.67497041e-12 8.27691389e-14 0.00000000e+00 2.59220127e-12 0.00000000e+00 8.27691389e-14
1.25230691e+01 2.49219259e-12 7.49857166e-14 0.00000000e+00 2.41720687e-12 0.00000000e+00 7.49857166e-14
1.29421791e+01 2.33256843e-12 6.79342298e-14 0.00000000e+00 2.26463420e-12 0.00000000e+00 6.79342298e-14
1.33753155e+01 2.19960081e-12 6.15458488e-14 0.00000000e+00 2.13805497e-12 0.00000000e+00 6.15458488e-14
1.38229477e+01 2.12090403e-12 5.57582167e-14 0.00000000e+00 2.06514581e-12 0.00000000e+00 5.57582167e-14
1.42855609e+01 2.08538621e-12 5.05148403e-14 0.00000000e+00 2.03487137e-12 0.00000000e+00 5.05148403e-14
1.47636563e+01 2.14417743e-12 4.57645392e-14 0.00000000e+00 2.09841289e-12 0.00000000e+00 4.57645392e-14
1.52577522e+01 2.20413463e-12 4.14609457e-14 0.00000000e+00 2.16267368e-12 0.00000000e+00 4.14609457e-14
1.57683840e+01 2.29715906e-12 3.75620523e-14 0.00000000e+00 2.25959701e-12 0.00000000e+00 3.75620523e-14
1.62961051e+01 2.38692704e-12 3.40298020e-14 0.00000000e+00 2.35289724e-12 0.00000000e+00 3.40298020e-14
1.68414875e+01 2.47213837e-12 3.08297166e-14 0.00000000e+00 2.44130866e-12 0.00000000e+00 3.08297166e-14
1.74051222e+01 2.53789113e-12 2.79305599e-14 0.00000000e+00 2.50996057e-12 0.00000000e+00 2.79305599e-14
1.79876201e+01 2.61733085e-12 2.53040334e-14 0.00000000e+00 2.59202681e-12 0.00000000e+00 2.53040334e-14
1.85896125e+01 2.62404591e-12 2.29244994e-14 0.00000000e+00 2.60112141e-12 0.00000000e+00 2.29244994e-14
1.92117518e+01 2.62113444e-12 2.07687314e-14 0.00000000e+00 2.60036570e-12 0.00000000e+00 2.07687314e-14
1.98547123e+01 2.59914417e-12 1.88156870e-14 0.00000000e+00 2.58032849e-12 0.00000000e+00 1.88156870e-14
2.05191907e+01 2.59005928e-12 1.70463024e-14 0.00000000e+00 2.57301298e-12 0.00000000e+00 1.70463024e-14
2.12059073e+01 2.56226584e-12 1.54433068e-14 0.00000000e+00 2.54682254e-12 0.00000000e+00 1.54433068e-14
2.19156062e+01 2.53756572e-12 1.39910532e-14 0.00000000e+00 2.52357466e-12 0.00000000e+00 1.39910532e-14
2.26490567e+01 2.51893849e-12 1.26753663e-14 0.00000000e+00 2.50626313e-12 0.00000000e+00 1.26753663e-14
2.34070535e+01 2.50438261e-12 1.14834036e-14 0.00000000e+00 2.49289921e-12 0.00000000e+00 1.14834036e-14
2.41904183e+01 2.47976713e-12 1.04035303e-14 0.00000000e+00 2.46936360e-12 0.00000000e+00 1.04035303e-14
2.50000000e+01 2.46118336e-12 9.42520591e-15 0.00000000e+00 2.45175816e-12 0.00000000e+00 9.42520591e-15
2.75422870e+01 2.37786977e-12 7.04872996e-15 0.00000000e+00 2.37082104e-12 0.00000000e+00 7.04872996e-15
3.16227766e+01 2.17920313e-12 4.65704970e-15 0.00000000e+00 2.17454608e-12 0.00000000e+00 4.65704970e-15
3.63078055e+01 1.87916872e-12 3.07688223e-15 0.00000000e+00 1.87609183e-12 0.00000000e+00 3.07688223e-15
4.16869383e+01 1.51210779e-12 2.03287593e-15 0.00000000e+00 1.51007491e-12 0.00000000e+00 2.03287593e-15
4.78630092e+01 1.12285725e-12 1.34310781e-15 0.00000000e+00 1.12151414e-12 0.00000000e+00 1.34310781e-15
5.49540874e+01 7.82008756e-13 8.87382527e-16 0.00000000e+00 7.81121373e-13 0.00000000e+00 8.87382527e-16
6.30957344e+01 5.13777969e-13 5.86287821e-16 0.00000000e+00 5.13191681e-13 0.00000000e+00 5.86287821e-16
7.24435960e+01 3.22087605e-13 3.87356522e-16 0.00000000e+00 3.21700249e-13 0.00000000e+00 3.87356522e-16
8.31763771e+01 1.94554633e-13 2.55923916e-16 0.00000000e+00 1.94298709e-13 0.00000000e+00 2.55923916e-16
9.54992586e+01 1.14177898e-13 1.69087255e-16 0.00000000e+00 1.14008810e-13 0.00000000e+00 1.69087255e-16
1.09647820e+02 6.55311566e-14 1.11714841e-16 0.00000000e+00 6.54194417e-14 0.00000000e+00 1.11714841e-16
1.25892541e+02 3.73417297e-14 7.38092637e-17 0.00000000e+00 3.72679205e-14 0.00000000e+00 7.38092637e-17
1.44543977e+02 2.10474969e-14 4.87652969e-17 0.00000000e+00 2.09987316e-14 0.00000000e+00 4.87652969e-17
1.65958691e+02 1.12729474e-14 3.22189122e-17 0.00000000e+00 1.12407285e-14 0.00000000e+00 3.22189122e-17
1.90546072e+02 6.01955186e-15 2.12868242e-17 0.00000000e+00 5.99826503e-15 0.00000000e+00 2.12868242e-17
2.18776162e+02 3.19928404e-15 1.40640653e-17 0.00000000e+00 3.18521998e-15 0.00000000e+00 1.40640653e-17
2.51188643e+02 1.69048666e-15 9.29203577e-18 0.00000000e+00 1.68119463e-15 0.00000000e+00 9.29203577e-18
2.88403150e+02 8.87430800e-16 6.13918715e-18 0.00000000e+00 8.81291613e-16 0.00000000e+00 6.13918715e-18
3.31131121e+02 4.63913336e-16 4.05612073e-18 0.00000000e+00 4.59857215e-16 0.00000000e+00 4.05612073e-18
3.80189396e+02 2.41347858e-16 2.67985239e-18 0.00000000e+00 2.38668006e-16 0.00000000e+00 2.67985239e-18
4.36515832e+02 1.25173085e-16 1.77056092e-18 0.00000000e+00 1.23402524e-16 0.00000000e+00 1.77056092e-18
5.01187234e+02 6.47277436e-17 1.16979800e-18 0.00000000e+00 6.35579456e-17 0.00000000e+00 1.16979800e-18
5.75439937e+02 3.34036778e-17 7.72877871e-19 0.00000000e+00 3.26308000e-17 0.00000000e+00 7.72877871e-19
6.60693448e+02 1.72176288e-17 5.10635346e-19 0.00000000e+00 1.67069934e-17 0.00000000e+00 5.10635346e-19
7.58577575e+02 8.87085428e-18 3.37373427e-19 0.00000000e+00 8.53348085e-18 0.00000000e+00 3.37373427e-19
8.70963590e+02 4.57156586e-18 2.22900413e-19 0.00000000e+00 4.34866545e-18 0.00000000e+00 2.22900413e-19
1.00000000e+03 2.21137770e-18 0.00000000e+00 0.00000000e+00 2.21137770e-18 0.00000000e+00 0.00000000e+00
