# column 1: lambda (micron)
# column 2: total flux; lambda*F_lambda (W/m2)
# column 3: direct stellar flux; lambda*F_lambda (W/m2)
# column 4: scattered stellar flux; lambda*F_lambda (W/m2)
# column 5: total dust emission flux; lambda*F_lambda (W/m2)
# column 6: dust emission scattered flux; lambda*F_lambda (W/m2)
# column 7: transparent flux; lambda*F_lambda (W/m2)
1.00000000e-03 6.93993823e-13 6.93993746e-13 7.74158075e-20 0.00000000e+00 0.00000000e+00 6.93993746e-13
1.14815362e-03 8.19135254e-13 8.19135139e-13 1.14848866e-19 0.00000000e+00 0.00000000e+00 8.19135139e-13
1.31825674e-03 9.66842297e-13 9.66842108e-13 1.88952439e-19 0.00000000e+00 0.00000000e+00 9.66842108e-13
1.51356125e-03 1.14118403e-12 1.14118369e-12 3.38670734e-19 0.00000000e+00 0.00000000e+00 1.14118369e-12
1.73780083e-03 1.34696319e-12 1.34696266e-12 5.29727029e-19 0.00000000e+00 0.00000000e+00 1.34696266e-12
1.99526231e-03 1.58984878e-12 1.58984782e-12 9.56747811e-19 0.00000000e+00 0.00000000e+00 1.58984782e-12
2.29086765e-03 1.87653164e-12 1.87653019e-12 1.44526399e-18 0.00000000e+00 0.00000000e+00 1.87653019e-12
2.63026799e-03 2.21491033e-12 2.21490731e-12 3.01537713e-18 0.00000000e+00 0.00000000e+00 2.21490731e-12
3.01995172e-03 2.61430632e-12 2.61430080e-12 5.51637245e-18 0.00000000e+00 0.00000000e+00 2.61430080e-12
3.46736850e-03 3.08572202e-12 3.08571319e-12 8.83226490e-18 0.00000000e+00 0.00000000e+00 3.08571319e-12
3.98107171e-03 3.64214514e-12 3.64213095e-12 1.41911272e-17 0.00000000e+00 0.00000000e+00 3.64213095e-12
4.57088190e-03 4.29891627e-12 4.29888232e-12 3.39478952e-17 0.00000000e+00 0.00000000e+00 4.29888232e-12
5.24807460e-03 5.07411737e-12 5.07405951e-12 5.78590267e-17 0.00000000e+00 0.00000000e+00 5.07405951e-12
6.02559586e-03 5.98912610e-12 5.98901715e-12 1.08954141e-16 0.00000000e+00 0.00000000e+00 5.98901715e-12
6.91830971e-03 7.06912810e-12 7.06896053e-12 1.67572750e-16 0.00000000e+00 0.00000000e+00 7.06896053e-12
7.94328235e-03 8.34393113e-12 8.34363998e-12 2.91151050e-16 0.00000000e+00 0.00000000e+00 8.34363998e-12
9.12010839e-03 9.84863963e-12 9.84817045e-12 4.69180700e-16 0.00000000e+00 0.00000000e+00 9.84817045e-12
1.04712855e-02 1.09996982e-11 1.09990604e-11 6.37730122e-16 0.00000000e+00 0.00000000e+00 1.09990604e-11
1.20226443e-02 1.10000031e-11 1.09990604e-11 9.42630720e-16 0.00000000e+00 0.00000000e+00 1.09990604e-11
1.38038426e-02 1.10003829e-11 1.09990604e-11 1.32245903e-15 2.24107411e-290 9.60516833e-293 1.09990604e-11
1.58489319e-02 1.10007953e-11 1.09990604e-11 1.73483458e-15 1.14366953e-253 6.55961571e-256 1.09990604e-11
1.81970086e-02 1.10034281e-11 1.09990604e-11 4.36767738e-15 1.01185273e-221 6.21184764e-224 1.09990604e-11
2.08929613e-02 1.10027765e-11 1.09990604e-11 3.71609104e-15 6.04035142e-194 4.78294600e-196 1.09990604e-11
2.39883292e-02 1.10043330e-11 1.09990604e-11 5.27260514e-15 9.06593507e-170 8.61561475e-172 1.09990604e-11
2.75422870e-02 1.10052641e-11 1.09990604e-11 6.20365176e-15 9.93740825e-149 1.15756383e-150 1.09990604e-11
3.16227766e-02 1.10072605e-11 1.09990604e-11 8.20007765e-15 1.96527137e-130 2.80782476e-132 1.09990604e-11
3.63078055e-02 1.10090033e-11 1.09990604e-11 9.94281942e-15 1.57839140e-114 2.60019472e-116 1.09990604e-11
4.16869383e-02 1.10134064e-11 1.09990604e-11 1.43459500e-14 1.05080337e-100 2.28935343e-102 1.09990604e-11
4.78630092e-02 1.10190021e-11 1.09990604e-11 1.99416294e-14 1.07292927e-88 3.14622657e-90 1.09990604e-11
5.49540874e-02 1.10236174e-11 1.09990604e-11 2.45569845e-14 2.87553585e-78 1.06810447e-79 1.09990604e-11
6.30957344e-02 1.10292860e-11 1.09990604e-11 3.02255141e-14 4.29765910e-69 1.94669583e-70 1.09990604e-11
7.24435960e-02 1.10295886e-11 1.09990604e-11 3.05281930e-14 3.88162960e-61 1.82568458e-62 1.09990604e-11
8.31763771e-02 1.10295691e-11 1.09990604e-11 3.05086855e-14 2.39622724e-54 1.11998111e-55 1.09990604e-11
9.54992586e-02 1.10317205e-11 1.09990604e-11 3.26600854e-14 1.78234728e-48 8.54055487e-50 1.09990604e-11
1.09647820e-01 1.05361546e-11 1.05040253e-11 3.21293212e-14 1.94053164e-43 9.49278965e-45 1.05040253e-11
1.25892541e-01 9.82950305e-12 9.80292679e-12 2.65762519e-14 4.31100239e-39 1.93047678e-40 9.80292679e-12
1.44543977e-01 9.17291433e-12 9.14862359e-12 2.42907402e-14 2.33781638e-35 9.77559746e-37 9.14862359e-12
1.65958691e-01 8.56296825e-12 8.53799231e-12 2.49759358e-14 2.93874570e-32 1.35021724e-33 8.53799231e-12
1.90546072e-01 7.99771510e-12 7.96811805e-12 2.95970501e-14 1.02153272e-29 5.67127462e-31 7.96811805e-12
2.18776162e-01 7.46569523e-12 7.43628044e-12 2.94147918e-14 1.41293245e-27 8.51985048e-29 7.43628044e-12
2.51188643e-01 6.97277114e-12 6.93994070e-12 3.28304395e-14 1.48775307e-25 1.06260315e-26 6.93994070e-12
2.88403150e-01 6.50670150e-12 6.47672950e-12 2.99719997e-14 8.53843915e-24 5.88376468e-25 6.47672950e-12
3.31131121e-01 6.06986620e-12 6.04443567e-12 2.54305302e-14 2.81536231e-22 1.88735557e-23 6.04443567e-12
3.80189396e-01 5.66526863e-12 5.64099558e-12 2.42730419e-14 5.85262609e-21 3.88827922e-22 5.64099558e-12
4.36515832e-01 5.28613379e-12 5.26448339e-12 2.16503200e-14 8.21018892e-20 5.71558827e-21 5.26448339e-12
5.01187234e-01 4.93416644e-12 4.91310176e-12 2.10638625e-14 8.11519069e-19 5.92998863e-20 4.91310176e-12
5.75439937e-01 4.60273147e-12 4.58517335e-12 1.75521769e-14 5.94225303e-18 4.81759447e-19 4.58517335e-12
6.60693448e-01 4.29583976e-12 4.27913275e-12 1.66738123e-14 3.31956734e-17 2.93868937e-18 4.27913275e-12
7.58577575e-01 4.00907013e-12 3.99351904e-12 1.54025156e-14 1.48574483e-16 1.39231379e-17 3.99351904e-12
8.70963590e-01 3.74124672e-12 3.72696882e-12 1.37282279e-14 5.49674029e-16 5.46432463e-17 3.72696882e-12
1.00000000e+00 3.49156647e-12 3.47820968e-12 1.16406993e-14 1.71609023e-15 1.72493730e-16 3.47820968e-12
1.14815362e+00 3.26030663e-12 3.24605414e-12 9.54402317e-15 4.70846768e-15 4.57818512e-16 3.24605414e-12
1.31825674e+00 3.04842249e-12 3.02939399e-12 7.58105411e-15 1.14474488e-14 1.02550494e-15 3.02939399e-12
1.51356125e+00 2.85757218e-12 2.82719497e-12 5.86102872e-15 2.45161852e-14 1.95852476e-15 2.82719497e-12
1.73780083e+00 2.68905732e-12 2.63849186e-12 4.62599842e-15 4.59394611e-14 3.05436235e-15 2.63849186e-12
1.99526231e+00 2.54148055e-12 2.46238388e-12 3.49992500e-15 7.55967489e-14 3.98085270e-15 2.46238388e-12
2.29086765e+00 2.41111881e-12 2.29803035e-12 2.44250551e-15 1.10645958e-13 4.38364829e-15 2.29803035e-12
2.63026799e+00 2.29319287e-12 2.14464670e-12 1.65322572e-15 1.46892936e-13 4.26560260e-15 2.14464670e-12
3.01995172e+00 2.18291059e-12 2.00150076e-12 1.15600038e-15 1.80253830e-13 3.78399030e-15 2.00150076e-12
3.46736850e+00 2.07545271e-12 1.86790919e-12 7.63912431e-16 2.06779604e-13 3.11628915e-15 1.86790919e-12
3.98107171e+00 1.96698211e-12 1.74323429e-12 5.11147695e-16 2.23236670e-13 2.37025720e-15 1.74323429e-12
4.57088190e+00 1.85795928e-12 1.62688090e-12 3.12766331e-16 2.30765615e-13 1.69856936e-15 1.62688090e-12
5.24807460e+00 1.57503018e-12 1.34518114e-12 1.85255515e-16 2.29663785e-13 1.15277467e-15 1.34518114e-12
6.02559586e+00 1.11119871e-12 8.88752369e-13 7.51076386e-17 2.22371234e-13 7.21562076e-16 8.88752369e-13
6.70000000e+00 8.59519413e-13 6.46481889e-13 4.12015146e-17 2.12996322e-13 4.77742321e-16 6.46481889e-13
6.92422916e+00 7.95355290e-13 5.85688198e-13 3.33421525e-17 2.09633750e-13 4.15445343e-16 5.85688198e-13
7.15596261e+00 7.38438950e-13 5.30611407e-13 2.58620531e-17 2.07801681e-13 3.57854040e-16 5.30611407e-13
7.39545150e+00 6.90396829e-13 4.80713913e-13 1.90703170e-17 2.09663846e-13 3.05783956e-16 4.80713913e-13
7.64295536e+00 6.59925343e-13 4.35508666e-13 1.38686231e-17 2.24402808e-13 2.54426105e-16 4.35508666e-13
7.89874245e+00 6.52869692e-13 3.94554418e-13 8.50771272e-18 2.58306766e-13 2.03220482e-16 3.94554418e-13
8.16308998e+00 6.67265366e-13 3.57451415e-13 4.95734672e-18 3.09808994e-13 1.64406862e-16 3.57451415e-13
8.43628443e+00 7.08790183e-13 3.23837494e-13 2.83086371e-18 3.84949858e-13 1.25512808e-16 3.23837494e-13
8.71862190e+00 7.35994555e-13 2.93384550e-13 1.80227304e-18 4.42608202e-13 9.98627137e-17 2.93384550e-13
9.01040836e+00 7.72189760e-13 2.65795332e-13 1.15310536e-18 5.06393275e-13 7.47186317e-17 2.65795332e-13
9.31196005e+00 8.00656718e-13 2.40800541e-13 0.00000000e+00 5.59856176e-13 0.00000000e+00 2.40800541e-13
9.62360379e+00 7.83711270e-13 2.18156204e-13 0.00000000e+00 5.65555066e-13 0.00000000e+00 2.18156204e-13
9.94567731e+00 7.33182933e-13 1.97641289e-13 0.00000000e+00 5.35541644e-13 0.00000000e+00 1.97641289e-13
1.02785297e+01 6.70418479e-13 1.79055550e-13 0.00000000e+00 4.91362929e-13 0.00000000e+00 1.79055550e-13
1.06225216e+01 6.11997960e-13 1.62217572e-13 0.00000000e+00 4.49780388e-13 0.00000000e+00 1.62217572e-13
1.09780260e+01 5.48933577e-13 1.46962999e-13 0.00000000e+00 4.01970578e-13 0.00000000e+00 1.46962999e-13
1.13454280e+01 4.93402232e-13 1.33142932e-13 0.00000000e+00 3.60259300e-13 0.00000000e+00 1.33142932e-13
1.17251259e+01 4.44446294e-13 1.20622472e-13 0.00000000e+00 3.23823822e-13 0.00000000e+00 1.20622472e-13
1.21175312e+01 4.01089677e-13 1.09279408e-13 0.00000000e+00 2.91810268e-13 0.00000000e+00 1.09279408e-13
1.25230691e+01 3.61863434e-13 9.90030204e-14 0.00000000e+00 2.62860414e-13 0.00000000e+00 9.90030204e-14
1.29421791e+01 3.27723437e-13 8.96930008e-14 0.00000000e+00 2.38030436e-13 0.00000000e+00 8.96930008e-14
1.33753155e+01 2.98290366e-13 8.12584743e-14 0.00000000e+00 2.17031892e-13 0.00000000e+00 8.12584743e-14
1.38229477e+01 2.78101737e-13 7.36171115e-14 0.00000000e+00 2.04484625e-13 0.00000000e+00 7.36171115e-14
1.42855609e+01 2.64637135e-13 6.66943252e-14 0.00000000e+00 1.97942810e-13 0.00000000e+00 6.66943252e-14
1.47636563e+01 2.63432973e-13 6.04225420e-14 0.00000000e+00 2.03010431e-13 0.00000000e+00 6.04225420e-14
1.52577522e+01 2.65180015e-13 5.47405431e-14 0.00000000e+00 2.10439472e-13 0.00000000e+00 5.47405431e-14
1.57683840e+01 2.70148664e-13 4.95928665e-14 0.00000000e+00 2.20555798e-13 0.00000000e+00 4.95928665e-14
1.62961051e+01 2.75962959e-13 4.49292657e-14 0.00000000e+00 2.31033694e-13 0.00000000e+00 4.49292657e-14
1.68414875e+01 2.82712778e-13 4.07042194e-14 0.00000000e+00 2.42008559e-13 0.00000000e+00 4.07042194e-14
1.74051222e+01 2.85957395e-13 3.68764869e-14 0.00000000e+00 2.49080908e-13 0.00000000e+00 3.68764869e-14
1.79876201e+01 2.86507943e-13 3.34087056e-14 0.00000000e+00 2.53099237e-13 0.00000000e+00 3.34087056e-14
1.85896125e+01 2.84260906e-13 3.02670267e-14 0.00000000e+00 2.53993880e-13 0.00000000e+00 3.02670267e-14
1.92117518e+01 2.76431869e-13 2.74207841e-14 0.00000000e+00 2.49011085e-13 0.00000000e+00 2.74207841e-14
1.98547123e+01 2.66084377e-13 2.48421957e-14 0.00000000e+00 2.41242181e-13 0.00000000e+00 2.48421957e-14
2.05191907e+01 2.54382407e-13 2.25060919e-14 0.00000000e+00 2.31876315e-13 0.00000000e+00 2.25060919e-14
2.12059073e+01 2.43806912e-13 2.03896700e-14 0.00000000e+00 2.23417242e-13 0.00000000e+00 2.03896700e-14
2.19156062e+01 2.35138033e-13 1.84722717e-14 0.00000000e+00 2.16665761e-13 0.00000000e+00 1.84722717e-14
2.26490567e+01 2.26228968e-13 1.67351811e-14 0.00000000e+00 2.09493787e-13 0.00000000e+00 1.67351811e-14
2.34070535e+01 2.18586756e-13 1.51614426e-14 0.00000000e+00 2.03425313e-13 0.00000000e+00 1.51614426e-14
2.41904183e+01 2.11591755e-13 1.37356949e-14 0.00000000e+00 1.97856060e-13 0.00000000e+00 1.37356949e-14
2.50000000e+01 2.05162891e-13 1.24440213e-14 0.00000000e+00 1.92718869e-13 0.00000000e+00 1.24440213e-14
2.75422870e+01 1.87694053e-13 9.30637977e-15 0.00000000e+00 1.78387673e-13 0.00000000e+00 9.30637977e-15
3.16227766e+01 1.65307030e-13 6.14866414e-15 0.00000000e+00 1.59158366e-13 0.00000000e+00 6.14866414e-15
3.63078055e+01 1.41957911e-13 4.06238211e-15 0.00000000e+00 1.37895529e-13 0.00000000e+00 4.06238211e-15
4.16869383e+01 1.16786502e-13 2.68398924e-15 0.00000000e+00 1.14102513e-13 0.00000000e+00 2.68398924e-15
4.78630092e+01 9.14491668e-14 1.77329411e-15 0.00000000e+00 8.96758727e-14 0.00000000e+00 1.77329411e-15
5.49540874e+01 6.83874650e-14 1.17160380e-15 0.00000000e+00 6.72158612e-14 0.00000000e+00 1.17160380e-15
6.30957344e+01 4.88619825e-14 7.74070953e-16 0.00000000e+00 4.80879116e-14 0.00000000e+00 7.74070953e-16
7.24435960e+01 3.34981802e-14 5.11423607e-16 0.00000000e+00 3.29867566e-14 0.00000000e+00 5.11423607e-16
8.31763771e+01 2.21240730e-14 3.37894226e-16 0.00000000e+00 2.17861788e-14 0.00000000e+00 3.37894226e-16
9.54992586e+01 1.41396340e-14 2.23244502e-16 0.00000000e+00 1.39163895e-14 0.00000000e+00 2.23244502e-16
1.09647820e+02 8.78023874e-15 1.47496179e-16 0.00000000e+00 8.63274256e-15 0.00000000e+00 1.47496179e-16
1.25892541e+02 5.36951234e-15 9.74497594e-17 0.00000000e+00 5.27206258e-15 0.00000000e+00 9.74497594e-17
1.44543977e+02 3.22268543e-15 6.43844175e-17 0.00000000e+00 3.15830101e-15 0.00000000e+00 6.43844175e-17
1.65958691e+02 1.82918925e-15 4.25383628e-17 0.00000000e+00 1.78665089e-15 0.00000000e+00 4.25383628e-17
1.90546072e+02 1.02806957e-15 2.81048176e-17 0.00000000e+00 9.99964752e-16 0.00000000e+00 2.81048176e-17
2.18776162e+02 5.71943612e-16 1.85686688e-17 0.00000000e+00 5.53374943e-16 0.00000000e+00 1.85686688e-17
2.51188643e+02 3.14933185e-16 1.22681978e-17 0.00000000e+00 3.02664987e-16 0.00000000e+00 1.22681978e-17
2.88403150e+02 1.71686560e-16 8.10551794e-18 0.00000000e+00 1.63581042e-16 0.00000000e+00 8.10551794e-18
3.31131121e+02 9.29963533e-17 5.35526259e-18 0.00000000e+00 8.76410907e-17 0.00000000e+00 5.35526259e-18
3.80189396e+02 5.00690693e-17 3.53818691e-18 0.00000000e+00 4.65308823e-17 0.00000000e+00 3.53818691e-18
4.36515832e+02 2.68702131e-17 2.33765691e-18 0.00000000e+00 2.45325562e-17 0.00000000e+00 2.33765691e-18
5.01187234e+02 1.43943534e-17 1.54447460e-18 0.00000000e+00 1.28498788e-17 0.00000000e+00 1.54447460e-18
5.75439937e+02 7.71396100e-18 1.02042425e-18 0.00000000e+00 6.69353675e-18 0.00000000e+00 1.02042425e-18
6.60693448e+02 4.14442317e-18 6.74187617e-19 0.00000000e+00 3.47023555e-18 0.00000000e+00 6.74187617e-19
7.58577575e+02 2.23718443e-18 4.45431341e-19 0.00000000e+00 1.79175309e-18 0.00000000e+00 4.45431341e-19
8.70963590e+02 1.21591566e-18 2.94293569e-19 0.00000000e+00 9.21622095e-19 0.00000000e+00 2.94293569e-19
1.00000000e+03 4.72454053e-19 0.00000000e+00 0.00000000e+00 4.72454053e-19 0.00000000e+00 0.00000000e+00
