# column 1: lambda (micron)
# column 2: total flux; lambda*F_lambda (W/m2)
# column 3: direct stellar flux; lambda*F_lambda (W/m2)
# column 4: scattered stellar flux; lambda*F_lambda (W/m2)
# column 5: total dust emission flux; lambda*F_lambda (W/m2)
# column 6: dust emission scattered flux; lambda*F_lambda (W/m2)
# column 7: transparent flux; lambda*F_lambda (W/m2)
1.00000000e-03 1.07239262e-12 1.07237715e-12 1.54694524e-17 0.00000000e+00 0.00000000e+00 1.07335627e-12
1.14815362e-03 1.26539253e-12 1.26537795e-12 1.45708782e-17 0.00000000e+00 0.00000000e+00 1.26690456e-12
1.31825674e-03 1.49308729e-12 1.49306303e-12 2.42604790e-17 0.00000000e+00 0.00000000e+00 1.49535359e-12
1.51356125e-03 1.76183548e-12 1.76180968e-12 2.58023788e-17 0.00000000e+00 0.00000000e+00 1.76499670e-12
1.73780083e-03 2.07951004e-12 2.07946148e-12 4.85634735e-17 0.00000000e+00 0.00000000e+00 2.08326203e-12
1.99526231e-03 2.45356709e-12 2.45297143e-12 5.95662442e-16 0.00000000e+00 0.00000000e+00 2.45891716e-12
2.29086765e-03 2.89704992e-12 2.89486929e-12 2.18062500e-15 0.00000000e+00 0.00000000e+00 2.90231066e-12
2.63026799e-03 3.41663834e-12 3.41513444e-12 1.50389434e-15 0.00000000e+00 0.00000000e+00 3.42565717e-12
3.01995172e-03 4.02888390e-12 4.02801835e-12 8.65542685e-16 0.00000000e+00 0.00000000e+00 4.04337385e-12
3.46736850e-03 4.75215445e-12 4.75112215e-12 1.03229777e-15 0.00000000e+00 0.00000000e+00 4.77247759e-12
3.98107171e-03 5.60988322e-12 5.60421048e-12 5.67274130e-15 0.00000000e+00 0.00000000e+00 5.63305378e-12
4.57088190e-03 6.76536951e-12 6.62608106e-12 1.39288456e-13 0.00000000e+00 0.00000000e+00 6.64880962e-12
5.24807460e-03 7.81885395e-12 7.81347900e-12 5.37494611e-15 0.00000000e+00 0.00000000e+00 7.84772720e-12
6.02559586e-03 9.22698394e-12 9.21411527e-12 1.28686785e-14 0.00000000e+00 0.00000000e+00 9.26283435e-12
6.91830971e-03 1.09643809e-11 1.08667740e-11 9.76068818e-14 0.00000000e+00 0.00000000e+00 1.09331145e-11
7.94328235e-03 1.28531664e-11 1.28172517e-11 3.59147018e-14 2.14881477e-303 1.19767180e-305 1.29045807e-11
9.12010839e-03 1.52083079e-11 1.51172020e-11 9.11058976e-14 1.12639921e-264 9.80753371e-267 1.52315429e-11
1.04712855e-02 1.69476560e-11 1.68757260e-11 7.19299970e-14 5.55255333e-231 5.31868800e-233 1.70115517e-11
1.20226443e-02 1.69770630e-11 1.68677438e-11 1.09319169e-13 9.95449729e-202 1.17496402e-203 1.70115517e-11
1.38038426e-02 1.69757786e-11 1.68582809e-11 1.17497682e-13 3.04572559e-176 3.78379802e-178 1.70115517e-11
1.58489319e-02 1.70085530e-11 1.68466591e-11 1.61893903e-13 4.57595905e-154 7.90839192e-156 1.70115517e-11
1.81970086e-02 1.70033141e-11 1.68359471e-11 1.67366993e-13 8.97422703e-135 2.24291464e-136 1.70115517e-11
2.08929613e-02 1.70342483e-11 1.68270483e-11 2.07200046e-13 5.07508852e-118 1.47289170e-119 1.70115517e-11
2.39883292e-02 1.70697450e-11 1.68155255e-11 2.54219506e-13 1.91345499e-103 6.89933503e-105 1.70115517e-11
2.75422870e-02 1.71090404e-11 1.68021323e-11 3.06908109e-13 9.10765934e-91 3.78671484e-92 1.70115517e-11
3.16227766e-02 1.71303692e-11 1.67890145e-11 3.41354688e-13 9.37085358e-80 4.41838283e-81 1.70115517e-11
3.63078055e-02 1.71596323e-11 1.67787327e-11 3.80899588e-13 3.40591984e-70 1.77328893e-71 1.70115517e-11
4.16869383e-02 1.72484536e-11 1.67698448e-11 4.78608850e-13 6.77986069e-62 4.32222968e-63 1.70115517e-11
4.78630092e-02 1.72992228e-11 1.67453698e-11 5.53852943e-13 1.06840764e-54 8.34596885e-56 1.70115517e-11
5.49540874e-02 1.73080452e-11 1.67113922e-11 5.96653083e-13 1.83187945e-48 1.57938928e-49 1.70115517e-11
6.30957344e-02 1.72064813e-11 1.66264960e-11 5.79985298e-13 6.03376842e-43 5.36278625e-44 1.70115517e-11
7.24435960e-02 1.70241112e-11 1.65264932e-11 4.97617965e-13 3.52074621e-38 2.73083892e-39 1.70115517e-11
8.31763771e-02 1.70146656e-11 1.65353676e-11 4.79298019e-13 3.67198458e-34 2.79315626e-35 1.70115517e-11
9.54992586e-02 1.70524939e-11 1.65614230e-11 4.91070816e-13 1.05478797e-30 8.35801474e-32 1.70115517e-11
1.09647820e-01 1.64239066e-11 1.58879900e-11 5.35916622e-13 9.17059538e-28 8.20175606e-29 1.62459122e-11
1.25892541e-01 1.54238854e-11 1.48860671e-11 5.37818283e-13 3.03166473e-25 2.83433216e-26 1.51615674e-11
1.44543977e-01 1.44480724e-11 1.39361563e-11 5.11916014e-13 4.19076162e-23 3.95660062e-24 1.41495980e-11
1.65958691e-01 1.35547844e-11 1.30308012e-11 5.23983198e-13 2.16185969e-21 2.30170821e-22 1.32051732e-11
1.90546072e-01 1.26842590e-11 1.21502495e-11 5.34009461e-13 4.61452312e-20 5.59433145e-21 1.23237846e-11
2.18776162e-01 1.17857660e-11 1.13114824e-11 4.74283072e-13 5.45151981e-19 6.37835188e-20 1.15012250e-11
2.51188643e-01 1.11397512e-11 1.05917158e-11 5.48028643e-13 6.80098496e-18 1.01323322e-18 1.07335677e-11
2.88403150e-01 1.04365917e-11 9.90711393e-12 5.29420327e-13 5.74327172e-17 8.88633208e-18 1.00171482e-11
3.31131121e-01 9.76113365e-12 9.25896622e-12 5.01835764e-13 3.31661513e-16 5.12806632e-17 9.34854667e-12
3.80189396e-01 9.13215469e-12 8.65111362e-12 4.79649748e-13 1.39132533e-15 2.15149174e-16 8.72457139e-12
4.36515832e-01 8.53350101e-12 8.08254687e-12 4.46530732e-13 4.42341280e-15 6.81822756e-16 8.14224377e-12
5.01187234e-01 7.97831652e-12 7.55092784e-12 4.16245667e-13 1.11430079e-14 1.74012335e-15 7.59878402e-12
5.75439937e-01 7.45834149e-12 7.05363103e-12 3.81262904e-13 2.34475483e-14 3.77268801e-15 7.09159786e-12
6.60693448e-01 6.98033344e-12 6.58840505e-12 3.48199856e-13 4.37285375e-14 7.64960109e-15 6.61826421e-12
7.58577575e-01 6.54398252e-12 6.15332700e-12 3.11733450e-13 7.89220755e-14 1.60458752e-14 6.17652353e-12
8.70963590e-01 6.17443618e-12 5.74664625e-12 2.77617669e-13 1.50172258e-13 3.61294187e-14 5.76426715e-12
1.00000000e+00 5.90640253e-12 5.36635840e-12 2.37406092e-13 3.02638032e-13 8.01796730e-14 5.37952711e-12
1.14815362e+00 5.83376807e-12 5.01080062e-12 1.98503342e-13 6.24464103e-13 1.64239630e-13 5.02046681e-12
1.31825674e+00 6.08354889e-12 4.67840055e-12 1.58391525e-13 1.24675681e-12 2.97028197e-13 4.68537225e-12
1.51356125e+00 6.82116202e-12 4.36766649e-12 1.25289827e-13 2.32820571e-12 4.84182837e-13 4.37264380e-12
1.73780083e+00 8.08237309e-12 4.07729306e-12 1.01184346e-13 3.90389568e-12 6.79039847e-13 4.08078863e-12
1.99526231e+00 9.78104107e-12 3.80599718e-12 7.74777521e-14 5.89756614e-12 8.39645794e-13 3.80841354e-12
2.29086765e+00 1.18049370e-11 3.55255320e-12 5.88660980e-14 8.19351767e-12 9.27011081e-13 3.55421832e-12
2.63026799e+00 1.37338104e-11 3.31583137e-12 4.30465469e-14 1.03749325e-11 9.30417265e-13 3.31698953e-12
3.01995172e+00 1.54104102e-11 3.09477885e-12 3.07321315e-14 1.22848992e-11 8.47994887e-13 3.09559474e-12
3.46736850e+00 1.66975773e-11 2.88839295e-12 2.13146553e-14 1.37878697e-11 7.12816460e-13 2.88897711e-12
3.98107171e+00 1.74014789e-11 2.69572673e-12 1.40984651e-14 1.46916537e-11 5.43467704e-13 2.69615031e-12
4.57088190e+00 1.76130786e-11 2.51588254e-12 9.06814930e-15 1.50881279e-11 3.76747553e-13 2.51619387e-12
5.24807460e+00 1.70257089e-11 2.08029987e-12 4.98895955e-15 1.49404201e-11 2.40934153e-13 2.08050667e-12
6.02559586e+00 1.57762663e-11 1.37446358e-12 2.10065991e-15 1.43997021e-11 1.43099840e-13 1.37457712e-12
6.70000000e+00 1.47333752e-11 9.99799582e-13 1.04718914e-15 1.37325285e-11 9.08678978e-14 9.99872685e-13
6.92422916e+00 1.43791896e-11 9.05783016e-13 8.32427878e-16 1.34725742e-11 7.79849198e-14 9.05846924e-13
7.15596261e+00 1.41475134e-11 8.20606246e-13 6.52727715e-16 1.33262545e-11 6.65901276e-14 8.20663132e-13
7.39545150e+00 1.40769579e-11 7.43437064e-13 5.03569952e-16 1.33330172e-11 5.64334739e-14 7.43489831e-13
7.64295536e+00 1.45955522e-11 6.73519265e-13 3.59895626e-16 1.39216731e-11 4.79955814e-14 6.73573732e-13
7.89874245e+00 1.57818965e-11 6.10168630e-13 2.31463599e-16 1.51714964e-11 3.96699101e-14 6.10232385e-13
8.16308998e+00 1.73327434e-11 5.52769524e-13 1.40269777e-16 1.67798336e-11 3.20478858e-14 5.52847515e-13
8.43628443e+00 1.90152029e-11 5.00760826e-13 7.61799182e-17 1.85143659e-11 2.43170855e-14 5.00858987e-13
8.71862190e+00 1.98381631e-11 4.53650074e-13 4.45392956e-17 1.93844685e-11 1.84802270e-14 4.53759343e-13
9.01040836e+00 2.05574505e-11 4.10968923e-13 2.18509254e-17 2.01464597e-11 1.26328230e-14 4.11088843e-13
9.31196005e+00 2.09738113e-11 3.72304975e-13 0.00000000e+00 2.06015063e-11 0.00000000e+00 3.72430980e-13
9.62360379e+00 2.08254039e-11 3.37291252e-13 0.00000000e+00 2.04881126e-11 0.00000000e+00 3.37408415e-13
9.94567731e+00 2.02269358e-11 3.05579695e-13 0.00000000e+00 1.99213561e-11 0.00000000e+00 3.05679292e-13
1.02785297e+01 1.95467609e-11 2.76852275e-13 0.00000000e+00 1.92699086e-11 0.00000000e+00 2.76933904e-13
1.06225216e+01 1.87582095e-11 2.50825482e-13 0.00000000e+00 1.85073841e-11 0.00000000e+00 2.50891667e-13
1.09780260e+01 1.77147179e-11 2.27246655e-13 0.00000000e+00 1.74874712e-11 0.00000000e+00 2.27298384e-13
1.13454280e+01 1.67438429e-11 2.05883167e-13 0.00000000e+00 1.65379597e-11 0.00000000e+00 2.05923759e-13
1.17251259e+01 1.58214371e-11 1.86527098e-13 0.00000000e+00 1.56349100e-11 0.00000000e+00 1.86559155e-13
1.21175312e+01 1.47938418e-11 1.68990368e-13 0.00000000e+00 1.46248514e-11 0.00000000e+00 1.69015555e-13
1.25230691e+01 1.37562685e-11 1.53101980e-13 0.00000000e+00 1.36031665e-11 0.00000000e+00 1.53121715e-13
1.29421791e+01 1.28384710e-11 1.38706924e-13 0.00000000e+00 1.26997641e-11 0.00000000e+00 1.38722496e-13
1.33753155e+01 1.19572746e-11 1.25664972e-13 0.00000000e+00 1.18316097e-11 0.00000000e+00 1.25677347e-13
1.38229477e+01 1.12838858e-11 1.13848647e-13 0.00000000e+00 1.11700371e-11 0.00000000e+00 1.13858934e-13
1.42855609e+01 1.08868212e-11 1.03142957e-13 0.00000000e+00 1.07836782e-11 0.00000000e+00 1.03151898e-13
1.47636563e+01 1.09551385e-11 9.34432415e-14 0.00000000e+00 1.08616952e-11 0.00000000e+00 9.34517274e-14
1.52577522e+01 1.10946924e-11 8.46555394e-14 0.00000000e+00 1.10100368e-11 0.00000000e+00 8.46637387e-14
1.57683840e+01 1.13416869e-11 7.66941286e-14 0.00000000e+00 1.12649928e-11 0.00000000e+00 7.67021526e-14
1.62961051e+01 1.15459869e-11 6.94814129e-14 0.00000000e+00 1.14765055e-11 0.00000000e+00 6.94892560e-14
1.68414875e+01 1.17454103e-11 6.29469949e-14 0.00000000e+00 1.16824633e-11 0.00000000e+00 6.29546439e-14
1.74051222e+01 1.18135968e-11 5.70272682e-14 0.00000000e+00 1.17565695e-11 0.00000000e+00 5.70345319e-14
1.79876201e+01 1.17414436e-11 5.16643517e-14 0.00000000e+00 1.16897793e-11 0.00000000e+00 5.16711337e-14
1.85896125e+01 1.15416829e-11 4.68059611e-14 0.00000000e+00 1.14948769e-11 0.00000000e+00 4.68120974e-14
1.92117518e+01 1.11739521e-11 4.24046039e-14 0.00000000e+00 1.11315475e-11 0.00000000e+00 4.24099939e-14
1.98547123e+01 1.06856858e-11 3.84172122e-14 0.00000000e+00 1.06472685e-11 0.00000000e+00 3.84218542e-14
2.05191907e+01 1.01609407e-11 3.48047926e-14 0.00000000e+00 1.01261359e-11 0.00000000e+00 3.48087501e-14
2.12059073e+01 9.59840998e-12 3.15320407e-14 0.00000000e+00 9.56687794e-12 0.00000000e+00 3.15354141e-14
2.19156062e+01 9.11591120e-12 2.85670057e-14 0.00000000e+00 9.08734420e-12 0.00000000e+00 2.85698952e-14
2.26490567e+01 8.61132310e-12 2.58807680e-14 0.00000000e+00 8.58544233e-12 0.00000000e+00 2.58832470e-14
2.34070535e+01 8.14720989e-12 2.34471144e-14 0.00000000e+00 8.12376277e-12 0.00000000e+00 2.34492452e-14
2.41904183e+01 7.69925331e-12 2.12422952e-14 0.00000000e+00 7.67801101e-12 0.00000000e+00 2.12441313e-14
2.50000000e+01 7.27381047e-12 1.92447958e-14 0.00000000e+00 7.25456567e-12 0.00000000e+00 1.92463813e-14
2.75422870e+01 6.05672229e-12 1.43925555e-14 0.00000000e+00 6.04232973e-12 0.00000000e+00 1.43935895e-14
3.16227766e+01 4.51156218e-12 9.50918217e-15 0.00000000e+00 4.50205300e-12 0.00000000e+00 9.50975027e-15
3.63078055e+01 3.17893048e-12 6.28271921e-15 0.00000000e+00 3.17264776e-12 0.00000000e+00 6.28302969e-15
4.16869383e+01 2.10018466e-12 4.15099136e-15 0.00000000e+00 2.09603367e-12 0.00000000e+00 4.15115655e-15
4.78630092e+01 1.30149227e-12 2.74255677e-15 0.00000000e+00 1.29874972e-12 0.00000000e+00 2.74264194e-15
5.49540874e+01 7.67689424e-13 1.81200259e-15 0.00000000e+00 7.65877421e-13 0.00000000e+00 1.81204556e-15
6.30957344e+01 4.36063899e-13 1.19718522e-15 0.00000000e+00 4.34866714e-13 0.00000000e+00 1.19720663e-15
7.24435960e+01 2.40877714e-13 7.90975988e-16 0.00000000e+00 2.40086738e-13 0.00000000e+00 7.90986575e-16
8.31763771e+01 1.30637764e-13 5.22594420e-16 0.00000000e+00 1.30115169e-13 0.00000000e+00 5.22599647e-16
9.54992586e+01 7.00225751e-14 3.45275576e-16 0.00000000e+00 6.96772995e-14 0.00000000e+00 3.45278163e-16
1.09647820e+02 3.72452352e-14 2.28121735e-16 0.00000000e+00 3.70171134e-14 0.00000000e+00 2.28123020e-16
1.25892541e+02 1.99419722e-14 1.50718737e-16 0.00000000e+00 1.97912535e-14 0.00000000e+00 1.50719385e-16
1.44543977e+02 1.06744292e-14 9.95789809e-17 0.00000000e+00 1.05748503e-14 0.00000000e+00 9.95793099e-17
1.65958691e+02 5.46207682e-15 6.57912363e-17 0.00000000e+00 5.39628559e-15 0.00000000e+00 6.57913976e-17
1.90546072e+02 2.81058640e-15 4.34678655e-17 0.00000000e+00 2.76711854e-15 0.00000000e+00 4.34679453e-17
2.18776162e+02 1.44992086e-15 2.87189469e-17 0.00000000e+00 1.42120191e-15 0.00000000e+00 2.87189867e-17
2.51188643e+02 7.48264100e-16 1.89744264e-17 0.00000000e+00 7.29289674e-16 0.00000000e+00 1.89744463e-17
2.88403150e+02 3.85809300e-16 1.25362824e-17 0.00000000e+00 3.73273018e-16 0.00000000e+00 1.25362924e-17
3.31131121e+02 1.99146342e-16 8.28264125e-18 0.00000000e+00 1.90863701e-16 0.00000000e+00 8.28264623e-18
3.80189396e+02 1.02831899e-16 5.47228760e-18 0.00000000e+00 9.73596112e-17 0.00000000e+00 5.47229010e-18
4.36515832e+02 5.32163034e-17 3.61550496e-18 0.00000000e+00 4.96007984e-17 0.00000000e+00 3.61550621e-18
5.01187234e+02 2.76148610e-17 2.38874064e-18 0.00000000e+00 2.52261203e-17 0.00000000e+00 2.38874127e-18
5.75439937e+02 1.43902639e-17 1.57822539e-18 0.00000000e+00 1.28120385e-17 0.00000000e+00 1.57822570e-18
6.60693448e+02 7.54185964e-18 1.04272322e-18 0.00000000e+00 6.49913642e-18 0.00000000e+00 1.04272338e-18
7.58577575e+02 3.98219148e-18 6.88920427e-19 0.00000000e+00 3.29327106e-18 0.00000000e+00 6.88920507e-19
8.70963590e+02 2.12194878e-18 4.55165225e-19 0.00000000e+00 1.66678356e-18 0.00000000e+00 4.55165265e-19
1.00000000e+03 8.42598055e-19 0.00000000e+00 0.00000000e+00 8.42598055e-19 0.00000000e+00 0.00000000e+00
