# column 1: lambda (micron)
# column 2: total flux; lambda*F_lambda (W/m2)
# column 3: direct stellar flux; lambda*F_lambda (W/m2)
# column 4: scattered stellar flux; lambda*F_lambda (W/m2)
# column 5: total dust emission flux; lambda*F_lambda (W/m2)
# column 6: dust emission scattered flux; lambda*F_lambda (W/m2)
# column 7: transparent flux; lambda*F_lambda (W/m2)
1.00000000e-03 1.07336024e-12 1.07335627e-12 3.96480487e-18 0.00000000e+00 0.00000000e+00 1.07335627e-12
1.14815362e-03 1.26691031e-12 1.26690456e-12 5.75352576e-18 0.00000000e+00 0.00000000e+00 1.26690456e-12
1.31825674e-03 1.49536216e-12 1.49535359e-12 8.56719633e-18 0.00000000e+00 0.00000000e+00 1.49535359e-12
1.51356125e-03 1.76500994e-12 1.76499670e-12 1.32434469e-17 0.00000000e+00 0.00000000e+00 1.76499670e-12
1.73780083e-03 2.08328532e-12 2.08326203e-12 2.32898828e-17 0.00000000e+00 0.00000000e+00 2.08326203e-12
1.99526231e-03 2.45897293e-12 2.45891716e-12 5.57710881e-17 0.00000000e+00 0.00000000e+00 2.45891716e-12
2.29086765e-03 2.90287024e-12 2.90231066e-12 5.59572869e-16 0.00000000e+00 0.00000000e+00 2.90231066e-12
2.63026799e-03 3.42580965e-12 3.42565717e-12 1.52485252e-16 0.00000000e+00 0.00000000e+00 3.42565717e-12
3.01995172e-03 4.04418377e-12 4.04337385e-12 8.09919821e-16 0.00000000e+00 0.00000000e+00 4.04337385e-12
3.46736850e-03 4.77311948e-12 4.77247759e-12 6.41889555e-16 0.00000000e+00 0.00000000e+00 4.77247759e-12
3.98107171e-03 5.63527956e-12 5.63305378e-12 2.22577590e-15 0.00000000e+00 0.00000000e+00 5.63305378e-12
4.57088190e-03 6.65050850e-12 6.64880962e-12 1.69888232e-15 0.00000000e+00 0.00000000e+00 6.64880962e-12
5.24807460e-03 7.85093736e-12 7.84772720e-12 3.21015833e-15 0.00000000e+00 0.00000000e+00 7.84772720e-12
6.02559586e-03 9.27045501e-12 9.26283435e-12 7.62065254e-15 0.00000000e+00 0.00000000e+00 9.26283435e-12
6.91830971e-03 1.09435579e-11 1.09331145e-11 1.04433549e-14 0.00000000e+00 0.00000000e+00 1.09331145e-11
7.94328235e-03 1.29333662e-11 1.29045807e-11 2.87854967e-14 8.90778133e-304 3.57554474e-306 1.29045807e-11
9.12010839e-03 1.52697221e-11 1.52315429e-11 3.81792218e-14 4.32143819e-265 1.30050084e-267 1.52315429e-11
1.04712855e-02 1.70537840e-11 1.70115517e-11 4.22322924e-14 1.99939337e-231 8.78137230e-234 1.70115517e-11
1.20226443e-02 1.70774193e-11 1.70115517e-11 6.58675572e-14 3.39274926e-202 2.46040925e-204 1.70115517e-11
1.38038426e-02 1.70820828e-11 1.70115517e-11 7.05310839e-14 9.88544724e-177 7.30634196e-179 1.70115517e-11
1.58489319e-02 1.70974648e-11 1.70115517e-11 8.59130672e-14 1.42275678e-154 1.61182474e-156 1.70115517e-11
1.81970086e-02 1.71351256e-11 1.70115517e-11 1.23573923e-13 2.67510078e-135 3.63396776e-137 1.70115517e-11
2.08929613e-02 1.71578315e-11 1.70115517e-11 1.46279829e-13 1.46799062e-118 2.86243838e-120 1.70115517e-11
2.39883292e-02 1.71966511e-11 1.70115517e-11 1.85099340e-13 5.37121962e-104 1.29959390e-105 1.70115517e-11
2.75422870e-02 1.72508704e-11 1.70115517e-11 2.39318728e-13 2.49667971e-91 7.51144292e-93 1.70115517e-11
3.16227766e-02 1.72866883e-11 1.70115517e-11 2.75136613e-13 2.51442943e-80 8.84242273e-82 1.70115517e-11
3.63078055e-02 1.73197332e-11 1.70115517e-11 3.08181473e-13 8.97245832e-71 3.58199652e-72 1.70115517e-11
4.16869383e-02 1.73972895e-11 1.70115517e-11 3.85737752e-13 1.75922365e-62 9.21823695e-64 1.70115517e-11
4.78630092e-02 1.74673875e-11 1.70115517e-11 4.55835810e-13 2.72996033e-55 1.77379363e-56 1.70115517e-11
5.49540874e-02 1.74969021e-11 1.70115517e-11 4.85350403e-13 4.64064021e-49 3.50139321e-50 1.70115517e-11
6.30957344e-02 1.74799020e-11 1.70115517e-11 4.68350274e-13 1.52348647e-43 1.25464629e-44 1.70115517e-11
7.24435960e-02 1.73847795e-11 1.70115517e-11 3.73227770e-13 8.87107188e-39 6.61557659e-40 1.70115517e-11
8.31763771e-02 1.73728197e-11 1.70115517e-11 3.61267969e-13 9.17291875e-35 6.68994861e-36 1.70115517e-11
9.54992586e-02 1.73904491e-11 1.70115517e-11 3.78897393e-13 2.61253667e-31 1.97058443e-32 1.70115517e-11
1.09647820e-01 1.66728308e-11 1.62459122e-11 4.26918694e-13 2.24901274e-28 1.90068438e-29 1.62459122e-11
1.25892541e-01 1.56069768e-11 1.51615674e-11 4.45409389e-13 7.35236240e-26 6.26406553e-27 1.51615674e-11
1.44543977e-01 1.45847592e-11 1.41495980e-11 4.35161202e-13 1.00824728e-23 8.53713833e-25 1.41495980e-11
1.65958691e-01 1.36590930e-11 1.32051732e-11 4.53919818e-13 5.15482912e-22 4.81579819e-23 1.32051732e-11
1.90546072e-01 1.27749259e-11 1.23237846e-11 4.51141194e-13 1.09905672e-20 1.20882426e-21 1.23237846e-11
2.18776162e-01 1.18914058e-11 1.15012250e-11 3.90180655e-13 1.30550846e-19 1.46403088e-20 1.15012250e-11
2.51188643e-01 1.11935811e-11 1.07335677e-11 4.60011724e-13 1.60984396e-18 2.22445170e-19 1.07335677e-11
2.88403150e-01 1.04600174e-11 1.00171482e-11 4.42855751e-13 1.34194238e-17 1.82331790e-18 1.00171482e-11
3.31131121e-01 9.77628882e-12 9.34854667e-12 4.27665223e-13 7.69221467e-17 1.01339130e-17 9.34854667e-12
3.80189396e-01 9.11750955e-12 8.72457139e-12 3.92617268e-13 3.20893351e-16 4.13098807e-17 8.72457139e-12
4.36515832e-01 8.50592715e-12 8.14224377e-12 3.62662102e-13 1.02127526e-15 1.31221025e-16 8.14224377e-12
5.01187234e-01 7.93940886e-12 7.59878402e-12 3.38028194e-13 2.59664601e-15 3.43439782e-16 7.59878402e-12
5.75439937e-01 7.39746562e-12 7.09159786e-12 3.00105957e-13 5.76180103e-15 8.72290096e-16 7.09159786e-12
6.60693448e-01 6.89731510e-12 6.61826421e-12 2.66614451e-13 1.24364432e-14 2.42439336e-15 6.61826421e-12
7.58577575e-01 6.44186632e-12 6.17652353e-12 2.35416843e-13 2.99259403e-14 7.40788898e-15 6.17652353e-12
8.70963590e-01 6.04530719e-12 5.76426715e-12 2.02332894e-13 7.87071451e-14 2.20395150e-14 5.76426715e-12
1.00000000e+00 5.74388699e-12 5.37952711e-12 1.64962329e-13 1.99397548e-13 5.39065069e-14 5.37952711e-12
1.14815362e+00 5.62495640e-12 5.02046681e-12 1.33604296e-13 4.70885290e-13 1.16399622e-13 5.02046681e-12
1.31825674e+00 5.78677837e-12 4.68537225e-12 1.02400323e-13 9.99005805e-13 2.10822830e-13 4.68537225e-12
1.51356125e+00 6.38443490e-12 4.37264380e-12 7.93438740e-14 1.93244723e-12 3.40580533e-13 4.37264380e-12
1.73780083e+00 7.41456950e-12 4.08078863e-12 6.18347947e-14 3.27194607e-12 4.78518021e-13 4.08078863e-12
1.99526231e+00 8.84505114e-12 3.80841354e-12 4.72886083e-14 4.98934899e-12 5.88716293e-13 3.80841354e-12
2.29086765e+00 1.05075598e-11 3.55421832e-12 3.58244427e-14 6.91751702e-12 6.57770362e-13 3.55421832e-12
2.63026799e+00 1.21508192e-11 3.31698953e-12 2.71570854e-14 8.80667258e-12 6.73243951e-13 3.31698953e-12
3.01995172e+00 1.37246044e-11 3.09559474e-12 2.11897444e-14 1.06078199e-11 6.49817080e-13 3.09559474e-12
3.46736850e+00 1.50865376e-11 2.88897711e-12 1.58075223e-14 1.21817529e-11 5.89815379e-13 2.88897711e-12
3.98107171e+00 1.62383663e-11 2.69615031e-12 1.17096724e-14 1.35305064e-11 5.08622253e-13 2.69615031e-12
4.57088190e+00 1.70734013e-11 2.51619387e-12 8.32578149e-15 1.45488816e-11 3.98422772e-13 2.51619387e-12
5.24807460e+00 1.73528412e-11 2.08050667e-12 4.99556767e-15 1.52673389e-11 2.88970262e-13 2.08050667e-12
6.02559586e+00 1.70635539e-11 1.37457712e-12 2.32218075e-15 1.56866546e-11 1.95682890e-13 1.37457712e-12
6.70000000e+00 1.66988260e-11 9.99872685e-13 1.22422347e-15 1.56977291e-11 1.36184823e-13 9.99872685e-13
6.92422916e+00 1.65250014e-11 9.05846924e-13 9.93536890e-16 1.56181610e-11 1.20826490e-13 9.05846924e-13
7.15596261e+00 1.64130367e-11 8.20663132e-13 7.93266486e-16 1.55915803e-11 1.05285586e-13 8.20663132e-13
7.39545150e+00 1.63924144e-11 7.43489831e-13 6.02642112e-16 1.56483220e-11 8.93185607e-14 7.43489831e-13
7.64295536e+00 1.66687724e-11 6.73573732e-13 4.05868576e-16 1.59947928e-11 7.21163128e-14 6.73573732e-13
7.89874245e+00 1.72191248e-11 6.10232385e-13 2.34078247e-16 1.66086583e-11 5.32941273e-14 6.10232385e-13
8.16308998e+00 1.76159960e-11 5.52847515e-13 1.25851851e-16 1.70630226e-11 3.75033885e-14 5.52847515e-13
8.43628443e+00 1.81941466e-11 5.00858987e-13 6.32118094e-17 1.76932244e-11 2.53846709e-14 5.00858987e-13
8.71862190e+00 1.84315183e-11 4.53759343e-13 3.80290920e-17 1.79777209e-11 1.88124220e-14 4.53759343e-13
9.01040836e+00 1.87291688e-11 4.11088843e-13 2.28553494e-17 1.83180571e-11 1.39315760e-14 4.11088843e-13
9.31196005e+00 1.87072731e-11 3.72430980e-13 0.00000000e+00 1.83348421e-11 0.00000000e+00 3.72430980e-13
9.62360379e+00 1.86673641e-11 3.37408415e-13 0.00000000e+00 1.83299557e-11 0.00000000e+00 3.37408415e-13
9.94567731e+00 1.83587530e-11 3.05679292e-13 0.00000000e+00 1.80530737e-11 0.00000000e+00 3.05679292e-13
1.02785297e+01 1.79142123e-11 2.76933904e-13 0.00000000e+00 1.76372783e-11 0.00000000e+00 2.76933904e-13
1.06225216e+01 1.75906292e-11 2.50891667e-13 0.00000000e+00 1.73397375e-11 0.00000000e+00 2.50891667e-13
1.09780260e+01 1.72500126e-11 2.27298384e-13 0.00000000e+00 1.70227142e-11 0.00000000e+00 2.27298384e-13
1.13454280e+01 1.68373223e-11 2.05923759e-13 0.00000000e+00 1.66313986e-11 0.00000000e+00 2.05923759e-13
1.17251259e+01 1.65408134e-11 1.86559155e-13 0.00000000e+00 1.63542542e-11 0.00000000e+00 1.86559155e-13
1.21175312e+01 1.61407181e-11 1.69015555e-13 0.00000000e+00 1.59717026e-11 0.00000000e+00 1.69015555e-13
1.25230691e+01 1.56807868e-11 1.53121715e-13 0.00000000e+00 1.55276650e-11 0.00000000e+00 1.53121715e-13
1.29421791e+01 1.52692654e-11 1.38722496e-13 0.00000000e+00 1.51305429e-11 0.00000000e+00 1.38722496e-13
1.33753155e+01 1.47379850e-11 1.25677347e-13 0.00000000e+00 1.46123076e-11 0.00000000e+00 1.25677347e-13
1.38229477e+01 1.43364326e-11 1.13858934e-13 0.00000000e+00 1.42225737e-11 0.00000000e+00 1.13858934e-13
1.42855609e+01 1.40330511e-11 1.03151898e-13 0.00000000e+00 1.39298992e-11 0.00000000e+00 1.03151898e-13
1.47636563e+01 1.39204848e-11 9.34517274e-14 0.00000000e+00 1.38270330e-11 0.00000000e+00 9.34517274e-14
1.52577522e+01 1.38529952e-11 8.46637387e-14 0.00000000e+00 1.37683315e-11 0.00000000e+00 8.46637387e-14
1.57683840e+01 1.39098986e-11 7.67021526e-14 0.00000000e+00 1.38331964e-11 0.00000000e+00 7.67021526e-14
1.62961051e+01 1.38355170e-11 6.94892560e-14 0.00000000e+00 1.37660277e-11 0.00000000e+00 6.94892560e-14
1.68414875e+01 1.36994309e-11 6.29546439e-14 0.00000000e+00 1.36364762e-11 0.00000000e+00 6.29546439e-14
1.74051222e+01 1.35538239e-11 5.70345319e-14 0.00000000e+00 1.34967894e-11 0.00000000e+00 5.70345319e-14
1.79876201e+01 1.33567802e-11 5.16711337e-14 0.00000000e+00 1.33051091e-11 0.00000000e+00 5.16711337e-14
1.85896125e+01 1.30814161e-11 4.68120974e-14 0.00000000e+00 1.30346040e-11 0.00000000e+00 4.68120974e-14
1.92117518e+01 1.26320691e-11 4.24099939e-14 0.00000000e+00 1.25896591e-11 0.00000000e+00 4.24099939e-14
1.98547123e+01 1.21870930e-11 3.84218542e-14 0.00000000e+00 1.21486711e-11 0.00000000e+00 3.84218542e-14
2.05191907e+01 1.17264906e-11 3.48087501e-14 0.00000000e+00 1.16916818e-11 0.00000000e+00 3.48087501e-14
2.12059073e+01 1.12238667e-11 3.15354141e-14 0.00000000e+00 1.11923313e-11 0.00000000e+00 3.15354141e-14
2.19156062e+01 1.07097964e-11 2.85698952e-14 0.00000000e+00 1.06812265e-11 0.00000000e+00 2.85698952e-14
2.26490567e+01 1.02382578e-11 2.58832470e-14 0.00000000e+00 1.02123745e-11 0.00000000e+00 2.58832470e-14
2.34070535e+01 9.73226914e-12 2.34492452e-14 0.00000000e+00 9.70881989e-12 0.00000000e+00 2.34492452e-14
2.41904183e+01 9.25443596e-12 2.12441313e-14 0.00000000e+00 9.23319183e-12 0.00000000e+00 2.12441313e-14
2.50000000e+01 8.75091143e-12 1.92463813e-14 0.00000000e+00 8.73166505e-12 0.00000000e+00 1.92463813e-14
2.75422870e+01 7.38084516e-12 1.43935895e-14 0.00000000e+00 7.36645157e-12 0.00000000e+00 1.43935895e-14
3.16227766e+01 5.58508786e-12 9.50975027e-15 0.00000000e+00 5.57557811e-12 0.00000000e+00 9.50975027e-15
3.63078055e+01 4.00194251e-12 6.28302969e-15 0.00000000e+00 3.99565948e-12 0.00000000e+00 6.28302969e-15
4.16869383e+01 2.70593529e-12 4.15115655e-15 0.00000000e+00 2.70178413e-12 0.00000000e+00 4.15115655e-15
4.78630092e+01 1.72072908e-12 2.74264194e-15 0.00000000e+00 1.71798644e-12 0.00000000e+00 2.74264194e-15
5.49540874e+01 1.03915447e-12 1.81204556e-15 0.00000000e+00 1.03734242e-12 0.00000000e+00 1.81204556e-15
6.30957344e+01 6.02425558e-13 1.19720663e-15 0.00000000e+00 6.01228352e-13 0.00000000e+00 1.19720663e-15
7.24435960e+01 3.38007093e-13 7.90986575e-16 0.00000000e+00 3.37216107e-13 0.00000000e+00 7.90986575e-16
8.31763771e+01 1.85100160e-13 5.22599647e-16 0.00000000e+00 1.84577561e-13 0.00000000e+00 5.22599647e-16
9.54992586e+01 9.98298105e-14 3.45278163e-16 0.00000000e+00 9.94845323e-14 0.00000000e+00 3.45278163e-16
1.09647820e+02 5.32290877e-14 2.28123020e-16 0.00000000e+00 5.30009647e-14 0.00000000e+00 2.28123020e-16
1.25892541e+02 2.84903225e-14 1.50719385e-16 0.00000000e+00 2.83396031e-14 0.00000000e+00 1.50719385e-16
1.44543977e+02 1.52237946e-14 9.95793099e-17 0.00000000e+00 1.51242153e-14 0.00000000e+00 9.95793099e-17
1.65958691e+02 7.78253580e-15 6.57913976e-17 0.00000000e+00 7.71674441e-15 0.00000000e+00 6.57913976e-17
1.90546072e+02 3.99401437e-15 4.34679453e-17 0.00000000e+00 3.95054642e-15 0.00000000e+00 4.34679453e-17
2.18776162e+02 2.05380505e-15 2.87189867e-17 0.00000000e+00 2.02508607e-15 0.00000000e+00 2.87189867e-17
2.51188643e+02 1.05574630e-15 1.89744463e-17 0.00000000e+00 1.03677186e-15 0.00000000e+00 1.89744463e-17
2.88403150e+02 5.41966074e-16 1.25362924e-17 0.00000000e+00 5.29429781e-16 0.00000000e+00 1.25362924e-17
3.31131121e+02 2.78394866e-16 8.28264623e-18 0.00000000e+00 2.70112220e-16 0.00000000e+00 8.28264623e-18
3.80189396e+02 1.42966794e-16 5.47229010e-18 0.00000000e+00 1.37494504e-16 0.00000000e+00 5.47229010e-18
4.36515832e+02 7.35216926e-17 3.61550621e-18 0.00000000e+00 6.99061864e-17 0.00000000e+00 3.61550621e-18
5.01187234e+02 3.78765813e-17 2.38874127e-18 0.00000000e+00 3.54878400e-17 0.00000000e+00 2.38874127e-18
5.75439937e+02 1.95716876e-17 1.57822570e-18 0.00000000e+00 1.79934619e-17 0.00000000e+00 1.57822570e-18
6.60693448e+02 1.01562018e-17 1.04272338e-18 0.00000000e+00 9.11347844e-18 0.00000000e+00 1.04272338e-18
7.58577575e+02 5.30055054e-18 6.88920507e-19 0.00000000e+00 4.61163003e-18 0.00000000e+00 6.88920507e-19
8.70963590e+02 2.78629772e-18 4.55165265e-19 0.00000000e+00 2.33113246e-18 0.00000000e+00 4.55165265e-19
1.00000000e+03 1.17713917e-18 0.00000000e+00 0.00000000e+00 1.17713917e-18 0.00000000e+00 0.00000000e+00
