# column 1: lambda (micron)
# column 2: total flux; lambda*F_lambda (W/m2)
# column 3: direct stellar flux; lambda*F_lambda (W/m2)
# column 4: scattered stellar flux; lambda*F_lambda (W/m2)
# column 5: total dust emission flux; lambda*F_lambda (W/m2)
# column 6: dust emission scattered flux; lambda*F_lambda (W/m2)
# column 7: transparent flux; lambda*F_lambda (W/m2)
1.00000000e-03 6.93995850e-13 6.93993746e-13 2.10408257e-18 0.00000000e+00 0.00000000e+00 6.93993746e-13
1.14815362e-03 8.19138468e-13 8.19135139e-13 3.32854043e-18 0.00000000e+00 0.00000000e+00 8.19135139e-13
1.31825674e-03 9.66847174e-13 9.66842108e-13 5.06629966e-18 0.00000000e+00 0.00000000e+00 9.66842108e-13
1.51356125e-03 1.14119126e-12 1.14118369e-12 7.57082815e-18 0.00000000e+00 0.00000000e+00 1.14118369e-12
1.73780083e-03 1.34697608e-12 1.34696266e-12 1.34247354e-17 0.00000000e+00 0.00000000e+00 1.34696266e-12
1.99526231e-03 1.58987145e-12 1.58984782e-12 2.36238123e-17 0.00000000e+00 0.00000000e+00 1.58984782e-12
2.29086765e-03 1.87656699e-12 1.87653019e-12 3.67972183e-17 0.00000000e+00 0.00000000e+00 1.87653019e-12
2.63026799e-03 2.21498024e-12 2.21490731e-12 7.29248744e-17 0.00000000e+00 0.00000000e+00 2.21490731e-12
3.01995172e-03 2.61443421e-12 2.61430080e-12 1.33408685e-16 0.00000000e+00 0.00000000e+00 2.61430080e-12
3.46736850e-03 3.08591019e-12 3.08571319e-12 1.97003688e-16 0.00000000e+00 0.00000000e+00 3.08571319e-12
3.98107171e-03 3.64243478e-12 3.64213095e-12 3.03828173e-16 0.00000000e+00 0.00000000e+00 3.64213095e-12
4.57088190e-03 4.29960351e-12 4.29888232e-12 7.21188025e-16 0.00000000e+00 0.00000000e+00 4.29888232e-12
5.24807460e-03 5.07538202e-12 5.07405951e-12 1.32250501e-15 0.00000000e+00 0.00000000e+00 5.07405951e-12
6.02559586e-03 5.99115840e-12 5.98901715e-12 2.14124851e-15 0.00000000e+00 0.00000000e+00 5.98901715e-12
6.91830971e-03 7.07224824e-12 7.06896053e-12 3.28771827e-15 0.00000000e+00 0.00000000e+00 7.06896053e-12
7.94328235e-03 8.34959751e-12 8.34363998e-12 5.95752671e-15 0.00000000e+00 0.00000000e+00 8.34363998e-12
9.12010839e-03 9.88300193e-12 9.84817045e-12 3.48314873e-14 0.00000000e+00 0.00000000e+00 9.84817045e-12
1.04712855e-02 1.10103690e-11 1.09990604e-11 1.13085390e-14 0.00000000e+00 0.00000000e+00 1.09990604e-11
1.20226443e-02 1.10175414e-11 1.09990604e-11 1.84809871e-14 0.00000000e+00 0.00000000e+00 1.09990604e-11
1.38038426e-02 1.10384376e-11 1.09990604e-11 3.93771623e-14 1.92483562e-273 1.60367430e-274 1.09990604e-11
1.58489319e-02 1.10410958e-11 1.09990604e-11 4.20353567e-14 5.84557127e-239 3.55574650e-240 1.09990604e-11
1.81970086e-02 1.10532338e-11 1.09990604e-11 5.41733058e-14 6.14815718e-209 4.28459167e-210 1.09990604e-11
2.08929613e-02 1.10793112e-11 1.09990604e-11 8.02507606e-14 7.73146827e-183 6.03714219e-184 1.09990604e-11
2.39883292e-02 1.10861010e-11 1.09990604e-11 8.70406007e-14 4.01908193e-160 3.49379646e-161 1.09990604e-11
2.75422870e-02 1.11090059e-11 1.09990604e-11 1.09945479e-13 2.33486331e-140 2.09705025e-141 1.09990604e-11
3.16227766e-02 1.11275496e-11 1.09990604e-11 1.28489152e-13 3.53704102e-123 3.07912630e-124 1.09990604e-11
3.63078055e-02 1.11419522e-11 1.09990604e-11 1.42891775e-13 3.04101710e-108 2.62587871e-109 1.09990604e-11
4.16869383e-02 1.11795783e-11 1.09990604e-11 1.80517891e-13 2.91530919e-95 2.80067813e-96 1.09990604e-11
4.78630092e-02 1.12140187e-11 1.09990604e-11 2.14958266e-13 5.40885450e-84 5.38469104e-85 1.09990604e-11
5.49540874e-02 1.12268383e-11 1.09990604e-11 2.27777883e-13 3.24952836e-74 3.16617253e-75 1.09990604e-11
6.30957344e-02 1.12243564e-11 1.09990604e-11 2.25296001e-13 1.30489327e-65 1.22574743e-66 1.09990604e-11
7.24435960e-02 1.11930001e-11 1.09990604e-11 1.93939684e-13 3.80001307e-58 3.18040560e-59 1.09990604e-11
8.31763771e-02 1.11882180e-11 1.09990604e-11 1.89157565e-13 9.48575631e-52 7.85872194e-53 1.09990604e-11
9.54992586e-02 1.11962962e-11 1.09990604e-11 1.97235738e-13 3.52523449e-46 3.15157874e-47 1.09990604e-11
1.09647820e-01 1.07157660e-11 1.05040253e-11 2.11740661e-13 2.41314049e-41 2.52278720e-42 1.05040253e-11
1.25892541e-01 1.00110242e-11 9.80292679e-12 2.08097426e-13 4.04650423e-37 4.65262351e-38 9.80292679e-12
1.44543977e-01 9.34879698e-12 9.14862359e-12 2.00173384e-13 1.92111174e-33 2.29445051e-34 9.14862359e-12
1.65958691e-01 8.74539102e-12 8.53799231e-12 2.07398709e-13 2.32544032e-30 3.19968121e-31 8.53799231e-12
1.90546072e-01 8.18511037e-12 7.96811805e-12 2.16992327e-13 8.11804240e-28 1.31619969e-28 7.96811805e-12
2.18776162e-01 7.63479046e-12 7.43628044e-12 1.98510021e-13 1.13688568e-25 1.93781841e-26 7.43628044e-12
2.51188643e-01 7.17228675e-12 6.93994070e-12 2.32346049e-13 1.37032391e-23 2.95872897e-24 6.93994070e-12
2.88403150e-01 6.69854307e-12 6.47672950e-12 2.21813568e-13 8.79511690e-22 2.02770686e-22 6.47672950e-12
3.31131121e-01 6.25504636e-12 6.04443567e-12 2.10610665e-13 3.15353094e-20 7.53991917e-21 6.04443567e-12
3.80189396e-01 5.83611692e-12 5.64099558e-12 1.95120647e-13 6.90505806e-19 1.71051605e-19 5.64099558e-12
4.36515832e-01 5.44852625e-12 5.26448339e-12 1.84033018e-13 9.84941421e-18 2.50393868e-18 5.26448339e-12
5.01187234e-01 5.08322503e-12 4.91310176e-12 1.70028324e-13 9.49422689e-17 2.46745291e-17 4.91310176e-12
5.75439937e-01 4.74449907e-12 4.58517335e-12 1.58674622e-13 6.51097460e-16 1.70383301e-16 4.58517335e-12
6.60693448e-01 4.43002355e-12 4.27913275e-12 1.47571209e-13 3.31959418e-15 8.60109181e-16 4.27913275e-12
7.58577575e-01 4.14236346e-12 3.99351904e-12 1.35492276e-13 1.33521455e-14 3.39766796e-15 3.99351904e-12
8.70963590e-01 3.89094622e-12 3.72696882e-12 1.21240014e-13 4.27373911e-14 1.04268366e-14 3.72696882e-12
1.00000000e+00 3.69826624e-12 3.47820968e-12 1.05347157e-13 1.14709400e-13 2.62024420e-14 3.47820968e-12
1.14815362e+00 3.60015340e-12 3.24605414e-12 8.79072903e-14 2.66191962e-13 5.58949743e-14 3.24605414e-12
1.31825674e+00 3.64963978e-12 3.02939399e-12 7.31915818e-14 5.47054210e-13 1.01304694e-13 3.02939399e-12
1.51356125e+00 3.88245568e-12 2.82719497e-12 5.82918472e-14 9.96968860e-13 1.60525066e-13 2.82719497e-12
1.73780083e+00 4.28508189e-12 2.63849186e-12 4.52034833e-14 1.60138654e-12 2.14888098e-13 2.63849186e-12
1.99526231e+00 4.80409129e-12 2.46238388e-12 3.42949823e-14 2.30741243e-12 2.50480127e-13 2.46238388e-12
2.29086765e+00 5.32043172e-12 2.29803035e-12 2.51513158e-14 2.99725006e-12 2.54349355e-13 2.29803035e-12
2.63026799e+00 5.73364597e-12 2.14464670e-12 1.77066452e-14 3.57129262e-12 2.33515901e-13 2.14464670e-12
3.01995172e+00 5.98147438e-12 2.00150076e-12 1.21702257e-14 3.96780339e-12 1.97343805e-13 2.00150076e-12
3.46736850e+00 6.04669389e-12 1.86790919e-12 8.42899505e-15 4.17035570e-12 1.55020862e-13 1.86790919e-12
3.98107171e+00 5.92035496e-12 1.74323429e-12 5.59049541e-15 4.17153018e-12 1.11427104e-13 1.74323429e-12
4.57088190e+00 5.64576227e-12 1.62688090e-12 3.59363801e-15 4.01528773e-12 7.37453825e-14 1.62688090e-12
5.24807460e+00 5.11107282e-12 1.34518114e-12 1.94331987e-15 3.76394836e-12 4.61632086e-14 1.34518114e-12
6.02559586e+00 4.36301193e-12 8.88752369e-13 8.20861431e-16 3.47343870e-12 2.70332237e-14 8.88752369e-13
6.70000000e+00 3.86476872e-12 6.46481889e-13 4.07941403e-16 3.21787889e-12 1.71312883e-14 6.46481889e-13
6.92422916e+00 3.72083197e-12 5.85688198e-13 3.22926525e-16 3.13482085e-12 1.46338671e-14 5.85688198e-13
7.15596261e+00 3.61222005e-12 5.30611407e-13 2.54634991e-16 3.08135401e-12 1.25747226e-14 5.30611407e-13
7.39545150e+00 3.57129487e-12 4.80713913e-13 1.95212724e-16 3.09038574e-12 1.06560393e-14 4.80713913e-13
7.64295536e+00 3.71131445e-12 4.35508666e-13 1.41957807e-16 3.27566382e-12 9.08922937e-15 4.35508666e-13
7.89874245e+00 4.10489988e-12 3.94554418e-13 9.20786037e-17 3.71025338e-12 7.64720206e-15 3.94554418e-13
8.16308998e+00 4.66411597e-12 3.57451415e-13 5.75674182e-17 4.30660699e-12 6.29474233e-15 3.57451415e-13
8.43628443e+00 5.38770395e-12 3.23837494e-13 3.30100611e-17 5.06383345e-12 4.93719145e-15 3.23837494e-13
8.71862190e+00 5.80935696e-12 2.93384550e-13 2.11360916e-17 5.51595127e-12 3.87738067e-15 2.93384550e-13
9.01040836e+00 6.19987993e-12 2.65795332e-13 1.28548978e-17 5.93407174e-12 2.88113112e-15 2.65795332e-13
9.31196005e+00 6.45057877e-12 2.40800541e-13 0.00000000e+00 6.20977823e-12 0.00000000e+00 2.40800541e-13
9.62360379e+00 6.34058347e-12 2.18156204e-13 0.00000000e+00 6.12242727e-12 0.00000000e+00 2.18156204e-13
9.94567731e+00 5.99668844e-12 1.97641289e-13 0.00000000e+00 5.79904715e-12 0.00000000e+00 1.97641289e-13
1.02785297e+01 5.57127704e-12 1.79055550e-13 0.00000000e+00 5.39222149e-12 0.00000000e+00 1.79055550e-13
1.06225216e+01 5.17472810e-12 1.62217572e-13 0.00000000e+00 5.01251053e-12 0.00000000e+00 1.62217572e-13
1.09780260e+01 4.72043668e-12 1.46962999e-13 0.00000000e+00 4.57347368e-12 0.00000000e+00 1.46962999e-13
1.13454280e+01 4.33381926e-12 1.33142932e-13 0.00000000e+00 4.20067633e-12 0.00000000e+00 1.33142932e-13
1.17251259e+01 3.95411507e-12 1.20622472e-13 0.00000000e+00 3.83349260e-12 0.00000000e+00 1.20622472e-13
1.21175312e+01 3.61564342e-12 1.09279408e-13 0.00000000e+00 3.50636401e-12 0.00000000e+00 1.09279408e-13
1.25230691e+01 3.30959177e-12 9.90030204e-14 0.00000000e+00 3.21058875e-12 0.00000000e+00 9.90030204e-14
1.29421791e+01 3.02852640e-12 8.96930008e-14 0.00000000e+00 2.93883340e-12 0.00000000e+00 8.96930008e-14
1.33753155e+01 2.78065050e-12 8.12584743e-14 0.00000000e+00 2.69939203e-12 0.00000000e+00 8.12584743e-14
1.38229477e+01 2.60976079e-12 7.36171115e-14 0.00000000e+00 2.53614368e-12 0.00000000e+00 7.36171115e-14
1.42855609e+01 2.51022478e-12 6.66943252e-14 0.00000000e+00 2.44353045e-12 0.00000000e+00 6.66943252e-14
1.47636563e+01 2.53034812e-12 6.04225420e-14 0.00000000e+00 2.46992558e-12 0.00000000e+00 6.04225420e-14
1.52577522e+01 2.57961408e-12 5.47405431e-14 0.00000000e+00 2.52487354e-12 0.00000000e+00 5.47405431e-14
1.57683840e+01 2.64274358e-12 4.95928665e-14 0.00000000e+00 2.59315071e-12 0.00000000e+00 4.95928665e-14
1.62961051e+01 2.70731325e-12 4.49292657e-14 0.00000000e+00 2.66238398e-12 0.00000000e+00 4.49292657e-14
1.68414875e+01 2.78038989e-12 4.07042194e-14 0.00000000e+00 2.73968567e-12 0.00000000e+00 4.07042194e-14
1.74051222e+01 2.81099157e-12 3.68764869e-14 0.00000000e+00 2.77411508e-12 0.00000000e+00 3.68764869e-14
1.79876201e+01 2.81731830e-12 3.34087056e-14 0.00000000e+00 2.78390959e-12 0.00000000e+00 3.34087056e-14
1.85896125e+01 2.78166128e-12 3.02670267e-14 0.00000000e+00 2.75139425e-12 0.00000000e+00 3.02670267e-14
1.92117518e+01 2.70718250e-12 2.74207841e-14 0.00000000e+00 2.67976172e-12 0.00000000e+00 2.74207841e-14
1.98547123e+01 2.61119422e-12 2.48421957e-14 0.00000000e+00 2.58635202e-12 0.00000000e+00 2.48421957e-14
2.05191907e+01 2.50023269e-12 2.25060919e-14 0.00000000e+00 2.47772660e-12 0.00000000e+00 2.25060919e-14
2.12059073e+01 2.39055856e-12 2.03896700e-14 0.00000000e+00 2.37016889e-12 0.00000000e+00 2.03896700e-14
2.19156062e+01 2.29525406e-12 1.84722717e-14 0.00000000e+00 2.27678178e-12 0.00000000e+00 1.84722717e-14
2.26490567e+01 2.20201376e-12 1.67351811e-14 0.00000000e+00 2.18527858e-12 0.00000000e+00 1.67351811e-14
2.34070535e+01 2.10811737e-12 1.51614426e-14 0.00000000e+00 2.09295593e-12 0.00000000e+00 1.51614426e-14
2.41904183e+01 2.02146674e-12 1.37356949e-14 0.00000000e+00 2.00773104e-12 0.00000000e+00 1.37356949e-14
2.50000000e+01 1.94133410e-12 1.24440213e-14 0.00000000e+00 1.92889008e-12 0.00000000e+00 1.24440213e-14
2.75422870e+01 1.70173906e-12 9.30637977e-15 0.00000000e+00 1.69243268e-12 0.00000000e+00 9.30637977e-15
3.16227766e+01 1.37209055e-12 6.14866414e-15 0.00000000e+00 1.36594188e-12 0.00000000e+00 6.14866414e-15
3.63078055e+01 1.04900990e-12 4.06238211e-15 0.00000000e+00 1.04494752e-12 0.00000000e+00 4.06238211e-15
4.16869383e+01 7.49900041e-13 2.68398924e-15 0.00000000e+00 7.47216052e-13 0.00000000e+00 2.68398924e-15
4.78630092e+01 5.01193382e-13 1.77329411e-15 0.00000000e+00 4.99420088e-13 0.00000000e+00 1.77329411e-15
5.49540874e+01 3.17188498e-13 1.17160380e-15 0.00000000e+00 3.16016895e-13 0.00000000e+00 1.17160380e-15
6.30957344e+01 1.92421123e-13 7.74070953e-16 0.00000000e+00 1.91647052e-13 0.00000000e+00 7.74070953e-16
7.24435960e+01 1.12871363e-13 5.11423607e-16 0.00000000e+00 1.12359940e-13 0.00000000e+00 5.11423607e-16
8.31763771e+01 6.45785610e-14 3.37894226e-16 0.00000000e+00 6.42406667e-14 0.00000000e+00 3.37894226e-16
9.54992586e+01 3.63130051e-14 2.23244502e-16 0.00000000e+00 3.60897606e-14 0.00000000e+00 2.23244502e-16
1.09647820e+02 2.01438981e-14 1.47496179e-16 0.00000000e+00 1.99964019e-14 0.00000000e+00 1.47496179e-16
1.25892541e+02 1.11848130e-14 9.74497594e-17 0.00000000e+00 1.10873633e-14 0.00000000e+00 9.74497594e-17
1.44543977e+02 6.18008009e-15 6.43844175e-17 0.00000000e+00 6.11569567e-15 0.00000000e+00 6.43844175e-17
1.65958691e+02 3.25299046e-15 4.25383628e-17 0.00000000e+00 3.21045210e-15 0.00000000e+00 4.25383628e-17
1.90546072e+02 1.71509395e-15 2.81048176e-17 0.00000000e+00 1.68698913e-15 0.00000000e+00 2.81048176e-17
2.18776162e+02 9.03482548e-16 1.85686688e-17 0.00000000e+00 8.84913880e-16 0.00000000e+00 1.85686688e-17
2.51188643e+02 4.74707323e-16 1.22681978e-17 0.00000000e+00 4.62439125e-16 0.00000000e+00 1.22681978e-17
2.88403150e+02 2.48554043e-16 8.10551794e-18 0.00000000e+00 2.40448525e-16 0.00000000e+00 8.10551794e-18
3.31131121e+02 1.29986216e-16 5.35526259e-18 0.00000000e+00 1.24630953e-16 0.00000000e+00 5.35526259e-18
3.80189396e+02 6.78657591e-17 3.53818691e-18 0.00000000e+00 6.43275722e-17 0.00000000e+00 3.53818691e-18
4.36515832e+02 3.54451072e-17 2.33765691e-18 0.00000000e+00 3.31074502e-17 0.00000000e+00 2.33765691e-18
5.01187234e+02 1.85312256e-17 1.54447460e-18 0.00000000e+00 1.69867510e-17 0.00000000e+00 1.54447460e-18
5.75439937e+02 9.71366020e-18 1.02042425e-18 0.00000000e+00 8.69323595e-18 0.00000000e+00 1.02042425e-18
6.60693448e+02 5.11316260e-18 6.74187617e-19 0.00000000e+00 4.43897498e-18 0.00000000e+00 6.74187617e-19
7.58577575e+02 2.70762938e-18 4.45431341e-19 0.00000000e+00 2.26219804e-18 0.00000000e+00 4.45431341e-19
8.70963590e+02 1.44490325e-18 2.94293569e-19 0.00000000e+00 1.15060969e-18 0.00000000e+00 2.94293569e-19
1.00000000e+03 5.84156633e-19 0.00000000e+00 0.00000000e+00 5.84156633e-19 0.00000000e+00 0.00000000e+00
