# column 1: lambda (micron)
# column 2: total flux; lambda*F_lambda (W/m2)
# column 3: direct stellar flux; lambda*F_lambda (W/m2)
# column 4: scattered stellar flux; lambda*F_lambda (W/m2)
# column 5: total dust emission flux; lambda*F_lambda (W/m2)
# column 6: dust emission scattered flux; lambda*F_lambda (W/m2)
# column 7: transparent flux; lambda*F_lambda (W/m2)
1.00000000e-03 3.57787514e-13 3.57785423e-13 2.09082057e-18 0.00000000e+00 0.00000000e+00 3.57785423e-13
1.14815362e-03 4.22304893e-13 4.22301518e-13 3.37438625e-18 0.00000000e+00 0.00000000e+00 4.22301518e-13
1.31825674e-03 4.98456562e-13 4.98451197e-13 5.36543512e-18 0.00000000e+00 0.00000000e+00 4.98451197e-13
1.51356125e-03 5.88339965e-13 5.88332233e-13 7.73170200e-18 0.00000000e+00 0.00000000e+00 5.88332233e-13
1.73780083e-03 6.94434736e-13 6.94420676e-13 1.40600395e-17 0.00000000e+00 0.00000000e+00 6.94420676e-13
1.99526231e-03 8.19666868e-13 8.19639053e-13 2.78146832e-17 0.00000000e+00 0.00000000e+00 8.19639053e-13
2.29086765e-03 9.67473784e-13 9.67436888e-13 3.68959456e-17 0.00000000e+00 0.00000000e+00 9.67436888e-13
2.63026799e-03 1.14196863e-12 1.14188572e-12 8.29074537e-17 0.00000000e+00 0.00000000e+00 1.14188572e-12
3.01995172e-03 1.34792428e-12 1.34779128e-12 1.32993767e-16 0.00000000e+00 0.00000000e+00 1.34779128e-12
3.46736850e-03 1.59104684e-12 1.59082586e-12 2.20973839e-16 0.00000000e+00 0.00000000e+00 1.59082586e-12
3.98107171e-03 1.87804334e-12 1.87768459e-12 3.58750416e-16 0.00000000e+00 0.00000000e+00 1.87768459e-12
4.57088190e-03 2.21716231e-12 2.21626987e-12 8.92433725e-16 0.00000000e+00 0.00000000e+00 2.21626987e-12
5.24807460e-03 2.61743442e-12 2.61590907e-12 1.52535790e-15 0.00000000e+00 0.00000000e+00 2.61590907e-12
6.02559586e-03 3.09057382e-12 3.08761145e-12 2.96236581e-15 0.00000000e+00 0.00000000e+00 3.08761145e-12
6.91830971e-03 3.64838334e-12 3.64437151e-12 4.01183165e-15 0.00000000e+00 0.00000000e+00 3.64437151e-12
7.94328235e-03 4.30824736e-12 4.30152690e-12 6.72046445e-15 9.97118634e-304 2.42724192e-304 4.30152690e-12
9.12010839e-03 5.08830701e-12 5.07718096e-12 1.11260515e-14 5.04668058e-265 1.42456441e-265 5.07718096e-12
1.04712855e-02 5.68690824e-12 5.67051724e-12 1.63910013e-14 1.88248933e-231 2.43096567e-232 5.67051724e-12
1.20226443e-02 5.70719059e-12 5.67051724e-12 3.66733536e-14 3.31571077e-202 5.27607310e-203 5.67051724e-12
1.38038426e-02 5.72085596e-12 5.67051724e-12 5.03387239e-14 9.41317690e-177 1.47179642e-177 5.67051724e-12
1.58489319e-02 5.72815856e-12 5.67051724e-12 5.76413211e-14 1.26788242e-154 1.37360402e-155 5.67051724e-12
1.81970086e-02 5.73011231e-12 5.67051724e-12 5.95950696e-14 2.38659496e-135 2.87385821e-136 5.67051724e-12
2.08929613e-02 5.74930557e-12 5.67051724e-12 7.87883295e-14 1.28375477e-118 1.48063896e-119 5.67051724e-12
2.39883292e-02 5.77513535e-12 5.67051724e-12 1.04618111e-13 4.66015736e-104 5.69000308e-105 5.67051724e-12
2.75422870e-02 5.78799420e-12 5.67051724e-12 1.17476962e-13 2.08320671e-91 2.27300072e-92 5.67051724e-12
3.16227766e-02 5.77945735e-12 5.67051724e-12 1.08940106e-13 2.03969092e-80 1.98634977e-81 5.67051724e-12
3.63078055e-02 5.77631257e-12 5.67051724e-12 1.05795330e-13 7.09642161e-71 6.35950639e-72 5.67051724e-12
4.16869383e-02 5.79056678e-12 5.67051724e-12 1.20049542e-13 1.37891983e-62 1.33510947e-63 5.67051724e-12
4.78630092e-02 5.79659985e-12 5.67051724e-12 1.26082606e-13 2.04280970e-55 1.80585876e-56 5.67051724e-12
5.49540874e-02 5.78205425e-12 5.67051724e-12 1.11537011e-13 3.34307309e-49 2.80528333e-50 5.67051724e-12
6.30957344e-02 5.77321744e-12 5.67051724e-12 1.02700203e-13 1.04319120e-43 8.45218865e-45 5.67051724e-12
7.24435960e-02 5.75864893e-12 5.67051724e-12 8.81316899e-14 5.77181613e-39 4.16993391e-40 5.67051724e-12
8.31763771e-02 5.75825841e-12 5.67051724e-12 8.77411700e-14 5.96327777e-35 4.23346296e-36 5.67051724e-12
9.54992586e-02 5.75639740e-12 5.67051724e-12 8.58801595e-14 1.71968830e-31 1.25952349e-32 5.67051724e-12
1.09647820e-01 5.51427003e-12 5.41530405e-12 9.89659763e-14 1.54122347e-28 1.27580769e-29 5.41530405e-12
1.25892541e-01 5.14757249e-12 5.05385580e-12 9.37166907e-14 5.22809893e-26 4.46866184e-27 5.05385580e-12
1.44543977e-01 4.80646648e-12 4.71653266e-12 8.99338192e-14 7.54244337e-24 6.61142730e-25 4.71653266e-12
1.65958691e-01 4.49166648e-12 4.40172439e-12 8.99420887e-14 3.98551926e-22 3.83396072e-23 4.40172439e-12
1.90546072e-01 4.20089708e-12 4.10792822e-12 9.29688544e-14 8.34948260e-21 9.09721083e-22 4.10792822e-12
2.18776162e-01 3.91728184e-12 3.83374167e-12 8.35400692e-14 9.45910480e-20 1.02496214e-20 3.83374167e-12
2.51188643e-01 3.67153894e-12 3.57785591e-12 9.36818118e-14 1.22077099e-18 1.68347982e-19 3.57785591e-12
2.88403150e-01 3.43059305e-12 3.33904941e-12 9.15328786e-14 1.07592093e-17 1.45864557e-18 3.33904941e-12
3.31131121e-01 3.19954812e-12 3.11618222e-12 8.33021466e-14 6.37514334e-17 8.60577086e-18 3.11618222e-12
3.80189396e-01 2.98426780e-12 2.90819046e-12 7.58028612e-14 2.74475334e-16 3.59638263e-17 2.90819046e-12
4.36515832e-01 2.78280304e-12 2.71408126e-12 6.78164208e-14 9.05364814e-16 1.17373683e-16 2.71408126e-12
5.01187234e-01 2.59934979e-12 2.53292801e-12 6.40531128e-14 2.36867271e-15 3.07941385e-16 2.53292801e-12
5.75439937e-01 2.43004474e-12 2.36386595e-12 6.09795842e-14 5.19919656e-15 6.80174434e-16 2.36386595e-12
6.60693448e-01 2.27146104e-12 2.20608807e-12 5.53822272e-14 9.99074470e-15 1.29867872e-15 2.20608807e-12
7.58577575e-01 2.12865604e-12 2.05884118e-12 5.13326816e-14 1.84821759e-14 2.49376178e-15 2.05884118e-12
8.70963590e-01 1.99943182e-12 1.92142238e-12 4.43343881e-14 3.36750442e-14 4.61370994e-15 1.92142238e-12
1.00000000e+00 1.89240318e-12 1.79317570e-12 3.76828228e-14 6.15446564e-14 8.50069609e-15 1.79317570e-12
1.14815362e+00 1.81797015e-12 1.67348894e-12 3.16225864e-14 1.12858629e-13 1.50981875e-14 1.67348894e-12
1.31825674e+00 1.79176797e-12 1.56179075e-12 2.67490638e-14 2.03228159e-13 2.47028062e-14 1.56179075e-12
1.51356125e+00 1.82416854e-12 1.45754793e-12 2.09252765e-14 3.45695331e-13 3.69805434e-14 1.45754793e-12
1.73780083e+00 1.91562868e-12 1.36026288e-12 1.63581471e-14 5.39007660e-13 4.89528223e-14 1.36026288e-12
1.99526231e+00 2.04676480e-12 1.26947118e-12 1.20529224e-14 7.65240698e-13 5.60808017e-14 1.26947118e-12
2.29086765e+00 2.18753483e-12 1.18473944e-12 8.87285092e-15 9.93922539e-13 5.63207171e-14 1.18473944e-12
2.63026799e+00 2.30029871e-12 1.10566318e-12 6.36829607e-15 1.18826724e-12 5.20996795e-14 1.10566318e-12
3.01995172e+00 2.35825596e-12 1.03186491e-12 4.54423433e-15 1.32184681e-12 4.41484863e-14 1.03186491e-12
3.46736850e+00 2.35844635e-12 9.62992369e-13 3.18214299e-15 1.39227184e-12 3.51242317e-14 9.62992369e-13
3.98107171e+00 2.29067407e-12 8.98716770e-13 2.14998527e-15 1.38980732e-12 2.58346585e-14 8.98716770e-13
4.57088190e+00 2.17257873e-12 8.38731291e-13 1.47408181e-15 1.33237335e-12 1.76393594e-14 8.38731291e-13
5.24807460e+00 1.93235352e-12 6.93502223e-13 8.39676818e-16 1.23801162e-12 1.14472192e-14 6.93502223e-13
6.02559586e+00 1.59268506e-12 4.58192375e-13 3.67663892e-16 1.13412502e-12 6.94139178e-15 4.58192375e-13
6.70000000e+00 1.38076004e-12 3.33290895e-13 1.87969028e-16 1.04728118e-12 4.48322552e-15 3.33290895e-13
6.92422916e+00 1.32272713e-12 3.01948975e-13 1.52298933e-16 1.02062585e-12 3.88168485e-15 3.01948975e-13
7.15596261e+00 1.27623924e-12 2.73554377e-13 1.18727484e-16 1.00256614e-12 3.34142954e-15 2.73554377e-13
7.39545150e+00 1.25346866e-12 2.47829944e-13 9.12455175e-17 1.00554747e-12 2.83413437e-15 2.47829944e-13
7.64295536e+00 1.29329729e-12 2.24524577e-13 6.46234374e-17 1.06870809e-12 2.39824347e-15 2.24524577e-13
7.89874245e+00 1.42663294e-12 2.03410795e-13 3.97293692e-17 1.22318242e-12 1.93546765e-15 2.03410795e-13
8.16308998e+00 1.62401811e-12 1.84282505e-13 2.27335214e-17 1.43971287e-12 1.53274278e-15 1.84282505e-13
8.43628443e+00 1.87854356e-12 1.66952996e-13 1.25630328e-17 1.71157800e-12 1.16291192e-15 1.66952996e-13
8.71862190e+00 2.04125467e-12 1.51253114e-13 7.87211002e-18 1.88999368e-12 9.08796857e-16 1.51253114e-13
9.01040836e+00 2.20710484e-12 1.37029614e-13 5.16615492e-18 2.07007006e-12 6.77571294e-16 1.37029614e-13
9.31196005e+00 2.32064696e-12 1.24143660e-13 0.00000000e+00 2.19650330e-12 0.00000000e+00 1.24143660e-13
9.62360379e+00 2.27157732e-12 1.12469472e-13 0.00000000e+00 2.15910785e-12 0.00000000e+00 1.12469472e-13
9.94567731e+00 2.12069601e-12 1.01893097e-13 0.00000000e+00 2.01880292e-12 0.00000000e+00 1.01893097e-13
1.02785297e+01 1.93642365e-12 9.23113014e-14 0.00000000e+00 1.84411235e-12 0.00000000e+00 9.23113014e-14
1.06225216e+01 1.77267747e-12 8.36305558e-14 0.00000000e+00 1.68904692e-12 0.00000000e+00 8.36305558e-14
1.09780260e+01 1.58978069e-12 7.57661279e-14 0.00000000e+00 1.51401457e-12 0.00000000e+00 7.57661279e-14
1.13454280e+01 1.43549020e-12 6.86412529e-14 0.00000000e+00 1.36684895e-12 0.00000000e+00 6.86412529e-14
1.17251259e+01 1.29604865e-12 6.21863851e-14 0.00000000e+00 1.23386226e-12 0.00000000e+00 6.21863851e-14
1.21175312e+01 1.18007412e-12 5.63385184e-14 0.00000000e+00 1.12373560e-12 0.00000000e+00 5.63385184e-14
1.25230691e+01 1.07406725e-12 5.10405718e-14 0.00000000e+00 1.02302668e-12 0.00000000e+00 5.10405718e-14
1.29421791e+01 9.87877313e-13 4.62408321e-14 0.00000000e+00 9.41636481e-13 0.00000000e+00 4.62408321e-14
1.33753155e+01 9.06157783e-13 4.18924490e-14 0.00000000e+00 8.64265334e-13 0.00000000e+00 4.18924490e-14
1.38229477e+01 8.56243278e-13 3.79529781e-14 0.00000000e+00 8.18290300e-13 0.00000000e+00 3.79529781e-14
1.42855609e+01 8.23569174e-13 3.43839660e-14 0.00000000e+00 7.89185208e-13 0.00000000e+00 3.43839660e-14
1.47636563e+01 8.27807890e-13 3.11505758e-14 0.00000000e+00 7.96657314e-13 0.00000000e+00 3.11505758e-14
1.52577522e+01 8.40262154e-13 2.82212462e-14 0.00000000e+00 8.12040908e-13 0.00000000e+00 2.82212462e-14
1.57683840e+01 8.56781556e-13 2.55673842e-14 0.00000000e+00 8.31214172e-13 0.00000000e+00 2.55673842e-14
1.62961051e+01 8.75302795e-13 2.31630853e-14 0.00000000e+00 8.52139709e-13 0.00000000e+00 2.31630853e-14
1.68414875e+01 8.95727618e-13 2.09848813e-14 0.00000000e+00 8.74742736e-13 0.00000000e+00 2.09848813e-14
1.74051222e+01 8.98776253e-13 1.90115106e-14 0.00000000e+00 8.79764742e-13 0.00000000e+00 1.90115106e-14
1.79876201e+01 9.03446468e-13 1.72237112e-14 0.00000000e+00 8.86222757e-13 0.00000000e+00 1.72237112e-14
1.85896125e+01 8.92908116e-13 1.56040325e-14 0.00000000e+00 8.77304083e-13 0.00000000e+00 1.56040325e-14
1.92117518e+01 8.72493125e-13 1.41366646e-14 0.00000000e+00 8.58356461e-13 0.00000000e+00 1.41366646e-14
1.98547123e+01 8.51988373e-13 1.28072847e-14 0.00000000e+00 8.39181089e-13 0.00000000e+00 1.28072847e-14
2.05191907e+01 8.24372238e-13 1.16029167e-14 0.00000000e+00 8.12769322e-13 0.00000000e+00 1.16029167e-14
2.12059073e+01 7.99857059e-13 1.05118047e-14 0.00000000e+00 7.89345254e-13 0.00000000e+00 1.05118047e-14
2.19156062e+01 7.76284312e-13 9.52329842e-15 0.00000000e+00 7.66761013e-13 0.00000000e+00 9.52329842e-15
2.26490567e+01 7.57739568e-13 8.62774902e-15 0.00000000e+00 7.49111819e-13 0.00000000e+00 8.62774902e-15
2.34070535e+01 7.36044997e-13 7.81641505e-15 0.00000000e+00 7.28228582e-13 0.00000000e+00 7.81641505e-15
2.41904183e+01 7.15771774e-13 7.08137710e-15 0.00000000e+00 7.08690396e-13 0.00000000e+00 7.08137710e-15
2.50000000e+01 6.99084687e-13 6.41546044e-15 0.00000000e+00 6.92669227e-13 0.00000000e+00 6.41546044e-15
2.75422870e+01 6.44105483e-13 4.79786316e-15 0.00000000e+00 6.39307619e-13 0.00000000e+00 4.79786316e-15
3.16227766e+01 5.56567351e-13 3.16991676e-15 0.00000000e+00 5.53397434e-13 0.00000000e+00 3.16991676e-15
3.63078055e+01 4.56555715e-13 2.09434323e-15 0.00000000e+00 4.54461371e-13 0.00000000e+00 2.09434323e-15
4.16869383e+01 3.49840498e-13 1.38371885e-15 0.00000000e+00 3.48456779e-13 0.00000000e+00 1.38371885e-15
4.78630092e+01 2.50434587e-13 9.14213979e-16 0.00000000e+00 2.49520373e-13 0.00000000e+00 9.14213979e-16
5.49540874e+01 1.68614552e-13 6.04015186e-16 0.00000000e+00 1.68010537e-13 0.00000000e+00 6.04015186e-16
6.30957344e+01 1.08085505e-13 3.99068876e-16 0.00000000e+00 1.07686436e-13 0.00000000e+00 3.99068876e-16
7.24435960e+01 6.63866581e-14 2.63662192e-16 0.00000000e+00 6.61229959e-14 0.00000000e+00 2.63662192e-16
8.31763771e+01 3.95571032e-14 1.74199882e-16 0.00000000e+00 3.93829033e-14 0.00000000e+00 1.74199882e-16
9.54992586e+01 2.29853784e-14 1.15092721e-16 0.00000000e+00 2.28702856e-14 0.00000000e+00 1.15092721e-16
1.09647820e+02 1.31054982e-14 7.60410067e-17 0.00000000e+00 1.30294572e-14 0.00000000e+00 7.60410067e-17
1.25892541e+02 7.44131412e-15 5.02397949e-17 0.00000000e+00 7.39107433e-15 0.00000000e+00 5.02397949e-17
1.44543977e+02 4.18832821e-15 3.31931033e-17 0.00000000e+00 4.15513511e-15 0.00000000e+00 3.31931033e-17
1.65958691e+02 2.24061710e-15 2.19304659e-17 0.00000000e+00 2.21868664e-15 0.00000000e+00 2.19304659e-17
1.90546072e+02 1.19674503e-15 1.44893151e-17 0.00000000e+00 1.18225571e-15 0.00000000e+00 1.44893151e-17
2.18776162e+02 6.36950240e-16 9.57299556e-18 0.00000000e+00 6.27377244e-16 0.00000000e+00 9.57299556e-18
2.51188643e+02 3.37364404e-16 6.32481544e-18 0.00000000e+00 3.31039588e-16 0.00000000e+00 6.32481544e-18
2.88403150e+02 1.77714864e-16 4.17876412e-18 0.00000000e+00 1.73536100e-16 0.00000000e+00 4.17876412e-18
3.31131121e+02 9.33352174e-17 2.76088208e-18 0.00000000e+00 9.05743353e-17 0.00000000e+00 2.76088208e-18
3.80189396e+02 4.88475428e-17 1.82409670e-18 0.00000000e+00 4.70234461e-17 0.00000000e+00 1.82409670e-18
4.36515832e+02 2.55270168e-17 1.20516874e-18 0.00000000e+00 2.43218480e-17 0.00000000e+00 1.20516874e-18
5.01187234e+02 1.33281705e-17 7.96247089e-19 0.00000000e+00 1.25319234e-17 0.00000000e+00 7.96247089e-19
5.75439937e+02 6.96257192e-18 5.26075235e-19 0.00000000e+00 6.43649668e-18 0.00000000e+00 5.26075235e-19
6.60693448e+02 3.64431224e-18 3.47574461e-19 0.00000000e+00 3.29673778e-18 0.00000000e+00 3.47574461e-19
7.58577575e+02 1.91415214e-18 2.29640169e-19 0.00000000e+00 1.68451198e-18 0.00000000e+00 2.29640169e-19
8.70963590e+02 1.01044356e-18 1.51721755e-19 0.00000000e+00 8.58721803e-19 0.00000000e+00 1.51721755e-19
1.00000000e+03 4.36812136e-19 0.00000000e+00 0.00000000e+00 4.36812136e-19 0.00000000e+00 0.00000000e+00
