# column 1: lambda (micron)
# column 2: total flux; lambda*F_lambda (W/m2)
# column 3: direct stellar flux; lambda*F_lambda (W/m2)
# column 4: scattered stellar flux; lambda*F_lambda (W/m2)
# column 5: total dust emission flux; lambda*F_lambda (W/m2)
# column 6: dust emission scattered flux; lambda*F_lambda (W/m2)
# column 7: transparent flux; lambda*F_lambda (W/m2)
1.00000000e-03 6.93994398e-13 6.93993746e-13 6.51898299e-19 0.00000000e+00 0.00000000e+00 6.93993746e-13
1.14815362e-03 8.19136130e-13 8.19135139e-13 9.91023675e-19 0.00000000e+00 0.00000000e+00 8.19135139e-13
1.31825674e-03 9.66843644e-13 9.66842108e-13 1.53618369e-18 0.00000000e+00 0.00000000e+00 9.66842108e-13
1.51356125e-03 1.14118612e-12 1.14118369e-12 2.43178643e-18 0.00000000e+00 0.00000000e+00 1.14118369e-12
1.73780083e-03 1.34696709e-12 1.34696266e-12 4.43278750e-18 0.00000000e+00 0.00000000e+00 1.34696266e-12
1.99526231e-03 1.58985551e-12 1.58984782e-12 7.68854017e-18 0.00000000e+00 0.00000000e+00 1.58984782e-12
2.29086765e-03 1.87654259e-12 1.87653019e-12 1.23946225e-17 0.00000000e+00 0.00000000e+00 1.87653019e-12
2.63026799e-03 2.21493237e-12 2.21490731e-12 2.50585906e-17 0.00000000e+00 0.00000000e+00 2.21490731e-12
3.01995172e-03 2.61434259e-12 2.61430080e-12 4.17860579e-17 0.00000000e+00 0.00000000e+00 2.61430080e-12
3.46736850e-03 3.08577809e-12 3.08571319e-12 6.49056539e-17 0.00000000e+00 0.00000000e+00 3.08571319e-12
3.98107171e-03 3.64223618e-12 3.64213095e-12 1.05231769e-16 0.00000000e+00 0.00000000e+00 3.64213095e-12
4.57088190e-03 4.29912211e-12 4.29888232e-12 2.39791971e-16 0.00000000e+00 0.00000000e+00 4.29888232e-12
5.24807460e-03 5.07449326e-12 5.07405951e-12 4.33748377e-16 0.00000000e+00 0.00000000e+00 5.07405951e-12
6.02559586e-03 5.98982362e-12 5.98901715e-12 8.06473105e-16 0.00000000e+00 0.00000000e+00 5.98901715e-12
6.91830971e-03 7.07016483e-12 7.06896053e-12 1.20429971e-15 0.00000000e+00 0.00000000e+00 7.06896053e-12
7.94328235e-03 8.34572896e-12 8.34363998e-12 2.08897623e-15 0.00000000e+00 0.00000000e+00 8.34363998e-12
9.12010839e-03 9.85125083e-12 9.84817045e-12 3.08037781e-15 0.00000000e+00 0.00000000e+00 9.84817045e-12
1.04712855e-02 1.10047438e-11 1.09990604e-11 5.68335507e-15 0.00000000e+00 0.00000000e+00 1.09990604e-11
1.20226443e-02 1.10086501e-11 1.09990604e-11 9.58968523e-15 0.00000000e+00 0.00000000e+00 1.09990604e-11
1.38038426e-02 1.10108372e-11 1.09990604e-11 1.17767424e-14 1.17132625e-290 1.00115114e-291 1.09990604e-11
1.58489319e-02 1.10129510e-11 1.09990604e-11 1.38905455e-14 1.16157004e-253 1.27892177e-254 1.09990604e-11
1.81970086e-02 1.10183061e-11 1.09990604e-11 1.92456410e-14 1.74163987e-221 1.48781836e-222 1.09990604e-11
2.08929613e-02 1.10262129e-11 1.09990604e-11 2.71524881e-14 1.71765009e-193 1.75915074e-194 1.09990604e-11
2.39883292e-02 1.10343318e-11 1.09990604e-11 3.52713135e-14 3.89248181e-169 3.99644800e-170 1.09990604e-11
2.75422870e-02 1.10440753e-11 1.09990604e-11 4.50148816e-14 6.08013970e-148 5.83889108e-149 1.09990604e-11
3.16227766e-02 1.10550715e-11 1.09990604e-11 5.60110638e-14 1.65555573e-129 1.68180480e-130 1.09990604e-11
3.63078055e-02 1.10627669e-11 1.09990604e-11 6.37064627e-14 1.74768869e-113 1.79002227e-114 1.09990604e-11
4.16869383e-02 1.10824508e-11 1.09990604e-11 8.33903646e-14 1.50208516e-99 1.76773552e-100 1.09990604e-11
4.78630092e-02 1.11135782e-11 1.09990604e-11 1.14517774e-13 1.87476144e-87 2.39041506e-88 1.09990604e-11
5.49540874e-02 1.11253989e-11 1.09990604e-11 1.26338426e-13 5.98881492e-77 8.35625696e-78 1.09990604e-11
6.30957344e-02 1.11351657e-11 1.09990604e-11 1.36105210e-13 1.01011317e-67 1.51677712e-68 1.09990604e-11
7.24435960e-02 1.11261974e-11 1.09990604e-11 1.27136930e-13 9.94007123e-60 1.39406710e-60 1.09990604e-11
8.31763771e-02 1.11250980e-11 1.09990604e-11 1.26037591e-13 6.98514927e-53 9.54132452e-54 1.09990604e-11
9.54992586e-02 1.11286828e-11 1.09990604e-11 1.29622361e-13 5.91444526e-47 8.33492558e-48 1.09990604e-11
1.09647820e-01 1.06408396e-11 1.05040253e-11 1.36814242e-13 7.53226709e-42 1.14031235e-42 1.05040253e-11
1.25892541e-01 9.92798146e-12 9.80292679e-12 1.25054669e-13 1.92425935e-37 2.90549738e-38 9.80292679e-12
1.44543977e-01 9.26945012e-12 9.14862359e-12 1.20826528e-13 1.17579249e-33 1.72261624e-34 9.14862359e-12
1.65958691e-01 8.66118933e-12 8.53799231e-12 1.23197020e-13 1.68001922e-30 2.67656923e-31 8.53799231e-12
1.90546072e-01 8.10538483e-12 7.96811805e-12 1.37266781e-13 6.39211623e-28 1.17566509e-28 7.96811805e-12
2.18776162e-01 7.56027483e-12 7.43628044e-12 1.23994393e-13 9.38779392e-26 1.80532922e-26 7.43628044e-12
2.51188643e-01 7.08727772e-12 6.93994070e-12 1.47337022e-13 1.15215435e-23 2.65247149e-24 6.93994070e-12
2.88403150e-01 6.61451188e-12 6.47672950e-12 1.37782377e-13 7.27446831e-22 1.69035253e-22 6.47672950e-12
3.31131121e-01 6.17134545e-12 6.04443567e-12 1.26909760e-13 2.53823138e-20 5.90256207e-21 6.04443567e-12
3.80189396e-01 5.75600824e-12 5.64099558e-12 1.15012125e-13 5.30301902e-19 1.23332615e-19 5.64099558e-12
4.36515832e-01 5.36917636e-12 5.26448339e-12 1.04685825e-13 7.14752340e-18 1.65989299e-18 5.26448339e-12
5.01187234e-01 5.01072641e-12 4.91310176e-12 9.75593394e-14 6.53107724e-17 1.51143693e-17 4.91310176e-12
5.75439937e-01 4.67574582e-12 4.58517335e-12 9.01471008e-14 4.25369065e-16 9.71085240e-17 4.58517335e-12
6.60693448e-01 4.36467292e-12 4.27913275e-12 8.34758908e-14 2.06427919e-15 4.64277875e-16 4.27913275e-12
7.58577575e-01 4.07737506e-12 3.99351904e-12 7.60166034e-14 7.83941127e-15 1.70124564e-15 3.99351904e-12
8.70963590e-01 3.81861243e-12 3.72696882e-12 6.74279128e-14 2.42156982e-14 5.01395009e-15 3.72696882e-12
1.00000000e+00 3.59726761e-12 3.47820968e-12 5.66083537e-14 6.24495717e-14 1.20293577e-14 3.47820968e-12
1.14815362e+00 3.43527043e-12 3.24605414e-12 4.90744383e-14 1.40141844e-13 2.44044166e-14 3.24605414e-12
1.31825674e+00 3.34790687e-12 3.02939399e-12 3.87694514e-14 2.79743429e-13 4.24496231e-14 3.02939399e-12
1.51356125e+00 3.35553895e-12 2.82719497e-12 3.06032570e-14 4.97740725e-13 6.53139253e-14 2.82719497e-12
1.73780083e+00 3.44958533e-12 2.63849186e-12 2.34806926e-14 7.87612775e-13 8.52914394e-14 2.63849186e-12
1.99526231e+00 3.58688697e-12 2.46238388e-12 1.70848872e-14 1.10741820e-12 9.46688474e-14 2.46238388e-12
2.29086765e+00 3.72962677e-12 2.29803035e-12 1.24294316e-14 1.41916699e-12 9.46522132e-14 2.29803035e-12
2.63026799e+00 3.81232575e-12 2.14464670e-12 8.76550505e-15 1.65891354e-12 8.29516063e-14 2.14464670e-12
3.01995172e+00 3.80879828e-12 2.00150076e-12 5.97330816e-15 1.80132421e-12 6.67236636e-14 2.00150076e-12
3.46736850e+00 3.70798276e-12 1.86790919e-12 4.11592340e-15 1.83595765e-12 5.00704661e-14 1.86790919e-12
3.98107171e+00 3.52265548e-12 1.74323429e-12 2.71977314e-15 1.77670142e-12 3.48216953e-14 1.74323429e-12
4.57088190e+00 3.27567138e-12 1.62688090e-12 1.78007372e-15 1.64701041e-12 2.26145657e-14 1.62688090e-12
5.24807460e+00 2.83649421e-12 1.34518114e-12 9.88561149e-16 1.49032451e-12 1.38394094e-14 1.34518114e-12
6.02559586e+00 2.21905075e-12 8.88752369e-13 4.22474637e-16 1.32987590e-12 8.02813389e-15 8.88752369e-13
6.70000000e+00 1.85550538e-12 6.46481889e-13 2.16228845e-16 1.20880726e-12 5.05234450e-15 6.46481889e-13
6.92422916e+00 1.75709717e-12 5.85688198e-13 1.71804516e-16 1.17123716e-12 4.35783096e-15 5.85688198e-13
7.15596261e+00 1.67657345e-12 5.30611407e-13 1.33619809e-16 1.14582843e-12 3.71466586e-15 5.30611407e-13
7.39545150e+00 1.63213591e-12 4.80713913e-13 1.06379636e-16 1.15131562e-12 3.16824233e-15 4.80713913e-13
7.64295536e+00 1.67549749e-12 4.35508666e-13 7.38468035e-17 1.23991498e-12 2.67886378e-15 4.35508666e-13
7.89874245e+00 1.84253372e-12 3.94554418e-13 4.57284767e-17 1.44793358e-12 2.23537749e-15 3.94554418e-13
8.16308998e+00 2.10119525e-12 3.57451415e-13 2.78942095e-17 1.74371594e-12 1.84648259e-15 3.57451415e-13
8.43628443e+00 2.45637730e-12 3.23837494e-13 1.57922659e-17 2.13252401e-12 1.47190854e-15 3.23837494e-13
8.71862190e+00 2.68490397e-12 2.93384550e-13 1.04300121e-17 2.39150899e-12 1.16648385e-15 2.93384550e-13
9.01040836e+00 2.91256878e-12 2.65795332e-13 6.54237027e-18 2.64676690e-12 8.97129374e-16 2.65795332e-13
9.31196005e+00 3.06987304e-12 2.40800541e-13 0.00000000e+00 2.82907250e-12 0.00000000e+00 2.40800541e-13
9.62360379e+00 3.00935150e-12 2.18156204e-13 0.00000000e+00 2.79119529e-12 0.00000000e+00 2.18156204e-13
9.94567731e+00 2.79990365e-12 1.97641289e-13 0.00000000e+00 2.60226236e-12 0.00000000e+00 1.97641289e-13
1.02785297e+01 2.54626040e-12 1.79055550e-13 0.00000000e+00 2.36720485e-12 0.00000000e+00 1.79055550e-13
1.06225216e+01 2.30669873e-12 1.62217572e-13 0.00000000e+00 2.14448116e-12 0.00000000e+00 1.62217572e-13
1.09780260e+01 2.05224328e-12 1.46962999e-13 0.00000000e+00 1.90528029e-12 0.00000000e+00 1.46962999e-13
1.13454280e+01 1.82668501e-12 1.33142932e-13 0.00000000e+00 1.69354208e-12 0.00000000e+00 1.33142932e-13
1.17251259e+01 1.63960705e-12 1.20622472e-13 0.00000000e+00 1.51898457e-12 0.00000000e+00 1.20622472e-13
1.21175312e+01 1.47020217e-12 1.09279408e-13 0.00000000e+00 1.36092277e-12 0.00000000e+00 1.09279408e-13
1.25230691e+01 1.32123676e-12 9.90030204e-14 0.00000000e+00 1.22223374e-12 0.00000000e+00 9.90030204e-14
1.29421791e+01 1.19432621e-12 8.96930008e-14 0.00000000e+00 1.10463321e-12 0.00000000e+00 8.96930008e-14
1.33753155e+01 1.08403064e-12 8.12584743e-14 0.00000000e+00 1.00277217e-12 0.00000000e+00 8.12584743e-14
1.38229477e+01 1.01149262e-12 7.36171115e-14 0.00000000e+00 9.37875506e-13 0.00000000e+00 7.36171115e-14
1.42855609e+01 9.70442946e-13 6.66943252e-14 0.00000000e+00 9.03748620e-13 0.00000000e+00 6.66943252e-14
1.47636563e+01 9.77595546e-13 6.04225420e-14 0.00000000e+00 9.17173004e-13 0.00000000e+00 6.04225420e-14
1.52577522e+01 9.96373216e-13 5.47405431e-14 0.00000000e+00 9.41632673e-13 0.00000000e+00 5.47405431e-14
1.57683840e+01 1.02698325e-12 4.95928665e-14 0.00000000e+00 9.77390383e-13 0.00000000e+00 4.95928665e-14
1.62961051e+01 1.05582399e-12 4.49292657e-14 0.00000000e+00 1.01089472e-12 0.00000000e+00 4.49292657e-14
1.68414875e+01 1.08677642e-12 4.07042194e-14 0.00000000e+00 1.04607220e-12 0.00000000e+00 4.07042194e-14
1.74051222e+01 1.10352371e-12 3.68764869e-14 0.00000000e+00 1.06664722e-12 0.00000000e+00 3.68764869e-14
1.79876201e+01 1.11115666e-12 3.34087056e-14 0.00000000e+00 1.07774796e-12 0.00000000e+00 3.34087056e-14
1.85896125e+01 1.10032268e-12 3.02670267e-14 0.00000000e+00 1.07005565e-12 0.00000000e+00 3.02670267e-14
1.92117518e+01 1.07972372e-12 2.74207841e-14 0.00000000e+00 1.05230294e-12 0.00000000e+00 2.74207841e-14
1.98547123e+01 1.04559962e-12 2.48421957e-14 0.00000000e+00 1.02075743e-12 0.00000000e+00 2.48421957e-14
2.05191907e+01 1.00958036e-12 2.25060919e-14 0.00000000e+00 9.87074266e-13 0.00000000e+00 2.25060919e-14
2.12059073e+01 9.76599274e-13 2.03896700e-14 0.00000000e+00 9.56209604e-13 0.00000000e+00 2.03896700e-14
2.19156062e+01 9.46930721e-13 1.84722717e-14 0.00000000e+00 9.28458450e-13 0.00000000e+00 1.84722717e-14
2.26490567e+01 9.20158285e-13 1.67351811e-14 0.00000000e+00 9.03423104e-13 0.00000000e+00 1.67351811e-14
2.34070535e+01 8.94844136e-13 1.51614426e-14 0.00000000e+00 8.79682693e-13 0.00000000e+00 1.51614426e-14
2.41904183e+01 8.71982932e-13 1.37356949e-14 0.00000000e+00 8.58247237e-13 0.00000000e+00 1.37356949e-14
2.50000000e+01 8.50028382e-13 1.24440213e-14 0.00000000e+00 8.37584360e-13 0.00000000e+00 1.24440213e-14
2.75422870e+01 7.85835953e-13 9.30637977e-15 0.00000000e+00 7.76529573e-13 0.00000000e+00 9.30637977e-15
3.16227766e+01 6.90594985e-13 6.14866414e-15 0.00000000e+00 6.84446321e-13 0.00000000e+00 6.14866414e-15
3.63078055e+01 5.78410382e-13 4.06238211e-15 0.00000000e+00 5.74347999e-13 0.00000000e+00 4.06238211e-15
4.16869383e+01 4.53909598e-13 2.68398924e-15 0.00000000e+00 4.51225609e-13 0.00000000e+00 2.68398924e-15
4.78630092e+01 3.33039527e-13 1.77329411e-15 0.00000000e+00 3.31266233e-13 0.00000000e+00 1.77329411e-15
5.49540874e+01 2.30450347e-13 1.17160380e-15 0.00000000e+00 2.29278744e-13 0.00000000e+00 1.17160380e-15
6.30957344e+01 1.51709398e-13 7.74070953e-16 0.00000000e+00 1.50935327e-13 0.00000000e+00 7.74070953e-16
7.24435960e+01 9.57617438e-14 5.11423607e-16 0.00000000e+00 9.52503202e-14 0.00000000e+00 5.11423607e-16
8.31763771e+01 5.84953536e-14 3.37894226e-16 0.00000000e+00 5.81574593e-14 0.00000000e+00 3.37894226e-16
9.54992586e+01 3.48021379e-14 2.23244502e-16 0.00000000e+00 3.45788934e-14 0.00000000e+00 2.23244502e-16
1.09647820e+02 2.02753398e-14 1.47496179e-16 0.00000000e+00 2.01278436e-14 0.00000000e+00 1.47496179e-16
1.25892541e+02 1.17351504e-14 9.74497594e-17 0.00000000e+00 1.16377006e-14 0.00000000e+00 9.74497594e-17
1.44543977e+02 6.71503004e-15 6.43844175e-17 0.00000000e+00 6.65064562e-15 0.00000000e+00 6.43844175e-17
1.65958691e+02 3.64634133e-15 4.25383628e-17 0.00000000e+00 3.60380297e-15 0.00000000e+00 4.25383628e-17
1.90546072e+02 1.97319637e-15 2.81048176e-17 0.00000000e+00 1.94509155e-15 0.00000000e+00 2.81048176e-17
2.18776162e+02 1.06219014e-15 1.85686688e-17 0.00000000e+00 1.04362147e-15 0.00000000e+00 1.85686688e-17
2.51188643e+02 5.68292234e-16 1.22681978e-17 0.00000000e+00 5.56024036e-16 0.00000000e+00 1.22681978e-17
2.88403150e+02 3.01989040e-16 8.10551794e-18 0.00000000e+00 2.93883522e-16 0.00000000e+00 8.10551794e-18
3.31131121e+02 1.59838643e-16 5.35526259e-18 0.00000000e+00 1.54483381e-16 0.00000000e+00 5.35526259e-18
3.80189396e+02 8.42364789e-17 3.53818691e-18 0.00000000e+00 8.06982920e-17 0.00000000e+00 3.53818691e-18
4.36515832e+02 4.42986292e-17 2.33765691e-18 0.00000000e+00 4.19609723e-17 0.00000000e+00 2.33765691e-18
5.01187234e+02 2.32640077e-17 1.54447460e-18 0.00000000e+00 2.17195331e-17 0.00000000e+00 1.54447460e-18
5.75439937e+02 1.22199829e-17 1.02042425e-18 0.00000000e+00 1.11995586e-17 0.00000000e+00 1.02042425e-18
6.60693448e+02 6.43015517e-18 6.74187617e-19 0.00000000e+00 5.75596755e-18 0.00000000e+00 6.74187617e-19
7.58577575e+02 3.39521646e-18 4.45431341e-19 0.00000000e+00 2.94978512e-18 0.00000000e+00 4.45431341e-19
8.70963590e+02 1.80185942e-18 2.94293569e-19 0.00000000e+00 1.50756585e-18 0.00000000e+00 2.94293569e-19
1.00000000e+03 7.68562934e-19 0.00000000e+00 0.00000000e+00 7.68562934e-19 0.00000000e+00 0.00000000e+00
