# column 1: lambda (micron)
# column 2: total flux; lambda*F_lambda (W/m2)
# column 3: direct stellar flux; lambda*F_lambda (W/m2)
# column 4: scattered stellar flux; lambda*F_lambda (W/m2)
# column 5: total dust emission flux; lambda*F_lambda (W/m2)
# column 6: dust emission scattered flux; lambda*F_lambda (W/m2)
# column 7: transparent flux; lambda*F_lambda (W/m2)
1.00000000e-03 9.68073385e-13 9.68073281e-13 1.03799437e-19 0.00000000e+00 0.00000000e+00 9.68073281e-13
1.14815362e-03 1.14263703e-12 1.14263687e-12 1.63987672e-19 0.00000000e+00 0.00000000e+00 1.14263687e-12
1.31825674e-03 1.34867814e-12 1.34867788e-12 2.62977294e-19 0.00000000e+00 0.00000000e+00 1.34867788e-12
1.51356125e-03 1.59187272e-12 1.59187233e-12 3.91983654e-19 0.00000000e+00 0.00000000e+00 1.59187233e-12
1.73780083e-03 1.87892050e-12 1.87891976e-12 7.36529286e-19 0.00000000e+00 0.00000000e+00 1.87891976e-12
1.99526231e-03 2.21772915e-12 2.21772777e-12 1.38588416e-18 0.00000000e+00 0.00000000e+00 2.21772777e-12
2.29086765e-03 2.61763192e-12 2.61762985e-12 2.07874803e-18 0.00000000e+00 0.00000000e+00 2.61762985e-12
2.63026799e-03 3.08964691e-12 3.08964252e-12 4.38798424e-18 0.00000000e+00 0.00000000e+00 3.08964252e-12
3.01995172e-03 3.64677639e-12 3.64676883e-12 7.56723841e-18 0.00000000e+00 0.00000000e+00 3.64676883e-12
3.46736850e-03 4.30436892e-12 4.30435650e-12 1.24180382e-17 0.00000000e+00 0.00000000e+00 4.30435650e-12
3.98107171e-03 5.08054138e-12 5.08052080e-12 2.05832948e-17 0.00000000e+00 0.00000000e+00 5.08052080e-12
4.57088190e-03 5.99668665e-12 5.99664354e-12 4.31116828e-17 0.00000000e+00 0.00000000e+00 5.99664354e-12
5.24807460e-03 7.07804297e-12 7.07796211e-12 8.08548632e-17 0.00000000e+00 0.00000000e+00 7.07796211e-12
6.02559586e-03 8.35441135e-12 8.35426474e-12 1.46611235e-16 0.00000000e+00 0.00000000e+00 8.35426474e-12
6.91830971e-03 9.86093852e-12 9.86071107e-12 2.27452145e-16 0.00000000e+00 0.00000000e+00 9.86071107e-12
7.94328235e-03 1.16391852e-11 1.16388008e-11 3.84444489e-16 0.00000000e+00 0.00000000e+00 1.16388008e-11
9.12010839e-03 1.37381362e-11 1.37375167e-11 6.19483119e-16 0.00000000e+00 0.00000000e+00 1.37375167e-11
1.04712855e-02 1.53438110e-11 1.53429287e-11 8.82305879e-16 0.00000000e+00 0.00000000e+00 1.53429287e-11
1.20226443e-02 1.53442399e-11 1.53429287e-11 1.31127081e-15 0.00000000e+00 0.00000000e+00 1.53429287e-11
1.38038426e-02 1.53447868e-11 1.53429287e-11 1.85811396e-15 5.57037851e-289 1.40198042e-290 1.53429287e-11
1.58489319e-02 1.53455252e-11 1.53429287e-11 2.59650767e-15 2.79813790e-252 6.04097630e-254 1.53429287e-11
1.81970086e-02 1.53464716e-11 1.53429287e-11 3.54292796e-15 2.46715708e-220 6.83368677e-222 1.53429287e-11
2.08929613e-02 1.53477363e-11 1.53429287e-11 4.80762664e-15 1.45716964e-192 3.92349947e-194 1.53429287e-11
2.39883292e-02 1.53500420e-11 1.53429287e-11 7.11336625e-15 2.17956491e-168 7.20585001e-170 1.53429287e-11
2.75422870e-02 1.53517402e-11 1.53429287e-11 8.81156516e-15 2.37259204e-147 8.71920921e-149 1.53429287e-11
3.16227766e-02 1.53559065e-11 1.53429287e-11 1.29778686e-14 4.66177321e-129 1.87956858e-130 1.53429287e-11
3.63078055e-02 1.53569453e-11 1.53429287e-11 1.40166310e-14 3.72890537e-113 1.67690032e-114 1.53429287e-11
4.16869383e-02 1.53630245e-11 1.53429287e-11 2.00957952e-14 2.47383945e-99 1.31258979e-100 1.53429287e-11
4.78630092e-02 1.53698401e-11 1.53429287e-11 2.69114794e-14 2.51553375e-87 1.66088271e-88 1.53429287e-11
5.49540874e-02 1.53798372e-11 1.53429287e-11 3.69085311e-14 6.70964495e-77 5.25234857e-78 1.53429287e-11
6.30957344e-02 1.53896764e-11 1.53429287e-11 4.67477096e-14 9.90637088e-68 9.00494578e-69 1.53429287e-11
7.24435960e-02 1.53888371e-11 1.53429287e-11 4.59084382e-14 8.72600087e-60 7.61528030e-61 1.53429287e-11
8.31763771e-02 1.53895056e-11 1.53429287e-11 4.65769412e-14 5.36189356e-53 4.56752601e-54 1.53429287e-11
9.54992586e-02 1.53923473e-11 1.53429287e-11 4.94186484e-14 3.99238449e-47 3.51579820e-48 1.53429287e-11
1.09647820e-01 1.47017682e-11 1.46523889e-11 4.93793185e-14 4.40087469e-42 4.13765210e-43 1.46523889e-11
1.25892541e-01 1.37160382e-11 1.36744049e-11 4.16332609e-14 9.83342982e-38 8.81801170e-39 1.36744049e-11
1.44543977e-01 1.28008300e-11 1.27616972e-11 3.91328031e-14 5.33864739e-34 4.48652938e-35 1.27616972e-11
1.65958691e-01 1.19501426e-11 1.19099088e-11 4.02338282e-14 6.73047376e-31 6.11241538e-32 1.19099088e-11
1.90546072e-01 1.11622287e-11 1.11149736e-11 4.72551045e-14 2.33661629e-28 2.54069642e-29 1.11149736e-11
2.18776162e-01 1.04233837e-11 1.03730969e-11 5.02867105e-14 3.17834417e-26 3.76059951e-27 1.03730969e-11
2.51188643e-01 9.73971611e-12 9.68073733e-12 5.89787807e-14 3.32633972e-24 4.66778043e-25 9.68073733e-12
2.88403150e-01 9.08609625e-12 9.03458975e-12 5.15064951e-14 1.83289405e-22 2.52237810e-23 9.03458975e-12
3.31131121e-01 8.47632841e-12 8.43156974e-12 4.47586630e-14 5.66603815e-21 7.67065050e-22 8.43156974e-12
3.80189396e-01 7.90978411e-12 7.86879872e-12 4.09852741e-14 1.08635660e-19 1.48154400e-20 7.86879872e-12
4.36515832e-01 7.38124790e-12 7.34359025e-12 3.76562572e-14 1.39271746e-18 1.95279958e-19 7.34359025e-12
5.01187234e-01 6.88816098e-12 6.85343719e-12 3.47112527e-14 1.25415452e-17 1.78730454e-18 6.85343719e-12
5.75439937e-01 6.42907688e-12 6.39599973e-12 3.29943384e-14 8.28134330e-17 1.18278774e-17 6.39599973e-12
6.60693448e-01 5.99933113e-12 5.96909425e-12 2.98218205e-14 4.15051361e-16 5.88414297e-17 5.96909425e-12
7.58577575e-01 5.59975121e-12 5.57068288e-12 2.74243932e-14 1.64392768e-15 2.25752243e-16 5.57068288e-12
8.70963590e-01 5.22864829e-12 5.19886376e-12 2.44610138e-14 5.32351057e-15 7.00101352e-16 5.19886376e-12
1.00000000e+00 4.88726065e-12 4.85186196e-12 2.10614816e-14 1.43372055e-14 1.76059327e-15 4.85186196e-12
1.14815362e+00 4.57956776e-12 4.52802104e-12 1.79606987e-14 3.35860126e-14 3.71144361e-15 4.52802104e-12
1.31825674e+00 4.31016197e-12 4.22579511e-12 1.43696024e-14 6.99972530e-14 6.81606765e-15 4.22579511e-12
1.51356125e+00 4.08446275e-12 3.94374146e-12 1.10673643e-14 1.29653922e-13 1.09022616e-14 3.94374146e-12
1.73780083e+00 3.90088793e-12 3.68051368e-12 8.44933249e-15 2.11924911e-13 1.47172126e-14 3.68051368e-12
1.99526231e+00 3.74946667e-12 3.43485522e-12 5.96452632e-15 3.08646919e-13 1.71361972e-14 3.43485522e-12
2.29086765e+00 3.61384280e-12 3.20559341e-12 3.98349719e-15 4.04265892e-13 1.72868545e-14 3.20559341e-12
2.63026799e+00 3.47745827e-12 2.99163384e-12 2.73252445e-15 4.83091908e-13 1.51737875e-14 2.99163384e-12
3.01995172e+00 3.32655101e-12 2.79195514e-12 1.79571792e-15 5.32800149e-13 1.23392394e-14 2.79195514e-12
3.46736850e+00 3.15637493e-12 2.60560415e-12 1.13495851e-15 5.49635821e-13 9.06400775e-15 2.60560415e-12
3.98107171e+00 2.96569493e-12 2.43169128e-12 7.07415525e-16 5.33296243e-13 6.14969331e-15 2.43169128e-12
4.57088190e+00 2.76285104e-12 2.26938634e-12 4.78494171e-16 4.92986205e-13 3.89436928e-15 2.26938634e-12
5.24807460e+00 2.31702455e-12 1.87643467e-12 2.54374033e-16 4.40335503e-13 2.30821506e-15 1.87643467e-12
6.02559586e+00 1.62686474e-12 1.23974809e-12 1.06205413e-16 3.87010442e-13 1.28396385e-15 1.23974809e-12
6.70000000e+00 1.24817588e-12 9.01797527e-13 5.30013248e-17 3.46325347e-13 7.86670295e-16 9.01797527e-13
6.92422916e+00 1.15071316e-12 8.16994532e-13 4.09816132e-17 3.33677647e-13 6.77367160e-16 8.16994532e-13
7.15596261e+00 1.06563376e-12 7.40166218e-13 3.19678149e-17 3.25435572e-13 5.69213947e-16 7.40166218e-13
7.39545150e+00 9.97632974e-13 6.70562664e-13 2.49537480e-17 3.27045357e-13 4.81443204e-16 6.70562664e-13
7.64295536e+00 9.63524906e-13 6.07504471e-13 1.89709166e-17 3.56001464e-13 4.13161301e-16 6.07504471e-13
7.89874245e+00 9.78203221e-13 5.50376127e-13 1.18757925e-17 4.27815218e-13 3.52979900e-16 5.50376127e-13
8.16308998e+00 1.03214317e-12 4.98620004e-13 7.10120010e-18 5.33516063e-13 3.02875542e-16 4.98620004e-13
8.43628443e+00 1.13438467e-12 4.51730909e-13 4.06944151e-18 6.82649688e-13 2.50008960e-16 4.51730909e-13
8.71862190e+00 1.19591407e-12 4.09251158e-13 2.72359116e-18 7.86660193e-13 2.00532767e-16 4.09251158e-13
9.01040836e+00 1.26707605e-12 3.70766106e-13 1.79306427e-18 8.96308153e-13 1.56348232e-16 3.70766106e-13
9.31196005e+00 1.31655230e-12 3.35900102e-13 0.00000000e+00 9.80652194e-13 0.00000000e+00 3.35900102e-13
9.62360379e+00 1.27655906e-12 3.04312818e-13 0.00000000e+00 9.72246238e-13 0.00000000e+00 3.04312818e-13
9.94567731e+00 1.16844587e-12 2.75695930e-13 0.00000000e+00 8.92749938e-13 0.00000000e+00 2.75695930e-13
1.02785297e+01 1.04886935e-12 2.49770110e-13 0.00000000e+00 7.99099245e-13 0.00000000e+00 2.49770110e-13
1.06225216e+01 9.35155746e-13 2.26282295e-13 0.00000000e+00 7.08873452e-13 0.00000000e+00 2.26282295e-13
1.09780260e+01 8.17477500e-13 2.05003220e-13 0.00000000e+00 6.12474279e-13 0.00000000e+00 2.05003220e-13
1.13454280e+01 7.15487534e-13 1.85725182e-13 0.00000000e+00 5.29762352e-13 0.00000000e+00 1.85725182e-13
1.17251259e+01 6.29115991e-13 1.68260007e-13 0.00000000e+00 4.60855984e-13 0.00000000e+00 1.68260007e-13
1.21175312e+01 5.52980824e-13 1.52437217e-13 0.00000000e+00 4.00543607e-13 0.00000000e+00 1.52437217e-13
1.25230691e+01 4.85674042e-13 1.38102367e-13 0.00000000e+00 3.47571675e-13 0.00000000e+00 1.38102367e-13
1.29421791e+01 4.29942574e-13 1.25115533e-13 0.00000000e+00 3.04827040e-13 0.00000000e+00 1.25115533e-13
1.33753155e+01 3.81981057e-13 1.13349952e-13 0.00000000e+00 2.68631105e-13 0.00000000e+00 1.13349952e-13
1.38229477e+01 3.48182593e-13 1.02690779e-13 0.00000000e+00 2.45491814e-13 0.00000000e+00 1.02690779e-13
1.42855609e+01 3.25299295e-13 9.30339713e-14 0.00000000e+00 2.32265323e-13 0.00000000e+00 9.30339713e-14
1.47636563e+01 3.19327726e-13 8.42852675e-14 0.00000000e+00 2.35042458e-13 0.00000000e+00 8.42852675e-14
1.52577522e+01 3.17395460e-13 7.63592720e-14 0.00000000e+00 2.41036188e-13 0.00000000e+00 7.63592720e-14
1.57683840e+01 3.18974522e-13 6.91786191e-14 0.00000000e+00 2.49795903e-13 0.00000000e+00 6.91786191e-14
1.62961051e+01 3.21428571e-13 6.26732185e-14 0.00000000e+00 2.58755352e-13 0.00000000e+00 6.26732185e-14
1.68414875e+01 3.24701369e-13 5.67795711e-14 0.00000000e+00 2.67921798e-13 0.00000000e+00 5.67795711e-14
1.74051222e+01 3.23738994e-13 5.14401489e-14 0.00000000e+00 2.72298846e-13 0.00000000e+00 5.14401489e-14
1.79876201e+01 3.19510590e-13 4.66028339e-14 0.00000000e+00 2.72907756e-13 0.00000000e+00 4.66028339e-14
1.85896125e+01 3.10824451e-13 4.22204090e-14 0.00000000e+00 2.68604042e-13 0.00000000e+00 4.22204090e-14
1.92117518e+01 2.96621194e-13 3.82500974e-14 0.00000000e+00 2.58371096e-13 0.00000000e+00 3.82500974e-14
1.98547123e+01 2.80241795e-13 3.46531450e-14 0.00000000e+00 2.45588650e-13 0.00000000e+00 3.46531450e-14
2.05191907e+01 2.63897387e-13 3.13944418e-14 0.00000000e+00 2.32502945e-13 0.00000000e+00 3.13944418e-14
2.12059073e+01 2.48692077e-13 2.84421796e-14 0.00000000e+00 2.20249897e-13 0.00000000e+00 2.84421796e-14
2.19156062e+01 2.35312375e-13 2.57675415e-14 0.00000000e+00 2.09544833e-13 0.00000000e+00 2.57675415e-14
2.26490567e+01 2.23340662e-13 2.33444203e-14 0.00000000e+00 1.99996242e-13 0.00000000e+00 2.33444203e-14
2.34070535e+01 2.12712662e-13 2.11491639e-14 0.00000000e+00 1.91563498e-13 0.00000000e+00 2.11491639e-14
2.41904183e+01 2.02934571e-13 1.91603445e-14 0.00000000e+00 1.83774226e-13 0.00000000e+00 1.91603445e-14
2.50000000e+01 1.94166870e-13 1.73585491e-14 0.00000000e+00 1.76808321e-13 0.00000000e+00 1.73585491e-14
2.75422870e+01 1.71630188e-13 1.29817562e-14 0.00000000e+00 1.58648432e-13 0.00000000e+00 1.29817562e-14
3.16227766e+01 1.44969820e-13 8.57696126e-15 0.00000000e+00 1.36392859e-13 0.00000000e+00 8.57696126e-15
3.63078055e+01 1.19695991e-13 5.66674211e-15 0.00000000e+00 1.14029249e-13 0.00000000e+00 5.66674211e-15
4.16869383e+01 9.45416477e-14 3.74397938e-15 0.00000000e+00 9.07976684e-14 0.00000000e+00 3.74397938e-15
4.78630092e+01 7.09738977e-14 2.47362265e-15 0.00000000e+00 6.85002750e-14 0.00000000e+00 2.47362265e-15
5.49540874e+01 5.08430885e-14 1.63430628e-15 0.00000000e+00 4.92087822e-14 0.00000000e+00 1.63430628e-15
6.30957344e+01 3.49581425e-14 1.07977545e-15 0.00000000e+00 3.38783671e-14 0.00000000e+00 1.07977545e-15
7.24435960e+01 2.31575844e-14 7.13400564e-16 0.00000000e+00 2.24441838e-14 0.00000000e+00 7.13400564e-16
8.31763771e+01 1.48539253e-14 4.71339078e-16 0.00000000e+00 1.43825862e-14 0.00000000e+00 4.71339078e-16
9.54992586e+01 9.27410886e-15 3.11410641e-16 0.00000000e+00 8.96269822e-15 0.00000000e+00 3.11410641e-16
1.09647820e+02 5.65517767e-15 2.05746970e-16 0.00000000e+00 5.44943070e-15 0.00000000e+00 2.05746970e-16
1.25892541e+02 3.41272112e-15 1.35935675e-16 0.00000000e+00 3.27678544e-15 0.00000000e+00 1.35935675e-16
1.44543977e+02 2.02939229e-15 8.98118099e-17 0.00000000e+00 1.93958048e-15 0.00000000e+00 8.98118099e-17
1.65958691e+02 1.14387029e-15 5.93380743e-17 0.00000000e+00 1.08453221e-15 0.00000000e+00 5.93380743e-17
1.90546072e+02 6.40837796e-16 3.92042769e-17 0.00000000e+00 6.01633519e-16 0.00000000e+00 3.92042769e-17
2.18776162e+02 3.56492181e-16 2.59020089e-17 0.00000000e+00 3.30590172e-16 0.00000000e+00 2.59020089e-17
2.51188643e+02 1.96903569e-16 1.71132876e-17 0.00000000e+00 1.79790282e-16 0.00000000e+00 1.71132876e-17
2.88403150e+02 1.08039175e-16 1.13066370e-17 0.00000000e+00 9.67325383e-17 0.00000000e+00 1.13066370e-17
3.31131121e+02 5.91027071e-17 7.47022097e-18 0.00000000e+00 5.16324861e-17 0.00000000e+00 7.47022097e-18
3.80189396e+02 3.22649142e-17 4.93552605e-18 0.00000000e+00 2.73293882e-17 0.00000000e+00 4.93552605e-18
4.36515832e+02 1.76337846e-17 3.26086972e-18 0.00000000e+00 1.43729149e-17 0.00000000e+00 3.26086972e-18
5.01187234e+02 9.66714418e-18 2.15443526e-18 0.00000000e+00 7.51270892e-18 0.00000000e+00 2.15443526e-18
5.75439937e+02 5.33008202e-18 1.42342126e-18 0.00000000e+00 3.90666076e-18 0.00000000e+00 1.42342126e-18
6.60693448e+02 2.96290016e-18 9.40445101e-19 0.00000000e+00 2.02245506e-18 0.00000000e+00 9.40445101e-19
7.58577575e+02 1.66432397e-18 6.21345916e-19 0.00000000e+00 1.04297806e-18 0.00000000e+00 6.21345916e-19
8.70963590e+02 9.46455741e-19 4.10519176e-19 0.00000000e+00 5.35936565e-19 0.00000000e+00 4.10519176e-19
1.00000000e+03 2.74504410e-19 0.00000000e+00 0.00000000e+00 2.74504410e-19 0.00000000e+00 0.00000000e+00
