# column 1: lambda (micron)
# column 2: total flux; lambda*F_lambda (W/m2)
# column 3: direct stellar flux; lambda*F_lambda (W/m2)
# column 4: scattered stellar flux; lambda*F_lambda (W/m2)
# column 5: total dust emission flux; lambda*F_lambda (W/m2)
# column 6: dust emission scattered flux; lambda*F_lambda (W/m2)
# column 7: transparent flux; lambda*F_lambda (W/m2)
1.00000000e-03 8.46529633e-13 8.46529401e-13 2.31635291e-19 0.00000000e+00 0.00000000e+00 8.46529401e-13
1.14815362e-03 9.99176495e-13 9.99176121e-13 3.74154563e-19 0.00000000e+00 0.00000000e+00 9.99176121e-13
1.31825674e-03 1.17934877e-12 1.17934819e-12 5.74122236e-19 0.00000000e+00 0.00000000e+00 1.17934819e-12
1.51356125e-03 1.39200994e-12 1.39200901e-12 9.26885318e-19 0.00000000e+00 0.00000000e+00 1.39200901e-12
1.73780083e-03 1.64301854e-12 1.64301696e-12 1.57897802e-18 0.00000000e+00 0.00000000e+00 1.64301696e-12
1.99526231e-03 1.93928980e-12 1.93928682e-12 2.97679695e-18 0.00000000e+00 0.00000000e+00 1.93928682e-12
2.29086765e-03 2.28898506e-12 2.28898025e-12 4.80777524e-18 0.00000000e+00 0.00000000e+00 2.28898025e-12
2.63026799e-03 2.70174016e-12 2.70173063e-12 9.53150395e-18 0.00000000e+00 0.00000000e+00 2.70173063e-12
3.01995172e-03 3.18892505e-12 3.18890841e-12 1.66334425e-17 0.00000000e+00 0.00000000e+00 3.18890841e-12
3.46736850e-03 3.76396299e-12 3.76393440e-12 2.85886373e-17 0.00000000e+00 0.00000000e+00 3.76393440e-12
3.98107171e-03 4.44269575e-12 4.44264945e-12 4.62973718e-17 0.00000000e+00 0.00000000e+00 4.44264945e-12
4.57088190e-03 5.24402178e-12 5.24375082e-12 2.70963005e-16 0.00000000e+00 0.00000000e+00 5.24375082e-12
5.24807460e-03 6.18948125e-12 6.18930730e-12 1.73943523e-16 0.00000000e+00 0.00000000e+00 6.18930730e-12
6.02559586e-03 7.30569264e-12 7.30536713e-12 3.25506385e-16 0.00000000e+00 0.00000000e+00 7.30536713e-12
6.91830971e-03 8.62319754e-12 8.62267558e-12 5.21961097e-16 0.00000000e+00 0.00000000e+00 8.62267558e-12
7.94328235e-03 1.01784021e-11 1.01775219e-11 8.80175452e-16 2.21013650e-304 1.41561707e-307 1.01775219e-11
9.12010839e-03 1.20142588e-11 1.20127391e-11 1.51963240e-15 9.61897581e-266 9.06492763e-269 1.20127391e-11
1.04712855e-02 1.34184911e-11 1.34165878e-11 1.90322927e-15 4.03886073e-232 4.40099228e-235 1.34165878e-11
1.20226443e-02 1.34195222e-11 1.34165878e-11 2.93437201e-15 6.29188532e-203 1.18810167e-205 1.34165878e-11
1.38038426e-02 1.34307033e-11 1.34165878e-11 1.41154104e-14 1.70618385e-177 4.68108192e-180 1.34165878e-11
1.58489319e-02 1.34227388e-11 1.34165878e-11 6.15098757e-15 2.29810988e-155 8.11239955e-158 1.34165878e-11
1.81970086e-02 1.34248271e-11 1.34165878e-11 8.23922993e-15 4.08898699e-136 2.28991701e-138 1.34165878e-11
2.08929613e-02 1.34280780e-11 1.34165878e-11 1.14901617e-14 2.12971250e-119 1.54479373e-121 1.34165878e-11
2.39883292e-02 1.34339847e-11 1.34165878e-11 1.73968269e-14 7.45833465e-105 7.33241449e-107 1.34165878e-11
2.75422870e-02 1.34377992e-11 1.34165878e-11 2.12113926e-14 3.33478616e-92 4.39035876e-94 1.34165878e-11
3.16227766e-02 1.34428455e-11 1.34165878e-11 2.62576948e-14 3.24685955e-81 5.20158335e-83 1.34165878e-11
3.63078055e-02 1.34469795e-11 1.34165878e-11 3.03916423e-14 1.12498116e-71 2.12312598e-73 1.34165878e-11
4.16869383e-02 1.34596882e-11 1.34165878e-11 4.31004037e-14 2.14224001e-63 5.66441476e-65 1.34165878e-11
4.78630092e-02 1.34756709e-11 1.34165878e-11 5.90830589e-14 3.25004032e-56 1.20899807e-57 1.34165878e-11
5.49540874e-02 1.34897880e-11 1.34165878e-11 7.32001693e-14 5.42239026e-50 2.53695196e-51 1.34165878e-11
6.30957344e-02 1.35085007e-11 1.34165878e-11 9.19128518e-14 1.76642605e-44 1.05183043e-45 1.34165878e-11
7.24435960e-02 1.35060514e-11 1.34165878e-11 8.94636078e-14 1.02525708e-39 6.06089642e-41 1.34165878e-11
8.31763771e-02 1.35039106e-11 1.34165878e-11 8.73227912e-14 1.04911707e-35 6.21118864e-37 1.34165878e-11
9.54992586e-02 1.35123784e-11 1.34165878e-11 9.57905333e-14 2.95660931e-32 1.84567987e-33 1.34165878e-11
1.09647820e-01 1.29063346e-11 1.28127470e-11 9.35876166e-14 2.49966633e-29 1.62807521e-30 1.28127470e-11
1.25892541e-01 1.20386127e-11 1.19575512e-11 8.10614857e-14 8.04015551e-27 4.80214200e-28 1.19575512e-11
1.44543977e-01 1.12329900e-11 1.11594361e-11 7.35539339e-14 1.09111287e-24 6.23829391e-26 1.11594361e-11
1.65958691e-01 1.04915801e-11 1.04145917e-11 7.69883594e-14 5.52674608e-23 3.53170329e-24 1.04145917e-11
1.90546072e-01 9.80927760e-12 9.71946251e-12 8.98150874e-14 1.16995308e-21 9.23744071e-23 9.71946251e-12
2.18776162e-01 9.16043964e-12 9.07073019e-12 8.97094358e-14 1.39512172e-20 1.22688746e-21 9.07073019e-12
2.51188643e-01 8.56753298e-12 8.46529796e-12 1.02234845e-13 1.69515512e-19 1.80414713e-20 8.46529796e-12
2.88403150e-01 7.99191835e-12 7.90027573e-12 9.16412184e-14 1.40192524e-18 1.41511652e-19 7.90027573e-12
3.31131121e-01 7.45714740e-12 7.37296631e-12 8.41730941e-14 7.99958076e-18 7.66898610e-19 7.37296631e-12
3.80189396e-01 6.95557944e-12 6.88085251e-12 7.46936300e-14 3.32934270e-17 3.10571301e-18 6.88085251e-12
4.36515832e-01 6.48911815e-12 6.42158520e-12 6.74275476e-14 1.05397919e-16 9.57538013e-18 6.42158520e-12
5.01187234e-01 6.05670151e-12 5.99297201e-12 6.34621282e-14 2.67374806e-16 2.44947433e-17 5.99297201e-12
5.75439937e-01 5.65300327e-12 5.59296690e-12 5.94528425e-14 5.83527931e-16 5.53393284e-17 5.59296690e-12
6.60693448e-01 5.27563605e-12 5.21966041e-12 5.47630588e-14 1.21257700e-15 1.25257861e-16 5.21966041e-12
7.58577575e-01 4.92316103e-12 4.87127053e-12 4.92108186e-14 2.67967746e-15 3.11073169e-16 4.87127053e-12
8.70963590e-01 4.59615669e-12 4.54613417e-12 4.35991426e-14 6.42337008e-15 8.04011302e-16 4.54613417e-12
1.00000000e+00 4.29472845e-12 4.24269927e-12 3.65321437e-14 1.54970361e-14 1.94202321e-15 4.24269927e-12
1.14815362e+00 4.02605157e-12 3.95951734e-12 3.06220458e-14 3.59121810e-14 4.31562373e-15 3.95951734e-12
1.31825674e+00 3.79764430e-12 3.69523659e-12 2.49444250e-14 7.74632883e-14 8.39755822e-15 3.69523659e-12
1.51356125e+00 3.61904589e-12 3.44859544e-12 1.96533560e-14 1.50797097e-13 1.43812578e-14 3.44859544e-12
1.73780083e+00 3.49453913e-12 3.21841652e-12 1.48749832e-14 2.61247621e-13 2.09569646e-14 3.21841652e-12
1.99526231e+00 3.42185878e-12 3.00360106e-12 1.09448206e-14 4.07312898e-13 2.64897164e-14 3.00360106e-12
2.29086765e+00 3.38049626e-12 2.80312361e-12 7.83730492e-15 5.69535344e-13 2.91621824e-14 2.80312361e-12
2.63026799e+00 3.35314950e-12 2.61602716e-12 5.48830962e-15 7.31634028e-13 2.87749990e-14 2.61602716e-12
3.01995172e+00 3.31258003e-12 2.44141860e-12 3.73516197e-15 8.67426270e-13 2.60829271e-14 2.44141860e-12
3.46736850e+00 3.24880593e-12 2.27846441e-12 2.55357511e-15 9.67787942e-13 2.17806742e-14 2.27846441e-12
3.98107171e+00 3.15391264e-12 2.12638671e-12 1.72834964e-15 1.02579758e-12 1.74415484e-14 2.12638671e-12
4.57088190e+00 3.02377494e-12 1.98445954e-12 1.19539177e-15 1.03812001e-12 1.27633309e-14 1.98445954e-12
5.24807460e+00 2.66085366e-12 1.64084388e-12 6.80512183e-16 1.01932927e-12 8.88331765e-15 1.64084388e-12
6.02559586e+00 2.06330965e-12 1.08409480e-12 2.96339896e-16 9.78918512e-13 5.72557219e-15 1.08409480e-12
6.70000000e+00 1.72975933e-12 7.88574724e-13 1.53388904e-16 9.41031217e-13 3.93283863e-15 7.88574724e-13
6.92422916e+00 1.64030885e-12 7.14418944e-13 1.26803369e-16 9.25763104e-13 3.46159500e-15 7.14418944e-13
7.15596261e+00 1.56364276e-12 6.47236606e-13 9.93618026e-17 9.16306789e-13 3.02667413e-15 6.47236606e-13
7.39545150e+00 1.51035550e-12 5.86371942e-13 7.65214829e-17 9.23907034e-13 2.58073905e-15 5.86371942e-13
7.64295536e+00 1.51037596e-12 5.31230854e-13 5.33492762e-17 9.79091761e-13 2.13600568e-15 5.31230854e-13
7.89874245e+00 1.59268262e-12 4.81275108e-13 3.06318472e-17 1.11137688e-12 1.68785437e-15 4.81275108e-13
8.16308998e+00 1.74097159e-12 4.36017088e-13 1.83713761e-17 1.30493613e-12 1.30226786e-15 4.36017088e-13
8.43628443e+00 1.96415955e-12 3.95015029e-13 9.86264548e-18 1.56913466e-12 9.81682298e-16 3.95015029e-13
8.71862190e+00 2.12053860e-12 3.57868711e-13 6.40645977e-18 1.76266349e-12 7.70853962e-16 3.57868711e-13
9.01040836e+00 2.28775499e-12 3.24215549e-13 4.18223395e-18 1.96353526e-12 5.78259358e-16 3.24215549e-13
9.31196005e+00 2.42179868e-12 2.93727053e-13 0.00000000e+00 2.12807162e-12 0.00000000e+00 2.93727053e-13
9.62360379e+00 2.39034098e-12 2.66105627e-13 0.00000000e+00 2.12423535e-12 0.00000000e+00 2.66105627e-13
9.94567731e+00 2.24711228e-12 2.41081657e-13 0.00000000e+00 2.00603062e-12 0.00000000e+00 2.41081657e-13
1.02785297e+01 2.07162096e-12 2.18410884e-13 0.00000000e+00 1.85321007e-12 0.00000000e+00 2.18410884e-13
1.06225216e+01 1.89960493e-12 1.97872020e-13 0.00000000e+00 1.70173291e-12 0.00000000e+00 1.97872020e-13
1.09780260e+01 1.72524565e-12 1.79264583e-13 0.00000000e+00 1.54598107e-12 0.00000000e+00 1.79264583e-13
1.13454280e+01 1.56099565e-12 1.62406948e-13 0.00000000e+00 1.39858870e-12 0.00000000e+00 1.62406948e-13
1.17251259e+01 1.42781460e-12 1.47134567e-13 0.00000000e+00 1.28068003e-12 0.00000000e+00 1.47134567e-13
1.21175312e+01 1.30645518e-12 1.33298366e-13 0.00000000e+00 1.17315681e-12 0.00000000e+00 1.33298366e-13
1.25230691e+01 1.19604547e-12 1.20763289e-13 0.00000000e+00 1.07528218e-12 0.00000000e+00 1.20763289e-13
1.29421791e+01 1.10375448e-12 1.09406983e-13 0.00000000e+00 9.94347495e-13 0.00000000e+00 1.09406983e-13
1.33753155e+01 1.02282851e-12 9.91185987e-14 0.00000000e+00 9.23709916e-13 0.00000000e+00 9.91185987e-14
1.38229477e+01 9.69210020e-13 8.97977103e-14 0.00000000e+00 8.79412310e-13 0.00000000e+00 8.97977103e-14
1.42855609e+01 9.39570941e-13 8.13533371e-14 0.00000000e+00 8.58217604e-13 0.00000000e+00 8.13533371e-14
1.47636563e+01 9.45347589e-13 7.37030537e-14 0.00000000e+00 8.71644536e-13 0.00000000e+00 7.37030537e-14
1.52577522e+01 9.61089983e-13 6.67721855e-14 0.00000000e+00 8.94317798e-13 0.00000000e+00 6.67721855e-14
1.57683840e+01 9.88421398e-13 6.04930805e-14 0.00000000e+00 9.27928318e-13 0.00000000e+00 6.04930805e-14
1.62961051e+01 1.01225215e-12 5.48044484e-14 0.00000000e+00 9.57447699e-13 0.00000000e+00 5.48044484e-14
1.68414875e+01 1.03750900e-12 4.96507622e-14 0.00000000e+00 9.87858240e-13 0.00000000e+00 4.96507622e-14
1.74051222e+01 1.04707636e-12 4.49817171e-14 0.00000000e+00 1.00209465e-12 0.00000000e+00 4.49817171e-14
1.79876201e+01 1.05897810e-12 4.07517384e-14 0.00000000e+00 1.01822636e-12 0.00000000e+00 4.07517384e-14
1.85896125e+01 1.04646961e-12 3.69195372e-14 0.00000000e+00 1.00955007e-12 0.00000000e+00 3.69195372e-14
1.92117518e+01 1.02312643e-12 3.34477076e-14 0.00000000e+00 9.89678721e-13 0.00000000e+00 3.34477076e-14
1.98547123e+01 1.00000509e-12 3.03023610e-14 0.00000000e+00 9.69702732e-13 0.00000000e+00 3.03023610e-14
2.05191907e+01 9.62430727e-13 2.74527957e-14 0.00000000e+00 9.34977931e-13 0.00000000e+00 2.74527957e-14
2.12059073e+01 9.29294823e-13 2.48711970e-14 0.00000000e+00 9.04423626e-13 0.00000000e+00 2.48711970e-14
2.19156062e+01 8.99582443e-13 2.25323660e-14 0.00000000e+00 8.77050077e-13 0.00000000e+00 2.25323660e-14
2.26490567e+01 8.71518836e-13 2.04134733e-14 0.00000000e+00 8.51105362e-13 0.00000000e+00 2.04134733e-14
2.34070535e+01 8.42651254e-13 1.84938366e-14 0.00000000e+00 8.24157418e-13 0.00000000e+00 1.84938366e-14
2.41904183e+01 8.18167685e-13 1.67547181e-14 0.00000000e+00 8.01412966e-13 0.00000000e+00 1.67547181e-14
2.50000000e+01 7.89303447e-13 1.51791424e-14 0.00000000e+00 7.74124304e-13 0.00000000e+00 1.51791424e-14
2.75422870e+01 7.07037518e-13 1.13518661e-14 0.00000000e+00 6.95685652e-13 0.00000000e+00 1.13518661e-14
3.16227766e+01 5.85957491e-13 7.50010357e-15 0.00000000e+00 5.78457387e-13 0.00000000e+00 7.50010357e-15
3.63078055e+01 4.60860744e-13 4.95526929e-15 0.00000000e+00 4.55905474e-13 0.00000000e+00 4.95526929e-15
4.16869383e+01 3.38488410e-13 3.27391395e-15 0.00000000e+00 3.35214496e-13 0.00000000e+00 3.27391395e-15
4.78630092e+01 2.32450448e-13 2.16305350e-15 0.00000000e+00 2.30287394e-13 0.00000000e+00 2.16305350e-15
5.49540874e+01 1.50487517e-13 1.42911527e-15 0.00000000e+00 1.49058402e-13 0.00000000e+00 1.42911527e-15
6.30957344e+01 9.28852854e-14 9.44207098e-16 0.00000000e+00 9.19410783e-14 0.00000000e+00 9.44207098e-16
7.24435960e+01 5.51581103e-14 6.23831443e-16 0.00000000e+00 5.45342789e-14 0.00000000e+00 6.23831443e-16
8.31763771e+01 3.18348375e-14 4.12161347e-16 0.00000000e+00 3.14226762e-14 0.00000000e+00 4.12161347e-16
9.54992586e+01 1.79927013e-14 2.72312302e-16 0.00000000e+00 1.77203890e-14 0.00000000e+00 2.72312302e-16
1.09647820e+02 1.00037139e-14 1.79914953e-16 0.00000000e+00 9.82379892e-15 0.00000000e+00 1.79914953e-16
1.25892541e+02 5.55794356e-15 1.18868631e-16 0.00000000e+00 5.43907493e-15 0.00000000e+00 1.18868631e-16
1.44543977e+02 3.07047324e-15 7.85357256e-17 0.00000000e+00 2.99193751e-15 0.00000000e+00 7.85357256e-17
1.65958691e+02 1.61935732e-15 5.18880394e-17 0.00000000e+00 1.56746928e-15 0.00000000e+00 5.18880394e-17
1.90546072e+02 8.55610240e-16 3.42820876e-17 0.00000000e+00 8.21328153e-16 0.00000000e+00 3.42820876e-17
2.18776162e+02 4.52177326e-16 2.26499507e-17 0.00000000e+00 4.29527375e-16 0.00000000e+00 2.26499507e-17
2.51188643e+02 2.38758169e-16 1.49646740e-17 0.00000000e+00 2.23793495e-16 0.00000000e+00 1.49646740e-17
2.88403150e+02 1.25906644e-16 9.88706207e-18 0.00000000e+00 1.16019582e-16 0.00000000e+00 9.88706207e-18
3.31131121e+02 6.64991814e-17 6.53231713e-18 0.00000000e+00 5.99668643e-17 0.00000000e+00 6.53231713e-18
3.80189396e+02 3.51878322e-17 4.31585913e-18 0.00000000e+00 3.08719730e-17 0.00000000e+00 4.31585913e-18
4.36515832e+02 1.87029385e-17 2.85145985e-18 0.00000000e+00 1.58514786e-17 0.00000000e+00 2.85145985e-18
5.01187234e+02 9.99957731e-18 1.88394084e-18 0.00000000e+00 8.11563647e-18 0.00000000e+00 1.88394084e-18
5.75439937e+02 5.39004901e-18 1.24470737e-18 0.00000000e+00 4.14534164e-18 0.00000000e+00 1.24470737e-18
6.60693448e+02 2.93542244e-18 8.22370004e-19 0.00000000e+00 2.11305244e-18 0.00000000e+00 8.22370004e-19
7.58577575e+02 1.61854115e-18 5.43334473e-19 0.00000000e+00 1.07520667e-18 0.00000000e+00 5.43334473e-19
8.70963590e+02 9.05104139e-19 3.58977527e-19 0.00000000e+00 5.46126612e-19 0.00000000e+00 3.58977527e-19
1.00000000e+03 2.76931974e-19 0.00000000e+00 0.00000000e+00 2.76931974e-19 0.00000000e+00 0.00000000e+00
