# column 1: lambda (micron)
# column 2: total flux; lambda*F_lambda (W/m2)
# column 3: direct stellar flux; lambda*F_lambda (W/m2)
# column 4: scattered stellar flux; lambda*F_lambda (W/m2)
# column 5: total dust emission flux; lambda*F_lambda (W/m2)
# column 6: dust emission scattered flux; lambda*F_lambda (W/m2)
# column 7: transparent flux; lambda*F_lambda (W/m2)
1.00000000e-03 1.07270296e-12 1.07270267e-12 2.86050525e-19 0.00000000e+00 0.00000000e+00 1.07335627e-12
1.14815362e-03 1.26588589e-12 1.26588544e-12 4.51084823e-19 0.00000000e+00 0.00000000e+00 1.26690456e-12
1.31825674e-03 1.49382506e-12 1.49382440e-12 6.66694245e-19 0.00000000e+00 0.00000000e+00 1.49535359e-12
1.51356125e-03 1.76286999e-12 1.76286893e-12 1.06324167e-18 0.00000000e+00 0.00000000e+00 1.76499670e-12
1.73780083e-03 2.08072652e-12 2.08072463e-12 1.88733699e-18 0.00000000e+00 0.00000000e+00 2.08326203e-12
1.99526231e-03 2.45495053e-12 2.45494717e-12 3.36229706e-18 0.00000000e+00 0.00000000e+00 2.45891716e-12
2.29086765e-03 2.89734726e-12 2.89734191e-12 5.34601549e-18 0.00000000e+00 0.00000000e+00 2.90231066e-12
2.63026799e-03 3.41918000e-12 3.41863034e-12 5.49660890e-16 0.00000000e+00 0.00000000e+00 3.42565717e-12
3.01995172e-03 4.03437531e-12 4.03311856e-12 1.25674830e-15 0.00000000e+00 0.00000000e+00 4.04337385e-12
3.46736850e-03 4.76275830e-12 4.75821358e-12 4.54471092e-15 0.00000000e+00 0.00000000e+00 4.77247759e-12
3.98107171e-03 5.61421984e-12 5.61378631e-12 4.33526902e-16 0.00000000e+00 0.00000000e+00 5.63305378e-12
4.57088190e-03 6.68075211e-12 6.63363113e-12 4.71209724e-14 0.00000000e+00 0.00000000e+00 6.64880962e-12
5.24807460e-03 7.86344742e-12 7.82485212e-12 3.85952994e-14 0.00000000e+00 0.00000000e+00 7.84772720e-12
6.02559586e-03 9.24144383e-12 9.23028900e-12 1.11548251e-14 0.00000000e+00 0.00000000e+00 9.26283435e-12
6.91830971e-03 1.09197900e-11 1.08887917e-11 3.09982426e-14 0.00000000e+00 0.00000000e+00 1.09331145e-11
7.94328235e-03 1.28680399e-11 1.28462284e-11 2.18114645e-14 3.99753233e-303 7.39863189e-306 1.29045807e-11
9.12010839e-03 1.51784738e-11 1.51551321e-11 2.33416110e-14 1.76963153e-264 5.04125152e-267 1.52315429e-11
1.04712855e-02 1.69516251e-11 1.69207760e-11 3.08490764e-14 7.56121682e-231 4.58414375e-233 1.70115517e-11
1.20226443e-02 1.69503821e-11 1.69154338e-11 3.49483329e-14 1.18895745e-201 4.51045259e-204 1.70115517e-11
1.38038426e-02 1.69340899e-11 1.69090995e-11 2.49904563e-14 3.26354883e-176 1.95905755e-178 1.70115517e-11
1.58489319e-02 1.69357079e-11 1.69013184e-11 3.43895416e-14 4.44037524e-154 3.37542015e-156 1.70115517e-11
1.81970086e-02 1.69317419e-11 1.68941448e-11 3.75970734e-14 7.96034006e-135 7.20451423e-137 1.70115517e-11
2.08929613e-02 1.69317891e-11 1.68881844e-11 4.36046504e-14 4.17928810e-118 4.90669987e-120 1.70115517e-11
2.39883292e-02 1.69272098e-11 1.68804649e-11 4.67449707e-14 1.47377898e-103 2.23271147e-105 1.70115517e-11
2.75422870e-02 1.69202642e-11 1.68714901e-11 4.87741001e-14 6.62463153e-91 1.23413460e-92 1.70115517e-11
3.16227766e-02 1.69173810e-11 1.68626975e-11 5.46834953e-14 6.48477013e-80 1.44879048e-81 1.70115517e-11
3.63078055e-02 1.69164425e-11 1.68558043e-11 6.06382338e-14 2.25451222e-70 5.55029686e-72 1.70115517e-11
4.16869383e-02 1.69253915e-11 1.68498444e-11 7.55470889e-14 4.31794649e-62 1.48756604e-63 1.70115517e-11
4.78630092e-02 1.69244250e-11 1.68334270e-11 9.09979663e-14 6.57358567e-55 3.03584197e-56 1.70115517e-11
5.49540874e-02 1.69211189e-11 1.68106222e-11 1.10496774e-13 1.09835291e-48 6.07608861e-50 1.70115517e-11
6.30957344e-02 1.68843070e-11 1.67535747e-11 1.30732237e-13 3.56839199e-43 2.33597991e-44 1.70115517e-11
7.24435960e-02 1.68179732e-11 1.66862518e-11 1.31721451e-13 2.06323927e-38 1.28251777e-39 1.70115517e-11
8.31763771e-02 1.68211287e-11 1.66922315e-11 1.28897155e-13 2.11570517e-34 1.31720281e-35 1.70115517e-11
9.54992586e-02 1.68433464e-11 1.67097823e-11 1.33564178e-13 5.97339030e-31 3.89091218e-32 1.70115517e-11
1.09647820e-01 1.61371908e-11 1.60061384e-11 1.31052400e-13 5.08818683e-28 3.63265411e-29 1.62459122e-11
1.25892541e-01 1.50901695e-11 1.49771286e-11 1.13040871e-13 1.64766988e-25 1.14384529e-26 1.51615674e-11
1.44543977e-01 1.41085965e-11 1.40067797e-11 1.01816802e-13 2.24356836e-23 1.51615523e-24 1.41495980e-11
1.65958691e-01 1.31922600e-11 1.30885341e-11 1.03725905e-13 1.13938312e-21 8.55506793e-23 1.32051732e-11
1.90546072e-01 1.23276512e-11 1.22076882e-11 1.19962982e-13 2.41834772e-20 2.22283448e-21 1.23237846e-11
2.18776162e-01 1.14964744e-11 1.13742341e-11 1.22240062e-13 2.87847299e-19 2.86431455e-20 1.15012250e-11
2.51188643e-01 1.07739021e-11 1.06386814e-11 1.35217095e-13 3.53500858e-18 4.42542286e-19 1.07335677e-11
2.88403150e-01 1.00668459e-11 9.94357264e-12 1.23243908e-13 2.93346417e-17 3.55954455e-18 1.00171482e-11
3.31131121e-01 9.39498451e-12 9.28866183e-12 1.06155121e-13 1.67556619e-16 1.94862653e-17 9.34854667e-12
3.80189396e-01 8.77510197e-12 8.67547417e-12 9.89303580e-14 6.97438416e-16 7.90742078e-17 8.72457139e-12
4.36515832e-01 8.19515706e-12 8.10235121e-12 9.05980700e-14 2.20778044e-15 2.48669340e-16 8.14224377e-12
5.01187234e-01 7.65636031e-12 7.56680957e-12 8.40192003e-14 5.53154080e-15 6.27063468e-16 7.59878402e-12
5.75439937e-01 7.15706362e-12 7.06623484e-12 7.93312439e-14 1.14975361e-14 1.31670800e-15 7.09159786e-12
6.60693448e-01 6.69189579e-12 6.59832016e-12 7.28239082e-14 2.07517180e-14 2.43756927e-15 6.61826421e-12
7.58577575e-01 6.26211955e-12 6.16103166e-12 6.65037055e-14 3.45841842e-14 4.21117828e-15 6.17652353e-12
8.70963590e-01 5.86881445e-12 5.75250035e-12 6.02778774e-14 5.60362223e-14 7.21136853e-15 5.76426715e-12
1.00000000e+00 5.51310554e-12 5.37073427e-12 5.16634709e-14 9.07078029e-14 1.20123395e-14 5.37952711e-12
1.14815362e+00 5.20951930e-12 5.01401319e-12 4.40732359e-14 1.51432883e-13 1.99297869e-14 5.02046681e-12
1.31825674e+00 4.97197290e-12 4.68071794e-12 3.54705861e-14 2.55784378e-13 3.15927937e-14 4.68537225e-12
1.51356125e+00 4.81499935e-12 4.36932114e-12 2.75252622e-14 4.18152953e-13 4.62467559e-14 4.37264380e-12
1.73780083e+00 4.73594330e-12 4.07845523e-12 2.18078260e-14 6.35680239e-13 6.00219809e-14 4.08078863e-12
1.99526231e+00 4.71098859e-12 3.80680061e-12 1.59452968e-14 8.88242684e-13 6.82817247e-14 3.80841354e-12
2.29086765e+00 4.70089786e-12 3.55310688e-12 1.15725219e-14 1.13621846e-12 6.90477810e-14 3.55421832e-12
2.63026799e+00 4.66449518e-12 3.31621649e-12 8.15172288e-15 1.34012697e-12 6.27572915e-14 3.31698953e-12
3.01995172e+00 4.57443755e-12 3.09505016e-12 5.78211363e-15 1.47360528e-12 5.28818964e-14 3.09559474e-12
3.46736850e+00 4.42391382e-12 2.88858721e-12 3.89803586e-15 1.53142858e-12 4.04676359e-14 2.88897711e-12
3.98107171e+00 4.20865801e-12 2.69586759e-12 2.58124661e-15 1.51020918e-12 2.91262568e-14 2.69615031e-12
4.57088190e+00 3.94340750e-12 2.51598607e-12 1.63348393e-15 1.42578794e-12 1.93124871e-14 2.51619387e-12
5.24807460e+00 3.39127022e-12 2.08036864e-12 8.96814052e-16 1.31000476e-12 1.20137974e-14 2.08050667e-12
6.02559586e+00 2.56029386e-12 1.37450134e-12 3.92062864e-16 1.18540045e-12 7.00398388e-15 1.37457712e-12
6.70000000e+00 2.08843287e-12 9.99823893e-13 1.93429004e-16 1.08841555e-12 4.49133308e-15 9.99872685e-13
6.92422916e+00 1.96300136e-12 9.05804269e-13 1.54275071e-16 1.05704281e-12 3.83406697e-15 9.05846924e-13
7.15596261e+00 1.85915832e-12 8.20625164e-13 1.28377875e-16 1.03840478e-12 3.27879426e-15 8.20663132e-13
7.39545150e+00 1.78677768e-12 7.43454612e-13 9.66557240e-17 1.04322641e-12 2.79995882e-15 7.43489831e-13
7.64295536e+00 1.79758741e-12 6.73537378e-13 6.88386380e-17 1.12398120e-12 2.38925467e-15 6.73573732e-13
7.89874245e+00 1.92531795e-12 6.10189832e-13 4.36627233e-17 1.31508446e-12 2.02896745e-15 6.10232385e-13
8.16308998e+00 2.13825538e-12 5.52795460e-13 2.72875984e-17 1.58543263e-12 1.69227609e-15 5.52847515e-13
8.43628443e+00 2.45264976e-12 5.00793469e-13 1.54752031e-17 1.95184082e-12 1.34067360e-15 5.00858987e-13
8.71862190e+00 2.65079717e-12 4.53686410e-13 9.72072949e-18 2.19710104e-12 1.08425207e-15 4.53759343e-13
9.01040836e+00 2.85644481e-12 4.11008801e-13 6.48034877e-18 2.44542953e-12 8.18731640e-16 4.11088843e-13
9.31196005e+00 3.00100769e-12 3.72346875e-13 0.00000000e+00 2.62866082e-12 0.00000000e+00 3.72430980e-13
9.62360379e+00 2.94235252e-12 3.37330212e-13 0.00000000e+00 2.60502231e-12 0.00000000e+00 3.37408415e-13
9.94567731e+00 2.72472712e-12 3.05612814e-13 0.00000000e+00 2.41911431e-12 0.00000000e+00 3.05679292e-13
1.02785297e+01 2.49875163e-12 2.76879419e-13 0.00000000e+00 2.22187221e-12 0.00000000e+00 2.76933904e-13
1.06225216e+01 2.26425914e-12 2.50847491e-13 0.00000000e+00 2.01341165e-12 0.00000000e+00 2.50891667e-13
1.09780260e+01 2.01835023e-12 2.27263857e-13 0.00000000e+00 1.79108637e-12 0.00000000e+00 2.27298384e-13
1.13454280e+01 1.80473848e-12 2.05896666e-13 0.00000000e+00 1.59884181e-12 0.00000000e+00 2.05923759e-13
1.17251259e+01 1.62296612e-12 1.86537758e-13 0.00000000e+00 1.43642836e-12 0.00000000e+00 1.86559155e-13
1.21175312e+01 1.45547542e-12 1.68998744e-13 0.00000000e+00 1.28647668e-12 0.00000000e+00 1.69015555e-13
1.25230691e+01 1.30762610e-12 1.53108543e-13 0.00000000e+00 1.15451755e-12 0.00000000e+00 1.53121715e-13
1.29421791e+01 1.18103515e-12 1.38712103e-13 0.00000000e+00 1.04232305e-12 0.00000000e+00 1.38722496e-13
1.33753155e+01 1.07269377e-12 1.25669088e-13 0.00000000e+00 9.47024681e-13 0.00000000e+00 1.25677347e-13
1.38229477e+01 1.00078954e-12 1.13852068e-13 0.00000000e+00 8.86937472e-13 0.00000000e+00 1.13858934e-13
1.42855609e+01 9.56592493e-13 1.03145930e-13 0.00000000e+00 8.53446563e-13 0.00000000e+00 1.03151898e-13
1.47636563e+01 9.60405224e-13 9.34460635e-14 0.00000000e+00 8.66959161e-13 0.00000000e+00 9.34517274e-14
1.52577522e+01 9.77174042e-13 8.46582661e-14 0.00000000e+00 8.92515775e-13 0.00000000e+00 8.46637387e-14
1.57683840e+01 1.00160828e-12 7.66967970e-14 0.00000000e+00 9.24911487e-13 0.00000000e+00 7.67021526e-14
1.62961051e+01 1.02763947e-12 6.94840212e-14 0.00000000e+00 9.58155446e-13 0.00000000e+00 6.94892560e-14
1.68414875e+01 1.05632751e-12 6.29495386e-14 0.00000000e+00 9.93377975e-13 0.00000000e+00 6.29546439e-14
1.74051222e+01 1.07021422e-12 5.70296837e-14 0.00000000e+00 1.01318454e-12 0.00000000e+00 5.70345319e-14
1.79876201e+01 1.07436251e-12 5.16666071e-14 0.00000000e+00 1.02269590e-12 0.00000000e+00 5.16711337e-14
1.85896125e+01 1.06389551e-12 4.68080017e-14 0.00000000e+00 1.01708751e-12 0.00000000e+00 4.68120974e-14
1.92117518e+01 1.03452656e-12 4.24063963e-14 0.00000000e+00 9.92120163e-13 0.00000000e+00 4.24099939e-14
1.98547123e+01 9.95715412e-13 3.84187559e-14 0.00000000e+00 9.57296656e-13 0.00000000e+00 3.84218542e-14
2.05191907e+01 9.54105623e-13 3.48061087e-14 0.00000000e+00 9.19299514e-13 0.00000000e+00 3.48087501e-14
2.12059073e+01 9.14228056e-13 3.15331626e-14 0.00000000e+00 8.82694894e-13 0.00000000e+00 3.15354141e-14
2.19156062e+01 8.80365497e-13 2.85679666e-14 0.00000000e+00 8.51797531e-13 0.00000000e+00 2.85698952e-14
2.26490567e+01 8.48484753e-13 2.58815924e-14 0.00000000e+00 8.22603160e-13 0.00000000e+00 2.58832470e-14
2.34070535e+01 8.16431838e-13 2.34478230e-14 0.00000000e+00 7.92984015e-13 0.00000000e+00 2.34492452e-14
2.41904183e+01 7.87118934e-13 2.12429058e-14 0.00000000e+00 7.65876028e-13 0.00000000e+00 2.12441313e-14
2.50000000e+01 7.59585499e-13 1.92453231e-14 0.00000000e+00 7.40340176e-13 0.00000000e+00 1.92463813e-14
2.75422870e+01 6.79598481e-13 1.43928993e-14 0.00000000e+00 6.65205582e-13 0.00000000e+00 1.43935895e-14
3.16227766e+01 5.68414118e-13 9.50937110e-15 0.00000000e+00 5.58904747e-13 0.00000000e+00 9.50975027e-15
3.63078055e+01 4.52785107e-13 6.28282247e-15 0.00000000e+00 4.46502285e-13 0.00000000e+00 6.28302969e-15
4.16869383e+01 3.37949979e-13 4.15104630e-15 0.00000000e+00 3.33798933e-13 0.00000000e+00 4.15115655e-15
4.78630092e+01 2.35792024e-13 2.74258510e-15 0.00000000e+00 2.33049439e-13 0.00000000e+00 2.74264194e-15
5.49540874e+01 1.55637039e-13 1.81201688e-15 0.00000000e+00 1.53825022e-13 0.00000000e+00 1.81204556e-15
6.30957344e+01 9.81071773e-14 1.19719234e-15 0.00000000e+00 9.69099850e-14 0.00000000e+00 1.19720663e-15
7.24435960e+01 5.95901026e-14 7.90979509e-16 0.00000000e+00 5.87991231e-14 0.00000000e+00 7.90986575e-16
8.31763771e+01 3.51790098e-14 5.22596158e-16 0.00000000e+00 3.46564136e-14 0.00000000e+00 5.22599647e-16
9.54992586e+01 2.03317299e-14 3.45276436e-16 0.00000000e+00 1.99864535e-14 0.00000000e+00 3.45278163e-16
1.09647820e+02 1.15525678e-14 2.28122162e-16 0.00000000e+00 1.13244457e-14 0.00000000e+00 2.28123020e-16
1.25892541e+02 6.54919195e-15 1.50718952e-16 0.00000000e+00 6.39847300e-15 0.00000000e+00 1.50719385e-16
1.44543977e+02 3.68449802e-15 9.95790903e-17 0.00000000e+00 3.58491893e-15 0.00000000e+00 9.95793099e-17
1.65958691e+02 1.97487626e-15 6.57912900e-17 0.00000000e+00 1.90908497e-15 0.00000000e+00 6.57913976e-17
1.90546072e+02 1.05865014e-15 4.34678920e-17 0.00000000e+00 1.01518225e-15 0.00000000e+00 4.34679453e-17
2.18776162e+02 5.66592550e-16 2.87189601e-17 0.00000000e+00 5.37873590e-16 0.00000000e+00 2.87189867e-17
2.51188643e+02 3.02449535e-16 1.89744331e-17 0.00000000e+00 2.83475102e-16 0.00000000e+00 1.89744463e-17
2.88403150e+02 1.60995050e-16 1.25362857e-17 0.00000000e+00 1.48458764e-16 0.00000000e+00 1.25362924e-17
3.31131121e+02 8.57067518e-17 8.28264291e-18 0.00000000e+00 7.74241089e-17 0.00000000e+00 8.28264623e-18
3.80189396e+02 4.56434003e-17 5.47228843e-18 0.00000000e+00 4.01711119e-17 0.00000000e+00 5.47229010e-18
4.36515832e+02 2.43828269e-17 3.61550538e-18 0.00000000e+00 2.07673216e-17 0.00000000e+00 3.61550621e-18
5.01187234e+02 1.30848057e-17 2.38874085e-18 0.00000000e+00 1.06960649e-17 0.00000000e+00 2.38874127e-18
5.75439937e+02 7.06998948e-18 1.57822549e-18 0.00000000e+00 5.49176399e-18 0.00000000e+00 1.57822570e-18
6.60693448e+02 3.85481188e-18 1.04272328e-18 0.00000000e+00 2.81208860e-18 0.00000000e+00 1.04272338e-18
7.58577575e+02 2.12547849e-18 6.88920453e-19 0.00000000e+00 1.43655803e-18 0.00000000e+00 6.88920507e-19
8.70963590e+02 1.18734935e-18 4.55165238e-19 0.00000000e+00 7.32184110e-19 0.00000000e+00 4.55165265e-19
1.00000000e+03 3.72388992e-19 0.00000000e+00 0.00000000e+00 3.72388992e-19 0.00000000e+00 0.00000000e+00
