# column 1: lambda (micron)
# column 2: total flux; lambda*F_lambda (W/m2)
# column 3: direct stellar flux; lambda*F_lambda (W/m2)
# column 4: scattered stellar flux; lambda*F_lambda (W/m2)
# column 5: total dust emission flux; lambda*F_lambda (W/m2)
# column 6: dust emission scattered flux; lambda*F_lambda (W/m2)
# column 7: transparent flux; lambda*F_lambda (W/m2)
1.00000000e-03 9.67124412e-13 9.67123743e-13 6.69815803e-19 0.00000000e+00 0.00000000e+00 9.68073281e-13
1.14815362e-03 1.14115742e-12 1.14115640e-12 1.01957187e-18 0.00000000e+00 0.00000000e+00 1.14263687e-12
1.31825674e-03 1.34645813e-12 1.34645656e-12 1.56745158e-18 0.00000000e+00 0.00000000e+00 1.34867788e-12
1.51356125e-03 1.58878412e-12 1.58878168e-12 2.43390293e-18 0.00000000e+00 0.00000000e+00 1.59187233e-12
1.73780083e-03 1.87523854e-12 1.87523414e-12 4.40144329e-18 0.00000000e+00 0.00000000e+00 1.87891976e-12
1.99526231e-03 2.21198588e-12 2.21196197e-12 2.39078367e-17 0.00000000e+00 0.00000000e+00 2.21772777e-12
2.29086765e-03 2.61047369e-12 2.61041371e-12 5.99758552e-17 0.00000000e+00 0.00000000e+00 2.61762985e-12
2.63026799e-03 3.07965165e-12 3.07943850e-12 2.13148218e-16 0.00000000e+00 0.00000000e+00 3.08964252e-12
3.01995172e-03 3.63393685e-12 3.63187881e-12 2.05803635e-15 0.00000000e+00 0.00000000e+00 3.64676883e-12
3.46736850e-03 4.28434602e-12 4.28364895e-12 6.97072102e-16 0.00000000e+00 0.00000000e+00 4.30435650e-12
3.98107171e-03 5.05349572e-12 5.05255324e-12 9.42480176e-16 0.00000000e+00 0.00000000e+00 5.08052080e-12
4.57088190e-03 5.97542311e-12 5.97460365e-12 8.19460472e-16 0.00000000e+00 0.00000000e+00 5.99664354e-12
5.24807460e-03 7.04860372e-12 7.04475282e-12 3.85090779e-15 0.00000000e+00 0.00000000e+00 7.07796211e-12
6.02559586e-03 8.32394856e-12 8.30702511e-12 1.69234469e-14 0.00000000e+00 0.00000000e+00 8.35426474e-12
6.91830971e-03 9.80802787e-12 9.79638711e-12 1.16407614e-14 0.00000000e+00 0.00000000e+00 9.86071107e-12
7.94328235e-03 1.15735612e-11 1.15541285e-11 1.94326878e-14 2.49397011e-303 5.38415518e-306 1.16388008e-11
9.12010839e-03 1.36469511e-11 1.36266574e-11 2.02936786e-14 1.21342952e-264 3.97228769e-267 1.37375167e-11
1.04712855e-02 1.52619554e-11 1.52112411e-11 5.07142283e-14 5.61480776e-231 2.30085710e-233 1.53429287e-11
1.20226443e-02 1.52486528e-11 1.52035046e-11 4.51481298e-14 9.51435850e-202 4.72398543e-204 1.53429287e-11
1.38038426e-02 1.52446823e-11 1.51943334e-11 5.03489062e-14 2.78347384e-176 2.41574499e-178 1.53429287e-11
1.58489319e-02 1.52367602e-11 1.51830701e-11 5.36900429e-14 3.99025381e-154 3.29718905e-156 1.53429287e-11
1.81970086e-02 1.52267854e-11 1.51726893e-11 5.40961519e-14 7.51127471e-135 8.54181238e-137 1.53429287e-11
2.08929613e-02 1.52368535e-11 1.51640659e-11 7.27875804e-14 4.11161469e-118 5.98144148e-120 1.53429287e-11
2.39883292e-02 1.52349636e-11 1.51529002e-11 8.20633684e-14 1.50197456e-103 2.62447165e-105 1.53429287e-11
2.75422870e-02 1.52299376e-11 1.51399229e-11 9.00146535e-14 6.97100471e-91 1.52299304e-92 1.53429287e-11
3.16227766e-02 1.52310009e-11 1.51272132e-11 1.03787762e-13 7.02157072e-80 1.89408666e-81 1.53429287e-11
3.63078055e-02 1.52335680e-11 1.51172517e-11 1.16316250e-13 2.50084550e-70 7.48705198e-72 1.53429287e-11
4.16869383e-02 1.52529409e-11 1.51086411e-11 1.44299728e-13 4.90000500e-62 2.04564135e-63 1.53429287e-11
4.78630092e-02 1.52653628e-11 1.50849316e-11 1.80431200e-13 7.60703322e-55 4.19011731e-56 1.53429287e-11
5.49540874e-02 1.52691903e-11 1.50520208e-11 2.17169525e-13 1.29723318e-48 8.94101708e-50 1.53429287e-11
6.30957344e-02 1.52215607e-11 1.49698124e-11 2.51748282e-13 4.28778808e-43 3.56826757e-44 1.53429287e-11
7.24435960e-02 1.51136110e-11 1.48730162e-11 2.40594748e-13 2.50904037e-38 2.03780017e-39 1.53429287e-11
8.31763771e-02 1.51179361e-11 1.48816042e-11 2.36331848e-13 2.59823259e-34 2.09892290e-35 1.53429287e-11
9.54992586e-02 1.51472470e-11 1.49068210e-11 2.40425968e-13 7.41507101e-31 6.27822956e-32 1.53429287e-11
1.09647820e-01 1.45513080e-11 1.43055568e-11 2.45751231e-13 6.36910930e-28 5.76272388e-29 1.46523889e-11
1.25892541e-01 1.36296138e-11 1.34074017e-11 2.22212120e-13 2.07173014e-25 1.77573096e-26 1.36744049e-11
1.44543977e-01 1.27554527e-11 1.25548143e-11 2.00638410e-13 2.83519739e-23 2.33814948e-24 1.27616972e-11
1.65958691e-01 1.19434293e-11 1.17408829e-11 2.02546416e-13 1.45168205e-21 1.33745735e-22 1.19099088e-11
1.90546072e-01 1.11722247e-11 1.09467645e-11 2.25460199e-13 3.10562456e-20 3.47405035e-21 1.11149736e-11
2.18776162e-01 1.04155604e-11 1.01891946e-11 2.26365443e-13 3.72283512e-19 4.56389154e-20 1.03730969e-11
2.51188643e-01 9.79181927e-12 9.54323448e-12 2.48580172e-13 4.61112573e-18 6.97776284e-19 9.68073733e-12
2.88403150e-01 9.15219349e-12 8.92791999e-12 2.24235165e-13 3.83372643e-17 5.60981597e-18 9.03458975e-12
3.31131121e-01 8.54901704e-12 8.34472380e-12 2.04074258e-13 2.18987830e-16 3.04366696e-17 8.43156974e-12
3.80189396e-01 7.98013489e-12 7.79758017e-12 1.81642581e-13 9.12138438e-16 1.22773238e-16 7.86879872e-12
4.36515832e-01 7.45697858e-12 7.28571071e-12 1.68377321e-13 2.89055007e-15 3.84243109e-16 7.34359025e-12
5.01187234e-01 6.96888065e-12 6.80703609e-12 1.54589600e-13 7.25496248e-15 9.61397035e-16 6.85343719e-12
5.75439937e-01 6.51533683e-12 6.35918597e-12 1.40979363e-13 1.51714908e-14 2.03302991e-15 6.39599973e-12
6.60693448e-01 6.09717228e-12 5.94014101e-12 1.29087303e-13 2.79439595e-14 3.91856553e-15 5.96909425e-12
7.58577575e-01 5.71635271e-12 5.54818948e-12 1.19383450e-13 4.87797790e-14 7.35876659e-15 5.57068288e-12
8.70963590e-01 5.36971207e-12 5.18177653e-12 1.02130687e-13 8.58048518e-14 1.40635266e-14 5.19886376e-12
1.00000000e+00 5.08191532e-12 4.83909180e-12 8.86286717e-14 1.54194849e-13 2.62915207e-14 4.85186196e-12
1.14815362e+00 4.87640703e-12 4.51864721e-12 7.35308989e-14 2.84228928e-13 4.69783758e-14 4.52802104e-12
1.31825674e+00 4.79382833e-12 4.21903417e-12 5.84803545e-14 5.16313812e-13 7.81503417e-14 4.22579511e-12
1.51356125e+00 4.86525366e-12 3.93891455e-12 4.50856639e-14 8.81253445e-13 1.16868615e-13 3.94374146e-12
1.73780083e+00 5.09195968e-12 3.67712370e-12 3.46175868e-14 1.38021839e-12 1.55047528e-13 3.68051368e-12
1.99526231e+00 5.40922645e-12 3.43251183e-12 2.64272750e-14 1.95028734e-12 1.78518583e-13 3.43485522e-12
2.29086765e+00 5.74518067e-12 3.20397857e-12 1.93486107e-14 2.52185349e-12 1.85078503e-13 3.20559341e-12
2.63026799e+00 5.99228093e-12 2.99051064e-12 1.38406573e-14 2.98792963e-12 1.74337785e-13 2.99163384e-12
3.01995172e+00 6.13659093e-12 2.79116387e-12 9.95884512e-15 3.33546821e-12 1.52159983e-13 2.79195514e-12
3.46736850e+00 6.13740198e-12 2.60503762e-12 6.93491107e-15 3.52542945e-12 1.23169395e-13 2.60560415e-12
3.98107171e+00 6.02106577e-12 2.43128048e-12 4.77958732e-15 3.58500570e-12 9.37052995e-14 2.43169128e-12
4.57088190e+00 5.79022648e-12 2.26908440e-12 3.10398319e-15 3.51803810e-12 6.55375336e-14 2.26938634e-12
5.24807460e+00 5.24673619e-12 1.87623411e-12 1.79223737e-15 3.36870984e-12 4.28052073e-14 1.87643467e-12
6.02559586e+00 4.41267438e-12 1.23963798e-12 7.69577400e-16 3.17226682e-12 2.64600316e-14 1.23974809e-12
6.70000000e+00 3.89804401e-12 9.01726631e-13 3.93695255e-16 2.99592369e-12 1.72590841e-14 9.01797527e-13
6.92422916e+00 3.75130048e-12 8.16932553e-13 3.10308231e-16 2.93405762e-12 1.49623984e-14 8.16994532e-13
7.15596261e+00 3.63078769e-12 7.40111048e-13 2.46824350e-16 2.89042981e-12 1.29208961e-14 7.40166218e-13
7.39545150e+00 3.58064077e-12 6.70511489e-13 1.89878140e-16 2.90993940e-12 1.09714188e-14 6.70562664e-13
7.64295536e+00 3.68771913e-12 6.07451647e-13 1.32825715e-16 3.08013465e-12 9.26675232e-15 6.07504471e-13
7.89874245e+00 3.99864287e-12 5.50314296e-13 8.36413221e-17 3.44824493e-12 7.47125567e-15 5.50376127e-13
8.16308998e+00 4.45508872e-12 4.98544367e-13 4.91291812e-17 3.95649523e-12 5.95391618e-15 4.98620004e-13
8.43628443e+00 5.02491373e-12 4.51635710e-13 2.75204576e-17 4.57325050e-12 4.51266946e-15 4.51730909e-13
8.71862190e+00 5.38853932e-12 4.09145186e-13 1.72355522e-17 4.97937689e-12 3.52261255e-15 4.09251158e-13
9.01040836e+00 5.74097450e-12 3.70649807e-13 1.06590348e-17 5.37031403e-12 2.62225435e-15 3.70766106e-13
9.31196005e+00 5.98274246e-12 3.35777901e-13 0.00000000e+00 5.64696456e-12 0.00000000e+00 3.35900102e-13
9.62360379e+00 5.88536627e-12 3.04199192e-13 0.00000000e+00 5.58116708e-12 0.00000000e+00 3.04312818e-13
9.94567731e+00 5.55063204e-12 2.75599340e-13 0.00000000e+00 5.27503270e-12 0.00000000e+00 2.75695930e-13
1.02785297e+01 5.20629612e-12 2.49690945e-13 0.00000000e+00 4.95660518e-12 0.00000000e+00 2.49770110e-13
1.06225216e+01 4.81444458e-12 2.26218107e-13 0.00000000e+00 4.58822647e-12 0.00000000e+00 2.26282295e-13
1.09780260e+01 4.41274172e-12 2.04953053e-13 0.00000000e+00 4.20778867e-12 0.00000000e+00 2.05003220e-13
1.13454280e+01 4.06065609e-12 1.85685816e-13 0.00000000e+00 3.87497027e-12 0.00000000e+00 1.85725182e-13
1.17251259e+01 3.74810728e-12 1.68228917e-13 0.00000000e+00 3.57987836e-12 0.00000000e+00 1.68260007e-13
1.21175312e+01 3.45871285e-12 1.52412790e-13 0.00000000e+00 3.30630006e-12 0.00000000e+00 1.52437217e-13
1.25230691e+01 3.18264477e-12 1.38083227e-13 0.00000000e+00 3.04456154e-12 0.00000000e+00 1.38102367e-13
1.29421791e+01 2.93613864e-12 1.25100431e-13 0.00000000e+00 2.81103820e-12 0.00000000e+00 1.25115533e-13
1.33753155e+01 2.71764458e-12 1.13337951e-13 0.00000000e+00 2.60430663e-12 0.00000000e+00 1.13349952e-13
1.38229477e+01 2.56958726e-12 1.02680802e-13 0.00000000e+00 2.46690645e-12 0.00000000e+00 1.02690779e-13
1.42855609e+01 2.47291126e-12 9.30252999e-14 0.00000000e+00 2.37988596e-12 0.00000000e+00 9.30339713e-14
1.47636563e+01 2.47960033e-12 8.42770377e-14 0.00000000e+00 2.39532329e-12 0.00000000e+00 8.42852675e-14
1.52577522e+01 2.51225111e-12 7.63513201e-14 0.00000000e+00 2.43589979e-12 0.00000000e+00 7.63592720e-14
1.57683840e+01 2.56589501e-12 6.91708372e-14 0.00000000e+00 2.49672417e-12 0.00000000e+00 6.91786191e-14
1.62961051e+01 2.60729737e-12 6.26656121e-14 0.00000000e+00 2.54463175e-12 0.00000000e+00 6.26732185e-14
1.68414875e+01 2.65612825e-12 5.67721529e-14 0.00000000e+00 2.59935610e-12 0.00000000e+00 5.67795711e-14
1.74051222e+01 2.67024602e-12 5.14331044e-14 0.00000000e+00 2.61881291e-12 0.00000000e+00 5.14401489e-14
1.79876201e+01 2.65076462e-12 4.65962566e-14 0.00000000e+00 2.60416837e-12 0.00000000e+00 4.66028339e-14
1.85896125e+01 2.60830458e-12 4.22144578e-14 0.00000000e+00 2.56609013e-12 0.00000000e+00 4.22204090e-14
1.92117518e+01 2.53152354e-12 3.82448701e-14 0.00000000e+00 2.49327867e-12 0.00000000e+00 3.82500974e-14
1.98547123e+01 2.43113327e-12 3.46486431e-14 0.00000000e+00 2.39648462e-12 0.00000000e+00 3.46531450e-14
2.05191907e+01 2.32106310e-12 3.13906037e-14 0.00000000e+00 2.28967249e-12 0.00000000e+00 3.13944418e-14
2.12059073e+01 2.21047292e-12 2.84389080e-14 0.00000000e+00 2.18203401e-12 0.00000000e+00 2.84421796e-14
2.19156062e+01 2.10892814e-12 2.57647392e-14 0.00000000e+00 2.08316340e-12 0.00000000e+00 2.57675415e-14
2.26490567e+01 2.01284344e-12 2.33420161e-14 0.00000000e+00 1.98950142e-12 0.00000000e+00 2.33444203e-14
2.34070535e+01 1.91825130e-12 2.11470975e-14 0.00000000e+00 1.89710420e-12 0.00000000e+00 2.11491639e-14
2.41904183e+01 1.82677420e-12 1.91585638e-14 0.00000000e+00 1.80761563e-12 0.00000000e+00 1.91603445e-14
2.50000000e+01 1.73950247e-12 1.73570114e-14 0.00000000e+00 1.72214546e-12 0.00000000e+00 1.73585491e-14
2.75422870e+01 1.48542955e-12 1.29807534e-14 0.00000000e+00 1.47244880e-12 0.00000000e+00 1.29817562e-14
3.16227766e+01 1.14650008e-12 8.57641030e-15 0.00000000e+00 1.13792367e-12 0.00000000e+00 8.57696126e-15
3.63078055e+01 8.38616271e-13 5.66644100e-15 0.00000000e+00 8.32949830e-13 0.00000000e+00 5.66674211e-15
4.16869383e+01 5.74052765e-13 3.74381917e-15 0.00000000e+00 5.70308946e-13 0.00000000e+00 3.74397938e-15
4.78630092e+01 3.68227926e-13 2.47354006e-15 0.00000000e+00 3.65754386e-13 0.00000000e+00 2.47362265e-15
5.49540874e+01 2.24040547e-13 1.63426460e-15 0.00000000e+00 2.22406283e-13 0.00000000e+00 1.63430628e-15
6.30957344e+01 1.30853495e-13 1.07975469e-15 0.00000000e+00 1.29773741e-13 0.00000000e+00 1.07977545e-15
7.24435960e+01 7.40186617e-14 7.13390297e-16 0.00000000e+00 7.33052714e-14 0.00000000e+00 7.13400564e-16
8.31763771e+01 4.09765537e-14 4.71334009e-16 0.00000000e+00 4.05052197e-14 0.00000000e+00 4.71339078e-16
9.54992586e+01 2.23533001e-14 3.11408132e-16 0.00000000e+00 2.20418920e-14 0.00000000e+00 3.11410641e-16
1.09647820e+02 1.20713803e-14 2.05745724e-16 0.00000000e+00 1.18656345e-14 0.00000000e+00 2.05746970e-16
1.25892541e+02 6.54901465e-15 1.35935047e-16 0.00000000e+00 6.41307960e-15 0.00000000e+00 1.35935675e-16
1.44543977e+02 3.54721953e-15 8.98114908e-17 0.00000000e+00 3.45740804e-15 0.00000000e+00 8.98118099e-17
1.65958691e+02 1.83781252e-15 5.93379179e-17 0.00000000e+00 1.77847460e-15 0.00000000e+00 5.93380743e-17
1.90546072e+02 9.57127714e-16 3.92041995e-17 0.00000000e+00 9.17923515e-16 0.00000000e+00 3.92042769e-17
2.18776162e+02 4.99916923e-16 2.59019703e-17 0.00000000e+00 4.74014952e-16 0.00000000e+00 2.59020089e-17
2.51188643e+02 2.61462060e-16 1.71132683e-17 0.00000000e+00 2.44348791e-16 0.00000000e+00 1.71132876e-17
2.88403150e+02 1.36852572e-16 1.13066273e-17 0.00000000e+00 1.25545944e-16 0.00000000e+00 1.13066370e-17
3.31131121e+02 7.18719417e-17 7.47021613e-18 0.00000000e+00 6.44017255e-17 0.00000000e+00 7.47022097e-18
3.80189396e+02 3.78771639e-17 4.93552362e-18 0.00000000e+00 3.29416403e-17 0.00000000e+00 4.93552605e-18
4.36515832e+02 2.00826415e-17 3.26086851e-18 0.00000000e+00 1.68217730e-17 0.00000000e+00 3.26086972e-18
5.01187234e+02 1.07267694e-17 2.15443465e-18 0.00000000e+00 8.57233479e-18 0.00000000e+00 2.15443526e-18
5.75439937e+02 5.78456332e-18 1.42342095e-18 0.00000000e+00 4.36114237e-18 0.00000000e+00 1.42342126e-18
6.60693448e+02 3.15592339e-18 9.40444947e-19 0.00000000e+00 2.21547845e-18 0.00000000e+00 9.40445101e-19
7.58577575e+02 1.74537542e-18 6.21345839e-19 0.00000000e+00 1.12402958e-18 0.00000000e+00 6.21345916e-19
8.70963590e+02 9.80014018e-19 4.10519137e-19 0.00000000e+00 5.69494881e-19 0.00000000e+00 4.10519176e-19
1.00000000e+03 2.88155706e-19 0.00000000e+00 0.00000000e+00 2.88155706e-19 0.00000000e+00 0.00000000e+00
