# column 1: lambda (micron)
# column 2: total flux; lambda*F_lambda (W/m2)
# column 3: direct stellar flux; lambda*F_lambda (W/m2)
# column 4: scattered stellar flux; lambda*F_lambda (W/m2)
# column 5: total dust emission flux; lambda*F_lambda (W/m2)
# column 6: dust emission scattered flux; lambda*F_lambda (W/m2)
# column 7: transparent flux; lambda*F_lambda (W/m2)
1.00000000e-03 6.93240979e-13 6.93233127e-13 7.85165116e-18 0.00000000e+00 0.00000000e+00 6.93993746e-13
1.14815362e-03 8.18145284e-13 8.17949246e-13 1.96038399e-16 0.00000000e+00 0.00000000e+00 8.19135139e-13
1.31825674e-03 9.65080351e-13 9.65062813e-13 1.75383797e-17 0.00000000e+00 0.00000000e+00 9.66842108e-13
1.51356125e-03 1.13875288e-12 1.13870810e-12 4.47777186e-17 0.00000000e+00 0.00000000e+00 1.14118369e-12
1.73780083e-03 1.34468229e-12 1.34401050e-12 6.71789800e-16 0.00000000e+00 0.00000000e+00 1.34696266e-12
1.99526231e-03 1.58538393e-12 1.58522963e-12 1.54293393e-16 0.00000000e+00 0.00000000e+00 1.58984782e-12
2.29086765e-03 1.87094802e-12 1.87075038e-12 1.97638389e-16 0.00000000e+00 0.00000000e+00 1.87653019e-12
2.63026799e-03 2.20809708e-12 2.20673459e-12 1.36248277e-15 0.00000000e+00 0.00000000e+00 2.21490731e-12
3.01995172e-03 2.60604592e-12 2.60237548e-12 3.67043272e-15 0.00000000e+00 0.00000000e+00 2.61430080e-12
3.46736850e-03 3.07727345e-12 3.06912935e-12 8.14410293e-15 0.00000000e+00 0.00000000e+00 3.08571319e-12
3.98107171e-03 3.62256784e-12 3.61973378e-12 2.83406669e-15 0.00000000e+00 0.00000000e+00 3.64213095e-12
4.57088190e-03 4.28559829e-12 4.28123028e-12 4.36801546e-15 0.00000000e+00 0.00000000e+00 4.29888232e-12
5.24807460e-03 5.08101308e-12 5.04746334e-12 3.35497408e-14 0.00000000e+00 0.00000000e+00 5.07405951e-12
6.02559586e-03 5.97887665e-12 5.95118672e-12 2.76899368e-14 0.00000000e+00 0.00000000e+00 5.98901715e-12
6.91830971e-03 7.07698055e-12 7.01745127e-12 5.95292852e-14 0.00000000e+00 0.00000000e+00 7.06896053e-12
7.94328235e-03 8.34433423e-12 8.27583926e-12 6.84949751e-14 1.08453434e-303 9.52158182e-305 8.34363998e-12
9.12010839e-03 9.82913576e-12 9.75940481e-12 6.97309567e-14 6.33261942e-265 3.15260392e-266 9.84817045e-12
1.04712855e-02 1.09854000e-11 1.08936207e-11 9.17793274e-14 3.60430799e-231 2.32135111e-232 1.09990604e-11
1.20226443e-02 1.10386139e-11 1.08874295e-11 1.51184366e-13 7.23046523e-202 4.75282011e-203 1.09990604e-11
1.38038426e-02 1.10668269e-11 1.08800907e-11 1.86736228e-13 2.51253393e-176 2.29319209e-177 1.09990604e-11
1.58489319e-02 1.10942017e-11 1.08710786e-11 2.23123120e-13 4.07088406e-154 3.51142916e-155 1.09990604e-11
1.81970086e-02 1.11135284e-11 1.08627731e-11 2.50755278e-13 8.63623458e-135 8.37705082e-136 1.09990604e-11
2.08929613e-02 1.11235000e-11 1.08558744e-11 2.67625657e-13 5.15299640e-118 4.72046019e-119 1.09990604e-11
2.39883292e-02 1.11748399e-11 1.08469424e-11 3.27897505e-13 2.01166576e-103 1.59154463e-104 1.09990604e-11
2.75422870e-02 1.12136402e-11 1.08365622e-11 3.77077995e-13 9.90441953e-91 7.37746471e-92 1.09990604e-11
3.16227766e-02 1.12112454e-11 1.08263970e-11 3.84848417e-13 1.04696103e-79 7.30392922e-81 1.09990604e-11
3.63078055e-02 1.11838750e-11 1.08184306e-11 3.65444435e-13 3.93062616e-70 2.75827519e-71 1.09990604e-11
4.16869383e-02 1.12213864e-11 1.08115450e-11 4.09841442e-13 8.01287757e-62 6.00834129e-63 1.09990604e-11
4.78630092e-02 1.12128970e-11 1.07925876e-11 4.20309330e-13 1.27080041e-54 9.88558067e-56 1.09990604e-11
5.49540874e-02 1.11704051e-11 1.07662791e-11 4.04126044e-13 2.19340720e-48 1.74857269e-49 1.09990604e-11
6.30957344e-02 1.10976817e-11 1.07005921e-11 3.97089580e-13 7.17974626e-43 5.79011680e-44 1.09990604e-11
7.24435960e-02 1.09880062e-11 1.06233033e-11 3.64702881e-13 4.21474199e-38 3.13955301e-39 1.09990604e-11
8.31763771e-02 1.09774085e-11 1.06301582e-11 3.47250307e-13 4.49930164e-34 3.24945963e-35 1.09990604e-11
9.54992586e-02 1.10026597e-11 1.06502887e-11 3.52370974e-13 1.31104330e-30 9.89872129e-32 1.09990604e-11
1.09647820e-01 1.05859970e-11 1.02265719e-11 3.59425147e-13 1.17345039e-27 9.47123702e-29 1.05040253e-11
1.25892541e-01 9.93646372e-12 9.58928083e-12 3.47182886e-13 3.98157580e-25 3.31774084e-26 9.80292679e-12
1.44543977e-01 9.29839719e-12 8.98305104e-12 3.15346155e-13 5.66502761e-23 4.60574718e-24 9.14862359e-12
1.65958691e-01 8.71561756e-12 8.40270128e-12 3.12916278e-13 2.99701125e-21 2.71282896e-22 8.53799231e-12
1.90546072e-01 8.15123222e-12 7.83348831e-12 3.17743850e-13 6.34651600e-20 6.45561212e-21 7.96811805e-12
2.18776162e-01 7.58007625e-12 7.28911300e-12 2.90962503e-13 7.45804524e-19 7.63222715e-20 7.43628044e-12
2.51188643e-01 7.15978291e-12 6.82988133e-12 3.29892065e-13 9.51473542e-18 1.22304122e-18 6.93994070e-12
2.88403150e-01 6.69751270e-12 6.39133728e-12 3.06093321e-13 8.20986197e-17 1.07797670e-17 6.47672950e-12
3.31131121e-01 6.25800688e-12 5.97490678e-12 2.82618090e-13 4.82008136e-16 6.24672692e-17 6.04443567e-12
3.80189396e-01 5.84935271e-12 5.58397378e-12 2.63332610e-13 2.04632358e-15 2.59505914e-16 5.64099558e-12
4.36515832e-01 5.46338828e-12 5.21813839e-12 2.38551257e-13 6.69863658e-15 8.61051488e-16 5.26448339e-12
5.01187234e-01 5.11596646e-12 4.87594529e-12 2.22944654e-13 1.70765152e-14 2.23261991e-15 4.91310176e-12
5.75439937e-01 4.79255564e-12 4.55569234e-12 2.00248467e-13 3.66148332e-14 4.90189266e-15 4.58517335e-12
6.60693448e-01 4.50961889e-12 4.25594532e-12 1.85599036e-13 6.80745339e-14 9.46886062e-15 4.27913275e-12
7.58577575e-01 4.26413799e-12 3.97550416e-12 1.71057375e-13 1.17576453e-13 1.78062220e-14 3.99351904e-12
8.70963590e-01 4.06440375e-12 3.71328312e-12 1.50332365e-13 2.00788259e-13 3.41816518e-14 3.72696882e-12
1.00000000e+00 3.94606056e-12 3.46798126e-12 1.32869667e-13 3.45209639e-13 6.50294415e-14 3.47820968e-12
1.14815362e+00 3.95399379e-12 3.23854580e-12 1.11120594e-13 6.04327390e-13 1.16859493e-13 3.24605414e-12
1.31825674e+00 4.16651803e-12 3.02397840e-12 9.08491914e-14 1.05169044e-12 1.97605909e-13 3.02939399e-12
1.51356125e+00 4.64044838e-12 2.82332847e-12 7.37480711e-14 1.74337183e-12 2.95063306e-13 2.82719497e-12
1.73780083e+00 5.36430975e-12 2.63577635e-12 5.77971807e-14 2.67073622e-12 3.87588896e-13 2.63849186e-12
1.99526231e+00 6.21027229e-12 2.46050670e-12 4.36752739e-14 3.70609031e-12 4.36713741e-13 2.46238388e-12
2.29086765e+00 7.06337837e-12 2.29673676e-12 3.25795797e-14 4.73406203e-12 4.40982219e-13 2.29803035e-12
2.63026799e+00 7.79544704e-12 2.14374695e-12 2.34894978e-14 5.62821059e-12 4.11330977e-13 2.14464670e-12
3.01995172e+00 8.31218703e-12 2.00086690e-12 1.68218880e-14 6.29449825e-12 3.56787131e-13 2.00150076e-12
3.46736850e+00 8.61263389e-12 1.86745536e-12 1.18061607e-14 6.73337236e-12 2.92423192e-13 1.86790919e-12
3.98107171e+00 8.71416444e-12 1.74290521e-12 8.19495931e-15 6.96306428e-12 2.25506649e-13 1.74323429e-12
4.57088190e+00 8.58850280e-12 1.62663902e-12 5.39694092e-15 6.95646684e-12 1.59811785e-13 1.62688090e-12
5.24807460e+00 8.13950446e-12 1.34502048e-12 3.04654281e-15 6.79143744e-12 1.05478853e-13 1.34518114e-12
6.02559586e+00 7.39608362e-12 8.88664158e-13 1.32267962e-15 6.50609678e-12 6.43566666e-14 8.88752369e-13
6.70000000e+00 6.84671107e-12 6.46425095e-13 6.63767924e-16 6.19962220e-12 4.17403193e-14 6.46481889e-13
6.92422916e+00 6.67682963e-12 5.85638548e-13 5.31240259e-16 6.09065985e-12 3.60213834e-14 5.85688198e-13
7.15596261e+00 6.54384956e-12 5.30567212e-13 4.24523875e-16 6.01285782e-12 3.10671891e-14 5.30611407e-13
7.39545150e+00 6.49612907e-12 4.80672918e-13 3.22872126e-16 6.01513328e-12 2.64209926e-14 4.80713913e-13
7.64295536e+00 6.70780800e-12 4.35466350e-13 2.29855663e-16 6.27211179e-12 2.19900048e-14 4.35508666e-13
7.89874245e+00 7.22593025e-12 3.94504887e-13 1.44069042e-16 6.83128129e-12 1.76076232e-14 3.94554418e-13
8.16308998e+00 7.91840568e-12 3.57390824e-13 8.58364791e-17 7.56092902e-12 1.37318880e-14 3.57451415e-13
8.43628443e+00 8.69340122e-12 3.23761233e-13 4.71671517e-17 8.36959282e-12 1.00632118e-14 3.23837494e-13
8.71862190e+00 9.15009046e-12 2.93299659e-13 2.91061563e-17 8.85676170e-12 7.70206088e-15 2.93384550e-13
9.01040836e+00 9.54303343e-12 2.65702167e-13 1.74177440e-17 9.27731385e-12 5.55464133e-15 2.65795332e-13
9.31196005e+00 9.82785507e-12 2.40702650e-13 0.00000000e+00 9.58715242e-12 0.00000000e+00 2.40800541e-13
9.62360379e+00 9.67717869e-12 2.18065182e-13 0.00000000e+00 9.45911351e-12 0.00000000e+00 2.18156204e-13
9.94567731e+00 9.25370062e-12 1.97563913e-13 0.00000000e+00 9.05613671e-12 0.00000000e+00 1.97641289e-13
1.02785297e+01 8.73266208e-12 1.78992133e-13 0.00000000e+00 8.55366994e-12 0.00000000e+00 1.79055550e-13
1.06225216e+01 8.30066838e-12 1.62166153e-13 0.00000000e+00 8.13850222e-12 0.00000000e+00 1.62217572e-13
1.09780260e+01 7.78491327e-12 1.46922811e-13 0.00000000e+00 7.63799046e-12 0.00000000e+00 1.46962999e-13
1.13454280e+01 7.33639709e-12 1.33111396e-13 0.00000000e+00 7.20328570e-12 0.00000000e+00 1.33142932e-13
1.17251259e+01 6.91914999e-12 1.20597567e-13 0.00000000e+00 6.79855243e-12 0.00000000e+00 1.20622472e-13
1.21175312e+01 6.49067853e-12 1.09259840e-13 0.00000000e+00 6.38141869e-12 0.00000000e+00 1.09279408e-13
1.25230691e+01 6.08217180e-12 9.89876878e-14 0.00000000e+00 5.98318411e-12 0.00000000e+00 9.90030204e-14
1.29421791e+01 5.70107701e-12 8.96809028e-14 0.00000000e+00 5.61139611e-12 0.00000000e+00 8.96930008e-14
1.33753155e+01 5.33457864e-12 8.12488603e-14 0.00000000e+00 5.25332978e-12 0.00000000e+00 8.12584743e-14
1.38229477e+01 5.07879159e-12 7.36091190e-14 0.00000000e+00 5.00518247e-12 0.00000000e+00 7.36171115e-14
1.42855609e+01 4.91092313e-12 6.66873787e-14 0.00000000e+00 4.84423575e-12 0.00000000e+00 6.66943252e-14
1.47636563e+01 4.95043678e-12 6.04159492e-14 0.00000000e+00 4.89002083e-12 0.00000000e+00 6.04225420e-14
1.52577522e+01 5.00106184e-12 5.47341730e-14 0.00000000e+00 4.94632766e-12 0.00000000e+00 5.47405431e-14
1.57683840e+01 5.09141989e-12 4.95866325e-14 0.00000000e+00 5.04183326e-12 0.00000000e+00 4.95928665e-14
1.62961051e+01 5.16987814e-12 4.49231724e-14 0.00000000e+00 5.12495497e-12 0.00000000e+00 4.49292657e-14
1.68414875e+01 5.26085185e-12 4.06982768e-14 0.00000000e+00 5.22015357e-12 0.00000000e+00 4.07042194e-14
1.74051222e+01 5.29707416e-12 3.68708437e-14 0.00000000e+00 5.26020332e-12 0.00000000e+00 3.68764869e-14
1.79876201e+01 5.30217520e-12 3.34034366e-14 0.00000000e+00 5.26877176e-12 0.00000000e+00 3.34087056e-14
1.85896125e+01 5.22892219e-12 3.02622593e-14 0.00000000e+00 5.19865993e-12 0.00000000e+00 3.02670267e-14
1.92117518e+01 5.07297534e-12 2.74165966e-14 0.00000000e+00 5.04555875e-12 0.00000000e+00 2.74207841e-14
1.98547123e+01 4.91506122e-12 2.48385893e-14 0.00000000e+00 4.89022264e-12 0.00000000e+00 2.48421957e-14
2.05191907e+01 4.71789445e-12 2.25030173e-14 0.00000000e+00 4.69539143e-12 0.00000000e+00 2.25060919e-14
2.12059073e+01 4.51244382e-12 2.03870492e-14 0.00000000e+00 4.49205677e-12 0.00000000e+00 2.03896700e-14
2.19156062e+01 4.32784710e-12 1.84700268e-14 0.00000000e+00 4.30937707e-12 0.00000000e+00 1.84722717e-14
2.26490567e+01 4.14076903e-12 1.67332551e-14 0.00000000e+00 4.12403577e-12 0.00000000e+00 1.67351811e-14
2.34070535e+01 3.97725859e-12 1.51597872e-14 0.00000000e+00 3.96209881e-12 0.00000000e+00 1.51614426e-14
2.41904183e+01 3.78420557e-12 1.37342684e-14 0.00000000e+00 3.77047131e-12 0.00000000e+00 1.37356949e-14
2.50000000e+01 3.61420686e-12 1.24427895e-14 0.00000000e+00 3.60176407e-12 0.00000000e+00 1.24440213e-14
2.75422870e+01 3.11188197e-12 9.30557644e-15 0.00000000e+00 3.10257640e-12 0.00000000e+00 9.30637977e-15
3.16227766e+01 2.42602495e-12 6.14822278e-15 0.00000000e+00 2.41987672e-12 0.00000000e+00 6.14866414e-15
3.63078055e+01 1.78431021e-12 4.06214090e-15 0.00000000e+00 1.78024807e-12 0.00000000e+00 4.06238211e-15
4.16869383e+01 1.22641150e-12 2.68386091e-15 0.00000000e+00 1.22372764e-12 0.00000000e+00 2.68398924e-15
4.78630092e+01 7.87966632e-13 1.77322795e-15 0.00000000e+00 7.86193404e-13 0.00000000e+00 1.77329411e-15
5.49540874e+01 4.79487227e-13 1.17157042e-15 0.00000000e+00 4.78315657e-13 0.00000000e+00 1.17160380e-15
6.30957344e+01 2.80174258e-13 7.74054324e-16 0.00000000e+00 2.79400204e-13 0.00000000e+00 7.74070953e-16
7.24435960e+01 1.58553950e-13 5.11415383e-16 0.00000000e+00 1.58042535e-13 0.00000000e+00 5.11423607e-16
8.31763771e+01 8.77971853e-14 3.37890165e-16 0.00000000e+00 8.74592951e-14 0.00000000e+00 3.37894226e-16
9.54992586e+01 4.79194905e-14 2.23242491e-16 0.00000000e+00 4.76962480e-14 0.00000000e+00 2.23244502e-16
1.09647820e+02 2.58801287e-14 1.47495181e-16 0.00000000e+00 2.57326336e-14 0.00000000e+00 1.47496179e-16
1.25892541e+02 1.40319725e-14 9.74492561e-17 0.00000000e+00 1.39345232e-14 0.00000000e+00 9.74497594e-17
1.44543977e+02 7.59300317e-15 6.43841620e-17 0.00000000e+00 7.52861901e-15 0.00000000e+00 6.43844175e-17
1.65958691e+02 3.92239074e-15 4.25382375e-17 0.00000000e+00 3.87985250e-15 0.00000000e+00 4.25383628e-17
1.90546072e+02 2.03433281e-15 2.81047556e-17 0.00000000e+00 2.00622806e-15 0.00000000e+00 2.81048176e-17
2.18776162e+02 1.05634037e-15 1.85686379e-17 0.00000000e+00 1.03777173e-15 0.00000000e+00 1.85686688e-17
2.51188643e+02 5.48061894e-16 1.22681824e-17 0.00000000e+00 5.35793712e-16 0.00000000e+00 1.22681978e-17
2.88403150e+02 2.83786513e-16 8.10551021e-18 0.00000000e+00 2.75681002e-16 0.00000000e+00 8.10551794e-18
3.31131121e+02 1.46954545e-16 5.35525872e-18 0.00000000e+00 1.41599286e-16 0.00000000e+00 5.35526259e-18
3.80189396e+02 7.60499204e-17 3.53818497e-18 0.00000000e+00 7.25117354e-17 0.00000000e+00 3.53818691e-18
4.36515832e+02 3.94036167e-17 2.33765593e-18 0.00000000e+00 3.70659608e-17 0.00000000e+00 2.33765691e-18
5.01187234e+02 2.04501783e-17 1.54447411e-18 0.00000000e+00 1.89057042e-17 0.00000000e+00 1.54447460e-18
5.75439937e+02 1.06463555e-17 1.02042400e-18 0.00000000e+00 9.62593151e-18 0.00000000e+00 1.02042425e-18
6.60693448e+02 5.56766810e-18 6.74187493e-19 0.00000000e+00 4.89348060e-18 0.00000000e+00 6.74187617e-19
7.58577575e+02 2.92969398e-18 4.45431279e-19 0.00000000e+00 2.48426270e-18 0.00000000e+00 4.45431341e-19
8.70963590e+02 1.55364763e-18 2.94293537e-19 0.00000000e+00 1.25935409e-18 0.00000000e+00 2.94293569e-19
1.00000000e+03 6.37520539e-19 0.00000000e+00 0.00000000e+00 6.37520539e-19 0.00000000e+00 0.00000000e+00
