# column 1: lambda (micron)
# column 2: total flux; lambda*F_lambda (W/m2)
# column 3: direct stellar flux; lambda*F_lambda (W/m2)
# column 4: scattered stellar flux; lambda*F_lambda (W/m2)
# column 5: total dust emission flux; lambda*F_lambda (W/m2)
# column 6: dust emission scattered flux; lambda*F_lambda (W/m2)
# column 7: transparent flux; lambda*F_lambda (W/m2)
1.00000000e-03 1.04635027e-12 1.04634360e-12 6.66223401e-18 0.00000000e+00 0.00000000e+00 1.04634360e-12
1.14815362e-03 1.23503022e-12 1.23502095e-12 9.27591935e-18 0.00000000e+00 0.00000000e+00 1.23502095e-12
1.31825674e-03 1.45773403e-12 1.45772071e-12 1.33189654e-17 0.00000000e+00 0.00000000e+00 1.45772071e-12
1.51356125e-03 1.72059735e-12 1.72057784e-12 1.95104663e-17 0.00000000e+00 0.00000000e+00 1.72057784e-12
1.73780083e-03 2.03086901e-12 2.03083353e-12 3.54817284e-17 0.00000000e+00 0.00000000e+00 2.03083353e-12
1.99526231e-03 2.39709095e-12 2.39703472e-12 5.62295759e-17 0.00000000e+00 0.00000000e+00 2.39703472e-12
2.29086765e-03 2.82935513e-12 2.82926954e-12 8.55884407e-17 0.00000000e+00 0.00000000e+00 2.82926954e-12
2.63026799e-03 3.33961378e-12 3.33944522e-12 1.68560139e-16 0.00000000e+00 0.00000000e+00 3.33944522e-12
3.01995172e-03 3.94187675e-12 3.94161611e-12 2.60643156e-16 0.00000000e+00 0.00000000e+00 3.94161611e-12
3.46736850e-03 4.65278358e-12 4.65237083e-12 4.12753587e-16 0.00000000e+00 0.00000000e+00 4.65237083e-12
3.98107171e-03 5.49190774e-12 5.49128930e-12 6.18447372e-16 0.00000000e+00 0.00000000e+00 5.49128930e-12
4.57088190e-03 6.48348017e-12 6.48148207e-12 1.99809747e-15 0.00000000e+00 0.00000000e+00 6.48148207e-12
5.24807460e-03 7.65307416e-12 7.65022704e-12 2.84712207e-15 0.00000000e+00 0.00000000e+00 7.65022704e-12
6.02559586e-03 9.03491915e-12 9.02972084e-12 5.19830676e-15 0.00000000e+00 0.00000000e+00 9.02972084e-12
6.91830971e-03 1.06655726e-11 1.06579658e-11 7.60674737e-15 0.00000000e+00 0.00000000e+00 1.06579658e-11
7.94328235e-03 1.25943899e-11 1.25798170e-11 1.45728983e-14 2.03757634e-303 2.46702919e-305 1.25798170e-11
9.12010839e-03 1.48718437e-11 1.48482176e-11 2.36260591e-14 1.08500555e-264 1.59557617e-266 1.48482176e-11
1.04712855e-02 1.66077369e-11 1.65834298e-11 2.43071406e-14 5.42325359e-231 8.57957448e-233 1.65834298e-11
1.20226443e-02 1.66366261e-11 1.65834298e-11 5.31962950e-14 9.81190820e-202 1.52888213e-203 1.65834298e-11
1.38038426e-02 1.66396115e-11 1.65834298e-11 5.61817257e-14 3.09168833e-176 1.08948693e-177 1.65834298e-11
1.58489319e-02 1.66661600e-11 1.65834298e-11 8.27301915e-14 4.64083781e-154 1.51127230e-155 1.65834298e-11
1.81970086e-02 1.66987044e-11 1.65834298e-11 1.15274591e-13 9.14620620e-135 3.33852080e-136 1.65834298e-11
2.08929613e-02 1.67416573e-11 1.65834298e-11 1.58227499e-13 5.21157437e-118 2.16439385e-119 1.65834298e-11
2.39883292e-02 1.67790360e-11 1.65834298e-11 1.95606225e-13 1.97313401e-103 9.35550370e-105 1.65834298e-11
2.75422870e-02 1.68207005e-11 1.65834298e-11 2.37270693e-13 9.46072227e-91 5.21813654e-92 1.65834298e-11
3.16227766e-02 1.68479338e-11 1.65834298e-11 2.64504008e-13 9.72498220e-80 5.58010483e-81 1.65834298e-11
3.63078055e-02 1.68771239e-11 1.65834298e-11 2.93694147e-13 3.54687524e-70 2.22403785e-71 1.65834298e-11
4.16869383e-02 1.69593422e-11 1.65834298e-11 3.75912400e-13 7.06910522e-62 5.10080629e-63 1.65834298e-11
4.78630092e-02 1.70094908e-11 1.65834298e-11 4.26061034e-13 1.10953039e-54 9.07978136e-56 1.65834298e-11
5.49540874e-02 1.70189042e-11 1.65834298e-11 4.35474377e-13 1.88796626e-48 1.56661323e-49 1.65834298e-11
6.30957344e-02 1.69872086e-11 1.65834298e-11 4.03778779e-13 6.15524682e-43 4.90455057e-44 1.65834298e-11
7.24435960e-02 1.69136992e-11 1.65834298e-11 3.30269366e-13 3.56977432e-38 2.38878019e-39 1.65834298e-11
8.31763771e-02 1.69061795e-11 1.65834298e-11 3.22749731e-13 3.73438521e-34 2.44284782e-35 1.65834298e-11
9.54992586e-02 1.69096430e-11 1.65834298e-11 3.26213227e-13 1.07428743e-30 7.20526380e-32 1.65834298e-11
1.09647820e-01 1.62033398e-11 1.58370587e-11 3.66281032e-13 9.40145582e-28 7.30706651e-29 1.58370587e-11
1.25892541e-01 1.51617974e-11 1.47800032e-11 3.81794268e-13 3.13574361e-25 2.63942190e-26 1.47800032e-11
1.44543977e-01 1.41675844e-11 1.37935015e-11 3.74082884e-13 4.36715911e-23 3.81582125e-24 1.37935015e-11
1.65958691e-01 1.32674456e-11 1.28728446e-11 3.94600964e-13 2.26120195e-21 2.24248707e-22 1.28728446e-11
1.90546072e-01 1.24260503e-11 1.20136376e-11 4.12412636e-13 4.79712139e-20 5.21039551e-21 1.20136376e-11
2.18776162e-01 1.15533173e-11 1.12117790e-11 3.41537758e-13 5.62953311e-19 5.67282454e-20 1.12117790e-11
2.51188643e-01 1.08637771e-11 1.04634409e-11 4.00329159e-13 7.02890625e-18 9.14820445e-19 1.04634409e-11
2.88403150e-01 1.01676983e-11 9.76505125e-12 4.02587309e-13 5.97133231e-17 8.19967844e-18 9.76505125e-12
3.31131121e-01 9.49699362e-12 9.11327608e-12 3.83370863e-13 3.46675102e-16 4.81179855e-17 9.11327608e-12
3.80189396e-01 8.87816845e-12 8.50500410e-12 3.71702514e-13 1.46183812e-15 2.06322128e-16 8.50500410e-12
4.36515832e-01 8.28727980e-12 7.93733165e-12 3.45282631e-13 4.66551935e-15 6.58646980e-16 7.93733165e-12
5.01187234e-01 7.74386580e-12 7.40754890e-12 3.24531093e-13 1.17858114e-14 1.69450589e-15 7.40754890e-12
5.75439937e-01 7.24220849e-12 6.91312687e-12 3.04457831e-13 2.46237873e-14 3.57000223e-15 6.91312687e-12
6.60693448e-01 6.77166562e-12 6.45170538e-12 2.74935379e-13 4.50248545e-14 7.03232430e-15 6.45170538e-12
7.58577575e-01 6.35264802e-12 6.02108180e-12 2.52785775e-13 7.87804521e-14 1.42615621e-14 6.02108180e-12
8.70963590e-01 5.98300096e-12 5.61920048e-12 2.21678902e-13 1.42121573e-13 3.13177711e-14 5.61920048e-12
1.00000000e+00 5.70848049e-12 5.24414302e-12 1.91039194e-13 2.73298284e-13 6.88393914e-14 5.24414302e-12
1.14815362e+00 5.61277784e-12 4.89411902e-12 1.59325275e-13 5.59333541e-13 1.42538477e-13 4.89411902e-12
1.31825674e+00 5.80791000e-12 4.56745763e-12 1.26378536e-13 1.11407384e-12 2.61542841e-13 4.56745763e-12
1.51356125e+00 6.49323563e-12 4.26259947e-12 1.01727671e-13 2.12890849e-12 4.30854877e-13 4.26259947e-12
1.73780083e+00 7.67050753e-12 3.97808929e-12 8.02275604e-14 3.61219068e-12 6.02606973e-13 3.97808929e-12
1.99526231e+00 9.38070679e-12 3.71256894e-12 6.32021689e-14 5.60493568e-12 7.43338671e-13 3.71256894e-12
2.29086765e+00 1.13291767e-11 3.46477093e-12 4.92740356e-14 7.81513169e-12 8.16820677e-13 3.46477093e-12
2.63026799e+00 1.33063615e-11 3.23351237e-12 3.74551539e-14 1.00353940e-11 8.32558070e-13 3.23351237e-12
3.01995172e+00 1.51078039e-11 3.01768933e-12 2.78483177e-14 1.20622663e-11 7.83538999e-13 3.01768933e-12
3.46736850e+00 1.64875112e-11 2.81627154e-12 2.04039996e-14 1.36508357e-11 7.03660841e-13 2.81627154e-12
3.98107171e+00 1.75767285e-11 2.62829753e-12 1.44574389e-14 1.49339735e-11 5.86814326e-13 2.62829753e-12
4.57088190e+00 1.82389935e-11 2.45286997e-12 9.87300641e-15 1.57762505e-11 4.44384136e-13 2.45286997e-12
5.24807460e+00 1.81875276e-11 2.02814751e-12 5.74646464e-15 1.61536336e-11 3.07673044e-13 2.02814751e-12
6.02559586e+00 1.74112089e-11 1.33998377e-12 2.53840545e-15 1.60686867e-11 1.96572364e-13 1.33998377e-12
6.70000000e+00 1.67105240e-11 9.74709347e-13 1.30999532e-15 1.57345046e-11 1.30750367e-13 9.74709347e-13
6.92422916e+00 1.64353056e-11 8.83049889e-13 1.05409691e-15 1.55512016e-11 1.13865482e-13 8.83049889e-13
7.15596261e+00 1.62231460e-11 8.00009879e-13 8.37714352e-16 1.54222984e-11 9.86722487e-14 8.00009879e-13
7.39545150e+00 1.62264525e-11 7.24778763e-13 6.39271687e-16 1.55010345e-11 8.37769106e-14 7.24778763e-13
7.64295536e+00 1.66419576e-11 6.56622211e-13 4.47494151e-16 1.59848879e-11 6.91631483e-14 6.56622211e-13
7.89874245e+00 1.75729250e-11 5.94874946e-13 2.71640188e-16 1.69777784e-11 5.39284110e-14 5.94874946e-13
8.16308998e+00 1.85918816e-11 5.38934254e-13 1.53811654e-16 1.80527935e-11 4.02421547e-14 5.38934254e-13
8.43628443e+00 1.95970131e-11 4.88254098e-13 8.10337981e-17 1.91086780e-11 2.82870463e-14 4.88254098e-13
8.71862190e+00 2.01052222e-11 4.42339790e-13 4.95746209e-17 1.96628328e-11 2.13285451e-14 4.42339790e-13
9.01040836e+00 2.04811704e-11 4.00743158e-13 2.92219005e-17 2.00803981e-11 1.53629517e-14 4.00743158e-13
9.31196005e+00 2.07601212e-11 3.63058180e-13 0.00000000e+00 2.03970630e-11 0.00000000e+00 3.63058180e-13
9.62360379e+00 2.05732273e-11 3.28917012e-13 0.00000000e+00 2.02443103e-11 0.00000000e+00 3.28917012e-13
9.94567731e+00 2.01418638e-11 2.97986401e-13 0.00000000e+00 1.98438774e-11 0.00000000e+00 2.97986401e-13
1.02785297e+01 1.98364643e-11 2.69964435e-13 0.00000000e+00 1.95664999e-11 0.00000000e+00 2.69964435e-13
1.06225216e+01 1.92176710e-11 2.44577592e-13 0.00000000e+00 1.89730934e-11 0.00000000e+00 2.44577592e-13
1.09780260e+01 1.87418120e-11 2.21578069e-13 0.00000000e+00 1.85202339e-11 0.00000000e+00 2.21578069e-13
1.13454280e+01 1.81922020e-11 2.00741370e-13 0.00000000e+00 1.79914606e-11 0.00000000e+00 2.00741370e-13
1.17251259e+01 1.75698813e-11 1.81864106e-13 0.00000000e+00 1.73880172e-11 0.00000000e+00 1.81864106e-13
1.21175312e+01 1.67953372e-11 1.64762018e-13 0.00000000e+00 1.66305752e-11 0.00000000e+00 1.64762018e-13
1.25230691e+01 1.61973367e-11 1.49268171e-13 0.00000000e+00 1.60480685e-11 0.00000000e+00 1.49268171e-13
1.29421791e+01 1.54361921e-11 1.35231331e-13 0.00000000e+00 1.53009607e-11 0.00000000e+00 1.35231331e-13
1.33753155e+01 1.46754338e-11 1.22514483e-13 0.00000000e+00 1.45529193e-11 0.00000000e+00 1.22514483e-13
1.38229477e+01 1.41006100e-11 1.10993499e-13 0.00000000e+00 1.39896165e-11 0.00000000e+00 1.10993499e-13
1.42855609e+01 1.37595292e-11 1.00555922e-13 0.00000000e+00 1.36589733e-11 0.00000000e+00 1.00555922e-13
1.47636563e+01 1.38202713e-11 9.10998706e-14 0.00000000e+00 1.37291715e-11 0.00000000e+00 9.10998706e-14
1.52577522e+01 1.40109312e-11 8.25330452e-14 0.00000000e+00 1.39283982e-11 0.00000000e+00 8.25330452e-14
1.57683840e+01 1.41860187e-11 7.47718247e-14 0.00000000e+00 1.41112468e-11 0.00000000e+00 7.47718247e-14
1.62961051e+01 1.44217411e-11 6.77404517e-14 0.00000000e+00 1.43540006e-11 0.00000000e+00 6.77404517e-14
1.68414875e+01 1.45501303e-11 6.13702932e-14 0.00000000e+00 1.44887600e-11 0.00000000e+00 6.13702932e-14
1.74051222e+01 1.46242036e-11 5.55991699e-14 0.00000000e+00 1.45686044e-11 0.00000000e+00 5.55991699e-14
1.79876201e+01 1.45683827e-11 5.03707500e-14 0.00000000e+00 1.45180119e-11 0.00000000e+00 5.03707500e-14
1.85896125e+01 1.43623471e-11 4.56339988e-14 0.00000000e+00 1.43167131e-11 0.00000000e+00 4.56339988e-14
1.92117518e+01 1.40282516e-11 4.13426810e-14 0.00000000e+00 1.39869089e-11 0.00000000e+00 4.13426810e-14
1.98547123e+01 1.35286913e-11 3.74549090e-14 0.00000000e+00 1.34912364e-11 0.00000000e+00 3.74549090e-14
2.05191907e+01 1.30335161e-11 3.39327342e-14 0.00000000e+00 1.29995834e-11 0.00000000e+00 3.39327342e-14
2.12059073e+01 1.24324369e-11 3.07417768e-14 0.00000000e+00 1.24016951e-11 0.00000000e+00 3.07417768e-14
2.19156062e+01 1.18840159e-11 2.78508898e-14 0.00000000e+00 1.18561650e-11 0.00000000e+00 2.78508898e-14
2.26490567e+01 1.13723665e-11 2.52318552e-14 0.00000000e+00 1.13471347e-11 0.00000000e+00 2.52318552e-14
2.34070535e+01 1.08175327e-11 2.28591087e-14 0.00000000e+00 1.07946736e-11 0.00000000e+00 2.28591087e-14
2.41904183e+01 1.02919989e-11 2.07094900e-14 0.00000000e+00 1.02712894e-11 0.00000000e+00 2.07094900e-14
2.50000000e+01 9.78291058e-12 1.87620165e-14 0.00000000e+00 9.76414856e-12 0.00000000e+00 1.87620165e-14
2.75422870e+01 8.30254770e-12 1.40313526e-14 0.00000000e+00 8.28851635e-12 0.00000000e+00 1.40313526e-14
3.16227766e+01 6.27746856e-12 9.27042274e-15 0.00000000e+00 6.26819813e-12 0.00000000e+00 9.27042274e-15
3.63078055e+01 4.53694792e-12 6.12490756e-15 0.00000000e+00 4.53082301e-12 0.00000000e+00 6.12490756e-15
4.16869383e+01 3.04934666e-12 4.04668630e-15 0.00000000e+00 3.04529997e-12 0.00000000e+00 4.04668630e-15
4.78630092e+01 1.92449897e-12 2.67361912e-15 0.00000000e+00 1.92182535e-12 0.00000000e+00 2.67361912e-15
5.49540874e+01 1.15299909e-12 1.76644264e-15 0.00000000e+00 1.15123264e-12 0.00000000e+00 1.76644264e-15
6.30957344e+01 6.63239438e-13 1.16707708e-15 0.00000000e+00 6.62072361e-13 0.00000000e+00 1.16707708e-15
7.24435960e+01 3.70372252e-13 7.71080178e-16 0.00000000e+00 3.69601172e-13 0.00000000e+00 7.71080178e-16
8.31763771e+01 2.02429064e-13 5.09447621e-16 0.00000000e+00 2.01919616e-13 0.00000000e+00 5.09447621e-16
9.54992586e+01 1.09174972e-13 3.36588705e-16 0.00000000e+00 1.08838383e-13 0.00000000e+00 3.36588705e-16
1.09647820e+02 5.83188372e-14 2.22381952e-16 0.00000000e+00 5.80964552e-14 0.00000000e+00 2.22381952e-16
1.25892541e+02 3.13005979e-14 1.46926299e-16 0.00000000e+00 3.11536716e-14 0.00000000e+00 1.46926299e-16
1.44543977e+02 1.67817246e-14 9.70732430e-17 0.00000000e+00 1.66846514e-14 0.00000000e+00 9.70732430e-17
1.65958691e+02 8.60088791e-15 6.41356556e-17 0.00000000e+00 8.53675226e-15 0.00000000e+00 6.41356556e-17
1.90546072e+02 4.42843742e-15 4.23740075e-17 0.00000000e+00 4.38606341e-15 0.00000000e+00 4.23740075e-17
2.18776162e+02 2.28396775e-15 2.79962291e-17 0.00000000e+00 2.25597152e-15 0.00000000e+00 2.79962291e-17
2.51188643e+02 1.17736333e-15 1.84969251e-17 0.00000000e+00 1.15886640e-15 0.00000000e+00 1.84969251e-17
2.88403150e+02 6.05855931e-16 1.22207972e-17 0.00000000e+00 5.93635134e-16 0.00000000e+00 1.22207972e-17
3.31131121e+02 3.11804632e-16 8.07420067e-18 0.00000000e+00 3.03730431e-16 0.00000000e+00 8.07420067e-18
3.80189396e+02 1.60344426e-16 5.33457148e-18 0.00000000e+00 1.55009854e-16 0.00000000e+00 5.33457148e-18
4.36515832e+02 8.25262961e-17 3.52451642e-18 0.00000000e+00 7.90017797e-17 0.00000000e+00 3.52451642e-18
5.01187234e+02 4.25204069e-17 2.32862491e-18 0.00000000e+00 4.01917819e-17 0.00000000e+00 2.32862491e-18
5.75439937e+02 2.19560998e-17 1.53850722e-18 0.00000000e+00 2.04175926e-17 0.00000000e+00 1.53850722e-18
6.60693448e+02 1.13755708e-17 1.01648164e-18 0.00000000e+00 1.03590891e-17 0.00000000e+00 1.01648164e-18
7.58577575e+02 5.92156629e-18 6.71582760e-19 0.00000000e+00 5.24998353e-18 0.00000000e+00 6.71582760e-19
8.70963590e+02 3.10110277e-18 4.43710329e-19 0.00000000e+00 2.65739244e-18 0.00000000e+00 4.43710329e-19
1.00000000e+03 1.34349388e-18 0.00000000e+00 0.00000000e+00 1.34349388e-18 0.00000000e+00 0.00000000e+00
