# column 1: lambda (micron)
# column 2: total flux; lambda*F_lambda (W/m2)
# column 3: direct stellar flux; lambda*F_lambda (W/m2)
# column 4: scattered stellar flux; lambda*F_lambda (W/m2)
# column 5: total dust emission flux; lambda*F_lambda (W/m2)
# column 6: dust emission scattered flux; lambda*F_lambda (W/m2)
# column 7: transparent flux; lambda*F_lambda (W/m2)
1.00000000e-03 1.04634500e-12 1.04634360e-12 1.39274360e-18 0.00000000e+00 0.00000000e+00 1.04634360e-12
1.14815362e-03 1.23502308e-12 1.23502095e-12 2.12824435e-18 0.00000000e+00 0.00000000e+00 1.23502095e-12
1.31825674e-03 1.45772398e-12 1.45772071e-12 3.26855996e-18 0.00000000e+00 0.00000000e+00 1.45772071e-12
1.51356125e-03 1.72058292e-12 1.72057784e-12 5.08744713e-18 0.00000000e+00 0.00000000e+00 1.72057784e-12
1.73780083e-03 2.03084259e-12 2.03083353e-12 9.06716510e-18 0.00000000e+00 0.00000000e+00 2.03083353e-12
1.99526231e-03 2.39705040e-12 2.39703472e-12 1.56802394e-17 0.00000000e+00 0.00000000e+00 2.39703472e-12
2.29086765e-03 2.82929428e-12 2.82926954e-12 2.47369263e-17 0.00000000e+00 0.00000000e+00 2.82926954e-12
2.63026799e-03 3.33949530e-12 3.33944522e-12 5.00741546e-17 0.00000000e+00 0.00000000e+00 3.33944522e-12
3.01995172e-03 3.94169879e-12 3.94161611e-12 8.26821521e-17 0.00000000e+00 0.00000000e+00 3.94161611e-12
3.46736850e-03 4.65250852e-12 4.65237083e-12 1.37689884e-16 0.00000000e+00 0.00000000e+00 4.65237083e-12
3.98107171e-03 5.49150600e-12 5.49128930e-12 2.16708465e-16 0.00000000e+00 0.00000000e+00 5.49128930e-12
4.57088190e-03 6.48197704e-12 6.48148207e-12 4.94967431e-16 0.00000000e+00 0.00000000e+00 6.48148207e-12
5.24807460e-03 7.65111399e-12 7.65022704e-12 8.86947111e-16 0.00000000e+00 0.00000000e+00 7.65022704e-12
6.02559586e-03 9.03130357e-12 9.02972084e-12 1.58272309e-15 0.00000000e+00 0.00000000e+00 9.02972084e-12
6.91830971e-03 1.06606270e-11 1.06579658e-11 2.66118228e-15 0.00000000e+00 0.00000000e+00 1.06579658e-11
7.94328235e-03 1.25839557e-11 1.25798170e-11 4.13865585e-15 1.89139208e-303 3.01288410e-306 1.25798170e-11
9.12010839e-03 1.48557261e-11 1.48482176e-11 7.50852395e-15 8.11201966e-265 1.54799835e-267 1.48482176e-11
1.04712855e-02 1.65927418e-11 1.65834298e-11 9.31205251e-15 3.36462485e-231 8.57436699e-234 1.65834298e-11
1.20226443e-02 1.65967574e-11 1.65834298e-11 1.33276269e-14 5.18442390e-202 1.81432163e-204 1.65834298e-11
1.38038426e-02 1.66027010e-11 1.65834298e-11 1.92711849e-14 1.39347874e-176 7.25284068e-179 1.65834298e-11
1.58489319e-02 1.66169061e-11 1.65834298e-11 3.34763609e-14 1.86401267e-154 1.40782567e-156 1.65834298e-11
1.81970086e-02 1.66309901e-11 1.65834298e-11 4.75603282e-14 3.29876244e-135 3.82832918e-137 1.65834298e-11
2.08929613e-02 1.66429066e-11 1.65834298e-11 5.94767925e-14 1.70956104e-118 2.50638331e-120 1.65834298e-11
2.39883292e-02 1.66584623e-11 1.65834298e-11 7.50325221e-14 5.95848459e-104 1.07688726e-105 1.65834298e-11
2.75422870e-02 1.66784250e-11 1.65834298e-11 9.49951769e-14 2.65719347e-91 6.28800807e-93 1.65834298e-11
3.16227766e-02 1.67039076e-11 1.65834298e-11 1.20477851e-13 2.58316885e-80 7.54380658e-82 1.65834298e-11
3.63078055e-02 1.67244764e-11 1.65834298e-11 1.41046656e-13 8.93370059e-71 3.02402826e-72 1.65834298e-11
4.16869383e-02 1.67791968e-11 1.65834298e-11 1.95767033e-13 1.70286988e-62 7.73042285e-64 1.65834298e-11
4.78630092e-02 1.68458036e-11 1.65834298e-11 2.62373837e-13 2.58894095e-55 1.57358141e-56 1.65834298e-11
5.49540874e-02 1.69087310e-11 1.65834298e-11 3.25301256e-13 4.33160689e-49 3.26201924e-50 1.65834298e-11
6.30957344e-02 1.69605723e-11 1.65834298e-11 3.77142512e-13 1.40664122e-43 1.23085906e-44 1.65834298e-11
7.24435960e-02 1.69405537e-11 1.65834298e-11 3.57123956e-13 8.12521790e-39 6.93021273e-40 1.65834298e-11
8.31763771e-02 1.69372167e-11 1.65834298e-11 3.53786911e-13 8.29295708e-35 6.99928398e-36 1.65834298e-11
9.54992586e-02 1.69493940e-11 1.65834298e-11 3.65964255e-13 2.33261638e-31 2.02535694e-32 1.65834298e-11
1.09647820e-01 1.62239650e-11 1.58370587e-11 3.86906270e-13 1.98082688e-28 1.85931145e-29 1.58370587e-11
1.25892541e-01 1.51300060e-11 1.47800032e-11 3.50002878e-13 6.37937322e-26 5.74894513e-27 1.47800032e-11
1.44543977e-01 1.41082909e-11 1.37935015e-11 3.14789399e-13 8.64196466e-24 7.46611283e-25 1.37935015e-11
1.65958691e-01 1.32043303e-11 1.28728446e-11 3.31485655e-13 4.38801079e-22 4.19242759e-23 1.28728446e-11
1.90546072e-01 1.23825586e-11 1.20136376e-11 3.68920949e-13 9.30533385e-21 1.04588639e-21 1.20136376e-11
2.18776162e-01 1.15737189e-11 1.12117790e-11 3.61939856e-13 1.10569247e-19 1.31389227e-20 1.12117790e-11
2.51188643e-01 1.08768929e-11 1.04634409e-11 4.13450648e-13 1.35251345e-18 1.92644045e-19 1.04634409e-11
2.88403150e-01 1.01468718e-11 9.76505125e-12 3.81809374e-13 1.12211526e-17 1.57082293e-18 9.76505125e-12
3.31131121e-01 9.46804520e-12 9.11327608e-12 3.54704988e-13 6.41280978e-17 8.75495225e-18 9.11327608e-12
3.80189396e-01 8.82143035e-12 8.50500410e-12 3.16159795e-13 2.66454621e-16 3.52180543e-17 8.50500410e-12
4.36515832e-01 8.23235060e-12 7.93733165e-12 2.94170324e-13 8.48624882e-16 1.12468349e-16 7.93733165e-12
5.01187234e-01 7.68503185e-12 7.40754890e-12 2.75296059e-13 2.18689384e-15 3.03612805e-16 7.40754890e-12
5.75439937e-01 7.16646293e-12 6.91312687e-12 2.48361853e-13 4.97421047e-15 7.69182176e-16 6.91312687e-12
6.60693448e-01 6.69398708e-12 6.45170538e-12 2.31100577e-13 1.11811245e-14 2.08661593e-15 6.45170538e-12
7.58577575e-01 6.25798431e-12 6.02108180e-12 2.09978127e-13 2.69243833e-14 6.00951487e-15 6.02108180e-12
8.70963590e-01 5.86835970e-12 5.61920048e-12 1.81914316e-13 6.72449049e-14 1.61417230e-14 5.61920048e-12
1.00000000e+00 5.56072885e-12 5.24414302e-12 1.57673999e-13 1.58911836e-13 3.74999186e-14 5.24414302e-12
1.14815362e+00 5.37647557e-12 4.89411902e-12 1.32284111e-13 3.50072440e-13 7.82506222e-14 4.89411902e-12
1.31825674e+00 5.37261324e-12 4.56745763e-12 1.04566979e-13 7.00588633e-13 1.38169041e-13 4.56745763e-12
1.51356125e+00 5.60892901e-12 4.26259947e-12 8.26449959e-14 1.26368454e-12 2.16667247e-13 4.26259947e-12
1.73780083e+00 6.08258016e-12 3.97808929e-12 6.25087025e-14 2.04198217e-12 2.94689059e-13 3.97808929e-12
1.99526231e+00 6.72305308e-12 3.71256894e-12 4.75197588e-14 2.96296438e-12 3.45387396e-13 3.71256894e-12
2.29086765e+00 7.39729836e-12 3.46477093e-12 3.48507217e-14 3.89767671e-12 3.58302672e-13 3.46477093e-12
2.63026799e+00 8.01976986e-12 3.23351237e-12 2.47263315e-14 4.76153116e-12 3.35485344e-13 3.23351237e-12
3.01995172e+00 8.43078603e-12 3.01768933e-12 1.74589222e-14 5.39563778e-12 2.84745408e-13 3.01768933e-12
3.46736850e+00 8.61958507e-12 2.81627154e-12 1.19989263e-14 5.79131460e-12 2.26898079e-13 2.81627154e-12
3.98107171e+00 8.56301155e-12 2.62829753e-12 8.09898004e-15 5.92661504e-12 1.66533734e-13 2.62829753e-12
4.57088190e+00 8.30276235e-12 2.45286997e-12 5.37362271e-15 5.84451875e-12 1.14160288e-13 2.45286997e-12
5.24807460e+00 7.65216525e-12 2.02814751e-12 2.94888700e-15 5.62106885e-12 7.34697966e-14 2.02814751e-12
6.02559586e+00 6.66043482e-12 1.33998377e-12 1.28632816e-15 5.31916472e-12 4.50371444e-14 1.33998377e-12
6.70000000e+00 6.03097877e-12 9.74709347e-13 6.52980077e-16 5.05561644e-12 2.95449676e-14 9.74709347e-13
6.92422916e+00 5.85749298e-12 8.83049889e-13 5.19510621e-16 4.97392358e-12 2.57057227e-14 8.83049889e-13
7.15596261e+00 5.71859687e-12 8.00009879e-13 4.11838479e-16 4.91817515e-12 2.21815911e-14 8.00009879e-13
7.39545150e+00 5.68697586e-12 7.24778763e-13 3.18832995e-16 4.96187826e-12 1.89616176e-14 7.24778763e-13
7.64295536e+00 5.88976181e-12 6.56622211e-13 2.19950541e-16 5.23291965e-12 1.60599690e-14 6.56622211e-13
7.89874245e+00 6.46469984e-12 5.94874946e-13 1.39644899e-16 5.86968525e-12 1.30064969e-14 5.94874946e-13
8.16308998e+00 7.28113988e-12 5.38934254e-13 8.45711701e-17 6.74212106e-12 1.03429275e-14 5.38934254e-13
8.43628443e+00 8.32901919e-12 4.88254098e-13 4.67868006e-17 7.84071831e-12 7.96599393e-15 4.88254098e-13
8.71862190e+00 8.99716897e-12 4.42339790e-13 2.97228398e-17 8.55479945e-12 6.33313118e-15 4.42339790e-13
9.01040836e+00 9.65064808e-12 4.00743158e-13 1.81702562e-17 9.24988675e-12 4.77854339e-15 4.00743158e-13
9.31196005e+00 1.00829747e-11 3.63058180e-13 0.00000000e+00 9.71991647e-12 0.00000000e+00 3.63058180e-13
9.62360379e+00 1.00198977e-11 3.28917012e-13 0.00000000e+00 9.69098074e-12 0.00000000e+00 3.28917012e-13
9.94567731e+00 9.57636027e-12 2.97986401e-13 0.00000000e+00 9.27837387e-12 0.00000000e+00 2.97986401e-13
1.02785297e+01 8.98178671e-12 2.69964435e-13 0.00000000e+00 8.71182228e-12 0.00000000e+00 2.69964435e-13
1.06225216e+01 8.35280528e-12 2.44577592e-13 0.00000000e+00 8.10822769e-12 0.00000000e+00 2.44577592e-13
1.09780260e+01 7.72273137e-12 2.21578069e-13 0.00000000e+00 7.50115330e-12 0.00000000e+00 2.21578069e-13
1.13454280e+01 7.19969247e-12 2.00741370e-13 0.00000000e+00 6.99895110e-12 0.00000000e+00 2.00741370e-13
1.17251259e+01 6.67445811e-12 1.81864106e-13 0.00000000e+00 6.49259401e-12 0.00000000e+00 1.81864106e-13
1.21175312e+01 6.22614632e-12 1.64762018e-13 0.00000000e+00 6.06138430e-12 0.00000000e+00 1.64762018e-13
1.25230691e+01 5.81739766e-12 1.49268171e-13 0.00000000e+00 5.66812949e-12 0.00000000e+00 1.49268171e-13
1.29421791e+01 5.44020757e-12 1.35231331e-13 0.00000000e+00 5.30497624e-12 0.00000000e+00 1.35231331e-13
1.33753155e+01 5.12235211e-12 1.22514483e-13 0.00000000e+00 4.99983763e-12 0.00000000e+00 1.22514483e-13
1.38229477e+01 4.91219743e-12 1.10993499e-13 0.00000000e+00 4.80120393e-12 0.00000000e+00 1.10993499e-13
1.42855609e+01 4.80747423e-12 1.00555922e-13 0.00000000e+00 4.70691831e-12 0.00000000e+00 1.00555922e-13
1.47636563e+01 4.89794799e-12 9.10998706e-14 0.00000000e+00 4.80684812e-12 0.00000000e+00 9.10998706e-14
1.52577522e+01 5.02175982e-12 8.25330452e-14 0.00000000e+00 4.93922677e-12 0.00000000e+00 8.25330452e-14
1.57683840e+01 5.20787848e-12 7.47718247e-14 0.00000000e+00 5.13310666e-12 0.00000000e+00 7.47718247e-14
1.62961051e+01 5.38141877e-12 6.77404517e-14 0.00000000e+00 5.31367832e-12 0.00000000e+00 6.77404517e-14
1.68414875e+01 5.53527436e-12 6.13702932e-14 0.00000000e+00 5.47390407e-12 0.00000000e+00 6.13702932e-14
1.74051222e+01 5.65443103e-12 5.55991699e-14 0.00000000e+00 5.59883186e-12 0.00000000e+00 5.55991699e-14
1.79876201e+01 5.73370267e-12 5.03707500e-14 0.00000000e+00 5.68333192e-12 0.00000000e+00 5.03707500e-14
1.85896125e+01 5.74508704e-12 4.56339988e-14 0.00000000e+00 5.69945304e-12 0.00000000e+00 4.56339988e-14
1.92117518e+01 5.65335579e-12 4.13426810e-14 0.00000000e+00 5.61201311e-12 0.00000000e+00 4.13426810e-14
1.98547123e+01 5.54642596e-12 3.74549090e-14 0.00000000e+00 5.50897105e-12 0.00000000e+00 3.74549090e-14
2.05191907e+01 5.40406823e-12 3.39327342e-14 0.00000000e+00 5.37013550e-12 0.00000000e+00 3.39327342e-14
2.12059073e+01 5.24713788e-12 3.07417768e-14 0.00000000e+00 5.21639610e-12 0.00000000e+00 3.07417768e-14
2.19156062e+01 5.12033455e-12 2.78508898e-14 0.00000000e+00 5.09248366e-12 0.00000000e+00 2.78508898e-14
2.26490567e+01 4.97003123e-12 2.52318552e-14 0.00000000e+00 4.94479938e-12 0.00000000e+00 2.52318552e-14
2.34070535e+01 4.83284779e-12 2.28591087e-14 0.00000000e+00 4.80998868e-12 0.00000000e+00 2.28591087e-14
2.41904183e+01 4.68932014e-12 2.07094900e-14 0.00000000e+00 4.66861065e-12 0.00000000e+00 2.07094900e-14
2.50000000e+01 4.55205211e-12 1.87620165e-14 0.00000000e+00 4.53329009e-12 0.00000000e+00 1.87620165e-14
2.75422870e+01 4.10179576e-12 1.40313526e-14 0.00000000e+00 4.08776441e-12 0.00000000e+00 1.40313526e-14
3.16227766e+01 3.40069421e-12 9.27042274e-15 0.00000000e+00 3.39142379e-12 0.00000000e+00 9.27042274e-15
3.63078055e+01 2.64947290e-12 6.12490756e-15 0.00000000e+00 2.64334800e-12 0.00000000e+00 6.12490756e-15
4.16869383e+01 1.92343291e-12 4.04668630e-15 0.00000000e+00 1.91938623e-12 0.00000000e+00 4.04668630e-15
4.78630092e+01 1.29872205e-12 2.67361912e-15 0.00000000e+00 1.29604843e-12 0.00000000e+00 2.67361912e-15
5.49540874e+01 8.26927712e-13 1.76644264e-15 0.00000000e+00 8.25161270e-13 0.00000000e+00 1.76644264e-15
6.30957344e+01 5.02087348e-13 1.16707708e-15 0.00000000e+00 5.00920271e-13 0.00000000e+00 1.16707708e-15
7.24435960e+01 2.93883484e-13 7.71080178e-16 0.00000000e+00 2.93112404e-13 0.00000000e+00 7.71080178e-16
8.31763771e+01 1.67219914e-13 5.09447621e-16 0.00000000e+00 1.66710466e-13 0.00000000e+00 5.09447621e-16
9.54992586e+01 9.32887038e-14 3.36588705e-16 0.00000000e+00 9.29521151e-14 0.00000000e+00 3.36588705e-16
1.09647820e+02 5.12789117e-14 2.22381952e-16 0.00000000e+00 5.10565297e-14 0.00000000e+00 2.22381952e-16
1.25892541e+02 2.82086427e-14 1.46926299e-16 0.00000000e+00 2.80617164e-14 0.00000000e+00 1.46926299e-16
1.44543977e+02 1.54351429e-14 9.70732430e-17 0.00000000e+00 1.53380696e-14 0.00000000e+00 9.70732430e-17
1.65958691e+02 8.05407254e-15 6.41356556e-17 0.00000000e+00 7.98993688e-15 0.00000000e+00 6.41356556e-17
1.90546072e+02 4.20986238e-15 4.23740075e-17 0.00000000e+00 4.16748837e-15 0.00000000e+00 4.23740075e-17
2.18776162e+02 2.19874426e-15 2.79962291e-17 0.00000000e+00 2.17074804e-15 0.00000000e+00 2.79962291e-17
2.51188643e+02 1.14577645e-15 1.84969251e-17 0.00000000e+00 1.12727953e-15 0.00000000e+00 1.84969251e-17
2.88403150e+02 5.95052869e-16 1.22207972e-17 0.00000000e+00 5.82832072e-16 0.00000000e+00 1.22207972e-17
3.31131121e+02 3.08640918e-16 8.07420067e-18 0.00000000e+00 3.00566717e-16 0.00000000e+00 8.07420067e-18
3.80189396e+02 1.59770217e-16 5.33457148e-18 0.00000000e+00 1.54435645e-16 0.00000000e+00 5.33457148e-18
4.36515832e+02 8.26904879e-17 3.52451642e-18 0.00000000e+00 7.91659715e-17 0.00000000e+00 3.52451642e-18
5.01187234e+02 4.28034570e-17 2.32862491e-18 0.00000000e+00 4.04748321e-17 0.00000000e+00 2.32862491e-18
5.75439937e+02 2.21878616e-17 1.53850722e-18 0.00000000e+00 2.06493544e-17 0.00000000e+00 1.53850722e-18
6.60693448e+02 1.15316564e-17 1.01648164e-18 0.00000000e+00 1.05151748e-17 0.00000000e+00 1.01648164e-18
7.58577575e+02 6.01755176e-18 6.71582760e-19 0.00000000e+00 5.34596900e-18 0.00000000e+00 6.71582760e-19
8.70963590e+02 3.15707867e-18 4.43710329e-19 0.00000000e+00 2.71336834e-18 0.00000000e+00 4.43710329e-19
1.00000000e+03 1.37502116e-18 0.00000000e+00 0.00000000e+00 1.37502116e-18 0.00000000e+00 0.00000000e+00
