# column 1: lambda (micron)
# column 2: total flux; lambda*F_lambda (W/m2)
# column 3: direct stellar flux; lambda*F_lambda (W/m2)
# column 4: scattered stellar flux; lambda*F_lambda (W/m2)
# column 5: total dust emission flux; lambda*F_lambda (W/m2)
# column 6: dust emission scattered flux; lambda*F_lambda (W/m2)
# column 7: transparent flux; lambda*F_lambda (W/m2)
1.00000000e-03 2.06076256e-13 2.06075710e-13 5.46624153e-19 0.00000000e+00 0.00000000e+00 2.06075710e-13
1.14815362e-03 2.43236393e-13 2.43235413e-13 9.80209676e-19 0.00000000e+00 0.00000000e+00 2.43235413e-13
1.31825674e-03 2.87097020e-13 2.87095777e-13 1.24268632e-18 0.00000000e+00 0.00000000e+00 2.87095777e-13
1.51356125e-03 3.38867434e-13 3.38865070e-13 2.36394470e-18 0.00000000e+00 0.00000000e+00 3.38865070e-13
1.73780083e-03 3.99973852e-13 3.99969435e-13 4.41732151e-18 0.00000000e+00 0.00000000e+00 3.99969435e-13
1.99526231e-03 4.72099271e-13 4.72092178e-13 7.09354258e-18 0.00000000e+00 0.00000000e+00 4.72092178e-13
2.29086765e-03 5.57233695e-13 5.57220139e-13 1.35560379e-17 0.00000000e+00 0.00000000e+00 5.57220139e-13
2.63026799e-03 6.57722055e-13 6.57698429e-13 2.36259667e-17 0.00000000e+00 0.00000000e+00 6.57698429e-13
3.01995172e-03 7.76333470e-13 7.76295028e-13 3.84424863e-17 0.00000000e+00 0.00000000e+00 7.76295028e-13
3.46736850e-03 9.16336454e-13 9.16277040e-13 5.94132165e-17 0.00000000e+00 0.00000000e+00 9.16277040e-13
3.98107171e-03 1.08163166e-12 1.08150070e-12 1.30961606e-16 0.00000000e+00 0.00000000e+00 1.08150070e-12
4.57088190e-03 1.27673965e-12 1.27651759e-12 2.22054667e-16 0.00000000e+00 0.00000000e+00 1.27651759e-12
5.24807460e-03 1.50711699e-12 1.50670006e-12 4.16934815e-16 0.00000000e+00 0.00000000e+00 1.50670006e-12
6.02559586e-03 1.77909643e-12 1.77838917e-12 7.07264621e-16 0.00000000e+00 0.00000000e+00 1.77838917e-12
6.91830971e-03 2.10047669e-12 2.09906943e-12 1.40726102e-15 0.00000000e+00 0.00000000e+00 2.09906943e-12
7.94328235e-03 2.47960948e-12 2.47757497e-12 2.03451743e-15 4.78304277e-304 1.77311623e-306 2.47757497e-12
9.12010839e-03 2.92806328e-12 2.92433286e-12 3.73041735e-15 2.90303324e-265 1.76111430e-267 2.92433286e-12
1.04712855e-02 3.27112856e-12 3.26608014e-12 5.04842236e-15 1.62677168e-231 1.10141583e-233 3.26608014e-12
1.20226443e-02 3.27264231e-12 3.26608014e-12 6.56217170e-15 3.27435322e-202 4.20672884e-204 3.26608014e-12
1.38038426e-02 3.27466162e-12 3.26608014e-12 8.58148702e-15 1.10411549e-176 1.47499612e-178 3.26608014e-12
1.58489319e-02 3.28404333e-12 3.26608014e-12 1.79631888e-14 1.80228149e-154 2.94951771e-156 3.26608014e-12
1.81970086e-02 3.28241375e-12 3.26608014e-12 1.63336090e-14 3.78935759e-135 7.60222242e-137 3.26608014e-12
2.08929613e-02 3.29596961e-12 3.26608014e-12 2.98894774e-14 2.28685260e-118 5.67218317e-120 3.26608014e-12
2.39883292e-02 3.30079847e-12 3.26608014e-12 3.47183369e-14 9.10704496e-104 2.79471018e-105 3.26608014e-12
2.75422870e-02 3.30664119e-12 3.26608014e-12 4.05610542e-14 4.55180533e-91 1.66381117e-92 3.26608014e-12
3.16227766e-02 3.31043557e-12 3.26608014e-12 4.43554350e-14 4.88404514e-80 2.04248666e-81 3.26608014e-12
3.63078055e-02 3.30545827e-12 3.26608014e-12 3.93781316e-14 1.83840672e-70 8.25769311e-72 3.26608014e-12
4.16869383e-02 3.31376722e-12 3.26608014e-12 4.76870812e-14 3.76402755e-62 1.99050252e-63 3.26608014e-12
4.78630092e-02 3.31194403e-12 3.26608014e-12 4.58638955e-14 6.04905986e-55 3.62222725e-56 3.26608014e-12
5.49540874e-02 3.31434493e-12 3.26608014e-12 4.82647967e-14 1.05900428e-48 6.92534163e-50 3.26608014e-12
6.30957344e-02 3.30730703e-12 3.26608014e-12 4.12268961e-14 3.56082172e-43 2.45252815e-44 3.26608014e-12
7.24435960e-02 3.30371285e-12 3.26608014e-12 3.76327110e-14 2.12525042e-38 1.33462364e-39 3.26608014e-12
8.31763771e-02 3.30530414e-12 3.26608014e-12 3.92239988e-14 2.25351919e-34 1.39079087e-35 3.26608014e-12
9.54992586e-02 3.30453367e-12 3.26608014e-12 3.84535352e-14 6.55045736e-31 4.07194433e-32 3.26608014e-12
1.09647820e-01 3.15868769e-12 3.11908354e-12 3.96041472e-14 5.74231023e-28 3.88305128e-29 3.11908354e-12
1.25892541e-01 2.94883067e-12 2.91089813e-12 3.79325359e-14 1.91108853e-25 1.27806190e-26 2.91089813e-12
1.44543977e-01 2.75190106e-12 2.71660820e-12 3.52928554e-14 2.66385328e-23 1.75467145e-24 2.71660820e-12
1.65958691e-01 2.56908364e-12 2.53528629e-12 3.37973515e-14 1.37421786e-21 9.66695161e-23 2.53528629e-12
1.90546072e-01 2.40035919e-12 2.36606683e-12 3.42923319e-14 2.93639450e-20 2.35986258e-21 2.36606683e-12
2.18776162e-01 2.24024691e-12 2.20814205e-12 3.21045163e-14 3.50477863e-19 2.82357008e-20 2.20814205e-12
2.51188643e-01 2.09502755e-12 2.06075806e-12 3.42651806e-14 4.30433443e-18 4.04448235e-19 2.06075806e-12
2.88403150e-01 1.95662787e-12 1.92321132e-12 3.33803191e-14 3.62327866e-17 3.34546750e-18 1.92321132e-12
3.31131121e-01 1.82536652e-12 1.79484524e-12 3.03117761e-14 2.09505082e-16 1.87337205e-17 1.79484524e-12
3.80189396e-01 1.70455148e-12 1.67504704e-12 2.86250115e-14 8.79426582e-16 7.61720077e-17 1.67504704e-12
4.36515832e-01 1.58978303e-12 1.56324485e-12 2.37430427e-14 2.79513648e-15 2.33654240e-16 1.56324485e-12
5.01187234e-01 1.48783415e-12 1.45890498e-12 2.19234471e-14 7.00571870e-15 5.74513924e-16 1.45890498e-12
5.75439937e-01 1.39548156e-12 1.36152935e-12 1.95538025e-14 1.43984103e-14 1.12974111e-15 1.36152935e-12
6.60693448e-01 1.31158536e-12 1.27065312e-12 1.57651403e-14 2.51670999e-14 1.89239428e-15 1.27065312e-12
7.58577575e-01 1.23913497e-12 1.18584249e-12 1.43658068e-14 3.89266757e-14 2.79827833e-15 1.18584249e-12
8.70963590e-01 1.17386414e-12 1.10669260e-12 1.27223848e-14 5.44491479e-14 3.68154664e-15 1.10669260e-12
1.00000000e+00 1.11323945e-12 1.03282563e-12 1.03240558e-14 7.00897587e-14 4.42480261e-15 1.03282563e-12
1.14815362e+00 1.05879195e-12 9.63888963e-13 8.43173681e-15 8.64712481e-14 4.94802244e-15 9.63888963e-13
1.31825674e+00 1.01182055e-12 8.99553520e-13 6.72381497e-15 1.05543215e-13 5.42881417e-15 8.99553520e-13
1.51356125e+00 9.73723325e-13 8.39512191e-13 5.08482833e-15 1.29126305e-13 5.89740944e-15 8.39512191e-13
1.73780083e+00 9.45775483e-13 7.83478363e-13 3.95213564e-15 1.58344984e-13 6.08542307e-15 7.83478363e-13
1.99526231e+00 9.26641416e-13 7.31184552e-13 2.92859852e-15 1.92528265e-13 5.95816753e-15 7.31184552e-13
2.29086765e+00 9.11378476e-13 6.82381128e-13 1.97706394e-15 2.27020284e-13 5.48786895e-15 6.82381128e-13
2.63026799e+00 8.94696649e-13 6.36835122e-13 1.47478683e-15 2.56386740e-13 4.82151568e-15 6.36835122e-13
3.01995172e+00 8.70980179e-13 5.94329117e-13 1.00238319e-15 2.75648679e-13 4.08957515e-15 5.94329117e-13
3.46736850e+00 8.38353775e-13 5.54660204e-13 7.56084603e-16 2.82937486e-13 3.31308255e-15 5.54660204e-13
3.98107171e+00 7.97321221e-13 5.17639021e-13 4.74575941e-16 2.79207624e-13 2.50962217e-15 5.17639021e-13
4.57088190e+00 7.48345631e-13 4.83088843e-13 3.17495899e-16 2.64939292e-13 1.81876693e-15 4.83088843e-13
5.24807460e+00 6.45648643e-13 3.99440428e-13 1.78828474e-16 2.46029386e-13 1.22687666e-15 3.99440428e-13
6.02559586e+00 4.89139219e-13 2.63907674e-13 7.58732886e-17 2.25155671e-13 7.73743228e-16 2.63907674e-13
6.70000000e+00 4.00330994e-13 1.91967457e-13 3.80020068e-17 2.08325535e-13 5.15003740e-16 1.91967457e-13
6.92422916e+00 3.76372920e-13 1.73915272e-13 3.03795575e-17 2.02427268e-13 4.48982536e-16 1.73915272e-13
7.15596261e+00 3.56668951e-13 1.57560674e-13 2.44151049e-17 1.99083862e-13 3.88741654e-16 1.57560674e-13
7.39545150e+00 3.43078739e-13 1.42744025e-13 1.98763274e-17 2.00314837e-13 3.32655573e-16 1.42744025e-13
7.64295536e+00 3.44134203e-13 1.29320701e-13 1.35819265e-17 2.14799921e-13 2.75441270e-16 1.29320701e-13
7.89874245e+00 3.66678118e-13 1.17159675e-13 7.96275562e-18 2.49510480e-13 2.24812093e-16 1.17159675e-13
8.16308998e+00 4.08050785e-13 1.06142245e-13 4.86417894e-18 3.01903676e-13 1.77061843e-16 1.06142245e-13
8.43628443e+00 4.68595611e-13 9.61608686e-14 2.60877132e-18 3.72432134e-13 1.35126080e-16 9.61608686e-14
8.71862190e+00 5.11073683e-13 8.71181185e-14 1.73910835e-18 4.23953826e-13 1.04228089e-16 8.71181185e-14
9.01040836e+00 5.53329345e-13 7.89257281e-14 1.06074705e-18 4.74402556e-13 7.70383792e-17 7.89257281e-14
9.31196005e+00 5.87554721e-13 7.15037315e-14 0.00000000e+00 5.16050989e-13 0.00000000e+00 7.15037315e-14
9.62360379e+00 5.74037037e-13 6.47796826e-14 0.00000000e+00 5.09257354e-13 0.00000000e+00 6.47796826e-14
9.94567731e+00 5.32181461e-13 5.86879481e-14 0.00000000e+00 4.73493513e-13 0.00000000e+00 5.86879481e-14
1.02785297e+01 4.80460420e-13 5.31690665e-14 0.00000000e+00 4.27291354e-13 0.00000000e+00 5.31690665e-14
1.06225216e+01 4.31928230e-13 4.81691679e-14 0.00000000e+00 3.83759062e-13 0.00000000e+00 4.81691679e-14
1.09780260e+01 3.80293555e-13 4.36394486e-14 0.00000000e+00 3.36654107e-13 0.00000000e+00 4.36394486e-14
1.13454280e+01 3.38954108e-13 3.95356937e-14 0.00000000e+00 2.99418414e-13 0.00000000e+00 3.95356937e-14
1.17251259e+01 3.00959479e-13 3.58178467e-14 0.00000000e+00 2.65141632e-13 0.00000000e+00 3.58178467e-14
1.21175312e+01 2.68599860e-13 3.24496176e-14 0.00000000e+00 2.36150243e-13 0.00000000e+00 3.24496176e-14
1.25230691e+01 2.40722115e-13 2.93981291e-14 0.00000000e+00 2.11323986e-13 0.00000000e+00 2.93981291e-14
1.29421791e+01 2.16126943e-13 2.66335956e-14 0.00000000e+00 1.89493348e-13 0.00000000e+00 2.66335956e-14
1.33753155e+01 1.95428380e-13 2.41290327e-14 0.00000000e+00 1.71299347e-13 0.00000000e+00 2.41290327e-14
1.38229477e+01 1.80758084e-13 2.18599931e-14 0.00000000e+00 1.58898091e-13 0.00000000e+00 2.18599931e-14
1.42855609e+01 1.71836093e-13 1.98043289e-14 0.00000000e+00 1.52031764e-13 0.00000000e+00 1.98043289e-14
1.47636563e+01 1.71170870e-13 1.79419747e-14 0.00000000e+00 1.53228895e-13 0.00000000e+00 1.79419747e-14
1.52577522e+01 1.71543221e-13 1.62547521e-14 0.00000000e+00 1.55288469e-13 0.00000000e+00 1.62547521e-14
1.57683840e+01 1.73721511e-13 1.47261920e-14 0.00000000e+00 1.58995319e-13 0.00000000e+00 1.47261920e-14
1.62961051e+01 1.75922595e-13 1.33413743e-14 0.00000000e+00 1.62581220e-13 0.00000000e+00 1.33413743e-14
1.68414875e+01 1.78064471e-13 1.20867817e-14 0.00000000e+00 1.65977689e-13 0.00000000e+00 1.20867817e-14
1.74051222e+01 1.77965520e-13 1.09501681e-14 0.00000000e+00 1.67015352e-13 0.00000000e+00 1.09501681e-14
1.79876201e+01 1.76362293e-13 9.92043915e-15 0.00000000e+00 1.66441854e-13 0.00000000e+00 9.92043915e-15
1.85896125e+01 1.71678497e-13 8.98754353e-15 0.00000000e+00 1.62690953e-13 0.00000000e+00 8.98754353e-15
1.92117518e+01 1.65208074e-13 8.14237531e-15 0.00000000e+00 1.57065699e-13 0.00000000e+00 8.14237531e-15
1.98547123e+01 1.57318266e-13 7.37668479e-15 0.00000000e+00 1.49941582e-13 0.00000000e+00 7.37668479e-15
2.05191907e+01 1.49678889e-13 6.68299807e-15 0.00000000e+00 1.42995891e-13 0.00000000e+00 6.68299807e-15
2.12059073e+01 1.41800845e-13 6.05454408e-15 0.00000000e+00 1.35746301e-13 0.00000000e+00 6.05454408e-15
2.19156062e+01 1.34946381e-13 5.48518847e-15 0.00000000e+00 1.29461192e-13 0.00000000e+00 5.48518847e-15
2.26490567e+01 1.28628739e-13 4.96937378e-15 0.00000000e+00 1.23659365e-13 0.00000000e+00 4.96937378e-15
2.34070535e+01 1.22651935e-13 4.50206513e-15 0.00000000e+00 1.18149870e-13 0.00000000e+00 4.50206513e-15
2.41904183e+01 1.17459487e-13 4.07870113e-15 0.00000000e+00 1.13380785e-13 0.00000000e+00 4.07870113e-15
2.50000000e+01 1.12497518e-13 3.69514932e-15 0.00000000e+00 1.08802369e-13 0.00000000e+00 3.69514932e-15
2.75422870e+01 9.87285514e-14 2.76345259e-15 0.00000000e+00 9.59650988e-14 0.00000000e+00 2.76345259e-15
3.16227766e+01 8.06210404e-14 1.82579502e-15 0.00000000e+00 7.87952454e-14 0.00000000e+00 1.82579502e-15
3.63078055e+01 6.33721677e-14 1.20629081e-15 0.00000000e+00 6.21658769e-14 0.00000000e+00 1.20629081e-15
4.16869383e+01 4.68820363e-14 7.96988434e-16 0.00000000e+00 4.60850478e-14 0.00000000e+00 7.96988434e-16
4.78630092e+01 3.27095859e-14 5.26565037e-16 0.00000000e+00 3.21830208e-14 0.00000000e+00 5.26565037e-16
5.49540874e+01 2.16025383e-14 3.47898070e-16 0.00000000e+00 2.12546402e-14 0.00000000e+00 3.47898070e-16
6.30957344e+01 1.36636369e-14 2.29853975e-16 0.00000000e+00 1.34337829e-14 0.00000000e+00 2.29853975e-16
7.24435960e+01 8.32908836e-15 1.51863015e-16 0.00000000e+00 8.17722534e-15 0.00000000e+00 1.51863015e-16
8.31763771e+01 4.94115045e-15 1.00334899e-16 0.00000000e+00 4.84081555e-15 0.00000000e+00 1.00334899e-16
9.54992586e+01 2.86765095e-15 6.62906105e-17 0.00000000e+00 2.80136034e-15 0.00000000e+00 6.62906105e-17
1.09647820e+02 1.63624591e-15 4.37977720e-17 0.00000000e+00 1.59244814e-15 0.00000000e+00 4.37977720e-17
1.25892541e+02 9.31472172e-16 2.89369010e-17 0.00000000e+00 9.02535271e-16 0.00000000e+00 2.89369010e-17
1.44543977e+02 5.26293164e-16 1.91184209e-17 0.00000000e+00 5.07174743e-16 0.00000000e+00 1.91184209e-17
1.65958691e+02 2.83303930e-16 1.26314154e-17 0.00000000e+00 2.70672514e-16 0.00000000e+00 1.26314154e-17
1.90546072e+02 1.52556351e-16 8.34549342e-18 0.00000000e+00 1.44210858e-16 0.00000000e+00 8.34549342e-18
2.18776162e+02 8.20507537e-17 5.51381282e-18 0.00000000e+00 7.65369408e-17 0.00000000e+00 5.51381282e-18
2.51188643e+02 4.40388718e-17 3.64294000e-18 0.00000000e+00 4.03959318e-17 0.00000000e+00 3.64294000e-18
2.88403150e+02 2.35898538e-17 2.40686659e-18 0.00000000e+00 2.11829872e-17 0.00000000e+00 2.40686659e-18
3.31131121e+02 1.26493585e-17 1.59020099e-18 0.00000000e+00 1.10591575e-17 0.00000000e+00 1.59020099e-18
3.80189396e+02 6.79392510e-18 1.05063537e-18 0.00000000e+00 5.74328972e-18 0.00000000e+00 1.05063537e-18
4.36515832e+02 3.66566151e-18 6.94147908e-19 0.00000000e+00 2.97151360e-18 0.00000000e+00 6.94147908e-19
5.01187234e+02 1.99013712e-18 4.58618975e-19 0.00000000e+00 1.53151815e-18 0.00000000e+00 4.58618975e-19
5.75439937e+02 1.08981138e-18 3.03006552e-19 0.00000000e+00 7.86804828e-19 0.00000000e+00 3.03006552e-19
6.60693448e+02 6.03287488e-19 2.00194443e-19 0.00000000e+00 4.03093044e-19 0.00000000e+00 2.00194443e-19
7.58577575e+02 3.38278590e-19 1.32267157e-19 0.00000000e+00 2.06011433e-19 0.00000000e+00 1.32267157e-19
8.70963590e+02 1.92427276e-19 8.73880441e-20 0.00000000e+00 1.05039232e-19 0.00000000e+00 8.73880441e-20
1.00000000e+03 5.34403514e-20 0.00000000e+00 0.00000000e+00 5.34403514e-20 0.00000000e+00 0.00000000e+00
