# column 1: lambda (micron)
# column 2: total flux; lambda*F_lambda (W/m2)
# column 3: direct stellar flux; lambda*F_lambda (W/m2)
# column 4: scattered stellar flux; lambda*F_lambda (W/m2)
# column 5: total dust emission flux; lambda*F_lambda (W/m2)
# column 6: dust emission scattered flux; lambda*F_lambda (W/m2)
# column 7: transparent flux; lambda*F_lambda (W/m2)
1.00000000e-03 9.68073673e-13 9.68073281e-13 3.92265475e-19 0.00000000e+00 0.00000000e+00 9.68073281e-13
1.14815362e-03 1.14263747e-12 1.14263687e-12 5.98023651e-19 0.00000000e+00 0.00000000e+00 1.14263687e-12
1.31825674e-03 1.34867880e-12 1.34867788e-12 9.23398624e-19 0.00000000e+00 0.00000000e+00 1.34867788e-12
1.51356125e-03 1.59187378e-12 1.59187233e-12 1.44778174e-18 0.00000000e+00 0.00000000e+00 1.59187233e-12
1.73780083e-03 1.87892227e-12 1.87891976e-12 2.50613390e-18 0.00000000e+00 0.00000000e+00 1.87891976e-12
1.99526231e-03 2.21773241e-12 2.21772777e-12 4.64934723e-18 0.00000000e+00 0.00000000e+00 2.21772777e-12
2.29086765e-03 2.61763704e-12 2.61762985e-12 7.19182792e-18 0.00000000e+00 0.00000000e+00 2.61762985e-12
2.63026799e-03 3.08965652e-12 3.08964252e-12 1.39977212e-17 0.00000000e+00 0.00000000e+00 3.08964252e-12
3.01995172e-03 3.64679224e-12 3.64676883e-12 2.34137953e-17 0.00000000e+00 0.00000000e+00 3.64676883e-12
3.46736850e-03 4.30439523e-12 4.30435650e-12 3.87308259e-17 0.00000000e+00 0.00000000e+00 4.30435650e-12
3.98107171e-03 5.08058179e-12 5.08052080e-12 6.09933152e-17 0.00000000e+00 0.00000000e+00 5.08052080e-12
4.57088190e-03 5.99678582e-12 5.99664354e-12 1.42284564e-16 0.00000000e+00 0.00000000e+00 5.99664354e-12
5.24807460e-03 7.07822189e-12 7.07796211e-12 2.59778173e-16 0.00000000e+00 0.00000000e+00 7.07796211e-12
6.02559586e-03 8.35472254e-12 8.35426474e-12 4.57797300e-16 0.00000000e+00 0.00000000e+00 8.35426474e-12
6.91830971e-03 9.86149741e-12 9.86071107e-12 7.86340374e-16 0.00000000e+00 0.00000000e+00 9.86071107e-12
7.94328235e-03 1.16399886e-11 1.16388008e-11 1.18786209e-15 0.00000000e+00 0.00000000e+00 1.16388008e-11
9.12010839e-03 1.37552229e-11 1.37375167e-11 1.77061597e-14 0.00000000e+00 0.00000000e+00 1.37375167e-11
1.04712855e-02 1.53454980e-11 1.53429287e-11 2.56936541e-15 0.00000000e+00 0.00000000e+00 1.53429287e-11
1.20226443e-02 1.53468079e-11 1.53429287e-11 3.87925156e-15 0.00000000e+00 0.00000000e+00 1.53429287e-11
1.38038426e-02 1.53494917e-11 1.53429287e-11 6.56307304e-15 1.81607060e-290 1.65075485e-291 1.53429287e-11
1.58489319e-02 1.53512376e-11 1.53429287e-11 8.30897666e-15 1.66550066e-253 2.17136313e-254 1.53429287e-11
1.81970086e-02 1.53540662e-11 1.53429287e-11 1.11375338e-14 2.24518688e-221 1.77349324e-222 1.53429287e-11
2.08929613e-02 1.53623141e-11 1.53429287e-11 1.93854201e-14 2.03790392e-193 1.69269327e-194 1.53429287e-11
2.39883292e-02 1.53651996e-11 1.53429287e-11 2.22709030e-14 4.41596074e-169 3.76090645e-170 1.53429287e-11
2.75422870e-02 1.53691442e-11 1.53429287e-11 2.62155354e-14 6.62135095e-148 5.60912470e-149 1.53429287e-11
3.16227766e-02 1.53771775e-11 1.53429287e-11 3.42488627e-14 1.73188414e-129 1.57264660e-130 1.53429287e-11
3.63078055e-02 1.53826929e-11 1.53429287e-11 3.97642784e-14 1.77473241e-113 1.68754530e-114 1.53429287e-11
4.16869383e-02 1.54010701e-11 1.53429287e-11 5.81414342e-14 1.46835618e-99 1.52797204e-100 1.53429287e-11
4.78630092e-02 1.54207553e-11 1.53429287e-11 7.78266063e-14 1.80274450e-87 2.10315467e-88 1.53429287e-11
5.49540874e-02 1.54398544e-11 1.53429287e-11 9.69256878e-14 5.66986958e-77 7.39919243e-78 1.53429287e-11
6.30957344e-02 1.54656589e-11 1.53429287e-11 1.22730257e-13 9.62199149e-68 1.40669930e-68 1.53429287e-11
7.24435960e-02 1.54559010e-11 1.53429287e-11 1.12972380e-13 9.52558065e-60 1.34609031e-60 1.53429287e-11
8.31763771e-02 1.54587278e-11 1.53429287e-11 1.15799170e-13 6.65545604e-53 9.29428654e-54 1.53429287e-11
9.54992586e-02 1.54649174e-11 1.53429287e-11 1.21988706e-13 5.66919328e-47 8.20156653e-48 1.53429287e-11
1.09647820e-01 1.47749563e-11 1.46523889e-11 1.22567463e-13 7.20841822e-42 1.11209221e-42 1.46523889e-11
1.25892541e-01 1.37841020e-11 1.36744049e-11 1.09697105e-13 1.84293429e-37 2.78966900e-38 1.36744049e-11
1.44543977e-01 1.28621302e-11 1.27616972e-11 1.00432947e-13 1.14146543e-33 1.66979248e-34 1.27616972e-11
1.65958691e-01 1.20185249e-11 1.19099088e-11 1.08616106e-13 1.64664305e-30 2.65652970e-31 1.19099088e-11
1.90546072e-01 1.12387924e-11 1.11149736e-11 1.23818817e-13 6.47117522e-28 1.22955541e-28 1.11149736e-11
2.18776162e-01 1.04945537e-11 1.03730969e-11 1.21456799e-13 9.69593704e-26 1.96913842e-26 1.03730969e-11
2.51188643e-01 9.83249319e-12 9.68073733e-12 1.51755858e-13 1.20858529e-23 2.92681961e-24 9.68073733e-12
2.88403150e-01 9.16833283e-12 9.03458975e-12 1.33743078e-13 7.62932140e-22 1.82203052e-22 9.03458975e-12
3.31131121e-01 8.55126891e-12 8.43156974e-12 1.19699143e-13 2.63457643e-20 6.15721152e-21 8.43156974e-12
3.80189396e-01 7.97608794e-12 7.86879872e-12 1.07288670e-13 5.47319479e-19 1.26685464e-19 7.86879872e-12
4.36515832e-01 7.44563688e-12 7.34359025e-12 1.02039359e-13 7.27459341e-18 1.67837532e-18 7.34359025e-12
5.01187234e-01 6.94913360e-12 6.85343719e-12 9.56307110e-14 6.57055670e-17 1.51071180e-17 6.85343719e-12
5.75439937e-01 6.48577652e-12 6.39599973e-12 8.93540713e-14 4.22725161e-16 9.63482614e-17 6.39599973e-12
6.60693448e-01 6.05428998e-12 5.96909425e-12 8.31645699e-14 2.03115447e-15 4.52673274e-16 5.96909425e-12
7.58577575e-01 5.65564485e-12 5.57068288e-12 7.72698218e-14 7.69213934e-15 1.67087489e-15 5.57068288e-12
8.70963590e-01 5.29086540e-12 5.19886376e-12 6.82087895e-14 2.37928500e-14 4.94245232e-15 5.19886376e-12
1.00000000e+00 4.97327939e-12 4.85186196e-12 6.00970392e-14 6.13203831e-14 1.19354953e-14 4.85186196e-12
1.14815362e+00 4.71700348e-12 4.52802104e-12 5.09463427e-14 1.38036097e-13 2.44161806e-14 4.52802104e-12
1.31825674e+00 4.54345113e-12 4.22579511e-12 4.12398267e-14 2.76416194e-13 4.31214278e-14 4.22579511e-12
1.51356125e+00 4.46876738e-12 3.94374146e-12 3.23935011e-14 4.92632416e-13 6.56585580e-14 3.94374146e-12
1.73780083e+00 4.48649597e-12 3.68051368e-12 2.55229695e-14 7.80459320e-13 8.59731886e-14 3.68051368e-12
1.99526231e+00 4.55495748e-12 3.43485522e-12 1.86833129e-14 1.10141894e-12 9.74059244e-14 3.43485522e-12
2.29086765e+00 4.62112675e-12 3.20559341e-12 1.31176026e-14 1.40241574e-12 9.49470631e-14 3.20559341e-12
2.63026799e+00 4.63504524e-12 2.99163384e-12 9.24037842e-15 1.63417103e-12 8.34314885e-14 2.99163384e-12
3.01995172e+00 4.56411765e-12 2.79195514e-12 6.29754666e-15 1.76586496e-12 6.62157208e-14 2.79195514e-12
3.46736850e+00 4.40410441e-12 2.60560415e-12 4.08862784e-15 1.79441164e-12 4.85327725e-14 2.60560415e-12
3.98107171e+00 4.16143053e-12 2.43169128e-12 2.69212956e-15 1.72704712e-12 3.28953123e-14 2.43169128e-12
4.57088190e+00 3.86389677e-12 2.26938634e-12 1.75868480e-15 1.59275174e-12 2.09557324e-14 2.26938634e-12
5.24807460e+00 3.30607646e-12 1.87643467e-12 9.31203552e-16 1.42871059e-12 1.22986338e-14 1.87643467e-12
6.02559586e+00 2.50783702e-12 1.23974809e-12 3.96724530e-16 1.26769221e-12 6.94950511e-15 1.23974809e-12
6.70000000e+00 2.04737139e-12 9.01797527e-13 1.91068353e-16 1.14538280e-12 4.27754363e-15 9.01797527e-13
6.92422916e+00 1.92634764e-12 8.16994532e-13 1.51347565e-16 1.10920176e-12 3.65053404e-15 8.16994532e-13
7.15596261e+00 1.82583807e-12 7.40166218e-13 1.19197802e-16 1.08555265e-12 3.12860276e-15 7.40166218e-13
7.39545150e+00 1.76114676e-12 6.70562664e-13 9.39033118e-17 1.09049019e-12 2.64280706e-15 6.70562664e-13
7.64295536e+00 1.78594816e-12 6.07504471e-13 6.71155443e-17 1.17837658e-12 2.28296763e-15 6.07504471e-13
7.89874245e+00 1.94010276e-12 5.50376127e-13 4.30650258e-17 1.38968357e-12 1.96882980e-15 5.50376127e-13
8.16308998e+00 2.19391068e-12 4.98620004e-13 2.74813782e-17 1.69526319e-12 1.67094076e-15 4.98620004e-13
8.43628443e+00 2.55377913e-12 4.51730909e-13 1.62750330e-17 2.10203195e-12 1.36535051e-15 4.51730909e-13
8.71862190e+00 2.78683713e-12 4.09251158e-13 1.03269298e-17 2.37757565e-12 1.10542492e-15 4.09251158e-13
9.01040836e+00 3.02411676e-12 3.70766106e-13 6.73787589e-18 2.65334392e-12 8.43697973e-16 3.70766106e-13
9.31196005e+00 3.19008655e-12 3.35900102e-13 0.00000000e+00 2.85418645e-12 0.00000000e+00 3.35900102e-13
9.62360379e+00 3.12463176e-12 3.04312818e-13 0.00000000e+00 2.82031895e-12 0.00000000e+00 3.04312818e-13
9.94567731e+00 2.90728679e-12 2.75695930e-13 0.00000000e+00 2.63159086e-12 0.00000000e+00 2.75695930e-13
1.02785297e+01 2.63066431e-12 2.49770110e-13 0.00000000e+00 2.38089420e-12 0.00000000e+00 2.49770110e-13
1.06225216e+01 2.37377594e-12 2.26282295e-13 0.00000000e+00 2.14749364e-12 0.00000000e+00 2.26282295e-13
1.09780260e+01 2.10596301e-12 2.05003220e-13 0.00000000e+00 1.90095979e-12 0.00000000e+00 2.05003220e-13
1.13454280e+01 1.86341320e-12 1.85725182e-13 0.00000000e+00 1.67768802e-12 0.00000000e+00 1.85725182e-13
1.17251259e+01 1.66125761e-12 1.68260007e-13 0.00000000e+00 1.49299760e-12 0.00000000e+00 1.68260007e-13
1.21175312e+01 1.47967288e-12 1.52437217e-13 0.00000000e+00 1.32723566e-12 0.00000000e+00 1.52437217e-13
1.25230691e+01 1.32054364e-12 1.38102367e-13 0.00000000e+00 1.18244128e-12 0.00000000e+00 1.38102367e-13
1.29421791e+01 1.18579096e-12 1.25115533e-13 0.00000000e+00 1.06067543e-12 0.00000000e+00 1.25115533e-13
1.33753155e+01 1.06820348e-12 1.13349952e-13 0.00000000e+00 9.54853529e-13 0.00000000e+00 1.13349952e-13
1.38229477e+01 9.92840649e-13 1.02690779e-13 0.00000000e+00 8.90149870e-13 0.00000000e+00 1.02690779e-13
1.42855609e+01 9.48835434e-13 9.30339713e-14 0.00000000e+00 8.55801463e-13 0.00000000e+00 9.30339713e-14
1.47636563e+01 9.55263502e-13 8.42852675e-14 0.00000000e+00 8.70978234e-13 0.00000000e+00 8.42852675e-14
1.52577522e+01 9.74006204e-13 7.63592720e-14 0.00000000e+00 8.97646932e-13 0.00000000e+00 7.63592720e-14
1.57683840e+01 1.00046799e-12 6.91786191e-14 0.00000000e+00 9.31289367e-13 0.00000000e+00 6.91786191e-14
1.62961051e+01 1.03355100e-12 6.26732185e-14 0.00000000e+00 9.70877777e-13 0.00000000e+00 6.26732185e-14
1.68414875e+01 1.06415758e-12 5.67795711e-14 0.00000000e+00 1.00737801e-12 0.00000000e+00 5.67795711e-14
1.74051222e+01 1.08217421e-12 5.14401489e-14 0.00000000e+00 1.03073406e-12 0.00000000e+00 5.14401489e-14
1.79876201e+01 1.09164602e-12 4.66028339e-14 0.00000000e+00 1.04504318e-12 0.00000000e+00 4.66028339e-14
1.85896125e+01 1.08085650e-12 4.22204090e-14 0.00000000e+00 1.03863609e-12 0.00000000e+00 4.22204090e-14
1.92117518e+01 1.05390141e-12 3.82500974e-14 0.00000000e+00 1.01565132e-12 0.00000000e+00 3.82500974e-14
1.98547123e+01 1.01610789e-12 3.46531450e-14 0.00000000e+00 9.81454749e-13 0.00000000e+00 3.46531450e-14
2.05191907e+01 9.75604818e-13 3.13944418e-14 0.00000000e+00 9.44210376e-13 0.00000000e+00 3.13944418e-14
2.12059073e+01 9.38986128e-13 2.84421796e-14 0.00000000e+00 9.10543948e-13 0.00000000e+00 2.84421796e-14
2.19156062e+01 9.05140575e-13 2.57675415e-14 0.00000000e+00 8.79373033e-13 0.00000000e+00 2.57675415e-14
2.26490567e+01 8.75238449e-13 2.33444203e-14 0.00000000e+00 8.51894028e-13 0.00000000e+00 2.33444203e-14
2.34070535e+01 8.45583056e-13 2.11491639e-14 0.00000000e+00 8.24433892e-13 0.00000000e+00 2.11491639e-14
2.41904183e+01 8.19120222e-13 1.91603445e-14 0.00000000e+00 7.99959878e-13 0.00000000e+00 1.91603445e-14
2.50000000e+01 7.94042221e-13 1.73585491e-14 0.00000000e+00 7.76683672e-13 0.00000000e+00 1.73585491e-14
2.75422870e+01 7.23766524e-13 1.29817562e-14 0.00000000e+00 7.10784768e-13 0.00000000e+00 1.29817562e-14
3.16227766e+01 6.22680015e-13 8.57696126e-15 0.00000000e+00 6.14103054e-13 0.00000000e+00 8.57696126e-15
3.63078055e+01 5.11550704e-13 5.66674211e-15 0.00000000e+00 5.05883962e-13 0.00000000e+00 5.66674211e-15
4.16869383e+01 3.94259983e-13 3.74397938e-15 0.00000000e+00 3.90516004e-13 0.00000000e+00 3.74397938e-15
4.78630092e+01 2.84485588e-13 2.47362265e-15 0.00000000e+00 2.82011966e-13 0.00000000e+00 2.47362265e-15
5.49540874e+01 1.93674110e-13 1.63430628e-15 0.00000000e+00 1.92039804e-13 0.00000000e+00 1.63430628e-15
6.30957344e+01 1.25837005e-13 1.07977545e-15 0.00000000e+00 1.24757230e-13 0.00000000e+00 1.07977545e-15
7.24435960e+01 7.86089117e-14 7.13400564e-16 0.00000000e+00 7.78955111e-14 0.00000000e+00 7.13400564e-16
8.31763771e+01 4.75926039e-14 4.71339078e-16 0.00000000e+00 4.71212648e-14 0.00000000e+00 4.71339078e-16
9.54992586e+01 2.81249249e-14 3.11410641e-16 0.00000000e+00 2.78135142e-14 0.00000000e+00 3.11410641e-16
1.09647820e+02 1.62942366e-14 2.05746970e-16 0.00000000e+00 1.60884896e-14 0.00000000e+00 2.05746970e-16
1.25892541e+02 9.39092927e-15 1.35935675e-16 0.00000000e+00 9.25499360e-15 0.00000000e+00 1.35935675e-16
1.44543977e+02 5.35742738e-15 8.98118099e-17 0.00000000e+00 5.26761557e-15 0.00000000e+00 8.98118099e-17
1.65958691e+02 2.90310527e-15 5.93380743e-17 0.00000000e+00 2.84376719e-15 0.00000000e+00 5.93380743e-17
1.90546072e+02 1.56939496e-15 3.92042769e-17 0.00000000e+00 1.53019069e-15 0.00000000e+00 3.92042769e-17
2.18776162e+02 8.44921449e-16 2.59020089e-17 0.00000000e+00 8.19019440e-16 0.00000000e+00 2.59020089e-17
2.51188643e+02 4.52556697e-16 1.71132876e-17 0.00000000e+00 4.35443409e-16 0.00000000e+00 1.71132876e-17
2.88403150e+02 2.41069717e-16 1.13066370e-17 0.00000000e+00 2.29763080e-16 0.00000000e+00 1.13066370e-17
3.31131121e+02 1.28071207e-16 7.47022097e-18 0.00000000e+00 1.20600986e-16 0.00000000e+00 7.47022097e-18
3.80189396e+02 6.78569718e-17 4.93552605e-18 0.00000000e+00 6.29214458e-17 0.00000000e+00 4.93552605e-18
4.36515832e+02 3.59448092e-17 3.26086972e-18 0.00000000e+00 3.26839394e-17 0.00000000e+00 3.26086972e-18
5.01187234e+02 1.90573008e-17 2.15443526e-18 0.00000000e+00 1.69028655e-17 0.00000000e+00 2.15443526e-18
5.75439937e+02 1.01328156e-17 1.42342126e-18 0.00000000e+00 8.70939435e-18 0.00000000e+00 1.42342126e-18
6.60693448e+02 5.41379023e-18 9.40445101e-19 0.00000000e+00 4.47334513e-18 0.00000000e+00 9.40445101e-19
7.58577575e+02 2.91259810e-18 6.21345916e-19 0.00000000e+00 2.29125219e-18 0.00000000e+00 6.21345916e-19
8.70963590e+02 1.58098565e-18 4.10519176e-19 0.00000000e+00 1.17046647e-18 0.00000000e+00 4.10519176e-19
1.00000000e+03 5.96473895e-19 0.00000000e+00 0.00000000e+00 5.96473895e-19 0.00000000e+00 0.00000000e+00
