# column 1: lambda (micron)
# column 2: total flux; lambda*F_lambda (W/m2)
# column 3: direct stellar flux; lambda*F_lambda (W/m2)
# column 4: scattered stellar flux; lambda*F_lambda (W/m2)
# column 5: total dust emission flux; lambda*F_lambda (W/m2)
# column 6: dust emission scattered flux; lambda*F_lambda (W/m2)
# column 7: transparent flux; lambda*F_lambda (W/m2)
1.00000000e-03 1.04625551e-12 1.04624647e-12 9.04557766e-18 0.00000000e+00 0.00000000e+00 1.04634360e-12
1.14815362e-03 1.23488312e-12 1.23486947e-12 1.36471013e-17 0.00000000e+00 0.00000000e+00 1.23502095e-12
1.31825674e-03 1.45751374e-12 1.45749340e-12 2.03443336e-17 0.00000000e+00 0.00000000e+00 1.45772071e-12
1.51356125e-03 1.72029209e-12 1.72026152e-12 3.05687508e-17 0.00000000e+00 0.00000000e+00 1.72057784e-12
1.73780083e-03 2.03051273e-12 2.03045632e-12 5.64134636e-17 0.00000000e+00 0.00000000e+00 2.03083353e-12
1.99526231e-03 2.39654377e-12 2.39644444e-12 9.93335414e-17 0.00000000e+00 0.00000000e+00 2.39703472e-12
2.29086765e-03 2.82868896e-12 2.82853073e-12 1.58234694e-16 0.00000000e+00 0.00000000e+00 2.82926954e-12
2.63026799e-03 3.33871104e-12 3.33840024e-12 3.10795827e-16 0.00000000e+00 0.00000000e+00 3.33944522e-12
3.01995172e-03 3.94060821e-12 3.94009070e-12 5.17512498e-16 0.00000000e+00 0.00000000e+00 3.94161611e-12
3.46736850e-03 4.65117026e-12 4.65024874e-12 9.21517800e-16 0.00000000e+00 0.00000000e+00 4.65237083e-12
3.98107171e-03 5.48989890e-12 5.48842230e-12 1.47659853e-15 0.00000000e+00 0.00000000e+00 5.49128930e-12
4.57088190e-03 6.48244328e-12 6.47922461e-12 3.21867223e-15 0.00000000e+00 0.00000000e+00 6.48148207e-12
5.24807460e-03 7.65268292e-12 7.64682397e-12 5.85895459e-15 0.00000000e+00 0.00000000e+00 7.65022704e-12
6.02559586e-03 9.03495092e-12 9.02487792e-12 1.00730008e-14 0.00000000e+00 0.00000000e+00 9.02972084e-12
6.91830971e-03 1.06679275e-11 1.06513689e-11 1.65586769e-14 0.00000000e+00 0.00000000e+00 1.06579658e-11
7.94328235e-03 1.26019264e-11 1.25711302e-11 3.07962485e-14 1.14377881e-303 4.05475718e-306 1.25798170e-11
9.12010839e-03 1.48853027e-11 1.48368400e-11 4.84626777e-14 4.83273950e-265 4.14871189e-267 1.48482176e-11
1.04712855e-02 1.66355848e-11 1.65699114e-11 6.56734384e-14 1.96471304e-231 1.25447924e-233 1.65834298e-11
1.20226443e-02 1.66687299e-11 1.65691139e-11 9.96160385e-14 2.98798433e-202 2.76646152e-204 1.65834298e-11
1.38038426e-02 1.67157700e-11 1.65681680e-11 1.47601964e-13 7.94195803e-177 1.00963481e-178 1.65834298e-11
1.58489319e-02 1.67736569e-11 1.65670057e-11 2.06651172e-13 1.05586723e-154 2.13687172e-156 1.65834298e-11
1.81970086e-02 1.68532708e-11 1.65659338e-11 2.87337023e-13 1.85202859e-135 4.67020116e-137 1.65834298e-11
2.08929613e-02 1.69541168e-11 1.65650428e-11 3.89073938e-13 9.58139170e-119 3.34681869e-120 1.65834298e-11
2.39883292e-02 1.70648002e-11 1.65638885e-11 5.00911654e-13 3.32233116e-104 1.34336565e-105 1.65834298e-11
2.75422870e-02 1.71501482e-11 1.65625459e-11 5.87602258e-13 1.47581415e-91 7.15726745e-93 1.65834298e-11
3.16227766e-02 1.72337403e-11 1.65612300e-11 6.72510341e-13 1.42777163e-80 7.82096412e-82 1.65834298e-11
3.63078055e-02 1.72895363e-11 1.65601979e-11 7.29338376e-13 4.90553000e-71 2.83762665e-72 1.65834298e-11
4.16869383e-02 1.74293926e-11 1.65593053e-11 8.70087306e-13 9.32133280e-63 6.53436756e-64 1.65834298e-11
4.78630092e-02 1.74788214e-11 1.65568451e-11 9.21976277e-13 1.40020303e-55 1.08726190e-56 1.65834298e-11
5.49540874e-02 1.74180681e-11 1.65534244e-11 8.64643756e-13 2.30650077e-49 1.86385354e-50 1.65834298e-11
6.30957344e-02 1.73267995e-11 1.65448499e-11 7.81949622e-13 7.34875535e-44 5.74864074e-45 1.65834298e-11
7.24435960e-02 1.71730840e-11 1.65346991e-11 6.38384836e-13 4.19770087e-39 2.86256060e-40 1.65834298e-11
8.31763771e-02 1.71263276e-11 1.65356021e-11 5.90725471e-13 4.26244350e-35 2.74964110e-36 1.65834298e-11
9.54992586e-02 1.71492086e-11 1.65382509e-11 6.10957629e-13 1.19587221e-31 7.93108515e-33 1.65834298e-11
1.09647820e-01 1.64668608e-11 1.58012073e-11 6.65653473e-13 1.01495261e-28 7.54443646e-30 1.58370587e-11
1.25892541e-01 1.54649563e-11 1.47524562e-11 7.12500072e-13 3.29240359e-26 2.57605953e-27 1.47800032e-11
1.44543977e-01 1.44449921e-11 1.37721897e-11 6.72802394e-13 4.47558990e-24 3.51868648e-25 1.37935015e-11
1.65958691e-01 1.35285070e-11 1.28554487e-11 6.73058244e-13 2.25909888e-22 1.88511119e-23 1.28728446e-11
1.90546072e-01 1.26439154e-11 1.19963183e-11 6.47597136e-13 4.73245880e-21 4.27478729e-22 1.20136376e-11
2.18776162e-01 1.17350145e-11 1.11928213e-11 5.42193140e-13 5.56592097e-20 4.92589002e-21 1.12117790e-11
2.51188643e-01 1.10287502e-11 1.04492893e-11 5.79460277e-13 6.71609037e-19 6.79866829e-20 1.04634409e-11
2.88403150e-01 1.03136586e-11 9.75408493e-12 5.59568057e-13 5.58974400e-18 5.69683351e-19 9.76505125e-12
3.31131121e-01 9.63115485e-12 9.10435391e-12 5.26768947e-13 3.19897323e-17 3.20042116e-18 9.11327608e-12
3.80189396e-01 8.98564933e-12 8.49769159e-12 4.87824556e-13 1.33190246e-16 1.30010538e-17 8.50500410e-12
4.36515832e-01 8.36855218e-12 7.93139192e-12 4.36736274e-13 4.23987408e-16 4.17181008e-17 7.93733165e-12
5.01187234e-01 7.79896146e-12 7.40278952e-12 3.95075264e-13 1.09667239e-15 1.14762909e-16 7.40754890e-12
5.75439937e-01 7.26075290e-12 6.90935261e-12 3.48821368e-13 2.57891640e-15 3.31840180e-16 6.91312687e-12
6.60693448e-01 6.75403042e-12 6.44873823e-12 2.98964464e-13 6.32772993e-15 1.08399450e-15 6.45170538e-12
7.58577575e-01 6.29124113e-12 6.01877750e-12 2.55180434e-13 1.72831968e-14 3.62378672e-15 6.02108180e-12
8.70963590e-01 5.88107340e-12 5.61745061e-12 2.14635696e-13 4.89870940e-14 1.10976197e-14 5.61920048e-12
1.00000000e+00 5.55058943e-12 5.24283564e-12 1.77225687e-13 1.30528103e-13 2.88616077e-14 5.24414302e-12
1.14815362e+00 5.35014638e-12 4.89315960e-12 1.42954228e-13 3.14032552e-13 6.46578654e-14 4.89411902e-12
1.31825674e+00 5.37097857e-12 4.56676578e-12 1.11826521e-13 6.92386270e-13 1.27375711e-13 4.56745763e-12
1.51356125e+00 5.70703707e-12 4.26210562e-12 9.02265369e-14 1.35470491e-12 2.16961759e-13 4.26259947e-12
1.73780083e+00 6.42661705e-12 3.97774250e-12 7.10866237e-14 2.37778792e-12 3.27252576e-13 3.97808929e-12
1.99526231e+00 7.50032844e-12 3.71232924e-12 5.52728475e-14 3.73272635e-12 4.22469671e-13 3.71256894e-12
2.29086765e+00 8.81946130e-12 3.46460577e-12 4.23889366e-14 5.31246660e-12 4.87309341e-13 3.46477093e-12
2.63026799e+00 1.03355619e-11 3.23339750e-12 3.19902123e-14 7.07017418e-12 5.04698660e-13 3.23351237e-12
3.01995172e+00 1.18204831e-11 3.01760841e-12 2.33128300e-14 8.77956185e-12 4.86867415e-13 3.01768933e-12
3.46736850e+00 1.32195866e-11 2.81621361e-12 1.70404369e-14 1.03863326e-11 4.35210669e-13 2.81627154e-12
3.98107171e+00 1.44506971e-11 2.62825552e-12 1.19341904e-14 1.18105074e-11 3.70646241e-13 2.62829753e-12
4.57088190e+00 1.53799329e-11 2.45283910e-12 8.12074377e-15 1.29189730e-11 2.90404425e-13 2.45286997e-12
5.24807460e+00 1.59478756e-11 2.02812700e-12 4.67886836e-15 1.39150697e-11 2.13088872e-13 2.02814751e-12
6.02559586e+00 1.59546908e-11 1.33997251e-12 2.08157973e-15 1.46126367e-11 1.47126869e-13 1.33998377e-12
6.70000000e+00 1.58371385e-11 9.74702097e-13 1.06416941e-15 1.48613723e-11 1.04749428e-13 9.74709347e-13
6.92422916e+00 1.58140795e-11 8.83043551e-13 8.66106807e-16 1.49301698e-11 9.36995344e-14 8.83049889e-13
7.15596261e+00 1.57892032e-11 8.00004237e-13 6.82861071e-16 1.49885161e-11 8.18778668e-14 8.00009879e-13
7.39545150e+00 1.58756637e-11 7.24773530e-13 5.18416924e-16 1.51503717e-11 7.04672591e-14 7.24778763e-13
7.64295536e+00 1.61213225e-11 6.56616809e-13 3.58644706e-16 1.54643471e-11 5.72456707e-14 6.56622211e-13
7.89874245e+00 1.67618046e-11 5.94868623e-13 2.14145264e-16 1.61667218e-11 4.30778139e-14 5.94874946e-13
8.16308998e+00 1.75252725e-11 5.38926520e-13 1.20826374e-16 1.69862252e-11 3.12578890e-14 5.38934254e-13
8.43628443e+00 1.84687243e-11 4.88244363e-13 6.21101749e-17 1.79804178e-11 2.16826732e-14 4.88254098e-13
8.71862190e+00 1.90245372e-11 4.42328952e-13 3.62769256e-17 1.85821720e-11 1.63186007e-14 4.42339790e-13
9.01040836e+00 1.97022949e-11 4.00731264e-13 1.98256467e-17 1.93015438e-11 1.18507821e-14 4.00743158e-13
9.31196005e+00 1.99511015e-11 3.63045682e-13 0.00000000e+00 1.95880558e-11 0.00000000e+00 3.63058180e-13
9.62360379e+00 1.99508707e-11 3.28905391e-13 0.00000000e+00 1.96219653e-11 0.00000000e+00 3.28917012e-13
9.94567731e+00 1.97532260e-11 2.97976523e-13 0.00000000e+00 1.94552495e-11 0.00000000e+00 2.97986401e-13
1.02785297e+01 1.92715741e-11 2.69956339e-13 0.00000000e+00 1.90016178e-11 0.00000000e+00 2.69964435e-13
1.06225216e+01 1.89534255e-11 2.44571027e-13 0.00000000e+00 1.87088545e-11 0.00000000e+00 2.44577592e-13
1.09780260e+01 1.85913072e-11 2.21572939e-13 0.00000000e+00 1.83697343e-11 0.00000000e+00 2.21578069e-13
1.13454280e+01 1.81085650e-11 2.00737344e-13 0.00000000e+00 1.79078277e-11 0.00000000e+00 2.00741370e-13
1.17251259e+01 1.76824391e-11 1.81860927e-13 0.00000000e+00 1.75005782e-11 0.00000000e+00 1.81864106e-13
1.21175312e+01 1.72441546e-11 1.64759520e-13 0.00000000e+00 1.70793951e-11 0.00000000e+00 1.64762018e-13
1.25230691e+01 1.67099927e-11 1.49266214e-13 0.00000000e+00 1.65607265e-11 0.00000000e+00 1.49268171e-13
1.29421791e+01 1.63024266e-11 1.35229786e-13 0.00000000e+00 1.61671968e-11 0.00000000e+00 1.35231331e-13
1.33753155e+01 1.57128287e-11 1.22513256e-13 0.00000000e+00 1.55903154e-11 0.00000000e+00 1.22514483e-13
1.38229477e+01 1.52628199e-11 1.10992478e-13 0.00000000e+00 1.51518274e-11 0.00000000e+00 1.10993499e-13
1.42855609e+01 1.49822139e-11 1.00555035e-13 0.00000000e+00 1.48816589e-11 0.00000000e+00 1.00555922e-13
1.47636563e+01 1.49705626e-11 9.10990290e-14 0.00000000e+00 1.48794635e-11 0.00000000e+00 9.10998706e-14
1.52577522e+01 1.49864950e-11 8.25322320e-14 0.00000000e+00 1.49039628e-11 0.00000000e+00 8.25330452e-14
1.57683840e+01 1.50013820e-11 7.47710289e-14 0.00000000e+00 1.49266110e-11 0.00000000e+00 7.47718247e-14
1.62961051e+01 1.50383849e-11 6.77396739e-14 0.00000000e+00 1.49706453e-11 0.00000000e+00 6.77404517e-14
1.68414875e+01 1.49942411e-11 6.13695346e-14 0.00000000e+00 1.49328716e-11 0.00000000e+00 6.13702932e-14
1.74051222e+01 1.47980089e-11 5.55984495e-14 0.00000000e+00 1.47424105e-11 0.00000000e+00 5.55991699e-14
1.79876201e+01 1.45510961e-11 5.03700774e-14 0.00000000e+00 1.45007260e-11 0.00000000e+00 5.03707500e-14
1.85896125e+01 1.43317954e-11 4.56333902e-14 0.00000000e+00 1.42861620e-11 0.00000000e+00 4.56339988e-14
1.92117518e+01 1.39044054e-11 4.13421464e-14 0.00000000e+00 1.38630632e-11 0.00000000e+00 4.13426810e-14
1.98547123e+01 1.33406842e-11 3.74544486e-14 0.00000000e+00 1.33032297e-11 0.00000000e+00 3.74549090e-14
2.05191907e+01 1.27919648e-11 3.39323417e-14 0.00000000e+00 1.27580324e-11 0.00000000e+00 3.39327342e-14
2.12059073e+01 1.23013091e-11 3.07414422e-14 0.00000000e+00 1.22705677e-11 0.00000000e+00 3.07417768e-14
2.19156062e+01 1.17659858e-11 2.78506032e-14 0.00000000e+00 1.17381352e-11 0.00000000e+00 2.78508898e-14
2.26490567e+01 1.12230839e-11 2.52316094e-14 0.00000000e+00 1.11978523e-11 0.00000000e+00 2.52318552e-14
2.34070535e+01 1.06995529e-11 2.28588974e-14 0.00000000e+00 1.06766940e-11 0.00000000e+00 2.28591087e-14
2.41904183e+01 1.01375839e-11 2.07093079e-14 0.00000000e+00 1.01168746e-11 0.00000000e+00 2.07094900e-14
2.50000000e+01 9.64373482e-12 1.87618592e-14 0.00000000e+00 9.62497296e-12 0.00000000e+00 1.87620165e-14
2.75422870e+01 8.09304766e-12 1.40312501e-14 0.00000000e+00 8.07901641e-12 0.00000000e+00 1.40313526e-14
3.16227766e+01 6.10288362e-12 9.27036640e-15 0.00000000e+00 6.09361325e-12 0.00000000e+00 9.27042274e-15
3.63078055e+01 4.37517872e-12 6.12487677e-15 0.00000000e+00 4.36905384e-12 0.00000000e+00 6.12490756e-15
4.16869383e+01 2.95570637e-12 4.04666991e-15 0.00000000e+00 2.95165970e-12 0.00000000e+00 4.04668630e-15
4.78630092e+01 1.87760916e-12 2.67361068e-15 0.00000000e+00 1.87493555e-12 0.00000000e+00 2.67361912e-15
5.49540874e+01 1.13495886e-12 1.76643838e-15 0.00000000e+00 1.13319242e-12 0.00000000e+00 1.76644264e-15
6.30957344e+01 6.57678221e-13 1.16707495e-15 0.00000000e+00 6.56511146e-13 0.00000000e+00 1.16707708e-15
7.24435960e+01 3.68470160e-13 7.71079128e-16 0.00000000e+00 3.67699081e-13 0.00000000e+00 7.71080178e-16
8.31763771e+01 2.01818749e-13 5.09447103e-16 0.00000000e+00 2.01309302e-13 0.00000000e+00 5.09447621e-16
9.54992586e+01 1.08774640e-13 3.36588449e-16 0.00000000e+00 1.08438052e-13 0.00000000e+00 3.36588705e-16
1.09647820e+02 5.79756232e-14 2.22381825e-16 0.00000000e+00 5.77532414e-14 0.00000000e+00 2.22381952e-16
1.25892541e+02 3.10209787e-14 1.46926235e-16 0.00000000e+00 3.08740525e-14 0.00000000e+00 1.46926299e-16
1.44543977e+02 1.65649916e-14 9.70732104e-17 0.00000000e+00 1.64679184e-14 0.00000000e+00 9.70732430e-17
1.65958691e+02 8.46229029e-15 6.41356396e-17 0.00000000e+00 8.39815465e-15 0.00000000e+00 6.41356556e-17
1.90546072e+02 4.34016834e-15 4.23739995e-17 0.00000000e+00 4.29779434e-15 0.00000000e+00 4.23740075e-17
2.18776162e+02 2.22988181e-15 2.79962252e-17 0.00000000e+00 2.20188558e-15 0.00000000e+00 2.79962291e-17
2.51188643e+02 1.14546297e-15 1.84969232e-17 0.00000000e+00 1.12696605e-15 0.00000000e+00 1.84969251e-17
2.88403150e+02 5.87517563e-16 1.22207963e-17 0.00000000e+00 5.75296766e-16 0.00000000e+00 1.22207972e-17
3.31131121e+02 3.01477270e-16 8.07420017e-18 0.00000000e+00 2.93403070e-16 0.00000000e+00 8.07420067e-18
3.80189396e+02 1.54641058e-16 5.33457123e-18 0.00000000e+00 1.49306487e-16 0.00000000e+00 5.33457148e-18
4.36515832e+02 7.94200807e-17 3.52451630e-18 0.00000000e+00 7.58955644e-17 0.00000000e+00 3.52451642e-18
5.01187234e+02 4.08474209e-17 2.32862485e-18 0.00000000e+00 3.85187961e-17 0.00000000e+00 2.32862491e-18
5.75439937e+02 2.10648731e-17 1.53850719e-18 0.00000000e+00 1.95263660e-17 0.00000000e+00 1.53850722e-18
6.60693448e+02 1.09046995e-17 1.01648162e-18 0.00000000e+00 9.88821791e-18 0.00000000e+00 1.01648164e-18
7.58577575e+02 5.67456691e-18 6.71582752e-19 0.00000000e+00 5.00298416e-18 0.00000000e+00 6.71582760e-19
8.70963590e+02 2.97234079e-18 4.43710325e-19 0.00000000e+00 2.52863047e-18 0.00000000e+00 4.43710329e-19
1.00000000e+03 1.27671948e-18 0.00000000e+00 0.00000000e+00 1.27671948e-18 0.00000000e+00 0.00000000e+00
