# column 1: lambda (micron)
# column 2: total flux; lambda*F_lambda (W/m2)
# column 3: direct stellar flux; lambda*F_lambda (W/m2)
# column 4: scattered stellar flux; lambda*F_lambda (W/m2)
# column 5: total dust emission flux; lambda*F_lambda (W/m2)
# column 6: dust emission scattered flux; lambda*F_lambda (W/m2)
# column 7: transparent flux; lambda*F_lambda (W/m2)
1.00000000e-03 5.25636805e-13 5.25636674e-13 1.31433106e-19 0.00000000e+00 0.00000000e+00 5.25636674e-13
1.14815362e-03 6.20420012e-13 6.20419813e-13 1.99306456e-19 0.00000000e+00 0.00000000e+00 6.20419813e-13
1.31825674e-03 7.32294655e-13 7.32294308e-13 3.47314262e-19 0.00000000e+00 0.00000000e+00 7.32294308e-13
1.51356125e-03 8.64342571e-13 8.64342083e-13 4.88325395e-19 0.00000000e+00 0.00000000e+00 8.64342083e-13
1.73780083e-03 1.02020165e-12 1.02020080e-12 8.50057137e-19 0.00000000e+00 0.00000000e+00 1.02020080e-12
1.99526231e-03 1.20416578e-12 1.20416405e-12 1.72364766e-18 0.00000000e+00 0.00000000e+00 1.20416405e-12
2.29086765e-03 1.42130235e-12 1.42129968e-12 2.67006600e-18 0.00000000e+00 0.00000000e+00 1.42129968e-12
2.63026799e-03 1.67759464e-12 1.67758934e-12 5.30022074e-18 0.00000000e+00 0.00000000e+00 1.67758934e-12
3.01995172e-03 1.98010910e-12 1.98009332e-12 1.57806107e-17 0.00000000e+00 0.00000000e+00 1.98009332e-12
3.46736850e-03 2.33720461e-12 2.33714500e-12 5.96100640e-17 0.00000000e+00 0.00000000e+00 2.33714500e-12
3.98107171e-03 2.75894484e-12 2.75858048e-12 3.64365235e-16 0.00000000e+00 0.00000000e+00 2.75858048e-12
4.57088190e-03 3.25607731e-12 3.25600946e-12 6.78504370e-17 0.00000000e+00 0.00000000e+00 3.25600946e-12
5.24807460e-03 3.84632390e-12 3.84313516e-12 3.18873975e-15 0.00000000e+00 0.00000000e+00 3.84313516e-12
6.02559586e-03 4.53976740e-12 4.53613173e-12 3.63566472e-15 0.00000000e+00 0.00000000e+00 4.53613173e-12
6.91830971e-03 5.35560029e-12 5.35408989e-12 1.51039395e-15 0.00000000e+00 0.00000000e+00 5.35408989e-12
7.94328235e-03 6.32432936e-12 6.31954278e-12 4.78657529e-15 2.06774021e-303 2.45019634e-305 6.31954278e-12
9.12010839e-03 7.46526182e-12 7.45908676e-12 6.17506606e-15 8.99744284e-265 1.12946174e-266 7.45908676e-12
1.04712855e-02 8.33830525e-12 8.33078048e-12 7.52477832e-15 3.87063000e-231 1.40782933e-232 8.33078048e-12
1.20226443e-02 8.33985885e-12 8.33078048e-12 9.07837081e-15 5.94276096e-202 1.32711702e-203 8.33078048e-12
1.38038426e-02 8.34414900e-12 8.33078048e-12 1.33685241e-14 1.61534122e-176 4.11771986e-178 8.33078048e-12
1.58489319e-02 8.34316906e-12 8.33078048e-12 1.23885884e-14 2.20003313e-154 8.75328942e-156 8.33078048e-12
1.81970086e-02 8.34655484e-12 8.33078048e-12 1.57743646e-14 3.89401794e-135 1.46579930e-136 8.33078048e-12
2.08929613e-02 8.34802501e-12 8.33078048e-12 1.72445354e-14 2.02338092e-118 7.83028709e-120 8.33078048e-12
2.39883292e-02 8.35138234e-12 8.33078048e-12 2.06018630e-14 7.06359829e-104 2.81497582e-105 8.33078048e-12
2.75422870e-02 8.35347345e-12 8.33078048e-12 2.26929713e-14 3.17002192e-91 1.59567144e-92 8.33078048e-12
3.16227766e-02 8.35598431e-12 8.33078048e-12 2.52038368e-14 3.06449517e-80 1.48716383e-81 8.33078048e-12
3.63078055e-02 8.35722111e-12 8.33078048e-12 2.64406335e-14 1.05781375e-70 5.26451282e-72 8.33078048e-12
4.16869383e-02 8.36398392e-12 8.33078048e-12 3.32034467e-14 2.00553183e-62 1.09422705e-63 8.33078048e-12
4.78630092e-02 8.37195662e-12 8.33078048e-12 4.11761421e-14 3.01280840e-55 1.86300963e-56 8.33078048e-12
5.49540874e-02 8.37843197e-12 8.33078048e-12 4.76514907e-14 4.96321527e-49 3.38908556e-50 8.33078048e-12
6.30957344e-02 8.38718753e-12 8.33078048e-12 5.64070560e-14 1.56616167e-43 1.15788627e-44 8.33078048e-12
7.24435960e-02 8.38544184e-12 8.33078048e-12 5.46613605e-14 8.85842913e-39 6.10791572e-40 8.33078048e-12
8.31763771e-02 8.38277690e-12 8.33078048e-12 5.19964201e-14 9.05962276e-35 6.02418090e-36 8.33078048e-12
9.54992586e-02 8.38333714e-12 8.33078048e-12 5.25566601e-14 2.56515402e-31 1.76734093e-32 8.33078048e-12
1.09647820e-01 8.00882462e-12 7.95583672e-12 5.29878972e-14 2.21407853e-28 1.62871285e-29 7.95583672e-12
1.25892541e-01 7.47099452e-12 7.42481883e-12 4.61756906e-14 7.28068856e-26 5.20576647e-27 7.42481883e-12
1.44543977e-01 6.96951095e-12 6.92924411e-12 4.02668425e-14 1.00267851e-23 6.86862635e-25 6.92924411e-12
1.65958691e-01 6.50509743e-12 6.46674687e-12 3.83505586e-14 5.11472851e-22 3.69574852e-23 6.46674687e-12
1.90546072e-01 6.07731432e-12 6.03511933e-12 4.21949866e-14 1.07181197e-20 8.72256459e-22 6.03511933e-12
2.18776162e-01 5.67531807e-12 5.63230107e-12 4.30168827e-14 1.25292798e-19 1.05522275e-20 5.63230107e-12
2.51188643e-01 5.30140619e-12 5.25636919e-12 4.50354616e-14 1.53902480e-18 1.48150183e-19 5.25636919e-12
2.88403150e-01 4.94620042e-12 4.90552916e-12 4.06583508e-14 1.29155641e-17 1.19917888e-18 4.90552916e-12
3.31131121e-01 4.61222315e-12 4.57810618e-12 3.40426895e-14 7.42759483e-17 6.54566586e-18 4.57810618e-12
3.80189396e-01 4.30432536e-12 4.27253728e-12 3.14774234e-14 3.10655483e-16 2.60992266e-17 4.27253728e-12
4.36515832e-01 4.01823150e-12 3.98736380e-12 2.98807393e-14 9.86964321e-16 8.08448504e-17 3.98736380e-12
5.01187234e-01 3.74817192e-12 3.72122441e-12 2.44764868e-14 2.47102301e-15 1.97173172e-16 3.72122441e-12
5.75439937e-01 3.50101334e-12 3.47284869e-12 2.30803133e-14 5.08433709e-15 3.88074932e-16 3.47284869e-12
6.60693448e-01 3.27010449e-12 3.24105097e-12 2.01355524e-14 8.91796125e-15 6.61259976e-16 3.24105097e-12
7.58577575e-01 3.05722309e-12 3.02472476e-12 1.86248737e-14 1.38734599e-14 9.71023529e-16 3.02472476e-12
8.70963590e-01 2.85752428e-12 2.82283739e-12 1.49828101e-14 1.97040781e-14 1.29415586e-15 2.82283739e-12
1.00000000e+00 2.67296647e-12 2.63442513e-12 1.23713664e-14 2.61699710e-14 1.60798407e-15 2.63442513e-12
1.14815362e+00 2.50300575e-12 2.45858859e-12 9.98992958e-15 3.44272325e-14 2.00879588e-15 2.45858859e-12
1.31825674e+00 2.34965578e-12 2.29448837e-12 8.66770734e-15 4.64996975e-14 2.54995900e-15 2.29448837e-12
1.51356125e+00 2.21343880e-12 2.14134114e-12 6.64349972e-15 6.54541539e-14 3.42885461e-15 2.14134114e-12
1.73780083e+00 2.09689459e-12 1.99841583e-12 4.75779777e-15 9.37209581e-14 4.43722893e-15 1.99841583e-12
1.99526231e+00 2.00004341e-12 1.86503017e-12 3.53836777e-15 1.31474872e-13 5.45017461e-15 1.86503017e-12
2.29086765e+00 1.91903292e-12 1.74054743e-12 2.49893109e-15 1.75986566e-13 5.90784819e-15 1.74054743e-12
2.63026799e+00 1.84763096e-12 1.62437337e-12 1.80269991e-15 2.21454887e-13 5.90013218e-15 1.62437337e-12
3.01995172e+00 1.77830260e-12 1.51595343e-12 1.30639485e-15 2.61042771e-13 5.33543739e-15 1.51595343e-12
3.46736850e+00 1.70422415e-12 1.41477006e-12 8.05932164e-16 2.88648154e-13 4.39555974e-15 1.41477006e-12
3.98107171e+00 1.62095481e-12 1.32034025e-12 5.25420393e-16 3.00089149e-13 3.29386672e-15 1.32034025e-12
4.57088190e+00 1.52872314e-12 1.23221321e-12 3.58287082e-16 2.96151641e-13 2.30144559e-15 1.23221321e-12
5.24807460e+00 1.29927952e-12 1.01885146e-12 2.04973753e-16 2.80223085e-13 1.47264517e-15 1.01885146e-12
6.02559586e+00 9.31572669e-13 6.73148485e-13 8.63734694e-17 2.58337810e-13 8.89590911e-16 6.73148485e-13
6.70000000e+00 7.27617922e-13 4.89650796e-13 4.34834923e-17 2.37923643e-13 5.70186877e-16 4.89650796e-13
6.92422916e+00 6.75073235e-13 4.43605145e-13 3.52264286e-17 2.31432863e-13 4.86129263e-16 4.43605145e-13
7.15596261e+00 6.28818173e-13 4.01889522e-13 2.85207989e-17 2.26900130e-13 4.17685261e-16 4.01889522e-13
7.39545150e+00 5.92376473e-13 3.64096743e-13 2.04895852e-17 2.28259241e-13 3.53421749e-16 3.64096743e-13
7.64295536e+00 5.75694629e-13 3.29857910e-13 1.46063580e-17 2.45822112e-13 2.99332290e-16 3.29857910e-13
7.89874245e+00 5.87028149e-13 2.98838820e-13 9.42439261e-18 2.88179905e-13 2.46120962e-16 2.98838820e-13
8.16308998e+00 6.21713543e-13 2.70736695e-13 5.37931658e-18 3.50971469e-13 2.01918708e-16 2.70736695e-13
8.43628443e+00 6.85158841e-13 2.45277229e-13 3.07848012e-18 4.39878533e-13 1.58941760e-16 2.45277229e-13
8.71862190e+00 7.26403103e-13 2.22211915e-13 1.89005998e-18 5.04189298e-13 1.23379604e-16 2.22211915e-13
9.01040836e+00 7.72131562e-13 2.01315610e-13 1.24698044e-18 5.70814705e-13 9.20068087e-17 2.01315610e-13
9.31196005e+00 8.08052760e-13 1.82384346e-13 0.00000000e+00 6.25668414e-13 0.00000000e+00 1.82384346e-13
9.62360379e+00 7.87209476e-13 1.65233336e-13 0.00000000e+00 6.21976140e-13 0.00000000e+00 1.65233336e-13
9.94567731e+00 7.28942743e-13 1.49695167e-13 0.00000000e+00 5.79247576e-13 0.00000000e+00 1.49695167e-13
1.02785297e+01 6.61287072e-13 1.35618173e-13 0.00000000e+00 5.25668899e-13 0.00000000e+00 1.35618173e-13
1.06225216e+01 5.96335296e-13 1.22864947e-13 0.00000000e+00 4.73470349e-13 0.00000000e+00 1.22864947e-13
1.09780260e+01 5.24304920e-13 1.11311006e-13 0.00000000e+00 4.12993914e-13 0.00000000e+00 1.11311006e-13
1.13454280e+01 4.64354601e-13 1.00843571e-13 0.00000000e+00 3.63511030e-13 0.00000000e+00 1.00843571e-13
1.17251259e+01 4.13258072e-13 9.13604705e-14 0.00000000e+00 3.21897601e-13 0.00000000e+00 9.13604705e-14
1.21175312e+01 3.66611172e-13 8.27691389e-14 0.00000000e+00 2.83842033e-13 0.00000000e+00 8.27691389e-14
1.25230691e+01 3.26756867e-13 7.49857166e-14 0.00000000e+00 2.51771150e-13 0.00000000e+00 7.49857166e-14
1.29421791e+01 2.91493519e-13 6.79342298e-14 0.00000000e+00 2.23559289e-13 0.00000000e+00 6.79342298e-14
1.33753155e+01 2.61864470e-13 6.15458488e-14 0.00000000e+00 2.00318621e-13 0.00000000e+00 6.15458488e-14
1.38229477e+01 2.41741381e-13 5.57582167e-14 0.00000000e+00 1.85983164e-13 0.00000000e+00 5.57582167e-14
1.42855609e+01 2.28044415e-13 5.05148403e-14 0.00000000e+00 1.77529575e-13 0.00000000e+00 5.05148403e-14
1.47636563e+01 2.25941344e-13 4.57645392e-14 0.00000000e+00 1.80176805e-13 0.00000000e+00 4.57645392e-14
1.52577522e+01 2.26420836e-13 4.14609457e-14 0.00000000e+00 1.84959890e-13 0.00000000e+00 4.14609457e-14
1.57683840e+01 2.28835553e-13 3.75620523e-14 0.00000000e+00 1.91273500e-13 0.00000000e+00 3.75620523e-14
1.62961051e+01 2.33055958e-13 3.40298020e-14 0.00000000e+00 1.99026156e-13 0.00000000e+00 3.40298020e-14
1.68414875e+01 2.36396777e-13 3.08297166e-14 0.00000000e+00 2.05567060e-13 0.00000000e+00 3.08297166e-14
1.74051222e+01 2.37273723e-13 2.79305599e-14 0.00000000e+00 2.09343163e-13 0.00000000e+00 2.79305599e-14
1.79876201e+01 2.35828559e-13 2.53040334e-14 0.00000000e+00 2.10524526e-13 0.00000000e+00 2.53040334e-14
1.85896125e+01 2.30883139e-13 2.29244994e-14 0.00000000e+00 2.07958639e-13 0.00000000e+00 2.29244994e-14
1.92117518e+01 2.22720241e-13 2.07687314e-14 0.00000000e+00 2.01951509e-13 0.00000000e+00 2.07687314e-14
1.98547123e+01 2.11893063e-13 1.88156870e-14 0.00000000e+00 1.93077376e-13 0.00000000e+00 1.88156870e-14
2.05191907e+01 2.01739296e-13 1.70463024e-14 0.00000000e+00 1.84692993e-13 0.00000000e+00 1.70463024e-14
2.12059073e+01 1.91607951e-13 1.54433068e-14 0.00000000e+00 1.76164644e-13 0.00000000e+00 1.54433068e-14
2.19156062e+01 1.83475223e-13 1.39910532e-14 0.00000000e+00 1.69484170e-13 0.00000000e+00 1.39910532e-14
2.26490567e+01 1.75594467e-13 1.26753663e-14 0.00000000e+00 1.62919101e-13 0.00000000e+00 1.26753663e-14
2.34070535e+01 1.68665431e-13 1.14834036e-14 0.00000000e+00 1.57182027e-13 0.00000000e+00 1.14834036e-14
2.41904183e+01 1.62117834e-13 1.04035303e-14 0.00000000e+00 1.51714304e-13 0.00000000e+00 1.04035303e-14
2.50000000e+01 1.56780457e-13 9.42520591e-15 0.00000000e+00 1.47355251e-13 0.00000000e+00 9.42520591e-15
2.75422870e+01 1.41064690e-13 7.04872996e-15 0.00000000e+00 1.34015960e-13 0.00000000e+00 7.04872996e-15
3.16227766e+01 1.21573873e-13 4.65704970e-15 0.00000000e+00 1.16916823e-13 0.00000000e+00 4.65704970e-15
3.63078055e+01 1.01807300e-13 3.07688223e-15 0.00000000e+00 9.87304182e-14 0.00000000e+00 3.07688223e-15
4.16869383e+01 8.12983535e-14 2.03287593e-15 0.00000000e+00 7.92654776e-14 0.00000000e+00 2.03287593e-15
4.78630092e+01 6.13472358e-14 1.34310781e-15 0.00000000e+00 6.00041280e-14 0.00000000e+00 1.34310781e-15
5.49540874e+01 4.39427533e-14 8.87382527e-16 0.00000000e+00 4.30553708e-14 0.00000000e+00 8.87382527e-16
6.30957344e+01 3.00564927e-14 5.86287821e-16 0.00000000e+00 2.94702049e-14 0.00000000e+00 5.86287821e-16
7.24435960e+01 1.97465089e-14 3.87356522e-16 0.00000000e+00 1.93591523e-14 0.00000000e+00 3.87356522e-16
8.31763771e+01 1.25208637e-14 2.55923916e-16 0.00000000e+00 1.22649398e-14 0.00000000e+00 2.55923916e-16
9.54992586e+01 7.71388068e-15 1.69087255e-16 0.00000000e+00 7.54479342e-15 0.00000000e+00 1.69087255e-16
1.09647820e+02 4.63733742e-15 1.11714841e-16 0.00000000e+00 4.52562258e-15 0.00000000e+00 1.11714841e-16
1.25892541e+02 2.75985440e-15 7.38092637e-17 0.00000000e+00 2.68604513e-15 0.00000000e+00 7.38092637e-17
1.44543977e+02 1.61912117e-15 4.87652969e-17 0.00000000e+00 1.57035587e-15 0.00000000e+00 4.87652969e-17
1.65958691e+02 9.00696082e-16 3.22189122e-17 0.00000000e+00 8.68477170e-16 0.00000000e+00 3.22189122e-17
1.90546072e+02 4.98226502e-16 2.12868242e-17 0.00000000e+00 4.76939677e-16 0.00000000e+00 2.12868242e-17
2.18776162e+02 2.73802086e-16 1.40640653e-17 0.00000000e+00 2.59738020e-16 0.00000000e+00 1.40640653e-17
2.51188643e+02 1.49427918e-16 9.29203577e-18 0.00000000e+00 1.40135883e-16 0.00000000e+00 9.29203577e-18
2.88403150e+02 8.10138853e-17 6.13918715e-18 0.00000000e+00 7.48746981e-17 0.00000000e+00 6.13918715e-18
3.31131121e+02 4.37783171e-17 4.05612073e-18 0.00000000e+00 3.97221964e-17 0.00000000e+00 4.05612073e-18
3.80189396e+02 2.35937916e-17 2.67985239e-18 0.00000000e+00 2.09139392e-17 0.00000000e+00 2.67985239e-18
4.36515832e+02 1.27188575e-17 1.77056092e-18 0.00000000e+00 1.09482966e-17 0.00000000e+00 1.77056092e-18
5.01187234e+02 6.86960581e-18 1.16979800e-18 0.00000000e+00 5.69980782e-18 0.00000000e+00 1.16979800e-18
5.75439937e+02 3.72652404e-18 7.72877871e-19 0.00000000e+00 2.95364617e-18 0.00000000e+00 7.72877871e-19
6.60693448e+02 2.03510175e-18 5.10635346e-19 0.00000000e+00 1.52446640e-18 0.00000000e+00 5.10635346e-19
7.58577575e+02 1.12149166e-18 3.37373427e-19 0.00000000e+00 7.84118234e-19 0.00000000e+00 3.37373427e-19
8.70963590e+02 6.24907013e-19 2.22900413e-19 0.00000000e+00 4.02006600e-19 0.00000000e+00 2.22900413e-19
1.00000000e+03 2.05501754e-19 0.00000000e+00 0.00000000e+00 2.05501754e-19 0.00000000e+00 0.00000000e+00
