# column 1: lambda (micron)
# column 2: total flux; lambda*F_lambda (W/m2)
# column 3: direct stellar flux; lambda*F_lambda (W/m2)
# column 4: scattered stellar flux; lambda*F_lambda (W/m2)
# column 5: total dust emission flux; lambda*F_lambda (W/m2)
# column 6: dust emission scattered flux; lambda*F_lambda (W/m2)
# column 7: transparent flux; lambda*F_lambda (W/m2)
1.00000000e-03 1.04634379e-12 1.04634360e-12 1.85016331e-19 0.00000000e+00 0.00000000e+00 1.04634360e-12
1.14815362e-03 1.23502123e-12 1.23502095e-12 2.84095862e-19 0.00000000e+00 0.00000000e+00 1.23502095e-12
1.31825674e-03 1.45772117e-12 1.45772071e-12 4.61008558e-19 0.00000000e+00 0.00000000e+00 1.45772071e-12
1.51356125e-03 1.72057855e-12 1.72057784e-12 7.15777984e-19 0.00000000e+00 0.00000000e+00 1.72057784e-12
1.73780083e-03 2.03083483e-12 2.03083353e-12 1.30327581e-18 0.00000000e+00 0.00000000e+00 2.03083353e-12
1.99526231e-03 2.39703700e-12 2.39703472e-12 2.28061223e-18 0.00000000e+00 0.00000000e+00 2.39703472e-12
2.29086765e-03 2.82927322e-12 2.82926954e-12 3.67835484e-18 0.00000000e+00 0.00000000e+00 2.82926954e-12
2.63026799e-03 3.33945255e-12 3.33944522e-12 7.32189875e-18 0.00000000e+00 0.00000000e+00 3.33944522e-12
3.01995172e-03 3.94162889e-12 3.94161611e-12 1.27784610e-17 0.00000000e+00 0.00000000e+00 3.94161611e-12
3.46736850e-03 4.65239190e-12 4.65237083e-12 2.10733788e-17 0.00000000e+00 0.00000000e+00 4.65237083e-12
3.98107171e-03 5.49132294e-12 5.49128930e-12 3.36448781e-17 0.00000000e+00 0.00000000e+00 5.49128930e-12
4.57088190e-03 6.48155389e-12 6.48148207e-12 7.18123063e-17 0.00000000e+00 0.00000000e+00 6.48148207e-12
5.24807460e-03 7.65035612e-12 7.65022704e-12 1.29084327e-16 0.00000000e+00 0.00000000e+00 7.65022704e-12
6.02559586e-03 9.02995410e-12 9.02972084e-12 2.33253268e-16 0.00000000e+00 0.00000000e+00 9.02972084e-12
6.91830971e-03 1.06583420e-11 1.06579658e-11 3.76174436e-16 0.00000000e+00 0.00000000e+00 1.06579658e-11
7.94328235e-03 1.25804635e-11 1.25798170e-11 6.46462952e-16 8.73471245e-304 5.45559623e-307 1.25798170e-11
9.12010839e-03 1.48492373e-11 1.48482176e-11 1.01962851e-15 3.63606121e-265 3.46616195e-268 1.48482176e-11
1.04712855e-02 1.65848539e-11 1.65834298e-11 1.42406872e-15 1.46870532e-231 1.59736685e-234 1.65834298e-11
1.20226443e-02 1.65855554e-11 1.65834298e-11 2.12564918e-15 2.21152738e-202 3.68724183e-205 1.65834298e-11
1.38038426e-02 1.65868342e-11 1.65834298e-11 3.40445776e-15 5.82307320e-177 1.44697926e-179 1.65834298e-11
1.58489319e-02 1.65876326e-11 1.65834298e-11 4.20280019e-15 7.64678314e-155 2.68001926e-157 1.65834298e-11
1.81970086e-02 1.65893982e-11 1.65834298e-11 5.96840283e-15 1.32944115e-135 6.32199100e-138 1.65834298e-11
2.08929613e-02 1.65921696e-11 1.65834298e-11 8.73981982e-15 6.79352051e-119 4.59369533e-121 1.65834298e-11
2.39883292e-02 1.65969887e-11 1.65834298e-11 1.35589392e-14 2.33887899e-104 2.16464687e-106 1.65834298e-11
2.75422870e-02 1.65978440e-11 1.65834298e-11 1.44142026e-14 1.03006838e-91 1.25883758e-93 1.65834298e-11
3.16227766e-02 1.66022601e-11 1.65834298e-11 1.88303427e-14 9.90359322e-81 1.52532684e-82 1.65834298e-11
3.63078055e-02 1.66067883e-11 1.65834298e-11 2.33584820e-14 3.39240155e-71 6.10778306e-73 1.65834298e-11
4.16869383e-02 1.66165413e-11 1.65834298e-11 3.31115193e-14 6.39710286e-63 1.63606303e-64 1.65834298e-11
4.78630092e-02 1.66297297e-11 1.65834298e-11 4.62998653e-14 9.60911278e-56 3.36120529e-57 1.65834298e-11
5.49540874e-02 1.66432206e-11 1.65834298e-11 5.97907954e-14 1.59316228e-49 7.29497219e-51 1.65834298e-11
6.30957344e-02 1.66633598e-11 1.65834298e-11 7.99300084e-14 5.15428161e-44 3.01497123e-45 1.65834298e-11
7.24435960e-02 1.66678441e-11 1.65834298e-11 8.44142782e-14 2.97780832e-39 1.76849219e-40 1.65834298e-11
8.31763771e-02 1.66652725e-11 1.65834298e-11 8.18427217e-14 3.02955405e-35 1.77925548e-36 1.65834298e-11
9.54992586e-02 1.66692229e-11 1.65834298e-11 8.57931298e-14 8.50300066e-32 5.26144984e-33 1.65834298e-11
1.09647820e-01 1.59237299e-11 1.58370587e-11 8.66711685e-14 7.16251263e-29 4.60684511e-30 1.58370587e-11
1.25892541e-01 1.48525741e-11 1.47800032e-11 7.25709765e-14 2.29822132e-26 1.36290092e-27 1.47800032e-11
1.44543977e-01 1.38549040e-11 1.37935015e-11 6.14024657e-14 3.10549005e-24 1.71319850e-25 1.37935015e-11
1.65958691e-01 1.29408840e-11 1.28728446e-11 6.80393698e-14 1.56932651e-22 9.69640822e-24 1.28728446e-11
1.90546072e-01 1.20894451e-11 1.20136376e-11 7.58074927e-14 3.31289771e-21 2.52731511e-22 1.20136376e-11
2.18776162e-01 1.12927114e-11 1.12117790e-11 8.09323953e-14 3.94587894e-20 3.39958873e-21 1.12117790e-11
2.51188643e-01 1.05631034e-11 1.04634409e-11 9.96620038e-14 4.78866023e-19 5.02134493e-20 1.04634409e-11
2.88403150e-01 9.85144121e-12 9.76505125e-12 8.63860053e-14 3.95137431e-18 3.88778854e-19 9.76505125e-12
3.31131121e-01 9.18995120e-12 9.11327608e-12 7.66525932e-14 2.25228316e-17 2.10380919e-18 9.11327608e-12
3.80189396e-01 8.57277699e-12 8.50500410e-12 6.76794030e-14 9.34880101e-17 8.38622954e-18 8.50500410e-12
4.36515832e-01 8.00226527e-12 7.93733165e-12 6.46384095e-14 2.95207509e-16 2.59574974e-17 7.93733165e-12
5.01187234e-01 7.46702285e-12 7.40754890e-12 5.87343457e-14 7.39609174e-16 6.53306010e-17 7.40754890e-12
5.75439937e-01 6.96853698e-12 6.91312687e-12 5.38639374e-14 1.54617813e-15 1.37701752e-16 6.91312687e-12
6.60693448e-01 6.50628381e-12 6.45170538e-12 5.17097520e-14 2.86867492e-15 2.63704815e-16 6.45170538e-12
7.58577575e-01 6.07368392e-12 6.02108180e-12 4.74364701e-14 5.16565718e-15 5.18660640e-16 6.02108180e-12
8.70963590e-01 5.67112788e-12 5.61920048e-12 4.22993906e-14 9.62801135e-15 1.05266484e-15 5.61920048e-12
1.00000000e+00 5.30144596e-12 5.24414302e-12 3.82966473e-14 1.90062926e-14 2.21152170e-15 5.24414302e-12
1.14815362e+00 4.96495409e-12 4.89411902e-12 3.19682502e-14 3.88668166e-14 4.50127567e-15 4.89411902e-12
1.31825674e+00 4.67175674e-12 4.56745763e-12 2.58513244e-14 7.84477874e-14 8.50062047e-15 4.56745763e-12
1.51356125e+00 4.43145908e-12 4.26259947e-12 2.04888614e-14 1.48370748e-13 1.43844079e-14 4.26259947e-12
1.73780083e+00 4.24830242e-12 3.97808929e-12 1.53194055e-14 2.54893723e-13 2.09888908e-14 3.97808929e-12
1.99526231e+00 4.11926912e-12 3.71256894e-12 1.15702870e-14 3.95129896e-13 2.65280563e-14 3.71256894e-12
2.29086765e+00 4.02792917e-12 3.46477093e-12 8.09017287e-15 5.55068063e-13 2.92971777e-14 3.46477093e-12
2.63026799e+00 3.95391076e-12 3.23351237e-12 5.77175475e-15 7.14626635e-13 2.92155788e-14 3.23351237e-12
3.01995172e+00 3.87798002e-12 3.01768933e-12 3.91366366e-15 8.56377030e-13 2.68038002e-14 3.01768933e-12
3.46736850e+00 3.78065892e-12 2.81627154e-12 2.70178050e-15 9.61685598e-13 2.24769875e-14 2.81627154e-12
3.98107171e+00 3.65536554e-12 2.62829753e-12 1.85890971e-15 1.02520910e-12 1.77972174e-14 2.62829753e-12
4.57088190e+00 3.49863324e-12 2.45286997e-12 1.22727565e-15 1.04453599e-12 1.30268096e-14 2.45286997e-12
5.24807460e+00 3.06353377e-12 2.02814751e-12 6.86396201e-16 1.03469986e-12 8.99337053e-15 2.02814751e-12
6.02559586e+00 2.33717689e-12 1.33998377e-12 3.00704579e-16 9.96892415e-13 5.79875373e-15 1.33998377e-12
6.70000000e+00 1.93084326e-12 9.74709347e-13 1.50955013e-16 9.55982959e-13 3.95621272e-15 9.74709347e-13
6.92422916e+00 1.82422443e-12 8.83049889e-13 1.23317455e-16 9.41051220e-13 3.46155991e-15 8.83049889e-13
7.15596261e+00 1.73296128e-12 8.00009879e-13 9.58194273e-17 9.32855580e-13 2.99487838e-15 8.00009879e-13
7.39545150e+00 1.66703783e-12 7.24778763e-13 7.39171158e-17 9.42185148e-13 2.57842481e-15 7.24778763e-13
7.64295536e+00 1.65665045e-12 6.56622211e-13 5.17721129e-17 9.99976470e-13 2.15083816e-15 6.56622211e-13
7.89874245e+00 1.73241317e-12 5.94874946e-13 3.09720254e-17 1.13750725e-12 1.71366780e-15 5.94874946e-13
8.16308998e+00 1.87167385e-12 5.38934254e-13 1.91070118e-17 1.33272049e-12 1.34344499e-15 5.38934254e-13
8.43628443e+00 2.09840334e-12 4.88254098e-13 1.07937191e-17 1.61013845e-12 1.01814923e-15 4.88254098e-13
8.71862190e+00 2.24829838e-12 4.42339790e-13 6.91841759e-18 1.80595167e-12 7.96706743e-16 4.42339790e-13
9.01040836e+00 2.41747636e-12 4.00743158e-13 4.17129726e-18 2.01672903e-12 6.03655365e-16 4.00743158e-13
9.31196005e+00 2.55194452e-12 3.63058180e-13 0.00000000e+00 2.18888634e-12 0.00000000e+00 3.63058180e-13
9.62360379e+00 2.51494245e-12 3.28917012e-13 0.00000000e+00 2.18602543e-12 0.00000000e+00 3.28917012e-13
9.94567731e+00 2.37402870e-12 2.97986401e-13 0.00000000e+00 2.07604230e-12 0.00000000e+00 2.97986401e-13
1.02785297e+01 2.18834264e-12 2.69964435e-13 0.00000000e+00 1.91837820e-12 0.00000000e+00 2.69964435e-13
1.06225216e+01 2.01296562e-12 2.44577592e-13 0.00000000e+00 1.76838803e-12 0.00000000e+00 2.44577592e-13
1.09780260e+01 1.82104914e-12 2.21578069e-13 0.00000000e+00 1.59947107e-12 0.00000000e+00 2.21578069e-13
1.13454280e+01 1.65167394e-12 2.00741370e-13 0.00000000e+00 1.45093257e-12 0.00000000e+00 2.00741370e-13
1.17251259e+01 1.50723334e-12 1.81864106e-13 0.00000000e+00 1.32536923e-12 0.00000000e+00 1.81864106e-13
1.21175312e+01 1.37524472e-12 1.64762018e-13 0.00000000e+00 1.21048270e-12 0.00000000e+00 1.64762018e-13
1.25230691e+01 1.26056324e-12 1.49268171e-13 0.00000000e+00 1.11129507e-12 0.00000000e+00 1.49268171e-13
1.29421791e+01 1.15614595e-12 1.35231331e-13 0.00000000e+00 1.02091461e-12 0.00000000e+00 1.35231331e-13
1.33753155e+01 1.06710105e-12 1.22514483e-13 0.00000000e+00 9.44586572e-13 0.00000000e+00 1.22514483e-13
1.38229477e+01 1.01086877e-12 1.10993499e-13 0.00000000e+00 8.99875270e-13 0.00000000e+00 1.10993499e-13
1.42855609e+01 9.74897500e-13 1.00555922e-13 0.00000000e+00 8.74341579e-13 0.00000000e+00 1.00555922e-13
1.47636563e+01 9.84077659e-13 9.10998706e-14 0.00000000e+00 8.92977789e-13 0.00000000e+00 9.10998706e-14
1.52577522e+01 9.99930557e-13 8.25330452e-14 0.00000000e+00 9.17397512e-13 0.00000000e+00 8.25330452e-14
1.57683840e+01 1.02582194e-12 7.47718247e-14 0.00000000e+00 9.51050118e-13 0.00000000e+00 7.47718247e-14
1.62961051e+01 1.05067076e-12 6.77404517e-14 0.00000000e+00 9.82930313e-13 0.00000000e+00 6.77404517e-14
1.68414875e+01 1.07702491e-12 6.13702932e-14 0.00000000e+00 1.01565461e-12 0.00000000e+00 6.13702932e-14
1.74051222e+01 1.09014423e-12 5.55991699e-14 0.00000000e+00 1.03454506e-12 0.00000000e+00 5.55991699e-14
1.79876201e+01 1.09863269e-12 5.03707500e-14 0.00000000e+00 1.04826194e-12 0.00000000e+00 5.03707500e-14
1.85896125e+01 1.08412547e-12 4.56339988e-14 0.00000000e+00 1.03849147e-12 0.00000000e+00 4.56339988e-14
1.92117518e+01 1.05982121e-12 4.13426810e-14 0.00000000e+00 1.01847853e-12 0.00000000e+00 4.13426810e-14
1.98547123e+01 1.02555329e-12 3.74549090e-14 0.00000000e+00 9.88098379e-13 0.00000000e+00 3.74549090e-14
2.05191907e+01 9.87534152e-13 3.39327342e-14 0.00000000e+00 9.53601417e-13 0.00000000e+00 3.39327342e-14
2.12059073e+01 9.52229011e-13 3.07417768e-14 0.00000000e+00 9.21487235e-13 0.00000000e+00 3.07417768e-14
2.19156062e+01 9.17380717e-13 2.78508898e-14 0.00000000e+00 8.89529828e-13 0.00000000e+00 2.78508898e-14
2.26490567e+01 8.83726655e-13 2.52318552e-14 0.00000000e+00 8.58494799e-13 0.00000000e+00 2.52318552e-14
2.34070535e+01 8.53658091e-13 2.28591087e-14 0.00000000e+00 8.30798982e-13 0.00000000e+00 2.28591087e-14
2.41904183e+01 8.22496183e-13 2.07094900e-14 0.00000000e+00 8.01786693e-13 0.00000000e+00 2.07094900e-14
2.50000000e+01 7.92945442e-13 1.87620165e-14 0.00000000e+00 7.74183425e-13 0.00000000e+00 1.87620165e-14
2.75422870e+01 7.05196553e-13 1.40313526e-14 0.00000000e+00 6.91165200e-13 0.00000000e+00 1.40313526e-14
3.16227766e+01 5.78602182e-13 9.27042274e-15 0.00000000e+00 5.69331759e-13 0.00000000e+00 9.27042274e-15
3.63078055e+01 4.49081850e-13 6.12490756e-15 0.00000000e+00 4.42956942e-13 0.00000000e+00 6.12490756e-15
4.16869383e+01 3.26876063e-13 4.04668630e-15 0.00000000e+00 3.22829377e-13 0.00000000e+00 4.04668630e-15
4.78630092e+01 2.22128698e-13 2.67361912e-15 0.00000000e+00 2.19455079e-13 0.00000000e+00 2.67361912e-15
5.49540874e+01 1.42700806e-13 1.76644264e-15 0.00000000e+00 1.40934363e-13 0.00000000e+00 1.76644264e-15
6.30957344e+01 8.75032009e-14 1.16707708e-15 0.00000000e+00 8.63361238e-14 0.00000000e+00 1.16707708e-15
7.24435960e+01 5.17448571e-14 7.71080178e-16 0.00000000e+00 5.09737769e-14 0.00000000e+00 7.71080178e-16
8.31763771e+01 2.97395237e-14 5.09447621e-16 0.00000000e+00 2.92300761e-14 0.00000000e+00 5.09447621e-16
9.54992586e+01 1.67505896e-14 3.36588705e-16 0.00000000e+00 1.64140009e-14 0.00000000e+00 3.36588705e-16
1.09647820e+02 9.30161888e-15 2.22381952e-16 0.00000000e+00 9.07923692e-15 0.00000000e+00 2.22381952e-16
1.25892541e+02 5.16187652e-15 1.46926299e-16 0.00000000e+00 5.01495023e-15 0.00000000e+00 1.46926299e-16
1.44543977e+02 2.85157674e-15 9.70732430e-17 0.00000000e+00 2.75450350e-15 0.00000000e+00 9.70732430e-17
1.65958691e+02 1.50509512e-15 6.41356556e-17 0.00000000e+00 1.44095946e-15 0.00000000e+00 6.41356556e-17
1.90546072e+02 7.96481784e-16 4.23740075e-17 0.00000000e+00 7.54107776e-16 0.00000000e+00 4.23740075e-17
2.18776162e+02 4.22007484e-16 2.79962291e-17 0.00000000e+00 3.94011255e-16 0.00000000e+00 2.79962291e-17
2.51188643e+02 2.23624370e-16 1.84969251e-17 0.00000000e+00 2.05127445e-16 0.00000000e+00 1.84969251e-17
2.88403150e+02 1.18503006e-16 1.22207972e-17 0.00000000e+00 1.06282209e-16 0.00000000e+00 1.22207972e-17
3.31131121e+02 6.29811092e-17 8.07420067e-18 0.00000000e+00 5.49069085e-17 0.00000000e+00 8.07420067e-18
3.80189396e+02 3.35901053e-17 5.33457148e-18 0.00000000e+00 2.82555339e-17 0.00000000e+00 5.33457148e-18
4.36515832e+02 1.80275742e-17 3.52451642e-18 0.00000000e+00 1.45030578e-17 0.00000000e+00 3.52451642e-18
5.01187234e+02 9.75189708e-18 2.32862491e-18 0.00000000e+00 7.42327217e-18 0.00000000e+00 2.32862491e-18
5.75439937e+02 5.32936704e-18 1.53850722e-18 0.00000000e+00 3.79085982e-18 0.00000000e+00 1.53850722e-18
6.60693448e+02 2.94845887e-18 1.01648164e-18 0.00000000e+00 1.93197723e-18 0.00000000e+00 1.01648164e-18
7.58577575e+02 1.65449862e-18 6.71582760e-19 0.00000000e+00 9.82915856e-19 0.00000000e+00 6.71582760e-19
8.70963590e+02 9.42899077e-19 4.43710329e-19 0.00000000e+00 4.99188748e-19 0.00000000e+00 4.43710329e-19
1.00000000e+03 2.53099766e-19 0.00000000e+00 0.00000000e+00 2.53099766e-19 0.00000000e+00 0.00000000e+00
