# column 1: lambda (micron)
# column 2: total flux; lambda*F_lambda (W/m2)
# column 3: direct stellar flux; lambda*F_lambda (W/m2)
# column 4: scattered stellar flux; lambda*F_lambda (W/m2)
# column 5: total dust emission flux; lambda*F_lambda (W/m2)
# column 6: dust emission scattered flux; lambda*F_lambda (W/m2)
# column 7: transparent flux; lambda*F_lambda (W/m2)
1.00000000e-03 9.68074904e-13 9.68073281e-13 1.62335400e-18 0.00000000e+00 0.00000000e+00 9.68073281e-13
1.14815362e-03 1.14263923e-12 1.14263687e-12 2.36127251e-18 0.00000000e+00 0.00000000e+00 1.14263687e-12
1.31825674e-03 1.34868140e-12 1.34867788e-12 3.52650614e-18 0.00000000e+00 0.00000000e+00 1.34867788e-12
1.51356125e-03 1.59187777e-12 1.59187233e-12 5.43580981e-18 0.00000000e+00 0.00000000e+00 1.59187233e-12
1.73780083e-03 1.87892939e-12 1.87891976e-12 9.62577137e-18 0.00000000e+00 0.00000000e+00 1.87891976e-12
1.99526231e-03 2.21774380e-12 2.21772777e-12 1.60393242e-17 0.00000000e+00 0.00000000e+00 2.21772777e-12
2.29086765e-03 2.61765476e-12 2.61762985e-12 2.49149979e-17 0.00000000e+00 0.00000000e+00 2.61762985e-12
2.63026799e-03 3.08969252e-12 3.08964252e-12 4.99990901e-17 0.00000000e+00 0.00000000e+00 3.08964252e-12
3.01995172e-03 3.64685243e-12 3.64676883e-12 8.36007833e-17 0.00000000e+00 0.00000000e+00 3.64676883e-12
3.46736850e-03 4.30449492e-12 4.30435650e-12 1.38422266e-16 0.00000000e+00 0.00000000e+00 4.30435650e-12
3.98107171e-03 5.08073965e-12 5.08052080e-12 2.18854220e-16 0.00000000e+00 0.00000000e+00 5.08052080e-12
4.57088190e-03 5.99715882e-12 5.99664354e-12 5.15284326e-16 0.00000000e+00 0.00000000e+00 5.99664354e-12
5.24807460e-03 7.07882473e-12 7.07796211e-12 8.62614945e-16 0.00000000e+00 0.00000000e+00 7.07796211e-12
6.02559586e-03 8.35582211e-12 8.35426474e-12 1.55736800e-15 0.00000000e+00 0.00000000e+00 8.35426474e-12
6.91830971e-03 9.86318795e-12 9.86071107e-12 2.47688271e-15 0.00000000e+00 0.00000000e+00 9.86071107e-12
7.94328235e-03 1.16428847e-11 1.16388008e-11 4.08389561e-15 8.98436612e-304 2.15539159e-305 1.16388008e-11
9.12010839e-03 1.37439484e-11 1.37375167e-11 6.43173466e-15 5.53119710e-265 4.64830742e-267 1.37375167e-11
1.04712855e-02 1.53518962e-11 1.53429287e-11 8.96752782e-15 3.18873985e-231 2.90663308e-233 1.53429287e-11
1.20226443e-02 1.53577974e-11 1.53429287e-11 1.48686943e-14 6.57374911e-202 9.60815829e-204 1.53429287e-11
1.38038426e-02 1.53666303e-11 1.53429287e-11 2.37016228e-14 2.27140883e-176 4.08952717e-178 1.53429287e-11
1.58489319e-02 1.53732843e-11 1.53429287e-11 3.03556829e-14 3.77873871e-154 8.26995919e-156 1.53429287e-11
1.81970086e-02 1.53869800e-11 1.53429287e-11 4.40513750e-14 8.08899190e-135 2.21952366e-136 1.53429287e-11
2.08929613e-02 1.53998794e-11 1.53429287e-11 5.69507225e-14 4.92714139e-118 1.37599004e-119 1.53429287e-11
2.39883292e-02 1.54188870e-11 1.53429287e-11 7.59583072e-14 1.98468732e-103 6.66328408e-105 1.53429287e-11
2.75422870e-02 1.54436498e-11 1.53429287e-11 1.00721168e-13 9.99430085e-91 3.68853479e-92 1.53429287e-11
3.16227766e-02 1.54692395e-11 1.53429287e-11 1.26310786e-13 1.08251047e-79 4.65451360e-81 1.53429287e-11
3.63078055e-02 1.54808148e-11 1.53429287e-11 1.37886107e-13 4.10824582e-70 1.92744554e-71 1.53429287e-11
4.16869383e-02 1.55372577e-11 1.53429287e-11 1.94329032e-13 8.51286247e-62 5.09154787e-63 1.53429287e-11
4.78630092e-02 1.55958772e-11 1.53429287e-11 2.52948514e-13 1.38019543e-54 9.80497969e-56 1.53429287e-11
5.49540874e-02 1.56437344e-11 1.53429287e-11 3.00805741e-13 2.43334759e-48 1.96435031e-49 1.53429287e-11
6.30957344e-02 1.56821649e-11 1.53429287e-11 3.39236260e-13 8.19778439e-43 7.22715304e-44 1.53429287e-11
7.24435960e-02 1.56616992e-11 1.53429287e-11 3.18770494e-13 4.87814891e-38 4.07741551e-39 1.53429287e-11
8.31763771e-02 1.56535909e-11 1.53429287e-11 3.10662195e-13 5.19380442e-34 4.25790714e-35 1.53429287e-11
9.54992586e-02 1.56659469e-11 1.53429287e-11 3.23018208e-13 1.51976520e-30 1.27607409e-31 1.53429287e-11
1.09647820e-01 1.49876408e-11 1.46523889e-11 3.35251929e-13 1.34840555e-27 1.23446805e-28 1.46523889e-11
1.25892541e-01 1.39858248e-11 1.36744049e-11 3.11419849e-13 4.52744609e-25 4.14675732e-26 1.36744049e-11
1.44543977e-01 1.30439121e-11 1.27616972e-11 2.82214914e-13 6.35230904e-23 5.74617341e-24 1.27616972e-11
1.65958691e-01 1.22081271e-11 1.19099088e-11 2.98218282e-13 3.31350028e-21 3.33182606e-22 1.19099088e-11
1.90546072e-01 1.14418161e-11 1.11149736e-11 3.26842380e-13 7.12325265e-20 8.21745769e-21 1.11149736e-11
2.18776162e-01 1.06840613e-11 1.03730969e-11 3.10963470e-13 8.49437703e-19 9.91325141e-20 1.03730969e-11
2.51188643e-01 1.00394926e-11 9.68073733e-12 3.58744580e-13 1.07106878e-17 1.57473096e-18 9.68073733e-12
2.88403150e-01 9.36520571e-12 9.03458975e-12 3.30524979e-13 9.09814116e-17 1.35996291e-17 9.03458975e-12
3.31131121e-01 8.72983484e-12 8.43156974e-12 2.97737195e-13 5.27901140e-16 7.76216438e-17 8.43156974e-12
3.80189396e-01 8.14425285e-12 7.86879872e-12 2.73226220e-13 2.22790868e-15 3.27151745e-16 7.86879872e-12
4.36515832e-01 7.60920430e-12 7.34359025e-12 2.58480308e-13 7.13374297e-15 1.05418542e-15 7.34359025e-12
5.01187234e-01 7.10606126e-12 6.85343719e-12 2.34626664e-13 1.79974114e-14 2.66005012e-15 6.85343719e-12
5.75439937e-01 6.65407659e-12 6.39599973e-12 2.20394656e-13 3.76822055e-14 5.67044253e-15 6.39599973e-12
6.60693448e-01 6.23524579e-12 5.96909425e-12 1.97780806e-13 6.83707277e-14 1.06284940e-14 5.96909425e-12
7.58577575e-01 5.86489352e-12 5.57068288e-12 1.78929133e-13 1.15281506e-13 1.92173402e-14 5.57068288e-12
8.70963590e-01 5.54998601e-12 5.19886376e-12 1.60136432e-13 1.90985816e-13 3.46986456e-14 5.19886376e-12
1.00000000e+00 5.31083139e-12 4.85186196e-12 1.37060258e-13 3.21909167e-13 6.27099302e-14 4.85186196e-12
1.14815362e+00 5.20539255e-12 4.52802104e-12 1.15820463e-13 5.61551039e-13 1.09530558e-13 4.52802104e-12
1.31825674e+00 5.30077488e-12 4.22579511e-12 9.07337668e-14 9.84246004e-13 1.79033844e-13 4.22579511e-12
1.51356125e+00 5.65592312e-12 3.94374146e-12 7.07450093e-14 1.64143665e-12 2.62939906e-13 3.94374146e-12
1.73780083e+00 6.26393138e-12 3.68051368e-12 5.59636929e-14 2.52745401e-12 3.41456396e-13 3.68051368e-12
1.99526231e+00 7.03644168e-12 3.43485522e-12 4.14876815e-14 3.56009878e-12 3.91705620e-13 3.43485522e-12
2.29086765e+00 7.81823773e-12 3.20559341e-12 3.05171862e-14 4.58212713e-12 4.02314158e-13 3.20559341e-12
2.63026799e+00 8.51711158e-12 2.99163384e-12 2.25299108e-14 5.50294784e-12 3.83255654e-13 2.99163384e-12
3.01995172e+00 9.01943243e-12 2.79195514e-12 1.59829382e-14 6.21149435e-12 3.40866537e-13 2.79195514e-12
3.46736850e+00 9.34401725e-12 2.60560415e-12 1.11597973e-14 6.72725331e-12 2.84755987e-13 2.60560415e-12
3.98107171e+00 9.44319714e-12 2.43169128e-12 7.54306881e-15 7.00396279e-12 2.20292181e-13 2.43169128e-12
4.57088190e+00 9.33360231e-12 2.26938634e-12 4.85435732e-15 7.05936161e-12 1.56468928e-13 2.26938634e-12
5.24807460e+00 8.81339317e-12 1.87643467e-12 2.74044571e-15 6.93421806e-12 1.01874920e-13 1.87643467e-12
6.02559586e+00 7.85377965e-12 1.23974809e-12 1.16630952e-15 6.61286525e-12 6.18514541e-14 1.23974809e-12
6.70000000e+00 7.19254360e-12 9.01797527e-13 5.90655561e-16 6.29015542e-12 3.97214489e-14 9.01797527e-13
6.92422916e+00 6.97771632e-12 8.16994532e-13 4.74547921e-16 6.16024724e-12 3.42588688e-14 8.16994532e-13
7.15596261e+00 6.80660503e-12 7.40166218e-13 3.70444425e-16 6.06606837e-12 2.93364238e-14 7.40166218e-13
7.39545150e+00 6.75460650e-12 6.70562664e-13 2.87478213e-16 6.08375635e-12 2.48205062e-14 6.70562664e-13
7.64295536e+00 6.96058363e-12 6.07504471e-13 2.03950893e-16 6.35287521e-12 2.08464612e-14 6.07504471e-13
7.89874245e+00 7.52502815e-12 5.50376127e-13 1.27881269e-16 6.97452414e-12 1.69851690e-14 5.50376127e-13
8.16308998e+00 8.27450616e-12 4.98620004e-13 7.73962052e-17 7.77580876e-12 1.34233337e-14 4.98620004e-13
8.43628443e+00 9.20144189e-12 4.51730909e-13 4.27621734e-17 8.74966821e-12 1.00802005e-14 4.51730909e-13
8.71862190e+00 9.73853828e-12 4.09251158e-13 2.63916972e-17 9.32926073e-12 7.70358906e-15 4.09251158e-13
9.01040836e+00 1.01431597e-11 3.70766106e-13 1.50338762e-17 9.77237852e-12 5.57617729e-15 3.70766106e-13
9.31196005e+00 1.05025001e-11 3.35900102e-13 0.00000000e+00 1.01666000e-11 0.00000000e+00 3.35900102e-13
9.62360379e+00 1.03104342e-11 3.04312818e-13 0.00000000e+00 1.00061214e-11 0.00000000e+00 3.04312818e-13
9.94567731e+00 9.87510865e-12 2.75695930e-13 0.00000000e+00 9.59941272e-12 0.00000000e+00 2.75695930e-13
1.02785297e+01 9.28603488e-12 2.49770110e-13 0.00000000e+00 9.03626477e-12 0.00000000e+00 2.49770110e-13
1.06225216e+01 8.75023033e-12 2.26282295e-13 0.00000000e+00 8.52394804e-12 0.00000000e+00 2.26282295e-13
1.09780260e+01 8.13336689e-12 2.05003220e-13 0.00000000e+00 7.92836367e-12 0.00000000e+00 2.05003220e-13
1.13454280e+01 7.58142017e-12 1.85725182e-13 0.00000000e+00 7.39569498e-12 0.00000000e+00 1.85725182e-13
1.17251259e+01 7.02989122e-12 1.68260007e-13 0.00000000e+00 6.86163121e-12 0.00000000e+00 1.68260007e-13
1.21175312e+01 6.50866451e-12 1.52437217e-13 0.00000000e+00 6.35622729e-12 0.00000000e+00 1.52437217e-13
1.25230691e+01 6.00437160e-12 1.38102367e-13 0.00000000e+00 5.86626924e-12 0.00000000e+00 1.38102367e-13
1.29421791e+01 5.54286392e-12 1.25115533e-13 0.00000000e+00 5.41774838e-12 0.00000000e+00 1.25115533e-13
1.33753155e+01 5.11305231e-12 1.13349952e-13 0.00000000e+00 4.99970236e-12 0.00000000e+00 1.13349952e-13
1.38229477e+01 4.80773714e-12 1.02690779e-13 0.00000000e+00 4.70504636e-12 0.00000000e+00 1.02690779e-13
1.42855609e+01 4.58567062e-12 9.30339713e-14 0.00000000e+00 4.49263664e-12 0.00000000e+00 9.30339713e-14
1.47636563e+01 4.57858556e-12 8.42852675e-14 0.00000000e+00 4.49430029e-12 0.00000000e+00 8.42852675e-14
1.52577522e+01 4.60970623e-12 7.63592720e-14 0.00000000e+00 4.53334696e-12 0.00000000e+00 7.63592720e-14
1.57683840e+01 4.65211103e-12 6.91786191e-14 0.00000000e+00 4.58293242e-12 0.00000000e+00 6.91786191e-14
1.62961051e+01 4.69744631e-12 6.26732185e-14 0.00000000e+00 4.63477309e-12 0.00000000e+00 6.26732185e-14
1.68414875e+01 4.74629174e-12 5.67795711e-14 0.00000000e+00 4.68951217e-12 0.00000000e+00 5.67795711e-14
1.74051222e+01 4.70872968e-12 5.14401489e-14 0.00000000e+00 4.65728953e-12 0.00000000e+00 5.14401489e-14
1.79876201e+01 4.65522291e-12 4.66028339e-14 0.00000000e+00 4.60862008e-12 0.00000000e+00 4.66028339e-14
1.85896125e+01 4.53307937e-12 4.22204090e-14 0.00000000e+00 4.49085896e-12 0.00000000e+00 4.22204090e-14
1.92117518e+01 4.34433958e-12 3.82500974e-14 0.00000000e+00 4.30608948e-12 0.00000000e+00 3.82500974e-14
1.98547123e+01 4.12028589e-12 3.46531450e-14 0.00000000e+00 4.08563274e-12 0.00000000e+00 3.46531450e-14
2.05191907e+01 3.88865740e-12 3.13944418e-14 0.00000000e+00 3.85726295e-12 0.00000000e+00 3.13944418e-14
2.12059073e+01 3.65588520e-12 2.84421796e-14 0.00000000e+00 3.62744302e-12 0.00000000e+00 2.84421796e-14
2.19156062e+01 3.44610297e-12 2.57675415e-14 0.00000000e+00 3.42033542e-12 0.00000000e+00 2.57675415e-14
2.26490567e+01 3.24786126e-12 2.33444203e-14 0.00000000e+00 3.22451684e-12 0.00000000e+00 2.33444203e-14
2.34070535e+01 3.04651781e-12 2.11491639e-14 0.00000000e+00 3.02536864e-12 0.00000000e+00 2.11491639e-14
2.41904183e+01 2.86734547e-12 1.91603445e-14 0.00000000e+00 2.84818512e-12 0.00000000e+00 1.91603445e-14
2.50000000e+01 2.68931651e-12 1.73585491e-14 0.00000000e+00 2.67195796e-12 0.00000000e+00 1.73585491e-14
2.75422870e+01 2.20458669e-12 1.29817562e-14 0.00000000e+00 2.19160493e-12 0.00000000e+00 1.29817562e-14
3.16227766e+01 1.61474271e-12 8.57696126e-15 0.00000000e+00 1.60616575e-12 0.00000000e+00 8.57696126e-15
3.63078055e+01 1.12111375e-12 5.66674211e-15 0.00000000e+00 1.11544701e-12 0.00000000e+00 5.66674211e-15
4.16869383e+01 7.33106838e-13 3.74397938e-15 0.00000000e+00 7.29362859e-13 0.00000000e+00 3.74397938e-15
4.78630092e+01 4.50334203e-13 2.47362265e-15 0.00000000e+00 4.47860581e-13 0.00000000e+00 2.47362265e-15
5.49540874e+01 2.63425624e-13 1.63430628e-15 0.00000000e+00 2.61791318e-13 0.00000000e+00 1.63430628e-15
6.30957344e+01 1.48884918e-13 1.07977545e-15 0.00000000e+00 1.47805143e-13 0.00000000e+00 1.07977545e-15
7.24435960e+01 8.18050364e-14 7.13400564e-16 0.00000000e+00 8.10916359e-14 0.00000000e+00 7.13400564e-16
8.31763771e+01 4.41876705e-14 4.71339078e-16 0.00000000e+00 4.37163315e-14 0.00000000e+00 4.71339078e-16
9.54992586e+01 2.36052708e-14 3.11410641e-16 0.00000000e+00 2.32938602e-14 0.00000000e+00 3.11410641e-16
1.09647820e+02 1.25260770e-14 2.05746970e-16 0.00000000e+00 1.23203300e-14 0.00000000e+00 2.05746970e-16
1.25892541e+02 6.69563040e-15 1.35935675e-16 0.00000000e+00 6.55969473e-15 0.00000000e+00 1.35935675e-16
1.44543977e+02 3.58239395e-15 8.98118099e-17 0.00000000e+00 3.49258214e-15 0.00000000e+00 8.98118099e-17
1.65958691e+02 1.83578569e-15 5.93380743e-17 0.00000000e+00 1.77644761e-15 0.00000000e+00 5.93380743e-17
1.90546072e+02 9.47500368e-16 3.92042769e-17 0.00000000e+00 9.08296091e-16 0.00000000e+00 3.92042769e-17
2.18776162e+02 4.91226001e-16 2.59020089e-17 0.00000000e+00 4.65323992e-16 0.00000000e+00 2.59020089e-17
2.51188643e+02 2.55355123e-16 1.71132876e-17 0.00000000e+00 2.38241836e-16 0.00000000e+00 1.71132876e-17
2.88403150e+02 1.33004795e-16 1.13066370e-17 0.00000000e+00 1.21698158e-16 0.00000000e+00 1.13066370e-17
3.31131121e+02 6.95915451e-17 7.47022097e-18 0.00000000e+00 6.21213241e-17 0.00000000e+00 7.47022097e-18
3.80189396e+02 3.65764308e-17 4.93552605e-18 0.00000000e+00 3.16409047e-17 0.00000000e+00 4.93552605e-18
4.36515832e+02 1.93597816e-17 3.26086972e-18 0.00000000e+00 1.60989119e-17 0.00000000e+00 3.26086972e-18
5.01187234e+02 1.03327714e-17 2.15443526e-18 0.00000000e+00 8.17833612e-18 0.00000000e+00 2.15443526e-18
5.75439937e+02 5.57296826e-18 1.42342126e-18 0.00000000e+00 4.14954700e-18 0.00000000e+00 1.42342126e-18
6.60693448e+02 3.04356387e-18 9.40445101e-19 0.00000000e+00 2.10311877e-18 0.00000000e+00 9.40445101e-19
7.58577575e+02 1.68624963e-18 6.21345916e-19 0.00000000e+00 1.06490371e-18 0.00000000e+00 6.21345916e-19
8.70963590e+02 9.49134170e-19 4.10519176e-19 0.00000000e+00 5.38614995e-19 0.00000000e+00 4.10519176e-19
1.00000000e+03 2.72127138e-19 0.00000000e+00 0.00000000e+00 2.72127138e-19 0.00000000e+00 0.00000000e+00
