# column 1: lambda (micron)
# column 2: total flux; lambda*F_lambda (W/m2)
# column 3: direct stellar flux; lambda*F_lambda (W/m2)
# column 4: scattered stellar flux; lambda*F_lambda (W/m2)
# column 5: total dust emission flux; lambda*F_lambda (W/m2)
# column 6: dust emission scattered flux; lambda*F_lambda (W/m2)
# column 7: transparent flux; lambda*F_lambda (W/m2)
1.00000000e-03 1.07335824e-12 1.07335627e-12 1.96812822e-18 0.00000000e+00 0.00000000e+00 1.07335627e-12
1.14815362e-03 1.26690764e-12 1.26690456e-12 3.08205455e-18 0.00000000e+00 0.00000000e+00 1.26690456e-12
1.31825674e-03 1.49535840e-12 1.49535359e-12 4.81190899e-18 0.00000000e+00 0.00000000e+00 1.49535359e-12
1.51356125e-03 1.76500414e-12 1.76499670e-12 7.43748198e-18 0.00000000e+00 0.00000000e+00 1.76499670e-12
1.73780083e-03 2.08327499e-12 2.08326203e-12 1.29646664e-17 0.00000000e+00 0.00000000e+00 2.08326203e-12
1.99526231e-03 2.45894120e-12 2.45891716e-12 2.40427328e-17 0.00000000e+00 0.00000000e+00 2.45891716e-12
2.29086765e-03 2.90234770e-12 2.90231066e-12 3.70345216e-17 0.00000000e+00 0.00000000e+00 2.90231066e-12
2.63026799e-03 3.42573324e-12 3.42565717e-12 7.60694506e-17 0.00000000e+00 0.00000000e+00 3.42565717e-12
3.01995172e-03 4.04350185e-12 4.04337385e-12 1.28007901e-16 0.00000000e+00 0.00000000e+00 4.04337385e-12
3.46736850e-03 4.77269292e-12 4.77247759e-12 2.15332769e-16 0.00000000e+00 0.00000000e+00 4.77247759e-12
3.98107171e-03 5.63339813e-12 5.63305378e-12 3.44349089e-16 0.00000000e+00 0.00000000e+00 5.63305378e-12
4.57088190e-03 6.64954968e-12 6.64880962e-12 7.40061731e-16 0.00000000e+00 0.00000000e+00 6.64880962e-12
5.24807460e-03 7.84907986e-12 7.84772720e-12 1.35265882e-15 0.00000000e+00 0.00000000e+00 7.84772720e-12
6.02559586e-03 9.26537307e-12 9.26283435e-12 2.53871733e-15 0.00000000e+00 0.00000000e+00 9.26283435e-12
6.91830971e-03 1.09370847e-11 1.09331145e-11 3.97012404e-15 0.00000000e+00 0.00000000e+00 1.09331145e-11
7.94328235e-03 1.29112837e-11 1.29045807e-11 6.70304210e-15 5.28896641e-304 8.39227016e-307 1.29045807e-11
9.12010839e-03 1.52433518e-11 1.52315429e-11 1.18088841e-14 2.26098112e-265 4.39839669e-268 1.52315429e-11
1.04712855e-02 1.70263558e-11 1.70115517e-11 1.48041045e-14 9.34900220e-232 2.23850144e-234 1.70115517e-11
1.20226443e-02 1.70344919e-11 1.70115517e-11 2.29401918e-14 1.44096931e-202 8.80089447e-205 1.70115517e-11
1.38038426e-02 1.70457827e-11 1.70115517e-11 3.42309732e-14 3.86824615e-177 3.38428634e-179 1.70115517e-11
1.58489319e-02 1.70688191e-11 1.70115517e-11 5.72674142e-14 5.19215261e-155 8.48034736e-157 1.70115517e-11
1.81970086e-02 1.70744605e-11 1.70115517e-11 6.29088136e-14 9.08530855e-136 9.80115443e-138 1.70115517e-11
2.08929613e-02 1.71060678e-11 1.70115517e-11 9.45160365e-14 4.70806639e-119 7.17844430e-121 1.70115517e-11
2.39883292e-02 1.71307806e-11 1.70115517e-11 1.19228928e-13 1.64362569e-104 3.53204774e-106 1.70115517e-11
2.75422870e-02 1.71691845e-11 1.70115517e-11 1.57632750e-13 7.31966748e-92 1.95754048e-93 1.70115517e-11
3.16227766e-02 1.72093477e-11 1.70115517e-11 1.97795952e-13 7.11495464e-81 2.35548449e-82 1.70115517e-11
3.63078055e-02 1.72358826e-11 1.70115517e-11 2.24330903e-13 2.45828118e-71 9.23389719e-73 1.70115517e-11
4.16869383e-02 1.73245921e-11 1.70115517e-11 3.13040399e-13 4.69145086e-63 2.38570611e-64 1.70115517e-11
4.78630092e-02 1.74116708e-11 1.70115517e-11 4.00119038e-13 7.12879650e-56 4.72246389e-57 1.70115517e-11
5.49540874e-02 1.74840668e-11 1.70115517e-11 4.72515071e-13 1.18770925e-49 9.17822617e-51 1.70115517e-11
6.30957344e-02 1.75299558e-11 1.70115517e-11 5.18404089e-13 3.84752682e-44 3.36699592e-45 1.70115517e-11
7.24435960e-02 1.74695880e-11 1.70115517e-11 4.58036252e-13 2.22222134e-39 1.89957867e-40 1.70115517e-11
8.31763771e-02 1.74720105e-11 1.70115517e-11 4.60458793e-13 2.26328583e-35 1.87780708e-36 1.70115517e-11
9.54992586e-02 1.74892185e-11 1.70115517e-11 4.77666756e-13 6.36835142e-32 5.47894948e-33 1.70115517e-11
1.09647820e-01 1.67508063e-11 1.62459122e-11 5.04894144e-13 5.40594340e-29 5.03041649e-30 1.62459122e-11
1.25892541e-01 1.56469694e-11 1.51615674e-11 4.85402031e-13 1.74262366e-26 1.57706388e-27 1.51615674e-11
1.44543977e-01 1.46035497e-11 1.41495980e-11 4.53951733e-13 2.36283515e-24 2.07672876e-25 1.41495980e-11
1.65958691e-01 1.36723768e-11 1.32051732e-11 4.67203657e-13 1.19675971e-22 1.13671087e-23 1.32051732e-11
1.90546072e-01 1.28273881e-11 1.23237846e-11 5.03603490e-13 2.53429467e-21 2.80482381e-22 1.23237846e-11
2.18776162e-01 1.19734956e-11 1.15012250e-11 4.72270552e-13 3.00171078e-20 3.43240244e-21 1.15012250e-11
2.51188643e-01 1.12826153e-11 1.07335677e-11 5.49047262e-13 3.65638532e-19 4.92180306e-20 1.07335677e-11
2.88403150e-01 1.05273853e-11 1.00171482e-11 5.10234019e-13 3.03362094e-18 4.01220976e-19 1.00171482e-11
3.31131121e-01 9.82308206e-12 9.34854667e-12 4.74518034e-13 1.73564353e-17 2.24888565e-18 9.34854667e-12
3.80189396e-01 9.14875664e-12 8.72457139e-12 4.24112869e-13 7.23800993e-17 9.20769359e-18 8.72457139e-12
4.36515832e-01 8.53178610e-12 8.14224377e-12 3.89308827e-13 2.33500041e-16 3.02970805e-17 8.14224377e-12
5.01187234e-01 7.95687965e-12 7.59878402e-12 3.57456610e-13 6.39025990e-16 9.14958419e-17 7.59878402e-12
5.75439937e-01 7.41317980e-12 7.09159786e-12 3.19838597e-13 1.74333997e-15 3.13733848e-16 7.09159786e-12
6.60693448e-01 6.91306004e-12 6.61826421e-12 2.89492122e-13 5.30371098e-15 1.19779482e-15 6.61826421e-12
7.58577575e-01 6.44873047e-12 6.17652353e-12 2.54817164e-13 1.73897750e-14 4.29153562e-15 6.17652353e-12
8.70963590e-01 6.03953628e-12 5.76426715e-12 2.21831801e-13 5.34373240e-14 1.33084959e-14 5.76426715e-12
1.00000000e+00 5.70753523e-12 5.37952711e-12 1.83605270e-13 1.44402844e-13 3.37133279e-14 5.37952711e-12
1.14815362e+00 5.51072900e-12 5.02046681e-12 1.46858073e-13 3.43404109e-13 7.26624438e-14 5.02046681e-12
1.31825674e+00 5.52794839e-12 4.68537225e-12 1.13747339e-13 7.28828801e-13 1.34752064e-13 4.68537225e-12
1.51356125e+00 5.83891611e-12 4.37264380e-12 8.75665684e-14 1.37870574e-12 2.19074960e-13 4.37264380e-12
1.73780083e+00 6.46065791e-12 4.08078863e-12 6.58982867e-14 2.31397099e-12 3.06252309e-13 4.08078863e-12
1.99526231e+00 7.35392949e-12 3.80841354e-12 4.86535524e-14 3.49686240e-12 3.74564749e-13 3.80841354e-12
2.29086765e+00 8.37675430e-12 3.55421832e-12 3.57850961e-14 4.78675089e-12 4.05757476e-13 3.55421832e-12
2.63026799e+00 9.42863427e-12 3.31698953e-12 2.54450170e-14 6.08619973e-12 3.97088492e-13 3.31698953e-12
3.01995172e+00 1.03068456e-11 3.09559474e-12 1.82065484e-14 7.19304434e-12 3.61184752e-13 3.09559474e-12
3.46736850e+00 1.09775527e-11 2.88897711e-12 1.29643749e-14 8.07561126e-12 3.04179019e-13 2.88897711e-12
3.98107171e+00 1.14006433e-11 2.69615031e-12 9.07945745e-15 8.69541357e-12 2.46891252e-13 2.69615031e-12
4.57088190e+00 1.15877110e-11 2.51619387e-12 6.20328371e-15 9.06531383e-12 1.88473566e-13 2.51619387e-12
5.24807460e+00 1.13437889e-11 2.08050667e-12 3.67564621e-15 9.25960655e-12 1.35231679e-13 2.08050667e-12
6.02559586e+00 1.07066574e-11 1.37457712e-12 1.66884671e-15 9.33041142e-12 9.32148814e-14 1.37457712e-12
6.70000000e+00 1.02822745e-11 9.99872685e-13 8.68111196e-16 9.28153372e-12 6.65660381e-14 9.99872685e-13
6.92422916e+00 1.01236119e-11 9.05846924e-13 7.07789265e-16 9.21705715e-12 5.94040046e-14 9.05846924e-13
7.15596261e+00 1.00886618e-11 8.20663132e-13 5.57941324e-16 9.26744071e-12 5.24249850e-14 8.20663132e-13
7.39545150e+00 1.00906236e-11 7.43489831e-13 4.27265123e-16 9.34670649e-12 4.47902052e-14 7.43489831e-13
7.64295536e+00 1.03289814e-11 6.73573732e-13 2.89930227e-16 9.65511773e-12 3.61876636e-14 6.73573732e-13
7.89874245e+00 1.08961884e-11 6.10232385e-13 1.71644996e-16 1.02857844e-11 2.69764141e-14 6.10232385e-13
8.16308998e+00 1.17465780e-11 5.52847515e-13 9.45813000e-17 1.11936360e-11 1.95078149e-14 5.52847515e-13
8.43628443e+00 1.29228667e-11 5.00858987e-13 5.07273868e-17 1.24219569e-11 1.38613604e-14 5.00858987e-13
8.71862190e+00 1.37419896e-11 4.53759343e-13 3.17050661e-17 1.32881985e-11 1.06731691e-14 4.53759343e-13
9.01040836e+00 1.44359154e-11 4.11088843e-13 2.01883839e-17 1.40248063e-11 8.17783880e-15 4.11088843e-13
9.31196005e+00 1.50650164e-11 3.72430980e-13 0.00000000e+00 1.46925854e-11 0.00000000e+00 3.72430980e-13
9.62360379e+00 1.49562226e-11 3.37408415e-13 0.00000000e+00 1.46188141e-11 0.00000000e+00 3.37408415e-13
9.94567731e+00 1.43790083e-11 3.05679292e-13 0.00000000e+00 1.40733290e-11 0.00000000e+00 3.05679292e-13
1.02785297e+01 1.38335844e-11 2.76933904e-13 0.00000000e+00 1.35566505e-11 0.00000000e+00 2.76933904e-13
1.06225216e+01 1.31573289e-11 2.50891667e-13 0.00000000e+00 1.29064373e-11 0.00000000e+00 2.50891667e-13
1.09780260e+01 1.25475697e-11 2.27298384e-13 0.00000000e+00 1.23202713e-11 0.00000000e+00 2.27298384e-13
1.13454280e+01 1.18930933e-11 2.05923759e-13 0.00000000e+00 1.16871695e-11 0.00000000e+00 2.05923759e-13
1.17251259e+01 1.14374927e-11 1.86559155e-13 0.00000000e+00 1.12509335e-11 0.00000000e+00 1.86559155e-13
1.21175312e+01 1.10742852e-11 1.69015555e-13 0.00000000e+00 1.09052697e-11 0.00000000e+00 1.69015555e-13
1.25230691e+01 1.06419475e-11 1.53121715e-13 0.00000000e+00 1.04888258e-11 0.00000000e+00 1.53121715e-13
1.29421791e+01 1.03014646e-11 1.38722496e-13 0.00000000e+00 1.01627421e-11 0.00000000e+00 1.38722496e-13
1.33753155e+01 9.92370386e-12 1.25677347e-13 0.00000000e+00 9.79802651e-12 0.00000000e+00 1.25677347e-13
1.38229477e+01 9.72640115e-12 1.13858934e-13 0.00000000e+00 9.61254222e-12 0.00000000e+00 1.13858934e-13
1.42855609e+01 9.61294260e-12 1.03151898e-13 0.00000000e+00 9.50979070e-12 0.00000000e+00 1.03151898e-13
1.47636563e+01 9.63226480e-12 9.34517274e-14 0.00000000e+00 9.53881307e-12 0.00000000e+00 9.34517274e-14
1.52577522e+01 9.69091524e-12 8.46637387e-14 0.00000000e+00 9.60625150e-12 0.00000000e+00 8.46637387e-14
1.57683840e+01 9.77359553e-12 7.67021526e-14 0.00000000e+00 9.69689337e-12 0.00000000e+00 7.67021526e-14
1.62961051e+01 9.81159120e-12 6.94892560e-14 0.00000000e+00 9.74210194e-12 0.00000000e+00 6.94892560e-14
1.68414875e+01 9.82260249e-12 6.29546439e-14 0.00000000e+00 9.75964785e-12 0.00000000e+00 6.29546439e-14
1.74051222e+01 9.80811104e-12 5.70345319e-14 0.00000000e+00 9.75107651e-12 0.00000000e+00 5.70345319e-14
1.79876201e+01 9.73004693e-12 5.16711337e-14 0.00000000e+00 9.67837580e-12 0.00000000e+00 5.16711337e-14
1.85896125e+01 9.46546463e-12 4.68120974e-14 0.00000000e+00 9.41865253e-12 0.00000000e+00 4.68120974e-14
1.92117518e+01 9.33226071e-12 4.24099939e-14 0.00000000e+00 9.28985072e-12 0.00000000e+00 4.24099939e-14
1.98547123e+01 9.08914030e-12 3.84218542e-14 0.00000000e+00 9.05071845e-12 0.00000000e+00 3.84218542e-14
2.05191907e+01 8.77038529e-12 3.48087501e-14 0.00000000e+00 8.73557654e-12 0.00000000e+00 3.48087501e-14
2.12059073e+01 8.46124881e-12 3.15354141e-14 0.00000000e+00 8.42971339e-12 0.00000000e+00 3.15354141e-14
2.19156062e+01 8.22938516e-12 2.85698952e-14 0.00000000e+00 8.20081526e-12 0.00000000e+00 2.85698952e-14
2.26490567e+01 7.84188179e-12 2.58832470e-14 0.00000000e+00 7.81599854e-12 0.00000000e+00 2.58832470e-14
2.34070535e+01 7.58678775e-12 2.34492452e-14 0.00000000e+00 7.56333850e-12 0.00000000e+00 2.34492452e-14
2.41904183e+01 7.25822385e-12 2.12441313e-14 0.00000000e+00 7.23697972e-12 0.00000000e+00 2.12441313e-14
2.50000000e+01 7.00478230e-12 1.92463813e-14 0.00000000e+00 6.98553592e-12 0.00000000e+00 1.92463813e-14
2.75422870e+01 6.04254958e-12 1.43935895e-14 0.00000000e+00 6.02815599e-12 0.00000000e+00 1.43935895e-14
3.16227766e+01 4.74301283e-12 9.50975027e-15 0.00000000e+00 4.73350308e-12 0.00000000e+00 9.50975027e-15
3.63078055e+01 3.55040345e-12 6.28302969e-15 0.00000000e+00 3.54412042e-12 0.00000000e+00 6.28302969e-15
4.16869383e+01 2.49114193e-12 4.15115655e-15 0.00000000e+00 2.48699077e-12 0.00000000e+00 4.15115655e-15
4.78630092e+01 1.64782353e-12 2.74264194e-15 0.00000000e+00 1.64508089e-12 0.00000000e+00 2.74264194e-15
5.49540874e+01 1.03330050e-12 1.81204556e-15 0.00000000e+00 1.03148845e-12 0.00000000e+00 1.81204556e-15
6.30957344e+01 6.18339291e-13 1.19720663e-15 0.00000000e+00 6.17142084e-13 0.00000000e+00 1.19720663e-15
7.24435960e+01 3.56731449e-13 7.90986575e-16 0.00000000e+00 3.55940463e-13 0.00000000e+00 7.90986575e-16
8.31763771e+01 2.00261116e-13 5.22599647e-16 0.00000000e+00 1.99738517e-13 0.00000000e+00 5.22599647e-16
9.54992586e+01 1.10105590e-13 3.45278163e-16 0.00000000e+00 1.09760312e-13 0.00000000e+00 3.45278163e-16
1.09647820e+02 5.96574670e-14 2.28123020e-16 0.00000000e+00 5.94293440e-14 0.00000000e+00 2.28123020e-16
1.25892541e+02 3.23180579e-14 1.50719385e-16 0.00000000e+00 3.21673385e-14 0.00000000e+00 1.50719385e-16
1.44543977e+02 1.74498560e-14 9.95793099e-17 0.00000000e+00 1.73502766e-14 0.00000000e+00 9.95793099e-17
1.65958691e+02 8.99423405e-15 6.57913976e-17 0.00000000e+00 8.92844266e-15 0.00000000e+00 6.57913976e-17
1.90546072e+02 4.64819752e-15 4.34679453e-17 0.00000000e+00 4.60472958e-15 0.00000000e+00 4.34679453e-17
2.18776162e+02 2.40227929e-15 2.87189867e-17 0.00000000e+00 2.37356030e-15 0.00000000e+00 2.87189867e-17
2.51188643e+02 1.23980228e-15 1.89744463e-17 0.00000000e+00 1.22082783e-15 0.00000000e+00 1.89744463e-17
2.88403150e+02 6.38460751e-16 1.25362924e-17 0.00000000e+00 6.25924459e-16 0.00000000e+00 1.25362924e-17
3.31131121e+02 3.28602825e-16 8.28264623e-18 0.00000000e+00 3.20320179e-16 0.00000000e+00 8.28264623e-18
3.80189396e+02 1.68949784e-16 5.47229010e-18 0.00000000e+00 1.63477493e-16 0.00000000e+00 5.47229010e-18
4.36515832e+02 8.69134114e-17 3.61550621e-18 0.00000000e+00 8.32979052e-17 0.00000000e+00 3.61550621e-18
5.01187234e+02 4.47525199e-17 2.38874127e-18 0.00000000e+00 4.23637787e-17 0.00000000e+00 2.38874127e-18
5.75439937e+02 2.30910204e-17 1.57822570e-18 0.00000000e+00 2.15127947e-17 0.00000000e+00 1.57822570e-18
6.60693448e+02 1.19529033e-17 1.04272338e-18 0.00000000e+00 1.09101799e-17 0.00000000e+00 1.04272338e-18
7.58577575e+02 6.21573927e-18 6.88920507e-19 0.00000000e+00 5.52681876e-18 0.00000000e+00 6.88920507e-19
8.70963590e+02 3.25148196e-18 4.55165265e-19 0.00000000e+00 2.79631669e-18 0.00000000e+00 4.55165265e-19
1.00000000e+03 1.41314341e-18 0.00000000e+00 0.00000000e+00 1.41314341e-18 0.00000000e+00 0.00000000e+00
