# column 1: lambda (micron)
# column 2: total flux; lambda*F_lambda (W/m2)
# column 3: direct stellar flux; lambda*F_lambda (W/m2)
# column 4: scattered stellar flux; lambda*F_lambda (W/m2)
# column 5: total dust emission flux; lambda*F_lambda (W/m2)
# column 6: dust emission scattered flux; lambda*F_lambda (W/m2)
# column 7: transparent flux; lambda*F_lambda (W/m2)
1.00000000e-03 6.93962544e-13 6.93959272e-13 3.27200721e-18 0.00000000e+00 0.00000000e+00 6.93993746e-13
1.14815362e-03 8.19086542e-13 8.19081381e-13 5.16085326e-18 0.00000000e+00 0.00000000e+00 8.19135139e-13
1.31825674e-03 9.66769239e-13 9.66761436e-13 7.80325597e-18 0.00000000e+00 0.00000000e+00 9.66842108e-13
1.51356125e-03 1.14108398e-12 1.14107143e-12 1.25475387e-17 0.00000000e+00 0.00000000e+00 1.14118369e-12
1.73780083e-03 1.34684989e-12 1.34682879e-12 2.11027745e-17 0.00000000e+00 0.00000000e+00 1.34696266e-12
1.99526231e-03 1.58967955e-12 1.58963833e-12 4.12204305e-17 0.00000000e+00 0.00000000e+00 1.58984782e-12
2.29086765e-03 1.87633333e-12 1.87626798e-12 6.53481388e-17 0.00000000e+00 0.00000000e+00 1.87653019e-12
2.63026799e-03 2.21466456e-12 2.21453644e-12 1.28122860e-16 0.00000000e+00 0.00000000e+00 2.21490731e-12
3.01995172e-03 2.61397560e-12 2.61375941e-12 2.16181859e-16 0.00000000e+00 0.00000000e+00 2.61430080e-12
3.46736850e-03 3.08533738e-12 3.08496001e-12 3.77362407e-16 0.00000000e+00 0.00000000e+00 3.08571319e-12
3.98107171e-03 3.64172273e-12 3.64111338e-12 6.09350047e-16 0.00000000e+00 0.00000000e+00 3.64213095e-12
4.57088190e-03 4.29932197e-12 4.29808112e-12 1.24085468e-15 0.00000000e+00 0.00000000e+00 4.29888232e-12
5.24807460e-03 5.07518588e-12 5.07285169e-12 2.33418620e-15 0.00000000e+00 0.00000000e+00 5.07405951e-12
6.02559586e-03 5.99177991e-12 5.98729826e-12 4.48164994e-15 0.00000000e+00 0.00000000e+00 5.98901715e-12
6.91830971e-03 7.07368307e-12 7.06661903e-12 7.06403936e-15 0.00000000e+00 0.00000000e+00 7.06896053e-12
7.94328235e-03 8.35180083e-12 8.34055666e-12 1.12441698e-14 3.77319587e-304 4.67095096e-306 8.34363998e-12
9.12010839e-03 9.86488856e-12 9.84413200e-12 2.07565594e-14 1.58460972e-265 1.97546088e-267 9.84817045e-12
1.04712855e-02 1.10230815e-11 1.09942621e-11 2.88194422e-14 6.59820908e-232 2.22989716e-233 1.09990604e-11
1.20226443e-02 1.10379239e-11 1.09939790e-11 4.39449436e-14 9.83814405e-203 1.73629753e-204 1.09990604e-11
1.38038426e-02 1.10509729e-11 1.09936431e-11 5.73297419e-14 2.61595938e-177 5.81839205e-179 1.09990604e-11
1.58489319e-02 1.10777046e-11 1.09932305e-11 8.44741506e-14 3.47543515e-155 1.04606217e-156 1.09990604e-11
1.81970086e-02 1.11153515e-11 1.09928499e-11 1.22501584e-13 6.13188284e-136 2.52573288e-137 1.09990604e-11
2.08929613e-02 1.11684457e-11 1.09925335e-11 1.75912212e-13 3.15865207e-119 1.50897555e-120 1.09990604e-11
2.39883292e-02 1.12163549e-11 1.09921237e-11 2.24231254e-13 1.09359030e-104 5.78071953e-106 1.09990604e-11
2.75422870e-02 1.12695946e-11 1.09916469e-11 2.77947694e-13 4.86149329e-92 3.05723247e-93 1.09990604e-11
3.16227766e-02 1.13066973e-11 1.09911797e-11 3.15517613e-13 4.68630005e-81 3.17722871e-82 1.09990604e-11
3.63078055e-02 1.13277136e-11 1.09908132e-11 3.36900440e-13 1.60692998e-71 1.12544879e-72 1.09990604e-11
4.16869383e-02 1.14079396e-11 1.09904962e-11 4.17443446e-13 3.05209522e-63 2.52041066e-64 1.09990604e-11
4.78630092e-02 1.14445651e-11 1.09896225e-11 4.54942615e-13 4.57115889e-56 4.12738655e-57 1.09990604e-11
5.49540874e-02 1.14485786e-11 1.09884075e-11 4.60171102e-13 7.50234470e-50 7.08266082e-51 1.09990604e-11
6.30957344e-02 1.14488990e-11 1.09853617e-11 4.63537293e-13 2.38185962e-44 2.31679949e-45 1.09990604e-11
7.24435960e-02 1.13788050e-11 1.09817549e-11 3.97050136e-13 1.34335185e-39 1.15620076e-40 1.09990604e-11
8.31763771e-02 1.13677288e-11 1.09820758e-11 3.85652975e-13 1.36754985e-35 1.15125367e-36 1.09990604e-11
9.54992586e-02 1.13771007e-11 1.09830170e-11 3.94083640e-13 3.84856507e-32 3.35239873e-33 1.09990604e-11
1.09647820e-01 1.09112658e-11 1.04912955e-11 4.19970286e-13 3.29359173e-29 3.11799277e-30 1.05040253e-11
1.25892541e-01 1.01962183e-11 9.79314659e-12 4.03071714e-13 1.07486770e-26 1.02017918e-27 9.80292679e-12
1.44543977e-01 9.51334776e-12 9.14105766e-12 3.72290102e-13 1.46793065e-24 1.36372306e-25 9.14862359e-12
1.65958691e-01 8.90170392e-12 8.53181685e-12 3.69887071e-13 7.46845206e-23 7.52363035e-24 8.53799231e-12
1.90546072e-01 8.33819369e-12 7.96196965e-12 3.76224047e-13 1.56982103e-21 1.76133908e-22 7.96811805e-12
2.18776162e-01 7.77105759e-12 7.42955002e-12 3.41507560e-13 1.84084302e-20 2.07243071e-21 7.43628044e-12
2.51188643e-01 7.31098151e-12 6.93491692e-12 3.76064366e-13 2.25378006e-19 2.95444399e-20 6.93994070e-12
2.88403150e-01 6.81064617e-12 6.47283672e-12 3.37807570e-13 1.88230050e-18 2.43886628e-19 6.47672950e-12
3.31131121e-01 6.35835509e-12 6.04126861e-12 3.17075669e-13 1.08029180e-17 1.36259592e-18 6.04443567e-12
3.80189396e-01 5.92447734e-12 5.63839997e-12 2.86031994e-13 4.53707455e-17 5.64417601e-18 5.64099558e-12
4.36515832e-01 5.51997738e-12 5.26237511e-12 2.57453028e-13 1.49246964e-16 1.94769811e-17 5.26448339e-12
5.01187234e-01 5.14414248e-12 4.91141248e-12 2.32301792e-13 4.28205742e-16 6.66725835e-17 4.91310176e-12
5.75439937e-01 4.79332310e-12 4.58383376e-12 2.08237193e-13 1.25214896e-15 2.58704266e-16 4.58517335e-12
6.60693448e-01 4.46633756e-12 4.27807964e-12 1.84211803e-13 4.04611986e-15 1.04023931e-15 4.27913275e-12
7.58577575e-01 4.16824628e-12 3.99270121e-12 1.62492300e-13 1.30527633e-14 3.67418602e-15 3.99351904e-12
8.70963590e-01 3.90788107e-12 3.72634778e-12 1.42984657e-13 3.85486388e-14 1.08063286e-14 3.72696882e-12
1.00000000e+00 3.69785120e-12 3.47774569e-12 1.21568551e-13 9.85369665e-14 2.59473878e-14 3.47820968e-12
1.14815362e+00 3.56977459e-12 3.24571364e-12 1.00463390e-13 2.23597559e-13 5.31213622e-14 3.24605414e-12
1.31825674e+00 3.56152538e-12 3.02914846e-12 8.01276813e-14 4.52249239e-13 9.30075105e-14 3.02939399e-12
1.51356125e+00 3.71619398e-12 2.82701970e-12 6.42033908e-14 8.24970882e-13 1.43639657e-13 2.82719497e-12
1.73780083e+00 4.03406237e-12 2.63836879e-12 4.99160024e-14 1.34577758e-12 1.92278393e-13 2.63849186e-12
1.99526231e+00 4.46835168e-12 2.46229881e-12 3.67795602e-14 1.96927331e-12 2.21601786e-13 2.46238388e-12
2.29086765e+00 4.96515616e-12 2.29797173e-12 2.68665637e-14 2.64031787e-12 2.25829949e-13 2.29803035e-12
2.63026799e+00 5.43677266e-12 2.14460594e-12 1.94044061e-14 3.27276232e-12 2.06910547e-13 2.14464670e-12
3.01995172e+00 5.81182002e-12 2.00147204e-12 1.35311508e-14 3.79681682e-12 1.75119351e-13 2.00150076e-12
3.46736850e+00 6.05314214e-12 1.86788863e-12 9.42641404e-15 4.17582709e-12 1.39000068e-13 1.86790919e-12
3.98107171e+00 6.11796407e-12 1.74321938e-12 6.31495523e-15 4.36842974e-12 1.04260041e-13 1.74323429e-12
4.57088190e+00 6.06932229e-12 1.62686994e-12 4.16938958e-15 4.43828296e-12 7.37126372e-14 1.62688090e-12
5.24807460e+00 5.75698146e-12 1.34517387e-12 2.33464592e-15 4.40947294e-12 4.97474168e-14 1.34518114e-12
6.02559586e+00 5.19386545e-12 8.88748372e-13 1.01519466e-15 4.30410188e-12 3.15882761e-14 8.88752369e-13
6.70000000e+00 4.83988491e-12 6.46479317e-13 5.08996949e-16 4.19289659e-12 2.15429739e-14 6.46481889e-13
6.92422916e+00 4.72681401e-12 5.85685949e-13 4.12540738e-16 4.14071553e-12 1.89730424e-14 5.85688198e-13
7.15596261e+00 4.66472074e-12 5.30609405e-13 3.24926121e-16 4.13378641e-12 1.65436670e-14 5.30611407e-13
7.39545150e+00 4.64135869e-12 4.80712056e-13 2.43816623e-16 4.16040281e-12 1.41897547e-14 4.80713913e-13
7.64295536e+00 4.80669035e-12 4.35506749e-13 1.72978136e-16 4.37101063e-12 1.17729521e-14 4.35508666e-13
7.89874245e+00 5.23792573e-12 3.94552174e-13 1.09105823e-16 4.84326445e-12 9.27243761e-15 3.94554418e-13
8.16308998e+00 5.85052978e-12 3.57448670e-13 6.39973872e-17 5.49301712e-12 7.31916304e-15 3.57451415e-13
8.43628443e+00 6.66174697e-12 3.23834039e-13 3.49224698e-17 6.33787801e-12 5.43900730e-15 3.23837494e-13
8.71862190e+00 7.24825677e-12 2.93380704e-13 2.19071269e-17 6.95485415e-12 4.26927033e-15 2.93384550e-13
9.01040836e+00 7.82473096e-12 2.65791111e-13 1.28966954e-17 7.55892695e-12 3.16791820e-15 2.65795332e-13
9.31196005e+00 8.29556168e-12 2.40796106e-13 0.00000000e+00 8.05476558e-12 0.00000000e+00 2.40800541e-13
9.62360379e+00 8.23732702e-12 2.18152080e-13 0.00000000e+00 8.01917494e-12 0.00000000e+00 2.18156204e-13
9.94567731e+00 7.87663349e-12 1.97637783e-13 0.00000000e+00 7.67899570e-12 0.00000000e+00 1.97641289e-13
1.02785297e+01 7.40560999e-12 1.79052677e-13 0.00000000e+00 7.22655731e-12 0.00000000e+00 1.79055550e-13
1.06225216e+01 6.97091051e-12 1.62215242e-13 0.00000000e+00 6.80869527e-12 0.00000000e+00 1.62217572e-13
1.09780260e+01 6.49722170e-12 1.46961178e-13 0.00000000e+00 6.35026052e-12 0.00000000e+00 1.46962999e-13
1.13454280e+01 6.06417485e-12 1.33141503e-13 0.00000000e+00 5.93103335e-12 0.00000000e+00 1.33142932e-13
1.17251259e+01 5.67748786e-12 1.20621344e-13 0.00000000e+00 5.55686651e-12 0.00000000e+00 1.20622472e-13
1.21175312e+01 5.37114822e-12 1.09278522e-13 0.00000000e+00 5.26186969e-12 0.00000000e+00 1.09279408e-13
1.25230691e+01 5.06197418e-12 9.90023258e-14 0.00000000e+00 4.96297186e-12 0.00000000e+00 9.90030204e-14
1.29421791e+01 4.81020939e-12 8.96924527e-14 0.00000000e+00 4.72051694e-12 0.00000000e+00 8.96930008e-14
1.33753155e+01 4.60320050e-12 8.12580387e-14 0.00000000e+00 4.52194246e-12 0.00000000e+00 8.12584743e-14
1.38229477e+01 4.47369841e-12 7.36167494e-14 0.00000000e+00 4.40008166e-12 0.00000000e+00 7.36171115e-14
1.42855609e+01 4.42478328e-12 6.66940105e-14 0.00000000e+00 4.35808927e-12 0.00000000e+00 6.66943252e-14
1.47636563e+01 4.50602743e-12 6.04222433e-14 0.00000000e+00 4.44560518e-12 0.00000000e+00 6.04225420e-14
1.52577522e+01 4.63820018e-12 5.47402545e-14 0.00000000e+00 4.58345993e-12 0.00000000e+00 5.47405431e-14
1.57683840e+01 4.80884927e-12 4.95925841e-14 0.00000000e+00 4.75925669e-12 0.00000000e+00 4.95928665e-14
1.62961051e+01 4.95243931e-12 4.49289897e-14 0.00000000e+00 4.90751032e-12 0.00000000e+00 4.49292657e-14
1.68414875e+01 5.11448881e-12 4.07039502e-14 0.00000000e+00 5.07378486e-12 0.00000000e+00 4.07042194e-14
1.74051222e+01 5.27336024e-12 3.68762312e-14 0.00000000e+00 5.23648401e-12 0.00000000e+00 3.68764869e-14
1.79876201e+01 5.32887806e-12 3.34084669e-14 0.00000000e+00 5.29546960e-12 0.00000000e+00 3.34087056e-14
1.85896125e+01 5.34333059e-12 3.02668107e-14 0.00000000e+00 5.31306378e-12 0.00000000e+00 3.02670267e-14
1.92117518e+01 5.33470171e-12 2.74205944e-14 0.00000000e+00 5.30728112e-12 0.00000000e+00 2.74207841e-14
1.98547123e+01 5.26176903e-12 2.48420323e-14 0.00000000e+00 5.23692700e-12 0.00000000e+00 2.48421957e-14
2.05191907e+01 5.16384239e-12 2.25059526e-14 0.00000000e+00 5.14133644e-12 0.00000000e+00 2.25060919e-14
2.12059073e+01 5.06742882e-12 2.03895513e-14 0.00000000e+00 5.04703927e-12 0.00000000e+00 2.03896700e-14
2.19156062e+01 4.97057443e-12 1.84721700e-14 0.00000000e+00 4.95210226e-12 0.00000000e+00 1.84722717e-14
2.26490567e+01 4.86545789e-12 1.67350939e-14 0.00000000e+00 4.84872280e-12 0.00000000e+00 1.67351811e-14
2.34070535e+01 4.76432654e-12 1.51613676e-14 0.00000000e+00 4.74916518e-12 0.00000000e+00 1.51614426e-14
2.41904183e+01 4.65410545e-12 1.37356303e-14 0.00000000e+00 4.64036982e-12 0.00000000e+00 1.37356949e-14
2.50000000e+01 4.53254976e-12 1.24439655e-14 0.00000000e+00 4.52010579e-12 0.00000000e+00 1.24440213e-14
2.75422870e+01 4.14688716e-12 9.30634338e-15 0.00000000e+00 4.13758082e-12 0.00000000e+00 9.30637977e-15
3.16227766e+01 3.48829611e-12 6.14864415e-15 0.00000000e+00 3.48214747e-12 0.00000000e+00 6.14866414e-15
3.63078055e+01 2.74419619e-12 4.06237118e-15 0.00000000e+00 2.74013382e-12 0.00000000e+00 4.06238211e-15
4.16869383e+01 2.01408312e-12 2.68398343e-15 0.00000000e+00 2.01139914e-12 0.00000000e+00 2.68398924e-15
4.78630092e+01 1.37490521e-12 1.77329111e-15 0.00000000e+00 1.37313192e-12 0.00000000e+00 1.77329411e-15
5.49540874e+01 8.83317748e-13 1.17160229e-15 0.00000000e+00 8.82146146e-13 0.00000000e+00 1.17160380e-15
6.30957344e+01 5.39770085e-13 7.74070200e-16 0.00000000e+00 5.38996015e-13 0.00000000e+00 7.74070953e-16
7.24435960e+01 3.17658732e-13 5.11423235e-16 0.00000000e+00 3.17147309e-13 0.00000000e+00 5.11423607e-16
8.31763771e+01 1.81271693e-13 3.37894042e-16 0.00000000e+00 1.80933799e-13 0.00000000e+00 3.37894226e-16
9.54992586e+01 1.01388661e-13 2.23244410e-16 0.00000000e+00 1.01165417e-13 0.00000000e+00 2.23244502e-16
1.09647820e+02 5.58194043e-14 1.47496134e-16 0.00000000e+00 5.56719082e-14 0.00000000e+00 1.47496179e-16
1.25892541e+02 3.07253383e-14 9.74497366e-17 0.00000000e+00 3.06278885e-14 0.00000000e+00 9.74497594e-17
1.44543977e+02 1.68150076e-14 6.43844060e-17 0.00000000e+00 1.67506232e-14 0.00000000e+00 6.43844175e-17
1.65958691e+02 8.77344289e-15 4.25383571e-17 0.00000000e+00 8.73090453e-15 0.00000000e+00 4.25383628e-17
1.90546072e+02 4.58315760e-15 2.81048148e-17 0.00000000e+00 4.55505279e-15 0.00000000e+00 2.81048176e-17
2.18776162e+02 2.39158906e-15 1.85686674e-17 0.00000000e+00 2.37302039e-15 0.00000000e+00 1.85686688e-17
2.51188643e+02 1.24453652e-15 1.22681971e-17 0.00000000e+00 1.23226832e-15 0.00000000e+00 1.22681978e-17
2.88403150e+02 6.45126922e-16 8.10551759e-18 0.00000000e+00 6.37021404e-16 0.00000000e+00 8.10551794e-18
3.31131121e+02 3.33835950e-16 5.35526242e-18 0.00000000e+00 3.28480688e-16 0.00000000e+00 5.35526259e-18
3.80189396e+02 1.72292499e-16 3.53818682e-18 0.00000000e+00 1.68754312e-16 0.00000000e+00 3.53818691e-18
4.36515832e+02 8.88308907e-17 2.33765686e-18 0.00000000e+00 8.64932338e-17 0.00000000e+00 2.33765691e-18
5.01187234e+02 4.57594736e-17 1.54447458e-18 0.00000000e+00 4.42149990e-17 0.00000000e+00 1.54447460e-18
5.75439937e+02 2.35742978e-17 1.02042424e-18 0.00000000e+00 2.25538736e-17 0.00000000e+00 1.02042425e-18
6.60693448e+02 1.21577978e-17 6.74187611e-19 0.00000000e+00 1.14836102e-17 0.00000000e+00 6.74187617e-19
7.58577575e+02 6.28293263e-18 4.45431338e-19 0.00000000e+00 5.83750129e-18 0.00000000e+00 4.45431341e-19
8.70963590e+02 3.25680703e-18 2.94293567e-19 0.00000000e+00 2.96251346e-18 0.00000000e+00 2.94293569e-19
1.00000000e+03 1.50111319e-18 0.00000000e+00 0.00000000e+00 1.50111319e-18 0.00000000e+00 0.00000000e+00
