# column 1: lambda (micron)
# column 2: total flux; lambda*F_lambda (W/m2)
# column 3: direct stellar flux; lambda*F_lambda (W/m2)
# column 4: scattered stellar flux; lambda*F_lambda (W/m2)
# column 5: total dust emission flux; lambda*F_lambda (W/m2)
# column 6: dust emission scattered flux; lambda*F_lambda (W/m2)
# column 7: transparent flux; lambda*F_lambda (W/m2)
1.00000000e-03 3.57785598e-13 3.57785423e-13 1.74539123e-19 0.00000000e+00 0.00000000e+00 3.57785423e-13
1.14815362e-03 4.22301794e-13 4.22301518e-13 2.75856125e-19 0.00000000e+00 0.00000000e+00 4.22301518e-13
1.31825674e-03 4.98451603e-13 4.98451197e-13 4.06776807e-19 0.00000000e+00 0.00000000e+00 4.98451197e-13
1.51356125e-03 5.88332947e-13 5.88332233e-13 7.13286848e-19 0.00000000e+00 0.00000000e+00 5.88332233e-13
1.73780083e-03 6.94421872e-13 6.94420676e-13 1.19666369e-18 0.00000000e+00 0.00000000e+00 6.94420676e-13
1.99526231e-03 8.19641349e-13 8.19639053e-13 2.29614512e-18 0.00000000e+00 0.00000000e+00 8.19639053e-13
2.29086765e-03 9.67440802e-13 9.67436888e-13 3.91359869e-18 0.00000000e+00 0.00000000e+00 9.67436888e-13
2.63026799e-03 1.14189350e-12 1.14188572e-12 7.77549189e-18 0.00000000e+00 0.00000000e+00 1.14188572e-12
3.01995172e-03 1.34780306e-12 1.34779128e-12 1.17776303e-17 0.00000000e+00 0.00000000e+00 1.34779128e-12
3.46736850e-03 1.59084534e-12 1.59082586e-12 1.94764372e-17 0.00000000e+00 0.00000000e+00 1.59082586e-12
3.98107171e-03 1.87771744e-12 1.87768459e-12 3.28428398e-17 0.00000000e+00 0.00000000e+00 1.87768459e-12
4.57088190e-03 2.21633528e-12 2.21626987e-12 6.54055064e-17 0.00000000e+00 0.00000000e+00 2.21626987e-12
5.24807460e-03 2.61603473e-12 2.61590907e-12 1.25660652e-16 0.00000000e+00 0.00000000e+00 2.61590907e-12
6.02559586e-03 3.08781680e-12 3.08761145e-12 2.05348998e-16 0.00000000e+00 0.00000000e+00 3.08761145e-12
6.91830971e-03 3.64472698e-12 3.64437151e-12 3.55473160e-16 0.00000000e+00 0.00000000e+00 3.64437151e-12
7.94328235e-03 4.30223641e-12 4.30152690e-12 7.09513643e-16 4.77919942e-304 1.05382109e-306 4.30152690e-12
9.12010839e-03 5.08221391e-12 5.07718096e-12 5.03295139e-15 2.17551168e-265 3.74887415e-268 5.07718096e-12
1.04712855e-02 5.67201212e-12 5.67051724e-12 1.49488607e-15 9.50414691e-232 1.64336025e-234 5.67051724e-12
1.20226443e-02 5.67251340e-12 5.67051724e-12 1.99616536e-15 1.53329835e-202 4.37103860e-205 5.67051724e-12
1.38038426e-02 5.67321362e-12 5.67051724e-12 2.69637828e-15 4.28939945e-177 2.00356178e-179 5.67051724e-12
1.58489319e-02 5.67466404e-12 5.67051724e-12 4.14680180e-15 5.93514646e-155 3.63152620e-157 5.67051724e-12
1.81970086e-02 5.67615381e-12 5.67051724e-12 5.63657214e-15 1.08021587e-135 8.59155120e-138 5.67051724e-12
2.08929613e-02 5.67784449e-12 5.67051724e-12 7.32725271e-15 5.74562808e-119 6.13482441e-121 5.67051724e-12
2.39883292e-02 5.68095785e-12 5.67051724e-12 1.04406111e-14 2.05149847e-104 3.13231419e-106 5.67051724e-12
2.75422870e-02 5.68370074e-12 5.67051724e-12 1.31835012e-14 9.31581446e-92 1.76920948e-93 5.67051724e-12
3.16227766e-02 5.68842295e-12 5.67051724e-12 1.79057150e-14 9.20430631e-81 2.14913799e-82 5.67051724e-12
3.63078055e-02 5.68948864e-12 5.67051724e-12 1.89714001e-14 3.22742012e-71 8.60882025e-73 5.67051724e-12
4.16869383e-02 5.69729210e-12 5.67051724e-12 2.67748593e-14 6.21417869e-63 2.19058587e-64 5.67051724e-12
4.78630092e-02 5.69949122e-12 5.67051724e-12 2.89739787e-14 9.49513399e-56 4.22845712e-57 5.67051724e-12
5.49540874e-02 5.70631498e-12 5.67051724e-12 3.57977363e-14 1.59536446e-49 8.56868486e-51 5.67051724e-12
6.30957344e-02 5.70843202e-12 5.67051724e-12 3.79147781e-14 5.20271980e-44 3.20814408e-45 5.67051724e-12
7.24435960e-02 5.70455737e-12 5.67051724e-12 3.40401325e-14 3.02318983e-39 1.73721300e-40 5.67051724e-12
8.31763771e-02 5.70211983e-12 5.67051724e-12 3.16025958e-14 3.10702769e-35 1.76704901e-36 5.67051724e-12
9.54992586e-02 5.70268449e-12 5.67051724e-12 3.21672517e-14 8.78346390e-32 5.16117702e-33 5.67051724e-12
1.09647820e-01 5.44939821e-12 5.41530405e-12 3.40941628e-14 7.46956728e-29 4.70421824e-30 5.41530405e-12
1.25892541e-01 5.08779790e-12 5.05385580e-12 3.39421056e-14 2.42324854e-26 1.50559454e-27 5.05385580e-12
1.44543977e-01 4.74774577e-12 4.71653266e-12 3.12131096e-14 3.29689276e-24 1.94446604e-25 4.71653266e-12
1.65958691e-01 4.43455448e-12 4.40172439e-12 3.28300917e-14 1.67166086e-22 1.07181301e-23 4.40172439e-12
1.90546072e-01 4.13884989e-12 4.10792822e-12 3.09216681e-14 3.52702151e-21 2.61582555e-22 4.10792822e-12
2.18776162e-01 3.86401953e-12 3.83374167e-12 3.02778182e-14 4.19324372e-20 3.30860711e-21 3.83374167e-12
2.51188643e-01 3.61143039e-12 3.57785591e-12 3.35739770e-14 5.07072270e-19 4.63717485e-20 3.57785591e-12
2.88403150e-01 3.36841958e-12 3.33904941e-12 2.93659488e-14 4.22121488e-18 3.81333890e-19 3.33904941e-12
3.31131121e-01 3.14414219e-12 3.11618222e-12 2.79358079e-14 2.41622086e-17 2.09904767e-18 3.11618222e-12
3.80189396e-01 2.93231134e-12 2.90819046e-12 2.40205086e-14 1.00365793e-16 8.22756817e-18 2.90819046e-12
4.36515832e-01 2.73784977e-12 2.71408126e-12 2.34518264e-14 3.16686001e-16 2.49015316e-17 2.71408126e-12
5.01187234e-01 2.55266539e-12 2.53292801e-12 1.89482908e-14 7.89089193e-16 6.01782504e-17 2.53292801e-12
5.75439937e-01 2.38467028e-12 2.36386595e-12 1.91814861e-14 1.62283847e-15 1.20311690e-16 2.36386595e-12
6.60693448e-01 2.22458654e-12 2.20608807e-12 1.56361031e-14 2.86236415e-15 2.05082761e-16 2.20608807e-12
7.58577575e-01 2.07761005e-12 2.05884118e-12 1.42039446e-14 4.56492266e-15 3.13717551e-16 2.05884118e-12
8.70963590e-01 1.94029516e-12 1.92142238e-12 1.20068534e-14 6.86592711e-15 4.50133315e-16 1.92142238e-12
1.00000000e+00 1.81309039e-12 1.79317570e-12 9.76156124e-15 1.01531243e-14 6.32465778e-16 1.79317570e-12
1.14815362e+00 1.69757094e-12 1.67348894e-12 8.48711528e-15 1.55948907e-14 9.00044615e-16 1.67348894e-12
1.31825674e+00 1.59342778e-12 1.56179075e-12 6.45477948e-15 2.51822508e-14 1.30443026e-15 1.56179075e-12
1.51356125e+00 1.50415407e-12 1.45754793e-12 5.16147870e-15 4.14446632e-14 1.90991371e-15 1.45754793e-12
1.73780083e+00 1.43041283e-12 1.36026288e-12 4.14581193e-15 6.60041460e-14 2.66732362e-15 1.36026288e-12
1.99526231e+00 1.37074454e-12 1.26947118e-12 2.82367100e-15 9.84496850e-14 3.31016604e-15 1.26947118e-12
2.29086765e+00 1.32226343e-12 1.18473944e-12 2.08799453e-15 1.35435998e-13 3.69043479e-15 1.18473944e-12
2.63026799e+00 1.27918480e-12 1.10566318e-12 1.40862747e-15 1.72112999e-13 3.79300427e-15 1.10566318e-12
3.01995172e+00 1.23668163e-12 1.03186491e-12 1.00794079e-15 2.03808777e-13 3.50663504e-15 1.03186491e-12
3.46736850e+00 1.18963577e-12 9.62992369e-13 6.80304209e-16 2.25963099e-13 3.05163168e-15 9.62992369e-13
3.98107171e+00 1.13607170e-12 8.98716770e-13 4.49954518e-16 2.36904979e-13 2.42275790e-15 8.98716770e-13
4.57088190e+00 1.07477793e-12 8.38731291e-13 2.96001449e-16 2.35750635e-13 1.76341024e-15 8.38731291e-13
5.24807460e+00 9.19927211e-13 6.93502223e-13 1.71827744e-16 2.26253160e-13 1.19478606e-15 6.93502223e-13
6.02559586e+00 6.70004812e-13 4.58192375e-13 7.53592400e-17 2.11737078e-13 7.55946696e-16 4.58192375e-13
6.70000000e+00 5.30707654e-13 3.33290895e-13 3.69944047e-17 1.97379765e-13 5.00854007e-16 3.33290895e-13
6.92422916e+00 4.94874845e-13 3.01948975e-13 2.98344203e-17 1.92896036e-13 4.27392586e-16 3.01948975e-13
7.15596261e+00 4.63187288e-13 2.73554377e-13 2.30489969e-17 1.89609862e-13 3.71694011e-16 2.73554377e-13
7.39545150e+00 4.38689374e-13 2.47829944e-13 1.74912080e-17 1.90841939e-13 3.18006545e-16 2.47829944e-13
7.64295536e+00 4.29536955e-13 2.24524577e-13 1.22287273e-17 2.05000149e-13 2.65519316e-16 2.24524577e-13
7.89874245e+00 4.41282283e-13 2.03410795e-13 7.86451313e-18 2.37863623e-13 2.16235533e-16 2.03410795e-13
8.16308998e+00 4.72239995e-13 1.84282505e-13 4.68370657e-18 2.87952807e-13 1.73424666e-16 1.84282505e-13
8.43628443e+00 5.25725413e-13 1.66952996e-13 2.68393652e-18 3.58769733e-13 1.33026925e-16 1.66952996e-13
8.71862190e+00 5.61192738e-13 1.51253114e-13 1.63664177e-18 4.09937987e-13 1.03390998e-16 1.51253114e-13
9.01040836e+00 5.99458359e-13 1.37029614e-13 1.08065727e-18 4.62427664e-13 7.63333624e-17 1.37029614e-13
9.31196005e+00 6.29681658e-13 1.24143660e-13 0.00000000e+00 5.05537998e-13 0.00000000e+00 1.24143660e-13
9.62360379e+00 6.15655648e-13 1.12469472e-13 0.00000000e+00 5.03186176e-13 0.00000000e+00 1.12469472e-13
9.94567731e+00 5.70402651e-13 1.01893097e-13 0.00000000e+00 4.68509554e-13 0.00000000e+00 1.01893097e-13
1.02785297e+01 5.18653400e-13 9.23113014e-14 0.00000000e+00 4.26342099e-13 0.00000000e+00 9.23113014e-14
1.06225216e+01 4.67795689e-13 8.36305558e-14 0.00000000e+00 3.84165133e-13 0.00000000e+00 8.36305558e-14
1.09780260e+01 4.13961448e-13 7.57661279e-14 0.00000000e+00 3.38195320e-13 0.00000000e+00 7.57661279e-14
1.13454280e+01 3.68593716e-13 6.86412529e-14 0.00000000e+00 2.99952464e-13 0.00000000e+00 6.86412529e-14
1.17251259e+01 3.29300709e-13 6.21863851e-14 0.00000000e+00 2.67114324e-13 0.00000000e+00 6.21863851e-14
1.21175312e+01 2.92875862e-13 5.63385184e-14 0.00000000e+00 2.36537344e-13 0.00000000e+00 5.63385184e-14
1.25230691e+01 2.62170324e-13 5.10405718e-14 0.00000000e+00 2.11129752e-13 0.00000000e+00 5.10405718e-14
1.29421791e+01 2.35620725e-13 4.62408321e-14 0.00000000e+00 1.89379893e-13 0.00000000e+00 4.62408321e-14
1.33753155e+01 2.12895212e-13 4.18924490e-14 0.00000000e+00 1.71002763e-13 0.00000000e+00 4.18924490e-14
1.38229477e+01 1.96944952e-13 3.79529781e-14 0.00000000e+00 1.58991974e-13 0.00000000e+00 3.79529781e-14
1.42855609e+01 1.86194190e-13 3.43839660e-14 0.00000000e+00 1.51810224e-13 0.00000000e+00 3.43839660e-14
1.47636563e+01 1.84797802e-13 3.11505758e-14 0.00000000e+00 1.53647226e-13 0.00000000e+00 3.11505758e-14
1.52577522e+01 1.84829566e-13 2.82212462e-14 0.00000000e+00 1.56608320e-13 0.00000000e+00 2.82212462e-14
1.57683840e+01 1.87049224e-13 2.55673842e-14 0.00000000e+00 1.61481840e-13 0.00000000e+00 2.55673842e-14
1.62961051e+01 1.89678681e-13 2.31630853e-14 0.00000000e+00 1.66515596e-13 0.00000000e+00 2.31630853e-14
1.68414875e+01 1.92468886e-13 2.09848813e-14 0.00000000e+00 1.71484005e-13 0.00000000e+00 2.09848813e-14
1.74051222e+01 1.92546528e-13 1.90115106e-14 0.00000000e+00 1.73535017e-13 0.00000000e+00 1.90115106e-14
1.79876201e+01 1.90827018e-13 1.72237112e-14 0.00000000e+00 1.73603306e-13 0.00000000e+00 1.72237112e-14
1.85896125e+01 1.86828321e-13 1.56040325e-14 0.00000000e+00 1.71224288e-13 0.00000000e+00 1.56040325e-14
1.92117518e+01 1.79421941e-13 1.41366646e-14 0.00000000e+00 1.65285276e-13 0.00000000e+00 1.41366646e-14
1.98547123e+01 1.70325357e-13 1.28072847e-14 0.00000000e+00 1.57518072e-13 0.00000000e+00 1.28072847e-14
2.05191907e+01 1.62118099e-13 1.16029167e-14 0.00000000e+00 1.50515182e-13 0.00000000e+00 1.16029167e-14
2.12059073e+01 1.53687754e-13 1.05118047e-14 0.00000000e+00 1.43175950e-13 0.00000000e+00 1.05118047e-14
2.19156062e+01 1.46425025e-13 9.52329842e-15 0.00000000e+00 1.36901726e-13 0.00000000e+00 9.52329842e-15
2.26490567e+01 1.39643398e-13 8.62774902e-15 0.00000000e+00 1.31015649e-13 0.00000000e+00 8.62774902e-15
2.34070535e+01 1.33291370e-13 7.81641505e-15 0.00000000e+00 1.25474955e-13 0.00000000e+00 7.81641505e-15
2.41904183e+01 1.27937593e-13 7.08137710e-15 0.00000000e+00 1.20856216e-13 0.00000000e+00 7.08137710e-15
2.50000000e+01 1.22465086e-13 6.41546044e-15 0.00000000e+00 1.16049625e-13 0.00000000e+00 6.41546044e-15
2.75422870e+01 1.07899192e-13 4.79786316e-15 0.00000000e+00 1.03101329e-13 0.00000000e+00 4.79786316e-15
3.16227766e+01 8.90043455e-14 3.16991676e-15 0.00000000e+00 8.58344287e-14 0.00000000e+00 3.16991676e-15
3.63078055e+01 7.08810235e-14 2.09434323e-15 0.00000000e+00 6.87866803e-14 0.00000000e+00 2.09434323e-15
4.16869383e+01 5.34371792e-14 1.38371885e-15 0.00000000e+00 5.20534603e-14 0.00000000e+00 1.38371885e-15
4.78630092e+01 3.79491154e-14 9.14213979e-16 0.00000000e+00 3.70349014e-14 0.00000000e+00 9.14213979e-16
5.49540874e+01 2.55392888e-14 6.04015186e-16 0.00000000e+00 2.49352736e-14 0.00000000e+00 6.04015186e-16
6.30957344e+01 1.64096652e-14 3.99068876e-16 0.00000000e+00 1.60105963e-14 0.00000000e+00 3.99068876e-16
7.24435960e+01 1.01555190e-14 2.63662192e-16 0.00000000e+00 9.89185686e-15 0.00000000e+00 2.63662192e-16
8.31763771e+01 6.09559271e-15 1.74199882e-16 0.00000000e+00 5.92139283e-15 0.00000000e+00 1.74199882e-16
9.54992586e+01 3.57531112e-15 1.15092721e-16 0.00000000e+00 3.46021840e-15 0.00000000e+00 1.15092721e-16
1.09647820e+02 2.05882792e-15 7.60410067e-17 0.00000000e+00 1.98278691e-15 0.00000000e+00 7.60410067e-17
1.25892541e+02 1.18059232e-15 5.02397949e-17 0.00000000e+00 1.13035253e-15 0.00000000e+00 5.02397949e-17
1.44543977e+02 6.71297366e-16 3.31931033e-17 0.00000000e+00 6.38104263e-16 0.00000000e+00 3.31931033e-17
1.65958691e+02 3.64102431e-16 2.19304659e-17 0.00000000e+00 3.42171965e-16 0.00000000e+00 2.19304659e-17
1.90546072e+02 1.97480247e-16 1.44893151e-17 0.00000000e+00 1.82990932e-16 0.00000000e+00 1.44893151e-17
2.18776162e+02 1.06976883e-16 9.57299556e-18 0.00000000e+00 9.74038875e-17 0.00000000e+00 9.57299556e-18
2.51188643e+02 5.78605232e-17 6.32481544e-18 0.00000000e+00 5.15357078e-17 0.00000000e+00 6.32481544e-18
2.88403150e+02 3.12552919e-17 4.17876412e-18 0.00000000e+00 2.70765278e-17 0.00000000e+00 4.17876412e-18
3.31131121e+02 1.69200270e-17 2.76088208e-18 0.00000000e+00 1.41591449e-17 0.00000000e+00 2.76088208e-18
3.80189396e+02 9.18707014e-18 1.82409670e-18 0.00000000e+00 7.36297344e-18 0.00000000e+00 1.82409670e-18
4.36515832e+02 5.01888596e-18 1.20516874e-18 0.00000000e+00 3.81371722e-18 0.00000000e+00 1.20516874e-18
5.01187234e+02 2.76361785e-18 7.96247089e-19 0.00000000e+00 1.96737076e-18 0.00000000e+00 7.96247089e-19
5.75439937e+02 1.53758240e-18 5.26075235e-19 0.00000000e+00 1.01150717e-18 0.00000000e+00 5.26075235e-19
6.60693448e+02 8.66120731e-19 3.47574461e-19 0.00000000e+00 5.18546270e-19 0.00000000e+00 3.47574461e-19
7.58577575e+02 4.94800869e-19 2.29640169e-19 0.00000000e+00 2.65160700e-19 0.00000000e+00 2.29640169e-19
8.70963590e+02 2.86982084e-19 1.51721755e-19 0.00000000e+00 1.35260330e-19 0.00000000e+00 1.51721755e-19
1.00000000e+03 6.88425944e-20 0.00000000e+00 0.00000000e+00 6.88425944e-20 0.00000000e+00 0.00000000e+00
