# column 1: lambda (micron)
# column 2: total flux; lambda*F_lambda (W/m2)
# column 3: direct stellar flux; lambda*F_lambda (W/m2)
# column 4: scattered stellar flux; lambda*F_lambda (W/m2)
# column 5: total dust emission flux; lambda*F_lambda (W/m2)
# column 6: dust emission scattered flux; lambda*F_lambda (W/m2)
# column 7: transparent flux; lambda*F_lambda (W/m2)
1.00000000e-03 9.68075921e-13 9.68073281e-13 2.63942006e-18 0.00000000e+00 0.00000000e+00 9.68073281e-13
1.14815362e-03 1.14264102e-12 1.14263687e-12 4.15221123e-18 0.00000000e+00 0.00000000e+00 1.14263687e-12
1.31825674e-03 1.34868433e-12 1.34867788e-12 6.45661624e-18 0.00000000e+00 0.00000000e+00 1.34867788e-12
1.51356125e-03 1.59188255e-12 1.59187233e-12 1.02202269e-17 0.00000000e+00 0.00000000e+00 1.59187233e-12
1.73780083e-03 1.87893773e-12 1.87891976e-12 1.79716787e-17 0.00000000e+00 0.00000000e+00 1.87891976e-12
1.99526231e-03 2.21776024e-12 2.21772777e-12 3.24747176e-17 0.00000000e+00 0.00000000e+00 2.21772777e-12
2.29086765e-03 2.61767895e-12 2.61762985e-12 4.91082164e-17 0.00000000e+00 0.00000000e+00 2.61762985e-12
2.63026799e-03 3.08974391e-12 3.08964252e-12 1.01388608e-16 0.00000000e+00 0.00000000e+00 3.08964252e-12
3.01995172e-03 3.64694484e-12 3.64676883e-12 1.76017865e-16 0.00000000e+00 0.00000000e+00 3.64676883e-12
3.46736850e-03 4.30465725e-12 4.30435650e-12 3.00748528e-16 0.00000000e+00 0.00000000e+00 4.30435650e-12
3.98107171e-03 5.08100747e-12 5.08052080e-12 4.86668505e-16 0.00000000e+00 0.00000000e+00 5.08052080e-12
4.57088190e-03 5.99763404e-12 5.99664354e-12 9.90501786e-16 0.00000000e+00 0.00000000e+00 5.99664354e-12
5.24807460e-03 7.07982155e-12 7.07796211e-12 1.85943997e-15 0.00000000e+00 0.00000000e+00 7.07796211e-12
6.02559586e-03 8.35793395e-12 8.35426474e-12 3.66920697e-15 0.00000000e+00 0.00000000e+00 8.35426474e-12
6.91830971e-03 9.86627110e-12 9.86071107e-12 5.56002401e-15 0.00000000e+00 0.00000000e+00 9.86071107e-12
7.94328235e-03 1.16482747e-11 1.16388008e-11 9.47392107e-15 9.91321105e-304 3.06486133e-306 1.16388008e-11
9.12010839e-03 1.37527961e-11 1.37375167e-11 1.52793445e-14 4.24774652e-265 1.40292659e-267 1.37375167e-11
1.04712855e-02 1.53654196e-11 1.53429287e-11 2.24909552e-14 1.76100661e-231 7.36268749e-234 1.53429287e-11
1.20226443e-02 1.53754747e-11 1.53429287e-11 3.25460124e-14 2.71534383e-202 1.72047970e-204 1.53429287e-11
1.38038426e-02 1.53879839e-11 1.53429287e-11 4.50552739e-14 7.29908886e-177 6.29281118e-179 1.53429287e-11
1.58489319e-02 1.54222667e-11 1.53429287e-11 7.93380381e-14 9.76935692e-155 1.17892367e-156 1.53429287e-11
1.81970086e-02 1.54344679e-11 1.53429287e-11 9.15392750e-14 1.73475729e-135 3.45002998e-137 1.53429287e-11
2.08929613e-02 1.54714555e-11 1.53429287e-11 1.28526871e-13 8.99501658e-119 2.14576199e-120 1.53429287e-11
2.39883292e-02 1.55132825e-11 1.53429287e-11 1.70353843e-13 3.14311057e-104 9.48730993e-106 1.53429287e-11
2.75422870e-02 1.55775834e-11 1.53429287e-11 2.34654695e-13 1.40463311e-91 5.34791068e-93 1.53429287e-11
3.16227766e-02 1.56329847e-11 1.53429287e-11 2.90056055e-13 1.36678381e-80 6.11303395e-82 1.53429287e-11
3.63078055e-02 1.56586858e-11 1.53429287e-11 3.15757113e-13 4.72555649e-71 2.33775587e-72 1.53429287e-11
4.16869383e-02 1.57663496e-11 1.53429287e-11 4.23420914e-13 9.02711873e-63 5.68611309e-64 1.53429287e-11
4.78630092e-02 1.58403530e-11 1.53429287e-11 4.97424365e-13 1.36897654e-55 1.04321548e-56 1.53429287e-11
5.49540874e-02 1.59101443e-11 1.53429287e-11 5.67215617e-13 2.27397708e-49 1.92651457e-50 1.53429287e-11
6.30957344e-02 1.59182161e-11 1.53429287e-11 5.75287395e-13 7.33909806e-44 6.76325430e-45 1.53429287e-11
7.24435960e-02 1.58477560e-11 1.53429287e-11 5.04827354e-13 4.20444605e-39 3.52776664e-40 1.53429287e-11
8.31763771e-02 1.58368219e-11 1.53429287e-11 4.93893213e-13 4.28454910e-35 3.48131963e-36 1.53429287e-11
9.54992586e-02 1.58476549e-11 1.53429287e-11 5.04726251e-13 1.20790886e-31 1.03473774e-32 1.53429287e-11
1.09647820e-01 1.52055800e-11 1.46523889e-11 5.53191120e-13 1.02606676e-28 9.44303292e-30 1.46523889e-11
1.25892541e-01 1.42063202e-11 1.36744049e-11 5.31915223e-13 3.32913454e-26 3.13815613e-27 1.36744049e-11
1.44543977e-01 1.32673074e-11 1.27616972e-11 5.05610156e-13 4.51651658e-24 4.12518912e-25 1.27616972e-11
1.65958691e-01 1.24204566e-11 1.19099088e-11 5.10547792e-13 2.29076959e-22 2.26221558e-23 1.19099088e-11
1.90546072e-01 1.16485393e-11 1.11149736e-11 5.33565621e-13 4.83463789e-21 5.40215599e-22 1.11149736e-11
2.18776162e-01 1.08538937e-11 1.03730969e-11 4.80796726e-13 5.72146492e-20 6.57686959e-21 1.03730969e-11
2.51188643e-01 1.02288224e-11 9.68073733e-12 5.48084325e-13 6.98199061e-19 9.50653069e-20 9.68073733e-12
2.88403150e-01 9.54725224e-12 9.03458975e-12 5.12656686e-13 5.79985849e-18 7.77810625e-19 9.03458975e-12
3.31131121e-01 8.89577863e-12 8.43156974e-12 4.64175687e-13 3.31983745e-17 4.37099240e-18 8.43156974e-12
3.80189396e-01 8.29318508e-12 7.86879872e-12 4.24248165e-13 1.38191167e-16 1.77428027e-17 7.86879872e-12
4.36515832e-01 7.72616806e-12 7.34359025e-12 3.82137391e-13 4.40415247e-16 5.64499871e-17 7.34359025e-12
5.01187234e-01 7.20039552e-12 6.85343719e-12 3.45808267e-13 1.15006886e-15 1.54522803e-16 6.85343719e-12
5.75439937e-01 6.70499112e-12 6.39599973e-12 3.06240386e-13 2.75100244e-15 4.25281333e-16 6.39599973e-12
6.60693448e-01 6.24691356e-12 5.96909425e-12 2.70879557e-13 6.93974938e-15 1.33014180e-15 5.96909425e-12
7.58577575e-01 5.83085116e-12 5.57068288e-12 2.40658323e-13 1.95099561e-14 4.35937240e-15 5.57068288e-12
8.70963590e-01 5.45791163e-12 5.19886376e-12 2.04003536e-13 5.50443341e-14 1.27833318e-14 5.19886376e-12
1.00000000e+00 5.16642867e-12 4.85186196e-12 1.70421852e-13 1.44144852e-13 3.21896786e-14 4.85186196e-12
1.14815362e+00 5.00204206e-12 4.52802104e-12 1.36798731e-13 3.37222286e-13 6.92184297e-14 4.52802104e-12
1.31825674e+00 5.04554472e-12 4.22579511e-12 1.05625266e-13 7.14124344e-13 1.28958984e-13 4.22579511e-12
1.51356125e+00 5.37658475e-12 3.94374146e-12 8.41905646e-14 1.34865272e-12 2.10281502e-13 3.94374146e-12
1.73780083e+00 6.00456422e-12 3.68051368e-12 6.43239398e-14 2.25972660e-12 2.96675314e-13 3.68051368e-12
1.99526231e+00 6.88828705e-12 3.43485522e-12 4.76866575e-14 3.40574517e-12 3.63834669e-13 3.43485522e-12
2.29086765e+00 7.88751458e-12 3.20559341e-12 3.49698678e-14 4.64695130e-12 3.89263568e-13 3.20559341e-12
2.63026799e+00 8.83721001e-12 2.99163384e-12 2.48831677e-14 5.82069301e-12 3.79154819e-13 2.99163384e-12
3.01995172e+00 9.69149141e-12 2.79195514e-12 1.79748372e-14 6.88156143e-12 3.43857717e-13 2.79195514e-12
3.46736850e+00 1.03438278e-11 2.60560415e-12 1.28320259e-14 7.72539167e-12 2.91323501e-13 2.60560415e-12
3.98107171e+00 1.06821643e-11 2.43169128e-12 8.88815826e-15 8.24158488e-12 2.34523450e-13 2.43169128e-12
4.57088190e+00 1.08832932e-11 2.26938634e-12 6.03165211e-15 8.60787525e-12 1.76790516e-13 2.26938634e-12
5.24807460e+00 1.06466922e-11 1.87643467e-12 3.49867564e-15 8.76675885e-12 1.25854642e-13 1.87643467e-12
6.02559586e+00 1.00332767e-11 1.23974809e-12 1.57251989e-15 8.79195604e-12 8.45165256e-14 1.23974809e-12
6.70000000e+00 9.67679276e-12 9.01797527e-13 8.22477980e-16 8.77417276e-12 6.00888836e-14 9.01797527e-13
6.92422916e+00 9.55115644e-12 8.16994532e-13 6.56327206e-16 8.73350558e-12 5.31682987e-14 8.16994532e-13
7.15596261e+00 9.48475344e-12 7.40166218e-13 5.26431475e-16 8.74406079e-12 4.68553493e-14 7.40166218e-13
7.39545150e+00 9.47433243e-12 6.70562664e-13 4.00502692e-16 8.80336926e-12 4.01918578e-14 6.70562664e-13
7.64295536e+00 9.72109240e-12 6.07504471e-13 2.73747637e-16 9.11331418e-12 3.25360048e-14 6.07504471e-13
7.89874245e+00 1.02976186e-11 5.50376127e-13 1.62584844e-16 9.74707988e-12 2.46307249e-14 5.50376127e-13
8.16308998e+00 1.10990510e-11 4.98620004e-13 9.22347806e-17 1.06003388e-11 1.80690473e-14 4.98620004e-13
8.43628443e+00 1.21687511e-11 4.51730909e-13 4.90512038e-17 1.17169712e-11 1.30251780e-14 4.51730909e-13
8.71862190e+00 1.29288397e-11 4.09251158e-13 3.07061157e-17 1.25195578e-11 9.99037921e-15 4.09251158e-13
9.01040836e+00 1.36688448e-11 3.70766106e-13 1.85248226e-17 1.32980602e-11 7.54801377e-15 3.70766106e-13
9.31196005e+00 1.41509226e-11 3.35900102e-13 0.00000000e+00 1.38150225e-11 0.00000000e+00 3.35900102e-13
9.62360379e+00 1.41243426e-11 3.04312818e-13 0.00000000e+00 1.38200298e-11 0.00000000e+00 3.04312818e-13
9.94567731e+00 1.35784609e-11 2.75695930e-13 0.00000000e+00 1.33027649e-11 0.00000000e+00 2.75695930e-13
1.02785297e+01 1.29351629e-11 2.49770110e-13 0.00000000e+00 1.26853928e-11 0.00000000e+00 2.49770110e-13
1.06225216e+01 1.23914941e-11 2.26282295e-13 0.00000000e+00 1.21652118e-11 0.00000000e+00 2.26282295e-13
1.09780260e+01 1.17659723e-11 2.05003220e-13 0.00000000e+00 1.15609691e-11 0.00000000e+00 2.05003220e-13
1.13454280e+01 1.13154366e-11 1.85725182e-13 0.00000000e+00 1.11297114e-11 0.00000000e+00 1.85725182e-13
1.17251259e+01 1.08693948e-11 1.68260007e-13 0.00000000e+00 1.07011348e-11 0.00000000e+00 1.68260007e-13
1.21175312e+01 1.04003569e-11 1.52437217e-13 0.00000000e+00 1.02479197e-11 0.00000000e+00 1.52437217e-13
1.25230691e+01 9.98694581e-12 1.38102367e-13 0.00000000e+00 9.84884345e-12 0.00000000e+00 1.38102367e-13
1.29421791e+01 9.60720101e-12 1.25115533e-13 0.00000000e+00 9.48208548e-12 0.00000000e+00 1.25115533e-13
1.33753155e+01 9.27541626e-12 1.13349952e-13 0.00000000e+00 9.16206631e-12 0.00000000e+00 1.13349952e-13
1.38229477e+01 9.03981822e-12 1.02690779e-13 0.00000000e+00 8.93712744e-12 0.00000000e+00 1.02690779e-13
1.42855609e+01 8.88978592e-12 9.30339713e-14 0.00000000e+00 8.79675195e-12 0.00000000e+00 9.30339713e-14
1.47636563e+01 8.90343468e-12 8.42852675e-14 0.00000000e+00 8.81914941e-12 0.00000000e+00 8.42852675e-14
1.52577522e+01 8.98107110e-12 7.63592720e-14 0.00000000e+00 8.90471183e-12 0.00000000e+00 7.63592720e-14
1.57683840e+01 9.08578793e-12 6.91786191e-14 0.00000000e+00 9.01660931e-12 0.00000000e+00 6.91786191e-14
1.62961051e+01 9.13723157e-12 6.26732185e-14 0.00000000e+00 9.07455835e-12 0.00000000e+00 6.26732185e-14
1.68414875e+01 9.22278213e-12 5.67795711e-14 0.00000000e+00 9.16600255e-12 0.00000000e+00 5.67795711e-14
1.74051222e+01 9.17691602e-12 5.14401489e-14 0.00000000e+00 9.12547588e-12 0.00000000e+00 5.14401489e-14
1.79876201e+01 9.06623137e-12 4.66028339e-14 0.00000000e+00 9.01962853e-12 0.00000000e+00 4.66028339e-14
1.85896125e+01 8.94769129e-12 4.22204090e-14 0.00000000e+00 8.90547088e-12 0.00000000e+00 4.22204090e-14
1.92117518e+01 8.72893663e-12 3.82500974e-14 0.00000000e+00 8.69068653e-12 0.00000000e+00 3.82500974e-14
1.98547123e+01 8.46843191e-12 3.46531450e-14 0.00000000e+00 8.43377877e-12 0.00000000e+00 3.46531450e-14
2.05191907e+01 8.16376169e-12 3.13944418e-14 0.00000000e+00 8.13236725e-12 0.00000000e+00 3.13944418e-14
2.12059073e+01 7.86507059e-12 2.84421796e-14 0.00000000e+00 7.83662841e-12 0.00000000e+00 2.84421796e-14
2.19156062e+01 7.56318890e-12 2.57675415e-14 0.00000000e+00 7.53742136e-12 0.00000000e+00 2.57675415e-14
2.26490567e+01 7.25785719e-12 2.33444203e-14 0.00000000e+00 7.23451277e-12 0.00000000e+00 2.33444203e-14
2.34070535e+01 7.00787412e-12 2.11491639e-14 0.00000000e+00 6.98672496e-12 0.00000000e+00 2.11491639e-14
2.41904183e+01 6.67795159e-12 1.91603445e-14 0.00000000e+00 6.65879124e-12 0.00000000e+00 1.91603445e-14
2.50000000e+01 6.40814585e-12 1.73585491e-14 0.00000000e+00 6.39078730e-12 0.00000000e+00 1.73585491e-14
2.75422870e+01 5.50206349e-12 1.29817562e-14 0.00000000e+00 5.48908174e-12 0.00000000e+00 1.29817562e-14
3.16227766e+01 4.28136633e-12 8.57696126e-15 0.00000000e+00 4.27278937e-12 0.00000000e+00 8.57696126e-15
3.63078055e+01 3.15420391e-12 5.66674211e-15 0.00000000e+00 3.14853717e-12 0.00000000e+00 5.66674211e-15
4.16869383e+01 2.18708774e-12 3.74397938e-15 0.00000000e+00 2.18334376e-12 0.00000000e+00 3.74397938e-15
4.78630092e+01 1.42240321e-12 2.47362265e-15 0.00000000e+00 1.41992959e-12 0.00000000e+00 2.47362265e-15
5.49540874e+01 8.79051278e-13 1.63430628e-15 0.00000000e+00 8.77416972e-13 0.00000000e+00 1.63430628e-15
6.30957344e+01 5.19341183e-13 1.07977545e-15 0.00000000e+00 5.18261408e-13 0.00000000e+00 1.07977545e-15
7.24435960e+01 2.95859861e-13 7.13400564e-16 0.00000000e+00 2.95146460e-13 0.00000000e+00 7.13400564e-16
8.31763771e+01 1.64605384e-13 4.71339078e-16 0.00000000e+00 1.64134045e-13 0.00000000e+00 4.71339078e-16
9.54992586e+01 8.97619893e-14 3.11410641e-16 0.00000000e+00 8.94505787e-14 0.00000000e+00 3.11410641e-16
1.09647820e+02 4.83372023e-14 2.05746970e-16 0.00000000e+00 4.81314553e-14 0.00000000e+00 2.05746970e-16
1.25892541e+02 2.60754936e-14 1.35935675e-16 0.00000000e+00 2.59395580e-14 0.00000000e+00 1.35935675e-16
1.44543977e+02 1.40257382e-14 8.98118099e-17 0.00000000e+00 1.39359264e-14 0.00000000e+00 8.98118099e-17
1.65958691e+02 7.20916091e-15 5.93380743e-17 0.00000000e+00 7.14982284e-15 0.00000000e+00 5.93380743e-17
1.90546072e+02 3.71876822e-15 3.92042769e-17 0.00000000e+00 3.67956394e-15 0.00000000e+00 3.92042769e-17
2.18776162e+02 1.91897041e-15 2.59020089e-17 0.00000000e+00 1.89306841e-15 0.00000000e+00 2.59020089e-17
2.51188643e+02 9.89536837e-16 1.71132876e-17 0.00000000e+00 9.72423549e-16 0.00000000e+00 1.71132876e-17
2.88403150e+02 5.09241123e-16 1.13066370e-17 0.00000000e+00 4.97934486e-16 0.00000000e+00 1.13066370e-17
3.31131121e+02 2.62113630e-16 7.47022097e-18 0.00000000e+00 2.54643409e-16 0.00000000e+00 7.47022097e-18
3.80189396e+02 1.34805476e-16 4.93552605e-18 0.00000000e+00 1.29869950e-16 0.00000000e+00 4.93552605e-18
4.36515832e+02 6.94019882e-17 3.26086972e-18 0.00000000e+00 6.61411185e-17 0.00000000e+00 3.26086972e-18
5.01187234e+02 3.57784419e-17 2.15443526e-18 0.00000000e+00 3.36240066e-17 0.00000000e+00 2.15443526e-18
5.75439937e+02 1.84926026e-17 1.42342126e-18 0.00000000e+00 1.70691813e-17 0.00000000e+00 1.42342126e-18
6.60693448e+02 9.59490110e-18 9.40445101e-19 0.00000000e+00 8.65445600e-18 0.00000000e+00 9.40445101e-19
7.58577575e+02 5.00462215e-18 6.21345916e-19 0.00000000e+00 4.38327623e-18 0.00000000e+00 6.21345916e-19
8.70963590e+02 2.62792260e-18 4.10519176e-19 0.00000000e+00 2.21740343e-18 0.00000000e+00 4.10519176e-19
1.00000000e+03 1.12045085e-18 0.00000000e+00 0.00000000e+00 1.12045085e-18 0.00000000e+00 0.00000000e+00
