# column 1: lambda (micron)
# column 2: total flux; lambda*F_lambda (W/m2)
# column 3: direct stellar flux; lambda*F_lambda (W/m2)
# column 4: scattered stellar flux; lambda*F_lambda (W/m2)
# column 5: total dust emission flux; lambda*F_lambda (W/m2)
# column 6: dust emission scattered flux; lambda*F_lambda (W/m2)
# column 7: transparent flux; lambda*F_lambda (W/m2)
1.00000000e-03 8.46529670e-13 8.46529401e-13 2.69410203e-19 0.00000000e+00 0.00000000e+00 8.46529401e-13
1.14815362e-03 9.99176547e-13 9.99176121e-13 4.26150044e-19 0.00000000e+00 0.00000000e+00 9.99176121e-13
1.31825674e-03 1.17934895e-12 1.17934819e-12 7.56251367e-19 0.00000000e+00 0.00000000e+00 1.17934819e-12
1.51356125e-03 1.39201834e-12 1.39200901e-12 9.32906131e-18 0.00000000e+00 0.00000000e+00 1.39200901e-12
1.73780083e-03 1.64303546e-12 1.64301696e-12 1.84958222e-17 0.00000000e+00 0.00000000e+00 1.64301696e-12
1.99526231e-03 1.93935329e-12 1.93928682e-12 6.64684703e-17 0.00000000e+00 0.00000000e+00 1.93928682e-12
2.29086765e-03 2.28905422e-12 2.28898025e-12 7.39708847e-17 0.00000000e+00 0.00000000e+00 2.28898025e-12
2.63026799e-03 2.70217401e-12 2.70173063e-12 4.43385033e-16 0.00000000e+00 0.00000000e+00 2.70173063e-12
3.01995172e-03 3.18906782e-12 3.18890841e-12 1.59407084e-16 0.00000000e+00 0.00000000e+00 3.18890841e-12
3.46736850e-03 3.76425204e-12 3.76393440e-12 3.17634114e-16 0.00000000e+00 0.00000000e+00 3.76393440e-12
3.98107171e-03 4.44367749e-12 4.44264945e-12 1.02803731e-15 0.00000000e+00 0.00000000e+00 4.44264945e-12
4.57088190e-03 5.24842522e-12 5.24375082e-12 4.67439457e-15 0.00000000e+00 0.00000000e+00 5.24375082e-12
5.24807460e-03 6.19495540e-12 6.18930730e-12 5.64809728e-15 0.00000000e+00 0.00000000e+00 6.18930730e-12
6.02559586e-03 7.31664327e-12 7.30536713e-12 1.12761406e-14 0.00000000e+00 0.00000000e+00 7.30536713e-12
6.91830971e-03 8.63521078e-12 8.62267558e-12 1.25352086e-14 0.00000000e+00 0.00000000e+00 8.62267558e-12
7.94328235e-03 1.01922888e-11 1.01775219e-11 1.47668908e-14 4.21203130e-303 1.88577111e-305 1.01775219e-11
9.12010839e-03 1.20535225e-11 1.20127391e-11 4.07834030e-14 1.87543619e-264 9.69613701e-267 1.20127391e-11
1.04712855e-02 1.34434226e-11 1.34165878e-11 2.68347497e-14 8.03043003e-231 4.06968646e-233 1.34165878e-11
1.20226443e-02 1.34587432e-11 1.34165878e-11 4.21553276e-14 1.27378713e-201 8.43732194e-204 1.34165878e-11
1.38038426e-02 1.34543610e-11 1.34165878e-11 3.77731430e-14 3.51330756e-176 3.49510857e-178 1.34165878e-11
1.58489319e-02 1.34693793e-11 1.34165878e-11 5.27915054e-14 4.80786520e-154 6.89532822e-156 1.34165878e-11
1.81970086e-02 1.34735134e-11 1.34165878e-11 5.69255573e-14 8.65597684e-135 1.49770198e-136 1.34165878e-11
2.08929613e-02 1.34703397e-11 1.34165878e-11 5.37518172e-14 4.55781918e-118 9.16091991e-120 1.34165878e-11
2.39883292e-02 1.34796335e-11 1.34165878e-11 6.30456625e-14 1.60544502e-103 3.30244083e-105 1.34165878e-11
2.75422870e-02 1.34828309e-11 1.34165878e-11 6.62430802e-14 7.24499920e-91 1.94656374e-92 1.34165878e-11
3.16227766e-02 1.34887175e-11 1.34165878e-11 7.21296248e-14 7.09705214e-80 2.11182547e-81 1.34165878e-11
3.63078055e-02 1.34926883e-11 1.34165878e-11 7.61004938e-14 2.46993809e-70 7.89682025e-72 1.34165878e-11
4.16869383e-02 1.35099537e-11 1.34165878e-11 9.33658722e-14 4.73924089e-62 2.00484131e-63 1.34165878e-11
4.78630092e-02 1.35223416e-11 1.34165878e-11 1.05753804e-13 7.21007651e-55 3.83669335e-56 1.34165878e-11
5.49540874e-02 1.35363931e-11 1.34165878e-11 1.19805229e-13 1.20638611e-48 7.74426805e-50 1.34165878e-11
6.30957344e-02 1.35588094e-11 1.34165878e-11 1.42221595e-13 3.90839244e-43 2.88516573e-44 1.34165878e-11
7.24435960e-02 1.35551355e-11 1.34165878e-11 1.38547658e-13 2.25051364e-38 1.57398580e-39 1.34165878e-11
8.31763771e-02 1.35539974e-11 1.34165878e-11 1.37409516e-13 2.30890557e-34 1.59294899e-35 1.34165878e-11
9.54992586e-02 1.35531215e-11 1.34165878e-11 1.36533657e-13 6.53350071e-31 4.70995775e-32 1.34165878e-11
1.09647820e-01 1.29503190e-11 1.28127470e-11 1.37572018e-13 5.58289261e-28 4.35397762e-29 1.28127470e-11
1.25892541e-01 1.20797039e-11 1.19575512e-11 1.22152681e-13 1.81177969e-25 1.36095974e-26 1.19575512e-11
1.44543977e-01 1.12666186e-11 1.11594361e-11 1.07182531e-13 2.47327178e-23 1.80439695e-24 1.11594361e-11
1.65958691e-01 1.05241540e-11 1.04145917e-11 1.09562299e-13 1.25957061e-21 1.02213058e-22 1.04145917e-11
1.90546072e-01 9.83911138e-12 9.71946251e-12 1.19648836e-13 2.66711077e-20 2.56852520e-21 9.71946251e-12
2.18776162e-01 9.19040504e-12 9.07073019e-12 1.19674530e-13 3.16430313e-19 3.24936726e-20 9.07073019e-12
2.51188643e-01 8.59885244e-12 8.46529796e-12 1.33550593e-13 3.88495910e-18 4.87034450e-19 8.46529796e-12
2.88403150e-01 8.01733670e-12 7.90027573e-12 1.17028673e-13 3.22889529e-17 3.89372838e-18 7.90027573e-12
3.31131121e-01 7.47875169e-12 7.37296631e-12 1.05600418e-13 1.84968209e-16 2.16454984e-17 7.37296631e-12
3.80189396e-01 6.97304672e-12 6.88085251e-12 9.14253069e-14 7.68899335e-16 8.58454128e-17 6.88085251e-12
4.36515832e-01 6.50753898e-12 6.42158520e-12 8.35226638e-14 2.43111386e-15 2.66275756e-16 6.42158520e-12
5.01187234e-01 6.07694580e-12 5.99297201e-12 7.79016038e-14 6.07218865e-15 6.56739717e-16 5.99297201e-12
5.75439937e-01 5.67508037e-12 5.59296690e-12 6.96245124e-14 1.24889570e-14 1.31889516e-15 5.59296690e-12
6.60693448e-01 5.30660033e-12 5.21966041e-12 6.48338561e-14 2.21060648e-14 2.34052349e-15 5.21966041e-12
7.58577575e-01 4.96305702e-12 4.87127053e-12 5.64723697e-14 3.53141182e-14 3.71967327e-15 4.87127053e-12
8.70963590e-01 4.64809521e-12 4.54613417e-12 4.88550789e-14 5.31059559e-14 5.54335074e-15 4.54613417e-12
1.00000000e+00 4.36404965e-12 4.24269927e-12 4.30983785e-14 7.82520039e-14 8.21099563e-15 4.24269927e-12
1.14815362e+00 4.11306487e-12 3.95951734e-12 3.46439967e-14 1.18903530e-13 1.22328179e-14 3.95951734e-12
1.31825674e+00 3.91116966e-12 3.69523659e-12 2.84812901e-14 1.87451786e-13 1.83008252e-14 3.69523659e-12
1.51356125e+00 3.76820127e-12 3.44859544e-12 2.20754253e-14 2.97530407e-13 2.65204364e-14 3.44859544e-12
1.73780083e+00 3.68536590e-12 3.21841652e-12 1.58359960e-14 4.51113381e-13 3.47392551e-14 3.21841652e-12
1.99526231e+00 3.65558020e-12 3.00360106e-12 1.18589299e-14 6.40120207e-13 4.05479027e-14 3.00360106e-12
2.29086765e+00 3.64654706e-12 2.80312361e-12 8.56117397e-15 8.34862276e-13 4.22474423e-14 2.80312361e-12
2.63026799e+00 3.63408961e-12 2.61602716e-12 6.00160289e-15 1.01206084e-12 4.02884956e-14 2.61602716e-12
3.01995172e+00 3.59020866e-12 2.44141860e-12 4.10602934e-15 1.14468403e-12 3.53414632e-14 2.44141860e-12
3.46736850e+00 3.50448891e-12 2.27846441e-12 2.81861358e-15 1.22320589e-12 2.92530466e-14 2.27846441e-12
3.98107171e+00 3.36719813e-12 2.12638671e-12 1.89565712e-15 1.23891577e-12 2.24362251e-14 2.12638671e-12
4.57088190e+00 3.19749655e-12 1.98445954e-12 1.27024453e-15 1.21176676e-12 1.61418314e-14 1.98445954e-12
5.24807460e+00 2.79581045e-12 1.64084388e-12 7.30594440e-16 1.15423598e-12 1.08749830e-14 1.64084388e-12
6.02559586e+00 2.16548607e-12 1.08409480e-12 3.18171531e-16 1.08107310e-12 6.91388593e-15 1.08409480e-12
6.70000000e+00 1.80885093e-12 7.88574724e-13 1.62537220e-16 1.02011367e-12 4.64939942e-15 7.88574724e-13
6.92422916e+00 1.71299042e-12 7.14418944e-13 1.33053432e-16 9.98438423e-13 4.04126900e-15 7.14418944e-13
7.15596261e+00 1.63327404e-12 6.47236606e-13 1.02621527e-16 9.85934809e-13 3.52258519e-15 6.47236606e-13
7.39545150e+00 1.57666380e-12 5.86371942e-13 8.14681405e-17 9.90210391e-13 3.00862278e-15 5.86371942e-13
7.64295536e+00 1.58638201e-12 5.31230854e-13 5.66382080e-17 1.05509452e-12 2.50146047e-15 5.31230854e-13
7.89874245e+00 1.68403891e-12 4.81275108e-13 3.44366532e-17 1.20272936e-12 1.98019665e-15 4.81275108e-13
8.16308998e+00 1.84581921e-12 4.36017088e-13 1.97955717e-17 1.40978232e-12 1.54109379e-15 4.36017088e-13
8.43628443e+00 2.09800502e-12 3.95015029e-13 1.11347321e-17 1.70297885e-12 1.16239258e-15 3.95015029e-13
8.71862190e+00 2.24491608e-12 3.57868711e-13 6.85784443e-18 1.88704051e-12 9.03204260e-16 3.57868711e-13
9.01040836e+00 2.42215013e-12 3.24215549e-13 4.46998431e-18 2.09793011e-12 6.90095527e-16 3.24215549e-13
9.31196005e+00 2.54246904e-12 2.93727053e-13 0.00000000e+00 2.24874199e-12 0.00000000e+00 2.93727053e-13
9.62360379e+00 2.50484682e-12 2.66105627e-13 0.00000000e+00 2.23874119e-12 0.00000000e+00 2.66105627e-13
9.94567731e+00 2.33561575e-12 2.41081657e-13 0.00000000e+00 2.09453409e-12 0.00000000e+00 2.41081657e-13
1.02785297e+01 2.13782918e-12 2.18410884e-13 0.00000000e+00 1.91941830e-12 0.00000000e+00 2.18410884e-13
1.06225216e+01 1.95189741e-12 1.97872020e-13 0.00000000e+00 1.75402539e-12 0.00000000e+00 1.97872020e-13
1.09780260e+01 1.75906206e-12 1.79264583e-13 0.00000000e+00 1.57979748e-12 0.00000000e+00 1.79264583e-13
1.13454280e+01 1.59053866e-12 1.62406948e-13 0.00000000e+00 1.42813172e-12 0.00000000e+00 1.62406948e-13
1.17251259e+01 1.44151023e-12 1.47134567e-13 0.00000000e+00 1.29437567e-12 0.00000000e+00 1.47134567e-13
1.21175312e+01 1.31251914e-12 1.33298366e-13 0.00000000e+00 1.17922078e-12 0.00000000e+00 1.33298366e-13
1.25230691e+01 1.19212356e-12 1.20763289e-13 0.00000000e+00 1.07136027e-12 0.00000000e+00 1.20763289e-13
1.29421791e+01 1.09335345e-12 1.09406983e-13 0.00000000e+00 9.83946462e-13 0.00000000e+00 1.09406983e-13
1.33753155e+01 1.01050917e-12 9.91185987e-14 0.00000000e+00 9.11390574e-13 0.00000000e+00 9.91185987e-14
1.38229477e+01 9.49680786e-13 8.97977103e-14 0.00000000e+00 8.59883076e-13 0.00000000e+00 8.97977103e-14
1.42855609e+01 9.14882258e-13 8.13533371e-14 0.00000000e+00 8.33528921e-13 0.00000000e+00 8.13533371e-14
1.47636563e+01 9.15410307e-13 7.37030537e-14 0.00000000e+00 8.41707253e-13 0.00000000e+00 7.37030537e-14
1.52577522e+01 9.27605339e-13 6.67721855e-14 0.00000000e+00 8.60833153e-13 0.00000000e+00 6.67721855e-14
1.57683840e+01 9.45653329e-13 6.04930805e-14 0.00000000e+00 8.85160248e-13 0.00000000e+00 6.04930805e-14
1.62961051e+01 9.63550464e-13 5.48044484e-14 0.00000000e+00 9.08746015e-13 0.00000000e+00 5.48044484e-14
1.68414875e+01 9.81264702e-13 4.96507622e-14 0.00000000e+00 9.31613940e-13 0.00000000e+00 4.96507622e-14
1.74051222e+01 9.89958832e-13 4.49817171e-14 0.00000000e+00 9.44977115e-13 0.00000000e+00 4.49817171e-14
1.79876201e+01 9.89263755e-13 4.07517384e-14 0.00000000e+00 9.48512017e-13 0.00000000e+00 4.07517384e-14
1.85896125e+01 9.75078099e-13 3.69195372e-14 0.00000000e+00 9.38158562e-13 0.00000000e+00 3.69195372e-14
1.92117518e+01 9.48664027e-13 3.34477076e-14 0.00000000e+00 9.15216320e-13 0.00000000e+00 3.34477076e-14
1.98547123e+01 9.14490008e-13 3.03023610e-14 0.00000000e+00 8.84187647e-13 0.00000000e+00 3.03023610e-14
2.05191907e+01 8.83194280e-13 2.74527957e-14 0.00000000e+00 8.55741484e-13 0.00000000e+00 2.74527957e-14
2.12059073e+01 8.47867385e-13 2.48711970e-14 0.00000000e+00 8.22996188e-13 0.00000000e+00 2.48711970e-14
2.19156062e+01 8.15550064e-13 2.25323660e-14 0.00000000e+00 7.93017698e-13 0.00000000e+00 2.25323660e-14
2.26490567e+01 7.87992677e-13 2.04134733e-14 0.00000000e+00 7.67579204e-13 0.00000000e+00 2.04134733e-14
2.34070535e+01 7.58064762e-13 1.84938366e-14 0.00000000e+00 7.39570925e-13 0.00000000e+00 1.84938366e-14
2.41904183e+01 7.31792148e-13 1.67547181e-14 0.00000000e+00 7.15037430e-13 0.00000000e+00 1.67547181e-14
2.50000000e+01 7.04081224e-13 1.51791424e-14 0.00000000e+00 6.88902081e-13 0.00000000e+00 1.51791424e-14
2.75422870e+01 6.25605457e-13 1.13518661e-14 0.00000000e+00 6.14253591e-13 0.00000000e+00 1.13518661e-14
3.16227766e+01 5.14497175e-13 7.50010357e-15 0.00000000e+00 5.06997072e-13 0.00000000e+00 7.50010357e-15
3.63078055e+01 3.99515596e-13 4.95526929e-15 0.00000000e+00 3.94560327e-13 0.00000000e+00 4.95526929e-15
4.16869383e+01 2.91359091e-13 3.27391395e-15 0.00000000e+00 2.88085177e-13 0.00000000e+00 3.27391395e-15
4.78630092e+01 1.98202456e-13 2.16305350e-15 0.00000000e+00 1.96039403e-13 0.00000000e+00 2.16305350e-15
5.49540874e+01 1.27633783e-13 1.42911527e-15 0.00000000e+00 1.26204668e-13 0.00000000e+00 1.42911527e-15
6.30957344e+01 7.84575319e-14 9.44207098e-16 0.00000000e+00 7.75133248e-14 0.00000000e+00 9.44207098e-16
7.24435960e+01 4.64299047e-14 6.23831443e-16 0.00000000e+00 4.58060732e-14 0.00000000e+00 6.23831443e-16
8.31763771e+01 2.67373412e-14 4.12161347e-16 0.00000000e+00 2.63251798e-14 0.00000000e+00 4.12161347e-16
9.54992586e+01 1.50817322e-14 2.72312302e-16 0.00000000e+00 1.48094199e-14 0.00000000e+00 2.72312302e-16
1.09647820e+02 8.38226404e-15 1.79914953e-16 0.00000000e+00 8.20234908e-15 0.00000000e+00 1.79914953e-16
1.25892541e+02 4.65800787e-15 1.18868631e-16 0.00000000e+00 4.53913924e-15 0.00000000e+00 1.18868631e-16
1.44543977e+02 2.57576508e-15 7.85357256e-17 0.00000000e+00 2.49722936e-15 0.00000000e+00 7.85357256e-17
1.65958691e+02 1.35996003e-15 5.18880394e-17 0.00000000e+00 1.30807199e-15 0.00000000e+00 5.18880394e-17
1.90546072e+02 7.19740476e-16 3.42820876e-17 0.00000000e+00 6.85458389e-16 0.00000000e+00 3.42820876e-17
2.18776162e+02 3.81171239e-16 2.26499507e-17 0.00000000e+00 3.58521288e-16 0.00000000e+00 2.26499507e-17
2.51188643e+02 2.01801340e-16 1.49646740e-17 0.00000000e+00 1.86836666e-16 0.00000000e+00 1.49646740e-17
2.88403150e+02 1.06775087e-16 9.88706207e-18 0.00000000e+00 9.68880245e-17 0.00000000e+00 9.88706207e-18
3.31131121e+02 5.66286234e-17 6.53231713e-18 0.00000000e+00 5.00963063e-17 0.00000000e+00 6.53231713e-18
3.80189396e+02 3.01142021e-17 4.31585913e-18 0.00000000e+00 2.57983430e-17 0.00000000e+00 4.31585913e-18
4.36515832e+02 1.61016630e-17 2.85145985e-18 0.00000000e+00 1.32502032e-17 0.00000000e+00 2.85145985e-18
5.01187234e+02 8.66975918e-18 1.88394084e-18 0.00000000e+00 6.78581834e-18 0.00000000e+00 1.88394084e-18
5.75439937e+02 4.71163362e-18 1.24470737e-18 0.00000000e+00 3.46692625e-18 0.00000000e+00 1.24470737e-18
6.60693448e+02 2.59006079e-18 8.22370004e-19 0.00000000e+00 1.76769079e-18 0.00000000e+00 8.22370004e-19
7.58577575e+02 1.44299975e-18 5.43334473e-19 0.00000000e+00 8.99665280e-19 0.00000000e+00 5.43334473e-19
8.70963590e+02 8.16036582e-19 3.58977527e-19 0.00000000e+00 4.57059055e-19 0.00000000e+00 3.58977527e-19
1.00000000e+03 2.31806371e-19 0.00000000e+00 0.00000000e+00 2.31806371e-19 0.00000000e+00 0.00000000e+00
