# column 1: lambda (micron)
# column 2: total flux; lambda*F_lambda (W/m2)
# column 3: direct stellar flux; lambda*F_lambda (W/m2)
# column 4: scattered stellar flux; lambda*F_lambda (W/m2)
# column 5: total dust emission flux; lambda*F_lambda (W/m2)
# column 6: dust emission scattered flux; lambda*F_lambda (W/m2)
# column 7: transparent flux; lambda*F_lambda (W/m2)
1.00000000e-03 1.07336006e-12 1.07335627e-12 3.79362220e-18 0.00000000e+00 0.00000000e+00 1.07335627e-12
1.14815362e-03 1.26691031e-12 1.26690456e-12 5.75024533e-18 0.00000000e+00 0.00000000e+00 1.26690456e-12
1.31825674e-03 1.49536253e-12 1.49535359e-12 8.94190758e-18 0.00000000e+00 0.00000000e+00 1.49535359e-12
1.51356125e-03 1.76501059e-12 1.76499670e-12 1.38885912e-17 0.00000000e+00 0.00000000e+00 1.76499670e-12
1.73780083e-03 2.08328642e-12 2.08326203e-12 2.43965912e-17 0.00000000e+00 0.00000000e+00 2.08326203e-12
1.99526231e-03 2.45896097e-12 2.45891716e-12 4.38090253e-17 0.00000000e+00 0.00000000e+00 2.45891716e-12
2.29086765e-03 2.90237963e-12 2.90231066e-12 6.89667049e-17 0.00000000e+00 0.00000000e+00 2.90231066e-12
2.63026799e-03 3.42579509e-12 3.42565717e-12 1.37925694e-16 0.00000000e+00 0.00000000e+00 3.42565717e-12
3.01995172e-03 4.04361441e-12 4.04337385e-12 2.40562129e-16 0.00000000e+00 0.00000000e+00 4.04337385e-12
3.46736850e-03 4.77287743e-12 4.77247759e-12 3.99839218e-16 0.00000000e+00 0.00000000e+00 4.77247759e-12
3.98107171e-03 5.63372172e-12 5.63305378e-12 6.67939463e-16 0.00000000e+00 0.00000000e+00 5.63305378e-12
4.57088190e-03 6.65026918e-12 6.64880962e-12 1.45955887e-15 0.00000000e+00 0.00000000e+00 6.64880962e-12
5.24807460e-03 7.85040509e-12 7.84772720e-12 2.67789521e-15 0.00000000e+00 0.00000000e+00 7.84772720e-12
6.02559586e-03 9.26866946e-12 9.26283435e-12 5.83510422e-15 0.00000000e+00 0.00000000e+00 9.26283435e-12
6.91830971e-03 1.09407054e-11 1.09331145e-11 7.59082713e-15 0.00000000e+00 0.00000000e+00 1.09331145e-11
7.94328235e-03 1.29175015e-11 1.29045807e-11 1.29208532e-14 6.40633646e-304 1.30655010e-306 1.29045807e-11
9.12010839e-03 1.52555913e-11 1.52315429e-11 2.40484154e-14 2.61980418e-265 7.42895842e-268 1.52315429e-11
1.04712855e-02 1.70421409e-11 1.70115517e-11 3.05891516e-14 1.04316635e-231 4.78222651e-234 1.70115517e-11
1.20226443e-02 1.70565986e-11 1.70115517e-11 4.50469107e-14 1.55211855e-202 1.09514577e-204 1.70115517e-11
1.38038426e-02 1.70828055e-11 1.70115517e-11 7.12538185e-14 4.04504963e-177 3.91220486e-179 1.70115517e-11
1.58489319e-02 1.71293631e-11 1.70115517e-11 1.17811347e-13 5.26940265e-155 6.92484781e-157 1.70115517e-11
1.81970086e-02 1.71466642e-11 1.70115517e-11 1.35112451e-13 9.13701869e-136 1.89741177e-137 1.70115517e-11
2.08929613e-02 1.72014903e-11 1.70115517e-11 1.89938575e-13 4.62825322e-119 1.01628444e-120 1.70115517e-11
2.39883292e-02 1.72671538e-11 1.70115517e-11 2.55602047e-13 1.59253712e-104 4.87353099e-106 1.70115517e-11
2.75422870e-02 1.73417034e-11 1.70115517e-11 3.30151699e-13 7.01623688e-92 2.78430132e-93 1.70115517e-11
3.16227766e-02 1.74229586e-11 1.70115517e-11 4.11406919e-13 6.75252034e-81 3.28709333e-82 1.70115517e-11
3.63078055e-02 1.74955615e-11 1.70115517e-11 4.84009799e-13 2.31454698e-71 1.30034523e-72 1.70115517e-11
4.16869383e-02 1.76635588e-11 1.70115517e-11 6.52007064e-13 4.40565977e-63 3.34196515e-64 1.70115517e-11
4.78630092e-02 1.78475372e-11 1.70115517e-11 8.35985460e-13 6.69098357e-56 6.55131090e-57 1.70115517e-11
5.49540874e-02 1.79936262e-11 1.70115517e-11 9.82074489e-13 1.11277048e-49 1.26136299e-50 1.70115517e-11
6.30957344e-02 1.80865423e-11 1.70115517e-11 1.07499054e-12 3.59817309e-44 4.56101738e-45 1.70115517e-11
7.24435960e-02 1.79885294e-11 1.70115517e-11 9.76977686e-13 2.05108908e-39 2.41108940e-40 1.70115517e-11
8.31763771e-02 1.79680028e-11 1.70115517e-11 9.56451129e-13 2.07748549e-35 2.38287951e-36 1.70115517e-11
9.54992586e-02 1.79812985e-11 1.70115517e-11 9.69746775e-13 5.82445521e-32 6.89567697e-33 1.70115517e-11
1.09647820e-01 1.72578267e-11 1.62459122e-11 1.01191458e-12 4.94053592e-29 6.33937241e-30 1.62459122e-11
1.25892541e-01 1.61169452e-11 1.51615674e-11 9.55377767e-13 1.58617751e-26 1.99172771e-27 1.51615674e-11
1.44543977e-01 1.50126616e-11 1.41495980e-11 8.63063632e-13 2.13881707e-24 2.58767145e-25 1.41495980e-11
1.65958691e-01 1.40709838e-11 1.32051732e-11 8.65810677e-13 1.08374304e-22 1.41473867e-23 1.32051732e-11
1.90546072e-01 1.32340629e-11 1.23237846e-11 9.10278266e-13 2.30021084e-21 3.43514982e-22 1.23237846e-11
2.18776162e-01 1.23408681e-11 1.15012250e-11 8.39643036e-13 2.71346406e-20 4.09080808e-21 1.15012250e-11
2.51188643e-01 1.16372929e-11 1.07335677e-11 9.03724896e-13 3.32077203e-19 5.83648939e-20 1.07335677e-11
2.88403150e-01 1.08558960e-11 1.00171482e-11 8.38745037e-13 2.74326163e-18 4.69975247e-19 1.00171482e-11
3.31131121e-01 1.01157080e-11 9.34854667e-12 7.67145678e-13 1.56882037e-17 2.65087607e-18 9.34854667e-12
3.80189396e-01 9.40621486e-12 8.72457139e-12 6.81578150e-13 6.53208392e-17 1.07045179e-17 8.72457139e-12
4.36515832e-01 8.75037920e-12 8.14224377e-12 6.07922400e-13 2.13028041e-16 3.55919039e-17 8.14224377e-12
5.01187234e-01 8.14496508e-12 7.59878402e-12 5.45574870e-13 6.06194363e-16 1.11724736e-16 7.59878402e-12
5.75439937e-01 7.57282909e-12 7.09159786e-12 4.79484980e-13 1.74624863e-15 3.79916138e-16 7.09159786e-12
6.60693448e-01 7.03981236e-12 6.61826421e-12 4.15942705e-13 5.60545096e-15 1.40681942e-15 6.61826421e-12
7.58577575e-01 6.55342215e-12 6.17652353e-12 3.58457128e-13 1.84414833e-14 4.88325004e-15 6.17652353e-12
8.70963590e-01 6.12129282e-12 5.76426715e-12 3.01166864e-13 5.58587987e-14 1.43610428e-14 5.76426715e-12
1.00000000e+00 5.77697473e-12 5.37952711e-12 2.49612096e-13 1.47835522e-13 3.53803818e-14 5.37952711e-12
1.14815362e+00 5.56676303e-12 5.02046681e-12 1.99425515e-13 3.46870705e-13 7.53105381e-14 5.02046681e-12
1.31825674e+00 5.57245134e-12 4.68537225e-12 1.54391205e-13 7.32687888e-13 1.38831955e-13 4.68537225e-12
1.51356125e+00 5.86956050e-12 4.37264380e-12 1.18530064e-13 1.37838664e-12 2.24449029e-13 4.37264380e-12
1.73780083e+00 6.52406184e-12 4.08078863e-12 9.11525815e-14 2.35212063e-12 3.21634099e-13 4.08078863e-12
1.99526231e+00 7.45071553e-12 3.80841354e-12 6.79742465e-14 3.57432774e-12 3.96018072e-13 3.80841354e-12
2.29086765e+00 8.58920933e-12 3.55421832e-12 4.85574940e-14 4.98643352e-12 4.31164481e-13 3.55421832e-12
2.63026799e+00 9.79445307e-12 3.31698953e-12 3.52332891e-14 6.44223026e-12 4.23857363e-13 3.31698953e-12
3.01995172e+00 1.08979928e-11 3.09559474e-12 2.48467811e-14 7.77755132e-12 3.90602819e-13 3.09559474e-12
3.46736850e+00 1.18252326e-11 2.88897711e-12 1.71532975e-14 8.91910221e-12 3.31862295e-13 2.88897711e-12
3.98107171e+00 1.24770908e-11 2.69615031e-12 1.17027320e-14 9.76923773e-12 2.66418623e-13 2.69615031e-12
4.57088190e+00 1.28994504e-11 2.51619387e-12 7.67991826e-15 1.03755766e-11 2.02004280e-13 2.51619387e-12
5.24807460e+00 1.28080851e-11 2.08050667e-12 4.33991441e-15 1.07232386e-11 1.42434118e-13 2.08050667e-12
6.02559586e+00 1.22732601e-11 1.37457712e-12 1.88256505e-15 1.08968005e-11 9.57532064e-14 1.37457712e-12
6.70000000e+00 1.18844627e-11 9.99872685e-13 9.63473203e-16 1.08836265e-11 6.79943311e-14 9.99872685e-13
6.92422916e+00 1.17576278e-11 9.05846924e-13 7.74386131e-16 1.08510065e-11 6.02634095e-14 9.05846924e-13
7.15596261e+00 1.17096226e-11 8.20663132e-13 6.11098092e-16 1.08883484e-11 5.31008622e-14 8.20663132e-13
7.39545150e+00 1.17491421e-11 7.43489831e-13 4.64557848e-16 1.10051877e-11 4.56434715e-14 7.43489831e-13
7.64295536e+00 1.21412568e-11 6.73573732e-13 3.26035220e-16 1.14673570e-11 3.75518180e-14 6.73573732e-13
7.89874245e+00 1.30110238e-11 6.10232385e-13 1.99465608e-16 1.24005920e-11 2.87599342e-14 6.10232385e-13
8.16308998e+00 1.42737723e-11 5.52847515e-13 1.16154758e-16 1.37208087e-11 2.17432926e-14 5.52847515e-13
8.43628443e+00 1.59616159e-11 5.00858987e-13 6.30682675e-17 1.54606938e-11 1.58708347e-14 5.00858987e-13
8.71862190e+00 1.71549112e-11 4.53759343e-13 3.81688584e-17 1.67011136e-11 1.24664549e-14 4.53759343e-13
9.01040836e+00 1.83449566e-11 4.11088843e-13 2.25137383e-17 1.79338453e-11 9.38074382e-15 4.11088843e-13
9.31196005e+00 1.93106487e-11 3.72430980e-13 0.00000000e+00 1.89382177e-11 0.00000000e+00 3.72430980e-13
9.62360379e+00 1.91853616e-11 3.37408415e-13 0.00000000e+00 1.88479532e-11 0.00000000e+00 3.37408415e-13
9.94567731e+00 1.86854859e-11 3.05679292e-13 0.00000000e+00 1.83798066e-11 0.00000000e+00 3.05679292e-13
1.02785297e+01 1.77996818e-11 2.76933904e-13 0.00000000e+00 1.75227479e-11 0.00000000e+00 2.76933904e-13
1.06225216e+01 1.72018029e-11 2.50891667e-13 0.00000000e+00 1.69509112e-11 0.00000000e+00 2.50891667e-13
1.09780260e+01 1.60935344e-11 2.27298384e-13 0.00000000e+00 1.58662361e-11 0.00000000e+00 2.27298384e-13
1.13454280e+01 1.54489256e-11 2.05923759e-13 0.00000000e+00 1.52430019e-11 0.00000000e+00 2.05923759e-13
1.17251259e+01 1.47250866e-11 1.86559155e-13 0.00000000e+00 1.45385274e-11 0.00000000e+00 1.86559155e-13
1.21175312e+01 1.42023679e-11 1.69015555e-13 0.00000000e+00 1.40333523e-11 0.00000000e+00 1.69015555e-13
1.25230691e+01 1.36084788e-11 1.53121715e-13 0.00000000e+00 1.34553571e-11 0.00000000e+00 1.53121715e-13
1.29421791e+01 1.31327071e-11 1.38722496e-13 0.00000000e+00 1.29939847e-11 0.00000000e+00 1.38722496e-13
1.33753155e+01 1.27130722e-11 1.25677347e-13 0.00000000e+00 1.25873948e-11 0.00000000e+00 1.25677347e-13
1.38229477e+01 1.24242365e-11 1.13858934e-13 0.00000000e+00 1.23103775e-11 0.00000000e+00 1.13858934e-13
1.42855609e+01 1.23433196e-11 1.03151898e-13 0.00000000e+00 1.22401677e-11 0.00000000e+00 1.03151898e-13
1.47636563e+01 1.26158912e-11 9.34517274e-14 0.00000000e+00 1.25224395e-11 0.00000000e+00 9.34517274e-14
1.52577522e+01 1.28561225e-11 8.46637387e-14 0.00000000e+00 1.27714587e-11 0.00000000e+00 8.46637387e-14
1.57683840e+01 1.31935161e-11 7.67021526e-14 0.00000000e+00 1.31168139e-11 0.00000000e+00 7.67021526e-14
1.62961051e+01 1.35192765e-11 6.94892560e-14 0.00000000e+00 1.34497872e-11 0.00000000e+00 6.94892560e-14
1.68414875e+01 1.37809448e-11 6.29546439e-14 0.00000000e+00 1.37179902e-11 0.00000000e+00 6.29546439e-14
1.74051222e+01 1.39298002e-11 5.70345319e-14 0.00000000e+00 1.38727657e-11 0.00000000e+00 5.70345319e-14
1.79876201e+01 1.40661510e-11 5.16711337e-14 0.00000000e+00 1.40144799e-11 0.00000000e+00 5.16711337e-14
1.85896125e+01 1.40408738e-11 4.68120974e-14 0.00000000e+00 1.39940617e-11 0.00000000e+00 4.68120974e-14
1.92117518e+01 1.38252947e-11 4.24099939e-14 0.00000000e+00 1.37828847e-11 0.00000000e+00 4.24099939e-14
1.98547123e+01 1.36660383e-11 3.84218542e-14 0.00000000e+00 1.36276164e-11 0.00000000e+00 3.84218542e-14
2.05191907e+01 1.33693650e-11 3.48087501e-14 0.00000000e+00 1.33345563e-11 0.00000000e+00 3.48087501e-14
2.12059073e+01 1.29627810e-11 3.15354141e-14 0.00000000e+00 1.29312456e-11 0.00000000e+00 3.15354141e-14
2.19156062e+01 1.27404676e-11 2.85698952e-14 0.00000000e+00 1.27118977e-11 0.00000000e+00 2.85698952e-14
2.26490567e+01 1.23591244e-11 2.58832470e-14 0.00000000e+00 1.23332411e-11 0.00000000e+00 2.58832470e-14
2.34070535e+01 1.20342565e-11 2.34492452e-14 0.00000000e+00 1.20108073e-11 0.00000000e+00 2.34492452e-14
2.41904183e+01 1.16523325e-11 2.12441313e-14 0.00000000e+00 1.16310883e-11 0.00000000e+00 2.12441313e-14
2.50000000e+01 1.13023880e-11 1.92463813e-14 0.00000000e+00 1.12831416e-11 0.00000000e+00 1.92463813e-14
2.75422870e+01 1.01265335e-11 1.43935895e-14 0.00000000e+00 1.01121399e-11 0.00000000e+00 1.43935895e-14
3.16227766e+01 8.26312713e-12 9.50975027e-15 0.00000000e+00 8.25361738e-12 0.00000000e+00 9.50975027e-15
3.63078055e+01 6.33358791e-12 6.28302969e-15 0.00000000e+00 6.32730489e-12 0.00000000e+00 6.28302969e-15
4.16869383e+01 4.55032757e-12 4.15115655e-15 0.00000000e+00 4.54617641e-12 0.00000000e+00 4.15115655e-15
4.78630092e+01 3.05054406e-12 2.74264194e-15 0.00000000e+00 3.04780142e-12 0.00000000e+00 2.74264194e-15
5.49540874e+01 1.93149093e-12 1.81204556e-15 0.00000000e+00 1.92967888e-12 0.00000000e+00 1.81204556e-15
6.30957344e+01 1.16550953e-12 1.19720663e-15 0.00000000e+00 1.16431233e-12 0.00000000e+00 1.19720663e-15
7.24435960e+01 6.77643121e-13 7.90986575e-16 0.00000000e+00 6.76852134e-13 0.00000000e+00 7.90986575e-16
8.31763771e+01 3.82529268e-13 5.22599647e-16 0.00000000e+00 3.82006669e-13 0.00000000e+00 5.22599647e-16
9.54992586e+01 2.11622666e-13 3.45278163e-16 0.00000000e+00 2.11277388e-13 0.00000000e+00 3.45278163e-16
1.09647820e+02 1.15375859e-13 2.28123020e-16 0.00000000e+00 1.15147736e-13 0.00000000e+00 2.28123020e-16
1.25892541e+02 6.28965663e-14 1.50719385e-16 0.00000000e+00 6.27458469e-14 0.00000000e+00 1.50719385e-16
1.44543977e+02 3.41391842e-14 9.95793099e-17 0.00000000e+00 3.40396049e-14 0.00000000e+00 9.95793099e-17
1.65958691e+02 1.76812986e-14 6.57913976e-17 0.00000000e+00 1.76155072e-14 0.00000000e+00 6.57913976e-17
1.90546072e+02 9.17400562e-15 4.34679453e-17 0.00000000e+00 9.13053767e-15 0.00000000e+00 4.34679453e-17
2.18776162e+02 4.75816881e-15 2.87189867e-17 0.00000000e+00 4.72944982e-15 0.00000000e+00 2.87189867e-17
2.51188643e+02 2.46260919e-15 1.89744463e-17 0.00000000e+00 2.44363474e-15 0.00000000e+00 1.89744463e-17
2.88403150e+02 1.27010491e-15 1.25362924e-17 0.00000000e+00 1.25756862e-15 0.00000000e+00 1.25362924e-17
3.31131121e+02 6.54149753e-16 8.28264623e-18 0.00000000e+00 6.45867107e-16 0.00000000e+00 8.28264623e-18
3.80189396e+02 3.36124692e-16 5.47229010e-18 0.00000000e+00 3.30652402e-16 0.00000000e+00 5.47229010e-18
4.36515832e+02 1.72572516e-16 3.61550621e-18 0.00000000e+00 1.68957010e-16 0.00000000e+00 3.61550621e-18
5.01187234e+02 8.85278457e-17 2.38874127e-18 0.00000000e+00 8.61391044e-17 0.00000000e+00 2.38874127e-18
5.75439937e+02 4.54156099e-17 1.57822570e-18 0.00000000e+00 4.38373842e-17 0.00000000e+00 1.57822570e-18
6.60693448e+02 2.33169611e-17 1.04272338e-18 0.00000000e+00 2.22742377e-17 0.00000000e+00 1.04272338e-18
7.58577575e+02 1.19915713e-17 6.88920507e-19 0.00000000e+00 1.13026508e-17 0.00000000e+00 6.88920507e-19
8.70963590e+02 6.18232873e-18 4.55165265e-19 0.00000000e+00 5.72716346e-18 0.00000000e+00 4.55165265e-19
1.00000000e+03 2.89804442e-18 0.00000000e+00 0.00000000e+00 2.89804442e-18 0.00000000e+00 0.00000000e+00
