# column 1: lambda (micron)
# column 2: total flux; lambda*F_lambda (W/m2)
# column 3: direct stellar flux; lambda*F_lambda (W/m2)
# column 4: scattered stellar flux; lambda*F_lambda (W/m2)
# column 5: total dust emission flux; lambda*F_lambda (W/m2)
# column 6: dust emission scattered flux; lambda*F_lambda (W/m2)
# column 7: transparent flux; lambda*F_lambda (W/m2)
1.00000000e-03 1.04634372e-12 1.04634360e-12 1.16277528e-19 0.00000000e+00 0.00000000e+00 1.04634360e-12
1.14815362e-03 1.23502116e-12 1.23502095e-12 2.13434780e-19 0.00000000e+00 0.00000000e+00 1.23502095e-12
1.31825674e-03 1.45772110e-12 1.45772071e-12 3.91332068e-19 0.00000000e+00 0.00000000e+00 1.45772071e-12
1.51356125e-03 1.72057850e-12 1.72057784e-12 6.64582656e-19 0.00000000e+00 0.00000000e+00 1.72057784e-12
1.73780083e-03 2.03083470e-12 2.03083353e-12 1.17459713e-18 0.00000000e+00 0.00000000e+00 2.03083353e-12
1.99526231e-03 2.39703717e-12 2.39703472e-12 2.44913915e-18 0.00000000e+00 0.00000000e+00 2.39703472e-12
2.29086765e-03 2.82927351e-12 2.82926954e-12 3.97043324e-18 0.00000000e+00 0.00000000e+00 2.82926954e-12
2.63026799e-03 3.33945407e-12 3.33944522e-12 8.84667181e-18 0.00000000e+00 0.00000000e+00 3.33944522e-12
3.01995172e-03 3.94163325e-12 3.94161611e-12 1.71449641e-17 0.00000000e+00 0.00000000e+00 3.94161611e-12
3.46736850e-03 4.65240159e-12 4.65237083e-12 3.07637133e-17 0.00000000e+00 0.00000000e+00 4.65237083e-12
3.98107171e-03 5.49134500e-12 5.49128930e-12 5.57008332e-17 0.00000000e+00 0.00000000e+00 5.49128930e-12
4.57088190e-03 6.48157222e-12 6.48148207e-12 9.01468766e-17 0.00000000e+00 0.00000000e+00 6.48148207e-12
5.24807460e-03 7.65040509e-12 7.65022704e-12 1.78045488e-16 0.00000000e+00 0.00000000e+00 7.65022704e-12
6.02559586e-03 9.03008754e-12 9.02972084e-12 3.66694945e-16 0.00000000e+00 0.00000000e+00 9.02972084e-12
6.91830971e-03 1.06586066e-11 1.06579658e-11 6.40796979e-16 0.00000000e+00 0.00000000e+00 1.06579658e-11
7.94328235e-03 1.25808974e-11 1.25798170e-11 1.08037961e-15 2.90643897e-304 2.62344048e-306 1.25798170e-11
9.12010839e-03 1.48501900e-11 1.48482176e-11 1.97240452e-15 2.22246713e-265 5.47738642e-267 1.48482176e-11
1.04712855e-02 1.65862678e-11 1.65834298e-11 2.83800060e-15 1.48425359e-231 1.62942046e-233 1.65834298e-11
1.20226443e-02 1.65875634e-11 1.65834298e-11 4.13362365e-15 3.54397372e-202 8.16652049e-204 1.65834298e-11
1.38038426e-02 1.65897622e-11 1.65834298e-11 6.33246199e-15 1.37075988e-176 2.28728142e-178 1.65834298e-11
1.58489319e-02 1.65930032e-11 1.65834298e-11 9.57339709e-15 2.54875418e-154 6.41534074e-156 1.65834298e-11
1.81970086e-02 1.65971981e-11 1.65834298e-11 1.37683367e-14 5.90165862e-135 1.01484535e-136 1.65834298e-11
2.08929613e-02 1.66045832e-11 1.65834298e-11 2.11534317e-14 3.91803370e-118 8.94613222e-120 1.65834298e-11
2.39883292e-02 1.66098763e-11 1.65834298e-11 2.64465153e-14 1.69021406e-103 4.39071050e-105 1.65834298e-11
2.75422870e-02 1.66197020e-11 1.65834298e-11 3.62721693e-14 9.03280758e-91 2.53889124e-92 1.65834298e-11
3.16227766e-02 1.66301509e-11 1.65834298e-11 4.67210834e-14 1.02883077e-79 3.15742554e-81 1.65834298e-11
3.63078055e-02 1.66369726e-11 1.65834298e-11 5.35427854e-14 4.07752269e-70 1.29054198e-71 1.65834298e-11
4.16869383e-02 1.66543261e-11 1.65834298e-11 7.08963194e-14 8.73929506e-62 3.38323931e-63 1.65834298e-11
4.78630092e-02 1.66739197e-11 1.65834298e-11 9.04899082e-14 1.46007244e-54 6.64249432e-56 1.65834298e-11
5.49540874e-02 1.66955276e-11 1.65834298e-11 1.12097815e-13 2.64342349e-48 1.35062254e-49 1.65834298e-11
6.30957344e-02 1.67250959e-11 1.65834298e-11 1.41666097e-13 9.14443022e-43 5.28776315e-44 1.65834298e-11
7.24435960e-02 1.67318863e-11 1.65834298e-11 1.48456471e-13 5.60408426e-38 3.23862160e-39 1.65834298e-11
8.31763771e-02 1.67258508e-11 1.65834298e-11 1.42421015e-13 6.09010295e-34 3.42004251e-35 1.65834298e-11
9.54992586e-02 1.67244554e-11 1.65834298e-11 1.41025572e-13 1.81308892e-30 1.06182612e-31 1.65834298e-11
1.09647820e-01 1.59660877e-11 1.58370587e-11 1.29028992e-13 1.62312401e-27 9.94513134e-29 1.58370587e-11
1.25892541e-01 1.48886104e-11 1.47800032e-11 1.08607212e-13 5.50734943e-25 3.22427426e-26 1.47800032e-11
1.44543977e-01 1.38813972e-11 1.37935015e-11 8.78956445e-14 7.80621703e-23 4.41602964e-24 1.37935015e-11
1.65958691e-01 1.29552978e-11 1.28728446e-11 8.24531936e-14 4.10657492e-21 2.65484921e-22 1.28728446e-11
1.90546072e-01 1.21024361e-11 1.20136376e-11 8.87984372e-14 8.86963303e-20 6.78104215e-21 1.20136376e-11
2.18776162e-01 1.13029126e-11 1.12117790e-11 9.11325501e-14 1.06747684e-18 8.52691387e-20 1.12117790e-11
2.51188643e-01 1.05528866e-11 1.04634409e-11 8.94322744e-14 1.34344416e-17 1.38176896e-18 1.04634409e-11
2.88403150e-01 9.84225006e-12 9.76505125e-12 7.70840898e-14 1.14713697e-16 1.20166976e-17 9.76505125e-12
3.31131121e-01 9.17909646e-12 9.11327608e-12 6.51501265e-14 6.70252658e-16 6.92869015e-17 9.11327608e-12
3.80189396e-01 8.56349659e-12 8.50500410e-12 5.56521152e-14 2.84037877e-15 2.90913736e-16 8.50500410e-12
4.36515832e-01 7.99611482e-12 7.93733165e-12 4.96551888e-14 9.12798547e-15 9.49257058e-16 7.93733165e-12
5.01187234e-01 7.47423625e-12 7.40754890e-12 4.35902352e-14 2.30971116e-14 2.44539630e-15 7.40754890e-12
5.75439937e-01 6.99875722e-12 6.91312687e-12 3.76745882e-14 4.79557582e-14 5.11581704e-15 6.91312687e-12
6.60693448e-01 6.56969976e-12 6.45170538e-12 3.34043763e-14 8.45899970e-14 9.18591580e-15 6.45170538e-12
7.58577575e-01 6.18135217e-12 6.02108180e-12 2.89697810e-14 1.31300598e-13 1.41246756e-14 6.02108180e-12
8.70963590e-01 5.82717672e-12 5.61920048e-12 2.46376088e-14 1.83338629e-13 1.92914253e-14 5.61920048e-12
1.00000000e+00 5.49753219e-12 5.24414302e-12 2.02553998e-14 2.33133774e-13 2.36712619e-14 5.24414302e-12
1.14815362e+00 5.19023080e-12 4.89411902e-12 1.67674513e-14 2.79344324e-13 2.62232867e-14 4.89411902e-12
1.31825674e+00 4.90357950e-12 4.56745763e-12 1.30890842e-14 3.23032784e-13 2.75962902e-14 4.56745763e-12
1.51356125e+00 4.63765496e-12 4.26259947e-12 9.91427822e-15 3.65141206e-13 2.73173831e-14 4.26259947e-12
1.73780083e+00 4.39112310e-12 3.97808929e-12 6.91533510e-15 4.06118476e-13 2.52285289e-14 3.97808929e-12
1.99526231e+00 4.16129529e-12 3.71256894e-12 4.85327029e-15 4.43873081e-13 2.14436107e-14 3.71256894e-12
2.29086765e+00 3.94105127e-12 3.46477093e-12 3.06777192e-15 4.73212567e-13 1.69051169e-14 3.46477093e-12
2.63026799e+00 3.72277727e-12 3.23351237e-12 2.04858558e-15 4.87216315e-13 1.25893314e-14 3.23351237e-12
3.01995172e+00 3.50010893e-12 3.01768933e-12 1.37747464e-15 4.81042128e-13 8.91089729e-15 3.01768933e-12
3.46736850e+00 3.27424355e-12 2.81627154e-12 9.10907188e-16 4.57061101e-13 6.22102461e-15 2.81627154e-12
3.98107171e+00 3.04844878e-12 2.62829753e-12 6.30385407e-16 4.19520861e-13 4.24619612e-15 2.62829753e-12
4.57088190e+00 2.82915030e-12 2.45286997e-12 4.11974072e-16 3.75868350e-13 2.88972575e-15 2.45286997e-12
5.24807460e+00 2.36390563e-12 2.02814751e-12 2.35483891e-16 3.35522633e-13 1.91161064e-15 2.02814751e-12
6.02559586e+00 1.64138781e-12 1.33998377e-12 1.04287102e-16 3.01299751e-13 1.21889807e-15 1.33998377e-12
6.70000000e+00 1.25237340e-12 9.74709347e-13 5.03788419e-17 2.77613675e-13 8.27407630e-16 9.74709347e-13
6.92422916e+00 1.15334446e-12 8.83049889e-13 3.93272603e-17 2.70255246e-13 7.35224325e-16 8.83049889e-13
7.15596261e+00 1.06604559e-12 8.00009879e-13 3.47502394e-17 2.66000959e-13 6.40145874e-16 8.00009879e-13
7.39545150e+00 9.92626499e-13 7.24778763e-13 2.50140238e-17 2.67822723e-13 5.49023736e-16 7.24778763e-13
7.64295536e+00 9.44014755e-13 6.56622211e-13 1.76515162e-17 2.87374893e-13 4.52685436e-16 6.56622211e-13
7.89874245e+00 9.29360139e-13 5.94874946e-13 1.11239406e-17 3.34474070e-13 3.59096734e-16 5.94874946e-13
8.16308998e+00 9.42368239e-13 5.38934254e-13 6.64197635e-18 4.03427342e-13 2.80595230e-16 5.38934254e-13
8.43628443e+00 9.91196990e-13 4.88254098e-13 3.76484996e-18 5.02939127e-13 2.12627265e-16 4.88254098e-13
8.71862190e+00 1.01591497e-12 4.42339790e-13 2.57959853e-18 5.73572605e-13 1.68410920e-16 4.42339790e-13
9.01040836e+00 1.04831297e-12 4.00743158e-13 1.60951590e-18 6.47568202e-13 1.30173076e-16 4.00743158e-13
9.31196005e+00 1.06796917e-12 3.63058180e-13 0.00000000e+00 7.04910989e-13 0.00000000e+00 3.63058180e-13
9.62360379e+00 1.02612249e-12 3.28917012e-13 0.00000000e+00 6.97205479e-13 0.00000000e+00 3.28917012e-13
9.94567731e+00 9.43756449e-13 2.97986401e-13 0.00000000e+00 6.45770048e-13 0.00000000e+00 2.97986401e-13
1.02785297e+01 8.52559750e-13 2.69964435e-13 0.00000000e+00 5.82595315e-13 0.00000000e+00 2.69964435e-13
1.06225216e+01 7.67626977e-13 2.44577592e-13 0.00000000e+00 5.23049386e-13 0.00000000e+00 2.44577592e-13
1.09780260e+01 6.79537717e-13 2.21578069e-13 0.00000000e+00 4.57959647e-13 0.00000000e+00 2.21578069e-13
1.13454280e+01 6.07466579e-13 2.00741370e-13 0.00000000e+00 4.06725209e-13 0.00000000e+00 2.00741370e-13
1.17251259e+01 5.44026444e-13 1.81864106e-13 0.00000000e+00 3.62162338e-13 0.00000000e+00 1.81864106e-13
1.21175312e+01 4.88684019e-13 1.64762018e-13 0.00000000e+00 3.23922001e-13 0.00000000e+00 1.64762018e-13
1.25230691e+01 4.38995217e-13 1.49268171e-13 0.00000000e+00 2.89727045e-13 0.00000000e+00 1.49268171e-13
1.29421791e+01 3.96877899e-13 1.35231331e-13 0.00000000e+00 2.61646568e-13 0.00000000e+00 1.35231331e-13
1.33753155e+01 3.60762599e-13 1.22514483e-13 0.00000000e+00 2.38248116e-13 0.00000000e+00 1.22514483e-13
1.38229477e+01 3.33857771e-13 1.10993499e-13 0.00000000e+00 2.22864272e-13 0.00000000e+00 1.10993499e-13
1.42855609e+01 3.14847247e-13 1.00555922e-13 0.00000000e+00 2.14291325e-13 0.00000000e+00 1.00555922e-13
1.47636563e+01 3.07348809e-13 9.10998706e-14 0.00000000e+00 2.16248939e-13 0.00000000e+00 9.10998706e-14
1.52577522e+01 3.02970916e-13 8.25330452e-14 0.00000000e+00 2.20437870e-13 0.00000000e+00 8.25330452e-14
1.57683840e+01 3.01096086e-13 7.47718247e-14 0.00000000e+00 2.26324261e-13 0.00000000e+00 7.47718247e-14
1.62961051e+01 2.99939482e-13 6.77404517e-14 0.00000000e+00 2.32199030e-13 0.00000000e+00 6.77404517e-14
1.68414875e+01 2.99519665e-13 6.13702932e-14 0.00000000e+00 2.38149372e-13 0.00000000e+00 6.13702932e-14
1.74051222e+01 2.96555193e-13 5.55991699e-14 0.00000000e+00 2.40956023e-13 0.00000000e+00 5.55991699e-14
1.79876201e+01 2.90694134e-13 5.03707500e-14 0.00000000e+00 2.40323384e-13 0.00000000e+00 5.03707500e-14
1.85896125e+01 2.81604792e-13 4.56339988e-14 0.00000000e+00 2.35970793e-13 0.00000000e+00 4.56339988e-14
1.92117518e+01 2.68990049e-13 4.13426810e-14 0.00000000e+00 2.27647368e-13 0.00000000e+00 4.13426810e-14
1.98547123e+01 2.55637892e-13 3.74549090e-14 0.00000000e+00 2.18182983e-13 0.00000000e+00 3.74549090e-14
2.05191907e+01 2.40947175e-13 3.39327342e-14 0.00000000e+00 2.07014440e-13 0.00000000e+00 3.39327342e-14
2.12059073e+01 2.27889557e-13 3.07417768e-14 0.00000000e+00 1.97147780e-13 0.00000000e+00 3.07417768e-14
2.19156062e+01 2.15439480e-13 2.78508898e-14 0.00000000e+00 1.87588590e-13 0.00000000e+00 2.78508898e-14
2.26490567e+01 2.04318389e-13 2.52318552e-14 0.00000000e+00 1.79086533e-13 0.00000000e+00 2.52318552e-14
2.34070535e+01 1.93543796e-13 2.28591087e-14 0.00000000e+00 1.70684687e-13 0.00000000e+00 2.28591087e-14
2.41904183e+01 1.83542492e-13 2.07094900e-14 0.00000000e+00 1.62833002e-13 0.00000000e+00 2.07094900e-14
2.50000000e+01 1.74049777e-13 1.87620165e-14 0.00000000e+00 1.55287761e-13 0.00000000e+00 1.87620165e-14
2.75422870e+01 1.48490114e-13 1.40313526e-14 0.00000000e+00 1.34458762e-13 0.00000000e+00 1.40313526e-14
3.16227766e+01 1.15985497e-13 9.27042274e-15 0.00000000e+00 1.06715074e-13 0.00000000e+00 9.27042274e-15
3.63078055e+01 8.64088408e-14 6.12490756e-15 0.00000000e+00 8.02839332e-14 0.00000000e+00 6.12490756e-15
4.16869383e+01 6.06342767e-14 4.04668630e-15 0.00000000e+00 5.65875904e-14 0.00000000e+00 4.04668630e-15
4.78630092e+01 4.02265949e-14 2.67361912e-15 0.00000000e+00 3.75529758e-14 0.00000000e+00 2.67361912e-15
5.49540874e+01 2.54562250e-14 1.76644264e-15 0.00000000e+00 2.36897824e-14 0.00000000e+00 1.76644264e-15
6.30957344e+01 1.55441381e-14 1.16707708e-15 0.00000000e+00 1.43770610e-14 0.00000000e+00 1.16707708e-15
7.24435960e+01 9.23455733e-15 7.71080178e-16 0.00000000e+00 8.46347715e-15 0.00000000e+00 7.71080178e-16
8.31763771e+01 5.38053761e-15 5.09447621e-16 0.00000000e+00 4.87108999e-15 0.00000000e+00 5.09447621e-16
9.54992586e+01 3.09360981e-15 3.36588705e-16 0.00000000e+00 2.75702110e-15 0.00000000e+00 3.36588705e-16
1.09647820e+02 1.76193002e-15 2.22381952e-16 0.00000000e+00 1.53954806e-15 0.00000000e+00 2.22381952e-16
1.25892541e+02 1.00780916e-15 1.46926299e-16 0.00000000e+00 8.60882860e-16 0.00000000e+00 1.46926299e-16
1.44543977e+02 5.75750131e-16 9.70732430e-17 0.00000000e+00 4.78676888e-16 0.00000000e+00 9.70732430e-17
1.65958691e+02 3.17011074e-16 6.41356556e-17 0.00000000e+00 2.52875418e-16 0.00000000e+00 6.41356556e-17
1.90546072e+02 1.76041454e-16 4.23740075e-17 0.00000000e+00 1.33667447e-16 0.00000000e+00 4.23740075e-17
2.18776162e+02 9.84974454e-17 2.79962291e-17 0.00000000e+00 7.05012164e-17 0.00000000e+00 2.79962291e-17
2.51188643e+02 5.55220009e-17 1.84969251e-17 0.00000000e+00 3.70250758e-17 0.00000000e+00 1.84969251e-17
2.88403150e+02 3.15570783e-17 1.22207972e-17 0.00000000e+00 1.93362811e-17 0.00000000e+00 1.22207972e-17
3.31131121e+02 1.81356755e-17 8.07420067e-18 0.00000000e+00 1.00614749e-17 0.00000000e+00 8.07420067e-18
3.80189396e+02 1.05455730e-17 5.33457148e-18 0.00000000e+00 5.21100153e-18 0.00000000e+00 5.33457148e-18
4.36515832e+02 6.21447937e-18 3.52451642e-18 0.00000000e+00 2.68996294e-18 0.00000000e+00 3.52451642e-18
5.01187234e+02 3.71240745e-18 2.32862491e-18 0.00000000e+00 1.38378254e-18 0.00000000e+00 2.32862491e-18
5.75439937e+02 2.24830501e-18 1.53850722e-18 0.00000000e+00 7.09797786e-19 0.00000000e+00 1.53850722e-18
6.60693448e+02 1.37964485e-18 1.01648164e-18 0.00000000e+00 3.63163212e-19 0.00000000e+00 1.01648164e-18
7.58577575e+02 8.56981269e-19 6.71582760e-19 0.00000000e+00 1.85398510e-19 0.00000000e+00 6.71582760e-19
8.70963590e+02 5.38152288e-19 4.43710329e-19 0.00000000e+00 9.44419592e-20 0.00000000e+00 4.43710329e-19
1.00000000e+03 4.80110593e-20 0.00000000e+00 0.00000000e+00 4.80110593e-20 0.00000000e+00 0.00000000e+00
