# column 1: lambda (micron)
# column 2: total flux; lambda*F_lambda (W/m2)
# column 3: direct stellar flux; lambda*F_lambda (W/m2)
# column 4: scattered stellar flux; lambda*F_lambda (W/m2)
# column 5: total dust emission flux; lambda*F_lambda (W/m2)
# column 6: dust emission scattered flux; lambda*F_lambda (W/m2)
# column 7: transparent flux; lambda*F_lambda (W/m2)
1.00000000e-03 9.68075438e-13 9.68073281e-13 2.15731476e-18 0.00000000e+00 0.00000000e+00 9.68073281e-13
1.14815362e-03 1.14264019e-12 1.14263687e-12 3.32225782e-18 0.00000000e+00 0.00000000e+00 1.14263687e-12
1.31825674e-03 1.34868284e-12 1.34867788e-12 4.96001570e-18 0.00000000e+00 0.00000000e+00 1.34867788e-12
1.51356125e-03 1.59187990e-12 1.59187233e-12 7.57223054e-18 0.00000000e+00 0.00000000e+00 1.59187233e-12
1.73780083e-03 1.87893301e-12 1.87891976e-12 1.32510705e-17 0.00000000e+00 0.00000000e+00 1.87891976e-12
1.99526231e-03 2.21775149e-12 2.21772777e-12 2.37252133e-17 0.00000000e+00 0.00000000e+00 2.21772777e-12
2.29086765e-03 2.61766669e-12 2.61762985e-12 3.68427559e-17 0.00000000e+00 0.00000000e+00 2.61762985e-12
2.63026799e-03 3.08971471e-12 3.08964252e-12 7.21881695e-17 0.00000000e+00 0.00000000e+00 3.08964252e-12
3.01995172e-03 3.64688823e-12 3.64676883e-12 1.19401549e-16 0.00000000e+00 0.00000000e+00 3.64676883e-12
3.46736850e-03 4.30455279e-12 4.30435650e-12 1.96288285e-16 0.00000000e+00 0.00000000e+00 4.30435650e-12
3.98107171e-03 5.08083605e-12 5.08052080e-12 3.15249013e-16 0.00000000e+00 0.00000000e+00 5.08052080e-12
4.57088190e-03 5.99737177e-12 5.99664354e-12 7.28227949e-16 0.00000000e+00 0.00000000e+00 5.99664354e-12
5.24807460e-03 7.07926314e-12 7.07796211e-12 1.30103022e-15 0.00000000e+00 0.00000000e+00 7.07796211e-12
6.02559586e-03 8.35663127e-12 8.35426474e-12 2.36652991e-15 0.00000000e+00 0.00000000e+00 8.35426474e-12
6.91830971e-03 9.86406953e-12 9.86071107e-12 3.35845591e-15 0.00000000e+00 0.00000000e+00 9.86071107e-12
7.94328235e-03 1.16451441e-11 1.16388008e-11 6.34331082e-15 0.00000000e+00 0.00000000e+00 1.16388008e-11
9.12010839e-03 1.37470444e-11 1.37375167e-11 9.52766078e-15 0.00000000e+00 0.00000000e+00 1.37375167e-11
1.04712855e-02 1.53561977e-11 1.53429287e-11 1.32690184e-14 0.00000000e+00 0.00000000e+00 1.53429287e-11
1.20226443e-02 1.53610531e-11 1.53429287e-11 1.81244460e-14 3.44596682e-309 1.21521498e-309 1.53429287e-11
1.38038426e-02 1.53734495e-11 1.53429287e-11 3.05208085e-14 3.84079410e-270 1.38753660e-270 1.53429287e-11
1.58489319e-02 1.53864727e-11 1.53429287e-11 4.35440044e-14 4.13193905e-236 1.74194281e-236 1.53429287e-11
1.81970086e-02 1.53990671e-11 1.53429287e-11 5.61384322e-14 1.51702873e-206 5.67056944e-207 1.53429287e-11
2.08929613e-02 1.54138940e-11 1.53429287e-11 7.09653707e-14 8.59808629e-181 3.10463455e-181 1.53429287e-11
2.39883292e-02 1.54354855e-11 1.53429287e-11 9.25568330e-14 2.24924045e-158 7.42266596e-159 1.53429287e-11
2.75422870e-02 1.54716317e-11 1.53429287e-11 1.28703043e-13 7.22457390e-139 1.89422522e-139 1.53429287e-11
3.16227766e-02 1.54911230e-11 1.53429287e-11 1.48194330e-13 7.04169612e-122 1.54622845e-122 1.53429287e-11
3.63078055e-02 1.55104513e-11 1.53429287e-11 1.67522680e-13 4.24411906e-107 7.59910418e-108 1.53429287e-11
4.16869383e-02 1.55676447e-11 1.53429287e-11 2.24716033e-13 3.11127606e-94 5.30727855e-95 1.53429287e-11
4.78630092e-02 1.56292538e-11 1.53429287e-11 2.86325123e-13 4.58589413e-83 7.42187465e-84 1.53429287e-11
5.49540874e-02 1.56742665e-11 1.53429287e-11 3.31337860e-13 2.28867113e-73 3.44159309e-74 1.53429287e-11
6.30957344e-02 1.57015872e-11 1.53429287e-11 3.58658520e-13 7.80416535e-65 1.11621811e-65 1.53429287e-11
7.24435960e-02 1.56638045e-11 1.53429287e-11 3.20875837e-13 1.97397992e-57 2.43671945e-58 1.53429287e-11
8.31763771e-02 1.56593901e-11 1.53429287e-11 3.16461418e-13 4.21460558e-51 4.98756312e-52 1.53429287e-11
9.54992586e-02 1.56711682e-11 1.53429287e-11 3.28239493e-13 1.28455815e-45 1.57973933e-46 1.53429287e-11
1.09647820e-01 1.50126222e-11 1.46523889e-11 3.60233325e-13 6.98875666e-41 9.60036814e-42 1.46523889e-11
1.25892541e-01 1.40138227e-11 1.36744049e-11 3.39417722e-13 9.28701818e-37 1.32913400e-37 1.36744049e-11
1.44543977e-01 1.30770998e-11 1.27616972e-11 3.15402611e-13 3.58904905e-33 5.21758882e-34 1.27616972e-11
1.65958691e-01 1.22483981e-11 1.19099088e-11 3.38489262e-13 3.82510574e-30 6.30473213e-31 1.19099088e-11
1.90546072e-01 1.14785801e-11 1.11149736e-11 3.63606479e-13 1.26153979e-27 2.48913983e-28 1.11149736e-11
2.18776162e-01 1.07084343e-11 1.03730969e-11 3.35337362e-13 1.73653963e-25 3.70493299e-26 1.03730969e-11
2.51188643e-01 1.00817395e-11 9.68073733e-12 4.01002144e-13 2.11716035e-23 5.64388504e-24 9.68073733e-12
2.88403150e-01 9.41687239e-12 9.03458975e-12 3.82282637e-13 1.36928293e-21 3.82941076e-22 9.03458975e-12
3.31131121e-01 8.78787290e-12 8.43156974e-12 3.56303112e-13 5.00069286e-20 1.42951699e-20 8.43156974e-12
3.80189396e-01 8.19581405e-12 7.86879872e-12 3.27014218e-13 1.10825558e-18 3.29439423e-19 7.86879872e-12
4.36515832e-01 7.65374147e-12 7.34359025e-12 3.10135083e-13 1.61387470e-17 4.89425457e-18 7.34359025e-12
5.01187234e-01 7.14506330e-12 6.85343719e-12 2.91468156e-13 1.57963221e-16 4.87651846e-17 6.85343719e-12
5.75439937e-01 6.67080254e-12 6.39599973e-12 2.73697626e-13 1.10518138e-15 3.41622028e-16 6.39599973e-12
6.60693448e-01 6.22298195e-12 5.96909425e-12 2.48126046e-13 5.76164706e-15 1.78804641e-15 5.96909425e-12
7.58577575e-01 5.82283098e-12 5.57068288e-12 2.28752081e-13 2.33960193e-14 7.08589260e-15 5.57068288e-12
8.70963590e-01 5.47750486e-12 5.19886376e-12 2.02606147e-13 7.60349545e-14 2.20605573e-14 5.19886376e-12
1.00000000e+00 5.23130670e-12 4.85186196e-12 1.73312194e-13 2.06132538e-13 5.61074376e-14 4.85186196e-12
1.14815362e+00 5.15082739e-12 4.52802104e-12 1.44138414e-13 4.78667930e-13 1.18270488e-13 4.52802104e-12
1.31825674e+00 5.32569360e-12 4.22579511e-12 1.13724027e-13 9.86174461e-13 2.13869794e-13 4.22579511e-12
1.51356125e+00 5.81584584e-12 3.94374146e-12 8.78122234e-14 1.78429215e-12 3.31010890e-13 3.94374146e-12
1.73780083e+00 6.62180563e-12 3.68051368e-12 6.59063211e-14 2.87538562e-12 4.44282872e-13 3.68051368e-12
1.99526231e+00 7.58639065e-12 3.43485522e-12 4.88105193e-14 4.10272491e-12 5.10482942e-13 3.43485522e-12
2.29086765e+00 8.58464913e-12 3.20559341e-12 3.47744000e-14 5.34428132e-12 5.20093872e-13 3.20559341e-12
2.63026799e+00 9.43146252e-12 2.99163384e-12 2.56617374e-14 6.41416695e-12 4.81792886e-13 2.99163384e-12
3.01995172e+00 1.00191538e-11 2.79195514e-12 1.83509670e-14 7.20884767e-12 4.15756178e-13 2.79195514e-12
3.46736850e+00 1.02978745e-11 2.60560415e-12 1.28969269e-14 7.67937346e-12 3.38425948e-13 2.60560415e-12
3.98107171e+00 1.02982417e-11 2.43169128e-12 9.17167515e-15 7.85737871e-12 2.60601344e-13 2.43169128e-12
4.57088190e+00 1.00119756e-11 2.26938634e-12 6.31248972e-15 7.73627677e-12 1.88258718e-13 2.26938634e-12
5.24807460e+00 9.36470818e-12 1.87643467e-12 3.68808259e-15 7.48458543e-12 1.25849558e-13 1.87643467e-12
6.02559586e+00 8.37870717e-12 1.23974809e-12 1.64918800e-15 7.13730989e-12 8.05715565e-14 1.23974809e-12
6.70000000e+00 7.69434351e-12 9.01797527e-13 8.61311310e-16 6.79168467e-12 5.41565180e-14 9.01797527e-13
6.92422916e+00 7.50722055e-12 8.16994532e-13 6.94045237e-16 6.68953197e-12 4.74883665e-14 8.16994532e-13
7.15596261e+00 7.36482992e-12 7.40166218e-13 5.51852384e-16 6.62411185e-12 4.10755947e-14 7.40166218e-13
7.39545150e+00 7.28863145e-12 6.70562664e-13 4.21222488e-16 6.61764756e-12 3.49219677e-14 6.70562664e-13
7.64295536e+00 7.52923219e-12 6.07504471e-13 2.89462654e-16 6.92143826e-12 2.86897520e-14 6.07504471e-13
7.89874245e+00 8.14980756e-12 5.50376127e-13 1.72691785e-16 7.59925874e-12 2.18932324e-14 5.50376127e-13
8.16308998e+00 8.89344178e-12 4.98620004e-13 9.62386532e-17 8.39472554e-12 1.63715664e-14 4.98620004e-13
8.43628443e+00 9.86872322e-12 4.51730909e-13 5.14310782e-17 9.41694088e-12 1.18506566e-14 4.51730909e-13
8.71862190e+00 1.03911921e-11 4.09251158e-13 3.33013723e-17 9.98190769e-12 9.04065814e-15 4.09251158e-13
9.01040836e+00 1.08362746e-11 3.70766106e-13 2.16708441e-17 1.04654868e-11 7.01102268e-15 3.70766106e-13
9.31196005e+00 1.11990253e-11 3.35900102e-13 0.00000000e+00 1.08631252e-11 0.00000000e+00 3.35900102e-13
9.62360379e+00 1.10165624e-11 3.04312818e-13 0.00000000e+00 1.07122495e-11 0.00000000e+00 3.04312818e-13
9.94567731e+00 1.04346776e-11 2.75695930e-13 0.00000000e+00 1.01589817e-11 0.00000000e+00 2.75695930e-13
1.02785297e+01 1.00222858e-11 2.49770110e-13 0.00000000e+00 9.77251569e-12 0.00000000e+00 2.49770110e-13
1.06225216e+01 9.39212526e-12 2.26282295e-13 0.00000000e+00 9.16584296e-12 0.00000000e+00 2.26282295e-13
1.09780260e+01 8.86128870e-12 2.05003220e-13 0.00000000e+00 8.65628548e-12 0.00000000e+00 2.05003220e-13
1.13454280e+01 8.37250353e-12 1.85725182e-13 0.00000000e+00 8.18677834e-12 0.00000000e+00 1.85725182e-13
1.17251259e+01 7.90842827e-12 1.68260007e-13 0.00000000e+00 7.74016827e-12 0.00000000e+00 1.68260007e-13
1.21175312e+01 7.49311350e-12 1.52437217e-13 0.00000000e+00 7.34067628e-12 0.00000000e+00 1.52437217e-13
1.25230691e+01 7.10460641e-12 1.38102367e-13 0.00000000e+00 6.96650404e-12 0.00000000e+00 1.38102367e-13
1.29421791e+01 6.76050698e-12 1.25115533e-13 0.00000000e+00 6.63539145e-12 0.00000000e+00 1.25115533e-13
1.33753155e+01 6.40864148e-12 1.13349952e-13 0.00000000e+00 6.29529152e-12 0.00000000e+00 1.13349952e-13
1.38229477e+01 6.19357464e-12 1.02690779e-13 0.00000000e+00 6.09088386e-12 0.00000000e+00 1.02690779e-13
1.42855609e+01 6.07643583e-12 9.30339713e-14 0.00000000e+00 5.98340186e-12 0.00000000e+00 9.30339713e-14
1.47636563e+01 6.16075294e-12 8.42852675e-14 0.00000000e+00 6.07646768e-12 0.00000000e+00 8.42852675e-14
1.52577522e+01 6.28277370e-12 7.63592720e-14 0.00000000e+00 6.20641443e-12 0.00000000e+00 7.63592720e-14
1.57683840e+01 6.43956350e-12 6.91786191e-14 0.00000000e+00 6.37038488e-12 0.00000000e+00 6.91786191e-14
1.62961051e+01 6.61989841e-12 6.26732185e-14 0.00000000e+00 6.55722519e-12 0.00000000e+00 6.26732185e-14
1.68414875e+01 6.78564062e-12 5.67795711e-14 0.00000000e+00 6.72886105e-12 0.00000000e+00 5.67795711e-14
1.74051222e+01 6.90114695e-12 5.14401489e-14 0.00000000e+00 6.84970680e-12 0.00000000e+00 5.14401489e-14
1.79876201e+01 7.01097757e-12 4.66028339e-14 0.00000000e+00 6.96437474e-12 0.00000000e+00 4.66028339e-14
1.85896125e+01 7.00730762e-12 4.22204090e-14 0.00000000e+00 6.96508722e-12 0.00000000e+00 4.22204090e-14
1.92117518e+01 6.94705129e-12 3.82500974e-14 0.00000000e+00 6.90880120e-12 0.00000000e+00 3.82500974e-14
1.98547123e+01 6.84905643e-12 3.46531450e-14 0.00000000e+00 6.81440328e-12 0.00000000e+00 3.46531450e-14
2.05191907e+01 6.71852807e-12 3.13944418e-14 0.00000000e+00 6.68713363e-12 0.00000000e+00 3.13944418e-14
2.12059073e+01 6.62579167e-12 2.84421796e-14 0.00000000e+00 6.59734950e-12 0.00000000e+00 2.84421796e-14
2.19156062e+01 6.49711292e-12 2.57675415e-14 0.00000000e+00 6.47134538e-12 0.00000000e+00 2.57675415e-14
2.26490567e+01 6.36718724e-12 2.33444203e-14 0.00000000e+00 6.34384282e-12 0.00000000e+00 2.33444203e-14
2.34070535e+01 6.24679724e-12 2.11491639e-14 0.00000000e+00 6.22564808e-12 0.00000000e+00 2.11491639e-14
2.41904183e+01 6.11890424e-12 1.91603445e-14 0.00000000e+00 6.09974390e-12 0.00000000e+00 1.91603445e-14
2.50000000e+01 5.99868101e-12 1.73585491e-14 0.00000000e+00 5.98132246e-12 0.00000000e+00 1.73585491e-14
2.75422870e+01 5.54337200e-12 1.29817562e-14 0.00000000e+00 5.53039024e-12 0.00000000e+00 1.29817562e-14
3.16227766e+01 4.78334563e-12 8.57696126e-15 0.00000000e+00 4.77476867e-12 0.00000000e+00 8.57696126e-15
3.63078055e+01 3.88559492e-12 5.66674211e-15 0.00000000e+00 3.87992818e-12 0.00000000e+00 5.66674211e-15
4.16869383e+01 2.93837702e-12 3.74397938e-15 0.00000000e+00 2.93463305e-12 0.00000000e+00 3.74397938e-15
4.78630092e+01 2.06568235e-12 2.47362265e-15 0.00000000e+00 2.06320872e-12 0.00000000e+00 2.47362265e-15
5.49540874e+01 1.36484052e-12 1.63430628e-15 0.00000000e+00 1.36320621e-12 0.00000000e+00 1.63430628e-15
6.30957344e+01 8.58268838e-13 1.07977545e-15 0.00000000e+00 8.57189062e-13 0.00000000e+00 1.07977545e-15
7.24435960e+01 5.17420784e-13 7.13400564e-16 0.00000000e+00 5.16707384e-13 0.00000000e+00 7.13400564e-16
8.31763771e+01 3.02244429e-13 4.71339078e-16 0.00000000e+00 3.01773090e-13 0.00000000e+00 4.71339078e-16
9.54992586e+01 1.72604138e-13 3.11410641e-16 0.00000000e+00 1.72292727e-13 0.00000000e+00 3.11410641e-16
1.09647820e+02 9.67605052e-14 2.05746970e-16 0.00000000e+00 9.65547582e-14 0.00000000e+00 2.05746970e-16
1.25892541e+02 5.40900652e-14 1.35935675e-16 0.00000000e+00 5.39541295e-14 0.00000000e+00 1.35935675e-16
1.44543977e+02 3.00153385e-14 8.98118099e-17 0.00000000e+00 2.99255267e-14 0.00000000e+00 8.98118099e-17
1.65958691e+02 1.58543734e-14 5.93380743e-17 0.00000000e+00 1.57950353e-14 0.00000000e+00 5.93380743e-17
1.90546072e+02 8.37046322e-15 3.92042769e-17 0.00000000e+00 8.33125894e-15 0.00000000e+00 3.92042769e-17
2.18776162e+02 4.40719772e-15 2.59020089e-17 0.00000000e+00 4.38129571e-15 0.00000000e+00 2.59020089e-17
2.51188643e+02 2.31097987e-15 1.71132876e-17 0.00000000e+00 2.29386658e-15 0.00000000e+00 1.71132876e-17
2.88403150e+02 1.20555550e-15 1.13066370e-17 0.00000000e+00 1.19424886e-15 0.00000000e+00 1.13066370e-17
3.31131121e+02 6.27072231e-16 7.47022097e-18 0.00000000e+00 6.19602010e-16 0.00000000e+00 7.47022097e-18
3.80189396e+02 3.24944231e-16 4.93552605e-18 0.00000000e+00 3.20008705e-16 0.00000000e+00 4.93552605e-18
4.36515832e+02 1.68030514e-16 3.26086972e-18 0.00000000e+00 1.64769645e-16 0.00000000e+00 3.26086972e-18
5.01187234e+02 8.67194035e-17 2.15443526e-18 0.00000000e+00 8.45649682e-17 0.00000000e+00 2.15443526e-18
5.75439937e+02 4.47087077e-17 1.42342126e-18 0.00000000e+00 4.32852864e-17 0.00000000e+00 1.42342126e-18
6.60693448e+02 2.30450998e-17 9.40445101e-19 0.00000000e+00 2.21046547e-17 0.00000000e+00 9.40445101e-19
7.58577575e+02 1.18870117e-17 6.21345916e-19 0.00000000e+00 1.12656658e-17 0.00000000e+00 6.21345916e-19
8.70963590e+02 6.14058981e-18 4.10519176e-19 0.00000000e+00 5.73007063e-18 0.00000000e+00 4.10519176e-19
1.00000000e+03 2.90908330e-18 0.00000000e+00 0.00000000e+00 2.90908330e-18 0.00000000e+00 0.00000000e+00
