# column 1: lambda (micron)
# column 2: total flux; lambda*F_lambda (W/m2)
# column 3: direct stellar flux; lambda*F_lambda (W/m2)
# column 4: scattered stellar flux; lambda*F_lambda (W/m2)
# column 5: total dust emission flux; lambda*F_lambda (W/m2)
# column 6: dust emission scattered flux; lambda*F_lambda (W/m2)
# column 7: transparent flux; lambda*F_lambda (W/m2)
1.00000000e-03 9.68076888e-13 9.68073281e-13 3.60652869e-18 0.00000000e+00 0.00000000e+00 9.68073281e-13
1.14815362e-03 1.14264253e-12 1.14263687e-12 5.65651601e-18 0.00000000e+00 0.00000000e+00 1.14263687e-12
1.31825674e-03 1.34868672e-12 1.34867788e-12 8.83931104e-18 0.00000000e+00 0.00000000e+00 1.34867788e-12
1.51356125e-03 1.59188590e-12 1.59187233e-12 1.35712864e-17 0.00000000e+00 0.00000000e+00 1.59187233e-12
1.73780083e-03 1.87894378e-12 1.87891976e-12 2.40184233e-17 0.00000000e+00 0.00000000e+00 1.87891976e-12
1.99526231e-03 2.21777133e-12 2.21772777e-12 4.35635828e-17 0.00000000e+00 0.00000000e+00 2.21772777e-12
2.29086765e-03 2.61769665e-12 2.61762985e-12 6.68053835e-17 0.00000000e+00 0.00000000e+00 2.61762985e-12
2.63026799e-03 3.08977842e-12 3.08964252e-12 1.35900615e-16 0.00000000e+00 0.00000000e+00 3.08964252e-12
3.01995172e-03 3.64699512e-12 3.64676883e-12 2.26288490e-16 0.00000000e+00 0.00000000e+00 3.64676883e-12
3.46736850e-03 4.30472803e-12 4.30435650e-12 3.71526451e-16 0.00000000e+00 0.00000000e+00 4.30435650e-12
3.98107171e-03 5.08112543e-12 5.08052080e-12 6.04632377e-16 0.00000000e+00 0.00000000e+00 5.08052080e-12
4.57088190e-03 5.99797992e-12 5.99664354e-12 1.33637914e-15 0.00000000e+00 0.00000000e+00 5.99664354e-12
5.24807460e-03 7.08037053e-12 7.07796211e-12 2.40841717e-15 0.00000000e+00 0.00000000e+00 7.07796211e-12
6.02559586e-03 8.35871115e-12 8.35426474e-12 4.44640558e-15 0.00000000e+00 0.00000000e+00 8.35426474e-12
6.91830971e-03 9.86770680e-12 9.86071107e-12 6.99572573e-15 0.00000000e+00 0.00000000e+00 9.86071107e-12
7.94328235e-03 1.16506481e-11 1.16388008e-11 1.18473292e-14 0.00000000e+00 0.00000000e+00 1.16388008e-11
9.12010839e-03 1.37578714e-11 1.37375167e-11 2.03547189e-14 0.00000000e+00 0.00000000e+00 1.37375167e-11
1.04712855e-02 1.53835554e-11 1.53429287e-11 4.06267320e-14 0.00000000e+00 0.00000000e+00 1.53429287e-11
1.20226443e-02 1.53929453e-11 1.53429287e-11 5.00166815e-14 0.00000000e+00 0.00000000e+00 1.53429287e-11
1.38038426e-02 1.54051906e-11 1.53429287e-11 6.22619828e-14 1.05715931e-290 1.55185941e-291 1.53429287e-11
1.58489319e-02 1.54283479e-11 1.53429287e-11 8.54192444e-14 7.48533710e-254 8.72896831e-255 1.53429287e-11
1.81970086e-02 1.54571288e-11 1.53429287e-11 1.14200171e-13 9.23891972e-222 1.16000067e-222 1.53429287e-11
2.08929613e-02 1.55022032e-11 1.53429287e-11 1.59274495e-13 7.44035025e-194 9.49674973e-195 1.53429287e-11
2.39883292e-02 1.55573268e-11 1.53429287e-11 2.14398170e-13 1.47644589e-169 1.96691002e-170 1.53429287e-11
2.75422870e-02 1.56087552e-11 1.53429287e-11 2.65826581e-13 2.13606515e-148 3.17436817e-149 1.53429287e-11
3.16227766e-02 1.56811862e-11 1.53429287e-11 3.38257569e-13 5.43412785e-130 8.25863354e-131 1.53429287e-11
3.63078055e-02 1.57274176e-11 1.53429287e-11 3.84488985e-13 5.59543540e-114 8.65803277e-115 1.53429287e-11
4.16869383e-02 1.58367590e-11 1.53429287e-11 4.93830365e-13 4.84895846e-100 8.33476645e-101 1.53429287e-11
4.78630092e-02 1.59526776e-11 1.53429287e-11 6.09748943e-13 6.29297502e-88 1.22581914e-88 1.53429287e-11
5.49540874e-02 1.60262715e-11 1.53429287e-11 6.83342833e-13 2.09013434e-77 4.48607530e-78 1.53429287e-11
6.30957344e-02 1.60501765e-11 1.53429287e-11 7.07247816e-13 3.71471022e-68 8.79968058e-69 1.53429287e-11
7.24435960e-02 1.59576797e-11 1.53429287e-11 6.14751010e-13 3.83188467e-60 8.63647447e-61 1.53429287e-11
8.31763771e-02 1.59371895e-11 1.53429287e-11 5.94260801e-13 2.92197430e-53 6.41710191e-54 1.53429287e-11
9.54992586e-02 1.59702453e-11 1.53429287e-11 6.27316626e-13 2.74723451e-47 6.26259033e-48 1.53429287e-11
1.09647820e-01 1.53137103e-11 1.46523889e-11 6.61321397e-13 3.91618735e-42 9.53274628e-43 1.46523889e-11
1.25892541e-01 1.43272286e-11 1.36744049e-11 6.52823655e-13 1.11086021e-37 2.63202017e-38 1.36744049e-11
1.44543977e-01 1.33635762e-11 1.27616972e-11 6.01878986e-13 7.63701732e-34 1.75833119e-34 1.27616972e-11
1.65958691e-01 1.25288136e-11 1.19099088e-11 6.18904785e-13 1.23160468e-30 3.08023616e-31 1.19099088e-11
1.90546072e-01 1.17635111e-11 1.11149736e-11 6.48537519e-13 5.41541078e-28 1.54794389e-28 1.11149736e-11
2.18776162e-01 1.09598230e-11 1.03730969e-11 5.86726078e-13 9.09027458e-26 2.68711885e-26 1.03730969e-11
2.51188643e-01 1.03547059e-11 9.68073733e-12 6.73968521e-13 1.33045240e-23 4.60022277e-24 9.68073733e-12
2.88403150e-01 9.66439668e-12 9.03458975e-12 6.29806924e-13 9.80633924e-22 3.40325251e-22 9.03458975e-12
3.31131121e-01 9.01233797e-12 8.43156974e-12 5.80768190e-13 3.93696885e-20 1.35458158e-20 8.43156974e-12
3.80189396e-01 8.40508061e-12 7.86879872e-12 5.36280936e-13 9.48963699e-19 3.25822236e-19 7.86879872e-12
4.36515832e-01 7.83057016e-12 7.34359025e-12 4.86965397e-13 1.45121727e-17 4.98606236e-18 7.34359025e-12
5.01187234e-01 7.30125882e-12 6.85343719e-12 4.47672156e-13 1.49483001e-16 5.10312819e-17 6.85343719e-12
5.75439937e-01 6.79665711e-12 6.39599973e-12 3.99587755e-13 1.06963105e-15 3.60261809e-16 6.39599973e-12
6.60693448e-01 6.33853896e-12 5.96909425e-12 3.63714871e-13 5.72983887e-15 1.87805712e-15 5.96909425e-12
7.58577575e-01 5.91796711e-12 5.57068288e-12 3.23959867e-13 2.33243575e-14 7.42245072e-15 5.57068288e-12
8.70963590e-01 5.55555284e-12 5.19886376e-12 2.79593930e-13 7.70951532e-14 2.32079470e-14 5.19886376e-12
1.00000000e+00 5.29885693e-12 4.85186196e-12 2.38168958e-13 2.08826012e-13 5.86082376e-14 4.85186196e-12
1.14815362e+00 5.21816746e-12 4.52802104e-12 1.93536839e-13 4.96609580e-13 1.26230542e-13 4.52802104e-12
1.31825674e+00 5.40892721e-12 4.22579511e-12 1.51489925e-13 1.03164218e-12 2.29638711e-13 4.22579511e-12
1.51356125e+00 5.97626914e-12 3.94374146e-12 1.15907461e-13 1.91662021e-12 3.65524810e-13 3.94374146e-12
1.73780083e+00 6.91612928e-12 3.68051368e-12 8.95071165e-14 3.14610848e-12 5.00624528e-13 3.68051368e-12
1.99526231e+00 8.11342005e-12 3.43485522e-12 6.61905983e-14 4.61237423e-12 5.93897052e-13 3.43485522e-12
2.29086765e+00 9.33615978e-12 3.20559341e-12 4.78156312e-14 6.08275074e-12 6.12223920e-13 3.20559341e-12
2.63026799e+00 1.04531779e-11 2.99163384e-12 3.44865754e-14 7.42705748e-12 5.68415649e-13 2.99163384e-12
3.01995172e+00 1.12579952e-11 2.79195514e-12 2.39655299e-14 8.44207450e-12 4.85890502e-13 2.79195514e-12
3.46736850e+00 1.16430604e-11 2.60560415e-12 1.65539739e-14 9.02090233e-12 3.79872804e-13 2.60560415e-12
3.98107171e+00 1.16786276e-11 2.43169128e-12 1.11275758e-14 9.23580872e-12 2.79614712e-13 2.43169128e-12
4.57088190e+00 1.13390978e-11 2.26938634e-12 7.38786292e-15 9.06232359e-12 1.91092826e-13 2.26938634e-12
5.24807460e+00 1.05848670e-11 1.87643467e-12 4.12922903e-15 8.70430315e-12 1.24071923e-13 1.87643467e-12
6.02559586e+00 9.52247934e-12 1.23974809e-12 1.75622742e-15 8.28097502e-12 7.64451063e-14 1.23974809e-12
6.70000000e+00 8.80485862e-12 9.01797527e-13 8.93374835e-16 7.90216772e-12 5.04090080e-14 9.01797527e-13
6.92422916e+00 8.59928435e-12 8.16994532e-13 7.13279084e-16 7.78157654e-12 4.38058295e-14 8.16994532e-13
7.15596261e+00 8.43660560e-12 7.40166218e-13 5.66205672e-16 7.69587317e-12 3.80959212e-14 7.40166218e-13
7.39545150e+00 8.42020031e-12 6.70562664e-13 4.35446927e-16 7.74920220e-12 3.24731517e-14 6.70562664e-13
7.64295536e+00 8.77516430e-12 6.07504471e-13 3.05569605e-16 8.16735426e-12 2.72181880e-14 6.07504471e-13
7.89874245e+00 9.62293286e-12 5.50376127e-13 1.90015455e-16 9.07236672e-12 2.17931976e-14 5.50376127e-13
8.16308998e+00 1.07914167e-11 4.98620004e-13 1.12449495e-16 1.02926843e-11 1.71318205e-14 4.98620004e-13
8.43628443e+00 1.21933065e-11 4.51730909e-13 6.32292331e-17 1.17415124e-11 1.29686204e-14 4.51730909e-13
8.71862190e+00 1.31414071e-11 4.09251158e-13 3.96585981e-17 1.27321163e-11 1.01925864e-14 4.09251158e-13
9.01040836e+00 1.39835813e-11 3.70766106e-13 2.42317081e-17 1.36127910e-11 7.86067003e-15 3.70766106e-13
9.31196005e+00 1.45955648e-11 3.35900102e-13 0.00000000e+00 1.42596647e-11 0.00000000e+00 3.35900102e-13
9.62360379e+00 1.44565836e-11 3.04312818e-13 0.00000000e+00 1.41522708e-11 0.00000000e+00 3.04312818e-13
9.94567731e+00 1.36944235e-11 2.75695930e-13 0.00000000e+00 1.34187276e-11 0.00000000e+00 2.75695930e-13
1.02785297e+01 1.29433721e-11 2.49770110e-13 0.00000000e+00 1.26936019e-11 0.00000000e+00 2.49770110e-13
1.06225216e+01 1.21946022e-11 2.26282295e-13 0.00000000e+00 1.19683199e-11 0.00000000e+00 2.26282295e-13
1.09780260e+01 1.13522109e-11 2.05003220e-13 0.00000000e+00 1.11472076e-11 0.00000000e+00 2.05003220e-13
1.13454280e+01 1.06229486e-11 1.85725182e-13 0.00000000e+00 1.04372235e-11 0.00000000e+00 1.85725182e-13
1.17251259e+01 1.00452888e-11 1.68260007e-13 0.00000000e+00 9.87702881e-12 0.00000000e+00 1.68260007e-13
1.21175312e+01 9.46995536e-12 1.52437217e-13 0.00000000e+00 9.31751814e-12 0.00000000e+00 1.52437217e-13
1.25230691e+01 8.90780536e-12 1.38102367e-13 0.00000000e+00 8.76970300e-12 0.00000000e+00 1.38102367e-13
1.29421791e+01 8.43517508e-12 1.25115533e-13 0.00000000e+00 8.31005955e-12 0.00000000e+00 1.25115533e-13
1.33753155e+01 8.05063194e-12 1.13349952e-13 0.00000000e+00 7.93728198e-12 0.00000000e+00 1.13349952e-13
1.38229477e+01 7.79606365e-12 1.02690779e-13 0.00000000e+00 7.69337287e-12 0.00000000e+00 1.02690779e-13
1.42855609e+01 7.70625295e-12 9.30339713e-14 0.00000000e+00 7.61321898e-12 0.00000000e+00 9.30339713e-14
1.47636563e+01 7.85952293e-12 8.42852675e-14 0.00000000e+00 7.77523767e-12 0.00000000e+00 8.42852675e-14
1.52577522e+01 8.08575818e-12 7.63592720e-14 0.00000000e+00 8.00939891e-12 0.00000000e+00 7.63592720e-14
1.57683840e+01 8.38974781e-12 6.91786191e-14 0.00000000e+00 8.32056919e-12 0.00000000e+00 6.91786191e-14
1.62961051e+01 8.64399045e-12 6.26732185e-14 0.00000000e+00 8.58131724e-12 0.00000000e+00 6.26732185e-14
1.68414875e+01 8.91233378e-12 5.67795711e-14 0.00000000e+00 8.85555421e-12 0.00000000e+00 5.67795711e-14
1.74051222e+01 9.18019734e-12 5.14401489e-14 0.00000000e+00 9.12875719e-12 0.00000000e+00 5.14401489e-14
1.79876201e+01 9.25551001e-12 4.66028339e-14 0.00000000e+00 9.20890718e-12 0.00000000e+00 4.66028339e-14
1.85896125e+01 9.36735056e-12 4.22204090e-14 0.00000000e+00 9.32513015e-12 0.00000000e+00 4.22204090e-14
1.92117518e+01 9.30978869e-12 3.82500974e-14 0.00000000e+00 9.27153859e-12 0.00000000e+00 3.82500974e-14
1.98547123e+01 9.22501942e-12 3.46531450e-14 0.00000000e+00 9.19036628e-12 0.00000000e+00 3.46531450e-14
2.05191907e+01 9.12304771e-12 3.13944418e-14 0.00000000e+00 9.09165327e-12 0.00000000e+00 3.13944418e-14
2.12059073e+01 8.93671896e-12 2.84421796e-14 0.00000000e+00 8.90827678e-12 0.00000000e+00 2.84421796e-14
2.19156062e+01 8.79569134e-12 2.57675415e-14 0.00000000e+00 8.76992380e-12 0.00000000e+00 2.57675415e-14
2.26490567e+01 8.66116579e-12 2.33444203e-14 0.00000000e+00 8.63782137e-12 0.00000000e+00 2.33444203e-14
2.34070535e+01 8.47106427e-12 2.11491639e-14 0.00000000e+00 8.44991510e-12 0.00000000e+00 2.11491639e-14
2.41904183e+01 8.34083924e-12 1.91603445e-14 0.00000000e+00 8.32167890e-12 0.00000000e+00 1.91603445e-14
2.50000000e+01 8.15067738e-12 1.73585491e-14 0.00000000e+00 8.13331883e-12 0.00000000e+00 1.73585491e-14
2.75422870e+01 7.54287705e-12 1.29817562e-14 0.00000000e+00 7.52989530e-12 0.00000000e+00 1.29817562e-14
3.16227766e+01 6.47001418e-12 8.57696126e-15 0.00000000e+00 6.46143722e-12 0.00000000e+00 8.57696126e-15
3.63078055e+01 5.17866221e-12 5.66674211e-15 0.00000000e+00 5.17299547e-12 0.00000000e+00 5.66674211e-15
4.16869383e+01 3.86951261e-12 3.74397938e-15 0.00000000e+00 3.86576863e-12 0.00000000e+00 3.74397938e-15
4.78630092e+01 2.68427491e-12 2.47362265e-15 0.00000000e+00 2.68180128e-12 0.00000000e+00 2.47362265e-15
5.49540874e+01 1.74725099e-12 1.63430628e-15 0.00000000e+00 1.74561669e-12 0.00000000e+00 1.63430628e-15
6.30957344e+01 1.08228348e-12 1.07977545e-15 0.00000000e+00 1.08120370e-12 0.00000000e+00 1.07977545e-15
7.24435960e+01 6.43099025e-13 7.13400564e-16 0.00000000e+00 6.42385624e-13 0.00000000e+00 7.13400564e-16
8.31763771e+01 3.71272519e-13 4.71339078e-16 0.00000000e+00 3.70801180e-13 0.00000000e+00 4.71339078e-16
9.54992586e+01 2.09437301e-13 3.11410641e-16 0.00000000e+00 2.09125890e-13 0.00000000e+00 3.11410641e-16
1.09647820e+02 1.16162081e-13 2.05746970e-16 0.00000000e+00 1.15956334e-13 0.00000000e+00 2.05746970e-16
1.25892541e+02 6.43628692e-14 1.35935675e-16 0.00000000e+00 6.42269335e-14 0.00000000e+00 1.35935675e-16
1.44543977e+02 3.54236434e-14 8.98118099e-17 0.00000000e+00 3.53338316e-14 0.00000000e+00 8.98118099e-17
1.65958691e+02 1.85763753e-14 5.93380743e-17 0.00000000e+00 1.85170372e-14 0.00000000e+00 5.93380743e-17
1.90546072e+02 9.74383233e-15 3.92042769e-17 0.00000000e+00 9.70462806e-15 0.00000000e+00 3.92042769e-17
2.18776162e+02 5.10184963e-15 2.59020089e-17 0.00000000e+00 5.07594763e-15 0.00000000e+00 2.59020089e-17
2.51188643e+02 2.66204884e-15 1.71132876e-17 0.00000000e+00 2.64493555e-15 0.00000000e+00 1.71132876e-17
2.88403150e+02 1.38270120e-15 1.13066370e-17 0.00000000e+00 1.37139456e-15 0.00000000e+00 1.13066370e-17
3.31131121e+02 7.16397540e-16 7.47022097e-18 0.00000000e+00 7.08927319e-16 0.00000000e+00 7.47022097e-18
3.80189396e+02 3.69958327e-16 4.93552605e-18 0.00000000e+00 3.65022801e-16 0.00000000e+00 4.93552605e-18
4.36515832e+02 1.90710114e-16 3.26086972e-18 0.00000000e+00 1.87449244e-16 0.00000000e+00 3.26086972e-18
5.01187234e+02 9.81362418e-17 2.15443526e-18 0.00000000e+00 9.59818066e-17 0.00000000e+00 2.15443526e-18
5.75439937e+02 5.04541626e-17 1.42342126e-18 0.00000000e+00 4.90307413e-17 0.00000000e+00 1.42342126e-18
6.60693448e+02 2.59358398e-17 9.40445101e-19 0.00000000e+00 2.49953947e-17 0.00000000e+00 9.40445101e-19
7.58577575e+02 1.33411360e-17 6.21345916e-19 0.00000000e+00 1.27197901e-17 0.00000000e+00 6.21345916e-19
8.70963590e+02 6.87182567e-18 4.10519176e-19 0.00000000e+00 6.46130650e-18 0.00000000e+00 4.10519176e-19
1.00000000e+03 3.27661589e-18 0.00000000e+00 0.00000000e+00 3.27661589e-18 0.00000000e+00 0.00000000e+00
