# column 1: lambda (micron)
# column 2: total flux; lambda*F_lambda (W/m2)
# column 3: direct stellar flux; lambda*F_lambda (W/m2)
# column 4: scattered stellar flux; lambda*F_lambda (W/m2)
# column 5: total dust emission flux; lambda*F_lambda (W/m2)
# column 6: dust emission scattered flux; lambda*F_lambda (W/m2)
# column 7: transparent flux; lambda*F_lambda (W/m2)
1.00000000e-03 9.68084472e-13 9.68073281e-13 1.11908103e-17 0.00000000e+00 0.00000000e+00 9.68073281e-13
1.14815362e-03 1.14265449e-12 1.14263687e-12 1.76201766e-17 0.00000000e+00 0.00000000e+00 1.14263687e-12
1.31825674e-03 1.34870527e-12 1.34867788e-12 2.73955193e-17 0.00000000e+00 0.00000000e+00 1.34867788e-12
1.51356125e-03 1.59191472e-12 1.59187233e-12 4.23859983e-17 0.00000000e+00 0.00000000e+00 1.59187233e-12
1.73780083e-03 1.87899246e-12 1.87891976e-12 7.27015964e-17 0.00000000e+00 0.00000000e+00 1.87891976e-12
1.99526231e-03 2.21785384e-12 2.21772777e-12 1.26073150e-16 0.00000000e+00 0.00000000e+00 2.21772777e-12
2.29086765e-03 2.61782141e-12 2.61762985e-12 1.91569006e-16 0.00000000e+00 0.00000000e+00 2.61762985e-12
2.63026799e-03 3.09005291e-12 3.08964252e-12 4.10385936e-16 0.00000000e+00 0.00000000e+00 3.08964252e-12
3.01995172e-03 3.64744204e-12 3.64676883e-12 6.73216125e-16 0.00000000e+00 0.00000000e+00 3.64676883e-12
3.46736850e-03 4.30542308e-12 4.30435650e-12 1.06657545e-15 0.00000000e+00 0.00000000e+00 4.30435650e-12
3.98107171e-03 5.08229608e-12 5.08052080e-12 1.77528183e-15 0.00000000e+00 0.00000000e+00 5.08052080e-12
4.57088190e-03 6.00063328e-12 5.99664354e-12 3.98974292e-15 0.00000000e+00 0.00000000e+00 5.99664354e-12
5.24807460e-03 7.08471583e-12 7.07796211e-12 6.75371933e-15 0.00000000e+00 0.00000000e+00 7.07796211e-12
6.02559586e-03 8.40304249e-12 8.35426474e-12 4.87777496e-14 0.00000000e+00 0.00000000e+00 8.35426474e-12
6.91830971e-03 9.88081735e-12 9.86071107e-12 2.01062789e-14 0.00000000e+00 0.00000000e+00 9.86071107e-12
7.94328235e-03 1.16706221e-11 1.16388008e-11 3.18213673e-14 0.00000000e+00 0.00000000e+00 1.16388008e-11
9.12010839e-03 1.37936361e-11 1.37375167e-11 5.61194020e-14 0.00000000e+00 0.00000000e+00 1.37375167e-11
1.04712855e-02 1.54278732e-11 1.53429287e-11 8.49445257e-14 0.00000000e+00 0.00000000e+00 1.53429287e-11
1.20226443e-02 1.54746945e-11 1.53429287e-11 1.31765835e-13 1.55575556e-310 4.63861427e-311 1.53429287e-11
1.38038426e-02 1.55197441e-11 1.53429287e-11 1.76815481e-13 2.48685497e-271 6.12200312e-272 1.53429287e-11
1.58489319e-02 1.55690202e-11 1.53429287e-11 2.26091537e-13 3.77993534e-237 1.15542668e-237 1.53429287e-11
1.81970086e-02 1.56255448e-11 1.53429287e-11 2.82616086e-13 2.05075468e-207 6.74257210e-208 1.53429287e-11
2.08929613e-02 1.57185225e-11 1.53429287e-11 3.75593817e-13 1.39719319e-181 4.45922712e-182 1.53429287e-11
2.39883292e-02 1.57995909e-11 1.53429287e-11 4.56662235e-13 4.39223582e-159 1.47175190e-159 1.53429287e-11
2.75422870e-02 1.58600922e-11 1.53429287e-11 5.17163577e-13 1.57274294e-139 4.98741465e-140 1.53429287e-11
3.16227766e-02 1.59115602e-11 1.53429287e-11 5.68631514e-13 1.59323016e-122 4.88013341e-123 1.53429287e-11
3.63078055e-02 1.59127222e-11 1.53429287e-11 5.69793576e-13 9.59888258e-108 2.76879649e-108 1.53429287e-11
4.16869383e-02 1.59641730e-11 1.53429287e-11 6.21244376e-13 6.91639248e-95 2.04271961e-95 1.53429287e-11
4.78630092e-02 1.59481946e-11 1.53429287e-11 6.05265926e-13 9.27385630e-84 2.58818765e-84 1.53429287e-11
5.49540874e-02 1.58841916e-11 1.53429287e-11 5.41262915e-13 4.11922824e-74 1.14457655e-74 1.53429287e-11
6.30957344e-02 1.57951413e-11 1.53429287e-11 4.52212622e-13 1.05055644e-65 2.86899639e-66 1.53429287e-11
7.24435960e-02 1.56990833e-11 1.53429287e-11 3.56154614e-13 1.90045938e-58 4.86511665e-59 1.53429287e-11
8.31763771e-02 1.56849804e-11 1.53429287e-11 3.42051717e-13 4.38791088e-52 1.02847038e-52 1.53429287e-11
9.54992586e-02 1.56974960e-11 1.53429287e-11 3.54567384e-13 1.66541061e-46 3.55712866e-47 1.53429287e-11
1.09647820e-01 1.50552171e-11 1.46523889e-11 4.02828245e-13 1.35486706e-41 2.73599565e-42 1.46523889e-11
1.25892541e-01 1.41105680e-11 1.36744049e-11 4.36163073e-13 2.62664722e-37 5.00827600e-38 1.36744049e-11
1.44543977e-01 1.31969603e-11 1.27616972e-11 4.35263120e-13 1.38593124e-33 2.52378651e-34 1.27616972e-11
1.65958691e-01 1.23583518e-11 1.19099088e-11 4.48443025e-13 1.83590500e-30 3.53670539e-31 1.19099088e-11
1.90546072e-01 1.15667985e-11 1.11149736e-11 4.51824854e-13 6.72304871e-28 1.44739417e-28 1.11149736e-11
2.18776162e-01 1.07324134e-11 1.03730969e-11 3.59316421e-13 9.80910229e-26 2.19391648e-26 1.03730969e-11
2.51188643e-01 1.01178155e-11 9.68073733e-12 4.37078124e-13 1.31591283e-23 3.69295753e-24 9.68073733e-12
2.88403150e-01 9.47152925e-12 9.03458975e-12 4.36939498e-13 9.14731274e-22 2.71043272e-22 9.03458975e-12
3.31131121e-01 8.84970401e-12 8.43156974e-12 4.18134228e-13 3.58313794e-20 1.12784501e-20 8.43156974e-12
3.80189396e-01 8.27299210e-12 7.86879872e-12 4.04192524e-13 8.47669423e-19 2.78915910e-19 7.86879872e-12
4.36515832e-01 7.72275539e-12 7.34359025e-12 3.79152226e-13 1.29144636e-17 4.46255812e-18 7.34359025e-12
5.01187234e-01 7.20831889e-12 6.85343719e-12 3.54746338e-13 1.35366702e-16 4.81886041e-17 6.85343719e-12
5.75439937e-01 6.72981931e-12 6.39599973e-12 3.32810037e-13 1.00954917e-15 3.64481845e-16 6.39599973e-12
6.60693448e-01 6.27812804e-12 5.96909425e-12 3.03413307e-13 5.62048068e-15 2.02890072e-15 5.96909425e-12
7.58577575e-01 5.87002571e-12 5.57068288e-12 2.74899755e-13 2.44430656e-14 8.71261562e-15 5.57068288e-12
8.70963590e-01 5.52994822e-12 5.19886376e-12 2.45938246e-13 8.51462131e-14 2.90168646e-14 5.19886376e-12
1.00000000e+00 5.30587611e-12 4.85186196e-12 2.07581791e-13 2.46432357e-13 7.80306329e-14 4.85186196e-12
1.14815362e+00 5.30999468e-12 4.52802104e-12 1.73445283e-13 6.08528348e-13 1.74004589e-13 4.52802104e-12
1.31825674e+00 5.67028317e-12 4.22579511e-12 1.36565885e-13 1.30792217e-12 3.26210738e-13 4.22579511e-12
1.51356125e+00 6.57398380e-12 3.94374146e-12 1.08471643e-13 2.52177069e-12 5.35617050e-13 3.94374146e-12
1.73780083e+00 7.98339806e-12 3.68051368e-12 8.42509585e-14 4.21863342e-12 7.38168874e-13 3.68051368e-12
1.99526231e+00 9.86974243e-12 3.43485522e-12 6.42537830e-14 6.37063342e-12 8.95344394e-13 3.43485522e-12
2.29086765e+00 1.19369209e-11 3.20559341e-12 4.93309986e-14 8.68199654e-12 9.57872018e-13 3.20559341e-12
2.63026799e+00 1.38474186e-11 2.99163384e-12 3.64525946e-14 1.08193321e-11 9.23088389e-13 2.99163384e-12
3.01995172e+00 1.54291114e-11 2.79195514e-12 2.74257978e-14 1.26097304e-11 8.31733493e-13 2.79195514e-12
3.46736850e+00 1.65653358e-11 2.60560415e-12 1.99278168e-14 1.39398039e-11 7.04195121e-13 2.60560415e-12
3.98107171e+00 1.71629308e-11 2.43169128e-12 1.43900642e-14 1.47168495e-11 5.62362861e-13 2.43169128e-12
4.57088190e+00 1.73327862e-11 2.26938634e-12 1.00518210e-14 1.50533481e-11 4.19256742e-13 2.26938634e-12
5.24807460e+00 1.69284115e-11 1.87643467e-12 5.85389159e-15 1.50461229e-11 2.86856261e-13 1.87643467e-12
6.02559586e+00 1.59502749e-11 1.23974809e-12 2.64951872e-15 1.47078773e-11 1.85843534e-13 1.23974809e-12
6.70000000e+00 1.52180040e-11 9.01797527e-13 1.38089436e-15 1.43148256e-11 1.26260486e-13 9.01797527e-13
6.92422916e+00 1.49745336e-11 8.16994532e-13 1.12385886e-15 1.41564152e-11 1.11052772e-13 8.16994532e-13
7.15596261e+00 1.48089456e-11 7.40166218e-13 8.87446867e-16 1.40678920e-11 9.65490694e-14 7.40166218e-13
7.39545150e+00 1.47722447e-11 6.70562664e-13 6.73273630e-16 1.41010087e-11 8.16863595e-14 6.70562664e-13
7.64295536e+00 1.50853042e-11 6.07504471e-13 4.63773907e-16 1.44773359e-11 6.65974585e-14 6.07504471e-13
7.89874245e+00 1.58548246e-11 5.50376127e-13 2.75508625e-16 1.53041730e-11 5.00638935e-14 5.50376127e-13
8.16308998e+00 1.67201792e-11 4.98620004e-13 1.53343220e-16 1.62214058e-11 3.63395831e-14 4.98620004e-13
8.43628443e+00 1.77078981e-11 4.51730909e-13 7.99318223e-17 1.72560873e-11 2.53376187e-14 4.51730909e-13
8.71862190e+00 1.81938774e-11 4.09251158e-13 4.94154568e-17 1.77845769e-11 1.91241364e-14 4.09251158e-13
9.01040836e+00 1.84372565e-11 3.70766106e-13 3.07651220e-17 1.80664596e-11 1.43528100e-14 3.70766106e-13
9.31196005e+00 1.84475366e-11 3.35900102e-13 0.00000000e+00 1.81116365e-11 0.00000000e+00 3.35900102e-13
9.62360379e+00 1.82558997e-11 3.04312818e-13 0.00000000e+00 1.79515868e-11 0.00000000e+00 3.04312818e-13
9.94567731e+00 1.77516062e-11 2.75695930e-13 0.00000000e+00 1.74759103e-11 0.00000000e+00 2.75695930e-13
1.02785297e+01 1.72575102e-11 2.49770110e-13 0.00000000e+00 1.70077401e-11 0.00000000e+00 2.49770110e-13
1.06225216e+01 1.68285048e-11 2.26282295e-13 0.00000000e+00 1.66022225e-11 0.00000000e+00 2.26282295e-13
1.09780260e+01 1.63879326e-11 2.05003220e-13 0.00000000e+00 1.61829293e-11 0.00000000e+00 2.05003220e-13
1.13454280e+01 1.59148731e-11 1.85725182e-13 0.00000000e+00 1.57291479e-11 0.00000000e+00 1.85725182e-13
1.17251259e+01 1.54462933e-11 1.68260007e-13 0.00000000e+00 1.52780333e-11 0.00000000e+00 1.68260007e-13
1.21175312e+01 1.51953503e-11 1.52437217e-13 0.00000000e+00 1.50429131e-11 0.00000000e+00 1.52437217e-13
1.25230691e+01 1.48427783e-11 1.38102367e-13 0.00000000e+00 1.47046759e-11 0.00000000e+00 1.38102367e-13
1.29421791e+01 1.43816309e-11 1.25115533e-13 0.00000000e+00 1.42565154e-11 0.00000000e+00 1.25115533e-13
1.33753155e+01 1.40024834e-11 1.13349952e-13 0.00000000e+00 1.38891335e-11 0.00000000e+00 1.13349952e-13
1.38229477e+01 1.37775201e-11 1.02690779e-13 0.00000000e+00 1.36748293e-11 0.00000000e+00 1.02690779e-13
1.42855609e+01 1.36695577e-11 9.30339713e-14 0.00000000e+00 1.35765237e-11 0.00000000e+00 9.30339713e-14
1.47636563e+01 1.39074813e-11 8.42852675e-14 0.00000000e+00 1.38231961e-11 0.00000000e+00 8.42852675e-14
1.52577522e+01 1.41103877e-11 7.63592720e-14 0.00000000e+00 1.40340285e-11 0.00000000e+00 7.63592720e-14
1.57683840e+01 1.44811236e-11 6.91786191e-14 0.00000000e+00 1.44119450e-11 0.00000000e+00 6.91786191e-14
1.62961051e+01 1.47909940e-11 6.26732185e-14 0.00000000e+00 1.47283208e-11 0.00000000e+00 6.26732185e-14
1.68414875e+01 1.51044583e-11 5.67795711e-14 0.00000000e+00 1.50476788e-11 0.00000000e+00 5.67795711e-14
1.74051222e+01 1.53749065e-11 5.14401489e-14 0.00000000e+00 1.53234664e-11 0.00000000e+00 5.14401489e-14
1.79876201e+01 1.55126543e-11 4.66028339e-14 0.00000000e+00 1.54660515e-11 0.00000000e+00 4.66028339e-14
1.85896125e+01 1.55642186e-11 4.22204090e-14 0.00000000e+00 1.55219982e-11 0.00000000e+00 4.22204090e-14
1.92117518e+01 1.55346193e-11 3.82500974e-14 0.00000000e+00 1.54963692e-11 0.00000000e+00 3.82500974e-14
1.98547123e+01 1.53911398e-11 3.46531450e-14 0.00000000e+00 1.53564867e-11 0.00000000e+00 3.46531450e-14
2.05191907e+01 1.52420922e-11 3.13944418e-14 0.00000000e+00 1.52106978e-11 0.00000000e+00 3.13944418e-14
2.12059073e+01 1.50175596e-11 2.84421796e-14 0.00000000e+00 1.49891175e-11 0.00000000e+00 2.84421796e-14
2.19156062e+01 1.47799344e-11 2.57675415e-14 0.00000000e+00 1.47541669e-11 0.00000000e+00 2.57675415e-14
2.26490567e+01 1.45380936e-11 2.33444203e-14 0.00000000e+00 1.45147492e-11 0.00000000e+00 2.33444203e-14
2.34070535e+01 1.41908854e-11 2.11491639e-14 0.00000000e+00 1.41697362e-11 0.00000000e+00 2.11491639e-14
2.41904183e+01 1.38692187e-11 1.91603445e-14 0.00000000e+00 1.38500583e-11 0.00000000e+00 1.91603445e-14
2.50000000e+01 1.35610096e-11 1.73585491e-14 0.00000000e+00 1.35436511e-11 0.00000000e+00 1.73585491e-14
2.75422870e+01 1.23553888e-11 1.29817562e-14 0.00000000e+00 1.23424070e-11 0.00000000e+00 1.29817562e-14
3.16227766e+01 1.03634108e-11 8.57696126e-15 0.00000000e+00 1.03548338e-11 0.00000000e+00 8.57696126e-15
3.63078055e+01 8.14915621e-12 5.66674211e-15 0.00000000e+00 8.14348947e-12 0.00000000e+00 5.66674211e-15
4.16869383e+01 5.96644919e-12 3.74397938e-15 0.00000000e+00 5.96270521e-12 0.00000000e+00 3.74397938e-15
4.78630092e+01 4.06996779e-12 2.47362265e-15 0.00000000e+00 4.06749417e-12 0.00000000e+00 2.47362265e-15
5.49540874e+01 2.60628806e-12 1.63430628e-15 0.00000000e+00 2.60465376e-12 0.00000000e+00 1.63430628e-15
6.30957344e+01 1.59001783e-12 1.07977545e-15 0.00000000e+00 1.58893806e-12 0.00000000e+00 1.07977545e-15
7.24435960e+01 9.32380578e-13 7.13400564e-16 0.00000000e+00 9.31667177e-13 0.00000000e+00 7.13400564e-16
8.31763771e+01 5.30857758e-13 4.71339078e-16 0.00000000e+00 5.30386419e-13 0.00000000e+00 4.71339078e-16
9.54992586e+01 2.96094624e-13 3.11410641e-16 0.00000000e+00 2.95783213e-13 0.00000000e+00 3.11410641e-16
1.09647820e+02 1.62702970e-13 2.05746970e-16 0.00000000e+00 1.62497224e-13 0.00000000e+00 2.05746970e-16
1.25892541e+02 8.93570237e-14 1.35935675e-16 0.00000000e+00 8.92210881e-14 0.00000000e+00 1.35935675e-16
1.44543977e+02 4.87977185e-14 8.98118099e-17 0.00000000e+00 4.87079067e-14 0.00000000e+00 8.98118099e-17
1.65958691e+02 2.54254230e-14 5.93380743e-17 0.00000000e+00 2.53660849e-14 0.00000000e+00 5.93380743e-17
1.90546072e+02 1.32620024e-14 3.92042769e-17 0.00000000e+00 1.32227981e-14 0.00000000e+00 3.92042769e-17
2.18776162e+02 6.90949365e-15 2.59020089e-17 0.00000000e+00 6.88359164e-15 0.00000000e+00 2.59020089e-17
2.51188643e+02 3.58926234e-15 1.71132876e-17 0.00000000e+00 3.57214905e-15 0.00000000e+00 1.71132876e-17
2.88403150e+02 1.85677742e-15 1.13066370e-17 0.00000000e+00 1.84547079e-15 0.00000000e+00 1.13066370e-17
3.31131121e+02 9.58609960e-16 7.47022097e-18 0.00000000e+00 9.51139739e-16 0.00000000e+00 7.47022097e-18
3.80189396e+02 4.93367654e-16 4.93552605e-18 0.00000000e+00 4.88432128e-16 0.00000000e+00 4.93552605e-18
4.36515832e+02 2.53505184e-16 3.26086972e-18 0.00000000e+00 2.50244314e-16 0.00000000e+00 3.26086972e-18
5.01187234e+02 1.30035429e-16 2.15443526e-18 0.00000000e+00 1.27880994e-16 0.00000000e+00 2.15443526e-18
5.75439937e+02 6.66382285e-17 1.42342126e-18 0.00000000e+00 6.52148072e-17 0.00000000e+00 1.42342126e-18
6.60693448e+02 3.41368433e-17 9.40445101e-19 0.00000000e+00 3.31963982e-17 0.00000000e+00 9.40445101e-19
7.58577575e+02 1.74927573e-17 6.21345916e-19 0.00000000e+00 1.68714114e-17 0.00000000e+00 6.21345916e-19
8.70963590e+02 8.97109251e-18 4.10519176e-19 0.00000000e+00 8.56057334e-18 0.00000000e+00 4.10519176e-19
1.00000000e+03 4.33699425e-18 0.00000000e+00 0.00000000e+00 4.33699425e-18 0.00000000e+00 0.00000000e+00
