# column 1: lambda (micron)
# column 2: total flux; lambda*F_lambda (W/m2)
# column 3: direct stellar flux; lambda*F_lambda (W/m2)
# column 4: scattered stellar flux; lambda*F_lambda (W/m2)
# column 5: total dust emission flux; lambda*F_lambda (W/m2)
# column 6: dust emission scattered flux; lambda*F_lambda (W/m2)
# column 7: transparent flux; lambda*F_lambda (W/m2)
1.00000000e-03 1.07335959e-12 1.07335627e-12 3.31762139e-18 0.00000000e+00 0.00000000e+00 1.07335627e-12
1.14815362e-03 1.26690948e-12 1.26690456e-12 4.91992910e-18 0.00000000e+00 0.00000000e+00 1.26690456e-12
1.31825674e-03 1.49536092e-12 1.49535359e-12 7.32871425e-18 0.00000000e+00 0.00000000e+00 1.49535359e-12
1.51356125e-03 1.76500799e-12 1.76499670e-12 1.12872829e-17 0.00000000e+00 0.00000000e+00 1.76499670e-12
1.73780083e-03 2.08328201e-12 2.08326203e-12 1.99812080e-17 0.00000000e+00 0.00000000e+00 2.08326203e-12
1.99526231e-03 2.45895090e-12 2.45891716e-12 3.37368572e-17 0.00000000e+00 0.00000000e+00 2.45891716e-12
2.29086765e-03 2.90236270e-12 2.90231066e-12 5.20314003e-17 0.00000000e+00 0.00000000e+00 2.90231066e-12
2.63026799e-03 3.42576013e-12 3.42565717e-12 1.02960487e-16 0.00000000e+00 0.00000000e+00 3.42565717e-12
3.01995172e-03 4.04353771e-12 4.04337385e-12 1.63868152e-16 0.00000000e+00 0.00000000e+00 4.04337385e-12
3.46736850e-03 4.77273976e-12 4.77247759e-12 2.62171548e-16 0.00000000e+00 0.00000000e+00 4.77247759e-12
3.98107171e-03 5.63344925e-12 5.63305378e-12 3.95472879e-16 0.00000000e+00 0.00000000e+00 5.63305378e-12
4.57088190e-03 6.64983946e-12 6.64880962e-12 1.02983780e-15 0.00000000e+00 0.00000000e+00 6.64880962e-12
5.24807460e-03 7.84947419e-12 7.84772720e-12 1.74698840e-15 0.00000000e+00 0.00000000e+00 7.84772720e-12
6.02559586e-03 9.26589952e-12 9.26283435e-12 3.06516644e-15 0.00000000e+00 0.00000000e+00 9.26283435e-12
6.91830971e-03 1.09376307e-11 1.09331145e-11 4.51618194e-15 0.00000000e+00 0.00000000e+00 1.09331145e-11
7.94328235e-03 1.29158341e-11 1.29045807e-11 1.12533601e-14 0.00000000e+00 0.00000000e+00 1.29045807e-11
9.12010839e-03 1.52434909e-11 1.52315429e-11 1.19480251e-14 0.00000000e+00 0.00000000e+00 1.52315429e-11
1.04712855e-02 1.70284215e-11 1.70115517e-11 1.68698169e-14 0.00000000e+00 0.00000000e+00 1.70115517e-11
1.20226443e-02 1.70361921e-11 1.70115517e-11 2.46403462e-14 1.21924864e-310 6.40091272e-313 1.70115517e-11
1.38038426e-02 1.70464847e-11 1.70115517e-11 3.49329926e-14 2.43600102e-271 1.77923809e-273 1.70115517e-11
1.58489319e-02 1.70612561e-11 1.70115517e-11 4.97044304e-14 3.93330554e-237 4.29835109e-239 1.70115517e-11
1.81970086e-02 1.70777392e-11 1.70115517e-11 6.61875323e-14 2.31727705e-207 3.49555250e-209 1.70115517e-11
2.08929613e-02 1.71115094e-11 1.70115517e-11 9.99576704e-14 1.75567925e-181 3.35288656e-183 1.70115517e-11
2.39883292e-02 1.71395615e-11 1.70115517e-11 1.28009795e-13 5.88288133e-159 1.44687190e-160 1.70115517e-11
2.75422870e-02 1.71756285e-11 1.70115517e-11 1.64076832e-13 2.35471273e-139 7.65040653e-141 1.70115517e-11
3.16227766e-02 1.72109666e-11 1.70115517e-11 1.99414908e-13 2.59954557e-122 1.00324080e-123 1.70115517e-11
3.63078055e-02 1.72347207e-11 1.70115517e-11 2.23168953e-13 1.69150270e-107 7.62801776e-109 1.70115517e-11
4.16869383e-02 1.73128090e-11 1.70115517e-11 3.01257259e-13 1.26900812e-94 7.68789827e-96 1.70115517e-11
4.78630092e-02 1.73869138e-11 1.70115517e-11 3.75362123e-13 1.93764091e-83 1.52084244e-84 1.70115517e-11
5.49540874e-02 1.74380725e-11 1.70115517e-11 4.26520764e-13 9.90207149e-74 9.25604529e-75 1.70115517e-11
6.30957344e-02 1.74666874e-11 1.70115517e-11 4.55135688e-13 3.50818537e-65 3.82655083e-66 1.70115517e-11
7.24435960e-02 1.74153457e-11 1.70115517e-11 4.03794016e-13 8.99206103e-58 9.42094940e-59 1.70115517e-11
8.31763771e-02 1.74027451e-11 1.70115517e-11 3.91193414e-13 1.90657906e-51 2.00066398e-52 1.70115517e-11
9.54992586e-02 1.74174497e-11 1.70115517e-11 4.05898001e-13 5.98002590e-46 6.71007468e-47 1.70115517e-11
1.09647820e-01 1.66911404e-11 1.62459122e-11 4.45228241e-13 3.48560328e-41 4.40988854e-42 1.62459122e-11
1.25892541e-01 1.55931315e-11 1.51615674e-11 4.31564084e-13 5.32674483e-37 7.23343357e-38 1.51615674e-11
1.44543977e-01 1.45608512e-11 1.41495980e-11 4.11253216e-13 2.47205939e-33 3.53951810e-34 1.41495980e-11
1.65958691e-01 1.36443661e-11 1.32051732e-11 4.39192933e-13 3.10162400e-30 5.15615602e-31 1.32051732e-11
1.90546072e-01 1.27969000e-11 1.23237846e-11 4.73115351e-13 1.14986218e-27 2.28812992e-28 1.23237846e-11
2.18776162e-01 1.19296658e-11 1.15012250e-11 4.28440788e-13 1.70532688e-25 3.63385139e-26 1.15012250e-11
2.51188643e-01 1.12488499e-11 1.07335677e-11 5.15282170e-13 2.16952873e-23 5.69147835e-24 1.07335677e-11
2.88403150e-01 1.05119550e-11 1.00171482e-11 4.94806727e-13 1.44909564e-21 3.97528507e-22 1.00171482e-11
3.31131121e-01 9.81313961e-12 9.34854667e-12 4.64592887e-13 5.37741861e-20 1.50728800e-20 9.34854667e-12
3.80189396e-01 9.15435103e-12 8.72457139e-12 4.29778427e-13 1.21981234e-18 3.50600625e-19 8.72457139e-12
4.36515832e-01 8.54699613e-12 8.14224377e-12 4.04734357e-13 1.79981897e-17 5.31301554e-18 8.14224377e-12
5.01187234e-01 7.98549543e-12 7.59878402e-12 3.86529404e-13 1.82012056e-16 5.52786625e-17 7.59878402e-12
5.75439937e-01 7.45090881e-12 7.09159786e-12 3.58012781e-13 1.29816748e-15 4.00489021e-16 7.09159786e-12
6.60693448e-01 6.95568542e-12 6.61826421e-12 3.30478209e-13 6.94300356e-15 2.14033991e-15 6.61826421e-12
7.58577575e-01 6.50712795e-12 6.17652353e-12 3.01544101e-13 2.90603176e-14 8.92229420e-15 6.17652353e-12
8.70963590e-01 6.12750601e-12 5.76426715e-12 2.65543958e-13 9.76949000e-14 2.90152443e-14 5.76426715e-12
1.00000000e+00 5.87792096e-12 5.37952711e-12 2.26438582e-13 2.71955265e-13 7.64051997e-14 5.37952711e-12
1.14815362e+00 5.85597826e-12 5.02046681e-12 1.87103840e-13 6.48407603e-13 1.67517041e-13 5.02046681e-12
1.31825674e+00 6.18787805e-12 4.68537225e-12 1.47727273e-13 1.35477853e-12 3.09533955e-13 4.68537225e-12
1.51356125e+00 6.98955855e-12 4.37264380e-12 1.16113664e-13 2.50080109e-12 4.93853749e-13 4.37264380e-12
1.73780083e+00 8.24209240e-12 4.08078863e-12 8.97082970e-14 4.07159547e-12 6.84879714e-13 4.08078863e-12
1.99526231e+00 9.74898116e-12 3.80841354e-12 6.76198581e-14 5.87294776e-12 8.10720243e-13 3.80841354e-12
2.29086765e+00 1.13253898e-11 3.55421832e-12 5.07840605e-14 7.72038741e-12 8.46755321e-13 3.55421832e-12
2.63026799e+00 1.26668261e-11 3.31698953e-12 3.71607549e-14 9.31267581e-12 8.01383441e-13 3.31698953e-12
3.01995172e+00 1.36346684e-11 3.09559474e-12 2.67604758e-14 1.05123132e-11 6.95472034e-13 3.09559474e-12
3.46736850e+00 1.41853144e-11 2.88897711e-12 1.89096389e-14 1.12774277e-11 5.63469070e-13 2.88897711e-12
3.98107171e+00 1.42802811e-11 2.69615031e-12 1.31515886e-14 1.15709792e-11 4.24576489e-13 2.69615031e-12
4.57088190e+00 1.40257742e-11 2.51619387e-12 8.70517751e-15 1.15008752e-11 2.97985116e-13 2.51619387e-12
5.24807460e+00 1.31692703e-11 2.08050667e-12 4.93949513e-15 1.10838242e-11 1.92361149e-13 2.08050667e-12
6.02559586e+00 1.19378826e-11 1.37457712e-12 2.13257281e-15 1.05611730e-11 1.18183611e-13 1.37457712e-12
6.70000000e+00 1.10208062e-11 9.99872685e-13 1.09047097e-15 1.00198430e-11 7.71178075e-14 9.99872685e-13
6.92422916e+00 1.07322996e-11 9.05846924e-13 8.75641641e-16 9.82557703e-12 6.70037973e-14 9.05846924e-13
7.15596261e+00 1.05563239e-11 8.20663132e-13 7.01333318e-16 9.73495946e-12 5.78718144e-14 8.20663132e-13
7.39545150e+00 1.04911971e-11 7.43489831e-13 5.32243538e-16 9.74717505e-12 4.91196757e-14 7.43489831e-13
7.64295536e+00 1.08943544e-11 6.73573732e-13 3.77180192e-16 1.02204035e-11 4.09631668e-14 6.73573732e-13
7.89874245e+00 1.17980212e-11 6.10232385e-13 2.31355123e-16 1.11875575e-11 3.26648303e-14 6.10232385e-13
8.16308998e+00 1.29921706e-11 5.52847515e-13 1.35296701e-16 1.24391878e-11 2.53274364e-14 5.52847515e-13
8.43628443e+00 1.42602275e-11 5.00858987e-13 7.45472665e-17 1.37592940e-11 1.87437488e-14 5.00858987e-13
8.71862190e+00 1.51488162e-11 4.53759343e-13 4.71637044e-17 1.46950097e-11 1.46423027e-14 4.53759343e-13
9.01040836e+00 1.57480591e-11 4.11088843e-13 2.92152009e-17 1.53369411e-11 1.11185730e-14 4.11088843e-13
9.31196005e+00 1.60966913e-11 3.72430980e-13 0.00000000e+00 1.57242603e-11 0.00000000e+00 3.72430980e-13
9.62360379e+00 1.58796270e-11 3.37408415e-13 0.00000000e+00 1.55422186e-11 0.00000000e+00 3.37408415e-13
9.94567731e+00 1.52626576e-11 3.05679292e-13 0.00000000e+00 1.49569783e-11 0.00000000e+00 3.05679292e-13
1.02785297e+01 1.46261597e-11 2.76933904e-13 0.00000000e+00 1.43492258e-11 0.00000000e+00 2.76933904e-13
1.06225216e+01 1.39539988e-11 2.50891667e-13 0.00000000e+00 1.37031071e-11 0.00000000e+00 2.50891667e-13
1.09780260e+01 1.31894447e-11 2.27298384e-13 0.00000000e+00 1.29621463e-11 0.00000000e+00 2.27298384e-13
1.13454280e+01 1.24260436e-11 2.05923759e-13 0.00000000e+00 1.22201198e-11 0.00000000e+00 2.05923759e-13
1.17251259e+01 1.17997066e-11 1.86559155e-13 0.00000000e+00 1.16131474e-11 0.00000000e+00 1.86559155e-13
1.21175312e+01 1.12272490e-11 1.69015555e-13 0.00000000e+00 1.10582335e-11 0.00000000e+00 1.69015555e-13
1.25230691e+01 1.06004988e-11 1.53121715e-13 0.00000000e+00 1.04473771e-11 0.00000000e+00 1.53121715e-13
1.29421791e+01 1.00309073e-11 1.38722496e-13 0.00000000e+00 9.89218481e-12 0.00000000e+00 1.38722496e-13
1.33753155e+01 9.50436362e-12 1.25677347e-13 0.00000000e+00 9.37868627e-12 0.00000000e+00 1.25677347e-13
1.38229477e+01 9.17961245e-12 1.13858934e-13 0.00000000e+00 9.06575352e-12 0.00000000e+00 1.13858934e-13
1.42855609e+01 8.99957390e-12 1.03151898e-13 0.00000000e+00 8.89642200e-12 0.00000000e+00 1.03151898e-13
1.47636563e+01 9.16848698e-12 9.34517274e-14 0.00000000e+00 9.07503525e-12 0.00000000e+00 9.34517274e-14
1.52577522e+01 9.39093964e-12 8.46637387e-14 0.00000000e+00 9.30627590e-12 0.00000000e+00 8.46637387e-14
1.57683840e+01 9.65069045e-12 7.67021526e-14 0.00000000e+00 9.57398830e-12 0.00000000e+00 7.67021526e-14
1.62961051e+01 9.94691942e-12 6.94892560e-14 0.00000000e+00 9.87743016e-12 0.00000000e+00 6.94892560e-14
1.68414875e+01 1.02438419e-11 6.29546439e-14 0.00000000e+00 1.01808872e-11 0.00000000e+00 6.29546439e-14
1.74051222e+01 1.03851081e-11 5.70345319e-14 0.00000000e+00 1.03280736e-11 0.00000000e+00 5.70345319e-14
1.79876201e+01 1.05559492e-11 5.16711337e-14 0.00000000e+00 1.05042781e-11 0.00000000e+00 5.16711337e-14
1.85896125e+01 1.05602136e-11 4.68120974e-14 0.00000000e+00 1.05134015e-11 0.00000000e+00 4.68120974e-14
1.92117518e+01 1.04618491e-11 4.24099939e-14 0.00000000e+00 1.04194391e-11 0.00000000e+00 4.24099939e-14
1.98547123e+01 1.02740223e-11 3.84218542e-14 0.00000000e+00 1.02356004e-11 0.00000000e+00 3.84218542e-14
2.05191907e+01 1.00669799e-11 3.48087501e-14 0.00000000e+00 1.00321712e-11 0.00000000e+00 3.48087501e-14
2.12059073e+01 9.81850637e-12 3.15354141e-14 0.00000000e+00 9.78697096e-12 0.00000000e+00 3.15354141e-14
2.19156062e+01 9.58610327e-12 2.85698952e-14 0.00000000e+00 9.55753337e-12 0.00000000e+00 2.85698952e-14
2.26490567e+01 9.35070204e-12 2.58832470e-14 0.00000000e+00 9.32481879e-12 0.00000000e+00 2.58832470e-14
2.34070535e+01 9.09423119e-12 2.34492452e-14 0.00000000e+00 9.07078195e-12 0.00000000e+00 2.34492452e-14
2.41904183e+01 8.84429388e-12 2.12441313e-14 0.00000000e+00 8.82304975e-12 0.00000000e+00 2.12441313e-14
2.50000000e+01 8.61191055e-12 1.92463813e-14 0.00000000e+00 8.59266416e-12 0.00000000e+00 1.92463813e-14
2.75422870e+01 7.78708813e-12 1.43935895e-14 0.00000000e+00 7.77269454e-12 0.00000000e+00 1.43935895e-14
3.16227766e+01 6.48127536e-12 9.50975027e-15 0.00000000e+00 6.47176561e-12 0.00000000e+00 9.50975027e-15
3.63078055e+01 5.07356781e-12 6.28302969e-15 0.00000000e+00 5.06728478e-12 0.00000000e+00 6.28302969e-15
4.16869383e+01 3.69477176e-12 4.15115655e-15 0.00000000e+00 3.69062060e-12 0.00000000e+00 4.15115655e-15
4.78630092e+01 2.50443416e-12 2.74264194e-15 0.00000000e+00 2.50169152e-12 0.00000000e+00 2.74264194e-15
5.49540874e+01 1.59961474e-12 1.81204556e-15 0.00000000e+00 1.59780269e-12 0.00000000e+00 1.81204556e-15
6.30957344e+01 9.72751808e-13 1.19720663e-15 0.00000000e+00 9.71554601e-13 0.00000000e+00 1.19720663e-15
7.24435960e+01 5.70486329e-13 7.90986575e-16 0.00000000e+00 5.69695342e-13 0.00000000e+00 7.90986575e-16
8.31763771e+01 3.25286288e-13 5.22599647e-16 0.00000000e+00 3.24763689e-13 0.00000000e+00 5.22599647e-16
9.54992586e+01 1.81866402e-13 3.45278163e-16 0.00000000e+00 1.81521124e-13 0.00000000e+00 3.45278163e-16
1.09647820e+02 1.00199278e-13 2.28123020e-16 0.00000000e+00 9.99711554e-14 0.00000000e+00 2.28123020e-16
1.25892541e+02 5.52048127e-14 1.50719385e-16 0.00000000e+00 5.50540933e-14 0.00000000e+00 1.50719385e-16
1.44543977e+02 3.02514419e-14 9.95793099e-17 0.00000000e+00 3.01518625e-14 0.00000000e+00 9.95793099e-17
1.65958691e+02 1.58050783e-14 6.57913976e-17 0.00000000e+00 1.57392869e-14 0.00000000e+00 6.57913976e-17
1.90546072e+02 8.26795373e-15 4.34679453e-17 0.00000000e+00 8.22448578e-15 0.00000000e+00 4.34679453e-17
2.18776162e+02 4.32009174e-15 2.87189867e-17 0.00000000e+00 4.29137275e-15 0.00000000e+00 2.87189867e-17
2.51188643e+02 2.25080955e-15 1.89744463e-17 0.00000000e+00 2.23183510e-15 0.00000000e+00 1.89744463e-17
2.88403150e+02 1.16790189e-15 1.25362924e-17 0.00000000e+00 1.15536559e-15 0.00000000e+00 1.25362924e-17
3.31131121e+02 6.04796534e-16 8.28264623e-18 0.00000000e+00 5.96513887e-16 0.00000000e+00 8.28264623e-18
3.80189396e+02 3.12287952e-16 5.47229010e-18 0.00000000e+00 3.06815662e-16 0.00000000e+00 5.47229010e-18
4.36515832e+02 1.61034408e-16 3.61550621e-18 0.00000000e+00 1.57418902e-16 0.00000000e+00 3.61550621e-18
5.01187234e+02 8.29360362e-17 2.38874127e-18 0.00000000e+00 8.05472949e-17 0.00000000e+00 2.38874127e-18
5.75439937e+02 4.27003563e-17 1.57822570e-18 0.00000000e+00 4.11221306e-17 0.00000000e+00 1.57822570e-18
6.60693448e+02 2.19960952e-17 1.04272338e-18 0.00000000e+00 2.09533719e-17 0.00000000e+00 1.04272338e-18
7.58577575e+02 1.13473139e-17 6.88920507e-19 0.00000000e+00 1.06583934e-17 0.00000000e+00 6.88920507e-19
8.70963590e+02 5.86742297e-18 4.55165265e-19 0.00000000e+00 5.41225771e-18 0.00000000e+00 4.55165265e-19
1.00000000e+03 2.74383012e-18 0.00000000e+00 0.00000000e+00 2.74383012e-18 0.00000000e+00 0.00000000e+00
