# column 1: lambda (micron)
# column 2: total flux; lambda*F_lambda (W/m2)
# column 3: direct stellar flux; lambda*F_lambda (W/m2)
# column 4: scattered stellar flux; lambda*F_lambda (W/m2)
# column 5: total dust emission flux; lambda*F_lambda (W/m2)
# column 6: dust emission scattered flux; lambda*F_lambda (W/m2)
# column 7: transparent flux; lambda*F_lambda (W/m2)
1.00000000e-03 8.46529668e-13 8.46529401e-13 2.67119708e-19 0.00000000e+00 0.00000000e+00 8.46529401e-13
1.14815362e-03 9.99176564e-13 9.99176121e-13 4.43176634e-19 0.00000000e+00 0.00000000e+00 9.99176121e-13
1.31825674e-03 1.17934889e-12 1.17934819e-12 7.00429596e-19 0.00000000e+00 0.00000000e+00 1.17934819e-12
1.51356125e-03 1.39201009e-12 1.39200901e-12 1.08197486e-18 0.00000000e+00 0.00000000e+00 1.39200901e-12
1.73780083e-03 1.64301902e-12 1.64301696e-12 2.05637047e-18 0.00000000e+00 0.00000000e+00 1.64301696e-12
1.99526231e-03 1.93929023e-12 1.93928682e-12 3.40933470e-18 0.00000000e+00 0.00000000e+00 1.93928682e-12
2.29086765e-03 2.28898582e-12 2.28898025e-12 5.56700631e-18 0.00000000e+00 0.00000000e+00 2.28898025e-12
2.63026799e-03 2.70174147e-12 2.70173063e-12 1.08455814e-17 0.00000000e+00 0.00000000e+00 2.70173063e-12
3.01995172e-03 3.18892748e-12 3.18890841e-12 1.90659099e-17 0.00000000e+00 0.00000000e+00 3.18890841e-12
3.46736850e-03 3.76396749e-12 3.76393440e-12 3.30863738e-17 0.00000000e+00 0.00000000e+00 3.76393440e-12
3.98107171e-03 4.44270239e-12 4.44264945e-12 5.29455770e-17 0.00000000e+00 0.00000000e+00 4.44264945e-12
4.57088190e-03 5.24386239e-12 5.24375082e-12 1.11569495e-16 0.00000000e+00 0.00000000e+00 5.24375082e-12
5.24807460e-03 6.18950814e-12 6.18930730e-12 2.00836353e-16 0.00000000e+00 0.00000000e+00 6.18930730e-12
6.02559586e-03 7.30574386e-12 7.30536713e-12 3.76726576e-16 0.00000000e+00 0.00000000e+00 7.30536713e-12
6.91830971e-03 8.62325678e-12 8.62267558e-12 5.81206760e-16 0.00000000e+00 0.00000000e+00 8.62267558e-12
7.94328235e-03 1.01784684e-11 1.01775219e-11 9.46481368e-16 0.00000000e+00 0.00000000e+00 1.01775219e-11
9.12010839e-03 1.20143307e-11 1.20127391e-11 1.59156908e-15 0.00000000e+00 0.00000000e+00 1.20127391e-11
1.04712855e-02 1.34188686e-11 1.34165878e-11 2.28074125e-15 0.00000000e+00 0.00000000e+00 1.34165878e-11
1.20226443e-02 1.34204030e-11 1.34165878e-11 3.81513437e-15 1.06854311e-311 1.18947232e-313 1.34165878e-11
1.38038426e-02 1.34210659e-11 1.34165878e-11 4.47804703e-15 1.94651043e-272 2.12979035e-274 1.34165878e-11
1.58489319e-02 1.34231448e-11 1.34165878e-11 6.55692970e-15 2.93373154e-238 5.64615206e-240 1.34165878e-11
1.81970086e-02 1.34272736e-11 1.34165878e-11 1.06857705e-14 1.62144576e-208 3.19048045e-210 1.34165878e-11
2.08929613e-02 1.34293457e-11 1.34165878e-11 1.27578623e-14 1.16975885e-182 2.74907744e-184 1.34165878e-11
2.39883292e-02 1.34351391e-11 1.34165878e-11 1.85512598e-14 3.76178765e-160 1.04514133e-161 1.34165878e-11
2.75422870e-02 1.34406718e-11 1.34165878e-11 2.40839365e-14 1.45149718e-140 4.70611707e-142 1.34165878e-11
3.16227766e-02 1.34459729e-11 1.34165878e-11 2.93850852e-14 1.55948608e-123 6.05783036e-125 1.34165878e-11
3.63078055e-02 1.34521549e-11 1.34165878e-11 3.55670737e-14 9.88981567e-109 4.15010591e-110 1.34165878e-11
4.16869383e-02 1.34666039e-11 1.34165878e-11 5.00160583e-14 7.25042174e-96 3.86661157e-97 1.34165878e-11
4.78630092e-02 1.34844588e-11 1.34165878e-11 6.78710042e-14 1.08106838e-84 7.15787736e-86 1.34165878e-11
5.49540874e-02 1.35033426e-11 1.34165878e-11 8.67547952e-14 5.42302387e-75 4.30367159e-76 1.34165878e-11
6.30957344e-02 1.35243173e-11 1.34165878e-11 1.07729424e-13 1.88419277e-66 1.78523741e-67 1.34165878e-11
7.24435960e-02 1.35228845e-11 1.34165878e-11 1.06296660e-13 4.85826686e-59 4.72937845e-60 1.34165878e-11
8.31763771e-02 1.35230850e-11 1.34165878e-11 1.06497157e-13 1.11870616e-52 1.12273584e-53 1.34165878e-11
9.54992586e-02 1.35250579e-11 1.34165878e-11 1.08470066e-13 4.31125587e-47 4.83139682e-48 1.34165878e-11
1.09647820e-01 1.29262443e-11 1.28127470e-11 1.13497325e-13 3.50396522e-42 4.55135158e-43 1.28127470e-11
1.25892541e-01 1.20544973e-11 1.19575512e-11 9.69461377e-14 7.44438981e-38 9.89438119e-39 1.19575512e-11
1.44543977e-01 1.12449002e-11 1.11594361e-11 8.54641325e-14 4.41629604e-34 5.83888113e-35 1.11594361e-11
1.65958691e-01 1.05029659e-11 1.04145917e-11 8.83741656e-14 6.47604054e-31 9.56328643e-32 1.04145917e-11
1.90546072e-01 9.82271575e-12 9.71946251e-12 1.03253234e-13 2.65473688e-28 4.75361671e-29 9.71946251e-12
2.18776162e-01 9.17661117e-12 9.07073019e-12 1.05880974e-13 4.22272194e-26 8.34204725e-27 9.07073019e-12
2.51188643e-01 8.58829199e-12 8.46529796e-12 1.22994028e-13 5.49535041e-24 1.29339675e-24 8.46529796e-12
2.88403150e-01 8.00879146e-12 7.90027573e-12 1.08515722e-13 3.61939578e-22 8.41031721e-23 7.90027573e-12
3.31131121e-01 7.46926965e-12 7.37296631e-12 9.63033327e-14 1.29421498e-20 2.97655625e-21 7.37296631e-12
3.80189396e-01 6.96716379e-12 6.88085251e-12 8.63110000e-14 2.74500702e-19 6.25225189e-20 6.88085251e-12
4.36515832e-01 6.50147989e-12 6.42158520e-12 7.98909850e-14 3.70103184e-18 8.45303959e-19 6.42158520e-12
5.01187234e-01 6.06778139e-12 5.99297201e-12 7.47759494e-14 3.34314241e-17 7.58726521e-18 5.99297201e-12
5.75439937e-01 5.66285879e-12 5.59296690e-12 6.96774534e-14 2.14436077e-16 4.86394577e-17 5.59296690e-12
6.60693448e-01 5.28469764e-12 5.21966041e-12 6.40113776e-14 1.02584926e-15 2.30096185e-16 5.21966041e-12
7.58577575e-01 4.93506260e-12 4.87127053e-12 5.99426725e-14 3.84939490e-15 8.46613289e-16 4.87127053e-12
8.70963590e-01 4.61077007e-12 4.54613417e-12 5.28403056e-14 1.17955878e-14 2.48917872e-15 4.54613417e-12
1.00000000e+00 4.31809002e-12 4.24269927e-12 4.52872874e-14 3.01034664e-14 5.90873216e-15 4.24269927e-12
1.14815362e+00 4.06494941e-12 3.95951734e-12 3.82290972e-14 6.72029700e-14 1.19229917e-14 3.95951734e-12
1.31825674e+00 3.85956018e-12 3.69523659e-12 3.02487208e-14 1.34074871e-13 2.07388765e-14 3.69523659e-12
1.51356125e+00 3.71201052e-12 3.44859544e-12 2.41293769e-14 2.39285707e-13 3.12876033e-14 3.44859544e-12
1.73780083e+00 3.61616180e-12 3.21841652e-12 1.77162119e-14 3.80029065e-13 4.04095841e-14 3.21841652e-12
1.99526231e+00 3.55943576e-12 3.00360106e-12 1.29816991e-14 5.42853002e-13 4.43969833e-14 3.00360106e-12
2.29086765e+00 3.51549865e-12 2.80312361e-12 9.17664750e-15 7.03198391e-13 4.28844483e-14 2.80312361e-12
2.63026799e+00 3.46316811e-12 2.61602716e-12 6.24050720e-15 8.40900439e-13 3.74099795e-14 2.61602716e-12
3.01995172e+00 3.39021615e-12 2.44141860e-12 4.30993216e-15 9.44487615e-13 3.05971995e-14 2.44141860e-12
3.46736850e+00 3.28804590e-12 2.27846441e-12 2.93334848e-15 1.00664814e-12 2.33437728e-14 2.27846441e-12
3.98107171e+00 3.14700595e-12 2.12638671e-12 1.97845695e-15 1.01864078e-12 1.69087869e-14 2.12638671e-12
4.57088190e+00 2.98914735e-12 1.98445954e-12 1.30507440e-15 1.00338273e-12 1.18219167e-14 1.98445954e-12
5.24807460e+00 2.60434153e-12 1.64084388e-12 7.32613653e-16 9.62765044e-13 7.72474853e-15 1.64084388e-12
6.02559586e+00 1.99888580e-12 1.08409480e-12 3.19199407e-16 9.14471801e-13 4.81014129e-15 1.08409480e-12
6.70000000e+00 1.65793913e-12 7.88574724e-13 1.67968636e-16 8.69196438e-13 3.22883619e-15 7.88574724e-13
6.92422916e+00 1.56956290e-12 7.14418944e-13 1.32668540e-16 8.55011286e-13 2.81909182e-15 7.14418944e-13
7.15596261e+00 1.49489175e-12 6.47236606e-13 1.07087790e-16 8.47548058e-13 2.45596103e-15 6.47236606e-13
7.39545150e+00 1.44273921e-12 5.86371942e-13 8.10608335e-17 8.56286208e-13 2.10911314e-15 5.86371942e-13
7.64295536e+00 1.44424092e-12 5.31230854e-13 5.63789220e-17 9.12953683e-13 1.74179790e-15 5.31230854e-13
7.89874245e+00 1.52653868e-12 4.81275108e-13 3.37109674e-17 1.04522986e-12 1.40061771e-15 4.81275108e-13
8.16308998e+00 1.67887866e-12 4.36017088e-13 1.99324357e-17 1.24284164e-12 1.09555763e-15 4.36017088e-13
8.43628443e+00 1.91350906e-12 3.95015029e-13 1.12377399e-17 1.51848280e-12 8.25496026e-16 3.95015029e-13
8.71862190e+00 2.08099612e-12 3.57868711e-13 6.91629506e-18 1.72312050e-12 6.58943715e-16 3.57868711e-13
9.01040836e+00 2.26394655e-12 3.24215549e-13 4.47068063e-18 1.93972653e-12 5.11475874e-16 3.24215549e-13
9.31196005e+00 2.41148399e-12 2.93727053e-13 0.00000000e+00 2.11775694e-12 0.00000000e+00 2.93727053e-13
9.62360379e+00 2.39420995e-12 2.66105627e-13 0.00000000e+00 2.12810432e-12 0.00000000e+00 2.66105627e-13
9.94567731e+00 2.25208754e-12 2.41081657e-13 0.00000000e+00 2.01100588e-12 0.00000000e+00 2.41081657e-13
1.02785297e+01 2.08014552e-12 2.18410884e-13 0.00000000e+00 1.86173464e-12 0.00000000e+00 2.18410884e-13
1.06225216e+01 1.90064744e-12 1.97872020e-13 0.00000000e+00 1.70277542e-12 0.00000000e+00 1.97872020e-13
1.09780260e+01 1.71368236e-12 1.79264583e-13 0.00000000e+00 1.53441777e-12 0.00000000e+00 1.79264583e-13
1.13454280e+01 1.55768696e-12 1.62406948e-13 0.00000000e+00 1.39528001e-12 0.00000000e+00 1.62406948e-13
1.17251259e+01 1.41823131e-12 1.47134567e-13 0.00000000e+00 1.27109674e-12 0.00000000e+00 1.47134567e-13
1.21175312e+01 1.29718201e-12 1.33298366e-13 0.00000000e+00 1.16388365e-12 0.00000000e+00 1.33298366e-13
1.25230691e+01 1.18355170e-12 1.20763289e-13 0.00000000e+00 1.06278842e-12 0.00000000e+00 1.20763289e-13
1.29421791e+01 1.09331735e-12 1.09406983e-13 0.00000000e+00 9.83910370e-13 0.00000000e+00 1.09406983e-13
1.33753155e+01 1.01460243e-12 9.91185987e-14 0.00000000e+00 9.15483834e-13 0.00000000e+00 9.91185987e-14
1.38229477e+01 9.65783360e-13 8.97977103e-14 0.00000000e+00 8.75985650e-13 0.00000000e+00 8.97977103e-14
1.42855609e+01 9.40087102e-13 8.13533371e-14 0.00000000e+00 8.58733765e-13 0.00000000e+00 8.13533371e-14
1.47636563e+01 9.55169260e-13 7.37030537e-14 0.00000000e+00 8.81466206e-13 0.00000000e+00 7.37030537e-14
1.52577522e+01 9.83575323e-13 6.67721855e-14 0.00000000e+00 9.16803138e-13 0.00000000e+00 6.67721855e-14
1.57683840e+01 1.01618219e-12 6.04930805e-14 0.00000000e+00 9.55689111e-13 0.00000000e+00 6.04930805e-14
1.62961051e+01 1.05824493e-12 5.48044484e-14 0.00000000e+00 1.00344048e-12 0.00000000e+00 5.48044484e-14
1.68414875e+01 1.10107355e-12 4.96507622e-14 0.00000000e+00 1.05142279e-12 0.00000000e+00 4.96507622e-14
1.74051222e+01 1.12919479e-12 4.49817171e-14 0.00000000e+00 1.08421307e-12 0.00000000e+00 4.49817171e-14
1.79876201e+01 1.15280688e-12 4.07517384e-14 0.00000000e+00 1.11205514e-12 0.00000000e+00 4.07517384e-14
1.85896125e+01 1.15446406e-12 3.69195372e-14 0.00000000e+00 1.11754452e-12 0.00000000e+00 3.69195372e-14
1.92117518e+01 1.14814521e-12 3.34477076e-14 0.00000000e+00 1.11469750e-12 0.00000000e+00 3.34477076e-14
1.98547123e+01 1.12588219e-12 3.03023610e-14 0.00000000e+00 1.09557983e-12 0.00000000e+00 3.03023610e-14
2.05191907e+01 1.10149312e-12 2.74527957e-14 0.00000000e+00 1.07404033e-12 0.00000000e+00 2.74527957e-14
2.12059073e+01 1.07433395e-12 2.48711970e-14 0.00000000e+00 1.04946275e-12 0.00000000e+00 2.48711970e-14
2.19156062e+01 1.05834227e-12 2.25323660e-14 0.00000000e+00 1.03580990e-12 0.00000000e+00 2.25323660e-14
2.26490567e+01 1.04026315e-12 2.04134733e-14 0.00000000e+00 1.01984968e-12 0.00000000e+00 2.04134733e-14
2.34070535e+01 1.02195753e-12 1.84938366e-14 0.00000000e+00 1.00346369e-12 0.00000000e+00 1.84938366e-14
2.41904183e+01 1.00723967e-12 1.67547181e-14 0.00000000e+00 9.90484955e-13 0.00000000e+00 1.67547181e-14
2.50000000e+01 9.91389091e-13 1.51791424e-14 0.00000000e+00 9.76209949e-13 0.00000000e+00 1.51791424e-14
2.75422870e+01 9.45324940e-13 1.13518661e-14 0.00000000e+00 9.33973074e-13 0.00000000e+00 1.13518661e-14
3.16227766e+01 8.67880188e-13 7.50010357e-15 0.00000000e+00 8.60380084e-13 0.00000000e+00 7.50010357e-15
3.63078055e+01 7.59627116e-13 4.95526929e-15 0.00000000e+00 7.54671846e-13 0.00000000e+00 4.95526929e-15
4.16869383e+01 6.26472919e-13 3.27391395e-15 0.00000000e+00 6.23199005e-13 0.00000000e+00 3.27391395e-15
4.78630092e+01 4.81703295e-13 2.16305350e-15 0.00000000e+00 4.79540242e-13 0.00000000e+00 2.16305350e-15
5.49540874e+01 3.49145085e-13 1.42911527e-15 0.00000000e+00 3.47715970e-13 0.00000000e+00 1.42911527e-15
6.30957344e+01 2.39275491e-13 9.44207098e-16 0.00000000e+00 2.38331284e-13 0.00000000e+00 9.44207098e-16
7.24435960e+01 1.56302522e-13 6.23831443e-16 0.00000000e+00 1.55678691e-13 0.00000000e+00 6.23831443e-16
8.31763771e+01 9.81773230e-14 4.12161347e-16 0.00000000e+00 9.77651617e-14 0.00000000e+00 4.12161347e-16
9.54992586e+01 5.97597915e-14 2.72312302e-16 0.00000000e+00 5.94874792e-14 0.00000000e+00 2.72312302e-16
1.09647820e+02 3.54253090e-14 1.79914953e-16 0.00000000e+00 3.52453941e-14 0.00000000e+00 1.79914953e-16
1.25892541e+02 2.07739089e-14 1.18868631e-16 0.00000000e+00 2.06550403e-14 0.00000000e+00 1.18868631e-16
1.44543977e+02 1.20074358e-14 7.85357256e-17 0.00000000e+00 1.19289001e-14 0.00000000e+00 7.85357256e-17
1.65958691e+02 6.57981112e-15 5.18880394e-17 0.00000000e+00 6.52792308e-15 0.00000000e+00 5.18880394e-17
1.90546072e+02 3.58415202e-15 3.42820876e-17 0.00000000e+00 3.54986994e-15 0.00000000e+00 3.42820876e-17
2.18776162e+02 1.93845416e-15 2.26499507e-17 0.00000000e+00 1.91580421e-15 0.00000000e+00 2.26499507e-17
2.51188643e+02 1.04041015e-15 1.49646740e-17 0.00000000e+00 1.02544548e-15 0.00000000e+00 1.49646740e-17
2.88403150e+02 5.53869891e-16 9.88706207e-18 0.00000000e+00 5.43982829e-16 0.00000000e+00 9.88706207e-18
3.31131121e+02 2.93326123e-16 6.53231713e-18 0.00000000e+00 2.86793806e-16 0.00000000e+00 6.53231713e-18
3.80189396e+02 1.54494788e-16 4.31585913e-18 0.00000000e+00 1.50178929e-16 0.00000000e+00 4.31585913e-18
4.36515832e+02 8.10923174e-17 2.85145985e-18 0.00000000e+00 7.82408575e-17 0.00000000e+00 2.85145985e-18
5.01187234e+02 4.24469156e-17 1.88394084e-18 0.00000000e+00 4.05629748e-17 0.00000000e+00 1.88394084e-18
5.75439937e+02 2.21883025e-17 1.24470737e-18 0.00000000e+00 2.09435952e-17 0.00000000e+00 1.24470737e-18
6.60693448e+02 1.15977431e-17 8.22370004e-19 0.00000000e+00 1.07753731e-17 0.00000000e+00 8.22370004e-19
7.58577575e+02 6.07032600e-18 5.43334473e-19 0.00000000e+00 5.52699153e-18 0.00000000e+00 5.43334473e-19
8.70963590e+02 3.18578528e-18 3.58977527e-19 0.00000000e+00 2.82680775e-18 0.00000000e+00 3.58977527e-19
1.00000000e+03 1.44200912e-18 0.00000000e+00 0.00000000e+00 1.44200912e-18 0.00000000e+00 0.00000000e+00
