# column 1: lambda (micron)
# column 2: total flux; lambda*F_lambda (W/m2)
# column 3: direct stellar flux; lambda*F_lambda (W/m2)
# column 4: scattered stellar flux; lambda*F_lambda (W/m2)
# column 5: total dust emission flux; lambda*F_lambda (W/m2)
# column 6: dust emission scattered flux; lambda*F_lambda (W/m2)
# column 7: transparent flux; lambda*F_lambda (W/m2)
1.00000000e-03 5.25637220e-13 5.25636674e-13 5.46029328e-19 0.00000000e+00 0.00000000e+00 5.25636674e-13
1.14815362e-03 6.20420650e-13 6.20419813e-13 8.36634800e-19 0.00000000e+00 0.00000000e+00 6.20419813e-13
1.31825674e-03 7.32295764e-13 7.32294308e-13 1.45593604e-18 0.00000000e+00 0.00000000e+00 7.32294308e-13
1.51356125e-03 8.64344282e-13 8.64342083e-13 2.19867505e-18 0.00000000e+00 0.00000000e+00 8.64342083e-13
1.73780083e-03 1.02020479e-12 1.02020080e-12 3.99421205e-18 0.00000000e+00 0.00000000e+00 1.02020080e-12
1.99526231e-03 1.20417142e-12 1.20416405e-12 7.36846996e-18 0.00000000e+00 0.00000000e+00 1.20416405e-12
2.29086765e-03 1.42131150e-12 1.42129968e-12 1.18151800e-17 0.00000000e+00 0.00000000e+00 1.42129968e-12
2.63026799e-03 1.67761225e-12 1.67758934e-12 2.29076860e-17 0.00000000e+00 0.00000000e+00 1.67758934e-12
3.01995172e-03 1.98013515e-12 1.98009332e-12 4.18335787e-17 0.00000000e+00 0.00000000e+00 1.98009332e-12
3.46736850e-03 2.33720914e-12 2.33714500e-12 6.41327415e-17 0.00000000e+00 0.00000000e+00 2.33714500e-12
3.98107171e-03 2.75869377e-12 2.75858048e-12 1.13288177e-16 0.00000000e+00 0.00000000e+00 2.75858048e-12
4.57088190e-03 3.25624252e-12 3.25600946e-12 2.33052315e-16 0.00000000e+00 0.00000000e+00 3.25600946e-12
5.24807460e-03 3.84355464e-12 3.84313516e-12 4.19476600e-16 0.00000000e+00 0.00000000e+00 3.84313516e-12
6.02559586e-03 4.53691243e-12 4.53613173e-12 7.80701231e-16 0.00000000e+00 0.00000000e+00 4.53613173e-12
6.91830971e-03 5.35548861e-12 5.35408989e-12 1.39872312e-15 0.00000000e+00 0.00000000e+00 5.35408989e-12
7.94328235e-03 6.32182355e-12 6.31954278e-12 2.28077054e-15 0.00000000e+00 0.00000000e+00 6.31954278e-12
9.12010839e-03 7.46232613e-12 7.45908676e-12 3.23937111e-15 0.00000000e+00 0.00000000e+00 7.45908676e-12
1.04712855e-02 8.33568668e-12 8.33078048e-12 4.90620701e-15 0.00000000e+00 0.00000000e+00 8.33078048e-12
1.20226443e-02 8.33849676e-12 8.33078048e-12 7.71628854e-15 0.00000000e+00 0.00000000e+00 8.33078048e-12
1.38038426e-02 8.34049863e-12 8.33078048e-12 9.71815119e-15 9.09306548e-291 1.49457353e-292 8.33078048e-12
1.58489319e-02 8.34704138e-12 8.33078048e-12 1.62609051e-14 6.89296918e-254 1.28949329e-255 8.33078048e-12
1.81970086e-02 8.35050196e-12 8.33078048e-12 1.97214891e-14 8.65709443e-222 1.70227711e-223 8.33078048e-12
2.08929613e-02 8.35866815e-12 8.33078048e-12 2.78876781e-14 7.07761249e-194 1.76335563e-195 8.33078048e-12
2.39883292e-02 8.36720457e-12 8.33078048e-12 3.64240979e-14 1.41085909e-169 4.54009108e-171 8.33078048e-12
2.75422870e-02 8.37985180e-12 8.33078048e-12 4.90713274e-14 2.00299355e-148 8.25157919e-150 8.33078048e-12
3.16227766e-02 8.39111611e-12 8.33078048e-12 6.03356377e-14 5.01066843e-130 2.38166442e-131 8.33078048e-12
3.63078055e-02 8.40064128e-12 8.33078048e-12 6.98608009e-14 5.02839819e-114 2.79525996e-115 8.33078048e-12
4.16869383e-02 8.41401248e-12 8.33078048e-12 8.32320076e-14 4.16314856e-100 2.96052377e-101 8.33078048e-12
4.78630092e-02 8.44543388e-12 8.33078048e-12 1.14653403e-13 5.26018234e-88 4.88863987e-89 8.33078048e-12
5.49540874e-02 8.44916662e-12 8.33078048e-12 1.18386149e-13 1.72472852e-77 1.91943846e-78 8.33078048e-12
6.30957344e-02 8.47259566e-12 8.33078048e-12 1.41815184e-13 3.11513806e-68 4.21554868e-69 8.33078048e-12
7.24435960e-02 8.46428624e-12 8.33078048e-12 1.33505761e-13 3.29796544e-60 4.52899377e-61 8.33078048e-12
8.31763771e-02 8.45798023e-12 8.33078048e-12 1.27199755e-13 2.43935073e-53 3.43594712e-54 8.33078048e-12
9.54992586e-02 8.45687947e-12 8.33078048e-12 1.26098992e-13 2.19337079e-47 3.27391342e-48 8.33078048e-12
1.09647820e-01 8.08828079e-12 7.95583672e-12 1.32444075e-13 2.94193969e-42 4.73986408e-43 7.95583672e-12
1.25892541e-01 7.54726291e-12 7.42481883e-12 1.22444076e-13 7.98831417e-38 1.27798091e-38 7.42481883e-12
1.44543977e-01 7.04102882e-12 6.92924411e-12 1.11784714e-13 5.25836070e-34 8.19466340e-35 6.92924411e-12
1.65958691e-01 6.57657580e-12 6.46674687e-12 1.09828938e-13 8.07032715e-31 1.37359956e-31 6.46674687e-12
1.90546072e-01 6.15103572e-12 6.03511933e-12 1.15916398e-13 3.37152728e-28 6.90450568e-29 6.03511933e-12
2.18776162e-01 5.74831962e-12 5.63230107e-12 1.16018556e-13 5.34510587e-26 1.18346580e-26 5.63230107e-12
2.51188643e-01 5.38083054e-12 5.25636919e-12 1.24461347e-13 6.89702181e-24 1.77057221e-24 5.25636919e-12
2.88403150e-01 5.02311814e-12 4.90552916e-12 1.17588988e-13 4.48773492e-22 1.13185432e-22 4.90552916e-12
3.31131121e-01 4.68673591e-12 4.57810618e-12 1.08629710e-13 1.57067507e-20 3.84149344e-21 4.57810618e-12
3.80189396e-01 4.36549167e-12 4.27253728e-12 9.29540577e-14 3.25583576e-19 7.82421579e-20 4.27253728e-12
4.36515832e-01 4.07295999e-12 3.98736380e-12 8.55918962e-14 4.29686621e-18 1.01877931e-18 3.98736380e-12
5.01187234e-01 3.80136867e-12 3.72122441e-12 8.01061791e-14 3.80760902e-17 8.87138233e-18 3.72122441e-12
5.75439937e-01 3.54309229e-12 3.47284869e-12 7.00038113e-14 2.39794435e-16 5.47902798e-17 3.47284869e-12
6.60693448e-01 3.30617940e-12 3.24105097e-12 6.39962122e-14 1.13221236e-15 2.53081540e-16 3.24105097e-12
7.58577575e-01 3.08675990e-12 3.02472476e-12 5.78260836e-14 4.20905912e-15 9.14367538e-16 3.02472476e-12
8.70963590e-01 2.88562355e-12 2.82283739e-12 4.99733200e-14 1.28128415e-14 2.64415061e-15 2.82283739e-12
1.00000000e+00 2.70825082e-12 2.63442513e-12 4.13734091e-14 3.24522734e-14 6.18895352e-15 2.63442513e-12
1.14815362e+00 2.56583781e-12 2.45858859e-12 3.50178654e-14 7.22313584e-14 1.25192383e-14 2.45858859e-12
1.31825674e+00 2.46579391e-12 2.29448837e-12 2.79021868e-14 1.43403354e-13 2.16012824e-14 2.29448837e-12
1.51356125e+00 2.41802250e-12 2.14134114e-12 2.23592346e-14 2.54322122e-13 3.20972055e-14 2.14134114e-12
1.73780083e+00 2.41683266e-12 1.99841583e-12 1.69587370e-14 4.01458094e-13 4.14199443e-14 1.99841583e-12
1.99526231e+00 2.44574453e-12 1.86503017e-12 1.24480961e-14 5.68266265e-13 4.52630905e-14 1.86503017e-12
2.29086765e+00 2.48321444e-12 1.74054743e-12 8.69050269e-15 7.33976511e-13 4.36269315e-14 1.74054743e-12
2.63026799e+00 2.50152394e-12 1.62437337e-12 6.01126327e-15 8.71139306e-13 3.75910204e-14 1.62437337e-12
3.01995172e+00 2.49073053e-12 1.51595343e-12 3.94243133e-15 9.70834666e-13 3.01498473e-14 1.51595343e-12
3.46736850e+00 2.44184935e-12 1.41477006e-12 2.81729577e-15 1.02426199e-12 2.30419579e-14 1.41477006e-12
3.98107171e+00 2.35896119e-12 1.32034025e-12 1.91526517e-15 1.03670568e-12 1.66167933e-14 1.32034025e-12
4.57088190e+00 2.24544331e-12 1.23221321e-12 1.26767580e-15 1.01196242e-12 1.14660786e-14 1.23221321e-12
5.24807460e+00 1.98697795e-12 1.01885146e-12 7.18444533e-16 9.67408044e-13 7.64778784e-15 1.01885146e-12
6.02559586e+00 1.58495055e-12 6.73148485e-13 3.16204264e-16 9.11485857e-13 4.78086064e-15 6.73148485e-13
6.70000000e+00 1.35473197e-12 4.89650796e-13 1.64699698e-16 8.64916479e-13 3.20236721e-15 4.89650796e-13
6.92422916e+00 1.29411583e-12 4.43605145e-13 1.31374452e-16 8.50379311e-13 2.82879910e-15 4.43605145e-13
7.15596261e+00 1.24268269e-12 4.01889522e-13 1.03310034e-16 8.40689854e-13 2.44228343e-15 4.01889522e-13
7.39545150e+00 1.21250984e-12 3.64096743e-13 8.00188731e-17 8.48333081e-13 2.09252145e-15 3.64096743e-13
7.64295536e+00 1.23396215e-12 3.29857910e-13 5.49119256e-17 9.04049333e-13 1.72226583e-15 3.29857910e-13
7.89874245e+00 1.33013009e-12 2.98838820e-13 3.33648819e-17 1.03125791e-12 1.35728696e-15 2.98838820e-13
8.16308998e+00 1.49118802e-12 2.70736695e-13 1.89096498e-17 1.22043242e-12 1.04370290e-15 2.70736695e-13
8.43628443e+00 1.73398981e-12 2.45277229e-13 1.04482401e-17 1.48870213e-12 7.93194527e-16 2.45277229e-13
8.71862190e+00 1.90602708e-12 2.22211915e-13 6.83752313e-18 1.68380833e-12 6.23563485e-16 2.22211915e-13
9.01040836e+00 2.08575401e-12 2.01315610e-13 4.57134785e-18 1.88443382e-12 4.80436640e-16 2.01315610e-13
9.31196005e+00 2.24130816e-12 1.82384346e-13 0.00000000e+00 2.05892382e-12 0.00000000e+00 1.82384346e-13
9.62360379e+00 2.23155957e-12 1.65233336e-13 0.00000000e+00 2.06632624e-12 0.00000000e+00 1.65233336e-13
9.94567731e+00 2.10658605e-12 1.49695167e-13 0.00000000e+00 1.95689088e-12 0.00000000e+00 1.49695167e-13
1.02785297e+01 1.91923396e-12 1.35618173e-13 0.00000000e+00 1.78361579e-12 0.00000000e+00 1.35618173e-13
1.06225216e+01 1.75878976e-12 1.22864947e-13 0.00000000e+00 1.63592482e-12 0.00000000e+00 1.22864947e-13
1.09780260e+01 1.58189978e-12 1.11311006e-13 0.00000000e+00 1.47058877e-12 0.00000000e+00 1.11311006e-13
1.13454280e+01 1.43240103e-12 1.00843571e-13 0.00000000e+00 1.33155746e-12 0.00000000e+00 1.00843571e-13
1.17251259e+01 1.30828267e-12 9.13604705e-14 0.00000000e+00 1.21692220e-12 0.00000000e+00 9.13604705e-14
1.21175312e+01 1.18948011e-12 8.27691389e-14 0.00000000e+00 1.10671097e-12 0.00000000e+00 8.27691389e-14
1.25230691e+01 1.08860826e-12 7.49857166e-14 0.00000000e+00 1.01362254e-12 0.00000000e+00 7.49857166e-14
1.29421791e+01 1.00360441e-12 6.79342298e-14 0.00000000e+00 9.35670180e-13 0.00000000e+00 6.79342298e-14
1.33753155e+01 9.31149241e-13 6.15458488e-14 0.00000000e+00 8.69603393e-13 0.00000000e+00 6.15458488e-14
1.38229477e+01 8.88322306e-13 5.57582167e-14 0.00000000e+00 8.32564089e-13 0.00000000e+00 5.57582167e-14
1.42855609e+01 8.64238198e-13 5.05148403e-14 0.00000000e+00 8.13723357e-13 0.00000000e+00 5.05148403e-14
1.47636563e+01 8.81762790e-13 4.57645392e-14 0.00000000e+00 8.35998250e-13 0.00000000e+00 4.57645392e-14
1.52577522e+01 9.05207252e-13 4.14609457e-14 0.00000000e+00 8.63746306e-13 0.00000000e+00 4.14609457e-14
1.57683840e+01 9.37616650e-13 3.75620523e-14 0.00000000e+00 9.00054598e-13 0.00000000e+00 3.75620523e-14
1.62961051e+01 9.73045114e-13 3.40298020e-14 0.00000000e+00 9.39015312e-13 0.00000000e+00 3.40298020e-14
1.68414875e+01 1.00804527e-12 3.08297166e-14 0.00000000e+00 9.77215550e-13 0.00000000e+00 3.08297166e-14
1.74051222e+01 1.03542803e-12 2.79305599e-14 0.00000000e+00 1.00749747e-12 0.00000000e+00 2.79305599e-14
1.79876201e+01 1.05499002e-12 2.53040334e-14 0.00000000e+00 1.02968598e-12 0.00000000e+00 2.53040334e-14
1.85896125e+01 1.05533168e-12 2.29244994e-14 0.00000000e+00 1.03240718e-12 0.00000000e+00 2.29244994e-14
1.92117518e+01 1.05089095e-12 2.07687314e-14 0.00000000e+00 1.03012222e-12 0.00000000e+00 2.07687314e-14
1.98547123e+01 1.02978657e-12 1.88156870e-14 0.00000000e+00 1.01097088e-12 0.00000000e+00 1.88156870e-14
2.05191907e+01 1.00930951e-12 1.70463024e-14 0.00000000e+00 9.92263206e-13 0.00000000e+00 1.70463024e-14
2.12059073e+01 9.91431941e-13 1.54433068e-14 0.00000000e+00 9.75988635e-13 0.00000000e+00 1.54433068e-14
2.19156062e+01 9.72874480e-13 1.39910532e-14 0.00000000e+00 9.58883426e-13 0.00000000e+00 1.39910532e-14
2.26490567e+01 9.60696789e-13 1.26753663e-14 0.00000000e+00 9.48021422e-13 0.00000000e+00 1.26753663e-14
2.34070535e+01 9.52493312e-13 1.14834036e-14 0.00000000e+00 9.41009909e-13 0.00000000e+00 1.14834036e-14
2.41904183e+01 9.40360813e-13 1.04035303e-14 0.00000000e+00 9.29957283e-13 0.00000000e+00 1.04035303e-14
2.50000000e+01 9.34032968e-13 9.42520591e-15 0.00000000e+00 9.24607762e-13 0.00000000e+00 9.42520591e-15
2.75422870e+01 8.98765435e-13 7.04872996e-15 0.00000000e+00 8.91716705e-13 0.00000000e+00 7.04872996e-15
3.16227766e+01 8.37303312e-13 4.65704970e-15 0.00000000e+00 8.32646262e-13 0.00000000e+00 4.65704970e-15
3.63078055e+01 7.45451610e-13 3.07688223e-15 0.00000000e+00 7.42374728e-13 0.00000000e+00 3.07688223e-15
4.16869383e+01 6.23063640e-13 2.03287593e-15 0.00000000e+00 6.21030764e-13 0.00000000e+00 2.03287593e-15
4.78630092e+01 4.87863708e-13 1.34310781e-15 0.00000000e+00 4.86520600e-13 0.00000000e+00 1.34310781e-15
5.49540874e+01 3.56964362e-13 8.87382527e-16 0.00000000e+00 3.56076979e-13 0.00000000e+00 8.87382527e-16
6.30957344e+01 2.47667016e-13 5.86287821e-16 0.00000000e+00 2.47080728e-13 0.00000000e+00 5.86287821e-16
7.24435960e+01 1.63182623e-13 3.87356522e-16 0.00000000e+00 1.62795267e-13 0.00000000e+00 3.87356522e-16
8.31763771e+01 1.03278436e-13 2.55923916e-16 0.00000000e+00 1.03022512e-13 0.00000000e+00 2.55923916e-16
9.54992586e+01 6.31541223e-14 1.69087255e-16 0.00000000e+00 6.29850351e-14 0.00000000e+00 1.69087255e-16
1.09647820e+02 3.75879016e-14 1.11714841e-16 0.00000000e+00 3.74761867e-14 0.00000000e+00 1.11714841e-16
1.25892541e+02 2.20998005e-14 7.38092637e-17 0.00000000e+00 2.20259912e-14 0.00000000e+00 7.38092637e-17
1.44543977e+02 1.27993523e-14 4.87652969e-17 0.00000000e+00 1.27505870e-14 0.00000000e+00 4.87652969e-17
1.65958691e+02 7.02241324e-15 3.22189122e-17 0.00000000e+00 6.99019433e-15 0.00000000e+00 3.22189122e-17
1.90546072e+02 3.82788363e-15 2.12868242e-17 0.00000000e+00 3.80659681e-15 0.00000000e+00 2.12868242e-17
2.18776162e+02 2.07071698e-15 1.40640653e-17 0.00000000e+00 2.05665292e-15 0.00000000e+00 1.40640653e-17
2.51188643e+02 1.11101512e-15 9.29203577e-18 0.00000000e+00 1.10172309e-15 0.00000000e+00 9.29203577e-18
2.88403150e+02 5.90998429e-16 6.13918715e-18 0.00000000e+00 5.84859242e-16 0.00000000e+00 6.13918715e-18
3.31131121e+02 3.12567452e-16 4.05612073e-18 0.00000000e+00 3.08511331e-16 0.00000000e+00 4.05612073e-18
3.80189396e+02 1.64292527e-16 2.67985239e-18 0.00000000e+00 1.61612675e-16 0.00000000e+00 2.67985239e-18
4.36515832e+02 8.59997463e-17 1.77056092e-18 0.00000000e+00 8.42291854e-17 0.00000000e+00 1.77056092e-18
5.01187234e+02 4.48482303e-17 1.16979800e-18 0.00000000e+00 4.36784323e-17 0.00000000e+00 1.16979800e-18
5.75439937e+02 2.33292746e-17 7.72877871e-19 0.00000000e+00 2.25563968e-17 0.00000000e+00 7.72877871e-19
6.60693448e+02 1.21180440e-17 5.10635346e-19 0.00000000e+00 1.16074086e-17 0.00000000e+00 5.10635346e-19
7.58577575e+02 6.29203423e-18 3.37373427e-19 0.00000000e+00 5.95466080e-18 0.00000000e+00 3.37373427e-19
8.70963590e+02 3.26877385e-18 2.22900413e-19 0.00000000e+00 3.04587343e-18 0.00000000e+00 2.22900413e-19
1.00000000e+03 1.55389756e-18 0.00000000e+00 0.00000000e+00 1.55389756e-18 0.00000000e+00 0.00000000e+00
