# column 1: lambda (micron)
# column 2: total flux; lambda*F_lambda (W/m2)
# column 3: direct stellar flux; lambda*F_lambda (W/m2)
# column 4: scattered stellar flux; lambda*F_lambda (W/m2)
# column 5: total dust emission flux; lambda*F_lambda (W/m2)
# column 6: dust emission scattered flux; lambda*F_lambda (W/m2)
# column 7: transparent flux; lambda*F_lambda (W/m2)
1.00000000e-03 1.07336207e-12 1.07335627e-12 5.79501712e-18 0.00000000e+00 0.00000000e+00 1.07335627e-12
1.14815362e-03 1.26691294e-12 1.26690456e-12 8.38146600e-18 0.00000000e+00 0.00000000e+00 1.26690456e-12
1.31825674e-03 1.49536581e-12 1.49535359e-12 1.22239911e-17 0.00000000e+00 0.00000000e+00 1.49535359e-12
1.51356125e-03 1.76501500e-12 1.76499670e-12 1.82957981e-17 0.00000000e+00 0.00000000e+00 1.76499670e-12
1.73780083e-03 2.08329452e-12 2.08326203e-12 3.24888457e-17 0.00000000e+00 0.00000000e+00 2.08326203e-12
1.99526231e-03 2.45897108e-12 2.45891716e-12 5.39165408e-17 0.00000000e+00 0.00000000e+00 2.45891716e-12
2.29086765e-03 2.90239284e-12 2.90231066e-12 8.21711553e-17 0.00000000e+00 0.00000000e+00 2.90231066e-12
2.63026799e-03 3.42581658e-12 3.42565717e-12 1.59412218e-16 0.00000000e+00 0.00000000e+00 3.42565717e-12
3.01995172e-03 4.04363188e-12 4.04337385e-12 2.58028689e-16 0.00000000e+00 0.00000000e+00 4.04337385e-12
3.46736850e-03 4.77286614e-12 4.77247759e-12 3.88546535e-16 0.00000000e+00 0.00000000e+00 4.77247759e-12
3.98107171e-03 5.63365806e-12 5.63305378e-12 6.04280468e-16 0.00000000e+00 0.00000000e+00 5.63305378e-12
4.57088190e-03 6.65038404e-12 6.64880962e-12 1.57442096e-15 0.00000000e+00 0.00000000e+00 6.64880962e-12
5.24807460e-03 7.85061582e-12 7.84772720e-12 2.88862455e-15 0.00000000e+00 0.00000000e+00 7.84772720e-12
6.02559586e-03 9.26747473e-12 9.26283435e-12 4.64038128e-15 0.00000000e+00 0.00000000e+00 9.26283435e-12
6.91830971e-03 1.09398705e-11 1.09331145e-11 6.75600911e-15 0.00000000e+00 0.00000000e+00 1.09331145e-11
7.94328235e-03 1.29168289e-11 1.29045807e-11 1.22482180e-14 0.00000000e+00 0.00000000e+00 1.29045807e-11
9.12010839e-03 1.52565102e-11 1.52315429e-11 2.49673144e-14 0.00000000e+00 0.00000000e+00 1.52315429e-11
1.04712855e-02 1.70349306e-11 1.70115517e-11 2.33788814e-14 0.00000000e+00 0.00000000e+00 1.70115517e-11
1.20226443e-02 1.70657921e-11 1.70115517e-11 5.42403378e-14 0.00000000e+00 0.00000000e+00 1.70115517e-11
1.38038426e-02 1.70649272e-11 1.70115517e-11 5.33755049e-14 3.40487172e-292 4.66186650e-293 1.70115517e-11
1.58489319e-02 1.71136266e-11 1.70115517e-11 1.02074927e-13 5.40729899e-255 6.61196447e-256 1.70115517e-11
1.81970086e-02 1.71134889e-11 1.70115517e-11 1.01937189e-13 1.35697042e-222 1.89604095e-223 1.70115517e-11
2.08929613e-02 1.71486271e-11 1.70115517e-11 1.37075369e-13 2.01367435e-194 2.99208700e-195 1.70115517e-11
2.39883292e-02 1.71899512e-11 1.70115517e-11 1.78399485e-13 6.82792364e-170 1.14865920e-170 1.70115517e-11
2.75422870e-02 1.72311906e-11 1.70115517e-11 2.19638905e-13 1.47806390e-148 2.32669795e-149 1.70115517e-11
3.16227766e-02 1.72553637e-11 1.70115517e-11 2.43812032e-13 5.41183050e-130 8.82553876e-131 1.70115517e-11
3.63078055e-02 1.72858087e-11 1.70115517e-11 2.74257013e-13 7.43225918e-114 1.22295808e-114 1.70115517e-11
4.16869383e-02 1.73673415e-11 1.70115517e-11 3.55789800e-13 8.04570699e-100 1.42857227e-100 1.70115517e-11
4.78630092e-02 1.74252377e-11 1.70115517e-11 4.13686001e-13 1.22892319e-87 2.36597736e-88 1.70115517e-11
5.49540874e-02 1.74538897e-11 1.70115517e-11 4.42338005e-13 4.59156737e-77 9.12303449e-78 1.70115517e-11
6.30957344e-02 1.74200366e-11 1.70115517e-11 4.08484901e-13 8.71856774e-68 1.81790819e-68 1.70115517e-11
7.24435960e-02 1.73567623e-11 1.70115517e-11 3.45210615e-13 9.41379269e-60 1.82226405e-60 1.70115517e-11
8.31763771e-02 1.73394602e-11 1.70115517e-11 3.27908472e-13 7.50142899e-53 1.42157527e-53 1.70115517e-11
9.54992586e-02 1.73540150e-11 1.70115517e-11 3.42463243e-13 7.19104869e-47 1.39968790e-47 1.70115517e-11
1.09647820e-01 1.66268279e-11 1.62459122e-11 3.80915738e-13 1.04650619e-41 2.17311974e-42 1.62459122e-11
1.25892541e-01 1.55524653e-11 1.51615674e-11 3.90897920e-13 3.04013198e-37 6.47699845e-38 1.51615674e-11
1.44543977e-01 1.45350607e-11 1.41495980e-11 3.85462716e-13 2.07975818e-33 4.31108447e-34 1.41495980e-11
1.65958691e-01 1.36148736e-11 1.32051732e-11 4.09700398e-13 3.24247972e-30 7.08147030e-31 1.32051732e-11
1.90546072e-01 1.27365666e-11 1.23237846e-11 4.12781983e-13 1.29233963e-27 3.16153918e-28 1.23237846e-11
2.18776162e-01 1.18492272e-11 1.15012250e-11 3.48002168e-13 1.89954707e-25 4.82707625e-26 1.15012250e-11
2.51188643e-01 1.11502859e-11 1.07335677e-11 4.16718208e-13 2.49949453e-23 7.25131575e-24 1.07335677e-11
2.88403150e-01 1.04289776e-11 1.00171482e-11 4.11829320e-13 1.63536246e-21 4.74202071e-22 1.00171482e-11
3.31131121e-01 9.74827575e-12 9.34854667e-12 3.99729020e-13 5.78538032e-20 1.69206797e-20 9.34854667e-12
3.80189396e-01 9.10836472e-12 8.72457139e-12 3.83792108e-13 1.22617767e-18 3.62704865e-19 8.72457139e-12
4.36515832e-01 8.49735182e-12 8.14224377e-12 3.55091313e-13 1.67343734e-17 5.09273347e-18 8.14224377e-12
5.01187234e-01 7.93123148e-12 7.59878402e-12 3.32289788e-13 1.57673694e-16 4.97603153e-17 7.59878402e-12
5.75439937e-01 7.40081979e-12 7.09159786e-12 3.08146033e-13 1.07589579e-15 3.48799376e-16 7.09159786e-12
6.60693448e-01 6.90631514e-12 6.61826421e-12 2.82512365e-13 5.53856464e-15 1.81981364e-15 6.61826421e-12
7.58577575e-01 6.45784693e-12 6.17652353e-12 2.58330673e-13 2.29927248e-14 7.60467554e-15 6.17652353e-12
8.70963590e-01 6.06937228e-12 5.76426715e-12 2.27877925e-13 7.72272051e-14 2.50794836e-14 5.76426715e-12
1.00000000e+00 5.78854560e-12 5.37952711e-12 1.90919833e-13 2.18098656e-13 6.67345848e-14 5.37952711e-12
1.14815362e+00 5.71644494e-12 5.02046681e-12 1.58998080e-13 5.36980044e-13 1.50698448e-13 5.02046681e-12
1.31825674e+00 5.97676747e-12 4.68537225e-12 1.25128209e-13 1.16626701e-12 2.85859125e-13 4.68537225e-12
1.51356125e+00 6.69170255e-12 4.37264380e-12 9.81766179e-14 2.22088214e-12 4.66265369e-13 4.37264380e-12
1.73780083e+00 7.96200777e-12 4.08078863e-12 7.61645320e-14 3.80505461e-12 6.71356256e-13 4.08078863e-12
1.99526231e+00 9.62266167e-12 3.80841354e-12 5.97377037e-14 5.75451042e-12 8.17736312e-13 3.80841354e-12
2.29086765e+00 1.15699383e-11 3.55421832e-12 4.52595359e-14 7.97046045e-12 9.02865678e-13 3.55421832e-12
2.63026799e+00 1.34499467e-11 3.31698953e-12 3.42260156e-14 1.00987312e-11 9.01390781e-13 3.31698953e-12
3.01995172e+00 1.52184819e-11 3.09559474e-12 2.61532536e-14 1.20967339e-11 8.40534165e-13 3.09559474e-12
3.46736850e+00 1.65884364e-11 2.88897711e-12 1.95477692e-14 1.36799115e-11 7.35942519e-13 2.88897711e-12
3.98107171e+00 1.76174251e-11 2.69615031e-12 1.43458480e-14 1.49069289e-11 6.06261183e-13 2.69615031e-12
4.57088190e+00 1.82574017e-11 2.51619387e-12 1.02041498e-14 1.57310037e-11 4.68788217e-13 2.51619387e-12
5.24807460e+00 1.81892754e-11 2.08050667e-12 6.14085831e-15 1.61026279e-11 3.33352777e-13 2.08050667e-12
6.02559586e+00 1.76354103e-11 1.37457712e-12 2.83871246e-15 1.62579944e-11 2.23049117e-13 1.37457712e-12
6.70000000e+00 1.70400844e-11 9.99872685e-13 1.50473321e-15 1.60387070e-11 1.54028553e-13 9.99872685e-13
6.92422916e+00 1.68602903e-11 9.05846924e-13 1.22463781e-15 1.59532188e-11 1.36308922e-13 9.05846924e-13
7.15596261e+00 1.66618606e-11 8.20663132e-13 9.76787223e-16 1.58402207e-11 1.18719402e-13 8.20663132e-13
7.39545150e+00 1.66491421e-11 7.43489831e-13 7.39200928e-16 1.59049131e-11 1.00998462e-13 7.43489831e-13
7.64295536e+00 1.69755961e-11 6.73573732e-13 4.99492661e-16 1.63015229e-11 8.13396407e-14 6.73573732e-13
7.89874245e+00 1.76662812e-11 6.10232385e-13 2.86636051e-16 1.70557621e-11 5.96226382e-14 6.10232385e-13
8.16308998e+00 1.83931984e-11 5.52847515e-13 1.55196516e-16 1.78401957e-11 4.23759495e-14 5.52847515e-13
8.43628443e+00 1.91164704e-11 5.00858987e-13 7.93932494e-17 1.86155320e-11 2.87534788e-14 5.00858987e-13
8.71862190e+00 1.92175791e-11 4.53759343e-13 4.83540472e-17 1.87637714e-11 2.15864153e-14 4.53759343e-13
9.01040836e+00 1.94329795e-11 4.11088843e-13 3.05699142e-17 1.90218601e-11 1.66267068e-14 4.11088843e-13
9.31196005e+00 1.95953155e-11 3.72430980e-13 0.00000000e+00 1.92228845e-11 0.00000000e+00 3.72430980e-13
9.62360379e+00 1.91537053e-11 3.37408415e-13 0.00000000e+00 1.88162969e-11 0.00000000e+00 3.37408415e-13
9.94567731e+00 1.90002630e-11 3.05679292e-13 0.00000000e+00 1.86945837e-11 0.00000000e+00 3.05679292e-13
1.02785297e+01 1.87630537e-11 2.76933904e-13 0.00000000e+00 1.84861198e-11 0.00000000e+00 2.76933904e-13
1.06225216e+01 1.82765205e-11 2.50891667e-13 0.00000000e+00 1.80256288e-11 0.00000000e+00 2.50891667e-13
1.09780260e+01 1.81705148e-11 2.27298384e-13 0.00000000e+00 1.79432164e-11 0.00000000e+00 2.27298384e-13
1.13454280e+01 1.78500744e-11 2.05923759e-13 0.00000000e+00 1.76441506e-11 0.00000000e+00 2.05923759e-13
1.17251259e+01 1.76050148e-11 1.86559155e-13 0.00000000e+00 1.74184556e-11 0.00000000e+00 1.86559155e-13
1.21175312e+01 1.72466575e-11 1.69015555e-13 0.00000000e+00 1.70776419e-11 0.00000000e+00 1.69015555e-13
1.25230691e+01 1.70917316e-11 1.53121715e-13 0.00000000e+00 1.69386099e-11 0.00000000e+00 1.53121715e-13
1.29421791e+01 1.67547892e-11 1.38722496e-13 0.00000000e+00 1.66160667e-11 0.00000000e+00 1.38722496e-13
1.33753155e+01 1.64200449e-11 1.25677347e-13 0.00000000e+00 1.62943676e-11 0.00000000e+00 1.25677347e-13
1.38229477e+01 1.61859971e-11 1.13858934e-13 0.00000000e+00 1.60721381e-11 0.00000000e+00 1.13858934e-13
1.42855609e+01 1.60638416e-11 1.03151898e-13 0.00000000e+00 1.59606897e-11 0.00000000e+00 1.03151898e-13
1.47636563e+01 1.62769124e-11 9.34517274e-14 0.00000000e+00 1.61834607e-11 0.00000000e+00 9.34517274e-14
1.52577522e+01 1.65946753e-11 8.46637387e-14 0.00000000e+00 1.65100116e-11 0.00000000e+00 8.46637387e-14
1.57683840e+01 1.69528702e-11 7.67021526e-14 0.00000000e+00 1.68761680e-11 0.00000000e+00 7.67021526e-14
1.62961051e+01 1.72630966e-11 6.94892560e-14 0.00000000e+00 1.71936073e-11 0.00000000e+00 6.94892560e-14
1.68414875e+01 1.75401356e-11 6.29546439e-14 0.00000000e+00 1.74771810e-11 0.00000000e+00 6.29546439e-14
1.74051222e+01 1.78275793e-11 5.70345319e-14 0.00000000e+00 1.77705448e-11 0.00000000e+00 5.70345319e-14
1.79876201e+01 1.79605616e-11 5.16711337e-14 0.00000000e+00 1.79088904e-11 0.00000000e+00 5.16711337e-14
1.85896125e+01 1.79863949e-11 4.68120974e-14 0.00000000e+00 1.79395828e-11 0.00000000e+00 4.68120974e-14
1.92117518e+01 1.79541596e-11 4.24099939e-14 0.00000000e+00 1.79117496e-11 0.00000000e+00 4.24099939e-14
1.98547123e+01 1.78255373e-11 3.84218542e-14 0.00000000e+00 1.77871155e-11 0.00000000e+00 3.84218542e-14
2.05191907e+01 1.76525734e-11 3.48087501e-14 0.00000000e+00 1.76177647e-11 0.00000000e+00 3.48087501e-14
2.12059073e+01 1.73387728e-11 3.15354141e-14 0.00000000e+00 1.73072374e-11 0.00000000e+00 3.15354141e-14
2.19156062e+01 1.71369404e-11 2.85698952e-14 0.00000000e+00 1.71083705e-11 0.00000000e+00 2.85698952e-14
2.26490567e+01 1.68643949e-11 2.58832470e-14 0.00000000e+00 1.68385116e-11 0.00000000e+00 2.58832470e-14
2.34070535e+01 1.64910225e-11 2.34492452e-14 0.00000000e+00 1.64675732e-11 0.00000000e+00 2.34492452e-14
2.41904183e+01 1.61035840e-11 2.12441313e-14 0.00000000e+00 1.60823399e-11 0.00000000e+00 2.12441313e-14
2.50000000e+01 1.57435494e-11 1.92463813e-14 0.00000000e+00 1.57243030e-11 0.00000000e+00 1.92463813e-14
2.75422870e+01 1.43378366e-11 1.43935895e-14 0.00000000e+00 1.43234430e-11 0.00000000e+00 1.43935895e-14
3.16227766e+01 1.21224536e-11 9.50975027e-15 0.00000000e+00 1.21129439e-11 0.00000000e+00 9.50975027e-15
3.63078055e+01 9.59136962e-12 6.28302969e-15 0.00000000e+00 9.58508659e-12 0.00000000e+00 6.28302969e-15
4.16869383e+01 7.09690414e-12 4.15115655e-15 0.00000000e+00 7.09275298e-12 0.00000000e+00 4.15115655e-15
4.78630092e+01 4.87727050e-12 2.74264194e-15 0.00000000e+00 4.87452786e-12 0.00000000e+00 2.74264194e-15
5.49540874e+01 3.16389877e-12 1.81204556e-15 0.00000000e+00 3.16208672e-12 0.00000000e+00 1.81204556e-15
6.30957344e+01 1.94832138e-12 1.19720663e-15 0.00000000e+00 1.94712417e-12 0.00000000e+00 1.19720663e-15
7.24435960e+01 1.15120806e-12 7.90986575e-16 0.00000000e+00 1.15041708e-12 0.00000000e+00 7.90986575e-16
8.31763771e+01 6.59645373e-13 5.22599647e-16 0.00000000e+00 6.59122774e-13 0.00000000e+00 5.22599647e-16
9.54992586e+01 3.69880833e-13 3.45278163e-16 0.00000000e+00 3.69535554e-13 0.00000000e+00 3.45278163e-16
1.09647820e+02 2.03875269e-13 2.28123020e-16 0.00000000e+00 2.03647146e-13 0.00000000e+00 2.28123020e-16
1.25892541e+02 1.12267673e-13 1.50719385e-16 0.00000000e+00 1.12116953e-13 0.00000000e+00 1.50719385e-16
1.44543977e+02 6.14339490e-14 9.95793099e-17 0.00000000e+00 6.13343697e-14 0.00000000e+00 9.95793099e-17
1.65958691e+02 3.20769935e-14 6.57913976e-17 0.00000000e+00 3.20112021e-14 0.00000000e+00 6.57913976e-17
1.90546072e+02 1.67545636e-14 4.34679453e-17 0.00000000e+00 1.67110956e-14 0.00000000e+00 4.34679453e-17
2.18776162e+02 8.73784606e-15 2.87189867e-17 0.00000000e+00 8.70912708e-15 0.00000000e+00 2.87189867e-17
2.51188643e+02 4.54258607e-15 1.89744463e-17 0.00000000e+00 4.52361162e-15 0.00000000e+00 1.89744463e-17
2.88403150e+02 2.35123856e-15 1.25362924e-17 0.00000000e+00 2.33870227e-15 0.00000000e+00 1.25362924e-17
3.31131121e+02 1.21428048e-15 8.28264623e-18 0.00000000e+00 1.20599783e-15 0.00000000e+00 8.28264623e-18
3.80189396e+02 6.25042414e-16 5.47229010e-18 0.00000000e+00 6.19570124e-16 0.00000000e+00 5.47229010e-18
4.36515832e+02 3.21144282e-16 3.61550621e-18 0.00000000e+00 3.17528776e-16 0.00000000e+00 3.61550621e-18
5.01187234e+02 1.64697646e-16 2.38874127e-18 0.00000000e+00 1.62308905e-16 0.00000000e+00 2.38874127e-18
5.75439937e+02 8.43639509e-17 1.57822570e-18 0.00000000e+00 8.27857252e-17 0.00000000e+00 1.57822570e-18
6.60693448e+02 4.31898220e-17 1.04272338e-18 0.00000000e+00 4.21470987e-17 0.00000000e+00 1.04272338e-18
7.58577575e+02 2.21118749e-17 6.88920507e-19 0.00000000e+00 2.14229543e-17 0.00000000e+00 6.88920507e-19
8.70963590e+02 1.13261970e-17 4.55165265e-19 0.00000000e+00 1.08710317e-17 0.00000000e+00 4.55165265e-19
1.00000000e+03 5.50793194e-18 0.00000000e+00 0.00000000e+00 5.50793194e-18 0.00000000e+00 0.00000000e+00
