# column 1: lambda (micron)
# column 2: total flux; lambda*F_lambda (W/m2)
# column 3: direct stellar flux; lambda*F_lambda (W/m2)
# column 4: scattered stellar flux; lambda*F_lambda (W/m2)
# column 5: total dust emission flux; lambda*F_lambda (W/m2)
# column 6: dust emission scattered flux; lambda*F_lambda (W/m2)
# column 7: transparent flux; lambda*F_lambda (W/m2)
1.00000000e-03 9.68080002e-13 9.68073281e-13 6.72130029e-18 0.00000000e+00 0.00000000e+00 9.68073281e-13
1.14815362e-03 1.14264672e-12 1.14263687e-12 9.85009401e-18 0.00000000e+00 0.00000000e+00 1.14263687e-12
1.31825674e-03 1.34869314e-12 1.34867788e-12 1.52597282e-17 0.00000000e+00 0.00000000e+00 1.34867788e-12
1.51356125e-03 1.59189642e-12 1.59187233e-12 2.40862292e-17 0.00000000e+00 0.00000000e+00 1.59187233e-12
1.73780083e-03 1.87896178e-12 1.87891976e-12 4.20197408e-17 0.00000000e+00 0.00000000e+00 1.87891976e-12
1.99526231e-03 2.21780556e-12 2.21772777e-12 7.77998606e-17 0.00000000e+00 0.00000000e+00 2.21772777e-12
2.29086765e-03 2.61775214e-12 2.61762985e-12 1.22299120e-16 0.00000000e+00 0.00000000e+00 2.61762985e-12
2.63026799e-03 3.08988771e-12 3.08964252e-12 2.45187413e-16 0.00000000e+00 0.00000000e+00 3.08964252e-12
3.01995172e-03 3.64720867e-12 3.64676883e-12 4.39840054e-16 0.00000000e+00 0.00000000e+00 3.64676883e-12
3.46736850e-03 4.30509504e-12 4.30435650e-12 7.38543006e-16 0.00000000e+00 0.00000000e+00 4.30435650e-12
3.98107171e-03 5.08179940e-12 5.08052080e-12 1.27859954e-15 0.00000000e+00 0.00000000e+00 5.08052080e-12
4.57088190e-03 6.00011311e-12 5.99664354e-12 3.46956902e-15 0.00000000e+00 0.00000000e+00 5.99664354e-12
5.24807460e-03 7.08273038e-12 7.07796211e-12 4.76826326e-15 0.00000000e+00 0.00000000e+00 7.07796211e-12
6.02559586e-03 8.36294705e-12 8.35426474e-12 8.68230457e-15 0.00000000e+00 0.00000000e+00 8.35426474e-12
6.91830971e-03 9.87525062e-12 9.86071107e-12 1.45395508e-14 0.00000000e+00 0.00000000e+00 9.86071107e-12
7.94328235e-03 1.16624850e-11 1.16388008e-11 2.36842732e-14 6.41644896e-304 1.35621560e-305 1.16388008e-11
9.12010839e-03 1.37763185e-11 1.37375167e-11 3.88017617e-14 2.59856619e-265 3.69127312e-267 1.37375167e-11
1.04712855e-02 1.54003521e-11 1.53429287e-11 5.74234602e-14 1.03374163e-231 1.67660121e-233 1.53429287e-11
1.20226443e-02 1.54355749e-11 1.53429287e-11 9.26462181e-14 1.54815375e-202 4.06909496e-204 1.53429287e-11
1.38038426e-02 1.54734924e-11 1.53429287e-11 1.30563740e-13 4.01470152e-177 1.01610660e-178 1.53429287e-11
1.58489319e-02 1.55335548e-11 1.53429287e-11 1.90626148e-13 5.28379614e-155 2.11597375e-156 1.53429287e-11
1.81970086e-02 1.55939351e-11 1.53429287e-11 2.51006394e-13 9.15550627e-136 4.44937058e-137 1.53429287e-11
2.08929613e-02 1.56873859e-11 1.53429287e-11 3.44457248e-13 4.66782332e-119 2.64680472e-120 1.53429287e-11
2.39883292e-02 1.58049923e-11 1.53429287e-11 4.62063668e-13 1.60889935e-104 1.10178024e-105 1.53429287e-11
2.75422870e-02 1.59046785e-11 1.53429287e-11 5.61749793e-13 7.09881298e-92 5.71813547e-93 1.53429287e-11
3.16227766e-02 1.60145391e-11 1.53429287e-11 6.71610459e-13 6.77659964e-81 5.63709817e-82 1.53429287e-11
3.63078055e-02 1.60579725e-11 1.53429287e-11 7.15043867e-13 2.31452417e-71 2.06095694e-72 1.53429287e-11
4.16869383e-02 1.62006889e-11 1.53429287e-11 8.57760258e-13 4.36258227e-63 4.36251969e-64 1.53429287e-11
4.78630092e-02 1.62995428e-11 1.53429287e-11 9.56614090e-13 6.52749689e-56 7.27745106e-57 1.53429287e-11
5.49540874e-02 1.63445257e-11 1.53429287e-11 1.00159699e-12 1.06741914e-49 1.24148695e-50 1.53429287e-11
6.30957344e-02 1.63150948e-11 1.53429287e-11 9.72166142e-13 3.35767034e-44 3.88328803e-45 1.53429287e-11
7.24435960e-02 1.61858350e-11 1.53429287e-11 8.42906382e-13 1.87968072e-39 1.92025012e-40 1.53429287e-11
8.31763771e-02 1.61614687e-11 1.53429287e-11 8.18540070e-13 1.90416385e-35 1.87333424e-36 1.53429287e-11
9.54992586e-02 1.61677509e-11 1.53429287e-11 8.24822198e-13 5.35851152e-32 5.45419711e-33 1.53429287e-11
1.09647820e-01 1.55287221e-11 1.46523889e-11 8.76333165e-13 4.59388717e-29 5.17189556e-30 1.46523889e-11
1.25892541e-01 1.45351755e-11 1.36744049e-11 8.60770517e-13 1.49550668e-26 1.70924915e-27 1.36744049e-11
1.44543977e-01 1.35576459e-11 1.27616972e-11 7.95948686e-13 2.03723738e-24 2.28296904e-25 1.27616972e-11
1.65958691e-01 1.26916404e-11 1.19099088e-11 7.81731559e-13 1.03557620e-22 1.24688530e-23 1.19099088e-11
1.90546072e-01 1.19120128e-11 1.11149736e-11 7.97039144e-13 2.17807376e-21 2.90349644e-22 1.11149736e-11
2.18776162e-01 1.10866970e-11 1.03730969e-11 7.13600014e-13 2.54047659e-20 3.30932546e-21 1.03730969e-11
2.51188643e-01 1.04493046e-11 9.68073733e-12 7.68566921e-13 3.12276420e-19 4.76504597e-20 9.68073733e-12
2.88403150e-01 9.75286445e-12 9.03458975e-12 7.18272093e-13 2.60047111e-18 3.90969977e-19 9.03458975e-12
3.31131121e-01 9.09905148e-12 8.43156974e-12 6.67466784e-13 1.49516576e-17 2.23625360e-18 8.43156974e-12
3.80189396e-01 8.46465322e-12 7.86879872e-12 5.95792053e-13 6.24483604e-17 9.08656846e-18 7.86879872e-12
4.36515832e-01 7.87275995e-12 7.34359025e-12 5.28965877e-13 2.03821892e-16 3.06510236e-17 7.34359025e-12
5.01187234e-01 7.33220013e-12 6.85343719e-12 4.78187521e-13 5.75422711e-16 9.68180308e-17 6.85343719e-12
5.75439937e-01 6.81516326e-12 6.39599973e-12 4.17520546e-13 1.64298549e-15 3.41504072e-16 6.39599973e-12
6.60693448e-01 6.33725255e-12 5.96909425e-12 3.62914553e-13 5.24374631e-15 1.29421967e-15 5.96909425e-12
7.58577575e-01 5.90264916e-12 5.57068288e-12 3.14716370e-13 1.72499051e-14 4.54434763e-15 5.57068288e-12
8.70963590e-01 5.51650856e-12 5.19886376e-12 2.65022685e-13 5.26221192e-14 1.34630135e-14 5.19886376e-12
1.00000000e+00 5.21257351e-12 4.85186196e-12 2.20648971e-13 1.40062580e-13 3.34616988e-14 4.85186196e-12
1.14815362e+00 5.03653349e-12 4.52802104e-12 1.78353675e-13 3.30158773e-13 7.11979765e-14 4.52802104e-12
1.31825674e+00 5.06545647e-12 4.22579511e-12 1.38515065e-13 7.01146296e-13 1.30831057e-13 4.22579511e-12
1.51356125e+00 5.37019044e-12 3.94374146e-12 1.06618088e-13 1.31983089e-12 2.10970748e-13 3.94374146e-12
1.73780083e+00 5.99860023e-12 3.68051368e-12 8.23839164e-14 2.23570263e-12 2.98824973e-13 3.68051368e-12
1.99526231e+00 6.87481025e-12 3.43485522e-12 6.19882314e-14 3.37796679e-12 3.66551610e-13 3.43485522e-12
2.29086765e+00 7.92502761e-12 3.20559341e-12 4.43177815e-14 4.67511642e-12 3.97076817e-13 3.20559341e-12
2.63026799e+00 9.00627864e-12 2.99163384e-12 3.23494153e-14 5.98229539e-12 3.90085519e-13 2.99163384e-12
3.01995172e+00 1.00131625e-11 2.79195514e-12 2.30388979e-14 7.19816846e-12 3.58500874e-13 2.79195514e-12
3.46736850e+00 1.08227373e-11 2.60560415e-12 1.60099015e-14 8.20112328e-12 3.05514904e-13 2.60560415e-12
3.98107171e+00 1.14088822e-11 2.43169128e-12 1.10185492e-14 8.96617233e-12 2.49111930e-13 2.43169128e-12
4.57088190e+00 1.18268793e-11 2.26938634e-12 7.33576828e-15 9.55015714e-12 1.89524430e-13 2.26938634e-12
5.24807460e+00 1.18086158e-11 1.87643467e-12 4.17827217e-15 9.92800285e-12 1.35752574e-13 1.87643467e-12
6.02559586e+00 1.14178890e-11 1.23974809e-12 1.82075226e-15 1.01763201e-11 9.18839111e-14 1.23974809e-12
6.70000000e+00 1.11268981e-11 9.01797527e-13 9.36295805e-16 1.02241643e-11 6.55300062e-14 9.01797527e-13
6.92422916e+00 1.10437125e-11 8.16994532e-13 7.56660745e-16 1.02259614e-11 5.82319042e-14 8.16994532e-13
7.15596261e+00 1.10090548e-11 7.40166218e-13 5.92460152e-16 1.02682962e-11 5.13797099e-14 7.40166218e-13
7.39545150e+00 1.10464073e-11 6.70562664e-13 4.50887755e-16 1.03753937e-11 4.40899459e-14 6.70562664e-13
7.64295536e+00 1.13658084e-11 6.07504471e-13 3.15520196e-16 1.07579884e-11 3.61506811e-14 6.07504471e-13
7.89874245e+00 1.20904270e-11 5.50376127e-13 1.91412708e-16 1.15398594e-11 2.75159921e-14 5.50376127e-13
8.16308998e+00 1.30992991e-11 4.98620004e-13 1.09855590e-16 1.26005692e-11 2.05440241e-14 4.98620004e-13
8.43628443e+00 1.44313595e-11 4.51730909e-13 5.89518805e-17 1.39795696e-11 1.46712038e-14 4.51730909e-13
8.71862190e+00 1.53592316e-11 4.09251158e-13 3.52668447e-17 1.49499452e-11 1.14629335e-14 4.09251158e-13
9.01040836e+00 1.64215854e-11 3.70766106e-13 2.06876922e-17 1.60507986e-11 8.58634899e-15 3.70766106e-13
9.31196005e+00 1.72619397e-11 3.35900102e-13 0.00000000e+00 1.69260396e-11 0.00000000e+00 3.35900102e-13
9.62360379e+00 1.71258472e-11 3.04312818e-13 0.00000000e+00 1.68215344e-11 0.00000000e+00 3.04312818e-13
9.94567731e+00 1.67383725e-11 2.75695930e-13 0.00000000e+00 1.64626765e-11 0.00000000e+00 2.75695930e-13
1.02785297e+01 1.59939958e-11 2.49770110e-13 0.00000000e+00 1.57442257e-11 0.00000000e+00 2.49770110e-13
1.06225216e+01 1.55382019e-11 2.26282295e-13 0.00000000e+00 1.53119196e-11 0.00000000e+00 2.26282295e-13
1.09780260e+01 1.47132877e-11 2.05003220e-13 0.00000000e+00 1.45082844e-11 0.00000000e+00 2.05003220e-13
1.13454280e+01 1.42071935e-11 1.85725182e-13 0.00000000e+00 1.40214683e-11 0.00000000e+00 1.85725182e-13
1.17251259e+01 1.36236796e-11 1.68260007e-13 0.00000000e+00 1.34554196e-11 0.00000000e+00 1.68260007e-13
1.21175312e+01 1.32886862e-11 1.52437217e-13 0.00000000e+00 1.31362489e-11 0.00000000e+00 1.52437217e-13
1.25230691e+01 1.28406708e-11 1.38102367e-13 0.00000000e+00 1.27025684e-11 0.00000000e+00 1.38102367e-13
1.29421791e+01 1.25100375e-11 1.25115533e-13 0.00000000e+00 1.23849219e-11 0.00000000e+00 1.25115533e-13
1.33753155e+01 1.21919635e-11 1.13349952e-13 0.00000000e+00 1.20786136e-11 0.00000000e+00 1.13349952e-13
1.38229477e+01 1.19466333e-11 1.02690779e-13 0.00000000e+00 1.18439425e-11 0.00000000e+00 1.02690779e-13
1.42855609e+01 1.19200300e-11 9.30339713e-14 0.00000000e+00 1.18269960e-11 0.00000000e+00 9.30339713e-14
1.47636563e+01 1.21861941e-11 8.42852675e-14 0.00000000e+00 1.21019088e-11 0.00000000e+00 8.42852675e-14
1.52577522e+01 1.24383786e-11 7.63592720e-14 0.00000000e+00 1.23620193e-11 0.00000000e+00 7.63592720e-14
1.57683840e+01 1.27461541e-11 6.91786191e-14 0.00000000e+00 1.26769755e-11 0.00000000e+00 6.91786191e-14
1.62961051e+01 1.30109481e-11 6.26732185e-14 0.00000000e+00 1.29482749e-11 0.00000000e+00 6.26732185e-14
1.68414875e+01 1.33276017e-11 5.67795711e-14 0.00000000e+00 1.32708221e-11 0.00000000e+00 5.67795711e-14
1.74051222e+01 1.35291446e-11 5.14401489e-14 0.00000000e+00 1.34777045e-11 0.00000000e+00 5.14401489e-14
1.79876201e+01 1.36297171e-11 4.66028339e-14 0.00000000e+00 1.35831142e-11 0.00000000e+00 4.66028339e-14
1.85896125e+01 1.36662496e-11 4.22204090e-14 0.00000000e+00 1.36240292e-11 0.00000000e+00 4.22204090e-14
1.92117518e+01 1.34845343e-11 3.82500974e-14 0.00000000e+00 1.34462842e-11 0.00000000e+00 3.82500974e-14
1.98547123e+01 1.33628116e-11 3.46531450e-14 0.00000000e+00 1.33281585e-11 0.00000000e+00 3.46531450e-14
2.05191907e+01 1.30976330e-11 3.13944418e-14 0.00000000e+00 1.30662385e-11 0.00000000e+00 3.13944418e-14
2.12059073e+01 1.27687672e-11 2.84421796e-14 0.00000000e+00 1.27403250e-11 0.00000000e+00 2.84421796e-14
2.19156062e+01 1.25257078e-11 2.57675415e-14 0.00000000e+00 1.24999403e-11 0.00000000e+00 2.57675415e-14
2.26490567e+01 1.21924174e-11 2.33444203e-14 0.00000000e+00 1.21690730e-11 0.00000000e+00 2.33444203e-14
2.34070535e+01 1.19087303e-11 2.11491639e-14 0.00000000e+00 1.18875811e-11 0.00000000e+00 2.11491639e-14
2.41904183e+01 1.15243767e-11 1.91603445e-14 0.00000000e+00 1.15052164e-11 0.00000000e+00 1.91603445e-14
2.50000000e+01 1.11522698e-11 1.73585491e-14 0.00000000e+00 1.11349112e-11 0.00000000e+00 1.73585491e-14
2.75422870e+01 1.00366957e-11 1.29817562e-14 0.00000000e+00 1.00237139e-11 0.00000000e+00 1.29817562e-14
3.16227766e+01 8.25000037e-12 8.57696126e-15 0.00000000e+00 8.24142341e-12 0.00000000e+00 8.57696126e-15
3.63078055e+01 6.33940798e-12 5.66674211e-15 0.00000000e+00 6.33374123e-12 0.00000000e+00 5.66674211e-15
4.16869383e+01 4.55360952e-12 3.74397938e-15 0.00000000e+00 4.54986554e-12 0.00000000e+00 3.74397938e-15
4.78630092e+01 3.05553496e-12 2.47362265e-15 0.00000000e+00 3.05306134e-12 0.00000000e+00 2.47362265e-15
5.49540874e+01 1.93430254e-12 1.63430628e-15 0.00000000e+00 1.93266824e-12 0.00000000e+00 1.63430628e-15
6.30957344e+01 1.16847525e-12 1.07977545e-15 0.00000000e+00 1.16739548e-12 0.00000000e+00 1.07977545e-15
7.24435960e+01 6.78464485e-13 7.13400564e-16 0.00000000e+00 6.77751085e-13 0.00000000e+00 7.13400564e-16
8.31763771e+01 3.82716358e-13 4.71339078e-16 0.00000000e+00 3.82245019e-13 0.00000000e+00 4.71339078e-16
9.54992586e+01 2.11690578e-13 3.11410641e-16 0.00000000e+00 2.11379167e-13 0.00000000e+00 3.11410641e-16
1.09647820e+02 1.15418278e-13 2.05746970e-16 0.00000000e+00 1.15212531e-13 0.00000000e+00 2.05746970e-16
1.25892541e+02 6.29175960e-14 1.35935675e-16 0.00000000e+00 6.27816604e-14 0.00000000e+00 1.35935675e-16
1.44543977e+02 3.41377871e-14 8.98118099e-17 0.00000000e+00 3.40479753e-14 0.00000000e+00 8.98118099e-17
1.65958691e+02 1.76817581e-14 5.93380743e-17 0.00000000e+00 1.76224200e-14 0.00000000e+00 5.93380743e-17
1.90546072e+02 9.17297210e-15 3.92042769e-17 0.00000000e+00 9.13376782e-15 0.00000000e+00 3.92042769e-17
2.18776162e+02 4.75647686e-15 2.59020089e-17 0.00000000e+00 4.73057486e-15 0.00000000e+00 2.59020089e-17
2.51188643e+02 2.46100490e-15 1.71132876e-17 0.00000000e+00 2.44389161e-15 0.00000000e+00 1.71132876e-17
2.88403150e+02 1.26902876e-15 1.13066370e-17 0.00000000e+00 1.25772212e-15 0.00000000e+00 1.13066370e-17
3.31131121e+02 6.53391364e-16 7.47022097e-18 0.00000000e+00 6.45921143e-16 0.00000000e+00 7.47022097e-18
3.80189396e+02 3.35613379e-16 4.93552605e-18 0.00000000e+00 3.30677853e-16 0.00000000e+00 4.93552605e-18
4.36515832e+02 1.72226272e-16 3.26086972e-18 0.00000000e+00 1.68965402e-16 0.00000000e+00 3.26086972e-18
5.01187234e+02 8.82966398e-17 2.15443526e-18 0.00000000e+00 8.61422045e-17 0.00000000e+00 2.15443526e-18
5.75439937e+02 4.52620654e-17 1.42342126e-18 0.00000000e+00 4.38386442e-17 0.00000000e+00 1.42342126e-18
6.60693448e+02 2.32154144e-17 9.40445101e-19 0.00000000e+00 2.22749693e-17 0.00000000e+00 9.40445101e-19
7.58577575e+02 1.19242609e-17 6.21345916e-19 0.00000000e+00 1.13029150e-17 0.00000000e+00 6.21345916e-19
8.70963590e+02 6.13775822e-18 4.10519176e-19 0.00000000e+00 5.72723904e-18 0.00000000e+00 4.10519176e-19
1.00000000e+03 2.89808298e-18 0.00000000e+00 0.00000000e+00 2.89808298e-18 0.00000000e+00 0.00000000e+00
