# column 1: lambda (micron)
# column 2: total flux; lambda*F_lambda (W/m2)
# column 3: direct stellar flux; lambda*F_lambda (W/m2)
# column 4: scattered stellar flux; lambda*F_lambda (W/m2)
# column 5: total dust emission flux; lambda*F_lambda (W/m2)
# column 6: dust emission scattered flux; lambda*F_lambda (W/m2)
# column 7: transparent flux; lambda*F_lambda (W/m2)
1.00000000e-03 1.04634712e-12 1.04634360e-12 3.51371987e-18 0.00000000e+00 0.00000000e+00 1.04634360e-12
1.14815362e-03 1.23502619e-12 1.23502095e-12 5.23888113e-18 0.00000000e+00 0.00000000e+00 1.23502095e-12
1.31825674e-03 1.45772836e-12 1.45772071e-12 7.65311346e-18 0.00000000e+00 0.00000000e+00 1.45772071e-12
1.51356125e-03 1.72058941e-12 1.72057784e-12 1.15777906e-17 0.00000000e+00 0.00000000e+00 1.72057784e-12
1.73780083e-03 2.03085422e-12 2.03083353e-12 2.06990057e-17 0.00000000e+00 0.00000000e+00 2.03083353e-12
1.99526231e-03 2.39706971e-12 2.39703472e-12 3.49915317e-17 0.00000000e+00 0.00000000e+00 2.39703472e-12
2.29086765e-03 2.82932275e-12 2.82926954e-12 5.32132538e-17 0.00000000e+00 0.00000000e+00 2.82926954e-12
2.63026799e-03 3.33954972e-12 3.33944522e-12 1.04497479e-16 0.00000000e+00 0.00000000e+00 3.33944522e-12
3.01995172e-03 3.94178082e-12 3.94161611e-12 1.64715892e-16 0.00000000e+00 0.00000000e+00 3.94161611e-12
3.46736850e-03 4.65263899e-12 4.65237083e-12 2.68162129e-16 0.00000000e+00 0.00000000e+00 4.65237083e-12
3.98107171e-03 5.49184340e-12 5.49128930e-12 5.54103926e-16 0.00000000e+00 0.00000000e+00 5.49128930e-12
4.57088190e-03 6.48250460e-12 6.48148207e-12 1.02253017e-15 0.00000000e+00 0.00000000e+00 6.48148207e-12
5.24807460e-03 7.65197771e-12 7.65022704e-12 1.75066629e-15 0.00000000e+00 0.00000000e+00 7.65022704e-12
6.02559586e-03 9.03274657e-12 9.02972084e-12 3.02572395e-15 0.00000000e+00 0.00000000e+00 9.02972084e-12
6.91830971e-03 1.06628767e-11 1.06579658e-11 4.91084457e-15 0.00000000e+00 0.00000000e+00 1.06579658e-11
7.94328235e-03 1.25883789e-11 1.25798170e-11 8.56190954e-15 0.00000000e+00 0.00000000e+00 1.25798170e-11
9.12010839e-03 1.48603990e-11 1.48482176e-11 1.21813506e-14 0.00000000e+00 0.00000000e+00 1.48482176e-11
1.04712855e-02 1.65989440e-11 1.65834298e-11 1.55141673e-14 0.00000000e+00 0.00000000e+00 1.65834298e-11
1.20226443e-02 1.66151510e-11 1.65834298e-11 3.17212105e-14 0.00000000e+00 0.00000000e+00 1.65834298e-11
1.38038426e-02 1.66293328e-11 1.65834298e-11 4.59030057e-14 2.44745721e-291 2.89676656e-292 1.65834298e-11
1.58489319e-02 1.66345218e-11 1.65834298e-11 5.10920371e-14 2.88381404e-254 3.13207732e-255 1.65834298e-11
1.81970086e-02 1.66494386e-11 1.65834298e-11 6.60088493e-14 5.47163032e-222 7.64338005e-223 1.65834298e-11
2.08929613e-02 1.66895546e-11 1.65834298e-11 1.06124794e-13 6.08109099e-194 7.35074443e-195 1.65834298e-11
2.39883292e-02 1.67115152e-11 1.65834298e-11 1.28085458e-13 1.59923008e-169 1.94084270e-170 1.65834298e-11
2.75422870e-02 1.67448672e-11 1.65834298e-11 1.61437371e-13 2.82755041e-148 3.28322314e-149 1.65834298e-11
3.16227766e-02 1.67783549e-11 1.65834298e-11 1.94925138e-13 8.52998253e-130 1.01582130e-130 1.65834298e-11
3.63078055e-02 1.67975413e-11 1.65834298e-11 2.14111564e-13 9.85864771e-114 1.17788278e-114 1.65834298e-11
4.16869383e-02 1.68679645e-11 1.65834298e-11 2.84534748e-13 9.22556702e-100 1.23454760e-100 1.65834298e-11
4.78630092e-02 1.69313705e-11 1.65834298e-11 3.47940700e-13 1.24738284e-87 1.82914174e-88 1.65834298e-11
5.49540874e-02 1.69804448e-11 1.65834298e-11 3.97015031e-13 4.29952713e-77 6.70665949e-78 1.65834298e-11
6.30957344e-02 1.69918457e-11 1.65834298e-11 4.08415900e-13 7.83525787e-68 1.25776024e-68 1.65834298e-11
7.24435960e-02 1.69417231e-11 1.65834298e-11 3.58293268e-13 8.35405016e-60 1.21896847e-60 1.65834298e-11
8.31763771e-02 1.69375821e-11 1.65834298e-11 3.54152318e-13 6.24049374e-53 8.95509740e-54 1.65834298e-11
9.54992586e-02 1.69431253e-11 1.65834298e-11 3.59695517e-13 5.61158204e-47 8.45474856e-48 1.65834298e-11
1.09647820e-01 1.62354658e-11 1.58370587e-11 3.98407086e-13 7.52728624e-42 1.25947726e-42 1.58370587e-11
1.25892541e-01 1.51675764e-11 1.47800032e-11 3.87573211e-13 2.05179755e-37 3.55260055e-38 1.47800032e-11
1.44543977e-01 1.41627112e-11 1.37935015e-11 3.69209707e-13 1.34908736e-33 2.35008091e-34 1.37935015e-11
1.65958691e-01 1.32648810e-11 1.28728446e-11 3.92036377e-13 2.07270924e-30 4.01551389e-31 1.28728446e-11
1.90546072e-01 1.24288091e-11 1.20136376e-11 4.15171457e-13 8.64612615e-28 1.91779591e-28 1.20136376e-11
2.18776162e-01 1.15807439e-11 1.12117790e-11 3.68964970e-13 1.36073613e-25 3.13433276e-26 1.12117790e-11
2.51188643e-01 1.09115580e-11 1.04634409e-11 4.48117045e-13 1.83008166e-23 5.15128858e-24 1.04634409e-11
2.88403150e-01 1.01965195e-11 9.76505125e-12 4.31468247e-13 1.26274784e-21 3.66500106e-22 9.76505125e-12
3.31131121e-01 9.52615934e-12 9.11327608e-12 4.12883217e-13 4.77557879e-20 1.41352841e-20 9.11327608e-12
3.80189396e-01 8.89415445e-12 8.50500410e-12 3.89149261e-13 1.09061514e-18 3.32554237e-19 8.50500410e-12
4.36515832e-01 8.30365246e-12 7.93733165e-12 3.66304539e-13 1.62672535e-17 5.09392992e-18 7.93733165e-12
5.01187234e-01 7.74753306e-12 7.40754890e-12 3.39820725e-13 1.63435725e-16 5.24147379e-17 7.40754890e-12
5.75439937e-01 7.23322764e-12 6.91312687e-12 3.18920146e-13 1.18062081e-15 3.83309532e-16 6.91312687e-12
6.60693448e-01 6.75314105e-12 6.45170538e-12 2.95110121e-13 6.32554503e-15 2.07124573e-15 6.45170538e-12
7.58577575e-01 6.31608630e-12 6.02108180e-12 2.68459938e-13 2.65445634e-14 8.56760696e-15 6.02108180e-12
8.70963590e-01 5.94721091e-12 5.61920048e-12 2.38480486e-13 8.95299440e-14 2.80655335e-14 5.61920048e-12
1.00000000e+00 5.70060716e-12 5.24414302e-12 2.04099216e-13 2.52364924e-13 7.44970180e-14 5.24414302e-12
1.14815362e+00 5.66702275e-12 4.89411902e-12 1.67689537e-13 6.05214185e-13 1.63316122e-13 4.89411902e-12
1.31825674e+00 5.98151402e-12 4.56745763e-12 1.32095459e-13 1.28196093e-12 3.04314596e-13 4.56745763e-12
1.51356125e+00 6.76529368e-12 4.26259947e-12 1.02075580e-13 2.40061863e-12 4.92199493e-13 4.26259947e-12
1.73780083e+00 8.00349593e-12 3.97808929e-12 7.80800608e-14 3.94732658e-12 6.83153029e-13 3.97808929e-12
1.99526231e+00 9.52231217e-12 3.71256894e-12 5.87510573e-14 5.75099217e-12 8.04562751e-13 3.71256894e-12
2.29086765e+00 1.11403273e-11 3.46477093e-12 4.43192787e-14 7.63123712e-12 8.39025568e-13 3.46477093e-12
2.63026799e+00 1.25392996e-11 3.23351237e-12 3.27137872e-14 9.27307343e-12 7.85604220e-13 3.23351237e-12
3.01995172e+00 1.36603209e-11 3.01768933e-12 2.42274385e-14 1.06184042e-11 6.92558983e-13 3.01768933e-12
3.46736850e+00 1.43588173e-11 2.81627154e-12 1.74382842e-14 1.15251074e-11 5.75203635e-13 2.81627154e-12
3.98107171e+00 1.46200918e-11 2.62829753e-12 1.24911546e-14 1.19793031e-11 4.51260644e-13 2.62829753e-12
4.57088190e+00 1.45611288e-11 2.45286997e-12 8.78318914e-15 1.20994757e-11 3.31633439e-13 2.45286997e-12
5.24807460e+00 1.39893806e-11 2.02814751e-12 5.16754774e-15 1.19560656e-11 2.27107956e-13 2.02814751e-12
6.02559586e+00 1.30054594e-11 1.33998377e-12 2.34283259e-15 1.16631328e-11 1.47365260e-13 1.33998377e-12
6.70000000e+00 1.22837271e-11 9.74709347e-13 1.22320111e-15 1.13077946e-11 1.00669765e-13 9.74709347e-13
6.92422916e+00 1.20130914e-11 8.83049889e-13 9.98391132e-16 1.11290432e-11 8.85432020e-14 8.83049889e-13
7.15596261e+00 1.18857165e-11 8.00009879e-13 7.91081331e-16 1.10849156e-11 7.65928036e-14 8.00009879e-13
7.39545150e+00 1.18345160e-11 7.24778763e-13 6.06499582e-16 1.11091307e-11 6.55396622e-14 7.24778763e-13
7.64295536e+00 1.21765931e-11 6.56622211e-13 4.12922626e-16 1.15195580e-11 5.28623857e-14 6.56622211e-13
7.89874245e+00 1.28984129e-11 5.94874946e-13 2.42304591e-16 1.23032956e-11 3.99105197e-14 5.94874946e-13
8.16308998e+00 1.37979084e-11 5.38934254e-13 1.34046994e-16 1.32588401e-11 2.90625225e-14 5.38934254e-13
8.43628443e+00 1.47852370e-11 4.88254098e-13 7.09195798e-17 1.42969119e-11 2.04456797e-14 4.88254098e-13
8.71862190e+00 1.52962816e-11 4.42339790e-13 4.41256953e-17 1.48538977e-11 1.57070408e-14 4.42339790e-13
9.01040836e+00 1.57828723e-11 4.00743158e-13 2.88001882e-17 1.53821004e-11 1.20156508e-14 4.00743158e-13
9.31196005e+00 1.60249891e-11 3.63058180e-13 0.00000000e+00 1.56619309e-11 0.00000000e+00 3.63058180e-13
9.62360379e+00 1.57737046e-11 3.28917012e-13 0.00000000e+00 1.54447876e-11 0.00000000e+00 3.28917012e-13
9.94567731e+00 1.52404465e-11 2.97986401e-13 0.00000000e+00 1.49424601e-11 0.00000000e+00 2.97986401e-13
1.02785297e+01 1.48689059e-11 2.69964435e-13 0.00000000e+00 1.45989414e-11 0.00000000e+00 2.69964435e-13
1.06225216e+01 1.42135295e-11 2.44577592e-13 0.00000000e+00 1.39689519e-11 0.00000000e+00 2.44577592e-13
1.09780260e+01 1.36898268e-11 2.21578069e-13 0.00000000e+00 1.34682487e-11 0.00000000e+00 2.21578069e-13
1.13454280e+01 1.32887262e-11 2.00741370e-13 0.00000000e+00 1.30879848e-11 0.00000000e+00 2.00741370e-13
1.17251259e+01 1.27656300e-11 1.81864106e-13 0.00000000e+00 1.25837658e-11 0.00000000e+00 1.81864106e-13
1.21175312e+01 1.23921756e-11 1.64762018e-13 0.00000000e+00 1.22274136e-11 0.00000000e+00 1.64762018e-13
1.25230691e+01 1.19774214e-11 1.49268171e-13 0.00000000e+00 1.18281532e-11 0.00000000e+00 1.49268171e-13
1.29421791e+01 1.15945237e-11 1.35231331e-13 0.00000000e+00 1.14592923e-11 0.00000000e+00 1.35231331e-13
1.33753155e+01 1.11594322e-11 1.22514483e-13 0.00000000e+00 1.10369177e-11 0.00000000e+00 1.22514483e-13
1.38229477e+01 1.09140177e-11 1.10993499e-13 0.00000000e+00 1.08030242e-11 0.00000000e+00 1.10993499e-13
1.42855609e+01 1.07960531e-11 1.00555922e-13 0.00000000e+00 1.06954972e-11 0.00000000e+00 1.00555922e-13
1.47636563e+01 1.09486635e-11 9.10998706e-14 0.00000000e+00 1.08575636e-11 0.00000000e+00 9.10998706e-14
1.52577522e+01 1.11545790e-11 8.25330452e-14 0.00000000e+00 1.10720460e-11 0.00000000e+00 8.25330452e-14
1.57683840e+01 1.14574079e-11 7.47718247e-14 0.00000000e+00 1.13826360e-11 0.00000000e+00 7.47718247e-14
1.62961051e+01 1.17212514e-11 6.77404517e-14 0.00000000e+00 1.16535109e-11 0.00000000e+00 6.77404517e-14
1.68414875e+01 1.19429095e-11 6.13702932e-14 0.00000000e+00 1.18815392e-11 0.00000000e+00 6.13702932e-14
1.74051222e+01 1.21437928e-11 5.55991699e-14 0.00000000e+00 1.20881936e-11 0.00000000e+00 5.55991699e-14
1.79876201e+01 1.22776624e-11 5.03707500e-14 0.00000000e+00 1.22272917e-11 0.00000000e+00 5.03707500e-14
1.85896125e+01 1.23216608e-11 4.56339988e-14 0.00000000e+00 1.22760268e-11 0.00000000e+00 4.56339988e-14
1.92117518e+01 1.22600708e-11 4.13426810e-14 0.00000000e+00 1.22187282e-11 0.00000000e+00 4.13426810e-14
1.98547123e+01 1.21846635e-11 3.74549090e-14 0.00000000e+00 1.21472086e-11 0.00000000e+00 3.74549090e-14
2.05191907e+01 1.20228091e-11 3.39327342e-14 0.00000000e+00 1.19888764e-11 0.00000000e+00 3.39327342e-14
2.12059073e+01 1.18538204e-11 3.07417768e-14 0.00000000e+00 1.18230786e-11 0.00000000e+00 3.07417768e-14
2.19156062e+01 1.16482868e-11 2.78508898e-14 0.00000000e+00 1.16204359e-11 0.00000000e+00 2.78508898e-14
2.26490567e+01 1.14488361e-11 2.52318552e-14 0.00000000e+00 1.14236043e-11 0.00000000e+00 2.52318552e-14
2.34070535e+01 1.12297958e-11 2.28591087e-14 0.00000000e+00 1.12069367e-11 0.00000000e+00 2.28591087e-14
2.41904183e+01 1.09483430e-11 2.07094900e-14 0.00000000e+00 1.09276335e-11 0.00000000e+00 2.07094900e-14
2.50000000e+01 1.07225989e-11 1.87620165e-14 0.00000000e+00 1.07038369e-11 0.00000000e+00 1.87620165e-14
2.75422870e+01 9.84450635e-12 1.40313526e-14 0.00000000e+00 9.83047500e-12 0.00000000e+00 1.40313526e-14
3.16227766e+01 8.38347885e-12 9.27042274e-15 0.00000000e+00 8.37420843e-12 0.00000000e+00 9.27042274e-15
3.63078055e+01 6.70055250e-12 6.12490756e-15 0.00000000e+00 6.69442760e-12 0.00000000e+00 6.12490756e-15
4.16869383e+01 4.98028417e-12 4.04668630e-15 0.00000000e+00 4.97623749e-12 0.00000000e+00 4.04668630e-15
4.78630092e+01 3.45771896e-12 2.67361912e-15 0.00000000e+00 3.45504534e-12 0.00000000e+00 2.67361912e-15
5.49540874e+01 2.24935254e-12 1.76644264e-15 0.00000000e+00 2.24758609e-12 0.00000000e+00 1.76644264e-15
6.30957344e+01 1.39427249e-12 1.16707708e-15 0.00000000e+00 1.39310542e-12 0.00000000e+00 1.16707708e-15
7.24435960e+01 8.28478076e-13 7.71080178e-16 0.00000000e+00 8.27706996e-13 0.00000000e+00 7.71080178e-16
8.31763771e+01 4.77963318e-13 5.09447621e-16 0.00000000e+00 4.77453870e-13 0.00000000e+00 5.09447621e-16
9.54992586e+01 2.69577732e-13 3.36588705e-16 0.00000000e+00 2.69241143e-13 0.00000000e+00 3.36588705e-16
1.09647820e+02 1.49553286e-13 2.22381952e-16 0.00000000e+00 1.49330904e-13 0.00000000e+00 2.22381952e-16
1.25892541e+02 8.27668713e-14 1.46926299e-16 0.00000000e+00 8.26199450e-14 0.00000000e+00 1.46926299e-16
1.44543977e+02 4.55229715e-14 9.70732430e-17 0.00000000e+00 4.54258983e-14 0.00000000e+00 9.70732430e-17
1.65958691e+02 2.38642728e-14 6.41356556e-17 0.00000000e+00 2.38001372e-14 0.00000000e+00 6.41356556e-17
1.90546072e+02 1.25119106e-14 4.23740075e-17 0.00000000e+00 1.24695366e-14 0.00000000e+00 4.23740075e-17
2.18776162e+02 6.54819252e-15 2.79962291e-17 0.00000000e+00 6.52019629e-15 0.00000000e+00 2.79962291e-17
2.51188643e+02 3.41477339e-15 1.84969251e-17 0.00000000e+00 3.39627647e-15 0.00000000e+00 1.84969251e-17
2.88403150e+02 1.77264731e-15 1.22207972e-17 0.00000000e+00 1.76042652e-15 0.00000000e+00 1.22207972e-17
3.31131121e+02 9.17880777e-16 8.07420067e-18 0.00000000e+00 9.09806576e-16 0.00000000e+00 8.07420067e-18
3.80189396e+02 4.73656483e-16 5.33457148e-18 0.00000000e+00 4.68321911e-16 0.00000000e+00 5.33457148e-18
4.36515832e+02 2.43958367e-16 3.52451642e-18 0.00000000e+00 2.40433851e-16 0.00000000e+00 3.52451642e-18
5.01187234e+02 1.25414979e-16 2.32862491e-18 0.00000000e+00 1.23086354e-16 0.00000000e+00 2.32862491e-18
5.75439937e+02 6.44021182e-17 1.53850722e-18 0.00000000e+00 6.28636109e-17 0.00000000e+00 1.53850722e-18
6.60693448e+02 3.30582446e-17 1.01648164e-18 0.00000000e+00 3.20417630e-17 0.00000000e+00 1.01648164e-18
7.58577575e+02 1.69743485e-17 6.71582760e-19 0.00000000e+00 1.63027657e-17 0.00000000e+00 6.71582760e-19
8.70963590e+02 8.72385567e-18 4.43710329e-19 0.00000000e+00 8.28014534e-18 0.00000000e+00 4.43710329e-19
1.00000000e+03 4.19844233e-18 0.00000000e+00 0.00000000e+00 4.19844233e-18 0.00000000e+00 0.00000000e+00
