# column 1: lambda (micron)
# column 2: total flux; lambda*F_lambda (W/m2)
# column 3: direct stellar flux; lambda*F_lambda (W/m2)
# column 4: scattered stellar flux; lambda*F_lambda (W/m2)
# column 5: total dust emission flux; lambda*F_lambda (W/m2)
# column 6: dust emission scattered flux; lambda*F_lambda (W/m2)
# column 7: transparent flux; lambda*F_lambda (W/m2)
1.00000000e-03 9.68020986e-13 9.68018122e-13 2.86410553e-18 0.00000000e+00 0.00000000e+00 9.68073281e-13
1.14815362e-03 1.14255541e-12 1.14255086e-12 4.55251509e-18 0.00000000e+00 0.00000000e+00 1.14263687e-12
1.31825674e-03 1.34855579e-12 1.34854880e-12 6.99295257e-18 0.00000000e+00 0.00000000e+00 1.34867788e-12
1.51356125e-03 1.59170396e-12 1.59169271e-12 1.12449904e-17 0.00000000e+00 0.00000000e+00 1.59187233e-12
1.73780083e-03 1.87872561e-12 1.87870556e-12 2.00502707e-17 0.00000000e+00 0.00000000e+00 1.87891976e-12
1.99526231e-03 2.21742854e-12 2.21739257e-12 3.59677242e-17 0.00000000e+00 0.00000000e+00 2.21772777e-12
2.29086765e-03 2.61726767e-12 2.61721031e-12 5.73580740e-17 0.00000000e+00 0.00000000e+00 2.61762985e-12
2.63026799e-03 3.08915937e-12 3.08904912e-12 1.10253864e-16 0.00000000e+00 0.00000000e+00 3.08964252e-12
3.01995172e-03 3.64610047e-12 3.64590260e-12 1.97876683e-16 0.00000000e+00 0.00000000e+00 3.64676883e-12
3.46736850e-03 4.30354159e-12 4.30315142e-12 3.90171809e-16 0.00000000e+00 0.00000000e+00 4.30435650e-12
3.98107171e-03 5.07945160e-12 5.07889268e-12 5.58916021e-16 0.00000000e+00 0.00000000e+00 5.08052080e-12
4.57088190e-03 5.99659265e-12 5.99536161e-12 1.23103969e-15 0.00000000e+00 0.00000000e+00 5.99664354e-12
5.24807460e-03 7.07833797e-12 7.07602960e-12 2.30837139e-15 0.00000000e+00 0.00000000e+00 7.07796211e-12
6.02559586e-03 8.35545998e-12 8.35151452e-12 3.94546752e-15 0.00000000e+00 0.00000000e+00 8.35426474e-12
6.91830971e-03 9.86367636e-12 9.85696468e-12 6.71167675e-15 0.00000000e+00 0.00000000e+00 9.86071107e-12
7.94328235e-03 1.16448376e-11 1.16338675e-11 1.09700786e-14 3.39931208e-304 9.03946579e-307 1.16388008e-11
9.12010839e-03 1.37525272e-11 1.37310553e-11 2.14719431e-14 1.42348660e-265 4.68204788e-268 1.37375167e-11
1.04712855e-02 1.53596969e-11 1.53352514e-11 2.44455017e-14 5.79216987e-232 3.38477334e-234 1.53429287e-11
1.20226443e-02 1.53752131e-11 1.53347984e-11 4.04147181e-14 8.78348520e-203 8.01270315e-205 1.53429287e-11
1.38038426e-02 1.53870089e-11 1.53342611e-11 5.27477535e-14 2.32632333e-177 2.82671838e-179 1.53429287e-11
1.58489319e-02 1.54085126e-11 1.53336009e-11 7.49117560e-14 3.06452043e-155 3.99985050e-157 1.53429287e-11
1.81970086e-02 1.54377338e-11 1.53329920e-11 1.04741844e-13 5.36943902e-136 1.02987075e-137 1.53429287e-11
2.08929613e-02 1.54792841e-11 1.53324858e-11 1.46798273e-13 2.76529793e-119 7.32027988e-121 1.53429287e-11
2.39883292e-02 1.55285353e-11 1.53318301e-11 1.96705174e-13 9.57830387e-105 3.13922670e-106 1.53429287e-11
2.75422870e-02 1.55859405e-11 1.53310674e-11 2.54873147e-13 4.25746342e-92 1.82385328e-93 1.53429287e-11
3.16227766e-02 1.56464660e-11 1.53303198e-11 3.16146180e-13 4.12038078e-81 2.09244684e-82 1.53429287e-11
3.63078055e-02 1.56952446e-11 1.53297334e-11 3.65511157e-13 1.42042134e-71 8.25167065e-73 1.53429287e-11
4.16869383e-02 1.58153975e-11 1.53292263e-11 4.86171138e-13 2.70719717e-63 2.00811503e-64 1.53429287e-11
4.78630092e-02 1.59297617e-11 1.53278285e-11 6.01933163e-13 4.10117188e-56 3.69525473e-57 1.53429287e-11
5.49540874e-02 1.60264080e-11 1.53258849e-11 7.00523186e-13 6.82060680e-50 7.00105503e-51 1.53429287e-11
6.30957344e-02 1.60502546e-11 1.53210122e-11 7.29242452e-13 2.19171592e-44 2.38387151e-45 1.53429287e-11
7.24435960e-02 1.59656776e-11 1.53152424e-11 6.50435177e-13 1.25219743e-39 1.25202913e-40 1.53429287e-11
8.31763771e-02 1.59423901e-11 1.53157557e-11 6.26634333e-13 1.27469814e-35 1.26473627e-36 1.53429287e-11
9.54992586e-02 1.59752630e-11 1.53172614e-11 6.58001572e-13 3.57547394e-32 3.60563571e-33 1.53429287e-11
1.09647820e-01 1.53188493e-11 1.46320226e-11 6.86826634e-13 3.04080941e-29 3.35907901e-30 1.46523889e-11
1.25892541e-01 1.43182173e-11 1.36587574e-11 6.59459821e-13 9.82035601e-27 1.08454487e-27 1.36744049e-11
1.44543977e-01 1.33651727e-11 1.27495922e-11 6.15580453e-13 1.33278418e-24 1.45955392e-25 1.27616972e-11
1.65958691e-01 1.25148801e-11 1.19000284e-11 6.14851658e-13 6.76474975e-23 8.05748296e-24 1.19099088e-11
1.90546072e-01 1.17496823e-11 1.11051365e-11 6.44545787e-13 1.43048333e-21 1.91850294e-22 1.11149736e-11
2.18776162e-01 1.09552500e-11 1.03623288e-11 5.92921217e-13 1.68911106e-20 2.30017046e-21 1.03730969e-11
2.51188643e-01 1.03301912e-11 9.67269955e-12 6.57491398e-13 2.06978197e-19 3.33422733e-20 9.68073733e-12
2.88403150e-01 9.63843259e-12 9.02836144e-12 6.10069437e-13 1.71764289e-18 2.73282541e-19 9.03458975e-12
3.31131121e-01 8.98864068e-12 8.42650255e-12 5.62128324e-13 9.81278404e-18 1.52148086e-18 8.43156974e-12
3.80189396e-01 8.36424523e-12 7.86464580e-12 4.99558366e-13 4.10661593e-17 6.26288819e-18 7.86879872e-12
4.36515832e-01 7.79083360e-12 7.34021703e-12 4.50480556e-13 1.36018521e-16 2.17980116e-17 7.34359025e-12
5.01187234e-01 7.26357844e-12 6.85073435e-12 4.12443907e-13 4.00177468e-16 7.41889838e-17 6.85343719e-12
5.75439937e-01 6.76095229e-12 6.39385638e-12 3.65822513e-13 1.27339672e-15 2.96202932e-16 6.39599973e-12
6.60693448e-01 6.29988992e-12 5.96740928e-12 3.27986500e-13 4.49414587e-15 1.21570624e-15 5.96909425e-12
7.58577575e-01 5.86780178e-12 5.56937435e-12 2.82598981e-13 1.58284434e-14 4.39974716e-15 5.57068288e-12
8.70963590e-01 5.49239676e-12 5.19787008e-12 2.44723141e-13 4.98035390e-14 1.34589777e-14 5.19886376e-12
1.00000000e+00 5.18750211e-12 4.85111956e-12 2.03502059e-13 1.32880488e-13 3.32101636e-14 4.85186196e-12
1.14815362e+00 5.00405127e-12 4.52747624e-12 1.63199533e-13 3.13375506e-13 7.06058354e-14 4.52802104e-12
1.31825674e+00 5.01418013e-12 4.22540225e-12 1.28642809e-13 6.60135070e-13 1.30303352e-13 4.22579511e-12
1.51356125e+00 5.28235273e-12 3.94346104e-12 9.75848017e-14 1.24130689e-12 2.07766846e-13 3.94374146e-12
1.73780083e+00 5.82605698e-12 3.68031676e-12 7.39578363e-14 2.07178238e-12 2.87504906e-13 3.68051368e-12
1.99526231e+00 6.61187262e-12 3.43471911e-12 5.50410921e-14 3.12211241e-12 3.46831014e-13 3.43485522e-12
2.29086765e+00 7.53279118e-12 3.20549962e-12 3.95384290e-14 4.28775313e-12 3.68326836e-13 3.20559341e-12
2.63026799e+00 8.43747650e-12 2.99156861e-12 2.80520111e-14 5.41785588e-12 3.54072902e-13 2.99163384e-12
3.01995172e+00 9.20402704e-12 2.79190919e-12 1.99774952e-14 6.39214035e-12 3.14805755e-13 2.79195514e-12
3.46736850e+00 9.78534908e-12 2.60557125e-12 1.38328937e-14 7.16594494e-12 2.61095483e-13 2.60560415e-12
3.98107171e+00 1.00794764e-11 2.43166742e-12 9.55754672e-15 7.63825138e-12 2.04597116e-13 2.43169128e-12
4.57088190e+00 1.01463566e-11 2.26936881e-12 6.45759491e-15 7.87053022e-12 1.51352531e-13 2.26938634e-12
5.24807460e+00 9.81348934e-12 1.87642302e-12 3.69687269e-15 7.93336944e-12 1.05478477e-13 1.87643467e-12
6.02559586e+00 9.09611217e-12 1.23974170e-12 1.60998506e-15 7.85476049e-12 7.07888991e-14 1.23974809e-12
6.70000000e+00 8.66336098e-12 9.01793411e-13 8.47023525e-16 7.76072055e-12 4.97670186e-14 9.01797527e-13
6.92422916e+00 8.51090676e-12 8.16990933e-13 6.80918127e-16 7.69323491e-12 4.39784552e-14 8.16994532e-13
7.15596261e+00 8.43214067e-12 7.40163014e-13 5.39516648e-16 7.69143814e-12 3.88499625e-14 7.40166218e-13
7.39545150e+00 8.45472517e-12 6.70559693e-13 4.13680784e-16 7.78375179e-12 3.32935384e-14 6.70562664e-13
7.64295536e+00 8.71768512e-12 6.07501404e-13 2.83427084e-16 8.10990029e-12 2.71783219e-14 6.07504471e-13
7.89874245e+00 9.39199414e-12 5.50372537e-13 1.71064708e-16 8.84145054e-12 2.07254659e-14 5.50376127e-13
8.16308998e+00 1.02991366e-11 4.98615612e-13 9.81037764e-17 9.80042287e-12 1.54594549e-14 4.98620004e-13
8.43628443e+00 1.16574956e-11 4.51725380e-13 5.33991244e-17 1.12057168e-11 1.13395886e-14 4.51730909e-13
8.71862190e+00 1.25263845e-11 4.09245004e-13 3.31444047e-17 1.21171064e-11 8.87230754e-15 4.09251158e-13
9.01040836e+00 1.34140345e-11 3.70759353e-13 2.08521078e-17 1.30432543e-11 6.85016463e-15 3.70766106e-13
9.31196005e+00 1.41425743e-11 3.35893005e-13 0.00000000e+00 1.38066813e-11 0.00000000e+00 3.35900102e-13
9.62360379e+00 1.40097703e-11 3.04306219e-13 0.00000000e+00 1.37054641e-11 0.00000000e+00 3.04312818e-13
9.94567731e+00 1.35756474e-11 2.75690321e-13 0.00000000e+00 1.32999571e-11 0.00000000e+00 2.75695930e-13
1.02785297e+01 1.28359777e-11 2.49765512e-13 0.00000000e+00 1.25862122e-11 0.00000000e+00 2.49770110e-13
1.06225216e+01 1.21483152e-11 2.26278567e-13 0.00000000e+00 1.19220367e-11 0.00000000e+00 2.26282295e-13
1.09780260e+01 1.13998705e-11 2.05000307e-13 0.00000000e+00 1.11948702e-11 0.00000000e+00 2.05003220e-13
1.13454280e+01 1.08350942e-11 1.85722896e-13 0.00000000e+00 1.06493713e-11 0.00000000e+00 1.85725182e-13
1.17251259e+01 1.03127721e-11 1.68258202e-13 0.00000000e+00 1.01445139e-11 0.00000000e+00 1.68260007e-13
1.21175312e+01 9.84955577e-12 1.52435799e-13 0.00000000e+00 9.69711997e-12 0.00000000e+00 1.52437217e-13
1.25230691e+01 9.49214806e-12 1.38101255e-13 0.00000000e+00 9.35404681e-12 0.00000000e+00 1.38102367e-13
1.29421791e+01 9.17263336e-12 1.25114656e-13 0.00000000e+00 9.04751871e-12 0.00000000e+00 1.25115533e-13
1.33753155e+01 8.90382061e-12 1.13349255e-13 0.00000000e+00 8.79047135e-12 0.00000000e+00 1.13349952e-13
1.38229477e+01 8.76216107e-12 1.02690200e-13 0.00000000e+00 8.65947087e-12 0.00000000e+00 1.02690779e-13
1.42855609e+01 8.73091234e-12 9.30334678e-14 0.00000000e+00 8.63787888e-12 0.00000000e+00 9.30339713e-14
1.47636563e+01 8.92170767e-12 8.42847896e-14 0.00000000e+00 8.83742288e-12 0.00000000e+00 8.42852675e-14
1.52577522e+01 9.13632490e-12 7.63588102e-14 0.00000000e+00 9.05996609e-12 0.00000000e+00 7.63592720e-14
1.57683840e+01 9.38046245e-12 6.91781672e-14 0.00000000e+00 9.31128428e-12 0.00000000e+00 6.91786191e-14
1.62961051e+01 9.62871601e-12 6.26727769e-14 0.00000000e+00 9.56604323e-12 0.00000000e+00 6.26732185e-14
1.68414875e+01 9.85350118e-12 5.67791404e-14 0.00000000e+00 9.79672204e-12 0.00000000e+00 5.67795711e-14
1.74051222e+01 1.00436385e-11 5.14397399e-14 0.00000000e+00 9.99219879e-12 0.00000000e+00 5.14401489e-14
1.79876201e+01 1.01535000e-11 4.66024520e-14 0.00000000e+00 1.01068976e-11 0.00000000e+00 4.66028339e-14
1.85896125e+01 1.01682763e-11 4.22200635e-14 0.00000000e+00 1.01260563e-11 0.00000000e+00 4.22204090e-14
1.92117518e+01 1.01562308e-11 3.82497939e-14 0.00000000e+00 1.01179810e-11 0.00000000e+00 3.82500974e-14
1.98547123e+01 1.00710256e-11 3.46528836e-14 0.00000000e+00 1.00363727e-11 0.00000000e+00 3.46531450e-14
2.05191907e+01 9.91159192e-12 3.13942189e-14 0.00000000e+00 9.88019770e-12 0.00000000e+00 3.13944418e-14
2.12059073e+01 9.76730377e-12 2.84419896e-14 0.00000000e+00 9.73886178e-12 0.00000000e+00 2.84421796e-14
2.19156062e+01 9.62328944e-12 2.57673788e-14 0.00000000e+00 9.59752206e-12 0.00000000e+00 2.57675415e-14
2.26490567e+01 9.41156263e-12 2.33442807e-14 0.00000000e+00 9.38821835e-12 0.00000000e+00 2.33444203e-14
2.34070535e+01 9.23423948e-12 2.11490439e-14 0.00000000e+00 9.21309044e-12 0.00000000e+00 2.11491639e-14
2.41904183e+01 9.00786598e-12 1.91602411e-14 0.00000000e+00 8.98870574e-12 0.00000000e+00 1.91603445e-14
2.50000000e+01 8.80850377e-12 1.73584598e-14 0.00000000e+00 8.79114531e-12 0.00000000e+00 1.73585491e-14
2.75422870e+01 8.06733968e-12 1.29816980e-14 0.00000000e+00 8.05435798e-12 0.00000000e+00 1.29817562e-14
3.16227766e+01 6.80239713e-12 8.57692927e-15 0.00000000e+00 6.79382020e-12 0.00000000e+00 8.57696126e-15
3.63078055e+01 5.37861020e-12 5.66672462e-15 0.00000000e+00 5.37294347e-12 0.00000000e+00 5.66674211e-15
4.16869383e+01 3.96808045e-12 3.74397008e-15 0.00000000e+00 3.96433648e-12 0.00000000e+00 3.74397938e-15
4.78630092e+01 2.73470644e-12 2.47361785e-15 0.00000000e+00 2.73223282e-12 0.00000000e+00 2.47362265e-15
5.49540874e+01 1.77828710e-12 1.63430386e-15 0.00000000e+00 1.77665279e-12 0.00000000e+00 1.63430628e-15
6.30957344e+01 1.09660668e-12 1.07977424e-15 0.00000000e+00 1.09552690e-12 0.00000000e+00 1.07977545e-15
7.24435960e+01 6.48556745e-13 7.13399968e-16 0.00000000e+00 6.47843345e-13 0.00000000e+00 7.13400564e-16
8.31763771e+01 3.72153077e-13 4.71338784e-16 0.00000000e+00 3.71681738e-13 0.00000000e+00 4.71339078e-16
9.54992586e+01 2.08764124e-13 3.11410495e-16 0.00000000e+00 2.08452713e-13 0.00000000e+00 3.11410641e-16
1.09647820e+02 1.15037180e-13 2.05746898e-16 0.00000000e+00 1.14831433e-13 0.00000000e+00 2.05746970e-16
1.25892541e+02 6.32990121e-14 1.35935639e-16 0.00000000e+00 6.31630765e-14 0.00000000e+00 1.35935675e-16
1.44543977e+02 3.46108049e-14 8.98117913e-17 0.00000000e+00 3.45209931e-14 0.00000000e+00 8.98118099e-17
1.65958691e+02 1.80453664e-14 5.93380653e-17 0.00000000e+00 1.79860283e-14 0.00000000e+00 5.93380743e-17
1.90546072e+02 9.41332109e-15 3.92042724e-17 0.00000000e+00 9.37411682e-15 0.00000000e+00 3.92042769e-17
2.18776162e+02 4.90346088e-15 2.59020067e-17 0.00000000e+00 4.87755888e-15 0.00000000e+00 2.59020089e-17
2.51188643e+02 2.54649214e-15 1.71132865e-17 0.00000000e+00 2.52937886e-15 0.00000000e+00 1.71132876e-17
2.88403150e+02 1.31723671e-15 1.13066364e-17 0.00000000e+00 1.30593007e-15 0.00000000e+00 1.13066370e-17
3.31131121e+02 6.80010186e-16 7.47022069e-18 0.00000000e+00 6.72539966e-16 0.00000000e+00 7.47022097e-18
3.80189396e+02 3.50026948e-16 4.93552591e-18 0.00000000e+00 3.45091422e-16 0.00000000e+00 4.93552605e-18
4.36515832e+02 1.79938478e-16 3.26086965e-18 0.00000000e+00 1.76677608e-16 0.00000000e+00 3.26086972e-18
5.01187234e+02 9.23789640e-17 2.15443522e-18 0.00000000e+00 9.02245288e-17 0.00000000e+00 2.15443526e-18
5.75439937e+02 4.74040391e-17 1.42342124e-18 0.00000000e+00 4.59806179e-17 0.00000000e+00 1.42342126e-18
6.60693448e+02 2.43325120e-17 9.40445092e-19 0.00000000e+00 2.33920670e-17 0.00000000e+00 9.40445101e-19
7.58577575e+02 1.25032489e-17 6.21345912e-19 0.00000000e+00 1.18819030e-17 0.00000000e+00 6.21345916e-19
8.70963590e+02 6.43647963e-18 4.10519174e-19 0.00000000e+00 6.02596046e-18 0.00000000e+00 4.10519176e-19
1.00000000e+03 3.05154762e-18 0.00000000e+00 0.00000000e+00 3.05154762e-18 0.00000000e+00 0.00000000e+00
