# column 1: lambda (micron)
# column 2: total flux; lambda*F_lambda (W/m2)
# column 3: direct stellar flux; lambda*F_lambda (W/m2)
# column 4: scattered stellar flux; lambda*F_lambda (W/m2)
# column 5: total dust emission flux; lambda*F_lambda (W/m2)
# column 6: dust emission scattered flux; lambda*F_lambda (W/m2)
# column 7: transparent flux; lambda*F_lambda (W/m2)
1.00000000e-03 1.07335845e-12 1.07335627e-12 2.17524547e-18 0.00000000e+00 0.00000000e+00 1.07335627e-12
1.14815362e-03 1.26690794e-12 1.26690456e-12 3.38032119e-18 0.00000000e+00 0.00000000e+00 1.26690456e-12
1.31825674e-03 1.49535878e-12 1.49535359e-12 5.19115020e-18 0.00000000e+00 0.00000000e+00 1.49535359e-12
1.51356125e-03 1.76500454e-12 1.76499670e-12 7.83772029e-18 0.00000000e+00 0.00000000e+00 1.76499670e-12
1.73780083e-03 2.08327605e-12 2.08326203e-12 1.40223150e-17 0.00000000e+00 0.00000000e+00 2.08326203e-12
1.99526231e-03 2.45894181e-12 2.45891716e-12 2.46456191e-17 0.00000000e+00 0.00000000e+00 2.45891716e-12
2.29086765e-03 2.90234958e-12 2.90231066e-12 3.89123365e-17 0.00000000e+00 0.00000000e+00 2.90231066e-12
2.63026799e-03 3.42573500e-12 3.42565717e-12 7.78334839e-17 0.00000000e+00 0.00000000e+00 3.42565717e-12
3.01995172e-03 4.04350425e-12 4.04337385e-12 1.30404617e-16 0.00000000e+00 0.00000000e+00 4.04337385e-12
3.46736850e-03 4.77269759e-12 4.77247759e-12 2.20002837e-16 0.00000000e+00 0.00000000e+00 4.77247759e-12
3.98107171e-03 5.63340365e-12 5.63305378e-12 3.49864237e-16 0.00000000e+00 0.00000000e+00 5.63305378e-12
4.57088190e-03 6.64958277e-12 6.64880962e-12 7.73153454e-16 0.00000000e+00 0.00000000e+00 6.64880962e-12
5.24807460e-03 7.84909866e-12 7.84772720e-12 1.37146383e-15 0.00000000e+00 0.00000000e+00 7.84772720e-12
6.02559586e-03 9.26541291e-12 9.26283435e-12 2.57855583e-15 0.00000000e+00 0.00000000e+00 9.26283435e-12
6.91830971e-03 1.09371810e-11 1.09331145e-11 4.06649385e-15 0.00000000e+00 0.00000000e+00 1.09331145e-11
7.94328235e-03 1.29115959e-11 1.29045807e-11 7.01525412e-15 0.00000000e+00 0.00000000e+00 1.29045807e-11
9.12010839e-03 1.52424909e-11 1.52315429e-11 1.09479923e-14 0.00000000e+00 0.00000000e+00 1.52315429e-11
1.04712855e-02 1.70269546e-11 1.70115517e-11 1.54028771e-14 0.00000000e+00 0.00000000e+00 1.70115517e-11
1.20226443e-02 1.70365757e-11 1.70115517e-11 2.50239522e-14 0.00000000e+00 0.00000000e+00 1.70115517e-11
1.38038426e-02 1.70451400e-11 1.70115517e-11 3.35882822e-14 2.97126477e-293 3.24379748e-294 1.70115517e-11
1.58489319e-02 1.70599198e-11 1.70115517e-11 4.83681134e-14 5.89752094e-256 7.24988803e-257 1.70115517e-11
1.81970086e-02 1.70836986e-11 1.70115517e-11 7.21468383e-14 1.69115077e-223 2.15955448e-224 1.70115517e-11
2.08929613e-02 1.71079981e-11 1.70115517e-11 9.64463632e-14 2.86008003e-195 4.18518823e-196 1.70115517e-11
2.39883292e-02 1.71399593e-11 1.70115517e-11 1.28407610e-13 1.03046914e-170 1.42028386e-171 1.70115517e-11
2.75422870e-02 1.71813892e-11 1.70115517e-11 1.69837521e-13 2.44341612e-149 3.50790228e-150 1.70115517e-11
3.16227766e-02 1.72202455e-11 1.70115517e-11 2.08693775e-13 9.46472500e-131 1.37970974e-131 1.70115517e-11
3.63078055e-02 1.72539972e-11 1.70115517e-11 2.42445514e-13 1.36747150e-114 2.03319035e-115 1.70115517e-11
4.16869383e-02 1.73485777e-11 1.70115517e-11 3.37025988e-13 1.55327967e-100 2.62970842e-101 1.70115517e-11
4.78630092e-02 1.74614152e-11 1.70115517e-11 4.49863518e-13 2.47664995e-88 4.60009178e-89 1.70115517e-11
5.49540874e-02 1.75660415e-11 1.70115517e-11 5.54489752e-13 9.75773435e-78 1.98989555e-78 1.70115517e-11
6.30957344e-02 1.76533583e-11 1.70115517e-11 6.41806557e-13 1.95964407e-68 4.38210673e-69 1.70115517e-11
7.24435960e-02 1.76221963e-11 1.70115517e-11 6.10644608e-13 2.23411237e-60 4.90988235e-61 1.70115517e-11
8.31763771e-02 1.76090809e-11 1.70115517e-11 5.97529177e-13 1.86181256e-53 3.94094624e-54 1.70115517e-11
9.54992586e-02 1.76318196e-11 1.70115517e-11 6.20267910e-13 1.88031543e-47 3.99368373e-48 1.70115517e-11
1.09647820e-01 1.68845543e-11 1.62459122e-11 6.38642170e-13 2.87010734e-42 6.25455911e-43 1.62459122e-11
1.25892541e-01 1.57405480e-11 1.51615674e-11 5.78980657e-13 8.65884324e-38 1.82543498e-38 1.51615674e-11
1.44543977e-01 1.46675181e-11 1.41495980e-11 5.17920078e-13 6.18521211e-34 1.21792303e-34 1.41495980e-11
1.65958691e-01 1.37394458e-11 1.32051732e-11 5.34272652e-13 1.02074833e-30 2.13774897e-31 1.32051732e-11
1.90546072e-01 1.29272308e-11 1.23237846e-11 6.03446124e-13 4.49552122e-28 1.09740911e-28 1.23237846e-11
2.18776162e-01 1.20752742e-11 1.15012250e-11 5.74049183e-13 7.40290999e-26 1.90554839e-26 1.15012250e-11
2.51188643e-01 1.13835473e-11 1.07335677e-11 6.49979533e-13 1.05577526e-23 3.21444893e-24 1.07335677e-11
2.88403150e-01 1.06082001e-11 1.00171482e-11 5.91051913e-13 7.60557841e-22 2.36317850e-22 1.00171482e-11
3.31131121e-01 9.87870719e-12 9.34854667e-12 5.30160490e-13 2.99613608e-20 9.55850979e-21 9.34854667e-12
3.80189396e-01 9.20595230e-12 8.72457139e-12 4.81380211e-13 7.00509468e-19 2.28491984e-19 8.72457139e-12
4.36515832e-01 8.57429730e-12 8.14224377e-12 4.32043012e-13 1.05139158e-17 3.48365677e-18 8.14224377e-12
5.01187234e-01 7.99874055e-12 7.59878402e-12 3.99850967e-13 1.05562996e-16 3.51884898e-17 7.59878402e-12
5.75439937e-01 7.45242434e-12 7.09159786e-12 3.60086263e-13 7.40209460e-16 2.45635289e-16 7.09159786e-12
6.60693448e-01 6.94760814e-12 6.61826421e-12 3.25450823e-13 3.89310582e-15 1.26918583e-15 6.61826421e-12
7.58577575e-01 6.47889454e-12 6.17652353e-12 2.86595081e-13 1.57759243e-14 4.99094973e-15 6.17652353e-12
8.70963590e-01 6.06622822e-12 5.76426715e-12 2.50537077e-13 5.14239896e-14 1.53394614e-14 5.76426715e-12
1.00000000e+00 5.72967635e-12 5.37952711e-12 2.11008449e-13 1.39140788e-13 3.82785639e-14 5.37952711e-12
1.14815362e+00 5.51633652e-12 5.02046681e-12 1.69485525e-13 3.26384182e-13 8.04939853e-14 5.02046681e-12
1.31825674e+00 5.50254433e-12 4.68537225e-12 1.36936776e-13 6.80235310e-13 1.44938184e-13 4.68537225e-12
1.51356125e+00 5.73567758e-12 4.37264380e-12 1.05769501e-13 1.25726428e-12 2.25315490e-13 4.37264380e-12
1.73780083e+00 6.24785954e-12 4.08078863e-12 7.97468918e-14 2.08732401e-12 3.08001688e-13 4.08078863e-12
1.99526231e+00 6.98041148e-12 3.80841354e-12 5.95893142e-14 3.11240862e-12 3.65581896e-13 3.80841354e-12
2.29086765e+00 7.79218517e-12 3.55421832e-12 4.28176999e-14 4.19514916e-12 3.77210757e-13 3.55421832e-12
2.63026799e+00 8.57140699e-12 3.31698953e-12 3.03079010e-14 5.22410956e-12 3.55689430e-13 3.31698953e-12
3.01995172e+00 9.20966449e-12 3.09559474e-12 2.12228838e-14 6.09284687e-12 3.05002927e-13 3.09559474e-12
3.46736850e+00 9.63667296e-12 2.88897711e-12 1.46356369e-14 6.73306022e-12 2.46782557e-13 2.88897711e-12
3.98107171e+00 9.87088363e-12 2.69615031e-12 9.91937626e-15 7.16481394e-12 1.88729371e-13 2.69615031e-12
4.57088190e+00 9.85887844e-12 2.51619387e-12 6.53102955e-15 7.33615354e-12 1.35782994e-13 2.51619387e-12
5.24807460e+00 9.43312464e-12 2.08050667e-12 3.69056877e-15 7.34892741e-12 9.23537756e-14 2.08050667e-12
6.02559586e+00 8.63939295e-12 1.37457712e-12 1.59326659e-15 7.26322256e-12 5.99195665e-14 1.37457712e-12
6.70000000e+00 8.15061137e-12 9.99872685e-13 8.13146521e-16 7.14992554e-12 4.14993167e-14 9.99872685e-13
6.92422916e+00 8.00384822e-12 9.05846924e-13 6.53105589e-16 7.09734819e-12 3.67186348e-14 9.05846924e-13
7.15596261e+00 7.91533117e-12 8.20663132e-13 5.17038245e-16 7.09415100e-12 3.20866769e-14 8.20663132e-13
7.39545150e+00 7.89925737e-12 7.43489831e-13 3.94306725e-16 7.15537323e-12 2.75689966e-14 7.43489831e-13
7.64295536e+00 8.20878801e-12 6.73573732e-13 2.75672518e-16 7.53493861e-12 2.27924616e-14 6.73573732e-13
7.89874245e+00 8.92199824e-12 6.10232385e-13 1.70775076e-16 8.31159508e-12 1.78357861e-14 6.10232385e-13
8.16308998e+00 9.98050069e-12 5.52847515e-13 9.96305886e-17 9.42755355e-12 1.36742182e-14 5.52847515e-13
8.43628443e+00 1.14210031e-11 5.00858987e-13 5.54126938e-17 1.09200887e-11 1.02846642e-14 5.00858987e-13
8.71862190e+00 1.24964755e-11 4.53759343e-13 3.40836759e-17 1.20426821e-11 8.13426406e-15 4.53759343e-13
9.01040836e+00 1.34890446e-11 4.11088843e-13 2.06751685e-17 1.30779351e-11 6.30866928e-15 4.11088843e-13
9.31196005e+00 1.43288548e-11 3.72430980e-13 0.00000000e+00 1.39564238e-11 0.00000000e+00 3.72430980e-13
9.62360379e+00 1.44100411e-11 3.37408415e-13 0.00000000e+00 1.40726326e-11 0.00000000e+00 3.37408415e-13
9.94567731e+00 1.37622375e-11 3.05679292e-13 0.00000000e+00 1.34565583e-11 0.00000000e+00 3.05679292e-13
1.02785297e+01 1.30672541e-11 2.76933904e-13 0.00000000e+00 1.27903202e-11 0.00000000e+00 2.76933904e-13
1.06225216e+01 1.24072063e-11 2.50891667e-13 0.00000000e+00 1.21563146e-11 0.00000000e+00 2.50891667e-13
1.09780260e+01 1.15787577e-11 2.27298384e-13 0.00000000e+00 1.13514594e-11 0.00000000e+00 2.27298384e-13
1.13454280e+01 1.08072475e-11 2.05923759e-13 0.00000000e+00 1.06013237e-11 0.00000000e+00 2.05923759e-13
1.17251259e+01 1.02188507e-11 1.86559155e-13 0.00000000e+00 1.00322916e-11 0.00000000e+00 1.86559155e-13
1.21175312e+01 9.69962385e-12 1.69015555e-13 0.00000000e+00 9.53060829e-12 0.00000000e+00 1.69015555e-13
1.25230691e+01 9.24459136e-12 1.53121715e-13 0.00000000e+00 9.09146965e-12 0.00000000e+00 1.53121715e-13
1.29421791e+01 8.80321882e-12 1.38722496e-13 0.00000000e+00 8.66449632e-12 0.00000000e+00 1.38722496e-13
1.33753155e+01 8.47667210e-12 1.25677347e-13 0.00000000e+00 8.35099475e-12 0.00000000e+00 1.25677347e-13
1.38229477e+01 8.26423855e-12 1.13858934e-13 0.00000000e+00 8.15037962e-12 0.00000000e+00 1.13858934e-13
1.42855609e+01 8.23197311e-12 1.03151898e-13 0.00000000e+00 8.12882121e-12 0.00000000e+00 1.03151898e-13
1.47636563e+01 8.42404103e-12 9.34517274e-14 0.00000000e+00 8.33058931e-12 0.00000000e+00 9.34517274e-14
1.52577522e+01 8.74859513e-12 8.46637387e-14 0.00000000e+00 8.66393140e-12 0.00000000e+00 8.46637387e-14
1.57683840e+01 9.06220430e-12 7.67021526e-14 0.00000000e+00 8.98550214e-12 0.00000000e+00 7.67021526e-14
1.62961051e+01 9.41404004e-12 6.94892560e-14 0.00000000e+00 9.34455078e-12 0.00000000e+00 6.94892560e-14
1.68414875e+01 9.74281790e-12 6.29546439e-14 0.00000000e+00 9.67986326e-12 0.00000000e+00 6.29546439e-14
1.74051222e+01 1.00233993e-11 5.70345319e-14 0.00000000e+00 9.96636479e-12 0.00000000e+00 5.70345319e-14
1.79876201e+01 1.02139186e-11 5.16711337e-14 0.00000000e+00 1.01622475e-11 0.00000000e+00 5.16711337e-14
1.85896125e+01 1.02969201e-11 4.68120974e-14 0.00000000e+00 1.02501080e-11 0.00000000e+00 4.68120974e-14
1.92117518e+01 1.03225494e-11 4.24099939e-14 0.00000000e+00 1.02801394e-11 0.00000000e+00 4.24099939e-14
1.98547123e+01 1.02214092e-11 3.84218542e-14 0.00000000e+00 1.01829874e-11 0.00000000e+00 3.84218542e-14
2.05191907e+01 1.01074982e-11 3.48087501e-14 0.00000000e+00 1.00726895e-11 0.00000000e+00 3.48087501e-14
2.12059073e+01 9.97913880e-12 3.15354141e-14 0.00000000e+00 9.94760338e-12 0.00000000e+00 3.15354141e-14
2.19156062e+01 9.86361660e-12 2.85698952e-14 0.00000000e+00 9.83504671e-12 0.00000000e+00 2.85698952e-14
2.26490567e+01 9.73570429e-12 2.58832470e-14 0.00000000e+00 9.70982104e-12 0.00000000e+00 2.58832470e-14
2.34070535e+01 9.57508621e-12 2.34492452e-14 0.00000000e+00 9.55163697e-12 0.00000000e+00 2.34492452e-14
2.41904183e+01 9.45491453e-12 2.12441313e-14 0.00000000e+00 9.43367040e-12 0.00000000e+00 2.12441313e-14
2.50000000e+01 9.27074710e-12 1.92463813e-14 0.00000000e+00 9.25150071e-12 0.00000000e+00 1.92463813e-14
2.75422870e+01 8.67121695e-12 1.43935895e-14 0.00000000e+00 8.65682336e-12 0.00000000e+00 1.43935895e-14
3.16227766e+01 7.52623510e-12 9.50975027e-15 0.00000000e+00 7.51672535e-12 0.00000000e+00 9.50975027e-15
3.63078055e+01 6.14342839e-12 6.28302969e-15 0.00000000e+00 6.13714536e-12 0.00000000e+00 6.28302969e-15
4.16869383e+01 4.65191453e-12 4.15115655e-15 0.00000000e+00 4.64776338e-12 0.00000000e+00 4.15115655e-15
4.78630092e+01 3.28491458e-12 2.74264194e-15 0.00000000e+00 3.28217194e-12 0.00000000e+00 2.74264194e-15
5.49540874e+01 2.17635565e-12 1.81204556e-15 0.00000000e+00 2.17454360e-12 0.00000000e+00 1.81204556e-15
6.30957344e+01 1.36886553e-12 1.19720663e-15 0.00000000e+00 1.36766832e-12 0.00000000e+00 1.19720663e-15
7.24435960e+01 8.24015022e-13 7.90986575e-16 0.00000000e+00 8.23224035e-13 0.00000000e+00 7.90986575e-16
8.31763771e+01 4.79950591e-13 5.22599647e-16 0.00000000e+00 4.79427992e-13 0.00000000e+00 5.22599647e-16
9.54992586e+01 2.72960576e-13 3.45278163e-16 0.00000000e+00 2.72615298e-13 0.00000000e+00 3.45278163e-16
1.09647820e+02 1.52387438e-13 2.28123020e-16 0.00000000e+00 1.52159315e-13 0.00000000e+00 2.28123020e-16
1.25892541e+02 8.47911018e-14 1.50719385e-16 0.00000000e+00 8.46403824e-14 0.00000000e+00 1.50719385e-16
1.44543977e+02 4.68119840e-14 9.95793099e-17 0.00000000e+00 4.67124047e-14 0.00000000e+00 9.95793099e-17
1.65958691e+02 2.46187318e-14 6.57913976e-17 0.00000000e+00 2.45529404e-14 0.00000000e+00 6.57913976e-17
1.90546072e+02 1.29383591e-14 4.34679453e-17 0.00000000e+00 1.28948911e-14 0.00000000e+00 4.34679453e-17
2.18776162e+02 6.78352707e-15 2.87189867e-17 0.00000000e+00 6.75480808e-15 0.00000000e+00 2.87189867e-17
2.51188643e+02 3.54230145e-15 1.89744463e-17 0.00000000e+00 3.52332700e-15 0.00000000e+00 1.89744463e-17
2.88403150e+02 1.84098890e-15 1.25362924e-17 0.00000000e+00 1.82845260e-15 0.00000000e+00 1.25362924e-17
3.31131121e+02 9.54038212e-16 8.28264623e-18 0.00000000e+00 9.45755566e-16 0.00000000e+00 8.28264623e-18
3.80189396e+02 4.92648112e-16 5.47229010e-18 0.00000000e+00 4.87175822e-16 0.00000000e+00 5.47229010e-18
4.36515832e+02 2.53872763e-16 3.61550621e-18 0.00000000e+00 2.50257257e-16 0.00000000e+00 3.61550621e-18
5.01187234e+02 1.30559354e-16 2.38874127e-18 0.00000000e+00 1.28170613e-16 0.00000000e+00 2.38874127e-18
5.75439937e+02 6.70618007e-17 1.57822570e-18 0.00000000e+00 6.54835750e-17 0.00000000e+00 1.57822570e-18
6.60693448e+02 3.44295855e-17 1.04272338e-18 0.00000000e+00 3.33868621e-17 0.00000000e+00 1.04272338e-18
7.58577575e+02 1.76803361e-17 6.88920507e-19 0.00000000e+00 1.69914156e-17 0.00000000e+00 6.88920507e-19
8.70963590e+02 9.08679188e-18 4.55165265e-19 0.00000000e+00 8.63162661e-18 0.00000000e+00 4.55165265e-19
1.00000000e+03 4.37735502e-18 0.00000000e+00 0.00000000e+00 4.37735502e-18 0.00000000e+00 0.00000000e+00
