# column 1: lambda (micron)
# column 2: total flux; lambda*F_lambda (W/m2)
# column 3: direct stellar flux; lambda*F_lambda (W/m2)
# column 4: scattered stellar flux; lambda*F_lambda (W/m2)
# column 5: total dust emission flux; lambda*F_lambda (W/m2)
# column 6: dust emission scattered flux; lambda*F_lambda (W/m2)
# column 7: transparent flux; lambda*F_lambda (W/m2)
1.00000000e-03 1.07336427e-12 1.07335627e-12 8.00040990e-18 0.00000000e+00 0.00000000e+00 1.07335627e-12
1.14815362e-03 1.26692910e-12 1.26690456e-12 2.45462552e-17 0.00000000e+00 0.00000000e+00 1.26690456e-12
1.31825674e-03 1.51022649e-12 1.49535359e-12 1.48729046e-14 0.00000000e+00 0.00000000e+00 1.49535359e-12
1.51356125e-03 1.76521454e-12 1.76499670e-12 2.17840171e-16 0.00000000e+00 0.00000000e+00 1.76499670e-12
1.73780083e-03 2.16516872e-12 2.08326203e-12 8.19066902e-14 0.00000000e+00 0.00000000e+00 2.08326203e-12
1.99526231e-03 2.67166875e-12 2.45891716e-12 2.12751591e-13 0.00000000e+00 0.00000000e+00 2.45891716e-12
2.29086765e-03 3.03676191e-12 2.90231066e-12 1.34451246e-13 0.00000000e+00 0.00000000e+00 2.90231066e-12
2.63026799e-03 3.50298403e-12 3.42565717e-12 7.73268619e-14 0.00000000e+00 0.00000000e+00 3.42565717e-12
3.01995172e-03 4.27390075e-12 4.04337385e-12 2.30526901e-13 0.00000000e+00 0.00000000e+00 4.04337385e-12
3.46736850e-03 4.77620238e-12 4.77247759e-12 3.72478893e-15 0.00000000e+00 0.00000000e+00 4.77247759e-12
3.98107171e-03 5.65995572e-12 5.63305378e-12 2.69019433e-14 0.00000000e+00 0.00000000e+00 5.63305378e-12
4.57088190e-03 6.66400929e-12 6.64880962e-12 1.51996686e-14 0.00000000e+00 0.00000000e+00 6.64880962e-12
5.24807460e-03 7.86007384e-12 7.84772720e-12 1.23466398e-14 0.00000000e+00 0.00000000e+00 7.84772720e-12
6.02559586e-03 9.39508600e-12 9.26283435e-12 1.32251642e-13 0.00000000e+00 0.00000000e+00 9.26283435e-12
6.91830971e-03 1.10585495e-11 1.09331145e-11 1.25435000e-13 0.00000000e+00 0.00000000e+00 1.09331145e-11
7.94328235e-03 1.29991003e-11 1.29045807e-11 9.45195597e-14 0.00000000e+00 0.00000000e+00 1.29045807e-11
9.12010839e-03 1.58299901e-11 1.52315429e-11 5.98447166e-13 0.00000000e+00 0.00000000e+00 1.52315429e-11
1.04712855e-02 1.72839080e-11 1.70115517e-11 2.72356270e-13 0.00000000e+00 0.00000000e+00 1.70115517e-11
1.20226443e-02 1.76237970e-11 1.70115517e-11 6.12245321e-13 2.02012467e-310 1.98388831e-311 1.70115517e-11
1.38038426e-02 1.74114676e-11 1.70115517e-11 3.99915894e-13 2.90487871e-271 3.26550666e-272 1.70115517e-11
1.58489319e-02 1.73882187e-11 1.70115517e-11 3.76666994e-13 3.40631215e-237 3.42014508e-238 1.70115517e-11
1.81970086e-02 1.74459211e-11 1.70115517e-11 4.34369393e-13 1.49904171e-207 1.19089438e-208 1.70115517e-11
2.08929613e-02 1.74510191e-11 1.70115517e-11 4.39467419e-13 9.22306789e-182 9.48302754e-183 1.70115517e-11
2.39883292e-02 1.74438965e-11 1.70115517e-11 4.32344741e-13 2.52627947e-159 2.80099472e-160 1.70115517e-11
2.75422870e-02 1.74481730e-11 1.70115517e-11 4.36621276e-13 8.36603329e-140 9.37973747e-141 1.70115517e-11
3.16227766e-02 1.74803573e-11 1.70115517e-11 4.68805593e-13 7.81912047e-123 8.82808244e-124 1.70115517e-11
3.63078055e-02 1.74778984e-11 1.70115517e-11 4.66346678e-13 4.40863788e-108 5.06900262e-109 1.70115517e-11
4.16869383e-02 1.75469197e-11 1.70115517e-11 5.35367978e-13 2.92028010e-95 3.68367532e-96 1.70115517e-11
4.78630092e-02 1.75820191e-11 1.70115517e-11 5.70467421e-13 3.91464342e-84 5.47230395e-85 1.70115517e-11
5.49540874e-02 1.76181720e-11 1.70115517e-11 6.06620269e-13 1.76073355e-74 2.68782771e-75 1.70115517e-11
6.30957344e-02 1.76457898e-11 1.70115517e-11 6.34238077e-13 5.30573145e-66 9.59198543e-67 1.70115517e-11
7.24435960e-02 1.75965848e-11 1.70115517e-11 5.85033104e-13 1.15543893e-58 2.13979168e-59 1.70115517e-11
8.31763771e-02 1.75643251e-11 1.70115517e-11 5.52773415e-13 2.53803759e-52 4.59708707e-53 1.70115517e-11
9.54992586e-02 1.75816853e-11 1.70115517e-11 5.70133619e-13 9.93153705e-47 1.84913434e-47 1.70115517e-11
1.09647820e-01 1.68305911e-11 1.62459122e-11 5.84678955e-13 8.99739626e-42 1.73843304e-42 1.62459122e-11
1.25892541e-01 1.57142941e-11 1.51615674e-11 5.52726751e-13 2.15502754e-37 4.10259621e-38 1.51615674e-11
1.44543977e-01 1.46327544e-11 1.41495980e-11 4.83156458e-13 1.40657525e-33 2.56324144e-34 1.41495980e-11
1.65958691e-01 1.36908892e-11 1.32051732e-11 4.85716020e-13 2.21923231e-30 4.37155870e-31 1.32051732e-11
1.90546072e-01 1.28356287e-11 1.23237846e-11 5.11844008e-13 9.40517021e-28 2.15546775e-28 1.23237846e-11
2.18776162e-01 1.19893441e-11 1.15012250e-11 4.88119074e-13 1.50849331e-25 3.72637969e-26 1.15012250e-11
2.51188643e-01 1.12670741e-11 1.07335677e-11 5.33506341e-13 2.07183416e-23 6.01093462e-24 1.07335677e-11
2.88403150e-01 1.05041288e-11 1.00171482e-11 4.86980601e-13 1.42481829e-21 4.13640380e-22 1.00171482e-11
3.31131121e-01 9.78323663e-12 9.34854667e-12 4.34689905e-13 5.28232644e-20 1.53548358e-20 9.34854667e-12
3.80189396e-01 9.12136174e-12 8.72457139e-12 3.96789184e-13 1.16849172e-18 3.42711366e-19 8.72457139e-12
4.36515832e-01 8.50018369e-12 8.14224377e-12 3.57923347e-13 1.65737512e-17 4.92796095e-18 8.14224377e-12
5.01187234e-01 7.92717805e-12 7.59878402e-12 3.28234107e-13 1.59924995e-16 4.83417159e-17 7.59878402e-12
5.75439937e-01 7.38869391e-12 7.09159786e-12 2.96009857e-13 1.08619095e-15 3.25816685e-16 7.09159786e-12
6.60693448e-01 6.89075684e-12 6.61826421e-12 2.66983724e-13 5.50890578e-15 1.62944923e-15 6.61826421e-12
7.58577575e-01 6.43758472e-12 6.17652353e-12 2.39186283e-13 2.18749029e-14 6.33751650e-15 6.17652353e-12
8.70963590e-01 6.04272299e-12 5.76426715e-12 2.08001438e-13 7.04544024e-14 1.94836039e-14 5.76426715e-12
1.00000000e+00 5.74153784e-12 5.37952711e-12 1.74432561e-13 1.87578169e-13 4.81617009e-14 5.37952711e-12
1.14815362e+00 5.59431510e-12 5.02046681e-12 1.40646686e-13 4.33201604e-13 1.00395873e-13 5.02046681e-12
1.31825674e+00 5.68008536e-12 4.68537225e-12 1.13389087e-13 8.81324031e-13 1.79588356e-13 4.68537225e-12
1.51356125e+00 6.06239497e-12 4.37264380e-12 8.76177797e-14 1.60213339e-12 2.79402117e-13 4.37264380e-12
1.73780083e+00 6.71631494e-12 4.08078863e-12 6.64236876e-14 2.56910262e-12 3.75456917e-13 4.08078863e-12
1.99526231e+00 7.54366313e-12 3.80841354e-12 4.86874240e-14 3.68656217e-12 4.32388115e-13 3.80841354e-12
2.29086765e+00 8.36695120e-12 3.55421832e-12 3.52146354e-14 4.77751825e-12 4.37208968e-13 3.55421832e-12
2.63026799e+00 9.03172086e-12 3.31698953e-12 2.51729958e-14 5.68955834e-12 3.97732684e-13 3.31698953e-12
3.01995172e+00 9.41331255e-12 3.09559474e-12 1.75030869e-14 6.30021472e-12 3.36464542e-13 3.09559474e-12
3.46736850e+00 9.53999010e-12 2.88897711e-12 1.21810261e-14 6.63883196e-12 2.63197825e-13 2.88897711e-12
3.98107171e+00 9.36297673e-12 2.69615031e-12 8.43378285e-15 6.65839263e-12 1.93468825e-13 2.69615031e-12
4.57088190e+00 8.95763119e-12 2.51619387e-12 5.56044744e-15 6.43587686e-12 1.32790869e-13 2.51619387e-12
5.24807460e+00 8.18190552e-12 2.08050667e-12 3.14119647e-15 6.09825766e-12 8.54824654e-14 2.08050667e-12
6.02559586e+00 7.10444846e-12 1.37457712e-12 1.39642409e-15 5.72847491e-12 5.27686639e-14 1.37457712e-12
6.70000000e+00 6.40581111e-12 9.99872685e-13 7.17049635e-16 5.40522138e-12 3.49462655e-14 9.99872685e-13
6.92422916e+00 6.21690204e-12 9.05846924e-13 5.70152786e-16 5.31048497e-12 3.03897030e-14 9.05846924e-13
7.15596261e+00 6.06870500e-12 8.20663132e-13 4.55107900e-16 5.24758676e-12 2.63731649e-14 8.20663132e-13
7.39545150e+00 6.02790286e-12 7.43489831e-13 3.44744115e-16 5.28406828e-12 2.24090971e-14 7.43489831e-13
7.64295536e+00 6.23777528e-12 6.73573732e-13 2.41829743e-16 5.56395972e-12 1.86909933e-14 6.73573732e-13
7.89874245e+00 6.84904472e-12 6.10232385e-13 1.48417079e-16 6.23866391e-12 1.47746835e-14 6.10232385e-13
8.16308998e+00 7.67590377e-12 5.52847515e-13 8.72350499e-17 7.12296902e-12 1.15701791e-14 5.52847515e-13
8.43628443e+00 8.76451824e-12 5.00858987e-13 4.85525100e-17 8.26361070e-12 8.70860854e-15 5.00858987e-13
8.71862190e+00 9.43884906e-12 4.53759343e-13 3.02579141e-17 8.98505946e-12 6.82714759e-15 4.53759343e-13
9.01040836e+00 1.00927106e-11 4.11088843e-13 1.90172971e-17 9.68160269e-12 5.27296503e-15 4.11088843e-13
9.31196005e+00 1.06309053e-11 3.72430980e-13 0.00000000e+00 1.02584743e-11 0.00000000e+00 3.72430980e-13
9.62360379e+00 1.04805345e-11 3.37408415e-13 0.00000000e+00 1.01431261e-11 0.00000000e+00 3.37408415e-13
9.94567731e+00 9.96544184e-12 3.05679292e-13 0.00000000e+00 9.65976254e-12 0.00000000e+00 3.05679292e-13
1.02785297e+01 9.32721818e-12 2.76933904e-13 0.00000000e+00 9.05028427e-12 0.00000000e+00 2.76933904e-13
1.06225216e+01 8.69117581e-12 2.50891667e-13 0.00000000e+00 8.44028414e-12 0.00000000e+00 2.50891667e-13
1.09780260e+01 8.05218471e-12 2.27298384e-13 0.00000000e+00 7.82488633e-12 0.00000000e+00 2.27298384e-13
1.13454280e+01 7.46406183e-12 2.05923759e-13 0.00000000e+00 7.25813807e-12 0.00000000e+00 2.05923759e-13
1.17251259e+01 6.95181708e-12 1.86559155e-13 0.00000000e+00 6.76525792e-12 0.00000000e+00 1.86559155e-13
1.21175312e+01 6.50150724e-12 1.69015555e-13 0.00000000e+00 6.33249169e-12 0.00000000e+00 1.69015555e-13
1.25230691e+01 6.08102475e-12 1.53121715e-13 0.00000000e+00 5.92790304e-12 0.00000000e+00 1.53121715e-13
1.29421791e+01 5.71011510e-12 1.38722496e-13 0.00000000e+00 5.57139261e-12 0.00000000e+00 1.38722496e-13
1.33753155e+01 5.40832851e-12 1.25677347e-13 0.00000000e+00 5.28265116e-12 0.00000000e+00 1.25677347e-13
1.38229477e+01 5.21745683e-12 1.13858934e-13 0.00000000e+00 5.10359790e-12 0.00000000e+00 1.13858934e-13
1.42855609e+01 5.14010801e-12 1.03151898e-13 0.00000000e+00 5.03695611e-12 0.00000000e+00 1.03151898e-13
1.47636563e+01 5.26181921e-12 9.34517274e-14 0.00000000e+00 5.16836748e-12 0.00000000e+00 9.34517274e-14
1.52577522e+01 5.41434761e-12 8.46637387e-14 0.00000000e+00 5.32968387e-12 0.00000000e+00 8.46637387e-14
1.57683840e+01 5.61240430e-12 7.67021526e-14 0.00000000e+00 5.53570214e-12 0.00000000e+00 7.67021526e-14
1.62961051e+01 5.81191794e-12 6.94892560e-14 0.00000000e+00 5.74242869e-12 0.00000000e+00 6.94892560e-14
1.68414875e+01 6.02819434e-12 6.29546439e-14 0.00000000e+00 5.96523970e-12 0.00000000e+00 6.29546439e-14
1.74051222e+01 6.17988611e-12 5.70345319e-14 0.00000000e+00 6.12285157e-12 0.00000000e+00 5.70345319e-14
1.79876201e+01 6.27819233e-12 5.16711337e-14 0.00000000e+00 6.22652120e-12 0.00000000e+00 5.16711337e-14
1.85896125e+01 6.31700535e-12 4.68120974e-14 0.00000000e+00 6.27019325e-12 0.00000000e+00 4.68120974e-14
1.92117518e+01 6.31760456e-12 4.24099939e-14 0.00000000e+00 6.27519456e-12 0.00000000e+00 4.24099939e-14
1.98547123e+01 6.25354391e-12 3.84218542e-14 0.00000000e+00 6.21512205e-12 0.00000000e+00 3.84218542e-14
2.05191907e+01 6.17308691e-12 3.48087501e-14 0.00000000e+00 6.13827816e-12 0.00000000e+00 3.48087501e-14
2.12059073e+01 6.04396337e-12 3.15354141e-14 0.00000000e+00 6.01242796e-12 0.00000000e+00 3.15354141e-14
2.19156062e+01 5.97749062e-12 2.85698952e-14 0.00000000e+00 5.94892072e-12 0.00000000e+00 2.85698952e-14
2.26490567e+01 5.90802262e-12 2.58832470e-14 0.00000000e+00 5.88213938e-12 0.00000000e+00 2.58832470e-14
2.34070535e+01 5.83036781e-12 2.34492452e-14 0.00000000e+00 5.80691856e-12 0.00000000e+00 2.34492452e-14
2.41904183e+01 5.73437089e-12 2.12441313e-14 0.00000000e+00 5.71312675e-12 0.00000000e+00 2.12441313e-14
2.50000000e+01 5.62726681e-12 1.92463813e-14 0.00000000e+00 5.60802043e-12 0.00000000e+00 1.92463813e-14
2.75422870e+01 5.27448127e-12 1.43935895e-14 0.00000000e+00 5.26008768e-12 0.00000000e+00 1.43935895e-14
3.16227766e+01 4.63921586e-12 9.50975027e-15 0.00000000e+00 4.62970611e-12 0.00000000e+00 9.50975027e-15
3.63078055e+01 3.82569696e-12 6.28302969e-15 0.00000000e+00 3.81941393e-12 0.00000000e+00 6.28302969e-15
4.16869383e+01 2.93141475e-12 4.15115655e-15 0.00000000e+00 2.92726359e-12 0.00000000e+00 4.15115655e-15
4.78630092e+01 2.08565786e-12 2.74264194e-15 0.00000000e+00 2.08291522e-12 0.00000000e+00 2.74264194e-15
5.49540874e+01 1.39483430e-12 1.81204556e-15 0.00000000e+00 1.39302225e-12 0.00000000e+00 1.81204556e-15
6.30957344e+01 8.84313766e-13 1.19720663e-15 0.00000000e+00 8.83116559e-13 0.00000000e+00 1.19720663e-15
7.24435960e+01 5.37126020e-13 7.90986575e-16 0.00000000e+00 5.36335034e-13 0.00000000e+00 7.90986575e-16
8.31763771e+01 3.15594159e-13 5.22599647e-16 0.00000000e+00 3.15071560e-13 0.00000000e+00 5.22599647e-16
9.54992586e+01 1.81013514e-13 3.45278163e-16 0.00000000e+00 1.80668236e-13 0.00000000e+00 3.45278163e-16
1.09647820e+02 1.01819515e-13 2.28123020e-16 0.00000000e+00 1.01591392e-13 0.00000000e+00 2.28123020e-16
1.25892541e+02 5.70943766e-14 1.50719385e-16 0.00000000e+00 5.69436572e-14 0.00000000e+00 1.50719385e-16
1.44543977e+02 3.17296458e-14 9.95793099e-17 0.00000000e+00 3.16300665e-14 0.00000000e+00 9.95793099e-17
1.65958691e+02 1.67924297e-14 6.57913976e-17 0.00000000e+00 1.67266383e-14 0.00000000e+00 6.57913976e-17
1.90546072e+02 8.87764388e-15 4.34679453e-17 0.00000000e+00 8.83417593e-15 0.00000000e+00 4.34679453e-17
2.18776162e+02 4.67885723e-15 2.87189867e-17 0.00000000e+00 4.65013824e-15 0.00000000e+00 2.87189867e-17
2.51188643e+02 2.45493589e-15 1.89744463e-17 0.00000000e+00 2.43596144e-15 0.00000000e+00 1.89744463e-17
2.88403150e+02 1.28151218e-15 1.25362924e-17 0.00000000e+00 1.26897589e-15 0.00000000e+00 1.25362924e-17
3.31131121e+02 6.66924511e-16 8.28264623e-18 0.00000000e+00 6.58641865e-16 0.00000000e+00 8.28264623e-18
3.80189396e+02 3.45757462e-16 5.47229010e-18 0.00000000e+00 3.40285172e-16 0.00000000e+00 5.47229010e-18
4.36515832e+02 1.78869944e-16 3.61550621e-18 0.00000000e+00 1.75254437e-16 0.00000000e+00 3.61550621e-18
5.01187234e+02 9.23510051e-17 2.38874127e-18 0.00000000e+00 8.99622638e-17 0.00000000e+00 2.38874127e-18
5.75439937e+02 4.76335097e-17 1.57822570e-18 0.00000000e+00 4.60552840e-17 0.00000000e+00 1.57822570e-18
6.60693448e+02 2.45649796e-17 1.04272338e-18 0.00000000e+00 2.35222562e-17 0.00000000e+00 1.04272338e-18
7.58577575e+02 1.26782013e-17 6.88920507e-19 0.00000000e+00 1.19892807e-17 0.00000000e+00 6.88920507e-19
8.70963590e+02 6.55374322e-18 4.55165265e-19 0.00000000e+00 6.09857795e-18 0.00000000e+00 4.55165265e-19
1.00000000e+03 3.09637113e-18 0.00000000e+00 0.00000000e+00 3.09637113e-18 0.00000000e+00 0.00000000e+00
