# column 1: lambda (micron)
# column 2: total flux; lambda*F_lambda (W/m2)
# column 3: direct stellar flux; lambda*F_lambda (W/m2)
# column 4: scattered stellar flux; lambda*F_lambda (W/m2)
# column 5: total dust emission flux; lambda*F_lambda (W/m2)
# column 6: dust emission scattered flux; lambda*F_lambda (W/m2)
# column 7: transparent flux; lambda*F_lambda (W/m2)
1.00000000e-03 1.04635043e-12 1.04634360e-12 6.82901371e-18 0.00000000e+00 0.00000000e+00 1.04634360e-12
1.14815362e-03 1.23503095e-12 1.23502095e-12 1.00004927e-17 0.00000000e+00 0.00000000e+00 1.23502095e-12
1.31825674e-03 1.45773524e-12 1.45772071e-12 1.45251978e-17 0.00000000e+00 0.00000000e+00 1.45772071e-12
1.51356125e-03 1.72059981e-12 1.72057784e-12 2.19719157e-17 0.00000000e+00 0.00000000e+00 1.72057784e-12
1.73780083e-03 2.03087271e-12 2.03083353e-12 3.91846901e-17 0.00000000e+00 0.00000000e+00 2.03083353e-12
1.99526231e-03 2.39710121e-12 2.39703472e-12 6.64941695e-17 0.00000000e+00 0.00000000e+00 2.39703472e-12
2.29086765e-03 2.82937120e-12 2.82926954e-12 1.01662016e-16 0.00000000e+00 0.00000000e+00 2.82926954e-12
2.63026799e-03 3.33964260e-12 3.33944522e-12 1.97379018e-16 0.00000000e+00 0.00000000e+00 3.33944522e-12
3.01995172e-03 3.94194222e-12 3.94161611e-12 3.26114830e-16 0.00000000e+00 0.00000000e+00 3.94161611e-12
3.46736850e-03 4.65291063e-12 4.65237083e-12 5.39800506e-16 0.00000000e+00 0.00000000e+00 4.65237083e-12
3.98107171e-03 5.49206070e-12 5.49128930e-12 7.71399864e-16 0.00000000e+00 0.00000000e+00 5.49128930e-12
4.57088190e-03 6.48345949e-12 6.48148207e-12 1.97741593e-15 0.00000000e+00 0.00000000e+00 6.48148207e-12
5.24807460e-03 7.65347686e-12 7.65022704e-12 3.24982261e-15 0.00000000e+00 0.00000000e+00 7.65022704e-12
6.02559586e-03 9.03599930e-12 9.02972084e-12 6.27845382e-15 0.00000000e+00 0.00000000e+00 9.02972084e-12
6.91830971e-03 1.06665281e-11 1.06579658e-11 8.56222704e-15 0.00000000e+00 0.00000000e+00 1.06579658e-11
7.94328235e-03 1.25944185e-11 1.25798170e-11 1.46014466e-14 0.00000000e+00 0.00000000e+00 1.25798170e-11
9.12010839e-03 1.48735515e-11 1.48482176e-11 2.53338354e-14 0.00000000e+00 0.00000000e+00 1.48482176e-11
1.04712855e-02 1.66142438e-11 1.65834298e-11 3.08139926e-14 0.00000000e+00 0.00000000e+00 1.65834298e-11
1.20226443e-02 1.66420438e-11 1.65834298e-11 5.86140489e-14 0.00000000e+00 0.00000000e+00 1.65834298e-11
1.38038426e-02 1.66713667e-11 1.65834298e-11 8.79368673e-14 3.27518678e-292 4.87425559e-293 1.65834298e-11
1.58489319e-02 1.66822052e-11 1.65834298e-11 9.87754233e-14 5.08906003e-255 7.10822580e-256 1.65834298e-11
1.81970086e-02 1.67186108e-11 1.65834298e-11 1.35180983e-13 1.19994214e-222 1.47935458e-223 1.65834298e-11
2.08929613e-02 1.67673885e-11 1.65834298e-11 1.83958751e-13 1.74993850e-194 2.43969239e-195 1.65834298e-11
2.39883292e-02 1.68082737e-11 1.65834298e-11 2.24843961e-13 5.77821221e-170 9.02206521e-171 1.65834298e-11
2.75422870e-02 1.68548975e-11 1.65834298e-11 2.71467760e-13 1.24091067e-148 1.95782234e-149 1.65834298e-11
3.16227766e-02 1.68858820e-11 1.65834298e-11 3.02452248e-13 4.44238897e-130 6.88872516e-131 1.65834298e-11
3.63078055e-02 1.69198458e-11 1.65834298e-11 3.36415990e-13 5.98902955e-114 9.41325276e-115 1.65834298e-11
4.16869383e-02 1.69981699e-11 1.65834298e-11 4.14740133e-13 6.44772661e-100 1.12966468e-100 1.65834298e-11
4.78630092e-02 1.70467076e-11 1.65834298e-11 4.63277800e-13 9.70727721e-88 1.82432054e-88 1.65834298e-11
5.49540874e-02 1.70632743e-11 1.65834298e-11 4.79844476e-13 3.62897181e-77 7.07381091e-78 1.65834298e-11
6.30957344e-02 1.70112430e-11 1.65834298e-11 4.27813247e-13 6.95717846e-68 1.39957557e-68 1.65834298e-11
7.24435960e-02 1.69399241e-11 1.65834298e-11 3.56494332e-13 7.63052058e-60 1.41548731e-60 1.65834298e-11
8.31763771e-02 1.69223901e-11 1.65834298e-11 3.38960311e-13 6.03446813e-53 1.09574272e-53 1.65834298e-11
9.54992586e-02 1.69329789e-11 1.65834298e-11 3.49549149e-13 5.73017627e-47 1.08025536e-47 1.65834298e-11
1.09647820e-01 1.62292240e-11 1.58370587e-11 3.92165251e-13 8.15154753e-42 1.66715303e-42 1.58370587e-11
1.25892541e-01 1.51858302e-11 1.47800032e-11 4.05827064e-13 2.34225544e-37 5.03380927e-38 1.47800032e-11
1.44543977e-01 1.41951498e-11 1.37935015e-11 4.01648265e-13 1.59003812e-33 3.39733933e-34 1.37935015e-11
1.65958691e-01 1.32965875e-11 1.28728446e-11 4.23742901e-13 2.49407790e-30 5.70177569e-31 1.28728446e-11
1.90546072e-01 1.24401186e-11 1.20136376e-11 4.26481003e-13 1.00719310e-27 2.58334212e-28 1.20136376e-11
2.18776162e-01 1.15658216e-11 1.12117790e-11 3.54042624e-13 1.49990069e-25 3.95410842e-26 1.12117790e-11
2.51188643e-01 1.08866479e-11 1.04634409e-11 4.23206925e-13 2.01390282e-23 6.21173601e-24 1.04634409e-11
2.88403150e-01 1.01821030e-11 9.76505125e-12 4.17051787e-13 1.35071197e-21 4.23634912e-22 9.76505125e-12
3.31131121e-01 9.52144174e-12 9.11327608e-12 4.08165609e-13 4.91539634e-20 1.55623659e-20 9.11327608e-12
3.80189396e-01 8.89730141e-12 8.50500410e-12 3.92296235e-13 1.07480770e-18 3.45969813e-19 8.50500410e-12
4.36515832e-01 8.29919992e-12 7.93733165e-12 3.61853127e-13 1.51396418e-17 4.96797632e-18 7.93733165e-12
5.01187234e-01 7.74649848e-12 7.40754890e-12 3.38802182e-13 1.47394257e-16 4.98557755e-17 7.40754890e-12
5.75439937e-01 7.22759465e-12 6.91312687e-12 3.13437290e-13 1.03049530e-15 3.55985720e-16 6.91312687e-12
6.60693448e-01 6.74421874e-12 6.45170538e-12 2.87100775e-13 5.41258653e-15 1.87232286e-15 6.45170538e-12
7.58577575e-01 6.30557810e-12 6.02108180e-12 2.61675277e-13 2.28210235e-14 7.87561742e-15 6.02108180e-12
8.70963590e-01 5.92716765e-12 5.61920048e-12 2.30419731e-13 7.75474382e-14 2.61337046e-14 5.61920048e-12
1.00000000e+00 5.65878269e-12 5.24414302e-12 1.94414387e-13 2.20225287e-13 6.92256554e-14 5.24414302e-12
1.14815362e+00 5.60064270e-12 4.89411902e-12 1.61332235e-13 5.45191442e-13 1.56734393e-13 4.89411902e-12
1.31825674e+00 5.88192949e-12 4.56745763e-12 1.26977234e-13 1.18749463e-12 2.97645611e-13 4.56745763e-12
1.51356125e+00 6.63151250e-12 4.26259947e-12 9.96512257e-14 2.26926180e-12 4.85026072e-13 4.26259947e-12
1.73780083e+00 7.94390037e-12 3.97808929e-12 7.68747692e-14 3.88893631e-12 6.95151944e-13 3.97808929e-12
1.99526231e+00 9.66878619e-12 3.71256894e-12 6.00072467e-14 5.89621000e-12 8.42980271e-13 3.71256894e-12
2.29086765e+00 1.16792026e-11 3.46477093e-12 4.51802844e-14 8.16925134e-12 9.23850860e-13 3.46477093e-12
2.63026799e+00 1.36225010e-11 3.23351237e-12 3.39603446e-14 1.03550283e-11 9.10995692e-13 3.23351237e-12
3.01995172e+00 1.54326921e-11 3.01768933e-12 2.57580088e-14 1.23892448e-11 8.41425596e-13 3.01768933e-12
3.46736850e+00 1.67698026e-11 2.81627154e-12 1.91968575e-14 1.39343342e-11 7.30109690e-13 2.81627154e-12
3.98107171e+00 1.77118781e-11 2.62829753e-12 1.40748542e-14 1.50695057e-11 5.97166087e-13 2.62829753e-12
4.57088190e+00 1.82222255e-11 2.45286997e-12 9.98699782e-15 1.57593685e-11 4.59193688e-13 2.45286997e-12
5.24807460e+00 1.80907309e-11 2.02814751e-12 6.00932390e-15 1.60565741e-11 3.26622267e-13 2.02814751e-12
6.02559586e+00 1.74812793e-11 1.33998377e-12 2.78554242e-15 1.61385100e-11 2.18761125e-13 1.33998377e-12
6.70000000e+00 1.68537783e-11 9.74709347e-13 1.47759502e-15 1.58775914e-11 1.51517201e-13 9.74709347e-13
6.92422916e+00 1.66536869e-11 8.83049889e-13 1.20265023e-15 1.57694343e-11 1.34031646e-13 8.83049889e-13
7.15596261e+00 1.64668432e-11 8.00009879e-13 9.60221883e-16 1.56658731e-11 1.16879154e-13 8.00009879e-13
7.39545150e+00 1.64414059e-11 7.24778763e-13 7.26176854e-16 1.57159009e-11 9.93143718e-14 7.24778763e-13
7.64295536e+00 1.67416459e-11 6.56622211e-13 4.90372215e-16 1.60845333e-11 7.98612671e-14 6.56622211e-13
7.89874245e+00 1.74416473e-11 5.94874946e-13 2.80981118e-16 1.68464914e-11 5.82502466e-14 5.94874946e-13
8.16308998e+00 1.81928176e-11 5.38934254e-13 1.52032469e-16 1.76537313e-11 4.12851482e-14 5.38934254e-13
8.43628443e+00 1.88185628e-11 4.88254098e-13 7.79037076e-17 1.83302308e-11 2.79806364e-14 4.88254098e-13
8.71862190e+00 1.90340562e-11 4.42339790e-13 4.75957805e-17 1.85916688e-11 2.10216285e-14 4.42339790e-13
9.01040836e+00 1.92578107e-11 4.00743158e-13 3.02477367e-17 1.88570373e-11 1.61850777e-14 4.00743158e-13
9.31196005e+00 1.94013943e-11 3.63058180e-13 0.00000000e+00 1.90383361e-11 0.00000000e+00 3.63058180e-13
9.62360379e+00 1.88606690e-11 3.28917012e-13 0.00000000e+00 1.85317520e-11 0.00000000e+00 3.28917012e-13
9.94567731e+00 1.86483055e-11 2.97986401e-13 0.00000000e+00 1.83503191e-11 0.00000000e+00 2.97986401e-13
1.02785297e+01 1.84218150e-11 2.69964435e-13 0.00000000e+00 1.81518505e-11 0.00000000e+00 2.69964435e-13
1.06225216e+01 1.79188037e-11 2.44577592e-13 0.00000000e+00 1.76742261e-11 0.00000000e+00 2.44577592e-13
1.09780260e+01 1.78291337e-11 2.21578069e-13 0.00000000e+00 1.76075556e-11 0.00000000e+00 2.21578069e-13
1.13454280e+01 1.74436394e-11 2.00741370e-13 0.00000000e+00 1.72428981e-11 0.00000000e+00 2.00741370e-13
1.17251259e+01 1.72069037e-11 1.81864106e-13 0.00000000e+00 1.70250396e-11 0.00000000e+00 1.81864106e-13
1.21175312e+01 1.68432955e-11 1.64762018e-13 0.00000000e+00 1.66785335e-11 0.00000000e+00 1.64762018e-13
1.25230691e+01 1.66909916e-11 1.49268171e-13 0.00000000e+00 1.65417234e-11 0.00000000e+00 1.49268171e-13
1.29421791e+01 1.63919532e-11 1.35231331e-13 0.00000000e+00 1.62567218e-11 0.00000000e+00 1.35231331e-13
1.33753155e+01 1.60742499e-11 1.22514483e-13 0.00000000e+00 1.59517355e-11 0.00000000e+00 1.22514483e-13
1.38229477e+01 1.58702515e-11 1.10993499e-13 0.00000000e+00 1.57592580e-11 0.00000000e+00 1.10993499e-13
1.42855609e+01 1.57660547e-11 1.00555922e-13 0.00000000e+00 1.56654988e-11 0.00000000e+00 1.00555922e-13
1.47636563e+01 1.59572828e-11 9.10998706e-14 0.00000000e+00 1.58661829e-11 0.00000000e+00 9.10998706e-14
1.52577522e+01 1.63090399e-11 8.25330452e-14 0.00000000e+00 1.62265069e-11 0.00000000e+00 8.25330452e-14
1.57683840e+01 1.65738922e-11 7.47718247e-14 0.00000000e+00 1.64991204e-11 0.00000000e+00 7.47718247e-14
1.62961051e+01 1.68727149e-11 6.77404517e-14 0.00000000e+00 1.68049744e-11 0.00000000e+00 6.77404517e-14
1.68414875e+01 1.71974121e-11 6.13702932e-14 0.00000000e+00 1.71360418e-11 0.00000000e+00 6.13702932e-14
1.74051222e+01 1.74282444e-11 5.55991699e-14 0.00000000e+00 1.73726452e-11 0.00000000e+00 5.55991699e-14
1.79876201e+01 1.75475043e-11 5.03707500e-14 0.00000000e+00 1.74971335e-11 0.00000000e+00 5.03707500e-14
1.85896125e+01 1.76333627e-11 4.56339988e-14 0.00000000e+00 1.75877287e-11 0.00000000e+00 4.56339988e-14
1.92117518e+01 1.76354971e-11 4.13426810e-14 0.00000000e+00 1.75941544e-11 0.00000000e+00 4.13426810e-14
1.98547123e+01 1.75012530e-11 3.74549090e-14 0.00000000e+00 1.74637980e-11 0.00000000e+00 3.74549090e-14
2.05191907e+01 1.73168036e-11 3.39327342e-14 0.00000000e+00 1.72828708e-11 0.00000000e+00 3.39327342e-14
2.12059073e+01 1.70717954e-11 3.07417768e-14 0.00000000e+00 1.70410536e-11 0.00000000e+00 3.07417768e-14
2.19156062e+01 1.68854975e-11 2.78508898e-14 0.00000000e+00 1.68576467e-11 0.00000000e+00 2.78508898e-14
2.26490567e+01 1.65686770e-11 2.52318552e-14 0.00000000e+00 1.65434451e-11 0.00000000e+00 2.52318552e-14
2.34070535e+01 1.62533029e-11 2.28591087e-14 0.00000000e+00 1.62304438e-11 0.00000000e+00 2.28591087e-14
2.41904183e+01 1.58729333e-11 2.07094900e-14 0.00000000e+00 1.58522238e-11 0.00000000e+00 2.07094900e-14
2.50000000e+01 1.55562038e-11 1.87620165e-14 0.00000000e+00 1.55374418e-11 0.00000000e+00 1.87620165e-14
2.75422870e+01 1.41972125e-11 1.40313526e-14 0.00000000e+00 1.41831812e-11 0.00000000e+00 1.40313526e-14
3.16227766e+01 1.20248561e-11 9.27042274e-15 0.00000000e+00 1.20155857e-11 0.00000000e+00 9.27042274e-15
3.63078055e+01 9.52486161e-12 6.12490756e-15 0.00000000e+00 9.51873670e-12 0.00000000e+00 6.12490756e-15
4.16869383e+01 7.06056326e-12 4.04668630e-15 0.00000000e+00 7.05651657e-12 0.00000000e+00 4.04668630e-15
4.78630092e+01 4.86417754e-12 2.67361912e-15 0.00000000e+00 4.86150392e-12 0.00000000e+00 2.67361912e-15
5.49540874e+01 3.15536858e-12 1.76644264e-15 0.00000000e+00 3.15360214e-12 0.00000000e+00 1.76644264e-15
6.30957344e+01 1.94367645e-12 1.16707708e-15 0.00000000e+00 1.94250938e-12 0.00000000e+00 1.16707708e-15
7.24435960e+01 1.14971072e-12 7.71080178e-16 0.00000000e+00 1.14893964e-12 0.00000000e+00 7.71080178e-16
8.31763771e+01 6.58783018e-13 5.09447621e-16 0.00000000e+00 6.58273570e-13 0.00000000e+00 5.09447621e-16
9.54992586e+01 3.69555402e-13 3.36588705e-16 0.00000000e+00 3.69218814e-13 0.00000000e+00 3.36588705e-16
1.09647820e+02 2.03767984e-13 2.22381952e-16 0.00000000e+00 2.03545602e-13 0.00000000e+00 2.22381952e-16
1.25892541e+02 1.12225361e-13 1.46926299e-16 0.00000000e+00 1.12078435e-13 0.00000000e+00 1.46926299e-16
1.44543977e+02 6.14098511e-14 9.70732430e-17 0.00000000e+00 6.13127779e-14 0.00000000e+00 9.70732430e-17
1.65958691e+02 3.20689897e-14 6.41356556e-17 0.00000000e+00 3.20048541e-14 0.00000000e+00 6.41356556e-17
1.90546072e+02 1.67491281e-14 4.23740075e-17 0.00000000e+00 1.67067541e-14 0.00000000e+00 4.23740075e-17
2.18776162e+02 8.73618647e-15 2.79962291e-17 0.00000000e+00 8.70819024e-15 0.00000000e+00 2.79962291e-17
2.51188643e+02 4.54182486e-15 1.84969251e-17 0.00000000e+00 4.52332794e-15 0.00000000e+00 1.84969251e-17
2.88403150e+02 2.35080076e-15 1.22207972e-17 0.00000000e+00 2.33857996e-15 0.00000000e+00 1.22207972e-17
3.31131121e+02 1.21406229e-15 8.07420067e-18 0.00000000e+00 1.20598809e-15 0.00000000e+00 8.07420067e-18
3.80189396e+02 6.24883348e-16 5.33457148e-18 0.00000000e+00 6.19548777e-16 0.00000000e+00 5.33457148e-18
4.36515832e+02 3.21048392e-16 3.52451642e-18 0.00000000e+00 3.17523876e-16 0.00000000e+00 3.52451642e-18
5.01187234e+02 1.64633689e-16 2.32862491e-18 0.00000000e+00 1.62305064e-16 0.00000000e+00 2.32862491e-18
5.75439937e+02 8.43221581e-17 1.53850722e-18 0.00000000e+00 8.27836509e-17 0.00000000e+00 1.53850722e-18
6.60693448e+02 4.31629469e-17 1.01648164e-18 0.00000000e+00 4.21464653e-17 0.00000000e+00 1.01648164e-18
7.58577575e+02 2.20942422e-17 6.71582760e-19 0.00000000e+00 2.14226595e-17 0.00000000e+00 6.71582760e-19
8.70963590e+02 1.13146489e-17 4.43710329e-19 0.00000000e+00 1.08709386e-17 0.00000000e+00 4.43710329e-19
1.00000000e+03 5.50790773e-18 0.00000000e+00 0.00000000e+00 5.50790773e-18 0.00000000e+00 0.00000000e+00
