# column 1: lambda (micron)
# column 2: total flux; lambda*F_lambda (W/m2)
# column 3: direct stellar flux; lambda*F_lambda (W/m2)
# column 4: scattered stellar flux; lambda*F_lambda (W/m2)
# column 5: total dust emission flux; lambda*F_lambda (W/m2)
# column 6: dust emission scattered flux; lambda*F_lambda (W/m2)
# column 7: transparent flux; lambda*F_lambda (W/m2)
1.00000000e-03 1.04634416e-12 1.04634360e-12 5.60209331e-19 0.00000000e+00 0.00000000e+00 1.04634360e-12
1.14815362e-03 1.23502184e-12 1.23502095e-12 8.92875692e-19 0.00000000e+00 0.00000000e+00 1.23502095e-12
1.31825674e-03 1.45772209e-12 1.45772071e-12 1.37950793e-18 0.00000000e+00 0.00000000e+00 1.45772071e-12
1.51356125e-03 1.72057995e-12 1.72057784e-12 2.11633590e-18 0.00000000e+00 0.00000000e+00 1.72057784e-12
1.73780083e-03 2.03083734e-12 2.03083353e-12 3.81359887e-18 0.00000000e+00 0.00000000e+00 2.03083353e-12
1.99526231e-03 2.39704154e-12 2.39703472e-12 6.82108269e-18 0.00000000e+00 0.00000000e+00 2.39703472e-12
2.29086765e-03 2.82928040e-12 2.82926954e-12 1.08630121e-17 0.00000000e+00 0.00000000e+00 2.82926954e-12
2.63026799e-03 3.33946714e-12 3.33944522e-12 2.19203097e-17 0.00000000e+00 0.00000000e+00 3.33944522e-12
3.01995172e-03 3.94165247e-12 3.94161611e-12 3.63583860e-17 0.00000000e+00 0.00000000e+00 3.94161611e-12
3.46736850e-03 4.65243625e-12 4.65237083e-12 6.54191231e-17 0.00000000e+00 0.00000000e+00 4.65237083e-12
3.98107171e-03 5.49138870e-12 5.49128930e-12 9.94027584e-17 0.00000000e+00 0.00000000e+00 5.49128930e-12
4.57088190e-03 6.48170457e-12 6.48148207e-12 2.22494619e-16 0.00000000e+00 0.00000000e+00 6.48148207e-12
5.24807460e-03 7.65061118e-12 7.65022704e-12 3.84135007e-16 0.00000000e+00 0.00000000e+00 7.65022704e-12
6.02559586e-03 9.03045513e-12 9.02972084e-12 7.34290522e-16 0.00000000e+00 0.00000000e+00 9.02972084e-12
6.91830971e-03 1.06591093e-11 1.06579658e-11 1.14345762e-15 0.00000000e+00 0.00000000e+00 1.06579658e-11
7.94328235e-03 1.25817392e-11 1.25798170e-11 1.92216555e-15 6.81856695e-304 7.42589398e-307 1.25798170e-11
9.12010839e-03 1.48512424e-11 1.48482176e-11 3.02474139e-15 2.96007570e-265 3.90312478e-268 1.48482176e-11
1.04712855e-02 1.65877522e-11 1.65834298e-11 4.32242336e-15 1.24321278e-231 4.78265069e-234 1.65834298e-11
1.20226443e-02 1.65897264e-11 1.65834298e-11 6.29658188e-15 1.92932342e-202 5.11027878e-205 1.65834298e-11
1.38038426e-02 1.65922383e-11 1.65834298e-11 8.80852032e-15 5.23571169e-177 3.10067695e-179 1.65834298e-11
1.58489319e-02 1.65960279e-11 1.65834298e-11 1.25981330e-14 7.03225878e-155 3.73568681e-157 1.65834298e-11
1.81970086e-02 1.66026275e-11 1.65834298e-11 1.91977172e-14 1.25045268e-135 1.00676817e-137 1.65834298e-11
2.08929613e-02 1.66091153e-11 1.65834298e-11 2.56854720e-14 6.51446866e-119 7.17110982e-121 1.65834298e-11
2.39883292e-02 1.66232201e-11 1.65834298e-11 3.97903411e-14 2.27930348e-104 3.10920952e-106 1.65834298e-11
2.75422870e-02 1.66341526e-11 1.65834298e-11 5.07228389e-14 1.01965821e-91 1.87205872e-93 1.65834298e-11
3.16227766e-02 1.66414770e-11 1.65834298e-11 5.80472425e-14 9.93938983e-81 2.29711782e-82 1.65834298e-11
3.63078055e-02 1.66526458e-11 1.65834298e-11 6.92160065e-14 3.44492105e-71 9.25307857e-73 1.65834298e-11
4.16869383e-02 1.66789398e-11 1.65834298e-11 9.55100633e-14 6.57844315e-63 2.47516856e-64 1.65834298e-11
4.78630092e-02 1.67174366e-11 1.65834298e-11 1.34006779e-13 9.99513420e-56 5.02703883e-57 1.65834298e-11
5.49540874e-02 1.67506183e-11 1.65834298e-11 1.67188475e-13 1.67362318e-49 1.06552383e-50 1.65834298e-11
6.30957344e-02 1.67890080e-11 1.65834298e-11 2.05578212e-13 5.45133560e-44 4.19372510e-45 1.65834298e-11
7.24435960e-02 1.67898179e-11 1.65834298e-11 2.06388156e-13 3.15790550e-39 2.38872563e-40 1.65834298e-11
8.31763771e-02 1.67878938e-11 1.65834298e-11 2.04464038e-13 3.23001553e-35 2.43694995e-36 1.65834298e-11
9.54992586e-02 1.67910717e-11 1.65834298e-11 2.07641932e-13 9.10319552e-32 7.17449561e-33 1.65834298e-11
1.09647820e-01 1.60572567e-11 1.58370587e-11 2.20197962e-13 7.71692172e-29 6.45538356e-30 1.58370587e-11
1.25892541e-01 1.49746209e-11 1.47800032e-11 1.94617728e-13 2.48589335e-26 1.97498757e-27 1.47800032e-11
1.44543977e-01 1.39656170e-11 1.37935015e-11 1.72115467e-13 3.37021489e-24 2.55699704e-25 1.37935015e-11
1.65958691e-01 1.30554892e-11 1.28728446e-11 1.82644571e-13 1.71033366e-22 1.43875619e-23 1.28728446e-11
1.90546072e-01 1.22217735e-11 1.20136376e-11 2.08135849e-13 3.63096938e-21 3.68874463e-22 1.20136376e-11
2.18776162e-01 1.14265143e-11 1.12117790e-11 2.14735294e-13 4.33370938e-20 4.83331707e-21 1.12117790e-11
2.51188643e-01 1.07129605e-11 1.04634409e-11 2.49519022e-13 5.30107991e-19 7.15904885e-20 1.04634409e-11
2.88403150e-01 9.99334796e-12 9.76505125e-12 2.28292324e-13 4.38542594e-18 5.69296263e-19 9.76505125e-12
3.31131121e-01 9.31665759e-12 9.11327608e-12 2.03356503e-13 2.50124031e-17 3.10665019e-18 9.11327608e-12
3.80189396e-01 8.68599836e-12 8.50500410e-12 1.80890078e-13 1.04183579e-16 1.26016499e-17 8.50500410e-12
4.36515832e-01 8.10620305e-12 7.93733165e-12 1.68539003e-13 3.32400313e-16 4.00747857e-17 7.93733165e-12
5.01187234e-01 7.56370836e-12 7.40754890e-12 1.55291740e-13 8.67724845e-16 1.12216197e-16 7.40754890e-12
5.75439937e-01 7.06264272e-12 6.91312687e-12 1.47480868e-13 2.03498355e-15 3.02483108e-16 6.91312687e-12
6.60693448e-01 6.59118973e-12 6.45170538e-12 1.34701443e-13 4.78290573e-15 8.85268875e-16 6.45170538e-12
7.58577575e-01 6.15448092e-12 6.02108180e-12 1.21478378e-13 1.19207465e-14 2.59618143e-15 6.02108180e-12
8.70963590e-01 5.75780639e-12 5.61920048e-12 1.08368988e-13 3.02369172e-14 6.98973675e-15 5.61920048e-12
1.00000000e+00 5.40818037e-12 5.24414302e-12 9.20163681e-14 7.20209869e-14 1.62212776e-14 5.24414302e-12
1.14815362e+00 5.12956662e-12 4.89411902e-12 7.80069222e-14 1.57440672e-13 3.25707078e-14 4.89411902e-12
1.31825674e+00 4.94567800e-12 4.56745763e-12 6.33258937e-14 3.14894478e-13 5.66323972e-14 4.56745763e-12
1.51356125e+00 4.88042854e-12 4.26259947e-12 4.78354523e-14 5.69993613e-13 8.63818097e-14 4.26259947e-12
1.73780083e+00 4.93591323e-12 3.97808929e-12 3.64646537e-14 9.21359280e-13 1.14116607e-13 3.97808929e-12
1.99526231e+00 5.07892517e-12 3.71256894e-12 2.66494264e-14 1.33970680e-12 1.29912562e-13 3.71256894e-12
2.29086765e+00 5.25774851e-12 3.46477093e-12 1.91682783e-14 1.77380931e-12 1.29868481e-13 3.46477093e-12
2.63026799e+00 5.41501653e-12 3.23351237e-12 1.31245253e-14 2.16837963e-12 1.17851616e-13 3.23351237e-12
3.01995172e+00 5.49398302e-12 3.01768933e-12 9.08858389e-15 2.46720510e-12 1.00101356e-13 3.01768933e-12
3.46736850e+00 5.49845563e-12 2.81627154e-12 6.27456655e-15 2.67590952e-12 7.95879344e-14 2.81627154e-12
3.98107171e+00 5.39746647e-12 2.62829753e-12 4.27577922e-15 2.76489316e-12 6.03081486e-14 2.62829753e-12
4.57088190e+00 5.21859241e-12 2.45286997e-12 2.92004934e-15 2.76280239e-12 4.34767664e-14 2.45286997e-12
5.24807460e+00 4.70974442e-12 2.02814751e-12 1.69339026e-15 2.67990352e-12 2.95139829e-14 2.02814751e-12
6.02559586e+00 3.91809329e-12 1.33998377e-12 7.62649684e-16 2.57734687e-12 1.91793888e-14 1.33998377e-12
6.70000000e+00 3.45197409e-12 9.74709347e-13 3.87221136e-16 2.47687752e-12 1.31132452e-14 9.74709347e-13
6.92422916e+00 3.32421531e-12 8.83049889e-13 3.15124045e-16 2.44085030e-12 1.16340298e-14 8.83049889e-13
7.15596261e+00 3.22663442e-12 8.00009879e-13 2.50478858e-16 2.42637406e-12 1.01365141e-14 8.00009879e-13
7.39545150e+00 3.16913582e-12 7.24778763e-13 1.88693527e-16 2.44416837e-12 8.65720772e-15 7.24778763e-13
7.64295536e+00 3.24423558e-12 6.56622211e-13 1.30022716e-16 2.58748335e-12 7.13021327e-15 6.56622211e-13
7.89874245e+00 3.50116849e-12 5.94874946e-13 7.86752030e-17 2.90621487e-12 5.51993078e-15 5.94874946e-13
8.16308998e+00 3.91040203e-12 5.38934254e-13 4.51642099e-17 3.37142261e-12 4.21040815e-15 5.38934254e-13
8.43628443e+00 4.48882803e-12 4.88254098e-13 2.50169601e-17 4.00054892e-12 3.13926757e-15 4.88254098e-13
8.71862190e+00 4.89367913e-12 4.42339790e-13 1.59115969e-17 4.45132343e-12 2.45252526e-15 4.42339790e-13
9.01040836e+00 5.29225477e-12 4.00743158e-13 1.02616267e-17 4.89150135e-12 1.93030762e-15 4.00743158e-13
9.31196005e+00 5.64680371e-12 3.63058180e-13 0.00000000e+00 5.28374553e-12 0.00000000e+00 3.63058180e-13
9.62360379e+00 5.59755830e-12 3.28917012e-13 0.00000000e+00 5.26864129e-12 0.00000000e+00 3.28917012e-13
9.94567731e+00 5.35505482e-12 2.97986401e-13 0.00000000e+00 5.05706842e-12 0.00000000e+00 2.97986401e-13
1.02785297e+01 4.94645404e-12 2.69964435e-13 0.00000000e+00 4.67648961e-12 0.00000000e+00 2.69964435e-13
1.06225216e+01 4.59242289e-12 2.44577592e-13 0.00000000e+00 4.34784529e-12 0.00000000e+00 2.44577592e-13
1.09780260e+01 4.20982349e-12 2.21578069e-13 0.00000000e+00 3.98824542e-12 0.00000000e+00 2.21578069e-13
1.13454280e+01 3.85483126e-12 2.00741370e-13 0.00000000e+00 3.65408989e-12 0.00000000e+00 2.00741370e-13
1.17251259e+01 3.58478765e-12 1.81864106e-13 0.00000000e+00 3.40292354e-12 0.00000000e+00 1.81864106e-13
1.21175312e+01 3.31925864e-12 1.64762018e-13 0.00000000e+00 3.15449662e-12 0.00000000e+00 1.64762018e-13
1.25230691e+01 3.09377627e-12 1.49268171e-13 0.00000000e+00 2.94450810e-12 0.00000000e+00 1.49268171e-13
1.29421791e+01 2.91087181e-12 1.35231331e-13 0.00000000e+00 2.77564048e-12 0.00000000e+00 1.35231331e-13
1.33753155e+01 2.75112067e-12 1.22514483e-13 0.00000000e+00 2.62860618e-12 0.00000000e+00 1.22514483e-13
1.38229477e+01 2.65058865e-12 1.10993499e-13 0.00000000e+00 2.53959515e-12 0.00000000e+00 1.10993499e-13
1.42855609e+01 2.61112119e-12 1.00555922e-13 0.00000000e+00 2.51056527e-12 0.00000000e+00 1.00555922e-13
1.47636563e+01 2.67002760e-12 9.10998706e-14 0.00000000e+00 2.57892773e-12 0.00000000e+00 9.10998706e-14
1.52577522e+01 2.74816728e-12 8.25330452e-14 0.00000000e+00 2.66563424e-12 0.00000000e+00 8.25330452e-14
1.57683840e+01 2.84851711e-12 7.47718247e-14 0.00000000e+00 2.77374528e-12 0.00000000e+00 7.47718247e-14
1.62961051e+01 2.95080763e-12 6.77404517e-14 0.00000000e+00 2.88306717e-12 0.00000000e+00 6.77404517e-14
1.68414875e+01 3.06422134e-12 6.13702932e-14 0.00000000e+00 3.00285105e-12 0.00000000e+00 6.13702932e-14
1.74051222e+01 3.13561639e-12 5.55991699e-14 0.00000000e+00 3.08001722e-12 0.00000000e+00 5.55991699e-14
1.79876201e+01 3.19052400e-12 5.03707500e-14 0.00000000e+00 3.14015325e-12 0.00000000e+00 5.03707500e-14
1.85896125e+01 3.20567931e-12 4.56339988e-14 0.00000000e+00 3.16004531e-12 0.00000000e+00 4.56339988e-14
1.92117518e+01 3.19045404e-12 4.13426810e-14 0.00000000e+00 3.14911136e-12 0.00000000e+00 4.13426810e-14
1.98547123e+01 3.16012250e-12 3.74549090e-14 0.00000000e+00 3.12266759e-12 0.00000000e+00 3.74549090e-14
2.05191907e+01 3.11282950e-12 3.39327342e-14 0.00000000e+00 3.07889677e-12 0.00000000e+00 3.39327342e-14
2.12059073e+01 3.07802078e-12 3.07417768e-14 0.00000000e+00 3.04727900e-12 0.00000000e+00 3.07417768e-14
2.19156062e+01 3.02789043e-12 2.78508898e-14 0.00000000e+00 3.00003954e-12 0.00000000e+00 2.78508898e-14
2.26490567e+01 2.97641450e-12 2.52318552e-14 0.00000000e+00 2.95118264e-12 0.00000000e+00 2.52318552e-14
2.34070535e+01 2.93238778e-12 2.28591087e-14 0.00000000e+00 2.90952867e-12 0.00000000e+00 2.28591087e-14
2.41904183e+01 2.89245536e-12 2.07094900e-14 0.00000000e+00 2.87174587e-12 0.00000000e+00 2.07094900e-14
2.50000000e+01 2.83910680e-12 1.87620165e-14 0.00000000e+00 2.82034479e-12 0.00000000e+00 1.87620165e-14
2.75422870e+01 2.67345032e-12 1.40313526e-14 0.00000000e+00 2.65941896e-12 0.00000000e+00 1.40313526e-14
3.16227766e+01 2.35871830e-12 9.27042274e-15 0.00000000e+00 2.34944787e-12 0.00000000e+00 9.27042274e-15
3.63078055e+01 1.96245220e-12 6.12490756e-15 0.00000000e+00 1.95632729e-12 0.00000000e+00 6.12490756e-15
4.16869383e+01 1.52329611e-12 4.04668630e-15 0.00000000e+00 1.51924942e-12 0.00000000e+00 4.04668630e-15
4.78630092e+01 1.10227097e-12 2.67361912e-15 0.00000000e+00 1.09959735e-12 0.00000000e+00 2.67361912e-15
5.49540874e+01 7.49408599e-13 1.76644264e-15 0.00000000e+00 7.47642156e-13 0.00000000e+00 1.76644264e-15
6.30957344e+01 4.81926635e-13 1.16707708e-15 0.00000000e+00 4.80759558e-13 0.00000000e+00 1.16707708e-15
7.24435960e+01 2.96262321e-13 7.71080178e-16 0.00000000e+00 2.95491241e-13 0.00000000e+00 7.71080178e-16
8.31763771e+01 1.76018645e-13 5.09447621e-16 0.00000000e+00 1.75509197e-13 0.00000000e+00 5.09447621e-16
9.54992586e+01 1.01860418e-13 3.36588705e-16 0.00000000e+00 1.01523829e-13 0.00000000e+00 3.36588705e-16
1.09647820e+02 5.77090105e-14 2.22381952e-16 0.00000000e+00 5.74866286e-14 0.00000000e+00 2.22381952e-16
1.25892541e+02 3.25136193e-14 1.46926299e-16 0.00000000e+00 3.23666930e-14 0.00000000e+00 1.46926299e-16
1.44543977e+02 1.81486223e-14 9.70732430e-17 0.00000000e+00 1.80515491e-14 0.00000000e+00 9.70732430e-17
1.65958691e+02 9.64146567e-15 6.41356556e-17 0.00000000e+00 9.57733001e-15 0.00000000e+00 6.41356556e-17
1.90546072e+02 5.11098727e-15 4.23740075e-17 0.00000000e+00 5.06861326e-15 0.00000000e+00 4.23740075e-17
2.18776162e+02 2.70109675e-15 2.79962291e-17 0.00000000e+00 2.67310052e-15 0.00000000e+00 2.79962291e-17
2.51188643e+02 1.42075542e-15 1.84969251e-17 0.00000000e+00 1.40225849e-15 0.00000000e+00 1.84969251e-17
2.88403150e+02 7.43390759e-16 1.22207972e-17 0.00000000e+00 7.31169961e-16 0.00000000e+00 1.22207972e-17
3.31131121e+02 3.87836171e-16 8.07420067e-18 0.00000000e+00 3.79761970e-16 0.00000000e+00 8.07420067e-18
3.80189396e+02 2.01641592e-16 5.33457148e-18 0.00000000e+00 1.96307020e-16 0.00000000e+00 5.33457148e-18
4.36515832e+02 1.04664844e-16 3.52451642e-18 0.00000000e+00 1.01140328e-16 0.00000000e+00 3.52451642e-18
5.01187234e+02 5.42620613e-17 2.32862491e-18 0.00000000e+00 5.19334364e-17 0.00000000e+00 2.32862491e-18
5.75439937e+02 2.81302389e-17 1.53850722e-18 0.00000000e+00 2.65917316e-17 0.00000000e+00 1.53850722e-18
6.60693448e+02 1.45997955e-17 1.01648164e-18 0.00000000e+00 1.35833138e-17 0.00000000e+00 1.01648164e-18
7.58577575e+02 7.59571254e-18 6.71582760e-19 0.00000000e+00 6.92412978e-18 0.00000000e+00 6.71582760e-19
8.70963590e+02 3.96604708e-18 4.43710329e-19 0.00000000e+00 3.52233675e-18 0.00000000e+00 4.43710329e-19
1.00000000e+03 1.78843984e-18 0.00000000e+00 0.00000000e+00 1.78843984e-18 0.00000000e+00 0.00000000e+00
