# column 1: lambda (micron)
# column 2: total flux; lambda*F_lambda (W/m2)
# column 3: direct stellar flux; lambda*F_lambda (W/m2)
# column 4: scattered stellar flux; lambda*F_lambda (W/m2)
# column 5: total dust emission flux; lambda*F_lambda (W/m2)
# column 6: dust emission scattered flux; lambda*F_lambda (W/m2)
# column 7: transparent flux; lambda*F_lambda (W/m2)
1.00000000e-03 1.07335755e-12 1.07335627e-12 1.27878481e-18 0.00000000e+00 0.00000000e+00 1.07335627e-12
1.14815362e-03 1.26690966e-12 1.26690456e-12 5.10845159e-18 0.00000000e+00 0.00000000e+00 1.26690456e-12
1.31825674e-03 1.49536277e-12 1.49535359e-12 9.18276467e-18 0.00000000e+00 0.00000000e+00 1.49535359e-12
1.51356125e-03 1.76942066e-12 1.76499670e-12 4.42395821e-15 0.00000000e+00 0.00000000e+00 1.76499670e-12
1.73780083e-03 2.32570390e-12 2.08326203e-12 2.42441871e-13 0.00000000e+00 0.00000000e+00 2.08326203e-12
1.99526231e-03 2.45923633e-12 2.45891716e-12 3.19172988e-16 0.00000000e+00 0.00000000e+00 2.45891716e-12
2.29086765e-03 2.91053705e-12 2.90231066e-12 8.22638207e-15 0.00000000e+00 0.00000000e+00 2.90231066e-12
2.63026799e-03 3.42585409e-12 3.42565717e-12 1.96924810e-16 0.00000000e+00 0.00000000e+00 3.42565717e-12
3.01995172e-03 4.05027154e-12 4.04337385e-12 6.89769718e-15 0.00000000e+00 0.00000000e+00 4.04337385e-12
3.46736850e-03 4.77298189e-12 4.77247759e-12 5.04304303e-16 0.00000000e+00 0.00000000e+00 4.77247759e-12
3.98107171e-03 5.63645410e-12 5.63305378e-12 3.40031926e-15 0.00000000e+00 0.00000000e+00 5.63305378e-12
4.57088190e-03 6.65033030e-12 6.64880962e-12 1.52067962e-15 0.00000000e+00 0.00000000e+00 6.64880962e-12
5.24807460e-03 7.99053470e-12 7.84772720e-12 1.42807502e-13 0.00000000e+00 0.00000000e+00 7.84772720e-12
6.02559586e-03 9.29734564e-12 9.26283435e-12 3.45112875e-14 0.00000000e+00 0.00000000e+00 9.26283435e-12
6.91830971e-03 1.09394425e-11 1.09331145e-11 6.32798178e-15 0.00000000e+00 0.00000000e+00 1.09331145e-11
7.94328235e-03 1.29619833e-11 1.29045807e-11 5.74026203e-14 5.47849338e-304 1.70672804e-306 1.29045807e-11
9.12010839e-03 1.52706546e-11 1.52315429e-11 3.91117053e-14 3.18825865e-265 1.39896219e-267 1.52315429e-11
1.04712855e-02 1.70637739e-11 1.70115517e-11 5.22221360e-14 1.72868147e-231 1.33813505e-233 1.70115517e-11
1.20226443e-02 1.70531802e-11 1.70115517e-11 4.16284685e-14 3.34875639e-202 2.23381583e-204 1.70115517e-11
1.38038426e-02 1.70681013e-11 1.70115517e-11 5.65496201e-14 1.10201575e-176 1.08331134e-178 1.70115517e-11
1.58489319e-02 1.70723912e-11 1.70115517e-11 6.08394372e-14 1.75243416e-154 1.81148079e-156 1.70115517e-11
1.81970086e-02 1.70711281e-11 1.70115517e-11 5.95763601e-14 3.60108069e-135 4.16100988e-137 1.70115517e-11
2.08929613e-02 1.70713155e-11 1.70115517e-11 5.97637952e-14 2.12626046e-118 2.66218687e-120 1.70115517e-11
2.39883292e-02 1.70745951e-11 1.70115517e-11 6.30433430e-14 8.31893522e-104 1.34858112e-105 1.70115517e-11
2.75422870e-02 1.70793448e-11 1.70115517e-11 6.77930771e-14 4.09133323e-91 8.01077994e-93 1.70115517e-11
3.16227766e-02 1.70842894e-11 1.70115517e-11 7.27377037e-14 4.32833511e-80 9.75849752e-82 1.70115517e-11
3.63078055e-02 1.70868067e-11 1.70115517e-11 7.52549642e-14 1.61133689e-70 4.00218668e-72 1.70115517e-11
4.16869383e-02 1.71015226e-11 1.70115517e-11 8.99708492e-14 3.27228303e-62 1.10812331e-63 1.70115517e-11
4.78630092e-02 1.71167747e-11 1.70115517e-11 1.05223020e-13 5.23789610e-55 2.32824721e-56 1.70115517e-11
5.49540874e-02 1.71332945e-11 1.70115517e-11 1.21742753e-13 9.16931218e-49 5.14218711e-50 1.70115517e-11
6.30957344e-02 1.71518575e-11 1.70115517e-11 1.40305828e-13 3.09665902e-43 2.12598080e-44 1.70115517e-11
7.24435960e-02 1.71500043e-11 1.70115517e-11 1.38452602e-13 1.85231551e-38 1.27376435e-39 1.70115517e-11
8.31763771e-02 1.71488683e-11 1.70115517e-11 1.37316564e-13 1.95636703e-34 1.33130216e-35 1.70115517e-11
9.54992586e-02 1.71500704e-11 1.70115517e-11 1.38518700e-13 5.68076315e-31 4.06368772e-32 1.70115517e-11
1.09647820e-01 1.63805078e-11 1.62459122e-11 1.34595695e-13 4.95520291e-28 3.76656076e-29 1.62459122e-11
1.25892541e-01 1.52811843e-11 1.51615674e-11 1.19616895e-13 1.63662639e-25 1.16823871e-26 1.51615674e-11
1.44543977e-01 1.42541290e-11 1.41495980e-11 1.04531061e-13 2.27009874e-23 1.56218021e-24 1.41495980e-11
1.65958691e-01 1.33110135e-11 1.32051732e-11 1.05840337e-13 1.17418114e-21 9.15740036e-23 1.32051732e-11
1.90546072e-01 1.24436311e-11 1.23237846e-11 1.19846458e-13 2.52828295e-20 2.44272506e-21 1.23237846e-11
2.18776162e-01 1.16172610e-11 1.15012250e-11 1.16035667e-13 3.04718717e-19 3.24937096e-20 1.15012250e-11
2.51188643e-01 1.08651004e-11 1.07335677e-11 1.31528886e-13 3.79979392e-18 5.12281740e-19 1.07335677e-11
2.88403150e-01 1.01377832e-11 1.00171482e-11 1.20603093e-13 3.18653248e-17 4.18422370e-18 1.00171482e-11
3.31131121e-01 9.45782109e-12 9.34854667e-12 1.09091171e-13 1.83246451e-16 2.28858489e-17 9.34854667e-12
3.80189396e-01 8.82174336e-12 8.72457139e-12 9.64051526e-14 7.66823769e-16 9.23318447e-17 8.72457139e-12
4.36515832e-01 8.23286898e-12 8.14224377e-12 8.81832774e-14 2.44193466e-15 2.92235905e-16 8.14224377e-12
5.01187234e-01 7.68580549e-12 7.59878402e-12 8.08777293e-14 6.14374110e-15 7.38612490e-16 7.59878402e-12
5.75439937e-01 7.17971288e-12 7.09159786e-12 7.53491252e-14 1.27658883e-14 1.54078471e-15 7.09159786e-12
6.60693448e-01 6.71348857e-12 6.61826421e-12 7.22829529e-14 2.29414063e-14 2.85442388e-15 6.61826421e-12
7.58577575e-01 6.27697936e-12 6.17652353e-12 6.27375802e-14 3.77182444e-14 4.82594749e-15 6.17652353e-12
8.70963590e-01 5.87987084e-12 5.76426715e-12 5.60828275e-14 5.95208618e-14 7.85281665e-15 5.76426715e-12
1.00000000e+00 5.52084975e-12 5.37952711e-12 4.78765500e-14 9.34460880e-14 1.22961210e-14 5.37952711e-12
1.14815362e+00 5.21181439e-12 5.02046681e-12 3.96657371e-14 1.51681836e-13 1.92168264e-14 5.02046681e-12
1.31825674e+00 4.96892447e-12 4.68537225e-12 3.25830989e-14 2.50969129e-13 2.83509498e-14 4.68537225e-12
1.51356125e+00 4.80378522e-12 4.37264380e-12 2.48399145e-14 4.06301510e-13 3.95230542e-14 4.37264380e-12
1.73780083e+00 4.71373219e-12 4.08078863e-12 1.86328856e-14 6.14310677e-13 4.91829836e-14 4.08078863e-12
1.99526231e+00 4.67393997e-12 3.80841354e-12 1.32738661e-14 8.52252566e-13 5.42983572e-14 3.80841354e-12
2.29086765e+00 4.64172772e-12 3.55421832e-12 9.26263106e-15 1.07824678e-12 5.33968145e-14 3.55421832e-12
2.63026799e+00 4.58209255e-12 3.31698953e-12 6.61932196e-15 1.25848370e-12 4.86058400e-14 3.31698953e-12
3.01995172e+00 4.47169452e-12 3.09559474e-12 4.65525057e-15 1.37144453e-12 4.17451102e-14 3.09559474e-12
3.46736850e+00 4.31041244e-12 2.88897711e-12 3.19791775e-15 1.41823742e-12 3.43957043e-14 2.88897711e-12
3.98107171e+00 4.10073947e-12 2.69615031e-12 2.21657314e-15 1.40237258e-12 2.64579241e-14 2.69615031e-12
4.57088190e+00 3.86245319e-12 2.51619387e-12 1.49121644e-15 1.34476810e-12 1.92371105e-14 2.51619387e-12
5.24807460e+00 3.35154735e-12 2.08050667e-12 8.58622946e-16 1.27018206e-12 1.30363593e-14 2.08050667e-12
6.02559586e+00 2.56456886e-12 1.37457712e-12 3.82254617e-16 1.18960948e-12 8.47985653e-15 1.37457712e-12
6.70000000e+00 2.12275007e-12 9.99872685e-13 1.95048288e-16 1.12268233e-12 5.71428713e-15 9.99872685e-13
6.92422916e+00 2.00433460e-12 9.05846924e-13 1.62274870e-16 1.09832540e-12 4.99900292e-15 9.05846924e-13
7.15596261e+00 1.90420277e-12 8.20663132e-13 1.26181350e-16 1.08341346e-12 4.37307535e-15 8.20663132e-13
7.39545150e+00 1.83408959e-12 7.43489831e-13 9.54192649e-17 1.09050434e-12 3.73155305e-15 7.43489831e-13
7.64295536e+00 1.83133067e-12 6.73573732e-13 6.65161190e-17 1.15769042e-12 3.09396141e-15 6.73573732e-13
7.89874245e+00 1.93076974e-12 6.10232385e-13 4.09284689e-17 1.32049643e-12 2.43031199e-15 6.10232385e-13
8.16308998e+00 2.09969243e-12 5.52847515e-13 2.36685472e-17 1.54682125e-12 1.87373370e-15 5.52847515e-13
8.43628443e+00 2.36046232e-12 5.00858987e-13 1.29218716e-17 1.85959041e-12 1.40780502e-15 5.00858987e-13
8.71862190e+00 2.52172078e-12 4.53759343e-13 8.41494729e-18 2.06795302e-12 1.10772038e-15 4.53759343e-13
9.01040836e+00 2.69406572e-12 4.11088843e-13 5.62788427e-18 2.28297125e-12 8.41459463e-16 4.11088843e-13
9.31196005e+00 2.81828591e-12 3.72430980e-13 0.00000000e+00 2.44585493e-12 0.00000000e+00 3.72430980e-13
9.62360379e+00 2.75586848e-12 3.37408415e-13 0.00000000e+00 2.41846007e-12 0.00000000e+00 3.37408415e-13
9.94567731e+00 2.57069678e-12 3.05679292e-13 0.00000000e+00 2.26501749e-12 0.00000000e+00 3.05679292e-13
1.02785297e+01 2.36122606e-12 2.76933904e-13 0.00000000e+00 2.08429215e-12 0.00000000e+00 2.76933904e-13
1.06225216e+01 2.14942741e-12 2.50891667e-13 0.00000000e+00 1.89853574e-12 0.00000000e+00 2.50891667e-13
1.09780260e+01 1.93822377e-12 2.27298384e-13 0.00000000e+00 1.71092538e-12 0.00000000e+00 2.27298384e-13
1.13454280e+01 1.75192264e-12 2.05923759e-13 0.00000000e+00 1.54599888e-12 0.00000000e+00 2.05923759e-13
1.17251259e+01 1.59577663e-12 1.86559155e-13 0.00000000e+00 1.40921748e-12 0.00000000e+00 1.86559155e-13
1.21175312e+01 1.45315814e-12 1.69015555e-13 0.00000000e+00 1.28414258e-12 0.00000000e+00 1.69015555e-13
1.25230691e+01 1.33018777e-12 1.53121715e-13 0.00000000e+00 1.17706606e-12 0.00000000e+00 1.53121715e-13
1.29421791e+01 1.21660399e-12 1.38722496e-13 0.00000000e+00 1.07788150e-12 0.00000000e+00 1.38722496e-13
1.33753155e+01 1.12495231e-12 1.25677347e-13 0.00000000e+00 9.99274964e-13 0.00000000e+00 1.25677347e-13
1.38229477e+01 1.05679246e-12 1.13858934e-13 0.00000000e+00 9.42933527e-13 0.00000000e+00 1.13858934e-13
1.42855609e+01 1.01266691e-12 1.03151898e-13 0.00000000e+00 9.09515010e-13 0.00000000e+00 1.03151898e-13
1.47636563e+01 1.01055116e-12 9.34517274e-14 0.00000000e+00 9.17099429e-13 0.00000000e+00 9.34517274e-14
1.52577522e+01 1.02151470e-12 8.46637387e-14 0.00000000e+00 9.36850964e-13 0.00000000e+00 8.46637387e-14
1.57683840e+01 1.03655480e-12 7.67021526e-14 0.00000000e+00 9.59852644e-13 0.00000000e+00 7.67021526e-14
1.62961051e+01 1.05433318e-12 6.94892560e-14 0.00000000e+00 9.84843924e-13 0.00000000e+00 6.94892560e-14
1.68414875e+01 1.06733460e-12 6.29546439e-14 0.00000000e+00 1.00437995e-12 0.00000000e+00 6.29546439e-14
1.74051222e+01 1.07166713e-12 5.70345319e-14 0.00000000e+00 1.01463260e-12 0.00000000e+00 5.70345319e-14
1.79876201e+01 1.06922511e-12 5.16711337e-14 0.00000000e+00 1.01755398e-12 0.00000000e+00 5.16711337e-14
1.85896125e+01 1.04804842e-12 4.68120974e-14 0.00000000e+00 1.00123632e-12 0.00000000e+00 4.68120974e-14
1.92117518e+01 1.01866498e-12 4.24099939e-14 0.00000000e+00 9.76254988e-13 0.00000000e+00 4.24099939e-14
1.98547123e+01 9.79482960e-13 3.84218542e-14 0.00000000e+00 9.41061106e-13 0.00000000e+00 3.84218542e-14
2.05191907e+01 9.40354617e-13 3.48087501e-14 0.00000000e+00 9.05545867e-13 0.00000000e+00 3.48087501e-14
2.12059073e+01 8.99186313e-13 3.15354141e-14 0.00000000e+00 8.67650899e-13 0.00000000e+00 3.15354141e-14
2.19156062e+01 8.60877191e-13 2.85698952e-14 0.00000000e+00 8.32307296e-13 0.00000000e+00 2.85698952e-14
2.26490567e+01 8.27463100e-13 2.58832470e-14 0.00000000e+00 8.01579853e-13 0.00000000e+00 2.58832470e-14
2.34070535e+01 7.93992592e-13 2.34492452e-14 0.00000000e+00 7.70543347e-13 0.00000000e+00 2.34492452e-14
2.41904183e+01 7.63448589e-13 2.12441313e-14 0.00000000e+00 7.42204458e-13 0.00000000e+00 2.12441313e-14
2.50000000e+01 7.31741030e-13 1.92463813e-14 0.00000000e+00 7.12494649e-13 0.00000000e+00 1.92463813e-14
2.75422870e+01 6.41462009e-13 1.43935895e-14 0.00000000e+00 6.27068419e-13 0.00000000e+00 1.43935895e-14
3.16227766e+01 5.17389947e-13 9.50975027e-15 0.00000000e+00 5.07880197e-13 0.00000000e+00 9.50975027e-15
3.63078055e+01 3.96218115e-13 6.28302969e-15 0.00000000e+00 3.89935085e-13 0.00000000e+00 6.28302969e-15
4.16869383e+01 2.84463793e-13 4.15115655e-15 0.00000000e+00 2.80312636e-13 0.00000000e+00 4.15115655e-15
4.78630092e+01 1.91057801e-13 2.74264194e-15 0.00000000e+00 1.88315159e-13 0.00000000e+00 2.74264194e-15
5.49540874e+01 1.21586179e-13 1.81204556e-15 0.00000000e+00 1.19774133e-13 0.00000000e+00 1.81204556e-15
6.30957344e+01 7.40285858e-14 1.19720663e-15 0.00000000e+00 7.28313791e-14 0.00000000e+00 1.19720663e-15
7.24435960e+01 4.35281478e-14 7.90986575e-16 0.00000000e+00 4.27371612e-14 0.00000000e+00 7.90986575e-16
8.31763771e+01 2.49437767e-14 5.22599647e-16 0.00000000e+00 2.44211771e-14 0.00000000e+00 5.22599647e-16
9.54992586e+01 1.40219966e-14 3.45278163e-16 0.00000000e+00 1.36767184e-14 0.00000000e+00 3.45278163e-16
1.09647820e+02 7.77996987e-15 2.28123020e-16 0.00000000e+00 7.55184685e-15 0.00000000e+00 2.28123020e-16
1.25892541e+02 4.32051950e-15 1.50719385e-16 0.00000000e+00 4.16980011e-15 0.00000000e+00 1.50719385e-16
1.44543977e+02 2.38923201e-15 9.95793099e-17 0.00000000e+00 2.28965270e-15 0.00000000e+00 9.95793099e-17
1.65958691e+02 1.26345604e-15 6.57913976e-17 0.00000000e+00 1.19766465e-15 0.00000000e+00 6.57913976e-17
1.90546072e+02 6.70413974e-16 4.34679453e-17 0.00000000e+00 6.26946029e-16 0.00000000e+00 4.34679453e-17
2.18776162e+02 3.56408055e-16 2.87189867e-17 0.00000000e+00 3.27689068e-16 0.00000000e+00 2.87189867e-17
2.51188643e+02 1.89656717e-16 1.89744463e-17 0.00000000e+00 1.70682271e-16 0.00000000e+00 1.89744463e-17
2.88403150e+02 1.01017337e-16 1.25362924e-17 0.00000000e+00 8.84810445e-17 0.00000000e+00 1.25362924e-17
3.31131121e+02 5.40192963e-17 8.28264623e-18 0.00000000e+00 4.57366501e-17 0.00000000e+00 8.28264623e-18
3.80189396e+02 2.90218600e-17 5.47229010e-18 0.00000000e+00 2.35495699e-17 0.00000000e+00 5.47229010e-18
4.36515832e+02 1.57089879e-17 3.61550621e-18 0.00000000e+00 1.20934816e-17 0.00000000e+00 3.61550621e-18
5.01187234e+02 8.58168346e-18 2.38874127e-18 0.00000000e+00 6.19294219e-18 0.00000000e+00 2.38874127e-18
5.75439937e+02 4.74211118e-18 1.57822570e-18 0.00000000e+00 3.16388548e-18 0.00000000e+00 1.57822570e-18
6.60693448e+02 2.65583943e-18 1.04272338e-18 0.00000000e+00 1.61311605e-18 0.00000000e+00 1.04272338e-18
7.58577575e+02 1.50990204e-18 6.88920507e-19 0.00000000e+00 8.20981538e-19 0.00000000e+00 6.88920507e-19
8.70963590e+02 8.72250279e-19 4.55165265e-19 0.00000000e+00 4.17085015e-19 0.00000000e+00 4.55165265e-19
1.00000000e+03 2.11532305e-19 0.00000000e+00 0.00000000e+00 2.11532305e-19 0.00000000e+00 0.00000000e+00
