# column 1: lambda (micron)
# column 2: total flux; lambda*F_lambda (W/m2)
# column 3: direct stellar flux; lambda*F_lambda (W/m2)
# column 4: scattered stellar flux; lambda*F_lambda (W/m2)
# column 5: total dust emission flux; lambda*F_lambda (W/m2)
# column 6: dust emission scattered flux; lambda*F_lambda (W/m2)
# column 7: transparent flux; lambda*F_lambda (W/m2)
1.00000000e-03 9.68082219e-13 9.68073281e-13 8.93819059e-18 0.00000000e+00 0.00000000e+00 9.68073281e-13
1.14815362e-03 1.14265060e-12 1.14263687e-12 1.37329951e-17 0.00000000e+00 0.00000000e+00 1.14263687e-12
1.31825674e-03 1.34869901e-12 1.34867788e-12 2.11298065e-17 0.00000000e+00 0.00000000e+00 1.34867788e-12
1.51356125e-03 1.59190516e-12 1.59187233e-12 3.28313319e-17 0.00000000e+00 0.00000000e+00 1.59187233e-12
1.73780083e-03 1.87897873e-12 1.87891976e-12 5.89736798e-17 0.00000000e+00 0.00000000e+00 1.87891976e-12
1.99526231e-03 2.21784010e-12 2.21772777e-12 1.12339712e-16 0.00000000e+00 0.00000000e+00 2.21772777e-12
2.29086765e-03 2.61779379e-12 2.61762985e-12 1.63944335e-16 0.00000000e+00 0.00000000e+00 2.61762985e-12
2.63026799e-03 3.08998875e-12 3.08964252e-12 3.46227987e-16 0.00000000e+00 0.00000000e+00 3.08964252e-12
3.01995172e-03 3.64736514e-12 3.64676883e-12 5.96316730e-16 0.00000000e+00 0.00000000e+00 3.64676883e-12
3.46736850e-03 4.30534047e-12 4.30435650e-12 9.83969403e-16 0.00000000e+00 0.00000000e+00 4.30435650e-12
3.98107171e-03 5.08234016e-12 5.08052080e-12 1.81935815e-15 0.00000000e+00 0.00000000e+00 5.08052080e-12
4.57088190e-03 6.00017557e-12 5.99664354e-12 3.53203359e-15 0.00000000e+00 0.00000000e+00 5.99664354e-12
5.24807460e-03 7.08422621e-12 7.07796211e-12 6.26409554e-15 0.00000000e+00 0.00000000e+00 7.07796211e-12
6.02559586e-03 8.36587841e-12 8.35426474e-12 1.16136682e-14 0.00000000e+00 0.00000000e+00 8.35426474e-12
6.91830971e-03 9.88649042e-12 9.86071107e-12 2.57793440e-14 0.00000000e+00 0.00000000e+00 9.86071107e-12
7.94328235e-03 1.16702950e-11 1.16388008e-11 3.14941966e-14 0.00000000e+00 0.00000000e+00 1.16388008e-11
9.12010839e-03 1.37884170e-11 1.37375167e-11 5.09003223e-14 0.00000000e+00 0.00000000e+00 1.37375167e-11
1.04712855e-02 1.54248368e-11 1.53429287e-11 8.19081100e-14 0.00000000e+00 0.00000000e+00 1.53429287e-11
1.20226443e-02 1.54763420e-11 1.53429287e-11 1.33413369e-13 7.62861463e-310 5.11493511e-311 1.53429287e-11
1.38038426e-02 1.55077852e-11 1.53429287e-11 1.64856493e-13 9.18634940e-271 6.67376718e-272 1.53429287e-11
1.58489319e-02 1.55640486e-11 1.53429287e-11 2.21119910e-13 9.85254273e-237 1.09220913e-237 1.53429287e-11
1.81970086e-02 1.56530663e-11 1.53429287e-11 3.10137642e-13 3.89335817e-207 4.15331568e-208 1.53429287e-11
2.08929613e-02 1.57770114e-11 1.53429287e-11 4.34082750e-13 2.12694609e-181 2.58232635e-182 1.53429287e-11
2.39883292e-02 1.58882368e-11 1.53429287e-11 5.45308129e-13 5.29016632e-159 6.75062723e-160 1.53429287e-11
2.75422870e-02 1.59890840e-11 1.53429287e-11 6.46155288e-13 1.64428985e-139 2.37281871e-140 1.53429287e-11
3.16227766e-02 1.61095785e-11 1.53429287e-11 7.66649825e-13 1.44164819e-122 2.16777993e-123 1.53429287e-11
3.63078055e-02 1.61422271e-11 1.53429287e-11 7.99298411e-13 7.62675004e-108 1.14858862e-108 1.53429287e-11
4.16869383e-02 1.63144182e-11 1.53429287e-11 9.71489562e-13 4.83522836e-95 8.18503751e-96 1.53429287e-11
4.78630092e-02 1.63429554e-11 1.53429287e-11 1.00002672e-12 6.18271197e-84 1.09583480e-84 1.53429287e-11
5.49540874e-02 1.63304047e-11 1.53429287e-11 9.87475989e-13 2.68196336e-74 4.99030148e-75 1.53429287e-11
6.30957344e-02 1.62184700e-11 1.53429287e-11 8.75541301e-13 7.80731578e-66 1.51641791e-66 1.53429287e-11
7.24435960e-02 1.60574149e-11 1.53429287e-11 7.14486209e-13 1.64820158e-58 3.00610563e-59 1.53429287e-11
8.31763771e-02 1.60213329e-11 1.53429287e-11 6.78404212e-13 3.30337974e-52 5.72990219e-53 1.53429287e-11
9.54992586e-02 1.60425500e-11 1.53429287e-11 6.99621326e-13 1.06815508e-46 1.89472053e-47 1.53429287e-11
1.09647820e-01 1.54261637e-11 1.46523889e-11 7.73774845e-13 7.41621307e-42 1.45302072e-42 1.46523889e-11
1.25892541e-01 1.44868424e-11 1.36744049e-11 8.12437424e-13 1.42363473e-37 2.91602325e-38 1.36744049e-11
1.44543977e-01 1.35523358e-11 1.27616972e-11 7.90638607e-13 8.11152263e-34 1.69047078e-34 1.27616972e-11
1.65958691e-01 1.27003400e-11 1.19099088e-11 7.90431175e-13 1.19990720e-30 2.74977098e-31 1.19099088e-11
1.90546072e-01 1.19124141e-11 1.11149736e-11 7.97440484e-13 5.00426079e-28 1.34472502e-28 1.11149736e-11
2.18776162e-01 1.10452053e-11 1.03730969e-11 6.72108346e-13 8.15013610e-26 2.29822911e-26 1.03730969e-11
2.51188643e-01 1.04464152e-11 9.68073733e-12 7.65677875e-13 1.20867343e-23 4.08118348e-24 9.68073733e-12
2.88403150e-01 9.77005326e-12 9.03458975e-12 7.35463509e-13 9.24510588e-22 3.21238557e-22 9.03458975e-12
3.31131121e-01 9.11491385e-12 8.43156974e-12 6.83344073e-13 3.85088297e-20 1.35072334e-20 8.43156974e-12
3.80189396e-01 8.51075296e-12 7.86879872e-12 6.41953267e-13 9.65328541e-19 3.43021891e-19 7.86879872e-12
4.36515832e-01 7.93799930e-12 7.34359025e-12 5.94393569e-13 1.54770774e-17 5.58111698e-18 7.34359025e-12
5.01187234e-01 7.38968761e-12 6.85343719e-12 5.36086129e-13 1.64291038e-16 5.87120914e-17 6.85343719e-12
5.75439937e-01 6.87668142e-12 6.39599973e-12 4.79467970e-13 1.21372456e-15 4.23496576e-16 6.39599973e-12
6.60693448e-01 6.40164507e-12 5.96909425e-12 4.25940868e-13 6.60995250e-15 2.25417260e-15 5.96909425e-12
7.58577575e-01 5.96967090e-12 5.57068288e-12 3.71476592e-13 2.75114234e-14 9.00617822e-15 5.57068288e-12
8.70963590e-01 5.60689891e-12 5.19886376e-12 3.15576602e-13 9.24585513e-14 2.85268431e-14 5.19886376e-12
1.00000000e+00 5.37177597e-12 4.85186196e-12 2.66150719e-13 2.53763289e-13 7.21022555e-14 4.85186196e-12
1.14815362e+00 5.34984090e-12 4.52802104e-12 2.13121417e-13 6.08698438e-13 1.56544343e-13 4.52802104e-12
1.31825674e+00 5.66666236e-12 4.22579511e-12 1.65534221e-13 1.27533302e-12 2.83408317e-13 4.22579511e-12
1.51356125e+00 6.43465374e-12 3.94374146e-12 1.26549332e-13 2.36436294e-12 4.49037131e-13 3.94374146e-12
1.73780083e+00 7.69001315e-12 3.68051368e-12 9.76586481e-14 3.91184082e-12 6.23101225e-13 3.68051368e-12
1.99526231e+00 9.25975462e-12 3.43485522e-12 7.24881521e-14 5.75241124e-12 7.40240368e-13 3.43485522e-12
2.29086765e+00 1.09708019e-11 3.20559341e-12 5.32770962e-14 7.71193142e-12 7.75076253e-13 3.20559341e-12
2.63026799e+00 1.25126160e-11 2.99163384e-12 3.84258545e-14 9.48255634e-12 7.32028347e-13 2.99163384e-12
3.01995172e+00 1.36960407e-11 2.79195514e-12 2.76822622e-14 1.08764033e-11 6.44452063e-13 2.79195514e-12
3.46736850e+00 1.43959807e-11 2.60560415e-12 1.95695114e-14 1.17708071e-11 5.22170710e-13 2.60560415e-12
3.98107171e+00 1.47378163e-11 2.43169128e-12 1.36219191e-14 1.22925031e-11 4.00031888e-13 2.43169128e-12
4.57088190e+00 1.45451008e-11 2.26938634e-12 9.13313588e-15 1.22665813e-11 2.84315739e-13 2.26938634e-12
5.24807460e+00 1.39203031e-11 1.87643467e-12 5.27579494e-15 1.20385926e-11 1.91194153e-13 1.87643467e-12
6.02559586e+00 1.29018690e-11 1.23974809e-12 2.32965810e-15 1.16597913e-11 1.21586168e-13 1.23974809e-12
6.70000000e+00 1.21833065e-11 9.01797527e-13 1.19619017e-15 1.12803128e-11 8.26029374e-14 9.01797527e-13
6.92422916e+00 1.19579752e-11 8.16994532e-13 9.68224818e-16 1.11400124e-11 7.22971076e-14 8.16994532e-13
7.15596261e+00 1.17891243e-11 7.40166218e-13 7.71318196e-16 1.10481868e-11 6.30614983e-14 7.40166218e-13
7.39545150e+00 1.17949251e-11 6.70562664e-13 5.82868161e-16 1.11237796e-11 5.37556513e-14 6.70562664e-13
7.64295536e+00 1.21885150e-11 6.07504471e-13 4.04027791e-16 1.15806065e-11 4.42339819e-14 6.07504471e-13
7.89874245e+00 1.30994950e-11 5.50376127e-13 2.46456272e-16 1.25488725e-11 3.41160321e-14 5.50376127e-13
8.16308998e+00 1.43471853e-11 4.98620004e-13 1.41285267e-16 1.38484240e-11 2.57020073e-14 4.98620004e-13
8.43628443e+00 1.57651233e-11 4.51730909e-13 7.61930131e-17 1.53133162e-11 1.87248534e-14 4.51730909e-13
8.71862190e+00 1.66375045e-11 4.09251158e-13 4.70841129e-17 1.62282063e-11 1.44959312e-14 4.09251158e-13
9.01040836e+00 1.75211583e-11 3.70766106e-13 2.86319791e-17 1.71503636e-11 1.11740640e-14 3.70766106e-13
9.31196005e+00 1.79734170e-11 3.35900102e-13 0.00000000e+00 1.76375169e-11 0.00000000e+00 3.35900102e-13
9.62360379e+00 1.77178757e-11 3.04312818e-13 0.00000000e+00 1.74135628e-11 0.00000000e+00 3.04312818e-13
9.94567731e+00 1.69892010e-11 2.75695930e-13 0.00000000e+00 1.67135051e-11 0.00000000e+00 2.75695930e-13
1.02785297e+01 1.62697568e-11 2.49770110e-13 0.00000000e+00 1.60199867e-11 0.00000000e+00 2.49770110e-13
1.06225216e+01 1.55977199e-11 2.26282295e-13 0.00000000e+00 1.53714376e-11 0.00000000e+00 2.26282295e-13
1.09780260e+01 1.48155824e-11 2.05003220e-13 0.00000000e+00 1.46105792e-11 0.00000000e+00 2.05003220e-13
1.13454280e+01 1.41619978e-11 1.85725182e-13 0.00000000e+00 1.39762726e-11 0.00000000e+00 1.85725182e-13
1.17251259e+01 1.35555888e-11 1.68260007e-13 0.00000000e+00 1.33873288e-11 0.00000000e+00 1.68260007e-13
1.21175312e+01 1.30813877e-11 1.52437217e-13 0.00000000e+00 1.29289505e-11 0.00000000e+00 1.52437217e-13
1.25230691e+01 1.26325347e-11 1.38102367e-13 0.00000000e+00 1.24944323e-11 0.00000000e+00 1.38102367e-13
1.29421791e+01 1.22269403e-11 1.25115533e-13 0.00000000e+00 1.21018247e-11 0.00000000e+00 1.25115533e-13
1.33753155e+01 1.19372087e-11 1.13349952e-13 0.00000000e+00 1.18238587e-11 0.00000000e+00 1.13349952e-13
1.38229477e+01 1.17029678e-11 1.02690779e-13 0.00000000e+00 1.16002770e-11 0.00000000e+00 1.02690779e-13
1.42855609e+01 1.17005393e-11 9.30339713e-14 0.00000000e+00 1.16075053e-11 0.00000000e+00 9.30339713e-14
1.47636563e+01 1.19670805e-11 8.42852675e-14 0.00000000e+00 1.18827952e-11 0.00000000e+00 8.42852675e-14
1.52577522e+01 1.22986638e-11 7.63592720e-14 0.00000000e+00 1.22223045e-11 0.00000000e+00 7.63592720e-14
1.57683840e+01 1.26332361e-11 6.91786191e-14 0.00000000e+00 1.25640574e-11 0.00000000e+00 6.91786191e-14
1.62961051e+01 1.30586778e-11 6.26732185e-14 0.00000000e+00 1.29960046e-11 0.00000000e+00 6.26732185e-14
1.68414875e+01 1.33882435e-11 5.67795711e-14 0.00000000e+00 1.33314639e-11 0.00000000e+00 5.67795711e-14
1.74051222e+01 1.36972892e-11 5.14401489e-14 0.00000000e+00 1.36458491e-11 0.00000000e+00 5.14401489e-14
1.79876201e+01 1.38733732e-11 4.66028339e-14 0.00000000e+00 1.38267704e-11 0.00000000e+00 4.66028339e-14
1.85896125e+01 1.40222484e-11 4.22204090e-14 0.00000000e+00 1.39800280e-11 0.00000000e+00 4.22204090e-14
1.92117518e+01 1.41248445e-11 3.82500974e-14 0.00000000e+00 1.40865944e-11 0.00000000e+00 3.82500974e-14
1.98547123e+01 1.40844074e-11 3.46531450e-14 0.00000000e+00 1.40497542e-11 0.00000000e+00 3.46531450e-14
2.05191907e+01 1.39761870e-11 3.13944418e-14 0.00000000e+00 1.39447926e-11 0.00000000e+00 3.13944418e-14
2.12059073e+01 1.38555071e-11 2.84421796e-14 0.00000000e+00 1.38270649e-11 0.00000000e+00 2.84421796e-14
2.19156062e+01 1.36972104e-11 2.57675415e-14 0.00000000e+00 1.36714428e-11 0.00000000e+00 2.57675415e-14
2.26490567e+01 1.35194302e-11 2.33444203e-14 0.00000000e+00 1.34960858e-11 0.00000000e+00 2.33444203e-14
2.34070535e+01 1.33681639e-11 2.11491639e-14 0.00000000e+00 1.33470148e-11 0.00000000e+00 2.11491639e-14
2.41904183e+01 1.31487530e-11 1.91603445e-14 0.00000000e+00 1.31295926e-11 0.00000000e+00 1.91603445e-14
2.50000000e+01 1.29372763e-11 1.73585491e-14 0.00000000e+00 1.29199178e-11 0.00000000e+00 1.73585491e-14
2.75422870e+01 1.20382395e-11 1.29817562e-14 0.00000000e+00 1.20252578e-11 0.00000000e+00 1.29817562e-14
3.16227766e+01 1.03237209e-11 8.57696126e-15 0.00000000e+00 1.03151439e-11 0.00000000e+00 8.57696126e-15
3.63078055e+01 8.31416674e-12 5.66674211e-15 0.00000000e+00 8.30849999e-12 0.00000000e+00 5.66674211e-15
4.16869383e+01 6.21432948e-12 3.74397938e-15 0.00000000e+00 6.21058550e-12 0.00000000e+00 3.74397938e-15
4.78630092e+01 4.30706379e-12 2.47362265e-15 0.00000000e+00 4.30459017e-12 0.00000000e+00 2.47362265e-15
5.49540874e+01 2.80636873e-12 1.63430628e-15 0.00000000e+00 2.80473442e-12 0.00000000e+00 1.63430628e-15
6.30957344e+01 1.73559657e-12 1.07977545e-15 0.00000000e+00 1.73451679e-12 0.00000000e+00 1.07977545e-15
7.24435960e+01 1.03010843e-12 7.13400564e-16 0.00000000e+00 1.02939503e-12 0.00000000e+00 7.13400564e-16
8.31763771e+01 5.92389435e-13 4.71339078e-16 0.00000000e+00 5.91918095e-13 0.00000000e+00 4.71339078e-16
9.54992586e+01 3.33241896e-13 3.11410641e-16 0.00000000e+00 3.32930485e-13 0.00000000e+00 3.11410641e-16
1.09647820e+02 1.84210286e-13 2.05746970e-16 0.00000000e+00 1.84004539e-13 0.00000000e+00 2.05746970e-16
1.25892541e+02 1.01638018e-13 1.35935675e-16 0.00000000e+00 1.01502082e-13 0.00000000e+00 1.35935675e-16
1.44543977e+02 5.57429673e-14 8.98118099e-17 0.00000000e+00 5.56531555e-14 0.00000000e+00 8.98118099e-17
1.65958691e+02 2.91363829e-14 5.93380743e-17 0.00000000e+00 2.90770448e-14 0.00000000e+00 5.93380743e-17
1.90546072e+02 1.52345510e-14 3.92042769e-17 0.00000000e+00 1.51953468e-14 0.00000000e+00 3.92042769e-17
2.18776162e+02 7.95439191e-15 2.59020089e-17 0.00000000e+00 7.92848990e-15 0.00000000e+00 2.59020089e-17
2.51188643e+02 4.13838202e-15 1.71132876e-17 0.00000000e+00 4.12126873e-15 0.00000000e+00 1.71132876e-17
2.88403150e+02 2.14371845e-15 1.13066370e-17 0.00000000e+00 2.13241182e-15 0.00000000e+00 1.13066370e-17
3.31131121e+02 1.10779522e-15 7.47022097e-18 0.00000000e+00 1.10032499e-15 0.00000000e+00 7.47022097e-18
3.80189396e+02 5.70547568e-16 4.93552605e-18 0.00000000e+00 5.65612042e-16 0.00000000e+00 4.93552605e-18
4.36515832e+02 2.93284764e-16 3.26086972e-18 0.00000000e+00 2.90023894e-16 0.00000000e+00 3.26086972e-18
5.01187234e+02 1.50464834e-16 2.15443526e-18 0.00000000e+00 1.48310398e-16 0.00000000e+00 2.15443526e-18
5.75439937e+02 7.70998828e-17 1.42342126e-18 0.00000000e+00 7.56764616e-17 0.00000000e+00 1.42342126e-18
6.60693448e+02 3.94808642e-17 9.40445101e-19 0.00000000e+00 3.85404191e-17 0.00000000e+00 9.40445101e-19
7.58577575e+02 2.02168163e-17 6.21345916e-19 0.00000000e+00 1.95954704e-17 0.00000000e+00 6.21345916e-19
8.70963590e+02 1.03567248e-17 4.10519176e-19 0.00000000e+00 9.94620563e-18 0.00000000e+00 4.10519176e-19
1.00000000e+03 5.04046147e-18 0.00000000e+00 0.00000000e+00 5.04046147e-18 0.00000000e+00 0.00000000e+00
