# column 1: lambda (micron)
# column 2: total flux; lambda*F_lambda (W/m2)
# column 3: direct stellar flux; lambda*F_lambda (W/m2)
# column 4: scattered stellar flux; lambda*F_lambda (W/m2)
# column 5: total dust emission flux; lambda*F_lambda (W/m2)
# column 6: dust emission scattered flux; lambda*F_lambda (W/m2)
# column 7: transparent flux; lambda*F_lambda (W/m2)
1.00000000e-03 5.25637402e-13 5.25636674e-13 7.28209592e-19 0.00000000e+00 0.00000000e+00 5.25636674e-13
1.14815362e-03 6.20420830e-13 6.20419813e-13 1.01682061e-18 0.00000000e+00 0.00000000e+00 6.20419813e-13
1.31825674e-03 7.32296096e-13 7.32294308e-13 1.78787463e-18 0.00000000e+00 0.00000000e+00 7.32294308e-13
1.51356125e-03 8.64344879e-13 8.64342083e-13 2.79568605e-18 0.00000000e+00 0.00000000e+00 8.64342083e-13
1.73780083e-03 1.02020539e-12 1.02020080e-12 4.59591553e-18 0.00000000e+00 0.00000000e+00 1.02020080e-12
1.99526231e-03 1.20417292e-12 1.20416405e-12 8.87092119e-18 0.00000000e+00 0.00000000e+00 1.20416405e-12
2.29086765e-03 1.42131297e-12 1.42129968e-12 1.32873424e-17 0.00000000e+00 0.00000000e+00 1.42129968e-12
2.63026799e-03 1.67761678e-12 1.67758934e-12 2.74336364e-17 0.00000000e+00 0.00000000e+00 1.67758934e-12
3.01995172e-03 1.98014033e-12 1.98009332e-12 4.70127192e-17 0.00000000e+00 0.00000000e+00 1.98009332e-12
3.46736850e-03 2.33722504e-12 2.33714500e-12 8.00360058e-17 0.00000000e+00 0.00000000e+00 2.33714500e-12
3.98107171e-03 2.75869846e-12 2.75858048e-12 1.17981249e-16 0.00000000e+00 0.00000000e+00 2.75858048e-12
4.57088190e-03 3.25629833e-12 3.25600946e-12 2.88868340e-16 0.00000000e+00 0.00000000e+00 3.25600946e-12
5.24807460e-03 3.84361558e-12 3.84313516e-12 4.80418555e-16 0.00000000e+00 0.00000000e+00 3.84313516e-12
6.02559586e-03 4.53706035e-12 4.53613173e-12 9.28615170e-16 0.00000000e+00 0.00000000e+00 4.53613173e-12
6.91830971e-03 5.35539042e-12 5.35408989e-12 1.30052808e-15 0.00000000e+00 0.00000000e+00 5.35408989e-12
7.94328235e-03 6.32168530e-12 6.31954278e-12 2.14252005e-15 4.92190127e-304 5.21049789e-306 6.31954278e-12
9.12010839e-03 7.46276610e-12 7.45908676e-12 3.67933990e-15 3.46454590e-265 6.53351516e-267 7.45908676e-12
1.04712855e-02 8.33757303e-12 8.33078048e-12 6.79255498e-15 2.22229271e-231 6.59705742e-233 8.33078048e-12
1.20226443e-02 8.33858268e-12 8.33078048e-12 7.80220347e-15 4.88289221e-202 7.54970521e-204 8.33078048e-12
1.38038426e-02 8.34458499e-12 8.33078048e-12 1.38045163e-14 1.82177536e-176 4.23276573e-178 8.33078048e-12
1.58489319e-02 8.34673953e-12 8.33078048e-12 1.59590590e-14 3.21920708e-154 7.59162011e-156 8.33078048e-12
1.81970086e-02 8.35378650e-12 8.33078048e-12 2.30060249e-14 7.23761739e-135 1.69943461e-136 8.33078048e-12
2.08929613e-02 8.36072551e-12 8.33078048e-12 2.99450350e-14 4.64691227e-118 1.32275558e-119 8.33078048e-12
2.39883292e-02 8.36854837e-12 8.33078048e-12 3.77678913e-14 1.95014821e-103 6.46205916e-105 8.33078048e-12
2.75422870e-02 8.38004788e-12 8.33078048e-12 4.92674010e-14 1.01948329e-90 3.84050638e-92 8.33078048e-12
3.16227766e-02 8.38998914e-12 8.33078048e-12 5.92086662e-14 1.13630949e-79 4.62561547e-81 8.33078048e-12
3.63078055e-02 8.39038489e-12 8.33078048e-12 5.96044174e-14 4.42660902e-70 1.88968396e-71 8.33078048e-12
4.16869383e-02 8.41495198e-12 8.33078048e-12 8.41715059e-14 9.38111227e-62 5.07827045e-63 8.33078048e-12
4.78630092e-02 8.43566241e-12 8.33078048e-12 1.04881930e-13 1.54572749e-54 9.37470646e-56 8.33078048e-12
5.49540874e-02 8.44528064e-12 8.33078048e-12 1.14500169e-13 2.77611052e-48 1.94774074e-49 8.33078048e-12
6.30957344e-02 8.45850244e-12 8.33078048e-12 1.27721969e-13 9.49378337e-43 7.23129967e-44 8.33078048e-12
7.24435960e-02 8.45670908e-12 8.33078048e-12 1.25928601e-13 5.75576817e-38 4.27388393e-39 8.33078048e-12
8.31763771e-02 8.45329663e-12 8.33078048e-12 1.22516151e-13 6.19852720e-34 4.48846377e-35 8.33078048e-12
9.54992586e-02 8.45904844e-12 8.33078048e-12 1.28267963e-13 1.83295590e-30 1.36318473e-31 8.33078048e-12
1.09647820e-01 8.08172888e-12 7.95583672e-12 1.25892160e-13 1.63356743e-27 1.28196440e-28 7.95583672e-12
1.25892541e-01 7.54271543e-12 7.42481883e-12 1.17896594e-13 5.50985378e-25 4.17936786e-26 7.42481883e-12
1.44543977e-01 7.03357934e-12 6.92924411e-12 1.04335228e-13 7.77896005e-23 5.89380668e-24 6.92924411e-12
1.65958691e-01 6.57431050e-12 6.46674687e-12 1.07563627e-13 4.06750935e-21 3.34011222e-22 6.46674687e-12
1.90546072e-01 6.15037537e-12 6.03511933e-12 1.15255960e-13 8.77305903e-20 8.36090350e-21 6.03511933e-12
2.18776162e-01 5.74268489e-12 5.63230107e-12 1.10382773e-13 1.05170083e-18 1.02321910e-19 5.63230107e-12
2.51188643e-01 5.38074494e-12 5.25636919e-12 1.24362573e-13 1.31689661e-17 1.56488124e-18 5.25636919e-12
2.88403150e-01 5.02008004e-12 4.90552916e-12 1.14439264e-13 1.11623375e-16 1.30204394e-17 4.90552916e-12
3.31131121e-01 4.68147867e-12 4.57810618e-12 1.02721485e-13 6.50997448e-16 7.56036769e-17 4.57810618e-12
3.80189396e-01 4.36724277e-12 4.27253728e-12 9.19548308e-14 2.75065352e-15 3.11942485e-16 4.27253728e-12
4.36515832e-01 4.08292447e-12 3.98736380e-12 8.67495808e-14 8.81109545e-15 1.00513394e-15 3.98736380e-12
5.01187234e-01 3.82245757e-12 3.72122441e-12 7.90021210e-14 2.22310401e-14 2.53553635e-15 3.72122441e-12
5.75439937e-01 3.59277654e-12 3.47284869e-12 7.38088862e-14 4.61189650e-14 5.27592121e-15 3.47284869e-12
6.60693448e-01 3.38870398e-12 3.24105097e-12 6.60922056e-14 8.15608059e-14 9.45013578e-15 3.24105097e-12
7.58577575e-01 3.21237406e-12 3.02472476e-12 5.94122326e-14 1.28237072e-13 1.50169084e-14 3.02472476e-12
8.70963590e-01 3.06006404e-12 2.82283739e-12 5.34723024e-14 1.83754342e-13 2.11940417e-14 2.82283739e-12
1.00000000e+00 2.92817129e-12 2.63442513e-12 4.60587758e-14 2.47687376e-13 2.88577888e-14 2.63442513e-12
1.14815362e+00 2.82245642e-12 2.45858859e-12 3.69192570e-14 3.26948577e-13 3.75451888e-14 2.45858859e-12
1.31825674e+00 2.76078253e-12 2.29448837e-12 2.90901369e-14 4.37204020e-13 4.84099162e-14 2.29448837e-12
1.51356125e+00 2.75355673e-12 2.14134114e-12 2.28850598e-14 5.89330523e-13 5.91868908e-14 2.14134114e-12
1.73780083e+00 2.79945812e-12 1.99841583e-12 1.70944017e-14 7.83947888e-13 6.65955960e-14 1.99841583e-12
1.99526231e+00 2.87882314e-12 1.86503017e-12 1.24468150e-14 1.00134616e-12 6.61643435e-14 1.86503017e-12
2.29086765e+00 2.95357618e-12 1.74054743e-12 8.51779987e-15 1.20451095e-12 6.10075650e-14 1.74054743e-12
2.63026799e+00 2.99070650e-12 1.62437337e-12 6.06687587e-15 1.36026625e-12 5.20620823e-14 1.62437337e-12
3.01995172e+00 2.96317057e-12 1.51595343e-12 4.17630276e-15 1.44304084e-12 4.23815445e-14 1.51595343e-12
3.46736850e+00 2.88531634e-12 1.41477006e-12 2.98564191e-15 1.46756063e-12 3.39231672e-14 1.41477006e-12
3.98107171e+00 2.75764565e-12 1.32034025e-12 2.04290476e-15 1.43526250e-12 2.60570810e-14 1.32034025e-12
4.57088190e+00 2.60084175e-12 1.23221321e-12 1.39032883e-15 1.36723821e-12 1.92429791e-14 1.23221321e-12
5.24807460e+00 2.31021932e-12 1.01885146e-12 8.07487905e-16 1.29056037e-12 1.34852219e-14 1.01885146e-12
6.02559586e+00 1.89267350e-12 6.73148485e-13 3.65151162e-16 1.21915987e-12 8.89831127e-15 6.73148485e-13
6.70000000e+00 1.64707696e-12 4.89650796e-13 1.90513085e-16 1.15723565e-12 6.12524402e-15 4.89650796e-13
6.92422916e+00 1.57573386e-12 4.43605145e-13 1.53651594e-16 1.13197506e-12 5.41005258e-15 4.43605145e-13
7.15596261e+00 1.52429251e-12 4.01889522e-13 1.21444148e-16 1.12228155e-12 4.71673296e-15 4.01889522e-13
7.39545150e+00 1.49271003e-12 3.64096743e-13 9.47551453e-17 1.12851853e-12 4.01894086e-15 3.64096743e-13
7.64295536e+00 1.51679654e-12 3.29857910e-13 6.39317960e-17 1.18687470e-12 3.30767351e-15 3.29857910e-13
7.89874245e+00 1.61957245e-12 2.98838820e-13 3.93748473e-17 1.32069425e-12 2.52515006e-15 2.98838820e-13
8.16308998e+00 1.79385229e-12 2.70736695e-13 2.20968584e-17 1.52309350e-12 1.87828545e-15 2.70736695e-13
8.43628443e+00 2.03878579e-12 2.45277229e-13 1.25294615e-17 1.79349603e-12 1.36600260e-15 2.45277229e-13
8.71862190e+00 2.18705597e-12 2.22211915e-13 7.61422699e-18 1.96483644e-12 1.05462242e-15 2.22211915e-13
9.01040836e+00 2.34337394e-12 2.01315610e-13 4.98368140e-18 2.14205334e-12 8.02718610e-16 2.01315610e-13
9.31196005e+00 2.44596877e-12 1.82384346e-13 0.00000000e+00 2.26358442e-12 0.00000000e+00 1.82384346e-13
9.62360379e+00 2.40750226e-12 1.65233336e-13 0.00000000e+00 2.24226893e-12 0.00000000e+00 1.65233336e-13
9.94567731e+00 2.22938122e-12 1.49695167e-13 0.00000000e+00 2.07968605e-12 0.00000000e+00 1.49695167e-13
1.02785297e+01 2.06142837e-12 1.35618173e-13 0.00000000e+00 1.92581020e-12 0.00000000e+00 1.35618173e-13
1.06225216e+01 1.89221965e-12 1.22864947e-13 0.00000000e+00 1.76935470e-12 0.00000000e+00 1.22864947e-13
1.09780260e+01 1.71554414e-12 1.11311006e-13 0.00000000e+00 1.60423314e-12 0.00000000e+00 1.11311006e-13
1.13454280e+01 1.57628877e-12 1.00843571e-13 0.00000000e+00 1.47544519e-12 0.00000000e+00 1.00843571e-13
1.17251259e+01 1.44714641e-12 9.13604705e-14 0.00000000e+00 1.35578594e-12 0.00000000e+00 9.13604705e-14
1.21175312e+01 1.32070482e-12 8.27691389e-14 0.00000000e+00 1.23793568e-12 0.00000000e+00 8.27691389e-14
1.25230691e+01 1.22115163e-12 7.49857166e-14 0.00000000e+00 1.14616591e-12 0.00000000e+00 7.49857166e-14
1.29421791e+01 1.13278601e-12 6.79342298e-14 0.00000000e+00 1.06485178e-12 0.00000000e+00 6.79342298e-14
1.33753155e+01 1.04913190e-12 6.15458488e-14 0.00000000e+00 9.87586051e-13 0.00000000e+00 6.15458488e-14
1.38229477e+01 9.95233555e-13 5.57582167e-14 0.00000000e+00 9.39475338e-13 0.00000000e+00 5.57582167e-14
1.42855609e+01 9.58977814e-13 5.05148403e-14 0.00000000e+00 9.08462974e-13 0.00000000e+00 5.05148403e-14
1.47636563e+01 9.56698009e-13 4.57645392e-14 0.00000000e+00 9.10933469e-13 0.00000000e+00 4.57645392e-14
1.52577522e+01 9.61734842e-13 4.14609457e-14 0.00000000e+00 9.20273896e-13 0.00000000e+00 4.14609457e-14
1.57683840e+01 9.70720806e-13 3.75620523e-14 0.00000000e+00 9.33158753e-13 0.00000000e+00 3.75620523e-14
1.62961051e+01 9.76668815e-13 3.40298020e-14 0.00000000e+00 9.42639013e-13 0.00000000e+00 3.40298020e-14
1.68414875e+01 9.85548230e-13 3.08297166e-14 0.00000000e+00 9.54718514e-13 0.00000000e+00 3.08297166e-14
1.74051222e+01 9.79313949e-13 2.79305599e-14 0.00000000e+00 9.51383389e-13 0.00000000e+00 2.79305599e-14
1.79876201e+01 9.68547128e-13 2.53040334e-14 0.00000000e+00 9.43243094e-13 0.00000000e+00 2.53040334e-14
1.85896125e+01 9.56276572e-13 2.29244994e-14 0.00000000e+00 9.33352073e-13 0.00000000e+00 2.29244994e-14
1.92117518e+01 9.24239297e-13 2.07687314e-14 0.00000000e+00 9.03470566e-13 0.00000000e+00 2.07687314e-14
1.98547123e+01 8.88671897e-13 1.88156870e-14 0.00000000e+00 8.69856210e-13 0.00000000e+00 1.88156870e-14
2.05191907e+01 8.51398313e-13 1.70463024e-14 0.00000000e+00 8.34352010e-13 0.00000000e+00 1.70463024e-14
2.12059073e+01 8.14135393e-13 1.54433068e-14 0.00000000e+00 7.98692086e-13 0.00000000e+00 1.54433068e-14
2.19156062e+01 7.79304123e-13 1.39910532e-14 0.00000000e+00 7.65313070e-13 0.00000000e+00 1.39910532e-14
2.26490567e+01 7.47100147e-13 1.26753663e-14 0.00000000e+00 7.34424780e-13 0.00000000e+00 1.26753663e-14
2.34070535e+01 7.15456550e-13 1.14834036e-14 0.00000000e+00 7.03973147e-13 0.00000000e+00 1.14834036e-14
2.41904183e+01 6.85718812e-13 1.04035303e-14 0.00000000e+00 6.75315282e-13 0.00000000e+00 1.04035303e-14
2.50000000e+01 6.55758057e-13 9.42520591e-15 0.00000000e+00 6.46332851e-13 0.00000000e+00 9.42520591e-15
2.75422870e+01 5.69461588e-13 7.04872996e-15 0.00000000e+00 5.62412858e-13 0.00000000e+00 7.04872996e-15
3.16227766e+01 4.50501172e-13 4.65704970e-15 0.00000000e+00 4.45844122e-13 0.00000000e+00 4.65704970e-15
3.63078055e+01 3.39608172e-13 3.07688223e-15 0.00000000e+00 3.36531290e-13 0.00000000e+00 3.07688223e-15
4.16869383e+01 2.39206931e-13 2.03287593e-15 0.00000000e+00 2.37174055e-13 0.00000000e+00 2.03287593e-15
4.78630092e+01 1.58012546e-13 1.34310781e-15 0.00000000e+00 1.56669439e-13 0.00000000e+00 1.34310781e-15
5.49540874e+01 9.87733863e-14 8.87382527e-16 0.00000000e+00 9.78860038e-14 0.00000000e+00 8.87382527e-16
6.30957344e+01 5.91812557e-14 5.86287821e-16 0.00000000e+00 5.85949678e-14 0.00000000e+00 5.86287821e-16
7.24435960e+01 3.42718212e-14 3.87356522e-16 0.00000000e+00 3.38844646e-14 0.00000000e+00 3.87356522e-16
8.31763771e+01 1.93745957e-14 2.55923916e-16 0.00000000e+00 1.91186718e-14 0.00000000e+00 2.55923916e-16
9.54992586e+01 1.07647081e-14 1.69087255e-16 0.00000000e+00 1.05956208e-14 0.00000000e+00 1.69087255e-16
1.09647820e+02 5.90883645e-15 1.11714841e-16 0.00000000e+00 5.79712161e-15 0.00000000e+00 1.11714841e-16
1.25892541e+02 3.25026292e-15 7.38092637e-17 0.00000000e+00 3.17645365e-15 0.00000000e+00 7.38092637e-17
1.44543977e+02 1.78223395e-15 4.87652969e-17 0.00000000e+00 1.73346865e-15 0.00000000e+00 4.87652969e-17
1.65958691e+02 9.33322242e-16 3.22189122e-17 0.00000000e+00 9.01103330e-16 0.00000000e+00 3.22189122e-17
1.90546072e+02 4.90682898e-16 2.12868242e-17 0.00000000e+00 4.69396074e-16 0.00000000e+00 2.12868242e-17
2.18776162e+02 2.58400307e-16 1.40640653e-17 0.00000000e+00 2.44336241e-16 0.00000000e+00 1.40640653e-17
2.51188643e+02 1.36110925e-16 9.29203577e-18 0.00000000e+00 1.26818889e-16 0.00000000e+00 9.29203577e-18
2.88403150e+02 7.16894160e-17 6.13918715e-18 0.00000000e+00 6.55502288e-17 0.00000000e+00 6.13918715e-18
3.31131121e+02 3.78565914e-17 4.05612073e-18 0.00000000e+00 3.38004707e-17 0.00000000e+00 4.05612073e-18
3.80189396e+02 2.00461600e-17 2.67985239e-18 0.00000000e+00 1.73663076e-17 0.00000000e+00 2.67985239e-18
4.36515832e+02 1.06730844e-17 1.77056092e-18 0.00000000e+00 8.90252351e-18 0.00000000e+00 1.77056092e-18
5.01187234e+02 5.72167095e-18 1.16979800e-18 0.00000000e+00 4.55187295e-18 0.00000000e+00 1.16979800e-18
5.75439937e+02 3.09533728e-18 7.72877871e-19 0.00000000e+00 2.32245941e-18 0.00000000e+00 7.72877871e-19
6.60693448e+02 1.69342374e-18 5.10635346e-19 0.00000000e+00 1.18278839e-18 0.00000000e+00 5.10635346e-19
7.58577575e+02 9.38769246e-19 3.37373427e-19 0.00000000e+00 6.01395818e-19 0.00000000e+00 3.37373427e-19
8.70963590e+02 5.28176322e-19 2.22900413e-19 0.00000000e+00 3.05275909e-19 0.00000000e+00 2.22900413e-19
1.00000000e+03 1.54718154e-19 0.00000000e+00 0.00000000e+00 1.54718154e-19 0.00000000e+00 0.00000000e+00
