# column 1: lambda (micron)
# column 2: total flux; lambda*F_lambda (W/m2)
# column 3: direct stellar flux; lambda*F_lambda (W/m2)
# column 4: scattered stellar flux; lambda*F_lambda (W/m2)
# column 5: total dust emission flux; lambda*F_lambda (W/m2)
# column 6: dust emission scattered flux; lambda*F_lambda (W/m2)
# column 7: transparent flux; lambda*F_lambda (W/m2)
1.00000000e-03 8.46537970e-13 8.46529401e-13 8.56940598e-18 0.00000000e+00 0.00000000e+00 8.46529401e-13
1.14815362e-03 9.99203804e-13 9.99176121e-13 2.76832735e-17 0.00000000e+00 0.00000000e+00 9.99176121e-13
1.31825674e-03 1.17951644e-12 1.17934819e-12 1.68244790e-16 0.00000000e+00 0.00000000e+00 1.17934819e-12
1.51356125e-03 1.39206863e-12 1.39200901e-12 5.96182490e-17 0.00000000e+00 0.00000000e+00 1.39200901e-12
1.73780083e-03 1.64308537e-12 1.64301696e-12 6.84104396e-17 0.00000000e+00 0.00000000e+00 1.64301696e-12
1.99526231e-03 1.93947967e-12 1.93928682e-12 1.92850749e-16 0.00000000e+00 0.00000000e+00 1.93928682e-12
2.29086765e-03 2.28948847e-12 2.28898025e-12 5.08212899e-16 0.00000000e+00 0.00000000e+00 2.28898025e-12
2.63026799e-03 2.70254177e-12 2.70173063e-12 8.11142726e-16 0.00000000e+00 0.00000000e+00 2.70173063e-12
3.01995172e-03 3.18968017e-12 3.18890841e-12 7.71762153e-16 0.00000000e+00 0.00000000e+00 3.18890841e-12
3.46736850e-03 3.76537441e-12 3.76393440e-12 1.44000195e-15 0.00000000e+00 0.00000000e+00 3.76393440e-12
3.98107171e-03 4.44437306e-12 4.44264945e-12 1.72361138e-15 0.00000000e+00 0.00000000e+00 4.44264945e-12
4.57088190e-03 5.47891012e-12 5.24375082e-12 2.35159299e-13 0.00000000e+00 0.00000000e+00 5.24375082e-12
5.24807460e-03 6.30925435e-12 6.18930730e-12 1.19947051e-13 0.00000000e+00 0.00000000e+00 6.18930730e-12
6.02559586e-03 7.41136106e-12 7.30536713e-12 1.05993929e-13 0.00000000e+00 0.00000000e+00 7.30536713e-12
6.91830971e-03 8.64702543e-12 8.62267558e-12 2.43498585e-14 0.00000000e+00 0.00000000e+00 8.62267558e-12
7.94328235e-03 1.02459294e-11 1.01775219e-11 6.84074507e-14 7.34717912e-304 1.14581382e-305 1.01775219e-11
9.12010839e-03 1.21006625e-11 1.20127391e-11 8.79233794e-14 4.15534877e-265 3.25973034e-267 1.20127391e-11
1.04712855e-02 1.35200474e-11 1.34165878e-11 1.03459591e-13 2.21280957e-231 2.19173562e-233 1.34165878e-11
1.20226443e-02 1.35736038e-11 1.34165878e-11 1.57015921e-13 4.27411369e-202 8.97479503e-204 1.34165878e-11
1.38038426e-02 1.35881784e-11 1.34165878e-11 1.71590571e-13 1.38080956e-176 2.48665167e-178 1.34165878e-11
1.58489319e-02 1.36318100e-11 1.34165878e-11 2.15222189e-13 2.18143746e-154 5.16285587e-156 1.34165878e-11
1.81970086e-02 1.36698663e-11 1.34165878e-11 2.53278503e-13 4.47610582e-135 1.48881775e-136 1.34165878e-11
2.08929613e-02 1.37065745e-11 1.34165878e-11 2.89986698e-13 2.61841464e-118 8.74098703e-120 1.34165878e-11
2.39883292e-02 1.37589917e-11 1.34165878e-11 3.42403814e-13 1.01429490e-103 3.54864321e-105 1.34165878e-11
2.75422870e-02 1.38120849e-11 1.34165878e-11 3.95497083e-13 4.95978473e-91 1.94685982e-92 1.34165878e-11
3.16227766e-02 1.38293882e-11 1.34165878e-11 4.12800339e-13 5.22394835e-80 2.34400087e-81 1.34165878e-11
3.63078055e-02 1.38486633e-11 1.34165878e-11 4.32075438e-13 1.93194492e-70 8.73124465e-72 1.34165878e-11
4.16869383e-02 1.38981704e-11 1.34165878e-11 4.81582528e-13 3.90300588e-62 2.08238877e-63 1.34165878e-11
4.78630092e-02 1.39021295e-11 1.34165878e-11 4.85541630e-13 6.19079919e-55 3.70292448e-56 1.34165878e-11
5.49540874e-02 1.38994621e-11 1.34165878e-11 4.82874288e-13 1.06781775e-48 6.65696997e-50 1.34165878e-11
6.30957344e-02 1.38670631e-11 1.34165878e-11 4.50475233e-13 3.54202309e-43 2.27324074e-44 1.34165878e-11
7.24435960e-02 1.38117485e-11 1.34165878e-11 3.95160703e-13 2.09673380e-38 1.26634553e-39 1.34165878e-11
8.31763771e-02 1.37912306e-11 1.34165878e-11 3.74642760e-13 2.20855979e-34 1.29977645e-35 1.34165878e-11
9.54992586e-02 1.37905548e-11 1.34165878e-11 3.73966949e-13 6.39950609e-31 3.90753430e-32 1.34165878e-11
1.09647820e-01 1.32083869e-11 1.28127470e-11 3.95639941e-13 5.58842616e-28 3.65638417e-29 1.28127470e-11
1.25892541e-01 1.23466101e-11 1.19575512e-11 3.89058890e-13 1.86000213e-25 1.22600115e-26 1.19575512e-11
1.44543977e-01 1.15190943e-11 1.11594361e-11 3.59658169e-13 2.58613494e-23 1.65910666e-24 1.11594361e-11
1.65958691e-01 1.07699009e-11 1.04145917e-11 3.55309141e-13 1.33518613e-21 9.52702892e-23 1.04145917e-11
1.90546072e-01 1.00897906e-11 9.71946251e-12 3.70328070e-13 2.84834168e-20 2.35386014e-21 9.71946251e-12
2.18776162e-01 9.39935561e-12 9.07073019e-12 3.28625074e-13 3.39143169e-19 2.87605478e-20 9.07073019e-12
2.51188643e-01 8.82825891e-12 8.46529796e-12 3.62956743e-13 4.20598859e-18 4.46723499e-19 8.46529796e-12
2.88403150e-01 8.23984059e-12 7.90027573e-12 3.39529406e-13 3.54503516e-17 3.75001541e-18 7.90027573e-12
3.31131121e-01 7.68624684e-12 7.37296631e-12 3.13075139e-13 2.05395943e-16 2.15865735e-17 7.37296631e-12
3.80189396e-01 7.16728123e-12 6.88085251e-12 2.85567379e-13 8.61335092e-16 8.75990195e-17 6.88085251e-12
4.36515832e-01 6.68790290e-12 6.42158520e-12 2.63568934e-13 2.74876550e-15 2.79976123e-16 6.42158520e-12
5.01187234e-01 6.24397875e-12 5.99297201e-12 2.44053606e-13 6.95313619e-15 7.23796266e-16 5.99297201e-12
5.75439937e-01 5.82974670e-12 5.59296690e-12 2.22027100e-13 1.47526965e-14 1.64525906e-15 5.59296690e-12
6.60693448e-01 5.45418349e-12 5.21966041e-12 2.06521843e-13 2.80012296e-14 3.68305141e-15 5.21966041e-12
7.58577575e-01 5.11067679e-12 4.87127053e-12 1.87014837e-13 5.23914248e-14 8.84512469e-15 4.87127053e-12
8.70963590e-01 4.81726557e-12 4.54613417e-12 1.65719172e-13 1.05412222e-13 2.21800030e-14 4.54613417e-12
1.00000000e+00 4.60731570e-12 4.24269927e-12 1.44890333e-13 2.19726101e-13 5.20252212e-14 4.24269927e-12
1.14815362e+00 4.54999626e-12 3.95951734e-12 1.22408231e-13 4.68070692e-13 1.10495228e-13 3.95951734e-12
1.31825674e+00 4.73512063e-12 3.69523659e-12 1.01115352e-13 9.38768688e-13 2.04385754e-13 3.69523659e-12
1.51356125e+00 5.25175750e-12 3.44859544e-12 8.22574786e-14 1.72090459e-12 3.25090523e-13 3.44859544e-12
1.73780083e+00 6.15731298e-12 3.21841652e-12 6.45663459e-14 2.87433011e-12 4.54650621e-13 3.21841652e-12
1.99526231e+00 7.29366417e-12 3.00360106e-12 4.98263563e-14 4.24023675e-12 5.42646741e-13 3.00360106e-12
2.29086765e+00 8.58553323e-12 2.80312361e-12 3.75410051e-14 5.74486862e-12 5.84062028e-13 2.80312361e-12
2.63026799e+00 9.77836256e-12 2.61602716e-12 2.72101370e-14 7.13512526e-12 5.74851092e-13 2.61602716e-12
3.01995172e+00 1.09088467e-11 2.44141860e-12 1.97883153e-14 8.44763979e-12 5.30935916e-13 2.44141860e-12
3.46736850e+00 1.17618776e-11 2.27846441e-12 1.40488108e-14 9.46936441e-12 4.54723742e-13 2.27846441e-12
3.98107171e+00 1.24506678e-11 2.12638671e-12 9.76720964e-15 1.03145139e-11 3.70078437e-13 2.12638671e-12
4.57088190e+00 1.28521005e-11 1.98445954e-12 6.42303479e-15 1.08612180e-11 2.77545268e-13 1.98445954e-12
5.24807460e+00 1.27500811e-11 1.64084388e-12 3.70044681e-15 1.11055367e-11 1.89484950e-13 1.64084388e-12
6.02559586e+00 1.20391764e-11 1.08409480e-12 1.61075245e-15 1.09534709e-11 1.19673204e-13 1.08409480e-12
6.70000000e+00 1.13868528e-11 7.88574724e-13 8.31495402e-16 1.05974466e-11 7.90576606e-14 7.88574724e-13
6.92422916e+00 1.11719874e-11 7.14418944e-13 6.60018552e-16 1.04569085e-11 6.89671402e-14 7.14418944e-13
7.15596261e+00 1.09803907e-11 6.47236606e-13 5.27823028e-16 1.03326263e-11 5.91041379e-14 6.47236606e-13
7.39545150e+00 1.08908417e-11 5.86371942e-13 4.02946103e-16 1.03040668e-11 4.99567555e-14 5.86371942e-13
7.64295536e+00 1.11437796e-11 5.31230854e-13 2.80686441e-16 1.06122681e-11 4.11890103e-14 5.31230854e-13
7.89874245e+00 1.17729207e-11 4.81275108e-13 1.72589492e-16 1.12914730e-11 3.19781522e-14 4.81275108e-13
8.16308998e+00 1.25304585e-11 4.36017088e-13 1.00253963e-16 1.20943412e-11 2.39041988e-14 4.36017088e-13
8.43628443e+00 1.33781741e-11 3.95015029e-13 5.38470473e-17 1.29831052e-11 1.71076703e-14 3.95015029e-13
8.71862190e+00 1.38478602e-11 3.57868711e-13 3.29948428e-17 1.34899585e-11 1.26773566e-14 3.57868711e-13
9.01040836e+00 1.43544445e-11 3.24215549e-13 1.87609863e-17 1.40302102e-11 9.19113017e-15 3.24215549e-13
9.31196005e+00 1.46246555e-11 2.93727053e-13 0.00000000e+00 1.43309285e-11 0.00000000e+00 2.93727053e-13
9.62360379e+00 1.43803257e-11 2.66105627e-13 0.00000000e+00 1.41142201e-11 0.00000000e+00 2.66105627e-13
9.94567731e+00 1.38099713e-11 2.41081657e-13 0.00000000e+00 1.35688896e-11 0.00000000e+00 2.41081657e-13
1.02785297e+01 1.32119424e-11 2.18410884e-13 0.00000000e+00 1.29935315e-11 0.00000000e+00 2.18410884e-13
1.06225216e+01 1.26448838e-11 1.97872020e-13 0.00000000e+00 1.24470117e-11 0.00000000e+00 1.97872020e-13
1.09780260e+01 1.20563507e-11 1.79264583e-13 0.00000000e+00 1.18770861e-11 0.00000000e+00 1.79264583e-13
1.13454280e+01 1.13252142e-11 1.62406948e-13 0.00000000e+00 1.11628072e-11 0.00000000e+00 1.62406948e-13
1.17251259e+01 1.08007454e-11 1.47134567e-13 0.00000000e+00 1.06536108e-11 0.00000000e+00 1.47134567e-13
1.21175312e+01 1.02218484e-11 1.33298366e-13 0.00000000e+00 1.00885500e-11 0.00000000e+00 1.33298366e-13
1.25230691e+01 9.62210595e-12 1.20763289e-13 0.00000000e+00 9.50134266e-12 0.00000000e+00 1.20763289e-13
1.29421791e+01 9.04902396e-12 1.09406983e-13 0.00000000e+00 8.93961697e-12 0.00000000e+00 1.09406983e-13
1.33753155e+01 8.46816204e-12 9.91185987e-14 0.00000000e+00 8.36904344e-12 0.00000000e+00 9.91185987e-14
1.38229477e+01 8.03691122e-12 8.97977103e-14 0.00000000e+00 7.94711351e-12 0.00000000e+00 8.97977103e-14
1.42855609e+01 7.73521689e-12 8.13533371e-14 0.00000000e+00 7.65386355e-12 0.00000000e+00 8.13533371e-14
1.47636563e+01 7.66277146e-12 7.37030537e-14 0.00000000e+00 7.58906841e-12 0.00000000e+00 7.37030537e-14
1.52577522e+01 7.66661875e-12 6.67721855e-14 0.00000000e+00 7.59984657e-12 0.00000000e+00 6.67721855e-14
1.57683840e+01 7.68411313e-12 6.04930805e-14 0.00000000e+00 7.62362005e-12 0.00000000e+00 6.04930805e-14
1.62961051e+01 7.68794804e-12 5.48044484e-14 0.00000000e+00 7.63314359e-12 0.00000000e+00 5.48044484e-14
1.68414875e+01 7.70962767e-12 4.96507622e-14 0.00000000e+00 7.65997691e-12 0.00000000e+00 4.96507622e-14
1.74051222e+01 7.62624913e-12 4.49817171e-14 0.00000000e+00 7.58126741e-12 0.00000000e+00 4.49817171e-14
1.79876201e+01 7.49052115e-12 4.07517384e-14 0.00000000e+00 7.44976941e-12 0.00000000e+00 4.07517384e-14
1.85896125e+01 7.29690776e-12 3.69195372e-14 0.00000000e+00 7.25998822e-12 0.00000000e+00 3.69195372e-14
1.92117518e+01 6.99879301e-12 3.34477076e-14 0.00000000e+00 6.96534530e-12 0.00000000e+00 3.34477076e-14
1.98547123e+01 6.66286701e-12 3.03023610e-14 0.00000000e+00 6.63256464e-12 0.00000000e+00 3.03023610e-14
2.05191907e+01 6.31850960e-12 2.74527957e-14 0.00000000e+00 6.29105680e-12 0.00000000e+00 2.74527957e-14
2.12059073e+01 5.97620595e-12 2.48711970e-14 0.00000000e+00 5.95133475e-12 0.00000000e+00 2.48711970e-14
2.19156062e+01 5.65297471e-12 2.25323660e-14 0.00000000e+00 5.63044235e-12 0.00000000e+00 2.25323660e-14
2.26490567e+01 5.34080466e-12 2.04134733e-14 0.00000000e+00 5.32039119e-12 0.00000000e+00 2.04134733e-14
2.34070535e+01 5.02477394e-12 1.84938366e-14 0.00000000e+00 5.00628011e-12 0.00000000e+00 1.84938366e-14
2.41904183e+01 4.72545848e-12 1.67547181e-14 0.00000000e+00 4.70870376e-12 0.00000000e+00 1.67547181e-14
2.50000000e+01 4.45020701e-12 1.51791424e-14 0.00000000e+00 4.43502787e-12 0.00000000e+00 1.51791424e-14
2.75422870e+01 3.65883987e-12 1.13518661e-14 0.00000000e+00 3.64748800e-12 0.00000000e+00 1.13518661e-14
3.16227766e+01 2.67897569e-12 7.50010357e-15 0.00000000e+00 2.67147559e-12 0.00000000e+00 7.50010357e-15
3.63078055e+01 1.86494464e-12 4.95526929e-15 0.00000000e+00 1.85998937e-12 0.00000000e+00 4.95526929e-15
4.16869383e+01 1.22192747e-12 3.27391395e-15 0.00000000e+00 1.21865356e-12 0.00000000e+00 3.27391395e-15
4.78630092e+01 7.52673310e-13 2.16305350e-15 0.00000000e+00 7.50510257e-13 0.00000000e+00 2.16305350e-15
5.49540874e+01 4.41942715e-13 1.42911527e-15 0.00000000e+00 4.40513600e-13 0.00000000e+00 1.42911527e-15
6.30957344e+01 2.49976187e-13 9.44207098e-16 0.00000000e+00 2.49031980e-13 0.00000000e+00 9.44207098e-16
7.24435960e+01 1.37450238e-13 6.23831443e-16 0.00000000e+00 1.36826406e-13 0.00000000e+00 6.23831443e-16
8.31763771e+01 7.41557303e-14 4.12161347e-16 0.00000000e+00 7.37435690e-14 0.00000000e+00 4.12161347e-16
9.54992586e+01 3.95331251e-14 2.72312302e-16 0.00000000e+00 3.92608128e-14 0.00000000e+00 2.72312302e-16
1.09647820e+02 2.09137340e-14 1.79914953e-16 0.00000000e+00 2.07338190e-14 0.00000000e+00 1.79914953e-16
1.25892541e+02 1.11356260e-14 1.18868631e-16 0.00000000e+00 1.10167573e-14 0.00000000e+00 1.18868631e-16
1.44543977e+02 5.93232362e-15 7.85357256e-17 0.00000000e+00 5.85378790e-15 0.00000000e+00 7.85357256e-17
1.65958691e+02 3.02473822e-15 5.18880394e-17 0.00000000e+00 2.97285019e-15 0.00000000e+00 5.18880394e-17
1.90546072e+02 1.55175412e-15 3.42820876e-17 0.00000000e+00 1.51747203e-15 0.00000000e+00 3.42820876e-17
2.18776162e+02 7.98782053e-16 2.26499507e-17 0.00000000e+00 7.76132103e-16 0.00000000e+00 2.26499507e-17
2.51188643e+02 4.11733875e-16 1.49646740e-17 0.00000000e+00 3.96769201e-16 0.00000000e+00 1.49646740e-17
2.88403150e+02 2.12277751e-16 9.88706207e-18 0.00000000e+00 2.02390689e-16 0.00000000e+00 9.88706207e-18
3.31131121e+02 1.09707689e-16 6.53231713e-18 0.00000000e+00 1.03175372e-16 0.00000000e+00 6.53231713e-18
3.80189396e+02 5.68057759e-17 4.31585913e-18 0.00000000e+00 5.24899168e-17 0.00000000e+00 4.31585913e-18
4.36515832e+02 2.95300282e-17 2.85145985e-18 0.00000000e+00 2.66785683e-17 0.00000000e+00 2.85145985e-18
5.01187234e+02 1.54238156e-17 1.88394084e-18 0.00000000e+00 1.35398748e-17 0.00000000e+00 1.88394084e-18
5.75439937e+02 8.10881806e-18 1.24470737e-18 0.00000000e+00 6.86411069e-18 0.00000000e+00 1.24470737e-18
6.60693448e+02 4.29875915e-18 8.22370004e-19 0.00000000e+00 3.47638914e-18 0.00000000e+00 8.22370004e-19
7.58577575e+02 2.30242045e-18 5.43334473e-19 0.00000000e+00 1.75908598e-18 0.00000000e+00 5.43334473e-19
8.70963590e+02 1.24818936e-18 3.58977527e-19 0.00000000e+00 8.89211834e-19 0.00000000e+00 3.58977527e-19
1.00000000e+03 4.49029246e-19 0.00000000e+00 0.00000000e+00 4.49029246e-19 0.00000000e+00 0.00000000e+00
