# column 1: lambda (micron)
# column 2: total flux; lambda*F_lambda (W/m2)
# column 3: direct stellar flux; lambda*F_lambda (W/m2)
# column 4: scattered stellar flux; lambda*F_lambda (W/m2)
# column 5: total dust emission flux; lambda*F_lambda (W/m2)
# column 6: dust emission scattered flux; lambda*F_lambda (W/m2)
# column 7: transparent flux; lambda*F_lambda (W/m2)
1.00000000e-03 9.68073614e-13 9.68073281e-13 3.32583816e-19 0.00000000e+00 0.00000000e+00 9.68073281e-13
1.14815362e-03 1.14263738e-12 1.14263687e-12 5.09513465e-19 0.00000000e+00 0.00000000e+00 1.14263687e-12
1.31825674e-03 1.34867865e-12 1.34867788e-12 7.70964941e-19 0.00000000e+00 0.00000000e+00 1.34867788e-12
1.51356125e-03 1.59187352e-12 1.59187233e-12 1.18966303e-18 0.00000000e+00 0.00000000e+00 1.59187233e-12
1.73780083e-03 1.87892193e-12 1.87891976e-12 2.16869037e-18 0.00000000e+00 0.00000000e+00 1.87891976e-12
1.99526231e-03 2.21773151e-12 2.21772777e-12 3.74383271e-18 0.00000000e+00 0.00000000e+00 2.21772777e-12
2.29086765e-03 2.61763593e-12 2.61762985e-12 6.08481268e-18 0.00000000e+00 0.00000000e+00 2.61762985e-12
2.63026799e-03 3.08965465e-12 3.08964252e-12 1.21310042e-17 0.00000000e+00 0.00000000e+00 3.08964252e-12
3.01995172e-03 3.64678897e-12 3.64676883e-12 2.01391214e-17 0.00000000e+00 0.00000000e+00 3.64676883e-12
3.46736850e-03 4.30439113e-12 4.30435650e-12 3.46288093e-17 0.00000000e+00 0.00000000e+00 4.30435650e-12
3.98107171e-03 5.08057237e-12 5.08052080e-12 5.15713017e-17 0.00000000e+00 0.00000000e+00 5.08052080e-12
4.57088190e-03 5.99676272e-12 5.99664354e-12 1.19180313e-16 0.00000000e+00 0.00000000e+00 5.99664354e-12
5.24807460e-03 7.07818004e-12 7.07796211e-12 2.17924202e-16 0.00000000e+00 0.00000000e+00 7.07796211e-12
6.02559586e-03 8.35465650e-12 8.35426474e-12 3.91760137e-16 0.00000000e+00 0.00000000e+00 8.35426474e-12
6.91830971e-03 9.86131090e-12 9.86071107e-12 5.99831805e-16 0.00000000e+00 0.00000000e+00 9.86071107e-12
7.94328235e-03 1.16398495e-11 1.16388008e-11 1.04876156e-15 2.69056438e-303 3.54761339e-304 1.16388008e-11
9.12010839e-03 1.37497910e-11 1.37375167e-11 1.22742694e-14 1.08917432e-264 1.52056336e-266 1.37375167e-11
1.04712855e-02 1.53450653e-11 1.53429287e-11 2.13665593e-15 4.96877265e-231 2.25203031e-232 1.53429287e-11
1.20226443e-02 1.53462214e-11 1.53429287e-11 3.29273993e-15 7.97726238e-202 2.69730911e-203 1.53429287e-11
1.38038426e-02 1.53477244e-11 1.53429287e-11 4.79578079e-15 2.20242192e-176 3.61056016e-178 1.53429287e-11
1.58489319e-02 1.53494806e-11 1.53429287e-11 6.55197640e-15 3.07676099e-154 6.96534642e-156 1.53429287e-11
1.81970086e-02 1.53535464e-11 1.53429287e-11 1.06177849e-14 5.65881249e-135 1.70548488e-136 1.53429287e-11
2.08929613e-02 1.53553609e-11 1.53429287e-11 1.24321921e-14 3.01388628e-118 9.13548186e-120 1.53429287e-11
2.39883292e-02 1.53601967e-11 1.53429287e-11 1.72680621e-14 1.08177174e-103 4.07122253e-105 1.53429287e-11
2.75422870e-02 1.53669679e-11 1.53429287e-11 2.40391872e-14 4.92011141e-91 1.99872268e-92 1.53429287e-11
3.16227766e-02 1.53734102e-11 1.53429287e-11 3.04815625e-14 4.86547014e-80 2.16046685e-81 1.53429287e-11
3.63078055e-02 1.53764340e-11 1.53429287e-11 3.35053422e-14 1.71106461e-70 8.33648219e-72 1.53429287e-11
4.16869383e-02 1.53917591e-11 1.53429287e-11 4.88304835e-14 3.30217305e-62 1.89384541e-63 1.53429287e-11
4.78630092e-02 1.54099978e-11 1.53429287e-11 6.70691531e-14 5.03233029e-55 3.32832200e-56 1.53429287e-11
5.49540874e-02 1.54275804e-11 1.53429287e-11 8.46517510e-14 8.40998303e-49 6.11678833e-50 1.53429287e-11
6.30957344e-02 1.54436789e-11 1.53429287e-11 1.00750242e-13 2.69401270e-43 1.96637281e-44 1.53429287e-11
7.24435960e-02 1.54430681e-11 1.53429287e-11 1.00139469e-13 1.54131721e-38 9.74705613e-40 1.53429287e-11
8.31763771e-02 1.54444842e-11 1.53429287e-11 1.01555581e-13 1.58672686e-34 9.61409719e-36 1.53429287e-11
9.54992586e-02 1.54510990e-11 1.53429287e-11 1.08170326e-13 4.50279354e-31 2.91597032e-32 1.53429287e-11
1.09647820e-01 1.47586229e-11 1.46523889e-11 1.06234055e-13 3.89621343e-28 2.88162974e-29 1.46523889e-11
1.25892541e-01 1.37709677e-11 1.36744049e-11 9.65627326e-14 1.28255792e-25 1.00961794e-26 1.36744049e-11
1.44543977e-01 1.28487398e-11 1.27616972e-11 8.70425779e-14 1.77079857e-23 1.41550891e-24 1.27616972e-11
1.65958691e-01 1.19986567e-11 1.19099088e-11 8.87478445e-14 9.04991457e-22 7.97626960e-23 1.19099088e-11
1.90546072e-01 1.12196169e-11 1.11149736e-11 1.04643298e-13 1.91513363e-20 1.94129086e-21 1.11149736e-11
2.18776162e-01 1.04794478e-11 1.03730969e-11 1.06350614e-13 2.24882452e-19 2.27015815e-20 1.03730969e-11
2.51188643e-01 9.80923068e-12 9.68073733e-12 1.28490565e-13 2.78118322e-18 3.45813324e-19 9.68073733e-12
2.88403150e-01 9.15430492e-12 9.03458975e-12 1.19691754e-13 2.34087946e-17 2.96207504e-18 9.03458975e-12
3.31131121e-01 8.53826385e-12 8.43156974e-12 1.06559150e-13 1.34962011e-16 1.68224037e-17 8.43156974e-12
3.80189396e-01 7.96357779e-12 7.86879872e-12 9.42133502e-14 5.65711310e-16 7.04221199e-17 7.86879872e-12
4.36515832e-01 7.43601868e-12 7.34359025e-12 9.06309324e-14 1.79749941e-15 2.19537411e-16 7.34359025e-12
5.01187234e-01 6.94406215e-12 6.85343719e-12 8.61104849e-14 4.51448028e-15 5.43238355e-16 6.85343719e-12
5.75439937e-01 6.48431344e-12 6.39599973e-12 7.88823304e-14 9.43137986e-15 1.13096140e-15 6.39599973e-12
6.60693448e-01 6.05836396e-12 5.96909425e-12 7.20514505e-14 1.72182574e-14 2.09449861e-15 5.96909425e-12
7.58577575e-01 5.66689443e-12 5.57068288e-12 6.68713155e-14 2.93402291e-14 3.68554790e-15 5.57068288e-12
8.70963590e-01 5.30771139e-12 5.19886376e-12 5.94988826e-14 4.93487434e-14 6.60861976e-15 5.19886376e-12
1.00000000e+00 4.98842831e-12 4.85186196e-12 5.30982978e-14 8.34680495e-14 1.15762220e-14 4.85186196e-12
1.14815362e+00 4.71801689e-12 4.52802104e-12 4.43883304e-14 1.45607510e-13 2.00962973e-14 4.52802104e-12
1.31825674e+00 4.51482776e-12 4.22579511e-12 3.62290089e-14 2.52803639e-13 3.21440496e-14 4.22579511e-12
1.51356125e+00 4.39227529e-12 3.94374146e-12 2.79622724e-14 4.20571556e-13 4.74388222e-14 3.94374146e-12
1.73780083e+00 4.34912054e-12 3.68051368e-12 2.10114704e-14 6.47595384e-13 6.14548238e-14 3.68051368e-12
1.99526231e+00 4.35671071e-12 3.43485522e-12 1.54296433e-14 9.06425845e-13 6.96712795e-14 3.43485522e-12
2.29086765e+00 4.37581088e-12 3.20559341e-12 1.12163326e-14 1.15900114e-12 6.99594894e-14 3.20559341e-12
2.63026799e+00 4.36985068e-12 2.99163384e-12 7.99749680e-15 1.37021934e-12 6.36568312e-14 2.99163384e-12
3.01995172e+00 4.30153834e-12 2.79195514e-12 5.52612984e-15 1.50405707e-12 5.35061139e-14 2.79195514e-12
3.46736850e+00 4.16948658e-12 2.60560415e-12 3.80387485e-15 1.56007855e-12 4.18133054e-14 2.60560415e-12
3.98107171e+00 3.97464190e-12 2.43169128e-12 2.57663031e-15 1.54037399e-12 3.02568786e-14 2.43169128e-12
4.57088190e+00 3.72758506e-12 2.26938634e-12 1.65601378e-15 1.45654271e-12 2.02971629e-14 2.26938634e-12
5.24807460e+00 3.21769823e-12 1.87643467e-12 9.33534427e-16 1.34033002e-12 1.28770773e-14 1.87643467e-12
6.02559586e+00 2.45905874e-12 1.23974809e-12 4.05150183e-16 1.21890549e-12 7.75311611e-15 1.23974809e-12
6.70000000e+00 2.02436340e-12 9.01797527e-13 2.04027380e-16 1.12236185e-12 4.97944427e-15 9.01797527e-13
6.92422916e+00 1.90625137e-12 8.16994532e-13 1.63670540e-16 1.08909317e-12 4.30627024e-15 8.16994532e-13
7.15596261e+00 1.81237425e-12 7.40166218e-13 1.26527108e-16 1.07208151e-12 3.69830763e-15 7.40166218e-13
7.39545150e+00 1.74877742e-12 6.70562664e-13 9.83238461e-17 1.07811644e-12 3.16601815e-15 6.70562664e-13
7.64295536e+00 1.76421734e-12 6.07504471e-13 6.93923133e-17 1.15664348e-12 2.67172450e-15 6.07504471e-13
7.89874245e+00 1.89720082e-12 5.50376127e-13 4.41347705e-17 1.34678056e-12 2.21368195e-15 5.50376127e-13
8.16308998e+00 2.11272156e-12 4.98620004e-13 2.60531846e-17 1.61407550e-12 1.81391943e-15 4.98620004e-13
8.43628443e+00 2.42751285e-12 4.51730909e-13 1.49014633e-17 1.97576704e-12 1.42477521e-15 4.51730909e-13
8.71862190e+00 2.61600234e-12 4.09251158e-13 9.78302054e-18 2.20674140e-12 1.12921356e-15 4.09251158e-13
9.01040836e+00 2.82092368e-12 3.70766106e-13 6.16818377e-18 2.45015140e-12 8.66401323e-16 3.70766106e-13
9.31196005e+00 2.96307885e-12 3.35900102e-13 0.00000000e+00 2.62717875e-12 0.00000000e+00 3.35900102e-13
9.62360379e+00 2.89845666e-12 3.04312818e-13 0.00000000e+00 2.59414385e-12 0.00000000e+00 3.04312818e-13
9.94567731e+00 2.69628012e-12 2.75695930e-13 0.00000000e+00 2.42058419e-12 0.00000000e+00 2.75695930e-13
1.02785297e+01 2.46588870e-12 2.49770110e-13 0.00000000e+00 2.21611859e-12 0.00000000e+00 2.49770110e-13
1.06225216e+01 2.24289478e-12 2.26282295e-13 0.00000000e+00 2.01661248e-12 0.00000000e+00 2.26282295e-13
1.09780260e+01 2.00213741e-12 2.05003220e-13 0.00000000e+00 1.79713419e-12 0.00000000e+00 2.05003220e-13
1.13454280e+01 1.79215309e-12 1.85725182e-13 0.00000000e+00 1.60642790e-12 0.00000000e+00 1.85725182e-13
1.17251259e+01 1.61547786e-12 1.68260007e-13 0.00000000e+00 1.44721785e-12 0.00000000e+00 1.68260007e-13
1.21175312e+01 1.45637974e-12 1.52437217e-13 0.00000000e+00 1.30394252e-12 0.00000000e+00 1.52437217e-13
1.25230691e+01 1.31196947e-12 1.38102367e-13 0.00000000e+00 1.17386711e-12 0.00000000e+00 1.38102367e-13
1.29421791e+01 1.19013838e-12 1.25115533e-13 0.00000000e+00 1.06502284e-12 0.00000000e+00 1.25115533e-13
1.33753155e+01 1.08396378e-12 1.13349952e-13 0.00000000e+00 9.70613832e-13 0.00000000e+00 1.13349952e-13
1.38229477e+01 1.01294496e-12 1.02690779e-13 0.00000000e+00 9.10254182e-13 0.00000000e+00 1.02690779e-13
1.42855609e+01 9.71437546e-13 9.30339713e-14 0.00000000e+00 8.78403575e-13 0.00000000e+00 9.30339713e-14
1.47636563e+01 9.74913856e-13 8.42852675e-14 0.00000000e+00 8.90628589e-13 0.00000000e+00 8.42852675e-14
1.52577522e+01 9.89234276e-13 7.63592720e-14 0.00000000e+00 9.12875004e-13 0.00000000e+00 7.63592720e-14
1.57683840e+01 1.01391887e-12 6.91786191e-14 0.00000000e+00 9.44740251e-13 0.00000000e+00 6.91786191e-14
1.62961051e+01 1.03943528e-12 6.26732185e-14 0.00000000e+00 9.76762065e-13 0.00000000e+00 6.26732185e-14
1.68414875e+01 1.06521166e-12 5.67795711e-14 0.00000000e+00 1.00843209e-12 0.00000000e+00 5.67795711e-14
1.74051222e+01 1.07692074e-12 5.14401489e-14 0.00000000e+00 1.02548060e-12 0.00000000e+00 5.14401489e-14
1.79876201e+01 1.08034453e-12 4.66028339e-14 0.00000000e+00 1.03374170e-12 0.00000000e+00 4.66028339e-14
1.85896125e+01 1.07038022e-12 4.22204090e-14 0.00000000e+00 1.02815981e-12 0.00000000e+00 4.22204090e-14
1.92117518e+01 1.04112168e-12 3.82500974e-14 0.00000000e+00 1.00287158e-12 0.00000000e+00 3.82500974e-14
1.98547123e+01 1.00312375e-12 3.46531450e-14 0.00000000e+00 9.68470600e-13 0.00000000e+00 3.46531450e-14
2.05191907e+01 9.65719906e-13 3.13944418e-14 0.00000000e+00 9.34325464e-13 0.00000000e+00 3.13944418e-14
2.12059073e+01 9.26099832e-13 2.84421796e-14 0.00000000e+00 8.97657653e-13 0.00000000e+00 2.84421796e-14
2.19156062e+01 8.93241478e-13 2.57675415e-14 0.00000000e+00 8.67473936e-13 0.00000000e+00 2.57675415e-14
2.26490567e+01 8.61533697e-13 2.33444203e-14 0.00000000e+00 8.38189277e-13 0.00000000e+00 2.33444203e-14
2.34070535e+01 8.32077143e-13 2.11491639e-14 0.00000000e+00 8.10927979e-13 0.00000000e+00 2.11491639e-14
2.41904183e+01 8.03611644e-13 1.91603445e-14 0.00000000e+00 7.84451299e-13 0.00000000e+00 1.91603445e-14
2.50000000e+01 7.77115545e-13 1.73585491e-14 0.00000000e+00 7.59756996e-13 0.00000000e+00 1.73585491e-14
2.75422870e+01 6.98546772e-13 1.29817562e-14 0.00000000e+00 6.85565016e-13 0.00000000e+00 1.29817562e-14
3.16227766e+01 5.88059560e-13 8.57696126e-15 0.00000000e+00 5.79482599e-13 0.00000000e+00 8.57696126e-15
3.63078055e+01 4.71407072e-13 5.66674211e-15 0.00000000e+00 4.65740330e-13 0.00000000e+00 5.66674211e-15
4.16869383e+01 3.55010439e-13 3.74397938e-15 0.00000000e+00 3.51266460e-13 0.00000000e+00 3.74397938e-15
4.78630092e+01 2.49785616e-13 2.47362265e-15 0.00000000e+00 2.47311993e-13 0.00000000e+00 2.47362265e-15
5.49540874e+01 1.66142129e-13 1.63430628e-15 0.00000000e+00 1.64507822e-13 0.00000000e+00 1.63430628e-15
6.30957344e+01 1.05529495e-13 1.07977545e-15 0.00000000e+00 1.04449719e-13 0.00000000e+00 1.07977545e-15
7.24435960e+01 6.45395665e-14 7.13400564e-16 0.00000000e+00 6.38261659e-14 0.00000000e+00 7.13400564e-16
8.31763771e+01 3.83389010e-14 4.71339078e-16 0.00000000e+00 3.78675619e-14 0.00000000e+00 4.71339078e-16
9.54992586e+01 2.22675772e-14 3.11410641e-16 0.00000000e+00 2.19561666e-14 0.00000000e+00 3.11410641e-16
1.09647820e+02 1.27052660e-14 2.05746970e-16 0.00000000e+00 1.24995190e-14 0.00000000e+00 2.05746970e-16
1.25892541e+02 7.22808004e-15 1.35935675e-16 0.00000000e+00 7.09214436e-15 0.00000000e+00 1.35935675e-16
1.44543977e+02 4.07716019e-15 8.98118099e-17 0.00000000e+00 3.98734838e-15 0.00000000e+00 8.98118099e-17
1.65958691e+02 2.18937570e-15 5.93380743e-17 0.00000000e+00 2.13003762e-15 0.00000000e+00 5.93380743e-17
1.90546072e+02 1.17498478e-15 3.92042769e-17 0.00000000e+00 1.13578050e-15 0.00000000e+00 3.92042769e-17
2.18776162e+02 6.29041755e-16 2.59020089e-17 0.00000000e+00 6.03139747e-16 0.00000000e+00 2.59020089e-17
2.51188643e+02 3.35607018e-16 1.71132876e-17 0.00000000e+00 3.18493730e-16 0.00000000e+00 1.71132876e-17
2.88403150e+02 1.78381526e-16 1.13066370e-17 0.00000000e+00 1.67074889e-16 0.00000000e+00 1.13066370e-17
3.31131121e+02 9.47251170e-17 7.47022097e-18 0.00000000e+00 8.72548960e-17 0.00000000e+00 7.47022097e-18
3.80189396e+02 5.02618637e-17 4.93552605e-18 0.00000000e+00 4.53263377e-17 0.00000000e+00 4.93552605e-18
4.36515832e+02 2.67170179e-17 3.26086972e-18 0.00000000e+00 2.34561482e-17 0.00000000e+00 3.26086972e-18
5.01187234e+02 1.42460165e-17 2.15443526e-18 0.00000000e+00 1.20915813e-17 0.00000000e+00 2.15443526e-18
5.75439937e+02 7.63636589e-18 1.42342126e-18 0.00000000e+00 6.21294463e-18 0.00000000e+00 1.42342126e-18
6.60693448e+02 4.12387647e-18 9.40445101e-19 0.00000000e+00 3.18343137e-18 0.00000000e+00 9.40445101e-19
7.58577575e+02 2.24850360e-18 6.21345916e-19 0.00000000e+00 1.62715768e-18 0.00000000e+00 6.21345916e-19
8.70963590e+02 1.24024394e-18 4.10519176e-19 0.00000000e+00 8.29724760e-19 0.00000000e+00 4.10519176e-19
1.00000000e+03 4.22171163e-19 0.00000000e+00 0.00000000e+00 4.22171163e-19 0.00000000e+00 0.00000000e+00
