# column 1: lambda (micron)
# column 2: total flux; lambda*F_lambda (W/m2)
# column 3: direct stellar flux; lambda*F_lambda (W/m2)
# column 4: scattered stellar flux; lambda*F_lambda (W/m2)
# column 5: total dust emission flux; lambda*F_lambda (W/m2)
# column 6: dust emission scattered flux; lambda*F_lambda (W/m2)
# column 7: transparent flux; lambda*F_lambda (W/m2)
1.00000000e-03 1.07312355e-12 1.07296454e-12 1.59004408e-16 0.00000000e+00 0.00000000e+00 1.07335627e-12
1.14815362e-03 1.26634090e-12 1.26629373e-12 4.71624186e-17 0.00000000e+00 0.00000000e+00 1.26690456e-12
1.31825674e-03 1.49450435e-12 1.49443700e-12 6.73516698e-17 0.00000000e+00 0.00000000e+00 1.49535359e-12
1.51356125e-03 1.76382211e-12 1.76372128e-12 1.00831962e-16 0.00000000e+00 0.00000000e+00 1.76499670e-12
1.73780083e-03 2.08195067e-12 2.08174107e-12 2.09598450e-16 0.00000000e+00 0.00000000e+00 2.08326203e-12
1.99526231e-03 2.45719485e-12 2.45653729e-12 6.57556021e-16 0.00000000e+00 0.00000000e+00 2.45891716e-12
2.29086765e-03 2.89981409e-12 2.89933201e-12 4.82082088e-16 0.00000000e+00 0.00000000e+00 2.90231066e-12
2.63026799e-03 3.42255592e-12 3.42144446e-12 1.11146459e-15 0.00000000e+00 0.00000000e+00 3.42565717e-12
3.01995172e-03 4.03909951e-12 4.03722503e-12 1.87448335e-15 0.00000000e+00 0.00000000e+00 4.04337385e-12
3.46736850e-03 5.01443690e-12 4.76392446e-12 2.50512443e-13 0.00000000e+00 0.00000000e+00 4.77247759e-12
3.98107171e-03 5.62640173e-12 5.62149942e-12 4.90231037e-15 0.00000000e+00 0.00000000e+00 5.63305378e-12
4.57088190e-03 6.74608777e-12 6.63970943e-12 1.06378335e-13 0.00000000e+00 0.00000000e+00 6.64880962e-12
5.24807460e-03 7.88866118e-12 7.83401081e-12 5.46503626e-14 0.00000000e+00 0.00000000e+00 7.84772720e-12
6.02559586e-03 9.28134005e-12 9.24331712e-12 3.80229305e-14 0.00000000e+00 0.00000000e+00 9.26283435e-12
6.91830971e-03 1.09729357e-11 1.09065316e-11 6.64041552e-14 0.00000000e+00 0.00000000e+00 1.09331145e-11
7.94328235e-03 1.29899018e-11 1.28695801e-11 1.20321624e-13 0.00000000e+00 0.00000000e+00 1.29045807e-11
9.12010839e-03 1.53616194e-11 1.51857060e-11 1.75913411e-13 0.00000000e+00 0.00000000e+00 1.52315429e-11
1.04712855e-02 1.71862464e-11 1.69570942e-11 2.29152237e-13 0.00000000e+00 0.00000000e+00 1.70115517e-11
1.20226443e-02 1.73608465e-11 1.69538857e-11 4.06960876e-13 2.39464520e-311 4.69965898e-312 1.70115517e-11
1.38038426e-02 1.74036968e-11 1.69500808e-11 4.53616005e-13 5.42603022e-272 1.10634795e-272 1.70115517e-11
1.58489319e-02 1.74739944e-11 1.69454061e-11 5.28588321e-13 1.00885620e-237 2.48184076e-238 1.70115517e-11
1.81970086e-02 1.76408938e-11 1.69410956e-11 6.99798201e-13 6.29397654e-208 1.47661632e-208 1.70115517e-11
2.08929613e-02 1.77813921e-11 1.69375135e-11 8.43878573e-13 4.91500984e-182 1.02337468e-182 1.70115517e-11
2.39883292e-02 1.79973129e-11 1.69328735e-11 1.06443941e-12 1.72811948e-159 3.71470552e-160 1.70115517e-11
2.75422870e-02 1.80435496e-11 1.69274779e-11 1.11607177e-12 6.73140398e-140 1.19925461e-140 1.70115517e-11
3.16227766e-02 1.81053197e-11 1.69221907e-11 1.18312901e-12 7.30601749e-123 1.12837882e-123 1.70115517e-11
3.63078055e-02 1.80470578e-11 1.69180449e-11 1.12901295e-12 4.75465224e-108 6.82465566e-109 1.70115517e-11
4.16869383e-02 1.80344514e-11 1.69144598e-11 1.11999160e-12 3.55160760e-95 4.93282177e-96 1.70115517e-11
4.78630092e-02 1.78214989e-11 1.69045817e-11 9.16917173e-13 5.02553107e-84 6.60086635e-85 1.70115517e-11
5.49540874e-02 1.76059479e-11 1.68908539e-11 7.15093923e-13 2.29240322e-74 2.87175454e-75 1.70115517e-11
6.30957344e-02 1.73167191e-11 1.68564805e-11 4.60238546e-13 5.93833745e-66 7.18657885e-67 1.70115517e-11
7.24435960e-02 1.71195765e-11 1.68158553e-11 3.03721249e-13 1.07140509e-58 1.35161539e-59 1.70115517e-11
8.31763771e-02 1.71143708e-11 1.68194664e-11 2.94904476e-13 2.31846855e-52 2.71903037e-53 1.70115517e-11
9.54992586e-02 1.71030746e-11 1.68300619e-11 2.73012628e-13 7.51312178e-47 8.37665050e-48 1.70115517e-11
1.09647820e-01 1.64473992e-11 1.61017948e-11 3.45604359e-13 5.03596498e-42 5.74526549e-43 1.62459122e-11
1.25892541e-01 1.54905401e-11 1.50507677e-11 4.39772390e-13 7.94593382e-38 1.00012708e-38 1.51615674e-11
1.44543977e-01 1.45246647e-11 1.40638373e-11 4.60827401e-13 3.45295369e-34 4.80178473e-35 1.41495980e-11
1.65958691e-01 1.35950553e-11 1.31351505e-11 4.59904808e-13 3.97166137e-31 6.79995215e-32 1.32051732e-11
1.90546072e-01 1.26471138e-11 1.22540796e-11 3.93034238e-13 1.25454150e-28 2.69657587e-29 1.23237846e-11
2.18776162e-01 1.16889088e-11 1.14249538e-11 2.63954996e-13 1.56399006e-26 3.70432108e-27 1.15012250e-11
2.51188643e-01 1.09817838e-11 1.06766040e-11 3.05179809e-13 2.25746887e-24 6.69480699e-25 1.07335677e-11
2.88403150e-01 1.02958711e-11 9.97299142e-12 3.22879683e-13 1.75318386e-22 5.90526759e-23 1.00171482e-11
3.31131121e-01 9.64761551e-12 9.31261324e-12 3.35002268e-13 7.27482013e-21 2.66761366e-21 9.34854667e-12
3.80189396e-01 9.01575091e-12 8.69511560e-12 3.20635117e-13 1.93852144e-19 7.82991816e-20 8.72457139e-12
4.36515832e-01 8.41911650e-12 8.11831380e-12 3.00799304e-13 3.39992069e-18 1.42487190e-18 8.14224377e-12
5.01187234e-01 7.85791020e-12 7.57960648e-12 2.78263275e-13 4.04459083e-17 1.75297269e-17 7.59878402e-12
5.75439937e-01 7.32815460e-12 7.07638764e-12 2.51433160e-13 3.33807351e-16 1.40946565e-16 7.09159786e-12
6.60693448e-01 6.82644321e-12 6.60630510e-12 2.17992127e-13 2.14598513e-15 8.83894788e-16 6.61826421e-12
7.58577575e-01 6.37059802e-12 6.16723503e-12 1.93305892e-13 1.00570895e-14 3.85228115e-15 6.17652353e-12
8.70963590e-01 5.96204500e-12 5.75721277e-12 1.65731450e-13 3.91007889e-14 1.39231941e-14 5.76426715e-12
1.00000000e+00 5.63283525e-12 5.37425609e-12 1.37616400e-13 1.20962763e-13 3.86894785e-14 5.37952711e-12
1.14815362e+00 5.45709168e-12 5.01659835e-12 1.14188299e-13 3.26305040e-13 9.31842972e-14 5.02046681e-12
1.31825674e+00 5.53033440e-12 4.68258250e-12 9.12585127e-14 7.56493389e-13 1.79364374e-13 4.68537225e-12
1.51356125e+00 5.99386713e-12 4.37065232e-12 7.31556100e-14 1.55005920e-12 3.05084338e-13 4.37264380e-12
1.73780083e+00 6.95338924e-12 4.07939013e-12 6.12680386e-14 2.81273107e-12 4.54499030e-13 4.08078863e-12
1.99526231e+00 8.35038295e-12 3.80744687e-12 5.00088546e-14 4.49292722e-12 5.90297362e-13 3.80841354e-12
2.29086765e+00 1.01913482e-11 3.55355222e-12 4.18504958e-14 6.59594548e-12 6.96550656e-13 3.55421832e-12
2.63026799e+00 1.21361563e-11 3.31652625e-12 3.39213817e-14 8.78570864e-12 7.40822433e-13 3.31698953e-12
3.01995172e+00 1.40845606e-11 3.09526838e-12 2.70681893e-14 1.09622241e-11 7.47698785e-13 3.09559474e-12
3.46736850e+00 1.58521838e-11 2.88874345e-12 2.08068334e-14 1.29426335e-11 6.91418468e-13 2.88897711e-12
3.98107171e+00 1.74037503e-11 2.69598088e-12 1.53650752e-14 1.46924044e-11 5.96045830e-13 2.69615031e-12
4.57088190e+00 1.85163067e-11 2.51606934e-12 1.08066331e-14 1.59894307e-11 4.68738307e-13 2.51619387e-12
5.24807460e+00 1.88147002e-11 2.08042395e-12 6.42600900e-15 1.67278503e-11 3.31685088e-13 2.08050667e-12
6.02559586e+00 1.85213639e-11 1.37453171e-12 2.88079892e-15 1.71439514e-11 2.20147312e-13 1.37457712e-12
6.70000000e+00 1.81477975e-11 9.99843445e-13 1.50219712e-15 1.71464519e-11 1.51068705e-13 9.99872685e-13
6.92422916e+00 1.79945765e-11 9.05821362e-13 1.21271408e-15 1.70875424e-11 1.32913136e-13 9.05846924e-13
7.15596261e+00 1.78263419e-11 8.20640378e-13 9.64242368e-16 1.70047372e-11 1.15820188e-13 8.20663132e-13
7.39545150e+00 1.78202224e-11 7.43468725e-13 7.34273123e-16 1.70760194e-11 9.85149811e-14 7.43489831e-13
7.64295536e+00 1.81044369e-11 6.73551946e-13 5.05229479e-16 1.74303797e-11 8.03095212e-14 6.73573732e-13
7.89874245e+00 1.86719479e-11 6.10206884e-13 2.98386660e-16 1.80614427e-11 6.04651484e-14 6.10232385e-13
8.16308998e+00 1.90844560e-11 5.52816319e-13 1.63253551e-16 1.85314765e-11 4.35025510e-14 5.52847515e-13
8.43628443e+00 1.92811908e-11 5.00819723e-13 8.13384045e-17 1.87802898e-11 2.90750893e-14 5.00858987e-13
8.71862190e+00 1.93270938e-11 4.53715635e-13 4.62256843e-17 1.88733320e-11 2.13868774e-14 4.53759343e-13
9.01040836e+00 1.90653738e-11 4.11040874e-13 2.49117497e-17 1.86543080e-11 1.52038946e-14 4.11088843e-13
9.31196005e+00 1.87626680e-11 3.72380576e-13 0.00000000e+00 1.83902875e-11 0.00000000e+00 3.72430980e-13
9.62360379e+00 1.87468591e-11 3.37361548e-13 0.00000000e+00 1.84094975e-11 0.00000000e+00 3.37408415e-13
9.94567731e+00 1.87561116e-11 3.05639452e-13 0.00000000e+00 1.84504721e-11 0.00000000e+00 3.05679292e-13
1.02785297e+01 1.89601274e-11 2.76901252e-13 0.00000000e+00 1.86832262e-11 0.00000000e+00 2.76933904e-13
1.06225216e+01 1.89472652e-11 2.50865193e-13 0.00000000e+00 1.86964000e-11 0.00000000e+00 2.50891667e-13
1.09780260e+01 1.91676196e-11 2.27277692e-13 0.00000000e+00 1.89403419e-11 0.00000000e+00 2.27298384e-13
1.13454280e+01 1.92634638e-11 2.05907522e-13 0.00000000e+00 1.90575562e-11 0.00000000e+00 2.05923759e-13
1.17251259e+01 1.93511927e-11 1.86546332e-13 0.00000000e+00 1.91646463e-11 0.00000000e+00 1.86559155e-13
1.21175312e+01 1.94166379e-11 1.69005480e-13 0.00000000e+00 1.92476324e-11 0.00000000e+00 1.69015555e-13
1.25230691e+01 1.93425622e-11 1.53113821e-13 0.00000000e+00 1.91894483e-11 0.00000000e+00 1.53121715e-13
1.29421791e+01 1.91408187e-11 1.38716268e-13 0.00000000e+00 1.90021025e-11 0.00000000e+00 1.38722496e-13
1.33753155e+01 1.88403634e-11 1.25672397e-13 0.00000000e+00 1.87146910e-11 0.00000000e+00 1.25677347e-13
1.38229477e+01 1.86453965e-11 1.13854819e-13 0.00000000e+00 1.85315417e-11 0.00000000e+00 1.13858934e-13
1.42855609e+01 1.85784668e-11 1.03148322e-13 0.00000000e+00 1.84753185e-11 0.00000000e+00 1.03151898e-13
1.47636563e+01 1.89713318e-11 9.34483331e-14 0.00000000e+00 1.88778835e-11 0.00000000e+00 9.34517274e-14
1.52577522e+01 1.94335390e-11 8.46604591e-14 0.00000000e+00 1.93488785e-11 0.00000000e+00 8.46637387e-14
1.57683840e+01 1.99119282e-11 7.66989431e-14 0.00000000e+00 1.98352292e-11 0.00000000e+00 7.67021526e-14
1.62961051e+01 2.04209251e-11 6.94861189e-14 0.00000000e+00 2.03514390e-11 0.00000000e+00 6.94892560e-14
1.68414875e+01 2.08946147e-11 6.29515844e-14 0.00000000e+00 2.08316631e-11 0.00000000e+00 6.29546439e-14
1.74051222e+01 2.13055172e-11 5.70316265e-14 0.00000000e+00 2.12484855e-11 0.00000000e+00 5.70345319e-14
1.79876201e+01 2.15736917e-11 5.16684210e-14 0.00000000e+00 2.15220233e-11 0.00000000e+00 5.16711337e-14
1.85896125e+01 2.17005430e-11 4.68096429e-14 0.00000000e+00 2.16537333e-11 0.00000000e+00 4.68120974e-14
1.92117518e+01 2.17202010e-11 4.24078379e-14 0.00000000e+00 2.16777932e-11 0.00000000e+00 4.24099939e-14
1.98547123e+01 2.14629321e-11 3.84199974e-14 0.00000000e+00 2.14245121e-11 0.00000000e+00 3.84218542e-14
2.05191907e+01 2.11279537e-11 3.48071671e-14 0.00000000e+00 2.10931465e-11 0.00000000e+00 3.48087501e-14
2.12059073e+01 2.08068277e-11 3.15340648e-14 0.00000000e+00 2.07752937e-11 0.00000000e+00 3.15354141e-14
2.19156062e+01 2.04057179e-11 2.85687395e-14 0.00000000e+00 2.03771491e-11 0.00000000e+00 2.85698952e-14
2.26490567e+01 1.99598640e-11 2.58822555e-14 0.00000000e+00 1.99339817e-11 0.00000000e+00 2.58832470e-14
2.34070535e+01 1.94601218e-11 2.34483929e-14 0.00000000e+00 1.94366734e-11 0.00000000e+00 2.34492452e-14
2.41904183e+01 1.89410089e-11 2.12433969e-14 0.00000000e+00 1.89197655e-11 0.00000000e+00 2.12441313e-14
2.50000000e+01 1.83137812e-11 1.92457471e-14 0.00000000e+00 1.82945354e-11 0.00000000e+00 1.92463813e-14
2.75422870e+01 1.64504390e-11 1.43931759e-14 0.00000000e+00 1.64360458e-11 0.00000000e+00 1.43935895e-14
3.16227766e+01 1.34618825e-11 9.50952304e-15 0.00000000e+00 1.34523729e-11 0.00000000e+00 9.50975027e-15
3.63078055e+01 1.03440679e-11 6.28290551e-15 0.00000000e+00 1.03377850e-11 0.00000000e+00 6.28302969e-15
4.16869383e+01 7.39998006e-12 4.15109048e-15 0.00000000e+00 7.39582897e-12 0.00000000e+00 4.15115655e-15
4.78630092e+01 4.92449034e-12 2.74260787e-15 0.00000000e+00 4.92174773e-12 0.00000000e+00 2.74264194e-15
5.49540874e+01 3.09514245e-12 1.81202837e-15 0.00000000e+00 3.09333042e-12 0.00000000e+00 1.81204556e-15
6.30957344e+01 1.85534122e-12 1.19719807e-15 0.00000000e+00 1.85414402e-12 0.00000000e+00 1.19720663e-15
7.24435960e+01 1.07106032e-12 7.90982340e-16 0.00000000e+00 1.07026934e-12 0.00000000e+00 7.90986575e-16
8.31763771e+01 6.02081630e-13 5.22597556e-16 0.00000000e+00 6.01559033e-13 0.00000000e+00 5.22599647e-16
9.54992586e+01 3.32092298e-13 3.45277128e-16 0.00000000e+00 3.31747021e-13 0.00000000e+00 3.45278163e-16
1.09647820e+02 1.80757306e-13 2.28122506e-16 0.00000000e+00 1.80529184e-13 0.00000000e+00 2.28123020e-16
1.25892541e+02 9.84483374e-14 1.50719126e-16 0.00000000e+00 9.82976182e-14 0.00000000e+00 1.50719385e-16
1.44543977e+02 5.34062637e-14 9.95791783e-17 0.00000000e+00 5.33066846e-14 0.00000000e+00 9.95793099e-17
1.65958691e+02 2.76682536e-14 6.57913331e-17 0.00000000e+00 2.76024622e-14 0.00000000e+00 6.57913976e-17
1.90546072e+02 1.43616689e-14 4.34679134e-17 0.00000000e+00 1.43182009e-14 0.00000000e+00 4.34679453e-17
2.18776162e+02 7.45202886e-15 2.87189708e-17 0.00000000e+00 7.42330989e-15 0.00000000e+00 2.87189867e-17
2.51188643e+02 3.85744432e-15 1.89744384e-17 0.00000000e+00 3.83846989e-15 0.00000000e+00 1.89744463e-17
2.88403150e+02 1.98983856e-15 1.25362884e-17 0.00000000e+00 1.97730227e-15 0.00000000e+00 1.25362924e-17
3.31131121e+02 1.02472413e-15 8.28264424e-18 0.00000000e+00 1.01644149e-15 0.00000000e+00 8.28264623e-18
3.80189396e+02 5.26301483e-16 5.47228910e-18 0.00000000e+00 5.20829194e-16 0.00000000e+00 5.47229010e-18
4.36515832e+02 2.69959584e-16 3.61550571e-18 0.00000000e+00 2.66344079e-16 0.00000000e+00 3.61550621e-18
5.01187234e+02 1.38278132e-16 2.38874101e-18 0.00000000e+00 1.35889391e-16 0.00000000e+00 2.38874127e-18
5.75439937e+02 7.07800162e-17 1.57822558e-18 0.00000000e+00 6.92017906e-17 0.00000000e+00 1.57822570e-18
6.60693448e+02 3.62267168e-17 1.04272332e-18 0.00000000e+00 3.51839934e-17 0.00000000e+00 1.04272338e-18
7.58577575e+02 1.85518635e-17 6.88920475e-19 0.00000000e+00 1.78629431e-17 0.00000000e+00 6.88920507e-19
8.70963590e+02 9.51082290e-18 4.55165249e-19 0.00000000e+00 9.05565765e-18 0.00000000e+00 4.55165265e-19
1.00000000e+03 4.58426462e-18 0.00000000e+00 0.00000000e+00 4.58426462e-18 0.00000000e+00 0.00000000e+00
