# column 1: lambda (micron)
# column 2: total flux; lambda*F_lambda (W/m2)
# column 3: direct stellar flux; lambda*F_lambda (W/m2)
# column 4: scattered stellar flux; lambda*F_lambda (W/m2)
# column 5: total dust emission flux; lambda*F_lambda (W/m2)
# column 6: dust emission scattered flux; lambda*F_lambda (W/m2)
# column 7: transparent flux; lambda*F_lambda (W/m2)
1.00000000e-03 6.94019603e-13 6.93993746e-13 2.58571158e-17 0.00000000e+00 0.00000000e+00 6.93993746e-13
1.14815362e-03 8.19142044e-13 8.19135139e-13 6.90544384e-18 0.00000000e+00 0.00000000e+00 8.19135139e-13
1.31825674e-03 9.66888201e-13 9.66842108e-13 4.60925928e-17 0.00000000e+00 0.00000000e+00 9.66842108e-13
1.51356125e-03 1.14132041e-12 1.14118369e-12 1.36723573e-16 0.00000000e+00 0.00000000e+00 1.14118369e-12
1.73780083e-03 1.34713627e-12 1.34696266e-12 1.73612884e-16 0.00000000e+00 0.00000000e+00 1.34696266e-12
1.99526231e-03 1.59134437e-12 1.58984782e-12 1.49655099e-15 0.00000000e+00 0.00000000e+00 1.58984782e-12
2.29086765e-03 1.87668609e-12 1.87653019e-12 1.55898595e-16 0.00000000e+00 0.00000000e+00 1.87653019e-12
2.63026799e-03 2.22568650e-12 2.21490731e-12 1.07791925e-14 0.00000000e+00 0.00000000e+00 2.21490731e-12
3.01995172e-03 2.81672679e-12 2.61430080e-12 2.02425988e-13 0.00000000e+00 0.00000000e+00 2.61430080e-12
3.46736850e-03 3.08760705e-12 3.08571319e-12 1.89386209e-15 0.00000000e+00 0.00000000e+00 3.08571319e-12
3.98107171e-03 3.65189027e-12 3.64213095e-12 9.75931445e-15 0.00000000e+00 0.00000000e+00 3.64213095e-12
4.57088190e-03 4.41036357e-12 4.29888232e-12 1.11481253e-13 0.00000000e+00 0.00000000e+00 4.29888232e-12
5.24807460e-03 5.08434715e-12 5.07405951e-12 1.02876401e-14 0.00000000e+00 0.00000000e+00 5.07405951e-12
6.02559586e-03 6.05236300e-12 5.98901715e-12 6.33458484e-14 0.00000000e+00 0.00000000e+00 5.98901715e-12
6.91830971e-03 7.19686695e-12 7.06896053e-12 1.27906420e-13 0.00000000e+00 0.00000000e+00 7.06896053e-12
7.94328235e-03 8.67354947e-12 8.34363998e-12 3.29909485e-13 3.76203830e-304 3.53984390e-306 8.34363998e-12
9.12010839e-03 9.95989368e-12 9.84817045e-12 1.11723228e-13 2.73835307e-265 2.75090469e-267 9.84817045e-12
1.04712855e-02 1.11642893e-11 1.09990604e-11 1.65228859e-13 1.79619420e-231 1.48679229e-233 1.09990604e-11
1.20226443e-02 1.11227936e-11 1.09990604e-11 1.23733186e-13 4.16044876e-202 6.34986684e-204 1.09990604e-11
1.38038426e-02 1.11780142e-11 1.09990604e-11 1.78953781e-13 1.57781834e-176 1.96877228e-178 1.09990604e-11
1.58489319e-02 1.12412788e-11 1.09990604e-11 2.42218403e-13 2.86928882e-154 5.26025355e-156 1.09990604e-11
1.81970086e-02 1.11896913e-11 1.09990604e-11 1.90630871e-13 6.59269703e-135 1.26310683e-136 1.09990604e-11
2.08929613e-02 1.12035390e-11 1.09990604e-11 2.04478562e-13 4.28856965e-118 8.28972066e-120 1.09990604e-11
2.39883292e-02 1.12289822e-11 1.09990604e-11 2.29921799e-13 1.82572706e-103 4.14730418e-105 1.09990604e-11
2.75422870e-02 1.12123827e-11 1.09990604e-11 2.13322220e-13 9.67134579e-91 2.59866472e-92 1.09990604e-11
3.16227766e-02 1.12191661e-11 1.09990604e-11 2.20105674e-13 1.09098650e-79 3.26505998e-81 1.09990604e-11
3.63078055e-02 1.12065841e-11 1.09990604e-11 2.07523689e-13 4.29728507e-70 1.41479988e-71 1.09990604e-11
4.16869383e-02 1.12109841e-11 1.09990604e-11 2.11923668e-13 9.15381628e-62 3.74364044e-63 1.09990604e-11
4.78630092e-02 1.12195396e-11 1.09990604e-11 2.20479112e-13 1.52630984e-54 7.85619304e-56 1.09990604e-11
5.49540874e-02 1.12262715e-11 1.09990604e-11 2.27211069e-13 2.75748901e-48 1.66003732e-49 1.09990604e-11
6.30957344e-02 1.12432212e-11 1.09990604e-11 2.44160711e-13 9.53402739e-43 6.75869704e-44 1.09990604e-11
7.24435960e-02 1.12468011e-11 1.09990604e-11 2.47740663e-13 5.82201279e-38 4.13258334e-39 1.09990604e-11
8.31763771e-02 1.12338618e-11 1.09990604e-11 2.34801368e-13 6.30292223e-34 4.38303965e-35 1.09990604e-11
9.54992586e-02 1.12222788e-11 1.09990604e-11 2.23218320e-13 1.86650205e-30 1.30233781e-31 1.09990604e-11
1.09647820e-01 1.07128997e-11 1.05040253e-11 2.08874375e-13 1.67182978e-27 1.25750273e-28 1.05040253e-11
1.25892541e-01 9.99083455e-12 9.80292679e-12 1.87907756e-13 5.64061095e-25 3.97034451e-26 9.80292679e-12
1.44543977e-01 9.30044464e-12 9.14862359e-12 1.51821046e-13 7.96623206e-23 5.35098061e-24 9.14862359e-12
1.65958691e-01 8.67433567e-12 8.53799231e-12 1.36343352e-13 4.17590505e-21 3.13414723e-22 8.53799231e-12
1.90546072e-01 8.10942205e-12 7.96811805e-12 1.41303915e-13 9.03138557e-20 8.03172292e-21 7.96811805e-12
2.18776162e-01 7.57026054e-12 7.43628044e-12 1.33979008e-13 1.09132785e-18 1.05237944e-19 7.43628044e-12
2.51188643e-01 7.06623213e-12 6.93994070e-12 1.26277765e-13 1.36687343e-17 1.59830592e-18 6.93994070e-12
2.88403150e-01 6.58305142e-12 6.47672950e-12 1.06205903e-13 1.16008276e-16 1.33645329e-17 6.47672950e-12
3.31131121e-01 6.13570477e-12 6.04443567e-12 9.05934882e-14 6.75614856e-16 7.60120709e-17 6.04443567e-12
3.80189396e-01 5.72108493e-12 5.64099558e-12 7.72405153e-14 2.84883601e-15 3.09300179e-16 5.64099558e-12
4.36515832e-01 5.33953697e-12 5.26448339e-12 6.59050517e-14 9.14853554e-15 1.00802681e-15 5.26448339e-12
5.01187234e-01 4.99310760e-12 4.91310176e-12 5.69434315e-14 2.30624069e-14 2.53223838e-15 4.91310176e-12
5.75439937e-01 4.67891476e-12 4.58517335e-12 4.59941470e-14 4.77472665e-14 5.23035560e-15 4.58517335e-12
6.60693448e-01 4.40287334e-12 4.27913275e-12 3.97919956e-14 8.39485973e-14 9.21030552e-15 4.27913275e-12
7.58577575e-01 4.15698682e-12 3.99351904e-12 3.34623358e-14 1.30005446e-13 1.40584183e-14 3.99351904e-12
8.70963590e-01 3.93392830e-12 3.72696882e-12 2.58989603e-14 1.81060516e-13 1.89898939e-14 3.72696882e-12
1.00000000e+00 3.72940343e-12 3.47820968e-12 2.17247258e-14 2.29469020e-13 2.29868092e-14 3.47820968e-12
1.14815362e+00 3.53683466e-12 3.24605414e-12 1.67545554e-14 2.74025958e-13 2.52955357e-14 3.24605414e-12
1.31825674e+00 3.35714277e-12 3.02939399e-12 1.26210845e-14 3.15127693e-13 2.61225525e-14 3.02939399e-12
1.51356125e+00 3.19037814e-12 2.82719497e-12 8.94706278e-15 3.54236105e-13 2.55684747e-14 2.82719497e-12
1.73780083e+00 3.03642108e-12 2.63849186e-12 6.36380189e-15 3.91565417e-13 2.34589498e-14 2.63849186e-12
1.99526231e+00 2.89307568e-12 2.46238388e-12 4.35769011e-15 4.26334112e-13 1.97768789e-14 2.46238388e-12
2.29086765e+00 2.75434134e-12 2.29803035e-12 2.87732541e-15 4.53433668e-13 1.55629602e-14 2.29803035e-12
2.63026799e+00 2.61384919e-12 2.14464670e-12 2.01815213e-15 4.67184335e-13 1.15884494e-14 2.14464670e-12
3.01995172e+00 2.46562550e-12 2.00150076e-12 1.37498257e-15 4.62749757e-13 8.29760814e-15 2.00150076e-12
3.46736850e+00 2.31082373e-12 1.86790919e-12 8.65116060e-16 4.42049424e-13 5.90224533e-15 1.86790919e-12
3.98107171e+00 2.15180768e-12 1.74323429e-12 6.20437931e-16 4.07952953e-13 4.07707325e-15 1.74323429e-12
4.57088190e+00 1.99637583e-12 1.62688090e-12 3.91525888e-16 3.69103405e-13 2.79698871e-15 1.62688090e-12
5.24807460e+00 1.67655813e-12 1.34518114e-12 2.24157958e-16 3.31152832e-13 1.85202564e-15 1.34518114e-12
6.02559586e+00 1.18812657e-12 8.88752369e-13 9.78482310e-17 2.99276348e-13 1.18037849e-15 8.88752369e-13
6.70000000e+00 9.23091796e-13 6.46481889e-13 5.09057631e-17 2.76559001e-13 8.05881772e-16 6.46481889e-13
6.92422916e+00 8.55039423e-13 5.85688198e-13 4.07139758e-17 2.69310511e-13 7.09049137e-16 5.85688198e-13
7.15596261e+00 7.96056355e-13 5.30611407e-13 3.00804709e-17 2.65414868e-13 6.16321391e-16 5.30611407e-13
7.39545150e+00 7.47717179e-13 4.80713913e-13 2.26691014e-17 2.66980597e-13 5.25805989e-16 4.80713913e-13
7.64295536e+00 7.21561911e-13 4.35508666e-13 1.71140867e-17 2.86036131e-13 4.38679450e-16 4.35508666e-13
7.89874245e+00 7.25956916e-13 3.94554418e-13 1.03906497e-17 3.31392108e-13 3.47246201e-16 3.94554418e-13
8.16308998e+00 7.57291273e-13 3.57451415e-13 6.52143790e-18 3.99833337e-13 2.72385621e-16 3.57451415e-13
8.43628443e+00 8.19474881e-13 3.23837494e-13 3.42824775e-18 4.95633959e-13 2.07030244e-16 3.23837494e-13
8.71862190e+00 8.56889838e-13 2.93384550e-13 2.30195517e-18 5.63502986e-13 1.65748075e-16 2.93384550e-13
9.01040836e+00 9.00956275e-13 2.65795332e-13 1.51196797e-18 6.35159431e-13 1.24866065e-16 2.65795332e-13
9.31196005e+00 9.30898358e-13 2.40800541e-13 0.00000000e+00 6.90097817e-13 0.00000000e+00 2.40800541e-13
9.62360379e+00 9.01340713e-13 2.18156204e-13 0.00000000e+00 6.83184509e-13 0.00000000e+00 2.18156204e-13
9.94567731e+00 8.32677554e-13 1.97641289e-13 0.00000000e+00 6.35036265e-13 0.00000000e+00 1.97641289e-13
1.02785297e+01 7.51745389e-13 1.79055550e-13 0.00000000e+00 5.72689839e-13 0.00000000e+00 1.79055550e-13
1.06225216e+01 6.74967279e-13 1.62217572e-13 0.00000000e+00 5.12749707e-13 0.00000000e+00 1.62217572e-13
1.09780260e+01 5.99669467e-13 1.46962999e-13 0.00000000e+00 4.52706468e-13 0.00000000e+00 1.46962999e-13
1.13454280e+01 5.33527767e-13 1.33142932e-13 0.00000000e+00 4.00384835e-13 0.00000000e+00 1.33142932e-13
1.17251259e+01 4.78443597e-13 1.20622472e-13 0.00000000e+00 3.57821125e-13 0.00000000e+00 1.20622472e-13
1.21175312e+01 4.29028955e-13 1.09279408e-13 0.00000000e+00 3.19749547e-13 0.00000000e+00 1.09279408e-13
1.25230691e+01 3.85206215e-13 9.90030204e-14 0.00000000e+00 2.86203195e-13 0.00000000e+00 9.90030204e-14
1.29421791e+01 3.48927347e-13 8.96930008e-14 0.00000000e+00 2.59234346e-13 0.00000000e+00 8.96930008e-14
1.33753155e+01 3.17026538e-13 8.12584743e-14 0.00000000e+00 2.35768064e-13 0.00000000e+00 8.12584743e-14
1.38229477e+01 2.93730837e-13 7.36171115e-14 0.00000000e+00 2.20113726e-13 0.00000000e+00 7.36171115e-14
1.42855609e+01 2.78130861e-13 6.66943252e-14 0.00000000e+00 2.11436536e-13 0.00000000e+00 6.66943252e-14
1.47636563e+01 2.73754348e-13 6.04225420e-14 0.00000000e+00 2.13331806e-13 0.00000000e+00 6.04225420e-14
1.52577522e+01 2.71634214e-13 5.47405431e-14 0.00000000e+00 2.16893671e-13 0.00000000e+00 5.47405431e-14
1.57683840e+01 2.72223940e-13 4.95928665e-14 0.00000000e+00 2.22631074e-13 0.00000000e+00 4.95928665e-14
1.62961051e+01 2.73041169e-13 4.49292657e-14 0.00000000e+00 2.28111903e-13 0.00000000e+00 4.49292657e-14
1.68414875e+01 2.73904219e-13 4.07042194e-14 0.00000000e+00 2.33199999e-13 0.00000000e+00 4.07042194e-14
1.74051222e+01 2.72462964e-13 3.68764869e-14 0.00000000e+00 2.35586477e-13 0.00000000e+00 3.68764869e-14
1.79876201e+01 2.68865930e-13 3.34087056e-14 0.00000000e+00 2.35457224e-13 0.00000000e+00 3.34087056e-14
1.85896125e+01 2.60845435e-13 3.02670267e-14 0.00000000e+00 2.30578408e-13 0.00000000e+00 3.02670267e-14
1.92117518e+01 2.49957180e-13 2.74207841e-14 0.00000000e+00 2.22536396e-13 0.00000000e+00 2.74207841e-14
1.98547123e+01 2.37049459e-13 2.48421957e-14 0.00000000e+00 2.12207263e-13 0.00000000e+00 2.48421957e-14
2.05191907e+01 2.23902816e-13 2.25060919e-14 0.00000000e+00 2.01396724e-13 0.00000000e+00 2.25060919e-14
2.12059073e+01 2.11316592e-13 2.03896700e-14 0.00000000e+00 1.90926922e-13 0.00000000e+00 2.03896700e-14
2.19156062e+01 2.00318807e-13 1.84722717e-14 0.00000000e+00 1.81846535e-13 0.00000000e+00 1.84722717e-14
2.26490567e+01 1.89907027e-13 1.67351811e-14 0.00000000e+00 1.73171846e-13 0.00000000e+00 1.67351811e-14
2.34070535e+01 1.80245680e-13 1.51614426e-14 0.00000000e+00 1.65084238e-13 0.00000000e+00 1.51614426e-14
2.41904183e+01 1.71008600e-13 1.37356949e-14 0.00000000e+00 1.57272905e-13 0.00000000e+00 1.37356949e-14
2.50000000e+01 1.62398910e-13 1.24440213e-14 0.00000000e+00 1.49954889e-13 0.00000000e+00 1.24440213e-14
2.75422870e+01 1.38511122e-13 9.30637977e-15 0.00000000e+00 1.29204743e-13 0.00000000e+00 9.30637977e-15
3.16227766e+01 1.08145812e-13 6.14866414e-15 0.00000000e+00 1.01997147e-13 0.00000000e+00 6.14866414e-15
3.63078055e+01 8.05307103e-14 4.06238211e-15 0.00000000e+00 7.64683282e-14 0.00000000e+00 4.06238211e-15
4.16869383e+01 5.66782678e-14 2.68398924e-15 0.00000000e+00 5.39942785e-14 0.00000000e+00 2.68398924e-15
4.78630092e+01 3.75955325e-14 1.77329411e-15 0.00000000e+00 3.58222383e-14 0.00000000e+00 1.77329411e-15
5.49540874e+01 2.37816306e-14 1.17160380e-15 0.00000000e+00 2.26100268e-14 0.00000000e+00 1.17160380e-15
6.30957344e+01 1.45131242e-14 7.74070953e-16 0.00000000e+00 1.37390532e-14 0.00000000e+00 7.74070953e-16
7.24435960e+01 8.60817239e-15 5.11423607e-16 0.00000000e+00 8.09674879e-15 0.00000000e+00 5.11423607e-16
8.31763771e+01 5.00093340e-15 3.37894226e-16 0.00000000e+00 4.66303918e-15 0.00000000e+00 3.37894226e-16
9.54992586e+01 2.86474703e-15 2.23244502e-16 0.00000000e+00 2.64150252e-15 0.00000000e+00 2.23244502e-16
1.09647820e+02 1.62351055e-15 1.47496179e-16 0.00000000e+00 1.47601437e-15 0.00000000e+00 1.47496179e-16
1.25892541e+02 9.23008681e-16 9.74497594e-17 0.00000000e+00 8.25558921e-16 0.00000000e+00 9.74497594e-17
1.44543977e+02 5.23498617e-16 6.43844175e-17 0.00000000e+00 4.59114199e-16 0.00000000e+00 6.43844175e-17
1.65958691e+02 2.85167943e-16 4.25383628e-17 0.00000000e+00 2.42629581e-16 0.00000000e+00 4.25383628e-17
1.90546072e+02 1.56387293e-16 2.81048176e-17 0.00000000e+00 1.28282476e-16 0.00000000e+00 2.81048176e-17
2.18776162e+02 8.62422312e-17 1.85686688e-17 0.00000000e+00 6.76735624e-17 0.00000000e+00 1.85686688e-17
2.51188643e+02 4.78112091e-17 1.22681978e-17 0.00000000e+00 3.55430112e-17 0.00000000e+00 1.22681978e-17
2.88403150e+02 2.66690390e-17 8.10551794e-18 0.00000000e+00 1.85635211e-17 0.00000000e+00 8.10551794e-18
3.31131121e+02 1.50147767e-17 5.35526259e-18 0.00000000e+00 9.65951414e-18 0.00000000e+00 5.35526259e-18
3.80189396e+02 8.54099286e-18 3.53818691e-18 0.00000000e+00 5.00280595e-18 0.00000000e+00 3.53818691e-18
4.36515832e+02 4.92018090e-18 2.33765691e-18 0.00000000e+00 2.58252399e-18 0.00000000e+00 2.33765691e-18
5.01187234e+02 2.87297961e-18 1.54447460e-18 0.00000000e+00 1.32850500e-18 0.00000000e+00 1.54447460e-18
5.75439937e+02 1.70186221e-18 1.02042425e-18 0.00000000e+00 6.81437957e-19 0.00000000e+00 1.02042425e-18
6.60693448e+02 1.02283459e-18 6.74187617e-19 0.00000000e+00 3.48646970e-19 0.00000000e+00 6.74187617e-19
7.58577575e+02 6.23417614e-19 4.45431341e-19 0.00000000e+00 1.77986273e-19 0.00000000e+00 4.45431341e-19
8.70963590e+02 3.84957850e-19 2.94293569e-19 0.00000000e+00 9.06642815e-20 0.00000000e+00 2.94293569e-19
1.00000000e+03 4.60899022e-20 0.00000000e+00 0.00000000e+00 4.60899022e-20 0.00000000e+00 0.00000000e+00
