# column 1: lambda (micron)
# column 2: total flux; lambda*F_lambda (W/m2)
# column 3: direct stellar flux; lambda*F_lambda (W/m2)
# column 4: scattered stellar flux; lambda*F_lambda (W/m2)
# column 5: total dust emission flux; lambda*F_lambda (W/m2)
# column 6: dust emission scattered flux; lambda*F_lambda (W/m2)
# column 7: transparent flux; lambda*F_lambda (W/m2)
1.00000000e-03 9.67577895e-13 9.67577833e-13 6.16016490e-20 0.00000000e+00 0.00000000e+00 9.68073281e-13
1.14815362e-03 1.14186444e-12 1.14186434e-12 1.05747802e-19 0.00000000e+00 0.00000000e+00 1.14263687e-12
1.31825674e-03 1.34751882e-12 1.34751866e-12 1.64475433e-19 0.00000000e+00 0.00000000e+00 1.34867788e-12
1.51356125e-03 1.59025959e-12 1.59025933e-12 2.57877848e-19 0.00000000e+00 0.00000000e+00 1.59187233e-12
1.73780083e-03 1.87699673e-12 1.87699624e-12 4.91734149e-19 0.00000000e+00 0.00000000e+00 1.87891976e-12
1.99526231e-03 2.21471898e-12 2.21471814e-12 8.41401057e-19 0.00000000e+00 0.00000000e+00 2.21772777e-12
2.29086765e-03 2.61386444e-12 2.61386303e-12 1.41522620e-18 0.00000000e+00 0.00000000e+00 2.61762985e-12
2.63026799e-03 3.08431844e-12 3.08431533e-12 3.10849349e-18 0.00000000e+00 0.00000000e+00 3.08964252e-12
3.01995172e-03 3.63914557e-12 3.63899377e-12 1.51794169e-16 0.00000000e+00 0.00000000e+00 3.64676883e-12
3.46736850e-03 4.29678751e-12 4.29354184e-12 3.24567226e-15 0.00000000e+00 0.00000000e+00 4.30435650e-12
3.98107171e-03 5.06665563e-12 5.06591211e-12 7.43520824e-16 0.00000000e+00 0.00000000e+00 5.08052080e-12
4.57088190e-03 5.98561450e-12 5.98513619e-12 4.78308588e-16 0.00000000e+00 0.00000000e+00 5.99664354e-12
5.24807460e-03 7.06336898e-12 7.06061882e-12 2.75015263e-15 0.00000000e+00 0.00000000e+00 7.07796211e-12
6.02559586e-03 8.33312288e-12 8.32958852e-12 3.53435622e-15 0.00000000e+00 0.00000000e+00 8.35426474e-12
6.91830971e-03 9.83640344e-12 9.82710362e-12 9.29981812e-15 0.00000000e+00 0.00000000e+00 9.86071107e-12
7.94328235e-03 1.16136991e-11 1.15945539e-11 1.91451741e-14 3.26814121e-303 5.81705575e-306 1.16388008e-11
9.12010839e-03 1.36989371e-11 1.36795743e-11 1.93628072e-14 1.48639386e-264 5.01790469e-267 1.37375167e-11
1.04712855e-02 1.52941364e-11 1.52740916e-11 2.00447969e-14 6.46514282e-231 9.58876549e-234 1.53429287e-11
1.20226443e-02 1.52875053e-11 1.52700386e-11 1.74666956e-14 1.04182646e-201 3.81126717e-204 1.53429287e-11
1.38038426e-02 1.52816699e-11 1.52652327e-11 1.64371468e-14 2.90460177e-176 1.17050803e-178 1.53429287e-11
1.58489319e-02 1.52812621e-11 1.52593287e-11 2.19333754e-14 4.01282550e-154 2.28088542e-156 1.53429287e-11
1.81970086e-02 1.52764790e-11 1.52538854e-11 2.25935601e-14 7.28305158e-135 4.55368153e-137 1.53429287e-11
2.08929613e-02 1.52751763e-11 1.52493623e-11 2.58140053e-14 3.86304844e-118 2.91164223e-120 1.53429287e-11
2.39883292e-02 1.52695311e-11 1.52435039e-11 2.60272559e-14 1.37396167e-103 1.30734097e-105 1.53429287e-11
2.75422870e-02 1.52666286e-11 1.52366923e-11 2.99362713e-14 6.22419822e-91 7.47694686e-93 1.53429287e-11
3.16227766e-02 1.52601468e-11 1.52300185e-11 3.01283004e-14 6.13263242e-80 8.96571780e-82 1.53429287e-11
3.63078055e-02 1.52568768e-11 1.52247859e-11 3.20909091e-14 2.14640059e-70 3.64999203e-72 1.53429287e-11
4.16869383e-02 1.52558387e-11 1.52202616e-11 3.55771155e-14 4.11980680e-62 9.62228398e-64 1.53429287e-11
4.78630092e-02 1.52509883e-11 1.52077973e-11 4.31910066e-14 6.28311969e-55 1.99804271e-56 1.53429287e-11
5.49540874e-02 1.52398723e-11 1.51904804e-11 4.93918993e-14 1.05384758e-48 4.25756168e-50 1.53429287e-11
6.30957344e-02 1.52100900e-11 1.51471447e-11 6.29452289e-14 3.43984999e-43 1.75399774e-44 1.53429287e-11
7.24435960e-02 1.51615022e-11 1.50959731e-11 6.55290782e-14 2.00712160e-38 1.05526426e-39 1.53429287e-11
8.31763771e-02 1.51643090e-11 1.51005196e-11 6.37894469e-14 2.06323866e-34 1.08049649e-35 1.53429287e-11
9.54992586e-02 1.51781069e-11 1.51138622e-11 6.42447504e-14 5.83491629e-31 3.17605548e-32 1.53429287e-11
1.09647820e-01 1.45308957e-11 1.44704257e-11 6.04700509e-14 4.95635501e-28 2.80752409e-29 1.46523889e-11
1.25892541e-01 1.35849322e-11 1.35344645e-11 5.04676890e-14 1.60132800e-25 8.17751573e-27 1.36744049e-11
1.44543977e-01 1.26965833e-11 1.26533538e-11 4.32295253e-14 2.18216634e-23 1.06318274e-24 1.27616972e-11
1.65958691e-01 1.18622678e-11 1.18214341e-11 4.08336376e-14 1.10602152e-21 5.88775497e-23 1.19099088e-11
1.90546072e-01 1.10726846e-11 1.10269064e-11 4.57781083e-14 2.33859574e-20 1.53747092e-21 1.11149736e-11
2.18776162e-01 1.03256108e-11 1.02767529e-11 4.88576259e-14 2.78921374e-19 2.06958145e-20 1.03730969e-11
2.51188643e-01 9.66024576e-12 9.60876285e-12 5.14795218e-14 3.38479818e-18 3.02262286e-19 9.68073733e-12
2.88403150e-01 9.02212406e-12 8.97878685e-12 4.33091255e-14 2.80807552e-17 2.37436241e-18 9.03458975e-12
3.31131121e-01 8.42386792e-12 8.38615392e-12 3.75534662e-14 1.60531816e-16 1.27840989e-17 8.43156974e-12
3.80189396e-01 7.86514315e-12 7.83156641e-12 3.29083510e-14 6.68390238e-16 5.12448181e-17 7.86879872e-12
4.36515832e-01 7.34387167e-12 7.31333994e-12 2.84190855e-14 2.11264449e-15 1.58264348e-16 7.34359025e-12
5.01187234e-01 6.86085724e-12 6.82919248e-12 2.63986597e-14 5.26610144e-15 3.88283447e-16 6.85343719e-12
5.75439937e-01 6.41184278e-12 6.37676913e-12 2.42544984e-14 1.08191609e-14 8.05729908e-16 6.39599973e-12
6.60693448e-01 5.99460644e-12 5.95397308e-12 2.17646977e-14 1.88686629e-14 1.38347170e-15 5.96909425e-12
7.58577575e-01 5.60729040e-12 5.55893773e-12 1.92116010e-14 2.91410752e-14 2.08973433e-15 5.57068288e-12
8.70963590e-01 5.24704291e-12 5.18994310e-12 1.63269582e-14 4.07728524e-14 2.84951251e-15 5.19886376e-12
1.00000000e+00 4.91150594e-12 4.84519614e-12 1.37882336e-14 5.25215624e-14 3.51838629e-15 4.85186196e-12
1.14815362e+00 4.59995771e-12 4.52312871e-12 1.15721072e-14 6.52568973e-14 4.11429716e-15 4.52802104e-12
1.31825674e+00 4.31216571e-12 4.22226688e-12 9.00724798e-15 8.08915834e-14 4.71402125e-15 4.22579511e-12
1.51356125e+00 4.05111562e-12 3.94122274e-12 7.46972717e-15 1.02423150e-13 5.51846098e-15 3.94374146e-12
1.73780083e+00 3.81628230e-12 3.67874489e-12 5.45002856e-15 1.32087376e-13 6.39834177e-15 3.68051368e-12
1.99526231e+00 3.60830057e-12 3.43363258e-12 3.95284972e-15 1.70715137e-13 7.14853303e-15 3.43485522e-12
2.29086765e+00 3.42267704e-12 3.20475092e-12 2.76286645e-15 2.15163253e-13 7.27392412e-15 3.20559341e-12
2.63026799e+00 3.25215718e-12 2.99104786e-12 1.88569730e-15 2.59223621e-13 6.90628112e-15 2.99163384e-12
3.01995172e+00 3.09005779e-12 2.79154235e-12 1.26848593e-15 2.97246960e-13 6.11307532e-15 2.79195514e-12
3.46736850e+00 2.92769729e-12 2.60530860e-12 9.02046871e-16 3.21486647e-13 5.01113537e-15 2.60560415e-12
3.98107171e+00 2.76160287e-12 2.43147697e-12 5.94011869e-16 3.29531889e-13 3.77214298e-15 2.43169128e-12
4.57088190e+00 2.59152522e-12 2.26922883e-12 3.83960892e-16 3.21912427e-13 2.65821441e-15 2.26938634e-12
5.24807460e+00 2.17978482e-12 1.87633004e-12 2.20891291e-16 3.03233880e-13 1.73923208e-15 1.87643467e-12
6.02559586e+00 1.51753348e-12 1.23969065e-12 9.21559673e-17 2.77750679e-13 1.06215622e-15 1.23974809e-12
6.70000000e+00 1.15761044e-12 9.01760543e-13 4.99921282e-17 2.55799906e-13 6.85702485e-16 9.01797527e-13
6.92422916e+00 1.06545440e-12 8.16962200e-13 3.92108256e-17 2.48452988e-13 6.00873411e-16 8.16994532e-13
7.15596261e+00 9.84042818e-13 7.40137438e-13 3.13245631e-17 2.43874055e-13 5.06905901e-16 7.40166218e-13
7.39545150e+00 9.15677911e-13 6.70535968e-13 2.36177806e-17 2.45118325e-13 4.34331624e-16 6.70562664e-13
7.64295536e+00 8.71226185e-13 6.07476914e-13 1.54456735e-17 2.63733825e-13 3.64578389e-16 6.07504471e-13
7.89874245e+00 8.60288831e-13 5.50343872e-13 1.04617541e-17 3.09934497e-13 2.93492611e-16 5.50376127e-13
8.16308998e+00 8.75676393e-13 4.98580546e-13 6.24000930e-18 3.77089606e-13 2.37002242e-16 4.98620004e-13
8.43628443e+00 9.24353086e-13 4.51681245e-13 3.43666564e-18 4.72668404e-13 1.86699847e-16 4.51730909e-13
8.71862190e+00 9.50697757e-13 4.09195874e-13 2.18877433e-18 5.41499694e-13 1.46321357e-16 4.09251158e-13
9.01040836e+00 9.85011207e-13 3.70705433e-13 1.46263351e-18 6.14304311e-13 1.12117363e-16 3.70766106e-13
9.31196005e+00 1.00882746e-12 3.35836350e-13 0.00000000e+00 6.72991106e-13 0.00000000e+00 3.35900102e-13
9.62360379e+00 9.75566105e-13 3.04253539e-13 0.00000000e+00 6.71312566e-13 0.00000000e+00 3.04312818e-13
9.94567731e+00 8.99921025e-13 2.75645539e-13 0.00000000e+00 6.24275486e-13 0.00000000e+00 2.75695930e-13
1.02785297e+01 8.13573092e-13 2.49728810e-13 0.00000000e+00 5.63844283e-13 0.00000000e+00 2.49770110e-13
1.06225216e+01 7.31827438e-13 2.26248808e-13 0.00000000e+00 5.05578629e-13 0.00000000e+00 2.26282295e-13
1.09780260e+01 6.47319412e-13 2.04977049e-13 0.00000000e+00 4.42342363e-13 0.00000000e+00 2.05003220e-13
1.13454280e+01 5.74921517e-13 1.85704645e-13 0.00000000e+00 3.89216872e-13 0.00000000e+00 1.85725182e-13
1.17251259e+01 5.12675333e-13 1.68243788e-13 0.00000000e+00 3.44431545e-13 0.00000000e+00 1.68260007e-13
1.21175312e+01 4.56487250e-13 1.52424474e-13 0.00000000e+00 3.04062776e-13 0.00000000e+00 1.52437217e-13
1.25230691e+01 4.06930837e-13 1.38092382e-13 0.00000000e+00 2.68838454e-13 0.00000000e+00 1.38102367e-13
1.29421791e+01 3.65094360e-13 1.25107655e-13 0.00000000e+00 2.39986705e-13 0.00000000e+00 1.25115533e-13
1.33753155e+01 3.28702747e-13 1.13343691e-13 0.00000000e+00 2.15359056e-13 0.00000000e+00 1.13349952e-13
1.38229477e+01 3.01891924e-13 1.02685575e-13 0.00000000e+00 1.99206350e-13 0.00000000e+00 1.02690779e-13
1.42855609e+01 2.83448303e-13 9.30294477e-14 0.00000000e+00 1.90418855e-13 0.00000000e+00 9.30339713e-14
1.47636563e+01 2.77725006e-13 8.42809743e-14 0.00000000e+00 1.93444031e-13 0.00000000e+00 8.42852675e-14
1.52577522e+01 2.75017132e-13 7.63551237e-14 0.00000000e+00 1.98662008e-13 0.00000000e+00 7.63592720e-14
1.57683840e+01 2.74788356e-13 6.91745595e-14 0.00000000e+00 2.05613797e-13 0.00000000e+00 6.91786191e-14
1.62961051e+01 2.75644604e-13 6.26692505e-14 0.00000000e+00 2.12975353e-13 0.00000000e+00 6.26732185e-14
1.68414875e+01 2.76974308e-13 5.67757013e-14 0.00000000e+00 2.20198606e-13 0.00000000e+00 5.67795711e-14
1.74051222e+01 2.75324139e-13 5.14364740e-14 0.00000000e+00 2.23887665e-13 0.00000000e+00 5.14401489e-14
1.79876201e+01 2.71994330e-13 4.65994027e-14 0.00000000e+00 2.25394927e-13 0.00000000e+00 4.66028339e-14
1.85896125e+01 2.65070522e-13 4.22173045e-14 0.00000000e+00 2.22853217e-13 0.00000000e+00 4.22204090e-14
1.92117518e+01 2.54480862e-13 3.82473705e-14 0.00000000e+00 2.16233491e-13 0.00000000e+00 3.82500974e-14
1.98547123e+01 2.42311702e-13 3.46507965e-14 0.00000000e+00 2.07660905e-13 0.00000000e+00 3.46531450e-14
2.05191907e+01 2.29520491e-13 3.13924396e-14 0.00000000e+00 1.98128052e-13 0.00000000e+00 3.13944418e-14
2.12059073e+01 2.17828975e-13 2.84404729e-14 0.00000000e+00 1.89388502e-13 0.00000000e+00 2.84421796e-14
2.19156062e+01 2.07713830e-13 2.57660796e-14 0.00000000e+00 1.81947750e-13 0.00000000e+00 2.57675415e-14
2.26490567e+01 1.99045006e-13 2.33431661e-14 0.00000000e+00 1.75701840e-13 0.00000000e+00 2.33444203e-14
2.34070535e+01 1.90571619e-13 2.11480859e-14 0.00000000e+00 1.69423533e-13 0.00000000e+00 2.11491639e-14
2.41904183e+01 1.83146330e-13 1.91594156e-14 0.00000000e+00 1.63986914e-13 0.00000000e+00 1.91603445e-14
2.50000000e+01 1.76388681e-13 1.73577469e-14 0.00000000e+00 1.59030934e-13 0.00000000e+00 1.73585491e-14
2.75422870e+01 1.58419308e-13 1.29812331e-14 0.00000000e+00 1.45438075e-13 0.00000000e+00 1.29817562e-14
3.16227766e+01 1.36076659e-13 8.57667384e-15 0.00000000e+00 1.27499985e-13 0.00000000e+00 8.57696126e-15
3.63078055e+01 1.13769120e-13 5.66658503e-15 0.00000000e+00 1.08102535e-13 0.00000000e+00 5.66674211e-15
4.16869383e+01 9.08638256e-14 3.74389581e-15 0.00000000e+00 8.71199298e-14 0.00000000e+00 3.74397938e-15
4.78630092e+01 6.88437641e-14 2.47357956e-15 0.00000000e+00 6.63701845e-14 0.00000000e+00 2.47362265e-15
5.49540874e+01 4.96039513e-14 1.63428454e-15 0.00000000e+00 4.79696668e-14 0.00000000e+00 1.63430628e-15
6.30957344e+01 3.41285283e-14 1.07976462e-15 0.00000000e+00 3.30487637e-14 0.00000000e+00 1.07977545e-15
7.24435960e+01 2.25757377e-14 7.13395208e-16 0.00000000e+00 2.18623425e-14 0.00000000e+00 7.13400564e-16
8.31763771e+01 1.44251579e-14 4.71336434e-16 0.00000000e+00 1.39538215e-14 0.00000000e+00 4.71339078e-16
9.54992586e+01 8.95866086e-15 3.11409332e-16 0.00000000e+00 8.64725153e-15 0.00000000e+00 3.11410641e-16
1.09647820e+02 5.42695733e-15 2.05746320e-16 0.00000000e+00 5.22121101e-15 0.00000000e+00 2.05746970e-16
1.25892541e+02 3.25308614e-15 1.35935347e-16 0.00000000e+00 3.11715080e-15 0.00000000e+00 1.35935675e-16
1.44543977e+02 1.92235819e-15 8.98116434e-17 0.00000000e+00 1.83254655e-15 0.00000000e+00 8.98118099e-17
1.65958691e+02 1.07760293e-15 5.93379927e-17 0.00000000e+00 1.01826494e-15 0.00000000e+00 5.93380743e-17
1.90546072e+02 6.00784566e-16 3.92042365e-17 0.00000000e+00 5.61580329e-16 0.00000000e+00 3.92042769e-17
2.18776162e+02 3.32840755e-16 2.59019888e-17 0.00000000e+00 3.06938767e-16 0.00000000e+00 2.59020089e-17
2.51188643e+02 1.83234528e-16 1.71132775e-17 0.00000000e+00 1.66121250e-16 0.00000000e+00 1.71132876e-17
2.88403150e+02 1.00305380e-16 1.13066319e-17 0.00000000e+00 8.89987481e-17 0.00000000e+00 1.13066370e-17
3.31131121e+02 5.47961691e-17 7.47021844e-18 0.00000000e+00 4.73259507e-17 0.00000000e+00 7.47022097e-18
3.80189396e+02 2.99036805e-17 4.93552478e-18 0.00000000e+00 2.49681558e-17 0.00000000e+00 4.93552605e-18
4.36515832e+02 1.63542188e-17 3.26086909e-18 0.00000000e+00 1.30933497e-17 0.00000000e+00 3.26086972e-18
5.01187234e+02 8.98103346e-18 2.15443494e-18 0.00000000e+00 6.82659852e-18 0.00000000e+00 2.15443526e-18
5.75439937e+02 4.96553945e-18 1.42342110e-18 0.00000000e+00 3.54211835e-18 0.00000000e+00 1.42342126e-18
6.60693448e+02 2.77068612e-18 9.40445020e-19 0.00000000e+00 1.83024110e-18 0.00000000e+00 9.40445101e-19
7.58577575e+02 1.56363531e-18 6.21345876e-19 0.00000000e+00 9.42289430e-19 0.00000000e+00 6.21345916e-19
8.70963590e+02 8.94014763e-19 4.10519156e-19 0.00000000e+00 4.83495607e-19 0.00000000e+00 4.10519176e-19
1.00000000e+03 2.47332901e-19 0.00000000e+00 0.00000000e+00 2.47332901e-19 0.00000000e+00 0.00000000e+00
