# column 1: lambda (micron)
# column 2: total flux; lambda*F_lambda (W/m2)
# column 3: direct stellar flux; lambda*F_lambda (W/m2)
# column 4: scattered stellar flux; lambda*F_lambda (W/m2)
# column 5: total dust emission flux; lambda*F_lambda (W/m2)
# column 6: dust emission scattered flux; lambda*F_lambda (W/m2)
# column 7: transparent flux; lambda*F_lambda (W/m2)
1.00000000e-03 3.57785658e-13 3.57785423e-13 2.34967151e-19 0.00000000e+00 0.00000000e+00 3.57785423e-13
1.14815362e-03 4.22301868e-13 4.22301518e-13 3.49269300e-19 0.00000000e+00 0.00000000e+00 4.22301518e-13
1.31825674e-03 4.98451766e-13 4.98451197e-13 5.69645860e-19 0.00000000e+00 0.00000000e+00 4.98451197e-13
1.51356125e-03 5.88333187e-13 5.88332233e-13 9.54195559e-19 0.00000000e+00 0.00000000e+00 5.88332233e-13
1.73780083e-03 6.94422065e-13 6.94420676e-13 1.38995434e-18 0.00000000e+00 0.00000000e+00 6.94420676e-13
1.99526231e-03 8.19642144e-13 8.19639053e-13 3.09051046e-18 0.00000000e+00 0.00000000e+00 8.19639053e-13
2.29086765e-03 9.67441504e-13 9.67436888e-13 4.61617271e-18 0.00000000e+00 0.00000000e+00 9.67436888e-13
2.63026799e-03 1.14189454e-12 1.14188572e-12 8.81668113e-18 0.00000000e+00 0.00000000e+00 1.14188572e-12
3.01995172e-03 1.34780732e-12 1.34779128e-12 1.60405072e-17 0.00000000e+00 0.00000000e+00 1.34779128e-12
3.46736850e-03 1.59085563e-12 1.59082586e-12 2.97676069e-17 0.00000000e+00 0.00000000e+00 1.59082586e-12
3.98107171e-03 1.87772787e-12 1.87768459e-12 4.32746793e-17 0.00000000e+00 0.00000000e+00 1.87768459e-12
4.57088190e-03 2.21636231e-12 2.21626987e-12 9.24360297e-17 0.00000000e+00 0.00000000e+00 2.21626987e-12
5.24807460e-03 2.61608850e-12 2.61590907e-12 1.79433338e-16 0.00000000e+00 0.00000000e+00 2.61590907e-12
6.02559586e-03 3.08790566e-12 3.08761145e-12 2.94208506e-16 0.00000000e+00 0.00000000e+00 3.08761145e-12
6.91830971e-03 3.64487543e-12 3.64437151e-12 5.03917584e-16 0.00000000e+00 0.00000000e+00 3.64437151e-12
7.94328235e-03 4.30239236e-12 4.30152690e-12 8.65464090e-16 1.81568546e-303 3.92348509e-305 4.30152690e-12
9.12010839e-03 5.07849088e-12 5.07718096e-12 1.30991463e-15 8.39051892e-265 2.40132499e-266 5.07718096e-12
1.04712855e-02 5.67225693e-12 5.67051724e-12 1.73968945e-15 3.62782760e-231 4.13333268e-233 5.67051724e-12
1.20226443e-02 5.67297920e-12 5.67051724e-12 2.46195769e-15 5.95401929e-202 1.40298664e-203 5.67051724e-12
1.38038426e-02 5.67450033e-12 5.67051724e-12 3.98309551e-15 1.67996788e-176 4.82975042e-178 5.67051724e-12
1.58489319e-02 5.68431021e-12 5.67051724e-12 1.37929741e-14 2.32484544e-154 6.32131796e-156 5.67051724e-12
1.81970086e-02 5.67833781e-12 5.67051724e-12 7.82057252e-15 4.25016710e-135 1.30263190e-136 5.67051724e-12
2.08929613e-02 5.68132010e-12 5.67051724e-12 1.08028578e-14 2.26982551e-118 7.70338745e-120 5.67051724e-12
2.39883292e-02 5.68454568e-12 5.67051724e-12 1.40284411e-14 8.11544444e-104 3.16158486e-105 5.67051724e-12
2.75422870e-02 5.69043842e-12 5.67051724e-12 1.99211830e-14 3.68382188e-91 1.49307270e-92 5.67051724e-12
3.16227766e-02 5.69362736e-12 5.67051724e-12 2.31101183e-14 3.62727820e-80 1.52148246e-81 5.67051724e-12
3.63078055e-02 5.69627630e-12 5.67051724e-12 2.57590644e-14 1.26844324e-70 5.32776138e-72 5.67051724e-12
4.16869383e-02 5.70446939e-12 5.67051724e-12 3.39521536e-14 2.43987161e-62 1.20396171e-63 5.67051724e-12
4.78630092e-02 5.71099561e-12 5.67051724e-12 4.04783735e-14 3.71361138e-55 2.07591570e-56 5.67051724e-12
5.49540874e-02 5.71525042e-12 5.67051724e-12 4.47331825e-14 6.17779253e-49 3.74333957e-50 5.67051724e-12
6.30957344e-02 5.71997484e-12 5.67051724e-12 4.94576022e-14 1.98008010e-43 1.24835690e-44 5.67051724e-12
7.24435960e-02 5.71442898e-12 5.67051724e-12 4.39117402e-14 1.13193311e-38 6.48046039e-40 5.67051724e-12
8.31763771e-02 5.71629292e-12 5.67051724e-12 4.57756788e-14 1.16731940e-34 6.57980273e-36 5.67051724e-12
9.54992586e-02 5.71592486e-12 5.67051724e-12 4.54076200e-14 3.30890420e-31 1.90096908e-32 5.67051724e-12
1.09647820e-01 5.46296602e-12 5.41530405e-12 4.76619713e-14 2.85057974e-28 1.77497157e-29 5.41530405e-12
1.25892541e-01 5.09567305e-12 5.05385580e-12 4.18172579e-14 9.36236561e-26 5.83734112e-27 5.05385580e-12
1.44543977e-01 4.75403470e-12 4.71653266e-12 3.75020463e-14 1.29106662e-23 7.98354018e-25 4.71653266e-12
1.65958691e-01 4.44065584e-12 4.40172439e-12 3.89314560e-14 6.57485975e-22 4.32924091e-23 4.40172439e-12
1.90546072e-01 4.14878987e-12 4.10792822e-12 4.08616432e-14 1.38211772e-20 1.02264758e-21 4.10792822e-12
2.18776162e-01 3.87203917e-12 3.83374167e-12 3.82973324e-14 1.62445192e-19 1.21901993e-20 3.83374167e-12
2.51188643e-01 3.61831393e-12 3.57785591e-12 4.04560367e-14 1.98780184e-18 1.75268998e-19 3.57785591e-12
2.88403150e-01 3.37620074e-12 3.33904941e-12 3.71346805e-14 1.66495735e-17 1.42709699e-18 3.33904941e-12
3.31131121e-01 3.14976294e-12 3.11618222e-12 3.34848159e-14 9.59044079e-17 7.96926845e-18 3.11618222e-12
3.80189396e-01 2.93897888e-12 2.90819046e-12 3.03877431e-14 4.00677975e-16 3.18307348e-17 2.90819046e-12
4.36515832e-01 2.74294832e-12 2.71408126e-12 2.75952188e-14 1.27184108e-15 9.87852006e-17 2.71408126e-12
5.01187234e-01 2.56074387e-12 2.53292801e-12 2.46354477e-14 3.18041908e-15 2.39828851e-16 2.53292801e-12
5.75439937e-01 2.39212927e-12 2.36386595e-12 2.17343871e-14 6.52892314e-15 4.68162794e-16 2.36386595e-12
6.60693448e-01 2.23713217e-12 2.20608807e-12 1.96087044e-14 1.14353966e-14 7.98498024e-16 2.20608807e-12
7.58577575e-01 2.09406408e-12 2.05884118e-12 1.74672409e-14 1.77556563e-14 1.18092732e-15 2.05884118e-12
8.70963590e-01 1.96162858e-12 1.92142238e-12 1.51171728e-14 2.50890246e-14 1.57996142e-15 1.92142238e-12
1.00000000e+00 1.83819212e-12 1.79317570e-12 1.19564906e-14 3.30599279e-14 1.99413475e-15 1.79317570e-12
1.14815362e+00 1.72599474e-12 1.67348894e-12 9.71975764e-15 4.27860497e-14 2.44623700e-15 1.67348894e-12
1.31825674e+00 1.62615607e-12 1.56179075e-12 8.02458624e-15 5.63407375e-14 2.98409435e-15 1.56179075e-12
1.51356125e+00 1.54088825e-12 1.45754793e-12 6.44279381e-15 7.68975200e-14 3.85638095e-15 1.45754793e-12
1.73780083e+00 1.47194077e-12 1.36026288e-12 4.88007437e-15 1.06797818e-13 4.88892599e-15 1.36026288e-12
1.99526231e+00 1.41913605e-12 1.26947118e-12 3.68591829e-15 1.45978956e-13 5.75163566e-15 1.26947118e-12
2.29086765e+00 1.37850869e-12 1.18473944e-12 2.43023481e-15 1.91339017e-13 6.12973032e-15 1.18473944e-12
2.63026799e+00 1.34363843e-12 1.10566318e-12 1.55704912e-15 2.36418206e-13 5.99958188e-15 1.10566318e-12
3.01995172e+00 1.30793196e-12 1.03186491e-12 1.17456070e-15 2.74892485e-13 5.28576985e-15 1.03186491e-12
3.46736850e+00 1.26369864e-12 9.62992369e-13 8.27585780e-16 2.99878681e-13 4.39779858e-15 9.62992369e-13
3.98107171e+00 1.20975515e-12 8.98716770e-13 5.21155834e-16 3.10517224e-13 3.36424243e-15 8.98716770e-13
4.57088190e+00 1.14417011e-12 8.38731291e-13 3.72378588e-16 3.05066443e-13 2.38201094e-15 8.38731291e-13
5.24807460e+00 9.81028594e-13 6.93502223e-13 1.91449671e-16 2.87334922e-13 1.57564955e-15 6.93502223e-13
6.02559586e+00 7.23151715e-13 4.58192375e-13 8.74564492e-17 2.64871884e-13 9.61370031e-16 4.58192375e-13
6.70000000e+00 5.77443013e-13 3.33290895e-13 4.38582242e-17 2.44108259e-13 6.23444457e-16 3.33290895e-13
6.92422916e+00 5.39183144e-13 3.01948975e-13 3.58997430e-17 2.37198270e-13 5.43072207e-16 3.01948975e-13
7.15596261e+00 5.06395517e-13 2.73554377e-13 2.84679066e-17 2.32812672e-13 4.63795722e-16 2.73554377e-13
7.39545150e+00 4.81780552e-13 2.47829944e-13 2.18901458e-17 2.33928718e-13 3.96989143e-16 2.47829944e-13
7.64295536e+00 4.75314796e-13 2.24524577e-13 1.49491623e-17 2.50775269e-13 3.26113771e-16 2.24524577e-13
7.89874245e+00 4.96953197e-13 2.03410795e-13 9.40183371e-18 2.93533000e-13 2.65328548e-16 2.03410795e-13
8.16308998e+00 5.40277221e-13 1.84282505e-13 5.37411101e-18 3.55989342e-13 2.11915737e-16 1.84282505e-13
8.43628443e+00 6.09628207e-13 1.66952996e-13 2.95750550e-18 4.42672254e-13 1.62500186e-16 1.66952996e-13
8.71862190e+00 6.57120686e-13 1.51253114e-13 1.88382770e-18 5.05865688e-13 1.26553493e-16 1.51253114e-13
9.01040836e+00 7.09342409e-13 1.37029614e-13 1.28023650e-18 5.72311515e-13 9.47488790e-17 1.37029614e-13
9.31196005e+00 7.48257725e-13 1.24143660e-13 0.00000000e+00 6.24114065e-13 0.00000000e+00 1.24143660e-13
9.62360379e+00 7.33766520e-13 1.12469472e-13 0.00000000e+00 6.21297048e-13 0.00000000e+00 1.12469472e-13
9.94567731e+00 6.81348987e-13 1.01893097e-13 0.00000000e+00 5.79455890e-13 0.00000000e+00 1.01893097e-13
1.02785297e+01 6.15444164e-13 9.23113014e-14 0.00000000e+00 5.23132863e-13 0.00000000e+00 9.23113014e-14
1.06225216e+01 5.51631547e-13 8.36305558e-14 0.00000000e+00 4.68000991e-13 0.00000000e+00 8.36305558e-14
1.09780260e+01 4.86637299e-13 7.57661279e-14 0.00000000e+00 4.10871171e-13 0.00000000e+00 7.57661279e-14
1.13454280e+01 4.30827091e-13 6.86412529e-14 0.00000000e+00 3.62185838e-13 0.00000000e+00 6.86412529e-14
1.17251259e+01 3.82500042e-13 6.21863851e-14 0.00000000e+00 3.20313657e-13 0.00000000e+00 6.21863851e-14
1.21175312e+01 3.39463968e-13 5.63385184e-14 0.00000000e+00 2.83125449e-13 0.00000000e+00 5.63385184e-14
1.25230691e+01 3.02277665e-13 5.10405718e-14 0.00000000e+00 2.51237093e-13 0.00000000e+00 5.10405718e-14
1.29421791e+01 2.70675914e-13 4.62408321e-14 0.00000000e+00 2.24435082e-13 0.00000000e+00 4.62408321e-14
1.33753155e+01 2.43266961e-13 4.18924490e-14 0.00000000e+00 2.01374512e-13 0.00000000e+00 4.18924490e-14
1.38229477e+01 2.25143261e-13 3.79529781e-14 0.00000000e+00 1.87190283e-13 0.00000000e+00 3.79529781e-14
1.42855609e+01 2.13072672e-13 3.43839660e-14 0.00000000e+00 1.78688706e-13 0.00000000e+00 3.43839660e-14
1.47636563e+01 2.11542998e-13 3.11505758e-14 0.00000000e+00 1.80392423e-13 0.00000000e+00 3.11505758e-14
1.52577522e+01 2.13285455e-13 2.82212462e-14 0.00000000e+00 1.85064208e-13 0.00000000e+00 2.82212462e-14
1.57683840e+01 2.16191437e-13 2.55673842e-14 0.00000000e+00 1.90624053e-13 0.00000000e+00 2.55673842e-14
1.62961051e+01 2.20011605e-13 2.31630853e-14 0.00000000e+00 1.96848520e-13 0.00000000e+00 2.31630853e-14
1.68414875e+01 2.23816080e-13 2.09848813e-14 0.00000000e+00 2.02831198e-13 0.00000000e+00 2.09848813e-14
1.74051222e+01 2.25361491e-13 1.90115106e-14 0.00000000e+00 2.06349980e-13 0.00000000e+00 1.90115106e-14
1.79876201e+01 2.24110797e-13 1.72237112e-14 0.00000000e+00 2.06887086e-13 0.00000000e+00 1.72237112e-14
1.85896125e+01 2.19572169e-13 1.56040325e-14 0.00000000e+00 2.03968136e-13 0.00000000e+00 1.56040325e-14
1.92117518e+01 2.11599979e-13 1.41366646e-14 0.00000000e+00 1.97463314e-13 0.00000000e+00 1.41366646e-14
1.98547123e+01 2.02954426e-13 1.28072847e-14 0.00000000e+00 1.90147142e-13 0.00000000e+00 1.28072847e-14
2.05191907e+01 1.92634199e-13 1.16029167e-14 0.00000000e+00 1.81031282e-13 0.00000000e+00 1.16029167e-14
2.12059073e+01 1.83883750e-13 1.05118047e-14 0.00000000e+00 1.73371945e-13 0.00000000e+00 1.05118047e-14
2.19156062e+01 1.76348469e-13 9.52329842e-15 0.00000000e+00 1.66825171e-13 0.00000000e+00 9.52329842e-15
2.26490567e+01 1.69142046e-13 8.62774902e-15 0.00000000e+00 1.60514297e-13 0.00000000e+00 8.62774902e-15
2.34070535e+01 1.62835083e-13 7.81641505e-15 0.00000000e+00 1.55018667e-13 0.00000000e+00 7.81641505e-15
2.41904183e+01 1.56997364e-13 7.08137710e-15 0.00000000e+00 1.49915987e-13 0.00000000e+00 7.08137710e-15
2.50000000e+01 1.51917474e-13 6.41546044e-15 0.00000000e+00 1.45502013e-13 0.00000000e+00 6.41546044e-15
2.75422870e+01 1.37568371e-13 4.79786316e-15 0.00000000e+00 1.32770508e-13 0.00000000e+00 4.79786316e-15
3.16227766e+01 1.19878000e-13 3.16991676e-15 0.00000000e+00 1.16708084e-13 0.00000000e+00 3.16991676e-15
3.63078055e+01 1.01662471e-13 2.09434323e-15 0.00000000e+00 9.95681280e-14 0.00000000e+00 2.09434323e-15
4.16869383e+01 8.20825647e-14 1.38371885e-15 0.00000000e+00 8.06988458e-14 0.00000000e+00 1.38371885e-15
4.78630092e+01 6.28231422e-14 9.14213979e-16 0.00000000e+00 6.19089282e-14 0.00000000e+00 9.14213979e-16
5.49540874e+01 4.56565067e-14 6.04015186e-16 0.00000000e+00 4.50524915e-14 0.00000000e+00 6.04015186e-16
6.30957344e+01 3.16559843e-14 3.99068876e-16 0.00000000e+00 3.12569154e-14 0.00000000e+00 3.99068876e-16
7.24435960e+01 2.10449918e-14 2.63662192e-16 0.00000000e+00 2.07813296e-14 0.00000000e+00 2.63662192e-16
8.31763771e+01 1.34927510e-14 1.74199882e-16 0.00000000e+00 1.33185511e-14 0.00000000e+00 1.74199882e-16
9.54992586e+01 8.39396378e-15 1.15092721e-16 0.00000000e+00 8.27887105e-15 0.00000000e+00 1.15092721e-16
1.09647820e+02 5.08646291e-15 7.60410067e-17 0.00000000e+00 5.01042190e-15 0.00000000e+00 7.60410067e-17
1.25892541e+02 3.04650394e-15 5.02397949e-17 0.00000000e+00 2.99626414e-15 0.00000000e+00 5.02397949e-17
1.44543977e+02 1.79620148e-15 3.31931033e-17 0.00000000e+00 1.76300838e-15 0.00000000e+00 3.31931033e-17
1.65958691e+02 1.00274599e-15 2.19304659e-17 0.00000000e+00 9.80815525e-16 0.00000000e+00 2.19304659e-17
1.90546072e+02 5.55740897e-16 1.44893151e-17 0.00000000e+00 5.41251582e-16 0.00000000e+00 1.44893151e-17
2.18776162e+02 3.05554747e-16 9.57299556e-18 0.00000000e+00 2.95981751e-16 0.00000000e+00 9.57299556e-18
2.51188643e+02 1.66573623e-16 6.32481544e-18 0.00000000e+00 1.60248807e-16 0.00000000e+00 6.32481544e-18
2.88403150e+02 9.00513482e-17 4.17876412e-18 0.00000000e+00 8.58725841e-17 0.00000000e+00 4.17876412e-18
3.31131121e+02 4.84312097e-17 2.76088208e-18 0.00000000e+00 4.56703277e-17 0.00000000e+00 2.76088208e-18
3.80189396e+02 2.59213681e-17 1.82409670e-18 0.00000000e+00 2.40972714e-17 0.00000000e+00 1.82409670e-18
4.36515832e+02 1.38427626e-17 1.20516874e-18 0.00000000e+00 1.26375939e-17 0.00000000e+00 1.20516874e-18
5.01187234e+02 7.38567673e-18 7.96247089e-19 0.00000000e+00 6.58942964e-18 0.00000000e+00 7.96247089e-19
5.75439937e+02 3.94515258e-18 5.26075235e-19 0.00000000e+00 3.41907734e-18 0.00000000e+00 5.26075235e-19
6.60693448e+02 2.11426329e-18 3.47574461e-19 0.00000000e+00 1.76668883e-18 0.00000000e+00 3.47574461e-19
7.58577575e+02 1.13921625e-18 2.29640169e-19 0.00000000e+00 9.09576085e-19 0.00000000e+00 2.29640169e-19
8.70963590e+02 6.18427933e-19 1.51721755e-19 0.00000000e+00 4.66706178e-19 0.00000000e+00 1.51721755e-19
1.00000000e+03 2.38742866e-19 0.00000000e+00 0.00000000e+00 2.38742866e-19 0.00000000e+00 0.00000000e+00
