# column 1: lambda (micron)
# column 2: total flux; lambda*F_lambda (W/m2)
# column 3: direct stellar flux; lambda*F_lambda (W/m2)
# column 4: scattered stellar flux; lambda*F_lambda (W/m2)
# column 5: total dust emission flux; lambda*F_lambda (W/m2)
# column 6: dust emission scattered flux; lambda*F_lambda (W/m2)
# column 7: transparent flux; lambda*F_lambda (W/m2)
1.00000000e-03 1.04598707e-12 1.04598175e-12 5.32040389e-18 0.00000000e+00 0.00000000e+00 1.04634360e-12
1.14815362e-03 1.23446475e-12 1.23445670e-12 8.04335512e-18 0.00000000e+00 0.00000000e+00 1.23502095e-12
1.31825674e-03 1.45688646e-12 1.45687401e-12 1.24475040e-17 0.00000000e+00 0.00000000e+00 1.45772071e-12
1.51356125e-03 1.71941852e-12 1.71939966e-12 1.88580781e-17 0.00000000e+00 0.00000000e+00 1.72057784e-12
1.73780083e-03 2.02946259e-12 2.02942853e-12 3.40535644e-17 0.00000000e+00 0.00000000e+00 2.03083353e-12
1.99526231e-03 2.39489530e-12 2.39483629e-12 5.90090891e-17 0.00000000e+00 0.00000000e+00 2.39703472e-12
2.29086765e-03 2.82661160e-12 2.82651797e-12 9.36281056e-17 0.00000000e+00 0.00000000e+00 2.82926954e-12
2.63026799e-03 3.33574272e-12 3.33555366e-12 1.89054933e-16 0.00000000e+00 0.00000000e+00 3.33944522e-12
3.01995172e-03 3.93624938e-12 3.93593599e-12 3.13393652e-16 0.00000000e+00 0.00000000e+00 3.94161611e-12
3.46736850e-03 4.64499042e-12 4.64446962e-12 5.20808571e-16 0.00000000e+00 0.00000000e+00 4.65237083e-12
3.98107171e-03 5.48144556e-12 5.48061553e-12 8.30034786e-16 0.00000000e+00 0.00000000e+00 5.49128930e-12
4.57088190e-03 6.47495266e-12 6.47307559e-12 1.87706879e-15 0.00000000e+00 0.00000000e+00 6.48148207e-12
5.24807460e-03 7.64096807e-12 7.63755612e-12 3.41194369e-15 0.00000000e+00 0.00000000e+00 7.65022704e-12
6.02559586e-03 9.02015675e-12 9.01169105e-12 8.46570079e-15 0.00000000e+00 0.00000000e+00 9.02972084e-12
6.91830971e-03 1.06479291e-11 1.06334086e-11 1.45205284e-14 0.00000000e+00 0.00000000e+00 1.06579658e-11
7.94328235e-03 1.25743782e-11 1.25474834e-11 2.68948189e-14 4.29562427e-304 2.11783328e-306 1.25798170e-11
9.12010839e-03 1.48400948e-11 1.48058731e-11 3.42217441e-14 1.91998471e-265 1.13153542e-267 1.48482176e-11
1.04712855e-02 1.66002255e-11 1.65331211e-11 6.71043677e-14 8.33177194e-232 1.31008291e-233 1.65834298e-11
1.20226443e-02 1.66088459e-11 1.65301568e-11 7.86891063e-14 1.32840060e-202 2.62825200e-204 1.65834298e-11
1.38038426e-02 1.66479942e-11 1.65266414e-11 1.21352840e-13 3.65516434e-177 6.56653867e-179 1.65834298e-11
1.58489319e-02 1.66549694e-11 1.65223223e-11 1.32647119e-13 5.01922398e-155 1.16929649e-156 1.65834298e-11
1.81970086e-02 1.66895217e-11 1.65183398e-11 1.71181911e-13 9.07937068e-136 2.64425627e-137 1.65834298e-11
2.08929613e-02 1.67494188e-11 1.65150301e-11 2.34388702e-13 4.80427937e-119 1.68578895e-120 1.65834298e-11
2.39883292e-02 1.68246645e-11 1.65107429e-11 3.13921577e-13 1.70945674e-104 7.45857330e-106 1.65834298e-11
2.75422870e-02 1.68945929e-11 1.65057576e-11 3.88835389e-13 7.76968239e-92 4.26360710e-93 1.65834298e-11
3.16227766e-02 1.69636376e-11 1.65008723e-11 4.62765347e-13 7.67750858e-81 4.96800901e-82 1.65834298e-11
3.63078055e-02 1.70128892e-11 1.64970415e-11 5.15847629e-13 2.68622678e-71 1.90358927e-72 1.65834298e-11
4.16869383e-02 1.71656107e-11 1.64937289e-11 6.71881764e-13 5.19418505e-63 4.53626102e-64 1.65834298e-11
4.78630092e-02 1.72696218e-11 1.64846013e-11 7.85020481e-13 7.95953821e-56 8.20123205e-57 1.65834298e-11
5.49540874e-02 1.73302928e-11 1.64719160e-11 8.58376825e-13 1.32772710e-49 1.45579202e-50 1.65834298e-11
6.30957344e-02 1.72798748e-11 1.64401504e-11 8.39724451e-13 4.27604841e-44 4.79471422e-45 1.65834298e-11
7.24435960e-02 1.71019815e-11 1.64026029e-11 6.99378571e-13 2.44302967e-39 2.42189416e-40 1.65834298e-11
8.31763771e-02 1.70791230e-11 1.64059406e-11 6.73182353e-13 2.50276304e-35 2.44218086e-36 1.65834298e-11
9.54992586e-02 1.71054168e-11 1.64157338e-11 6.89682965e-13 7.07078771e-32 7.00076316e-33 1.65834298e-11
1.09647820e-01 1.64693576e-11 1.57039011e-11 7.65456502e-13 6.07706817e-29 6.71485749e-30 1.58370587e-11
1.25892541e-01 1.54645722e-11 1.46776337e-11 7.86938516e-13 1.98220537e-26 2.24210973e-27 1.47800032e-11
1.44543977e-01 1.44541353e-11 1.37142685e-11 7.39866767e-13 2.70351565e-24 2.99960974e-25 1.37935015e-11
1.65958691e-01 1.35639777e-11 1.28081531e-11 7.55824607e-13 1.38100779e-22 1.68184484e-23 1.28728446e-11
1.90546072e-01 1.27094219e-11 1.19492388e-11 7.60183064e-13 2.91477405e-21 3.87521381e-22 1.20136376e-11
2.18776162e-01 1.18044101e-11 1.11413121e-11 6.63097994e-13 3.43645118e-20 4.55691184e-21 1.12117790e-11
2.51188643e-01 1.11499821e-11 1.04108141e-11 7.39167561e-13 4.20277562e-19 6.39945850e-20 1.04634409e-11
2.88403150e-01 1.04339095e-11 9.72425722e-12 7.09648797e-13 3.51621819e-18 5.41739243e-19 9.76505125e-12
3.31131121e-01 9.74874295e-12 9.08007967e-12 6.68643111e-13 2.01711424e-17 3.06082749e-18 9.11327608e-12
3.80189396e-01 9.09713800e-12 8.47779227e-12 6.19261079e-13 8.46573121e-17 1.27896280e-17 8.50500410e-12
4.36515832e-01 8.47531345e-12 7.91522494e-12 5.59811820e-13 2.76694298e-16 4.33822566e-17 7.93733165e-12
5.01187234e-01 7.90349033e-12 7.38983271e-12 5.12872378e-13 7.85242109e-16 1.42465715e-16 7.40754890e-12
5.75439937e-01 7.35538786e-12 6.89907582e-12 4.53960447e-13 2.35159463e-15 5.52579046e-16 6.91312687e-12
6.60693448e-01 6.84902729e-12 6.44065778e-12 4.00361663e-13 8.00784272e-15 2.29767964e-15 6.45170538e-12
7.58577575e-01 6.39215895e-12 6.01250132e-12 3.51633320e-13 2.80243078e-14 8.61871211e-15 6.02108180e-12
8.70963590e-01 5.99748613e-12 5.61268387e-12 2.95766372e-13 8.90358845e-14 2.70052947e-14 5.61920048e-12
1.00000000e+00 5.72923357e-12 5.23927385e-12 2.47814062e-13 2.42145659e-13 6.89437521e-14 5.24414302e-12
1.14815362e+00 5.66118349e-12 4.89054550e-12 1.97685368e-13 5.72952623e-13 1.46256300e-13 4.89411902e-12
1.31825674e+00 5.92756422e-12 4.56488059e-12 1.52719142e-13 1.20996449e-12 2.71989167e-13 4.56745763e-12
1.51356125e+00 6.63989528e-12 4.26075985e-12 1.16815797e-13 2.26231963e-12 4.33575367e-13 4.26259947e-12
1.73780083e+00 7.81909109e-12 3.97679744e-12 9.10815659e-14 3.75121209e-12 6.08474579e-13 3.97808929e-12
1.99526231e+00 9.33447175e-12 3.71167599e-12 6.78555947e-14 5.55494016e-12 7.27590893e-13 3.71256894e-12
2.29086765e+00 1.10016214e-11 3.46415563e-12 5.04606769e-14 7.48700506e-12 7.77141101e-13 3.46477093e-12
2.63026799e+00 1.25811900e-11 3.23308442e-12 3.71330026e-14 9.31097256e-12 7.51158409e-13 3.23351237e-12
3.01995172e+00 1.38818504e-11 3.01738785e-12 2.68088833e-14 1.08376537e-11 6.62490840e-13 3.01768933e-12
3.46736850e+00 1.48358857e-11 2.81605570e-12 1.92609876e-14 1.20005691e-11 5.48454970e-13 2.81627154e-12
3.98107171e+00 1.52977445e-11 2.62814102e-12 1.33982254e-14 1.26562052e-11 4.23555961e-13 2.62829753e-12
4.57088190e+00 1.53677938e-11 2.45275494e-12 9.07689230e-15 1.29059619e-11 3.07862898e-13 2.45286997e-12
5.24807460e+00 1.48972496e-11 2.02807110e-12 5.21157290e-15 1.28639669e-11 2.08788011e-13 2.02814751e-12
6.02559586e+00 1.39988243e-11 1.33994182e-12 2.30204542e-15 1.26565804e-11 1.35262582e-13 1.33998377e-12
6.70000000e+00 1.33797365e-11 9.74682337e-13 1.17650707e-15 1.24038777e-11 9.22245580e-14 9.74709347e-13
6.92422916e+00 1.32183185e-11 8.83026276e-13 9.48717310e-16 1.23343435e-11 8.14121117e-14 8.83049889e-13
7.15596261e+00 1.30742755e-11 7.99988860e-13 7.55439163e-16 1.22735312e-11 7.09810714e-14 8.00009879e-13
7.39545150e+00 1.30787311e-11 7.24759266e-13 5.75353845e-16 1.23533965e-11 6.06764856e-14 7.24778763e-13
7.64295536e+00 1.34733552e-11 6.56602086e-13 3.98246404e-16 1.28163548e-11 4.97844598e-14 6.56622211e-13
7.89874245e+00 1.43452477e-11 5.94851390e-13 2.40977902e-16 1.37501553e-11 3.82736647e-14 5.94874946e-13
8.16308998e+00 1.54880976e-11 5.38905438e-13 1.37650873e-16 1.49490545e-11 2.85804777e-14 5.38934254e-13
8.43628443e+00 1.68329351e-11 4.88217829e-13 7.44087225e-17 1.63446429e-11 2.07798259e-14 4.88254098e-13
8.71862190e+00 1.75907398e-11 4.42299415e-13 4.59421473e-17 1.71483944e-11 1.60123237e-14 4.42339790e-13
9.01040836e+00 1.81684071e-11 4.00698847e-13 2.72762515e-17 1.77676809e-11 1.21257195e-14 4.00743158e-13
9.31196005e+00 1.87390162e-11 3.63011620e-13 0.00000000e+00 1.83760046e-11 0.00000000e+00 3.63058180e-13
9.62360379e+00 1.86313751e-11 3.28873719e-13 0.00000000e+00 1.83025014e-11 0.00000000e+00 3.28917012e-13
9.94567731e+00 1.79688706e-11 2.97949599e-13 0.00000000e+00 1.76709210e-11 0.00000000e+00 2.97986401e-13
1.02785297e+01 1.74216523e-11 2.69934273e-13 0.00000000e+00 1.71517181e-11 0.00000000e+00 2.69964435e-13
1.06225216e+01 1.67340858e-11 2.44553136e-13 0.00000000e+00 1.64895327e-11 0.00000000e+00 2.44577592e-13
1.09780260e+01 1.59800144e-11 2.21558956e-13 0.00000000e+00 1.57584555e-11 0.00000000e+00 2.21578069e-13
1.13454280e+01 1.54640596e-11 2.00726372e-13 0.00000000e+00 1.52633332e-11 0.00000000e+00 2.00741370e-13
1.17251259e+01 1.49389156e-11 1.81852262e-13 0.00000000e+00 1.47570633e-11 0.00000000e+00 1.81864106e-13
1.21175312e+01 1.44775324e-11 1.64752712e-13 0.00000000e+00 1.43127797e-11 0.00000000e+00 1.64762018e-13
1.25230691e+01 1.39845996e-11 1.49260879e-13 0.00000000e+00 1.38353387e-11 0.00000000e+00 1.49268171e-13
1.29421791e+01 1.36164599e-11 1.35225577e-13 0.00000000e+00 1.34812343e-11 0.00000000e+00 1.35231331e-13
1.33753155e+01 1.31704988e-11 1.22509911e-13 0.00000000e+00 1.30479889e-11 0.00000000e+00 1.22514483e-13
1.38229477e+01 1.29159153e-11 1.10989697e-13 0.00000000e+00 1.28049256e-11 0.00000000e+00 1.10993499e-13
1.42855609e+01 1.28672045e-11 1.00552618e-13 0.00000000e+00 1.27666519e-11 0.00000000e+00 1.00555922e-13
1.47636563e+01 1.30128656e-11 9.10967352e-14 0.00000000e+00 1.29217689e-11 0.00000000e+00 9.10998706e-14
1.52577522e+01 1.32988374e-11 8.25300157e-14 0.00000000e+00 1.32163073e-11 0.00000000e+00 8.25330452e-14
1.57683840e+01 1.36415409e-11 7.47688599e-14 0.00000000e+00 1.35667721e-11 0.00000000e+00 7.47718247e-14
1.62961051e+01 1.39124181e-11 6.77375538e-14 0.00000000e+00 1.38446805e-11 0.00000000e+00 6.77404517e-14
1.68414875e+01 1.41431299e-11 6.13674670e-14 0.00000000e+00 1.40817624e-11 0.00000000e+00 6.13702932e-14
1.74051222e+01 1.42859404e-11 5.55964861e-14 0.00000000e+00 1.42303440e-11 0.00000000e+00 5.55991699e-14
1.79876201e+01 1.43665772e-11 5.03682441e-14 0.00000000e+00 1.43162090e-11 0.00000000e+00 5.03707500e-14
1.85896125e+01 1.42857004e-11 4.56317315e-14 0.00000000e+00 1.42400687e-11 0.00000000e+00 4.56339988e-14
1.92117518e+01 1.42003010e-11 4.13406895e-14 0.00000000e+00 1.41589603e-11 0.00000000e+00 4.13426810e-14
1.98547123e+01 1.39715001e-11 3.74531938e-14 0.00000000e+00 1.39340469e-11 0.00000000e+00 3.74549090e-14
2.05191907e+01 1.37305668e-11 3.39312720e-14 0.00000000e+00 1.36966355e-11 0.00000000e+00 3.39327342e-14
2.12059073e+01 1.34011543e-11 3.07405304e-14 0.00000000e+00 1.33704138e-11 0.00000000e+00 3.07417768e-14
2.19156062e+01 1.31108334e-11 2.78498221e-14 0.00000000e+00 1.30829836e-11 0.00000000e+00 2.78508898e-14
2.26490567e+01 1.27937700e-11 2.52309393e-14 0.00000000e+00 1.27685390e-11 0.00000000e+00 2.52318552e-14
2.34070535e+01 1.24298816e-11 2.28583215e-14 0.00000000e+00 1.24070233e-11 0.00000000e+00 2.28591087e-14
2.41904183e+01 1.20762742e-11 2.07088116e-14 0.00000000e+00 1.20555654e-11 0.00000000e+00 2.07094900e-14
2.50000000e+01 1.16846141e-11 1.87614306e-14 0.00000000e+00 1.16658526e-11 0.00000000e+00 1.87620165e-14
2.75422870e+01 1.04590228e-11 1.40309706e-14 0.00000000e+00 1.04449918e-11 0.00000000e+00 1.40313526e-14
3.16227766e+01 8.54621418e-12 9.27021284e-15 0.00000000e+00 8.53694396e-12 0.00000000e+00 9.27042274e-15
3.63078055e+01 6.56738603e-12 6.12479285e-15 0.00000000e+00 6.56126124e-12 0.00000000e+00 6.12490756e-15
4.16869383e+01 4.68346607e-12 4.04662526e-15 0.00000000e+00 4.67941945e-12 0.00000000e+00 4.04668630e-15
4.78630092e+01 3.13346033e-12 2.67358766e-15 0.00000000e+00 3.13078674e-12 0.00000000e+00 2.67361912e-15
5.49540874e+01 1.97831750e-12 1.76642676e-15 0.00000000e+00 1.97655107e-12 0.00000000e+00 1.76644264e-15
6.30957344e+01 1.19025836e-12 1.16706917e-15 0.00000000e+00 1.18909129e-12 0.00000000e+00 1.16707708e-15
7.24435960e+01 6.89079733e-13 7.71076266e-16 0.00000000e+00 6.88308657e-13 0.00000000e+00 7.71080178e-16
8.31763771e+01 3.87944141e-13 5.09445690e-16 0.00000000e+00 3.87434695e-13 0.00000000e+00 5.09447621e-16
9.54992586e+01 2.14160343e-13 3.36587750e-16 0.00000000e+00 2.13823756e-13 0.00000000e+00 3.36588705e-16
1.09647820e+02 1.16576732e-13 2.22381478e-16 0.00000000e+00 1.16354351e-13 0.00000000e+00 2.22381952e-16
1.25892541e+02 6.34802733e-14 1.46926060e-16 0.00000000e+00 6.33333473e-14 0.00000000e+00 1.46926299e-16
1.44543977e+02 3.44261225e-14 9.70731215e-17 0.00000000e+00 3.43290494e-14 0.00000000e+00 9.70732430e-17
1.65958691e+02 1.78167019e-14 6.41355960e-17 0.00000000e+00 1.77525663e-14 0.00000000e+00 6.41356556e-17
1.90546072e+02 9.24028707e-15 4.23739780e-17 0.00000000e+00 9.19791309e-15 0.00000000e+00 4.23740075e-17
2.18776162e+02 4.79025964e-15 2.79962144e-17 0.00000000e+00 4.76226342e-15 0.00000000e+00 2.79962291e-17
2.51188643e+02 2.47841308e-15 1.84969178e-17 0.00000000e+00 2.45991616e-15 0.00000000e+00 1.84969251e-17
2.88403150e+02 1.27799329e-15 1.22207936e-17 0.00000000e+00 1.26577249e-15 0.00000000e+00 1.22207972e-17
3.31131121e+02 6.58097259e-16 8.07419883e-18 0.00000000e+00 6.50023061e-16 0.00000000e+00 8.07420067e-18
3.80189396e+02 3.38088515e-16 5.33457056e-18 0.00000000e+00 3.32753945e-16 0.00000000e+00 5.33457148e-18
4.36515832e+02 1.73544233e-16 3.52451596e-18 0.00000000e+00 1.70019718e-16 0.00000000e+00 3.52451642e-18
5.01187234e+02 8.90086945e-17 2.32862468e-18 0.00000000e+00 8.66800698e-17 0.00000000e+00 2.32862491e-18
5.75439937e+02 4.56497538e-17 1.53850710e-18 0.00000000e+00 4.41112467e-17 0.00000000e+00 1.53850722e-18
6.60693448e+02 2.34302347e-17 1.01648158e-18 0.00000000e+00 2.24137532e-17 0.00000000e+00 1.01648164e-18
7.58577575e+02 1.20451264e-17 6.71582730e-19 0.00000000e+00 1.13735437e-17 0.00000000e+00 6.71582760e-19
8.70963590e+02 6.20681680e-18 4.43710314e-19 0.00000000e+00 5.76310648e-18 0.00000000e+00 4.43710329e-19
1.00000000e+03 2.91627484e-18 0.00000000e+00 0.00000000e+00 2.91627484e-18 0.00000000e+00 0.00000000e+00
