# column 1: lambda (micron)
# column 2: total flux; lambda*F_lambda (W/m2)
# column 3: direct stellar flux; lambda*F_lambda (W/m2)
# column 4: scattered stellar flux; lambda*F_lambda (W/m2)
# column 5: total dust emission flux; lambda*F_lambda (W/m2)
# column 6: dust emission scattered flux; lambda*F_lambda (W/m2)
# column 7: transparent flux; lambda*F_lambda (W/m2)
1.00000000e-03 6.95409071e-13 6.93993746e-13 1.41532544e-15 0.00000000e+00 0.00000000e+00 6.93993746e-13
1.14815362e-03 8.19175408e-13 8.19135139e-13 4.02693218e-17 0.00000000e+00 0.00000000e+00 8.19135139e-13
1.31825674e-03 9.66851213e-13 9.66842108e-13 9.10496251e-18 0.00000000e+00 0.00000000e+00 9.66842108e-13
1.51356125e-03 1.14119585e-12 1.14118369e-12 1.21571074e-17 0.00000000e+00 0.00000000e+00 1.14118369e-12
1.73780083e-03 1.36387198e-12 1.34696266e-12 1.69093172e-14 0.00000000e+00 0.00000000e+00 1.34696266e-12
1.99526231e-03 1.59001569e-12 1.58984782e-12 1.67867362e-16 0.00000000e+00 0.00000000e+00 1.58984782e-12
2.29086765e-03 1.87662629e-12 1.87653019e-12 9.60976829e-17 0.00000000e+00 0.00000000e+00 1.87653019e-12
2.63026799e-03 2.21505540e-12 2.21490731e-12 1.48084981e-16 0.00000000e+00 0.00000000e+00 2.21490731e-12
3.01995172e-03 2.61467296e-12 2.61430080e-12 3.72153647e-16 0.00000000e+00 0.00000000e+00 2.61430080e-12
3.46736850e-03 3.08745230e-12 3.08571319e-12 1.73910974e-15 0.00000000e+00 0.00000000e+00 3.08571319e-12
3.98107171e-03 3.64277626e-12 3.64213095e-12 6.45307038e-16 0.00000000e+00 0.00000000e+00 3.64213095e-12
4.57088190e-03 4.30133186e-12 4.29888232e-12 2.44953777e-15 0.00000000e+00 0.00000000e+00 4.29888232e-12
5.24807460e-03 5.07880254e-12 5.07405951e-12 4.74302534e-15 0.00000000e+00 0.00000000e+00 5.07405951e-12
6.02559586e-03 6.00316068e-12 5.98901715e-12 1.41435354e-14 0.00000000e+00 0.00000000e+00 5.98901715e-12
6.91830971e-03 7.09094279e-12 7.06896053e-12 2.19822633e-14 0.00000000e+00 0.00000000e+00 7.06896053e-12
7.94328235e-03 8.36185382e-12 8.34363998e-12 1.82138344e-14 3.26687912e-303 1.07290457e-305 8.34363998e-12
9.12010839e-03 9.88933037e-12 9.84817045e-12 4.11599232e-14 1.65366133e-264 2.27948546e-266 9.84817045e-12
1.04712855e-02 1.10598401e-11 1.09990604e-11 6.07796572e-14 7.79524168e-231 5.30671315e-233 1.09990604e-11
1.20226443e-02 1.10653046e-11 1.09990604e-11 6.62441888e-14 1.35551510e-201 1.44873114e-203 1.09990604e-11
1.38038426e-02 1.10864632e-11 1.09990604e-11 8.74027295e-14 4.03044221e-176 4.27919665e-178 1.09990604e-11
1.58489319e-02 1.10932129e-11 1.09990604e-11 9.41524302e-14 5.90875323e-154 9.04144264e-156 1.09990604e-11
1.81970086e-02 1.11023117e-11 1.09990604e-11 1.03251295e-13 1.12748301e-134 1.91193319e-136 1.09990604e-11
2.08929613e-02 1.11133061e-11 1.09990604e-11 1.14245664e-13 6.26551548e-118 1.37870221e-119 1.09990604e-11
2.39883292e-02 1.11341335e-11 1.09990604e-11 1.35073082e-13 2.32149886e-103 6.42441145e-105 1.09990604e-11
2.75422870e-02 1.11528140e-11 1.09990604e-11 1.53753547e-13 1.08941831e-90 3.61917877e-92 1.09990604e-11
3.16227766e-02 1.11726062e-11 1.09990604e-11 1.73545731e-13 1.10797205e-79 4.36418948e-81 1.09990604e-11
3.63078055e-02 1.11855409e-11 1.09990604e-11 1.86480490e-13 3.98062764e-70 1.72879805e-71 1.09990604e-11
4.16869383e-02 1.12189218e-11 1.09990604e-11 2.19861368e-13 7.84841348e-62 4.29937367e-63 1.09990604e-11
4.78630092e-02 1.12518542e-11 1.09990604e-11 2.52793795e-13 1.22480398e-54 8.29383553e-56 1.09990604e-11
5.49540874e-02 1.12689391e-11 1.09990604e-11 2.69878693e-13 2.08556110e-48 1.58478196e-49 1.09990604e-11
6.30957344e-02 1.12844387e-11 1.09990604e-11 2.85378272e-13 6.85218152e-43 5.60604729e-44 1.09990604e-11
7.24435960e-02 1.12621256e-11 1.09990604e-11 2.63065122e-13 4.00156145e-38 3.02655073e-39 1.09990604e-11
8.31763771e-02 1.12532999e-11 1.09990604e-11 2.54239491e-13 4.15458143e-34 3.09182681e-35 1.09990604e-11
9.54992586e-02 1.12539496e-11 1.09990604e-11 2.54889151e-13 1.18765706e-30 9.15007405e-32 1.09990604e-11
1.09647820e-01 1.07682712e-11 1.05040253e-11 2.64245843e-13 1.02541621e-27 8.63825612e-29 1.05040253e-11
1.25892541e-01 1.00584467e-11 9.80292679e-12 2.55519941e-13 3.36537471e-25 2.84580291e-26 9.80292679e-12
1.44543977e-01 9.37678933e-12 9.14862359e-12 2.28165734e-13 4.62903785e-23 3.86438875e-24 9.14862359e-12
1.65958691e-01 8.77150168e-12 8.53799231e-12 2.33509362e-13 2.37126518e-21 2.17385234e-22 8.53799231e-12
1.90546072e-01 8.21149753e-12 7.96811805e-12 2.43379433e-13 5.05082787e-20 5.37914016e-21 7.96811805e-12
2.18776162e-01 7.66093793e-12 7.43628044e-12 2.24656889e-13 6.00406118e-19 6.54618054e-20 7.43628044e-12
2.51188643e-01 7.18441121e-12 6.93994070e-12 2.44463108e-13 7.40778491e-18 9.87424772e-19 6.93994070e-12
2.88403150e-01 6.70894110e-12 6.47672950e-12 2.32149595e-13 6.19960984e-17 8.21910470e-18 6.47672950e-12
3.31131121e-01 6.25830717e-12 6.04443567e-12 2.13515566e-13 3.55936804e-16 4.57875174e-17 6.04443567e-12
3.80189396e-01 5.84007490e-12 5.64099558e-12 1.97591756e-13 1.48756336e-15 1.87678578e-16 5.64099558e-12
4.36515832e-01 5.45192680e-12 5.26448339e-12 1.82726780e-13 4.71662886e-15 5.85886433e-16 5.26448339e-12
5.01187234e-01 5.09192667e-12 4.91310176e-12 1.66961225e-13 1.18636869e-14 1.49515682e-15 4.91310176e-12
5.75439937e-01 4.75901059e-12 4.58517335e-12 1.49123466e-13 2.47137724e-14 3.16080179e-15 4.58517335e-12
6.60693448e-01 4.46045965e-12 4.27913275e-12 1.36564085e-13 4.47628188e-14 5.89836872e-15 4.27913275e-12
7.58577575e-01 4.19217442e-12 3.99351904e-12 1.23333362e-13 7.53220136e-14 1.07609203e-14 3.99351904e-12
8.70963590e-01 3.95849442e-12 3.72696882e-12 1.07759003e-13 1.23766593e-13 1.92427082e-14 3.72696882e-12
1.00000000e+00 3.77538526e-12 3.47820968e-12 9.26976205e-14 2.04477962e-13 3.45293630e-14 3.47820968e-12
1.14815362e+00 3.67260041e-12 3.24605414e-12 7.79582301e-14 3.48588037e-13 5.98979430e-14 3.24605414e-12
1.31825674e+00 3.68578941e-12 3.02939399e-12 6.07237751e-14 5.95671646e-13 9.76073384e-14 3.02939399e-12
1.51356125e+00 3.85235754e-12 2.82719497e-12 4.84829846e-14 9.76679588e-13 1.43975352e-13 2.82719497e-12
1.73780083e+00 4.16534044e-12 2.63849186e-12 3.74876297e-14 1.48936094e-12 1.86553329e-13 2.63849186e-12
1.99526231e+00 4.57184735e-12 2.46238388e-12 2.84706677e-14 2.08099280e-12 2.13355970e-13 2.46238388e-12
2.29086765e+00 4.99295151e-12 2.29803035e-12 2.05426572e-14 2.67437850e-12 2.15016498e-13 2.29803035e-12
2.63026799e+00 5.34594540e-12 2.14464670e-12 1.49081954e-14 3.18639050e-12 1.98785776e-13 2.14464670e-12
3.01995172e+00 5.55174756e-12 2.00150076e-12 1.06396296e-14 3.53960717e-12 1.69170140e-13 2.00150076e-12
3.46736850e+00 5.60681123e-12 1.86790919e-12 7.38973326e-15 3.73151230e-12 1.34050950e-13 1.86790919e-12
3.98107171e+00 5.50867506e-12 1.74323429e-12 5.09378647e-15 3.76034699e-12 1.00760946e-13 1.74323429e-12
4.57088190e+00 5.27671542e-12 1.62688090e-12 3.38325343e-15 3.64645127e-12 6.97554787e-14 1.62688090e-12
5.24807460e+00 4.79953543e-12 1.34518114e-12 1.96581436e-15 3.45238848e-12 4.53982350e-14 1.34518114e-12
6.02559586e+00 4.10286789e-12 8.88752369e-13 8.56740334e-16 3.21325878e-12 2.78269785e-14 8.88752369e-13
6.70000000e+00 3.65299472e-12 6.46481889e-13 4.45651365e-16 3.00606718e-12 1.82626379e-14 6.46481889e-13
6.92422916e+00 3.52953674e-12 5.85688198e-13 3.54912929e-16 2.94349362e-12 1.57640403e-14 5.85688198e-13
7.15596261e+00 3.43035670e-12 5.30611407e-13 2.79953428e-16 2.89946534e-12 1.36320122e-14 5.30611407e-13
7.39545150e+00 3.39320244e-12 4.80713913e-13 2.14693900e-16 2.91227383e-12 1.16404478e-14 4.80713913e-13
7.64295536e+00 3.50757167e-12 4.35508666e-13 1.49310593e-16 3.07191369e-12 9.69480881e-15 4.35508666e-13
7.89874245e+00 3.84090434e-12 3.94554418e-13 9.07273149e-17 3.44625920e-12 7.77844324e-15 3.94554418e-13
8.16308998e+00 4.29941562e-12 3.57451415e-13 5.36937061e-17 3.94191051e-12 6.02245564e-15 3.57451415e-13
8.43628443e+00 4.89564927e-12 3.23837494e-13 2.96849408e-17 4.57178209e-12 4.56175053e-15 3.23837494e-13
8.71862190e+00 5.24083307e-12 2.93384550e-13 1.90613777e-17 4.94742946e-12 3.54407779e-15 2.93384550e-13
9.01040836e+00 5.56266071e-12 2.65795332e-13 1.18562144e-17 5.29685353e-12 2.68343144e-15 2.65795332e-13
9.31196005e+00 5.80231284e-12 2.40800541e-13 0.00000000e+00 5.56151230e-12 0.00000000e+00 2.40800541e-13
9.62360379e+00 5.70583141e-12 2.18156204e-13 0.00000000e+00 5.48767520e-12 0.00000000e+00 2.18156204e-13
9.94567731e+00 5.37078177e-12 1.97641289e-13 0.00000000e+00 5.17314048e-12 0.00000000e+00 1.97641289e-13
1.02785297e+01 4.99927644e-12 1.79055550e-13 0.00000000e+00 4.82022089e-12 0.00000000e+00 1.79055550e-13
1.06225216e+01 4.63250401e-12 1.62217572e-13 0.00000000e+00 4.47028644e-12 0.00000000e+00 1.62217572e-13
1.09780260e+01 4.26406684e-12 1.46962999e-13 0.00000000e+00 4.11710385e-12 0.00000000e+00 1.46962999e-13
1.13454280e+01 3.92438061e-12 1.33142932e-13 0.00000000e+00 3.79123768e-12 0.00000000e+00 1.33142932e-13
1.17251259e+01 3.62132417e-12 1.20622472e-13 0.00000000e+00 3.50070169e-12 0.00000000e+00 1.20622472e-13
1.21175312e+01 3.35138681e-12 1.09279408e-13 0.00000000e+00 3.24210740e-12 0.00000000e+00 1.09279408e-13
1.25230691e+01 3.10371783e-12 9.90030204e-14 0.00000000e+00 3.00471481e-12 0.00000000e+00 9.90030204e-14
1.29421791e+01 2.87761995e-12 8.96930008e-14 0.00000000e+00 2.78792694e-12 0.00000000e+00 8.96930008e-14
1.33753155e+01 2.69034381e-12 8.12584743e-14 0.00000000e+00 2.60908534e-12 0.00000000e+00 8.12584743e-14
1.38229477e+01 2.56020147e-12 7.36171115e-14 0.00000000e+00 2.48658436e-12 0.00000000e+00 7.36171115e-14
1.42855609e+01 2.48531819e-12 6.66943252e-14 0.00000000e+00 2.41862386e-12 0.00000000e+00 6.66943252e-14
1.47636563e+01 2.51065361e-12 6.04225420e-14 0.00000000e+00 2.45023106e-12 0.00000000e+00 6.04225420e-14
1.52577522e+01 2.54883976e-12 5.47405431e-14 0.00000000e+00 2.49409922e-12 0.00000000e+00 5.47405431e-14
1.57683840e+01 2.60958939e-12 4.95928665e-14 0.00000000e+00 2.55999652e-12 0.00000000e+00 4.95928665e-14
1.62961051e+01 2.67361696e-12 4.49292657e-14 0.00000000e+00 2.62868769e-12 0.00000000e+00 4.49292657e-14
1.68414875e+01 2.72883080e-12 4.07042194e-14 0.00000000e+00 2.68812658e-12 0.00000000e+00 4.07042194e-14
1.74051222e+01 2.76632396e-12 3.68764869e-14 0.00000000e+00 2.72944747e-12 0.00000000e+00 3.68764869e-14
1.79876201e+01 2.77959285e-12 3.34087056e-14 0.00000000e+00 2.74618414e-12 0.00000000e+00 3.34087056e-14
1.85896125e+01 2.76446981e-12 3.02670267e-14 0.00000000e+00 2.73420279e-12 0.00000000e+00 3.02670267e-14
1.92117518e+01 2.70900647e-12 2.74207841e-14 0.00000000e+00 2.68158569e-12 0.00000000e+00 2.74207841e-14
1.98547123e+01 2.64995620e-12 2.48421957e-14 0.00000000e+00 2.62511400e-12 0.00000000e+00 2.48421957e-14
2.05191907e+01 2.57051043e-12 2.25060919e-14 0.00000000e+00 2.54800434e-12 0.00000000e+00 2.25060919e-14
2.12059073e+01 2.49921143e-12 2.03896700e-14 0.00000000e+00 2.47882176e-12 0.00000000e+00 2.03896700e-14
2.19156062e+01 2.42788531e-12 1.84722717e-14 0.00000000e+00 2.40941304e-12 0.00000000e+00 1.84722717e-14
2.26490567e+01 2.36391929e-12 1.67351811e-14 0.00000000e+00 2.34718411e-12 0.00000000e+00 1.67351811e-14
2.34070535e+01 2.29908292e-12 1.51614426e-14 0.00000000e+00 2.28392148e-12 0.00000000e+00 1.51614426e-14
2.41904183e+01 2.22883642e-12 1.37356949e-14 0.00000000e+00 2.21510073e-12 0.00000000e+00 1.37356949e-14
2.50000000e+01 2.16544112e-12 1.24440213e-14 0.00000000e+00 2.15299710e-12 0.00000000e+00 1.24440213e-14
2.75422870e+01 1.95770409e-12 9.30637977e-15 0.00000000e+00 1.94839771e-12 0.00000000e+00 9.30637977e-15
3.16227766e+01 1.64799039e-12 6.14866414e-15 0.00000000e+00 1.64184172e-12 0.00000000e+00 6.14866414e-15
3.63078055e+01 1.30500430e-12 4.06238211e-15 0.00000000e+00 1.30094191e-12 0.00000000e+00 4.06238211e-15
4.16869383e+01 9.65020536e-13 2.68398924e-15 0.00000000e+00 9.62336547e-13 0.00000000e+00 2.68398924e-15
4.78630092e+01 6.63487097e-13 1.77329411e-15 0.00000000e+00 6.61713803e-13 0.00000000e+00 1.77329411e-15
5.49540874e+01 4.30206756e-13 1.17160380e-15 0.00000000e+00 4.29035152e-13 0.00000000e+00 1.17160380e-15
6.30957344e+01 2.65637265e-13 7.74070953e-16 0.00000000e+00 2.64863194e-13 0.00000000e+00 7.74070953e-16
7.24435960e+01 1.58057307e-13 5.11423607e-16 0.00000000e+00 1.57545884e-13 0.00000000e+00 5.11423607e-16
8.31763771e+01 9.12989720e-14 3.37894226e-16 0.00000000e+00 9.09610778e-14 0.00000000e+00 3.37894226e-16
9.54992586e+01 5.16620198e-14 2.23244502e-16 0.00000000e+00 5.14387753e-14 0.00000000e+00 2.23244502e-16
1.09647820e+02 2.87674440e-14 1.47496179e-16 0.00000000e+00 2.86199478e-14 0.00000000e+00 1.47496179e-16
1.25892541e+02 1.59994766e-14 9.74497594e-17 0.00000000e+00 1.59020269e-14 0.00000000e+00 9.74497594e-17
1.44543977e+02 8.84546860e-15 6.43844175e-17 0.00000000e+00 8.78108418e-15 0.00000000e+00 6.43844175e-17
1.65958691e+02 4.65741369e-15 4.25383628e-17 0.00000000e+00 4.61487533e-15 0.00000000e+00 4.25383628e-17
1.90546072e+02 2.45371625e-15 2.81048176e-17 0.00000000e+00 2.42561144e-15 0.00000000e+00 2.81048176e-17
2.18776162e+02 1.29075604e-15 1.85686688e-17 0.00000000e+00 1.27218737e-15 0.00000000e+00 1.85686688e-17
2.51188643e+02 6.76848090e-16 1.22681978e-17 0.00000000e+00 6.64579892e-16 0.00000000e+00 1.22681978e-17
2.88403150e+02 3.53477057e-16 8.10551794e-18 0.00000000e+00 3.45371539e-16 0.00000000e+00 8.10551794e-18
3.31131121e+02 1.84270388e-16 5.35526259e-18 0.00000000e+00 1.78915126e-16 0.00000000e+00 5.35526259e-18
3.80189396e+02 9.58304210e-17 3.53818691e-18 0.00000000e+00 9.22922341e-17 0.00000000e+00 3.53818691e-18
4.36515832e+02 4.98091570e-17 2.33765691e-18 0.00000000e+00 4.74715001e-17 0.00000000e+00 2.33765691e-18
5.01187234e+02 2.58870918e-17 1.54447460e-18 0.00000000e+00 2.43426172e-17 0.00000000e+00 1.54447460e-18
5.75439937e+02 1.34714823e-17 1.02042425e-18 0.00000000e+00 1.24510581e-17 0.00000000e+00 1.02042425e-18
6.60693448e+02 7.02883273e-18 6.74187617e-19 0.00000000e+00 6.35464511e-18 0.00000000e+00 6.74187617e-19
7.58577575e+02 3.68243065e-18 4.45431341e-19 0.00000000e+00 3.23699931e-18 0.00000000e+00 4.45431341e-19
8.70963590e+02 1.94002566e-18 2.94293569e-19 0.00000000e+00 1.64573209e-18 0.00000000e+00 2.94293569e-19
1.00000000e+03 8.35218462e-19 0.00000000e+00 0.00000000e+00 8.35218462e-19 0.00000000e+00 0.00000000e+00
