# column 1: lambda (micron)
# column 2: total flux; lambda*F_lambda (W/m2)
# column 3: direct stellar flux; lambda*F_lambda (W/m2)
# column 4: scattered stellar flux; lambda*F_lambda (W/m2)
# column 5: total dust emission flux; lambda*F_lambda (W/m2)
# column 6: dust emission scattered flux; lambda*F_lambda (W/m2)
# column 7: transparent flux; lambda*F_lambda (W/m2)
1.00000000e-03 8.46529771e-13 8.46529401e-13 3.69697486e-19 0.00000000e+00 0.00000000e+00 8.46529401e-13
1.14815362e-03 9.99176706e-13 9.99176121e-13 5.85359387e-19 0.00000000e+00 0.00000000e+00 9.99176121e-13
1.31825674e-03 1.17934914e-12 1.17934819e-12 9.42832259e-19 0.00000000e+00 0.00000000e+00 1.17934819e-12
1.51356125e-03 1.39201052e-12 1.39200901e-12 1.51071162e-18 0.00000000e+00 0.00000000e+00 1.39200901e-12
1.73780083e-03 1.64301945e-12 1.64301696e-12 2.48581962e-18 0.00000000e+00 0.00000000e+00 1.64301696e-12
1.99526231e-03 1.93929138e-12 1.93928682e-12 4.56137096e-18 0.00000000e+00 0.00000000e+00 1.93928682e-12
2.29086765e-03 2.28898732e-12 2.28898025e-12 7.06736224e-18 0.00000000e+00 0.00000000e+00 2.28898025e-12
2.63026799e-03 2.70174545e-12 2.70173063e-12 1.48241158e-17 0.00000000e+00 0.00000000e+00 2.70173063e-12
3.01995172e-03 3.18893269e-12 3.18890841e-12 2.42800463e-17 0.00000000e+00 0.00000000e+00 3.18890841e-12
3.46736850e-03 3.76397523e-12 3.76393440e-12 4.08214063e-17 0.00000000e+00 0.00000000e+00 3.76393440e-12
3.98107171e-03 4.44271353e-12 4.44264945e-12 6.40830564e-17 0.00000000e+00 0.00000000e+00 4.44264945e-12
4.57088190e-03 5.24389321e-12 5.24375082e-12 1.42385899e-16 0.00000000e+00 0.00000000e+00 5.24375082e-12
5.24807460e-03 6.18957183e-12 6.18930730e-12 2.64527243e-16 0.00000000e+00 0.00000000e+00 6.18930730e-12
6.02559586e-03 7.30597133e-12 7.30536713e-12 6.04196786e-16 0.00000000e+00 0.00000000e+00 7.30536713e-12
6.91830971e-03 8.62337227e-12 8.62267558e-12 6.96693758e-16 0.00000000e+00 0.00000000e+00 8.62267558e-12
7.94328235e-03 1.01787626e-11 1.01775219e-11 1.24072435e-15 0.00000000e+00 0.00000000e+00 1.01775219e-11
9.12010839e-03 1.20147425e-11 1.20127391e-11 2.00339355e-15 0.00000000e+00 0.00000000e+00 1.20127391e-11
1.04712855e-02 1.34192576e-11 1.34165878e-11 2.66976964e-15 0.00000000e+00 0.00000000e+00 1.34165878e-11
1.20226443e-02 1.34207144e-11 1.34165878e-11 4.12652990e-15 0.00000000e+00 0.00000000e+00 1.34165878e-11
1.38038426e-02 1.34223195e-11 1.34165878e-11 5.73166704e-15 1.48498790e-290 3.03329102e-292 1.34165878e-11
1.58489319e-02 1.34244932e-11 1.34165878e-11 7.90534553e-15 9.38173658e-254 2.03573994e-255 1.34165878e-11
1.81970086e-02 1.34283966e-11 1.34165878e-11 1.18087764e-14 1.06256965e-221 3.88600378e-223 1.34165878e-11
2.08929613e-02 1.34326525e-11 1.34165878e-11 1.60646512e-14 8.36131361e-194 4.23480371e-195 1.34165878e-11
2.39883292e-02 1.34388807e-11 1.34165878e-11 2.22929032e-14 1.69585305e-169 1.09061244e-170 1.34165878e-11
2.75422870e-02 1.34455465e-11 1.34165878e-11 2.89586629e-14 2.54696510e-148 1.98393900e-149 1.34165878e-11
3.16227766e-02 1.34519184e-11 1.34165878e-11 3.53305736e-14 6.92684403e-130 6.00983433e-131 1.34165878e-11
3.63078055e-02 1.34601246e-11 1.34165878e-11 4.35367557e-14 7.56563472e-114 7.04294728e-115 1.34165878e-11
4.16869383e-02 1.34762024e-11 1.34165878e-11 5.96145833e-14 6.85727112e-100 7.68730134e-101 1.34165878e-11
4.78630092e-02 1.34984390e-11 1.34165878e-11 8.18511433e-14 9.25300843e-88 1.23018049e-88 1.34165878e-11
5.49540874e-02 1.35164566e-11 1.34165878e-11 9.98687713e-14 3.18279253e-77 4.82882251e-78 1.34165878e-11
6.30957344e-02 1.35419403e-11 1.34165878e-11 1.25352473e-13 5.83555887e-68 1.03230860e-68 1.34165878e-11
7.24435960e-02 1.35364327e-11 1.34165878e-11 1.19844881e-13 6.16499388e-60 1.07609607e-60 1.34165878e-11
8.31763771e-02 1.35379761e-11 1.34165878e-11 1.21388289e-13 4.68848575e-53 8.15941912e-54 1.34165878e-11
9.54992586e-02 1.35414594e-11 1.34165878e-11 1.24871600e-13 4.29185790e-47 7.68844305e-48 1.34165878e-11
1.09647820e-01 1.29427109e-11 1.28127470e-11 1.29963897e-13 5.87593841e-42 1.10243028e-42 1.28127470e-11
1.25892541e-01 1.20690240e-11 1.19575512e-11 1.11472807e-13 1.60651731e-37 2.93042002e-38 1.19575512e-11
1.44543977e-01 1.12629737e-11 1.11594361e-11 1.03537581e-13 1.04562535e-33 1.80804252e-34 1.11594361e-11
1.65958691e-01 1.05209460e-11 1.04145917e-11 1.06354272e-13 1.58175166e-30 2.94532001e-31 1.04145917e-11
1.90546072e-01 9.84217976e-12 9.71946251e-12 1.22717244e-13 6.40490009e-28 1.40158929e-28 9.71946251e-12
2.18776162e-01 9.19199643e-12 9.07073019e-12 1.21266232e-13 9.74828028e-26 2.29395069e-26 9.07073019e-12
2.51188643e-01 8.60692533e-12 8.46529796e-12 1.41627370e-13 1.24732509e-23 3.39425042e-24 8.46529796e-12
2.88403150e-01 8.02641303e-12 7.90027573e-12 1.26137298e-13 7.95066826e-22 2.11469768e-22 7.90027573e-12
3.31131121e-01 7.48703183e-12 7.37296631e-12 1.14065502e-13 2.74501475e-20 7.10034286e-21 7.37296631e-12
3.80189396e-01 6.98423044e-12 6.88085251e-12 1.03377368e-13 5.62710816e-19 1.41836529e-19 6.88085251e-12
4.36515832e-01 6.51482873e-12 6.42158520e-12 9.32361857e-14 7.34367839e-18 1.81425042e-18 6.42158520e-12
5.01187234e-01 6.08299074e-12 5.99297201e-12 8.99539414e-14 6.47866587e-17 1.58072118e-17 5.99297201e-12
5.75439937e-01 5.67350871e-12 5.59296690e-12 8.01342597e-14 4.07549223e-16 9.69424045e-17 5.59296690e-12
6.60693448e-01 5.29839245e-12 5.21966041e-12 7.68245051e-14 1.90753184e-15 4.44449146e-16 5.21966041e-12
7.58577575e-01 4.94834285e-12 4.87127053e-12 7.00268263e-14 7.04549048e-15 1.58619994e-15 4.87127053e-12
8.70963590e-01 4.62828151e-12 4.54613417e-12 6.09302605e-14 2.12170762e-14 4.52714361e-15 4.54613417e-12
1.00000000e+00 4.35095259e-12 4.24269927e-12 5.48186733e-14 5.34346459e-14 1.05595907e-14 4.24269927e-12
1.14815362e+00 4.12288073e-12 3.95951734e-12 4.55942265e-14 1.17769161e-13 2.11127859e-14 3.95951734e-12
1.31825674e+00 3.96419555e-12 3.69523659e-12 3.70260004e-14 2.31932961e-13 3.61222149e-14 3.69523659e-12
1.51356125e+00 3.88619700e-12 3.44859544e-12 2.88149792e-14 4.08786580e-13 5.39786034e-14 3.44859544e-12
1.73780083e+00 3.88134944e-12 3.21841652e-12 2.15096027e-14 6.41423314e-13 6.94160941e-14 3.21841652e-12
1.99526231e+00 3.92289591e-12 3.00360106e-12 1.55774199e-14 9.03717429e-13 7.68609714e-14 3.00360106e-12
2.29086765e+00 3.96859574e-12 2.80312361e-12 1.10884667e-14 1.15438366e-12 7.39770956e-14 2.80312361e-12
2.63026799e+00 3.97849986e-12 2.61602716e-12 7.56523058e-15 1.35490746e-12 6.44498808e-14 2.61602716e-12
3.01995172e+00 3.92809629e-12 2.44141860e-12 5.17402710e-15 1.48150366e-12 5.18916476e-14 2.44141860e-12
3.46736850e+00 3.81083280e-12 2.27846441e-12 3.60978976e-15 1.52875860e-12 3.91152619e-14 2.27846441e-12
3.98107171e+00 3.61842786e-12 2.12638671e-12 2.38400757e-15 1.48965715e-12 2.77913434e-14 2.12638671e-12
4.57088190e+00 3.38522062e-12 1.98445954e-12 1.56494445e-15 1.39919614e-12 1.84270397e-14 1.98445954e-12
5.24807460e+00 2.91774258e-12 1.64084388e-12 8.84914055e-16 1.27601378e-12 1.16085893e-14 1.64084388e-12
6.02559586e+00 2.23661796e-12 1.08409480e-12 3.90200814e-16 1.15213296e-12 6.90749590e-15 1.08409480e-12
6.70000000e+00 1.84336193e-12 7.88574724e-13 2.00130114e-16 1.05458707e-12 4.45126359e-15 7.88574724e-13
6.92422916e+00 1.73872046e-12 7.14418944e-13 1.60928794e-16 1.02414059e-12 3.84809654e-15 7.14418944e-13
7.15596261e+00 1.65282507e-12 6.47236606e-13 1.28143444e-16 1.00546032e-12 3.30657963e-15 6.47236606e-13
7.39545150e+00 1.59678849e-12 5.86371942e-13 9.84526296e-17 1.01031809e-12 2.81518694e-15 5.86371942e-13
7.64295536e+00 1.61684178e-12 5.31230854e-13 6.70348449e-17 1.08554389e-12 2.36572756e-15 5.31230854e-13
7.89874245e+00 1.74336624e-12 4.81275108e-13 4.19806429e-17 1.26204915e-12 1.89595266e-15 4.81275108e-13
8.16308998e+00 1.95482673e-12 4.36017088e-13 2.47431858e-17 1.51878490e-12 1.52363911e-15 4.36017088e-13
8.43628443e+00 2.25429272e-12 3.95015029e-13 1.34514472e-17 1.85926424e-12 1.17521561e-15 3.95015029e-13
8.71862190e+00 2.44921914e-12 3.57868711e-13 8.77761428e-18 2.09134166e-12 9.35601885e-16 3.57868711e-13
9.01040836e+00 2.65441215e-12 3.24215549e-13 5.83294446e-18 2.33019077e-12 7.23006888e-16 3.24215549e-13
9.31196005e+00 2.79291841e-12 2.93727053e-13 0.00000000e+00 2.49919136e-12 0.00000000e+00 2.93727053e-13
9.62360379e+00 2.74572423e-12 2.66105627e-13 0.00000000e+00 2.47961860e-12 0.00000000e+00 2.66105627e-13
9.94567731e+00 2.55117216e-12 2.41081657e-13 0.00000000e+00 2.31009050e-12 0.00000000e+00 2.41081657e-13
1.02785297e+01 2.32580190e-12 2.18410884e-13 0.00000000e+00 2.10739102e-12 0.00000000e+00 2.18410884e-13
1.06225216e+01 2.10664757e-12 1.97872020e-13 0.00000000e+00 1.90877555e-12 0.00000000e+00 1.97872020e-13
1.09780260e+01 1.87604459e-12 1.79264583e-13 0.00000000e+00 1.69678001e-12 0.00000000e+00 1.79264583e-13
1.13454280e+01 1.67789388e-12 1.62406948e-13 0.00000000e+00 1.51548693e-12 0.00000000e+00 1.62406948e-13
1.17251259e+01 1.50757122e-12 1.47134567e-13 0.00000000e+00 1.36043665e-12 0.00000000e+00 1.47134567e-13
1.21175312e+01 1.35839196e-12 1.33298366e-13 0.00000000e+00 1.22509360e-12 0.00000000e+00 1.33298366e-13
1.25230691e+01 1.22428814e-12 1.20763289e-13 0.00000000e+00 1.10352485e-12 0.00000000e+00 1.20763289e-13
1.29421791e+01 1.11204848e-12 1.09406983e-13 0.00000000e+00 1.00264149e-12 0.00000000e+00 1.09406983e-13
1.33753155e+01 1.01875059e-12 9.91185987e-14 0.00000000e+00 9.19631991e-13 0.00000000e+00 9.91185987e-14
1.38229477e+01 9.56864339e-13 8.97977103e-14 0.00000000e+00 8.67066629e-13 0.00000000e+00 8.97977103e-14
1.42855609e+01 9.23207611e-13 8.13533371e-14 0.00000000e+00 8.41854274e-13 0.00000000e+00 8.13533371e-14
1.47636563e+01 9.33403041e-13 7.37030537e-14 0.00000000e+00 8.59699988e-13 0.00000000e+00 7.37030537e-14
1.52577522e+01 9.51208197e-13 6.67721855e-14 0.00000000e+00 8.84436011e-13 0.00000000e+00 6.67721855e-14
1.57683840e+01 9.80935547e-13 6.04930805e-14 0.00000000e+00 9.20442467e-13 0.00000000e+00 6.04930805e-14
1.62961051e+01 1.00989145e-12 5.48044484e-14 0.00000000e+00 9.55086999e-13 0.00000000e+00 5.48044484e-14
1.68414875e+01 1.04141916e-12 4.96507622e-14 0.00000000e+00 9.91768402e-13 0.00000000e+00 4.96507622e-14
1.74051222e+01 1.06525436e-12 4.49817171e-14 0.00000000e+00 1.02027265e-12 0.00000000e+00 4.49817171e-14
1.79876201e+01 1.07661378e-12 4.07517384e-14 0.00000000e+00 1.03586204e-12 0.00000000e+00 4.07517384e-14
1.85896125e+01 1.07277733e-12 3.69195372e-14 0.00000000e+00 1.03585780e-12 0.00000000e+00 3.69195372e-14
1.92117518e+01 1.05815443e-12 3.34477076e-14 0.00000000e+00 1.02470672e-12 0.00000000e+00 3.34477076e-14
1.98547123e+01 1.02918906e-12 3.03023610e-14 0.00000000e+00 9.98886695e-13 0.00000000e+00 3.03023610e-14
2.05191907e+01 1.00695008e-12 2.74527957e-14 0.00000000e+00 9.79497282e-13 0.00000000e+00 2.74527957e-14
2.12059073e+01 9.81410821e-13 2.48711970e-14 0.00000000e+00 9.56539624e-13 0.00000000e+00 2.48711970e-14
2.19156062e+01 9.59089954e-13 2.25323660e-14 0.00000000e+00 9.36557588e-13 0.00000000e+00 2.25323660e-14
2.26490567e+01 9.41705036e-13 2.04134733e-14 0.00000000e+00 9.21291563e-13 0.00000000e+00 2.04134733e-14
2.34070535e+01 9.23093200e-13 1.84938366e-14 0.00000000e+00 9.04599364e-13 0.00000000e+00 1.84938366e-14
2.41904183e+01 9.07953363e-13 1.67547181e-14 0.00000000e+00 8.91198645e-13 0.00000000e+00 1.67547181e-14
2.50000000e+01 8.91957719e-13 1.51791424e-14 0.00000000e+00 8.76778577e-13 0.00000000e+00 1.51791424e-14
2.75422870e+01 8.49281282e-13 1.13518661e-14 0.00000000e+00 8.37929416e-13 0.00000000e+00 1.13518661e-14
3.16227766e+01 7.77860695e-13 7.50010357e-15 0.00000000e+00 7.70360591e-13 0.00000000e+00 7.50010357e-15
3.63078055e+01 6.79996600e-13 4.95526929e-15 0.00000000e+00 6.75041330e-13 0.00000000e+00 4.95526929e-15
4.16869383e+01 5.57948872e-13 3.27391395e-15 0.00000000e+00 5.54674958e-13 0.00000000e+00 3.27391395e-15
4.78630092e+01 4.28364259e-13 2.16305350e-15 0.00000000e+00 4.26201206e-13 0.00000000e+00 2.16305350e-15
5.49540874e+01 3.09194284e-13 1.42911527e-15 0.00000000e+00 3.07765169e-13 0.00000000e+00 1.42911527e-15
6.30957344e+01 2.11363897e-13 9.44207098e-16 0.00000000e+00 2.10419690e-13 0.00000000e+00 9.44207098e-16
7.24435960e+01 1.37832983e-13 6.23831443e-16 0.00000000e+00 1.37209151e-13 0.00000000e+00 6.23831443e-16
8.31763771e+01 8.64985512e-14 4.12161347e-16 0.00000000e+00 8.60863899e-14 0.00000000e+00 4.12161347e-16
9.54992586e+01 5.26411440e-14 2.72312302e-16 0.00000000e+00 5.23688317e-14 0.00000000e+00 2.72312302e-16
1.09647820e+02 3.12284618e-14 1.79914953e-16 0.00000000e+00 3.10485468e-14 0.00000000e+00 1.79914953e-16
1.25892541e+02 1.83357894e-14 1.18868631e-16 0.00000000e+00 1.82169208e-14 0.00000000e+00 1.18868631e-16
1.44543977e+02 1.06137480e-14 7.85357256e-17 0.00000000e+00 1.05352122e-14 0.00000000e+00 7.85357256e-17
1.65958691e+02 5.82353317e-15 5.18880394e-17 0.00000000e+00 5.77164513e-15 0.00000000e+00 5.18880394e-17
1.90546072e+02 3.17614200e-15 3.42820876e-17 0.00000000e+00 3.14185991e-15 0.00000000e+00 3.42820876e-17
2.18776162e+02 1.72033017e-15 2.26499507e-17 0.00000000e+00 1.69768022e-15 0.00000000e+00 2.26499507e-17
2.51188643e+02 9.24726783e-16 1.49646740e-17 0.00000000e+00 9.09762109e-16 0.00000000e+00 1.49646740e-17
2.88403150e+02 4.93064506e-16 9.88706207e-18 0.00000000e+00 4.83177444e-16 0.00000000e+00 9.88706207e-18
3.31131121e+02 2.61518109e-16 6.53231713e-18 0.00000000e+00 2.54985792e-16 0.00000000e+00 6.53231713e-18
3.80189396e+02 1.37954423e-16 4.31585913e-18 0.00000000e+00 1.33638563e-16 0.00000000e+00 4.31585913e-18
4.36515832e+02 7.25331928e-17 2.85145985e-18 0.00000000e+00 6.96817330e-17 0.00000000e+00 2.85145985e-18
5.01187234e+02 3.80350671e-17 1.88394084e-18 0.00000000e+00 3.61511262e-17 0.00000000e+00 1.88394084e-18
5.75439937e+02 1.99222656e-17 1.24470737e-18 0.00000000e+00 1.86775582e-17 0.00000000e+00 1.24470737e-18
6.60693448e+02 1.04374085e-17 8.22370004e-19 0.00000000e+00 9.61503847e-18 0.00000000e+00 8.22370004e-19
7.58577575e+02 5.47764555e-18 5.43334473e-19 0.00000000e+00 4.93431107e-18 0.00000000e+00 5.43334473e-19
8.70963590e+02 2.88377141e-18 3.58977527e-19 0.00000000e+00 2.52479388e-18 0.00000000e+00 3.58977527e-19
1.00000000e+03 1.28844801e-18 0.00000000e+00 0.00000000e+00 1.28844801e-18 0.00000000e+00 0.00000000e+00
