# column 1: lambda (micron)
# column 2: total flux; lambda*F_lambda (W/m2)
# column 3: direct stellar flux; lambda*F_lambda (W/m2)
# column 4: scattered stellar flux; lambda*F_lambda (W/m2)
# column 5: total dust emission flux; lambda*F_lambda (W/m2)
# column 6: dust emission scattered flux; lambda*F_lambda (W/m2)
# column 7: transparent flux; lambda*F_lambda (W/m2)
1.00000000e-03 1.07335667e-12 1.07335627e-12 4.01291347e-19 0.00000000e+00 0.00000000e+00 1.07335627e-12
1.14815362e-03 1.26690518e-12 1.26690456e-12 6.25293221e-19 0.00000000e+00 0.00000000e+00 1.26690456e-12
1.31825674e-03 1.49535455e-12 1.49535359e-12 9.63995021e-19 0.00000000e+00 0.00000000e+00 1.49535359e-12
1.51356125e-03 1.76499828e-12 1.76499670e-12 1.57568438e-18 0.00000000e+00 0.00000000e+00 1.76499670e-12
1.73780083e-03 2.08326477e-12 2.08326203e-12 2.74536281e-18 0.00000000e+00 0.00000000e+00 2.08326203e-12
1.99526231e-03 2.45892213e-12 2.45891716e-12 4.96590787e-18 0.00000000e+00 0.00000000e+00 2.45891716e-12
2.29086765e-03 2.90231838e-12 2.90231066e-12 7.71281576e-18 0.00000000e+00 0.00000000e+00 2.90231066e-12
2.63026799e-03 3.42567281e-12 3.42565717e-12 1.56370889e-17 0.00000000e+00 0.00000000e+00 3.42565717e-12
3.01995172e-03 4.04340006e-12 4.04337385e-12 2.62105534e-17 0.00000000e+00 0.00000000e+00 4.04337385e-12
3.46736850e-03 4.77252061e-12 4.77247759e-12 4.30251530e-17 0.00000000e+00 0.00000000e+00 4.77247759e-12
3.98107171e-03 5.63312272e-12 5.63305378e-12 6.89381771e-17 0.00000000e+00 0.00000000e+00 5.63305378e-12
4.57088190e-03 6.64896545e-12 6.64880962e-12 1.55828469e-16 0.00000000e+00 0.00000000e+00 6.64880962e-12
5.24807460e-03 7.84800291e-12 7.84772720e-12 2.75710414e-16 0.00000000e+00 0.00000000e+00 7.84772720e-12
6.02559586e-03 9.26334103e-12 9.26283435e-12 5.06680898e-16 0.00000000e+00 0.00000000e+00 9.26283435e-12
6.91830971e-03 1.09339149e-11 1.09331145e-11 8.00409347e-16 0.00000000e+00 0.00000000e+00 1.09331145e-11
7.94328235e-03 1.29058724e-11 1.29045807e-11 1.29165983e-15 0.00000000e+00 0.00000000e+00 1.29045807e-11
9.12010839e-03 1.52341924e-11 1.52315429e-11 2.64949910e-15 0.00000000e+00 0.00000000e+00 1.52315429e-11
1.04712855e-02 1.70144703e-11 1.70115517e-11 2.91862885e-15 0.00000000e+00 0.00000000e+00 1.70115517e-11
1.20226443e-02 1.70160706e-11 1.70115517e-11 4.51887890e-15 0.00000000e+00 0.00000000e+00 1.70115517e-11
1.38038426e-02 1.70176086e-11 1.70115517e-11 6.05690060e-15 2.43118981e-288 9.30755035e-290 1.70115517e-11
1.58489319e-02 1.70198434e-11 1.70115517e-11 8.29172812e-15 1.23922170e-251 7.54560046e-253 1.70115517e-11
1.81970086e-02 1.70243081e-11 1.70115517e-11 1.27564122e-14 1.06205950e-219 5.13538564e-221 1.70115517e-11
2.08929613e-02 1.70289964e-11 1.70115517e-11 1.74447277e-14 6.25578450e-192 3.13404745e-193 1.70115517e-11
2.39883292e-02 1.70338491e-11 1.70115517e-11 2.22974122e-14 9.36733627e-168 5.64326966e-169 1.70115517e-11
2.75422870e-02 1.70427641e-11 1.70115517e-11 3.12123606e-14 1.01903934e-146 6.58771940e-148 1.70115517e-11
3.16227766e-02 1.70516599e-11 1.70115517e-11 4.01082015e-14 2.00801358e-128 1.42828509e-129 1.70115517e-11
3.63078055e-02 1.70584160e-11 1.70115517e-11 4.68642560e-14 1.60749281e-112 1.21080932e-113 1.70115517e-11
4.16869383e-02 1.70795217e-11 1.70115517e-11 6.79699735e-14 1.07066853e-98 9.05168567e-100 1.70115517e-11
4.78630092e-02 1.71043507e-11 1.70115517e-11 9.27990255e-14 1.08724277e-86 1.03522966e-87 1.70115517e-11
5.49540874e-02 1.71309347e-11 1.70115517e-11 1.19383032e-13 2.87938190e-76 2.93660304e-77 1.70115517e-11
6.30957344e-02 1.71563196e-11 1.70115517e-11 1.44767836e-13 4.17532931e-67 4.50363212e-68 1.70115517e-11
7.24435960e-02 1.71492687e-11 1.70115517e-11 1.37717013e-13 3.62020939e-59 3.60801258e-60 1.70115517e-11
8.31763771e-02 1.71495774e-11 1.70115517e-11 1.38025679e-13 2.25547565e-52 2.18284277e-53 1.70115517e-11
9.54992586e-02 1.71575899e-11 1.70115517e-11 1.46038136e-13 1.72425828e-46 1.73877006e-47 1.70115517e-11
1.09647820e-01 1.63971350e-11 1.62459122e-11 1.51222831e-13 1.98602040e-41 2.19120643e-42 1.62459122e-11
1.25892541e-01 1.52959866e-11 1.51615674e-11 1.34419165e-13 4.67108109e-37 5.24125105e-38 1.51615674e-11
1.44543977e-01 1.42707405e-11 1.41495980e-11 1.21142534e-13 2.67991268e-33 3.00629563e-34 1.41495980e-11
1.65958691e-01 1.33322979e-11 1.32051732e-11 1.27124718e-13 3.57672007e-30 4.46302638e-31 1.32051732e-11
1.90546072e-01 1.24694204e-11 1.23237846e-11 1.45635763e-13 1.30678748e-27 1.90118582e-28 1.23237846e-11
2.18776162e-01 1.16503626e-11 1.15012250e-11 1.49137529e-13 1.84661324e-25 2.76916075e-26 1.15012250e-11
2.51188643e-01 1.09110495e-11 1.07335677e-11 1.77481785e-13 2.10373925e-23 3.98771455e-24 1.07335677e-11
2.88403150e-01 1.01777767e-11 1.00171482e-11 1.60628475e-13 1.23522409e-21 2.44976785e-22 1.00171482e-11
3.31131121e-01 9.49280102e-12 9.34854667e-12 1.44254310e-13 3.99234036e-20 8.10842634e-21 9.34854667e-12
3.80189396e-01 8.85592869e-12 8.72457139e-12 1.31356515e-13 7.81798316e-19 1.65979745e-19 8.72457139e-12
4.36515832e-01 8.26793449e-12 8.14224377e-12 1.25680763e-13 9.95378384e-18 2.22381176e-18 8.14224377e-12
5.01187234e-01 7.71226749e-12 7.59878402e-12 1.13396016e-13 8.74610111e-17 2.04200663e-17 7.59878402e-12
5.75439937e-01 7.20030066e-12 7.09159786e-12 1.08147515e-13 5.55281702e-16 1.33433964e-16 7.09159786e-12
6.60693448e-01 6.72263654e-12 6.61826421e-12 1.01707208e-13 2.66512977e-15 6.51713217e-16 6.61826421e-12
7.58577575e-01 6.27841208e-12 6.17652353e-12 9.17487169e-14 1.01398297e-14 2.46651506e-15 6.17652353e-12
8.70963590e-01 5.88072487e-12 5.76426715e-12 8.49123227e-14 3.15453983e-14 7.35908311e-15 5.76426715e-12
1.00000000e+00 5.53383591e-12 5.37952711e-12 7.25598839e-14 8.17489101e-14 1.80230501e-14 5.37952711e-12
1.14815362e+00 5.26533753e-12 5.02046681e-12 6.14826134e-14 1.83388103e-13 3.63959035e-14 5.02046681e-12
1.31825674e+00 5.10089167e-12 4.68537225e-12 4.86585443e-14 3.66860883e-13 6.35134482e-14 4.68537225e-12
1.51356125e+00 5.06461129e-12 4.37264380e-12 3.79692918e-14 6.53998197e-13 9.58343387e-14 4.37264380e-12
1.73780083e+00 5.14202762e-12 4.08078863e-12 2.84834042e-14 1.03275559e-12 1.23558296e-13 4.08078863e-12
1.99526231e+00 5.28633888e-12 3.80841354e-12 2.07605127e-14 1.45716483e-12 1.36626391e-13 3.80841354e-12
2.29086765e+00 5.42562204e-12 3.55421832e-12 1.43956777e-14 1.85700805e-12 1.32661693e-13 3.55421832e-12
2.63026799e+00 5.49909169e-12 3.31698953e-12 1.00356940e-14 2.17206646e-12 1.15789852e-13 3.31698953e-12
3.01995172e+00 5.45522940e-12 3.09559474e-12 6.83795886e-15 2.35279670e-12 9.35011468e-14 3.09559474e-12
3.46736850e+00 5.30554998e-12 2.88897711e-12 4.59079329e-15 2.41198208e-12 7.10005705e-14 2.88897711e-12
3.98107171e+00 5.04572254e-12 2.69615031e-12 3.12590773e-15 2.34644632e-12 5.07337599e-14 2.69615031e-12
4.57088190e+00 4.72089981e-12 2.51619387e-12 2.01086465e-15 2.20269507e-12 3.42233619e-14 2.51619387e-12
5.24807460e+00 4.10548333e-12 2.08050667e-12 1.14617253e-15 2.02383049e-12 2.17443606e-14 2.08050667e-12
6.02559586e+00 3.21593390e-12 1.37457712e-12 4.97701991e-16 1.84085907e-12 1.31905208e-14 1.37457712e-12
6.70000000e+00 2.69698858e-12 9.99872685e-13 2.52091896e-16 1.69686380e-12 8.60348250e-15 9.99872685e-13
6.92422916e+00 2.55477575e-12 9.05846924e-13 2.00520485e-16 1.64872831e-12 7.44151077e-15 9.05846924e-13
7.15596261e+00 2.44240630e-12 8.20663132e-13 1.56349470e-16 1.62158682e-12 6.40976127e-15 8.20663132e-13
7.39545150e+00 2.37077794e-12 7.43489831e-13 1.20551051e-16 1.62716756e-12 5.43102486e-15 7.43489831e-13
7.64295536e+00 2.41761729e-12 6.73573732e-13 8.59631046e-17 1.74395760e-12 4.56972812e-15 6.73573732e-13
7.89874245e+00 2.62457115e-12 6.10232385e-13 5.34827156e-17 2.01428528e-12 3.75359471e-15 6.10232385e-13
8.16308998e+00 2.95705315e-12 5.52847515e-13 3.12258407e-17 2.40417441e-12 3.02493052e-15 5.52847515e-13
8.43628443e+00 3.42186325e-12 5.00858987e-13 1.76907812e-17 2.92098658e-12 2.34979828e-15 5.00858987e-13
8.71862190e+00 3.72343179e-12 4.53759343e-13 1.14726313e-17 3.26966098e-12 1.88279059e-15 4.53759343e-13
9.01040836e+00 4.02025634e-12 4.11088843e-13 7.44987118e-18 3.60916004e-12 1.45775046e-15 4.11088843e-13
9.31196005e+00 4.21856496e-12 3.72430980e-13 0.00000000e+00 3.84613398e-12 0.00000000e+00 3.72430980e-13
9.62360379e+00 4.14428662e-12 3.37408415e-13 0.00000000e+00 3.80687820e-12 0.00000000e+00 3.37408415e-13
9.94567731e+00 3.87119538e-12 3.05679292e-13 0.00000000e+00 3.56551609e-12 0.00000000e+00 3.05679292e-13
1.02785297e+01 3.55014805e-12 2.76933904e-13 0.00000000e+00 3.27321415e-12 0.00000000e+00 2.76933904e-13
1.06225216e+01 3.24686623e-12 2.50891667e-13 0.00000000e+00 2.99597456e-12 0.00000000e+00 2.50891667e-13
1.09780260e+01 2.90805378e-12 2.27298384e-13 0.00000000e+00 2.68075540e-12 0.00000000e+00 2.27298384e-13
1.13454280e+01 2.61782121e-12 2.05923759e-13 0.00000000e+00 2.41189745e-12 0.00000000e+00 2.05923759e-13
1.17251259e+01 2.36660264e-12 1.86559155e-13 0.00000000e+00 2.18004348e-12 0.00000000e+00 1.86559155e-13
1.21175312e+01 2.13521829e-12 1.69015555e-13 0.00000000e+00 1.96620273e-12 0.00000000e+00 1.69015555e-13
1.25230691e+01 1.92227667e-12 1.53121715e-13 0.00000000e+00 1.76915495e-12 0.00000000e+00 1.53121715e-13
1.29421791e+01 1.74882331e-12 1.38722496e-13 0.00000000e+00 1.61010081e-12 0.00000000e+00 1.38722496e-13
1.33753155e+01 1.59388086e-12 1.25677347e-13 0.00000000e+00 1.46820352e-12 0.00000000e+00 1.25677347e-13
1.38229477e+01 1.48671773e-12 1.13858934e-13 0.00000000e+00 1.37285880e-12 0.00000000e+00 1.13858934e-13
1.42855609e+01 1.42273344e-12 1.03151898e-13 0.00000000e+00 1.31958154e-12 0.00000000e+00 1.03151898e-13
1.47636563e+01 1.43178118e-12 9.34517274e-14 0.00000000e+00 1.33832945e-12 0.00000000e+00 9.34517274e-14
1.52577522e+01 1.45561555e-12 8.46637387e-14 0.00000000e+00 1.37095182e-12 0.00000000e+00 8.46637387e-14
1.57683840e+01 1.48979539e-12 7.67021526e-14 0.00000000e+00 1.41309324e-12 0.00000000e+00 7.67021526e-14
1.62961051e+01 1.52698438e-12 6.94892560e-14 0.00000000e+00 1.45749512e-12 0.00000000e+00 6.94892560e-14
1.68414875e+01 1.56569036e-12 6.29546439e-14 0.00000000e+00 1.50273571e-12 0.00000000e+00 6.29546439e-14
1.74051222e+01 1.57523515e-12 5.70345319e-14 0.00000000e+00 1.51820062e-12 0.00000000e+00 5.70345319e-14
1.79876201e+01 1.58054329e-12 5.16711337e-14 0.00000000e+00 1.52887215e-12 0.00000000e+00 5.16711337e-14
1.85896125e+01 1.55554510e-12 4.68120974e-14 0.00000000e+00 1.50873300e-12 0.00000000e+00 4.68120974e-14
1.92117518e+01 1.51085676e-12 4.24099939e-14 0.00000000e+00 1.46844677e-12 0.00000000e+00 4.24099939e-14
1.98547123e+01 1.44760393e-12 3.84218542e-14 0.00000000e+00 1.40918207e-12 0.00000000e+00 3.84218542e-14
2.05191907e+01 1.38246950e-12 3.48087501e-14 0.00000000e+00 1.34766075e-12 0.00000000e+00 3.48087501e-14
2.12059073e+01 1.32399863e-12 3.15354141e-14 0.00000000e+00 1.29246322e-12 0.00000000e+00 3.15354141e-14
2.19156062e+01 1.26432492e-12 2.85698952e-14 0.00000000e+00 1.23575503e-12 0.00000000e+00 2.85698952e-14
2.26490567e+01 1.21309325e-12 2.58832470e-14 0.00000000e+00 1.18721000e-12 0.00000000e+00 2.58832470e-14
2.34070535e+01 1.16254187e-12 2.34492452e-14 0.00000000e+00 1.13909263e-12 0.00000000e+00 2.34492452e-14
2.41904183e+01 1.11370097e-12 2.12441313e-14 0.00000000e+00 1.09245683e-12 0.00000000e+00 2.12441313e-14
2.50000000e+01 1.06930987e-12 1.92463813e-14 0.00000000e+00 1.05006349e-12 0.00000000e+00 1.92463813e-14
2.75422870e+01 9.42281335e-13 1.43935895e-14 0.00000000e+00 9.27887745e-13 0.00000000e+00 1.43935895e-14
3.16227766e+01 7.69657458e-13 9.50975027e-15 0.00000000e+00 7.60147707e-13 0.00000000e+00 9.50975027e-15
3.63078055e+01 6.01843666e-13 6.28302969e-15 0.00000000e+00 5.95560636e-13 0.00000000e+00 6.28302969e-15
4.16869383e+01 4.42143763e-13 4.15115655e-15 0.00000000e+00 4.37992606e-13 0.00000000e+00 4.15115655e-15
4.78630092e+01 3.05478997e-13 2.74264194e-15 0.00000000e+00 3.02736355e-13 0.00000000e+00 2.74264194e-15
5.49540874e+01 2.00205877e-13 1.81204556e-15 0.00000000e+00 1.98393832e-13 0.00000000e+00 1.81204556e-15
6.30957344e+01 1.25951909e-13 1.19720663e-15 0.00000000e+00 1.24754702e-13 0.00000000e+00 1.19720663e-15
7.24435960e+01 7.65867451e-14 7.90986575e-16 0.00000000e+00 7.57957585e-14 0.00000000e+00 7.90986575e-16
8.31763771e+01 4.53588519e-14 5.22599647e-16 0.00000000e+00 4.48362522e-14 0.00000000e+00 5.22599647e-16
9.54992586e+01 2.63366218e-14 3.45278163e-16 0.00000000e+00 2.59913437e-14 0.00000000e+00 3.45278163e-16
1.09647820e+02 1.50503415e-14 2.28123020e-16 0.00000000e+00 1.48222185e-14 0.00000000e+00 2.28123020e-16
1.25892541e+02 8.58186374e-15 1.50719385e-16 0.00000000e+00 8.43114436e-15 0.00000000e+00 1.50719385e-16
1.44543977e+02 4.85461578e-15 9.95793099e-17 0.00000000e+00 4.75503647e-15 0.00000000e+00 9.95793099e-17
1.65958691e+02 2.61375704e-15 6.57913976e-17 0.00000000e+00 2.54796564e-15 0.00000000e+00 6.57913976e-17
1.90546072e+02 1.40626665e-15 4.34679453e-17 0.00000000e+00 1.36279870e-15 0.00000000e+00 4.34679453e-17
2.18776162e+02 7.54611002e-16 2.87189867e-17 0.00000000e+00 7.25892016e-16 0.00000000e+00 2.87189867e-17
2.51188643e+02 4.03391113e-16 1.89744463e-17 0.00000000e+00 3.84416667e-16 0.00000000e+00 1.89744463e-17
2.88403150e+02 2.14713130e-16 1.25362924e-17 0.00000000e+00 2.02176838e-16 0.00000000e+00 1.25362924e-17
3.31131121e+02 1.14122994e-16 8.28264623e-18 0.00000000e+00 1.05840347e-16 0.00000000e+00 8.28264623e-18
3.80189396e+02 6.05701309e-17 5.47229010e-18 0.00000000e+00 5.50978409e-17 0.00000000e+00 5.47229010e-18
4.36515832e+02 3.21827577e-17 3.61550621e-18 0.00000000e+00 2.85672515e-17 0.00000000e+00 3.61550621e-18
5.01187234e+02 1.71398453e-17 2.38874127e-18 0.00000000e+00 1.47511040e-17 0.00000000e+00 2.38874127e-18
5.75439937e+02 9.16898931e-18 1.57822570e-18 0.00000000e+00 7.59076361e-18 0.00000000e+00 1.57822570e-18
6.60693448e+02 4.93721983e-18 1.04272338e-18 0.00000000e+00 3.89449645e-18 0.00000000e+00 1.04272338e-18
7.58577575e+02 2.68182402e-18 6.88920507e-19 0.00000000e+00 1.99290352e-18 0.00000000e+00 6.88920507e-19
8.70963590e+02 1.47241615e-18 4.55165265e-19 0.00000000e+00 1.01725089e-18 0.00000000e+00 4.55165265e-19
1.00000000e+03 5.18043234e-19 0.00000000e+00 0.00000000e+00 5.18043234e-19 0.00000000e+00 0.00000000e+00
