# column 1: lambda (micron)
# column 2: total flux; lambda*F_lambda (W/m2)
# column 3: direct stellar flux; lambda*F_lambda (W/m2)
# column 4: scattered stellar flux; lambda*F_lambda (W/m2)
# column 5: total dust emission flux; lambda*F_lambda (W/m2)
# column 6: dust emission scattered flux; lambda*F_lambda (W/m2)
# column 7: transparent flux; lambda*F_lambda (W/m2)
1.00000000e-03 6.93681821e-13 6.93678366e-13 3.45529296e-18 0.00000000e+00 0.00000000e+00 6.93993746e-13
1.14815362e-03 8.18648723e-13 8.18643375e-13 5.34800815e-18 0.00000000e+00 0.00000000e+00 8.19135139e-13
1.31825674e-03 9.66112432e-13 9.66104188e-13 8.24402714e-18 0.00000000e+00 0.00000000e+00 9.66842108e-13
1.51356125e-03 1.14016954e-12 1.14015690e-12 1.26393872e-17 0.00000000e+00 0.00000000e+00 1.14118369e-12
1.73780083e-03 1.34576061e-12 1.34573820e-12 2.24145907e-17 0.00000000e+00 0.00000000e+00 1.34696266e-12
1.99526231e-03 1.58797289e-12 1.58793194e-12 4.09447994e-17 0.00000000e+00 0.00000000e+00 1.58984782e-12
2.29086765e-03 1.87419727e-12 1.87413228e-12 6.49903368e-17 0.00000000e+00 0.00000000e+00 1.87653019e-12
2.63026799e-03 2.21164728e-12 2.21151603e-12 1.31248277e-16 0.00000000e+00 0.00000000e+00 2.21490731e-12
3.01995172e-03 2.60958793e-12 2.60935111e-12 2.36816137e-16 0.00000000e+00 0.00000000e+00 2.61430080e-12
3.46736850e-03 3.07949088e-12 3.07882829e-12 6.62587881e-16 0.00000000e+00 0.00000000e+00 3.08571319e-12
3.98107171e-03 3.63380601e-12 3.63283049e-12 9.75513293e-16 0.00000000e+00 0.00000000e+00 3.64213095e-12
4.57088190e-03 4.29294647e-12 4.29155669e-12 1.38978210e-15 0.00000000e+00 0.00000000e+00 4.29888232e-12
5.24807460e-03 5.06665827e-12 5.06301836e-12 3.63990738e-15 0.00000000e+00 0.00000000e+00 5.07405951e-12
6.02559586e-03 5.98812428e-12 5.97330724e-12 1.48170430e-14 0.00000000e+00 0.00000000e+00 5.98901715e-12
6.91830971e-03 7.05893219e-12 7.04756408e-12 1.13681110e-14 0.00000000e+00 0.00000000e+00 7.06896053e-12
7.94328235e-03 8.34024204e-12 8.31546926e-12 2.47727797e-14 2.13454236e-303 2.19818654e-305 8.34363998e-12
9.12010839e-03 9.84135323e-12 9.81127930e-12 3.00739292e-14 9.65782738e-265 4.39510893e-266 9.84817045e-12
1.04712855e-02 1.09965330e-11 1.09552321e-11 4.13009355e-14 4.12469271e-231 2.29686114e-232 1.09990604e-11
1.20226443e-02 1.10169125e-11 1.09526509e-11 6.42616309e-14 6.35499982e-202 2.77172688e-203 1.09990604e-11
1.38038426e-02 1.10300963e-11 1.09495901e-11 8.05062176e-14 1.73377705e-176 8.49035153e-178 1.09990604e-11
1.58489319e-02 1.10468004e-11 1.09458298e-11 1.00970582e-13 2.33412456e-154 1.12791128e-155 1.09990604e-11
1.81970086e-02 1.10767318e-11 1.09423627e-11 1.34369060e-13 4.17023849e-135 2.24304092e-136 1.09990604e-11
2.08929613e-02 1.11253770e-11 1.09394817e-11 1.85895369e-13 2.17184651e-118 1.13411779e-119 1.09990604e-11
2.39883292e-02 1.11638022e-11 1.09357499e-11 2.28052297e-13 7.66428150e-104 4.95862483e-105 1.09990604e-11
2.75422870e-02 1.11927573e-11 1.09314109e-11 2.61346452e-13 3.41254071e-91 2.17923551e-92 1.09990604e-11
3.16227766e-02 1.12226392e-11 1.09271593e-11 2.95479847e-13 3.31169196e-80 2.11644073e-81 1.09990604e-11
3.63078055e-02 1.12405092e-11 1.09238258e-11 3.16683444e-13 1.14706207e-70 7.74088851e-72 1.09990604e-11
4.16869383e-02 1.12930364e-11 1.09209433e-11 3.72093102e-13 2.18473967e-62 1.66507333e-63 1.09990604e-11
4.78630092e-02 1.12973479e-11 1.09130019e-11 3.84345997e-13 3.27722492e-55 2.56210704e-56 1.09990604e-11
5.49540874e-02 1.12666103e-11 1.09019674e-11 3.64642962e-13 5.40468019e-49 4.48498945e-50 1.09990604e-11
6.30957344e-02 1.12434287e-11 1.08743474e-11 3.69081311e-13 1.71238184e-43 1.37963939e-44 1.09990604e-11
7.24435960e-02 1.11477357e-11 1.08417217e-11 3.06013987e-13 9.74693147e-39 7.21575342e-40 1.09990604e-11
8.31763771e-02 1.11281771e-11 1.08446209e-11 2.83556156e-13 9.95862634e-35 7.15429479e-36 1.09990604e-11
9.54992586e-02 1.11473612e-11 1.08531287e-11 2.94232490e-13 2.82033235e-31 2.09633490e-32 1.09990604e-11
1.09647820e-01 1.07108453e-11 1.03881182e-11 3.22727139e-13 2.42311482e-28 2.00508872e-29 1.05040253e-11
1.25892541e-01 1.00414332e-11 9.71379836e-12 3.27634835e-13 7.95810272e-26 6.76204762e-27 9.80292679e-12
1.44543977e-01 9.38759048e-12 9.07962619e-12 3.07964287e-13 1.09719848e-23 9.28850467e-25 9.14862359e-12
1.65958691e-01 8.80509651e-12 8.48165148e-12 3.23445037e-13 5.60759664e-22 5.21156030e-23 8.53799231e-12
1.90546072e-01 8.23208892e-12 7.91203514e-12 3.20053764e-13 1.17931736e-20 1.25510041e-21 7.96811805e-12
2.18776162e-01 7.65703233e-12 7.37492197e-12 2.82110218e-13 1.37983226e-19 1.45685832e-20 7.43628044e-12
2.51188643e-01 7.21882658e-12 6.89410720e-12 3.24717666e-13 1.71115624e-18 2.21191651e-19 6.93994070e-12
2.88403150e-01 6.74944576e-12 6.44119662e-12 3.08234774e-13 1.43659432e-17 1.83757865e-18 6.47672950e-12
3.31131121e-01 6.29477248e-12 6.01551811e-12 2.79171568e-13 8.28042607e-17 1.02570930e-17 6.04443567e-12
3.80189396e-01 5.87486860e-12 5.61728957e-12 2.57230981e-13 3.48043977e-16 4.26441087e-17 5.64099558e-12
4.36515832e-01 5.47902252e-12 5.24522352e-12 2.32688430e-13 1.11056521e-15 1.34085791e-16 5.26448339e-12
5.01187234e-01 5.11114857e-12 4.89766607e-12 2.10660357e-13 2.82214749e-15 3.39902482e-16 4.91310176e-12
5.75439937e-01 4.77021311e-12 4.57293031e-12 1.91118525e-13 6.16427247e-15 7.80897653e-16 4.58517335e-12
6.60693448e-01 4.45034842e-12 4.26950621e-12 1.68274705e-13 1.25675066e-14 1.81248595e-15 4.27913275e-12
7.58577575e-01 4.16217554e-12 3.98604194e-12 1.49595512e-13 2.65380902e-14 4.51688303e-15 3.99351904e-12
8.70963590e-01 3.91046372e-12 3.72128995e-12 1.29591116e-13 5.95826490e-14 1.13529845e-14 3.72696882e-12
1.00000000e+00 3.71697926e-12 3.47396632e-12 1.08883020e-13 1.34129921e-13 2.64525575e-14 3.47820968e-12
1.14815362e+00 3.62587089e-12 3.24293981e-12 9.28121986e-14 2.90118889e-13 5.40550746e-14 3.24605414e-12
1.31825674e+00 3.68553452e-12 3.02714804e-12 7.41437229e-14 5.84242760e-13 9.86735885e-14 3.02939399e-12
1.51356125e+00 3.94770782e-12 2.82559165e-12 5.75280296e-14 1.06458813e-12 1.56963942e-13 2.82719497e-12
1.73780083e+00 4.41402576e-12 2.63736594e-12 4.45197142e-14 1.73214011e-12 2.15731638e-13 2.63849186e-12
1.99526231e+00 5.01378320e-12 2.46160561e-12 3.36771443e-14 2.51850045e-12 2.57630136e-13 2.46238388e-12
2.29086765e+00 5.66030718e-12 2.29749406e-12 2.43491520e-14 3.33846396e-12 2.72002634e-13 2.29803035e-12
2.63026799e+00 6.29423610e-12 2.14427371e-12 1.78498946e-14 4.13211250e-12 2.63371757e-13 2.14464670e-12
3.01995172e+00 6.72991208e-12 2.00123800e-12 1.24987323e-14 4.71617535e-12 2.34391390e-13 2.00150076e-12
3.46736850e+00 7.05236396e-12 1.86772107e-12 8.79114176e-15 5.17585175e-12 1.96298587e-13 1.86790919e-12
3.98107171e+00 7.18518999e-12 1.74309788e-12 6.02046196e-15 5.43607165e-12 1.54841296e-13 1.74323429e-12
4.57088190e+00 7.16070201e-12 1.62678063e-12 4.07259842e-15 5.52984878e-12 1.12894335e-13 1.62688090e-12
5.24807460e+00 6.84427871e-12 1.34511455e-12 2.37033046e-15 5.49679383e-12 7.71978021e-14 1.34518114e-12
6.02559586e+00 6.25413610e-12 8.88715804e-13 1.02989452e-15 5.36439040e-12 4.99854431e-14 8.88752369e-13
6.70000000e+00 5.85810652e-12 6.46458347e-13 5.28152888e-16 5.21112002e-12 3.39134842e-14 6.46481889e-13
6.92422916e+00 5.73116514e-12 5.85667617e-13 4.25055645e-16 5.14507247e-12 2.97786686e-14 5.85688198e-13
7.15596261e+00 5.62933682e-12 5.30593087e-13 3.39815344e-16 5.09840392e-12 2.57972961e-14 5.30611407e-13
7.39545150e+00 5.60013664e-12 4.80696920e-13 2.60270463e-16 5.11917945e-12 2.20456497e-14 4.80713913e-13
7.64295536e+00 5.75309275e-12 4.35491125e-13 1.78718932e-16 5.31742291e-12 1.80155501e-14 4.35508666e-13
7.89874245e+00 6.12990120e-12 3.94533886e-13 1.08794448e-16 5.73525852e-12 1.38125358e-14 3.94554418e-13
8.16308998e+00 6.65169960e-12 3.57426299e-13 6.25676466e-17 6.29421073e-12 1.03334162e-14 3.57451415e-13
8.43628443e+00 7.34673962e-12 3.23805881e-13 3.30886369e-17 7.02290065e-12 7.46609085e-15 3.23837494e-13
8.71862190e+00 7.76937917e-12 2.93349359e-13 2.09408043e-17 7.47600887e-12 5.67722664e-15 2.93384550e-13
9.01040836e+00 8.19297715e-12 2.65756711e-13 1.25120952e-17 7.92720792e-12 4.24301268e-15 2.65795332e-13
9.31196005e+00 8.46475462e-12 2.40759960e-13 0.00000000e+00 8.22399466e-12 0.00000000e+00 2.40800541e-13
9.62360379e+00 8.35662525e-12 2.18118471e-13 0.00000000e+00 8.13850678e-12 0.00000000e+00 2.18156204e-13
9.94567731e+00 7.96912784e-12 1.97609213e-13 0.00000000e+00 7.77151862e-12 0.00000000e+00 1.97641289e-13
1.02785297e+01 7.62365887e-12 1.79029261e-13 0.00000000e+00 7.44462961e-12 0.00000000e+00 1.79055550e-13
1.06225216e+01 7.19321661e-12 1.62196257e-13 0.00000000e+00 7.03102035e-12 0.00000000e+00 1.62217572e-13
1.09780260e+01 6.75316404e-12 1.46946340e-13 0.00000000e+00 6.60621770e-12 0.00000000e+00 1.46962999e-13
1.13454280e+01 6.32913540e-12 1.33129859e-13 0.00000000e+00 6.19600555e-12 0.00000000e+00 1.33142932e-13
1.17251259e+01 5.98155458e-12 1.20612148e-13 0.00000000e+00 5.86094243e-12 0.00000000e+00 1.20622472e-13
1.21175312e+01 5.67339393e-12 1.09271297e-13 0.00000000e+00 5.56412264e-12 0.00000000e+00 1.09279408e-13
1.25230691e+01 5.36471009e-12 9.89966647e-14 0.00000000e+00 5.26571343e-12 0.00000000e+00 9.90030204e-14
1.29421791e+01 5.09662265e-12 8.96879859e-14 0.00000000e+00 5.00693467e-12 0.00000000e+00 8.96930008e-14
1.33753155e+01 4.82698627e-12 8.12544891e-14 0.00000000e+00 4.74573178e-12 0.00000000e+00 8.12584743e-14
1.38229477e+01 4.68489339e-12 7.36137985e-14 0.00000000e+00 4.61127959e-12 0.00000000e+00 7.36171115e-14
1.42855609e+01 4.56070557e-12 6.66914458e-14 0.00000000e+00 4.49401412e-12 0.00000000e+00 6.66943252e-14
1.47636563e+01 4.58013760e-12 6.04198092e-14 0.00000000e+00 4.51971779e-12 0.00000000e+00 6.04225420e-14
1.52577522e+01 4.61320139e-12 5.47379026e-14 0.00000000e+00 4.55846349e-12 0.00000000e+00 5.47405431e-14
1.57683840e+01 4.67259181e-12 4.95902824e-14 0.00000000e+00 4.62300153e-12 0.00000000e+00 4.95928665e-14
1.62961051e+01 4.73589104e-12 4.49267399e-14 0.00000000e+00 4.69096430e-12 0.00000000e+00 4.49292657e-14
1.68414875e+01 4.78557151e-12 4.07017561e-14 0.00000000e+00 4.74486975e-12 0.00000000e+00 4.07042194e-14
1.74051222e+01 4.79852486e-12 3.68741476e-14 0.00000000e+00 4.76165071e-12 0.00000000e+00 3.68764869e-14
1.79876201e+01 4.76514371e-12 3.34065215e-14 0.00000000e+00 4.73173719e-12 0.00000000e+00 3.34087056e-14
1.85896125e+01 4.70341436e-12 3.02650505e-14 0.00000000e+00 4.67314931e-12 0.00000000e+00 3.02670267e-14
1.92117518e+01 4.57730028e-12 2.74190483e-14 0.00000000e+00 4.54988123e-12 0.00000000e+00 2.74207841e-14
1.98547123e+01 4.45686078e-12 2.48407008e-14 0.00000000e+00 4.43202008e-12 0.00000000e+00 2.48421957e-14
2.05191907e+01 4.28514645e-12 2.25048174e-14 0.00000000e+00 4.26264163e-12 0.00000000e+00 2.25060919e-14
2.12059073e+01 4.13068498e-12 2.03885836e-14 0.00000000e+00 4.11029640e-12 0.00000000e+00 2.03896700e-14
2.19156062e+01 3.95122624e-12 1.84713411e-14 0.00000000e+00 3.93275490e-12 0.00000000e+00 1.84722717e-14
2.26490567e+01 3.81535562e-12 1.67343828e-14 0.00000000e+00 3.79862124e-12 0.00000000e+00 1.67351811e-14
2.34070535e+01 3.65998766e-12 1.51607564e-14 0.00000000e+00 3.64482691e-12 0.00000000e+00 1.51614426e-14
2.41904183e+01 3.49822539e-12 1.37351036e-14 0.00000000e+00 3.48449029e-12 0.00000000e+00 1.37356949e-14
2.50000000e+01 3.34369368e-12 1.24435107e-14 0.00000000e+00 3.33125017e-12 0.00000000e+00 1.24440213e-14
2.75422870e+01 2.90156231e-12 9.30604678e-15 0.00000000e+00 2.89225627e-12 0.00000000e+00 9.30637977e-15
3.16227766e+01 2.25498409e-12 6.14848119e-15 0.00000000e+00 2.24883561e-12 0.00000000e+00 6.14866414e-15
3.63078055e+01 1.66349327e-12 4.06228213e-15 0.00000000e+00 1.65943099e-12 0.00000000e+00 4.06238211e-15
4.16869383e+01 1.14879461e-12 2.68393605e-15 0.00000000e+00 1.14611067e-12 0.00000000e+00 2.68398924e-15
4.78630092e+01 7.44881277e-13 1.77326668e-15 0.00000000e+00 7.43108010e-13 0.00000000e+00 1.77329411e-15
5.49540874e+01 4.56967924e-13 1.17158996e-15 0.00000000e+00 4.55796334e-13 0.00000000e+00 1.17160380e-15
6.30957344e+01 2.68374152e-13 7.74064060e-16 0.00000000e+00 2.67600088e-13 0.00000000e+00 7.74070953e-16
7.24435960e+01 1.52412243e-13 5.11420198e-16 0.00000000e+00 1.51900822e-13 0.00000000e+00 5.11423607e-16
8.31763771e+01 8.44293382e-14 3.37892543e-16 0.00000000e+00 8.40914457e-14 0.00000000e+00 3.37894226e-16
9.54992586e+01 4.60070326e-14 2.23243668e-16 0.00000000e+00 4.57837889e-14 0.00000000e+00 2.23244502e-16
1.09647820e+02 2.47677869e-14 1.47495766e-16 0.00000000e+00 2.46202911e-14 0.00000000e+00 1.47496179e-16
1.25892541e+02 1.33782201e-14 9.74495508e-17 0.00000000e+00 1.32807705e-14 0.00000000e+00 9.74497594e-17
1.44543977e+02 7.20809276e-15 6.43843116e-17 0.00000000e+00 7.14370845e-15 0.00000000e+00 6.43844175e-17
1.65958691e+02 3.71013381e-15 4.25383109e-17 0.00000000e+00 3.66759550e-15 0.00000000e+00 4.25383628e-17
1.90546072e+02 1.91673789e-15 2.81047919e-17 0.00000000e+00 1.88863310e-15 0.00000000e+00 2.81048176e-17
2.18776162e+02 9.91675050e-16 1.85686560e-17 0.00000000e+00 9.73106393e-16 0.00000000e+00 1.85686688e-17
2.51188643e+02 5.12825314e-16 1.22681914e-17 0.00000000e+00 5.00557123e-16 0.00000000e+00 1.22681978e-17
2.88403150e+02 2.64741307e-16 8.10551473e-18 0.00000000e+00 2.56635792e-16 0.00000000e+00 8.10551794e-18
3.31131121e+02 1.36751467e-16 5.35526099e-18 0.00000000e+00 1.31396206e-16 0.00000000e+00 5.35526259e-18
3.80189396e+02 7.06297522e-17 3.53818610e-18 0.00000000e+00 6.70915661e-17 0.00000000e+00 3.53818691e-18
4.36515832e+02 3.65428659e-17 2.33765650e-18 0.00000000e+00 3.42052094e-17 0.00000000e+00 2.33765691e-18
5.01187234e+02 1.89502618e-17 1.54447440e-18 0.00000000e+00 1.74057874e-17 0.00000000e+00 1.54447460e-18
5.75439937e+02 9.86398871e-18 1.02042415e-18 0.00000000e+00 8.84356456e-18 0.00000000e+00 1.02042425e-18
6.60693448e+02 5.16161233e-18 6.74187565e-19 0.00000000e+00 4.48742476e-18 0.00000000e+00 6.74187617e-19
7.58577575e+02 2.71980672e-18 4.45431315e-19 0.00000000e+00 2.27437541e-18 0.00000000e+00 4.45431341e-19
8.70963590e+02 1.44558129e-18 2.94293556e-19 0.00000000e+00 1.15128773e-18 0.00000000e+00 2.94293569e-19
1.00000000e+03 5.82068130e-19 0.00000000e+00 0.00000000e+00 5.82068130e-19 0.00000000e+00 0.00000000e+00
