# column 1: lambda (micron)
# column 2: total flux; lambda*F_lambda (W/m2)
# column 3: direct stellar flux; lambda*F_lambda (W/m2)
# column 4: scattered stellar flux; lambda*F_lambda (W/m2)
# column 5: total dust emission flux; lambda*F_lambda (W/m2)
# column 6: dust emission scattered flux; lambda*F_lambda (W/m2)
# column 7: transparent flux; lambda*F_lambda (W/m2)
1.00000000e-03 1.07336068e-12 1.07335627e-12 4.40517891e-18 0.00000000e+00 0.00000000e+00 1.07335627e-12
1.14815362e-03 1.26691085e-12 1.26690456e-12 6.29756080e-18 0.00000000e+00 0.00000000e+00 1.26690456e-12
1.31825674e-03 1.49536285e-12 1.49535359e-12 9.26227575e-18 0.00000000e+00 0.00000000e+00 1.49535359e-12
1.51356125e-03 1.76501024e-12 1.76499670e-12 1.35423928e-17 0.00000000e+00 0.00000000e+00 1.76499670e-12
1.73780083e-03 2.08328574e-12 2.08326203e-12 2.37112524e-17 0.00000000e+00 0.00000000e+00 2.08326203e-12
1.99526231e-03 2.45895644e-12 2.45891716e-12 3.92766698e-17 0.00000000e+00 0.00000000e+00 2.45891716e-12
2.29086765e-03 2.90237164e-12 2.90231066e-12 6.09791394e-17 0.00000000e+00 0.00000000e+00 2.90231066e-12
2.63026799e-03 3.42577710e-12 3.42565717e-12 1.19930522e-16 0.00000000e+00 0.00000000e+00 3.42565717e-12
3.01995172e-03 4.04356462e-12 4.04337385e-12 1.90771245e-16 0.00000000e+00 0.00000000e+00 4.04337385e-12
3.46736850e-03 4.77277581e-12 4.77247759e-12 2.98224239e-16 0.00000000e+00 0.00000000e+00 4.77247759e-12
3.98107171e-03 5.63352133e-12 5.63305378e-12 4.67548006e-16 0.00000000e+00 0.00000000e+00 5.63305378e-12
4.57088190e-03 6.64998172e-12 6.64880962e-12 1.17210424e-15 0.00000000e+00 0.00000000e+00 6.64880962e-12
5.24807460e-03 7.84966998e-12 7.84772720e-12 1.94278448e-15 0.00000000e+00 0.00000000e+00 7.84772720e-12
6.02559586e-03 9.26665284e-12 9.26283435e-12 3.81848995e-15 0.00000000e+00 0.00000000e+00 9.26283435e-12
6.91830971e-03 1.09384940e-11 1.09331145e-11 5.37947291e-15 0.00000000e+00 0.00000000e+00 1.09331145e-11
7.94328235e-03 1.29131499e-11 1.29045807e-11 8.56924434e-15 7.24227863e-304 8.05178620e-306 1.29045807e-11
9.12010839e-03 1.52547745e-11 1.52315429e-11 2.32316115e-14 4.16506145e-265 6.17375472e-267 1.52315429e-11
1.04712855e-02 1.70331093e-11 1.70115517e-11 2.15575519e-14 2.27164728e-231 8.05592121e-233 1.70115517e-11
1.20226443e-02 1.70618179e-11 1.70115517e-11 5.02661386e-14 4.26735837e-202 6.21800178e-204 1.70115517e-11
1.38038426e-02 1.70610149e-11 1.70115517e-11 4.94631669e-14 1.38993749e-176 2.43852977e-178 1.70115517e-11
1.58489319e-02 1.70842896e-11 1.70115517e-11 7.27378435e-14 2.24162065e-154 8.80281656e-156 1.70115517e-11
1.81970086e-02 1.70958505e-11 1.70115517e-11 8.42987635e-14 4.50466174e-135 1.22106359e-136 1.70115517e-11
2.08929613e-02 1.71238110e-11 1.70115517e-11 1.12259253e-13 2.65615429e-118 8.52434881e-120 1.70115517e-11
2.39883292e-02 1.71581194e-11 1.70115517e-11 1.46567710e-13 1.03383062e-103 3.82661982e-105 1.70115517e-11
2.75422870e-02 1.71928725e-11 1.70115517e-11 1.81320774e-13 5.07618030e-91 2.22676295e-92 1.70115517e-11
3.16227766e-02 1.72358390e-11 1.70115517e-11 2.24287326e-13 5.35501556e-80 2.57272250e-81 1.70115517e-11
3.63078055e-02 1.72652384e-11 1.70115517e-11 2.53686681e-13 1.98392897e-70 9.88109733e-72 1.70115517e-11
4.16869383e-02 1.73476288e-11 1.70115517e-11 3.36077098e-13 4.02133361e-62 2.42181821e-63 1.70115517e-11
4.78630092e-02 1.74011754e-11 1.70115517e-11 3.89623729e-13 6.39447766e-55 4.32778369e-56 1.70115517e-11
5.49540874e-02 1.74392138e-11 1.70115517e-11 4.27662049e-13 1.10536851e-48 7.90745886e-50 1.70115517e-11
6.30957344e-02 1.74407969e-11 1.70115517e-11 4.29245206e-13 3.64603338e-43 2.49663769e-44 1.70115517e-11
7.24435960e-02 1.73628636e-11 1.70115517e-11 3.51311930e-13 2.14760076e-38 1.27928940e-39 1.70115517e-11
8.31763771e-02 1.73541117e-11 1.70115517e-11 3.42559971e-13 2.26473730e-34 1.30556418e-35 1.70115517e-11
9.54992586e-02 1.73643902e-11 1.70115517e-11 3.52838483e-13 6.55168811e-31 3.85834215e-32 1.70115517e-11
1.09647820e-01 1.66373893e-11 1.62459122e-11 3.91477138e-13 5.76168408e-28 3.91668784e-29 1.62459122e-11
1.25892541e-01 1.55560879e-11 1.51615674e-11 3.94520518e-13 1.92606439e-25 1.40543340e-26 1.51615674e-11
1.44543977e-01 1.45292057e-11 1.41495980e-11 3.79607767e-13 2.69760741e-23 2.07138759e-24 1.41495980e-11
1.65958691e-01 1.35954947e-11 1.32051732e-11 3.90321536e-13 1.40046232e-21 1.23109610e-22 1.32051732e-11
1.90546072e-01 1.27293140e-11 1.23237846e-11 4.05529332e-13 2.97887155e-20 2.87976686e-21 1.23237846e-11
2.18776162e-01 1.18489504e-11 1.15012250e-11 3.47725053e-13 3.50492169e-19 3.08894854e-20 1.15012250e-11
2.51188643e-01 1.11418181e-11 1.07335677e-11 4.08245955e-13 4.38906901e-18 5.16019450e-19 1.07335677e-11
2.88403150e-01 1.04188053e-11 1.00171482e-11 4.01619643e-13 3.73876612e-17 4.69751809e-18 1.00171482e-11
3.31131121e-01 9.72922980e-12 9.34854667e-12 3.80465005e-13 2.18124661e-16 2.84394614e-17 9.34854667e-12
3.80189396e-01 9.07923437e-12 8.72457139e-12 3.53741342e-13 9.21636593e-16 1.22683009e-16 8.72457139e-12
4.36515832e-01 8.47605766e-12 8.14224377e-12 3.30854208e-13 2.95967680e-15 4.09363740e-16 8.14224377e-12
5.01187234e-01 7.91708009e-12 7.59878402e-12 3.10786875e-13 7.50919512e-15 1.08090933e-15 7.59878402e-12
5.75439937e-01 7.38871355e-12 7.09159786e-12 2.81187762e-13 1.59279275e-14 2.40137133e-15 7.09159786e-12
6.60693448e-01 6.90376791e-12 6.61826421e-12 2.55243166e-13 3.02605340e-14 5.16888844e-15 6.61826421e-12
7.58577575e-01 6.46603955e-12 6.17652353e-12 2.32450073e-13 5.70659452e-14 1.18783068e-14 6.17652353e-12
8.70963590e-01 6.08250619e-12 5.76426715e-12 2.02685756e-13 1.15553282e-13 2.86790005e-14 5.76426715e-12
1.00000000e+00 5.79680526e-12 5.37952711e-12 1.71599978e-13 2.45678175e-13 6.63726771e-14 5.37952711e-12
1.14815362e+00 5.68633689e-12 5.02046681e-12 1.39918507e-13 5.25951573e-13 1.36579277e-13 5.02046681e-12
1.31825674e+00 5.88257370e-12 4.68537225e-12 1.11531915e-13 1.08566954e-12 2.42556247e-13 4.68537225e-12
1.51356125e+00 6.49268429e-12 4.37264380e-12 8.66261131e-14 2.03341438e-12 3.85261751e-13 4.37264380e-12
1.73780083e+00 7.56581325e-12 4.08078863e-12 6.82502972e-14 3.41677432e-12 5.34434676e-13 4.08078863e-12
1.99526231e+00 9.03099963e-12 3.80841354e-12 5.27304971e-14 5.16985559e-12 6.49408673e-13 3.80841354e-12
2.29086765e+00 1.07580627e-11 3.55421832e-12 4.01423024e-14 7.16370209e-12 7.14712341e-13 3.55421832e-12
2.63026799e+00 1.25043385e-11 3.31698953e-12 3.06723607e-14 9.15667659e-12 7.20392711e-13 3.31698953e-12
3.01995172e+00 1.40790734e-11 3.09559474e-12 2.25707037e-14 1.09609080e-11 6.94793611e-13 3.09559474e-12
3.46736850e+00 1.56524299e-11 2.88897711e-12 1.66413683e-14 1.27468115e-11 6.37092278e-13 2.88897711e-12
3.98107171e+00 1.68488603e-11 2.69615031e-12 1.18937381e-14 1.41408162e-11 5.43411050e-13 2.69615031e-12
4.57088190e+00 1.79398782e-11 2.51619387e-12 8.20468104e-15 1.54154796e-11 4.28061315e-13 2.51619387e-12
5.24807460e+00 1.83122606e-11 2.08050667e-12 4.78166488e-15 1.62269723e-11 3.06677017e-13 2.08050667e-12
6.02559586e+00 1.78199614e-11 1.37457712e-12 2.14103045e-15 1.64432432e-11 2.01221893e-13 1.37457712e-12
6.70000000e+00 1.72379876e-11 9.99872685e-13 1.10616689e-15 1.62370088e-11 1.35974836e-13 9.99872685e-13
6.92422916e+00 1.70479399e-11 9.05846924e-13 8.98873396e-16 1.61411941e-11 1.19137290e-13 9.05846924e-13
7.15596261e+00 1.68637012e-11 8.20663132e-13 7.07642723e-16 1.60423304e-11 1.02730904e-13 8.20663132e-13
7.39545150e+00 1.67710669e-11 7.43489831e-13 5.44207912e-16 1.60270328e-11 8.72804017e-14 7.43489831e-13
7.64295536e+00 1.70355379e-11 6.73573732e-13 3.76075180e-16 1.63615881e-11 7.09659881e-14 6.73573732e-13
7.89874245e+00 1.76433619e-11 6.10232385e-13 2.24095008e-16 1.70329054e-11 5.31903282e-14 6.10232385e-13
8.16308998e+00 1.82625693e-11 5.52847515e-13 1.24323221e-16 1.77095974e-11 3.86383588e-14 5.52847515e-13
8.43628443e+00 1.88448019e-11 5.00858987e-13 6.45597088e-17 1.83438783e-11 2.62047412e-14 5.00858987e-13
8.71862190e+00 1.91100537e-11 4.53759343e-13 3.85035231e-17 1.86562559e-11 1.95199474e-14 4.53759343e-13
9.01040836e+00 1.96135959e-11 4.11088843e-13 2.23010734e-17 1.92024847e-11 1.39635238e-14 4.11088843e-13
9.31196005e+00 1.96630090e-11 3.72430980e-13 0.00000000e+00 1.92905780e-11 0.00000000e+00 3.72430980e-13
9.62360379e+00 1.95510167e-11 3.37408415e-13 0.00000000e+00 1.92136083e-11 0.00000000e+00 3.37408415e-13
9.94567731e+00 1.90749209e-11 3.05679292e-13 0.00000000e+00 1.87692416e-11 0.00000000e+00 3.05679292e-13
1.02785297e+01 1.84147733e-11 2.76933904e-13 0.00000000e+00 1.81378394e-11 0.00000000e+00 2.76933904e-13
1.06225216e+01 1.80294642e-11 2.50891667e-13 0.00000000e+00 1.77785726e-11 0.00000000e+00 2.50891667e-13
1.09780260e+01 1.75016097e-11 2.27298384e-13 0.00000000e+00 1.72743114e-11 0.00000000e+00 2.27298384e-13
1.13454280e+01 1.68509203e-11 2.05923759e-13 0.00000000e+00 1.66449966e-11 0.00000000e+00 2.05923759e-13
1.17251259e+01 1.63671475e-11 1.86559155e-13 0.00000000e+00 1.61805883e-11 0.00000000e+00 1.86559155e-13
1.21175312e+01 1.57374300e-11 1.69015555e-13 0.00000000e+00 1.55684145e-11 0.00000000e+00 1.69015555e-13
1.25230691e+01 1.50382923e-11 1.53121715e-13 0.00000000e+00 1.48851706e-11 0.00000000e+00 1.53121715e-13
1.29421791e+01 1.42660852e-11 1.38722496e-13 0.00000000e+00 1.41273627e-11 0.00000000e+00 1.38722496e-13
1.33753155e+01 1.35734213e-11 1.25677347e-13 0.00000000e+00 1.34477440e-11 0.00000000e+00 1.25677347e-13
1.38229477e+01 1.29172122e-11 1.13858934e-13 0.00000000e+00 1.28033533e-11 0.00000000e+00 1.13858934e-13
1.42855609e+01 1.25390533e-11 1.03151898e-13 0.00000000e+00 1.24359014e-11 0.00000000e+00 1.03151898e-13
1.47636563e+01 1.23711982e-11 9.34517274e-14 0.00000000e+00 1.22777465e-11 0.00000000e+00 9.34517274e-14
1.52577522e+01 1.23539398e-11 8.46637387e-14 0.00000000e+00 1.22692761e-11 0.00000000e+00 8.46637387e-14
1.57683840e+01 1.23436620e-11 7.67021526e-14 0.00000000e+00 1.22669599e-11 0.00000000e+00 7.67021526e-14
1.62961051e+01 1.22856001e-11 6.94892560e-14 0.00000000e+00 1.22161109e-11 0.00000000e+00 6.94892560e-14
1.68414875e+01 1.21788508e-11 6.29546439e-14 0.00000000e+00 1.21158961e-11 0.00000000e+00 6.29546439e-14
1.74051222e+01 1.20315931e-11 5.70345319e-14 0.00000000e+00 1.19745586e-11 0.00000000e+00 5.70345319e-14
1.79876201e+01 1.17855339e-11 5.16711337e-14 0.00000000e+00 1.17338627e-11 0.00000000e+00 5.16711337e-14
1.85896125e+01 1.15009303e-11 4.68120974e-14 0.00000000e+00 1.14541182e-11 0.00000000e+00 4.68120974e-14
1.92117518e+01 1.10459559e-11 4.24099939e-14 0.00000000e+00 1.10035459e-11 0.00000000e+00 4.24099939e-14
1.98547123e+01 1.04767672e-11 3.84218542e-14 0.00000000e+00 1.04383453e-11 0.00000000e+00 3.84218542e-14
2.05191907e+01 9.98933524e-12 3.48087501e-14 0.00000000e+00 9.95452649e-12 0.00000000e+00 3.48087501e-14
2.12059073e+01 9.49358407e-12 3.15354141e-14 0.00000000e+00 9.46204865e-12 0.00000000e+00 3.15354141e-14
2.19156062e+01 8.93490778e-12 2.85698952e-14 0.00000000e+00 8.90633789e-12 0.00000000e+00 2.85698952e-14
2.26490567e+01 8.43699579e-12 2.58832470e-14 0.00000000e+00 8.41111254e-12 0.00000000e+00 2.58832470e-14
2.34070535e+01 7.96598388e-12 2.34492452e-14 0.00000000e+00 7.94253464e-12 0.00000000e+00 2.34492452e-14
2.41904183e+01 7.50209465e-12 2.12441313e-14 0.00000000e+00 7.48085052e-12 0.00000000e+00 2.12441313e-14
2.50000000e+01 7.04491879e-12 1.92463813e-14 0.00000000e+00 7.02567241e-12 0.00000000e+00 1.92463813e-14
2.75422870e+01 5.79352041e-12 1.43935895e-14 0.00000000e+00 5.77912682e-12 0.00000000e+00 1.43935895e-14
3.16227766e+01 4.22169303e-12 9.50975027e-15 0.00000000e+00 4.21218328e-12 0.00000000e+00 9.50975027e-15
3.63078055e+01 2.93311841e-12 6.28302969e-15 0.00000000e+00 2.92683538e-12 0.00000000e+00 6.28302969e-15
4.16869383e+01 1.92211234e-12 4.15115655e-15 0.00000000e+00 1.91796119e-12 0.00000000e+00 4.15115655e-15
4.78630092e+01 1.18445113e-12 2.74264194e-15 0.00000000e+00 1.18170849e-12 0.00000000e+00 2.74264194e-15
5.49540874e+01 6.96388625e-13 1.81204556e-15 0.00000000e+00 6.94576580e-13 0.00000000e+00 1.81204556e-15
6.30957344e+01 3.93777570e-13 1.19720663e-15 0.00000000e+00 3.92580364e-13 0.00000000e+00 1.19720663e-15
7.24435960e+01 2.16576166e-13 7.90986575e-16 0.00000000e+00 2.15785179e-13 0.00000000e+00 7.90986575e-16
8.31763771e+01 1.16805341e-13 5.22599647e-16 0.00000000e+00 1.16282742e-13 0.00000000e+00 5.22599647e-16
9.54992586e+01 6.21650378e-14 3.45278163e-16 0.00000000e+00 6.18197596e-14 0.00000000e+00 3.45278163e-16
1.09647820e+02 3.28448815e-14 2.28123020e-16 0.00000000e+00 3.26167585e-14 0.00000000e+00 2.28123020e-16
1.25892541e+02 1.74539651e-14 1.50719385e-16 0.00000000e+00 1.73032457e-14 0.00000000e+00 1.50719385e-16
1.44543977e+02 9.27858751e-15 9.95793099e-17 0.00000000e+00 9.17900820e-15 0.00000000e+00 9.95793099e-17
1.65958691e+02 4.72209149e-15 6.57913976e-17 0.00000000e+00 4.65630009e-15 0.00000000e+00 6.57913976e-17
1.90546072e+02 2.41750582e-15 4.34679453e-17 0.00000000e+00 2.37403787e-15 0.00000000e+00 4.34679453e-17
2.18776162e+02 1.24158136e-15 2.87189867e-17 0.00000000e+00 1.21286237e-15 0.00000000e+00 2.87189867e-17
2.51188643e+02 6.38275122e-16 1.89744463e-17 0.00000000e+00 6.19300675e-16 0.00000000e+00 1.89744463e-17
2.88403150e+02 3.28126196e-16 1.25362924e-17 0.00000000e+00 3.15589904e-16 0.00000000e+00 1.25362924e-17
3.31131121e+02 1.69008816e-16 8.28264623e-18 0.00000000e+00 1.60726170e-16 0.00000000e+00 8.28264623e-18
3.80189396e+02 8.71718718e-17 5.47229010e-18 0.00000000e+00 8.16995817e-17 0.00000000e+00 5.47229010e-18
4.36515832e+02 4.51076261e-17 3.61550621e-18 0.00000000e+00 4.14921199e-17 0.00000000e+00 3.61550621e-18
5.01187234e+02 2.34326998e-17 2.38874127e-18 0.00000000e+00 2.10439586e-17 0.00000000e+00 2.38874127e-18
5.75439937e+02 1.22400479e-17 1.57822570e-18 0.00000000e+00 1.06618222e-17 0.00000000e+00 1.57822570e-18
6.60693448e+02 6.43952096e-18 1.04272338e-18 0.00000000e+00 5.39679758e-18 0.00000000e+00 1.04272338e-18
7.58577575e+02 3.41843129e-18 6.88920507e-19 0.00000000e+00 2.72951079e-18 0.00000000e+00 6.88920507e-19
8.70963590e+02 1.83432756e-18 4.55165265e-19 0.00000000e+00 1.37916230e-18 0.00000000e+00 4.55165265e-19
1.00000000e+03 6.96182801e-19 0.00000000e+00 0.00000000e+00 6.96182801e-19 0.00000000e+00 0.00000000e+00
