# column 1: lambda (micron)
# column 2: total flux; lambda*F_lambda (W/m2)
# column 3: direct stellar flux; lambda*F_lambda (W/m2)
# column 4: scattered stellar flux; lambda*F_lambda (W/m2)
# column 5: total dust emission flux; lambda*F_lambda (W/m2)
# column 6: dust emission scattered flux; lambda*F_lambda (W/m2)
# column 7: transparent flux; lambda*F_lambda (W/m2)
1.00000000e-03 5.25012652e-13 5.25012492e-13 1.59829011e-19 0.00000000e+00 0.00000000e+00 5.25636674e-13
1.14815362e-03 6.19446914e-13 6.19446656e-13 2.58280731e-19 0.00000000e+00 0.00000000e+00 6.20419813e-13
1.31825674e-03 7.30834652e-13 7.30834222e-13 4.30207041e-19 0.00000000e+00 0.00000000e+00 7.32294308e-13
1.51356125e-03 8.62340602e-13 8.62310646e-13 2.99553168e-17 0.00000000e+00 0.00000000e+00 8.64342083e-13
1.73780083e-03 1.01778186e-12 1.01777830e-12 3.56368339e-18 0.00000000e+00 0.00000000e+00 1.02020080e-12
1.99526231e-03 1.20047665e-12 1.20037454e-12 1.02104815e-16 0.00000000e+00 0.00000000e+00 1.20416405e-12
2.29086765e-03 1.41685702e-12 1.41655703e-12 2.99995495e-16 0.00000000e+00 0.00000000e+00 1.42129968e-12
2.63026799e-03 1.67096383e-12 1.67088335e-12 8.04875206e-17 0.00000000e+00 0.00000000e+00 1.67758934e-12
3.01995172e-03 1.97045413e-12 1.97030854e-12 1.45593442e-16 0.00000000e+00 0.00000000e+00 1.98009332e-12
3.46736850e-03 2.32367560e-12 2.32353835e-12 1.37247042e-16 0.00000000e+00 0.00000000e+00 2.33714500e-12
3.98107171e-03 2.83112537e-12 2.74020472e-12 9.09206504e-14 0.00000000e+00 0.00000000e+00 2.75858048e-12
4.57088190e-03 3.24312426e-12 3.24152561e-12 1.59865077e-15 0.00000000e+00 0.00000000e+00 3.25600946e-12
5.24807460e-03 3.82441335e-12 3.82131350e-12 3.09984771e-15 0.00000000e+00 0.00000000e+00 3.84313516e-12
6.02559586e-03 4.51077897e-12 4.50509398e-12 5.68498833e-15 0.00000000e+00 0.00000000e+00 4.53613173e-12
6.91830971e-03 5.32625015e-12 5.31183114e-12 1.44190085e-14 0.00000000e+00 0.00000000e+00 5.35408989e-12
7.94328235e-03 6.27009851e-12 6.26392030e-12 6.17821378e-15 2.42340668e-303 1.67304461e-305 6.31954278e-12
9.12010839e-03 7.40158239e-12 7.38626775e-12 1.53146395e-14 1.13014656e-264 7.05928739e-267 7.45908676e-12
1.04712855e-02 8.25685083e-12 8.24428492e-12 1.25659078e-14 5.04059854e-231 2.92364218e-233 8.33078048e-12
1.20226443e-02 8.27091125e-12 8.23920828e-12 3.17029704e-14 8.33210692e-202 1.04979788e-203 8.33078048e-12
1.38038426e-02 8.26655620e-12 8.23319087e-12 3.33653277e-14 2.36445943e-176 3.11580601e-178 8.33078048e-12
1.58489319e-02 8.25891589e-12 8.22580196e-12 3.31139246e-14 3.31804199e-154 4.87944238e-156 8.33078048e-12
1.81970086e-02 8.24990395e-12 8.21899289e-12 3.09110538e-14 6.11932262e-135 1.09558032e-136 8.33078048e-12
2.08929613e-02 8.24934242e-12 8.21333738e-12 3.60050322e-14 3.29738723e-118 7.77376589e-120 8.33078048e-12
2.39883292e-02 8.24396637e-12 8.20601553e-12 3.79508386e-14 1.18551779e-103 3.07462467e-105 8.33078048e-12
2.75422870e-02 8.24081974e-12 8.19750715e-12 4.33125890e-14 5.43392652e-91 1.70559831e-92 8.33078048e-12
3.16227766e-02 8.23584783e-12 8.18917566e-12 4.66721647e-14 5.38648009e-80 1.77598592e-81 8.33078048e-12
3.63078055e-02 8.23160410e-12 8.18264678e-12 4.89573206e-14 1.89939330e-70 6.86230866e-72 8.33078048e-12
4.16869383e-02 8.23430537e-12 8.17700398e-12 5.73013858e-14 3.67483313e-62 1.63162023e-63 8.33078048e-12
4.78630092e-02 8.22822125e-12 8.16146989e-12 6.67513617e-14 5.62029196e-55 2.92267823e-56 8.33078048e-12
5.49540874e-02 8.21023744e-12 8.13991582e-12 7.03216136e-14 9.43146355e-49 5.51126256e-50 8.33078048e-12
6.30957344e-02 8.16512424e-12 8.08611901e-12 7.90052255e-14 3.05315484e-43 1.86005196e-44 8.33078048e-12
7.24435960e-02 8.10305413e-12 8.02285582e-12 8.01983052e-14 1.76452434e-38 9.59292761e-40 8.33078048e-12
8.31763771e-02 8.10259656e-12 8.02846520e-12 7.41313550e-14 1.82088129e-34 9.88291291e-36 8.33078048e-12
9.54992586e-02 8.11956626e-12 8.04493983e-12 7.46264263e-14 5.17384872e-31 2.92684373e-32 8.33078048e-12
1.09647820e-01 7.80310252e-12 7.72839468e-12 7.47078389e-14 4.43437046e-28 2.77258297e-29 7.95583672e-12
1.25892541e-01 7.31716975e-12 7.24964855e-12 6.75211989e-14 1.45166127e-25 9.36176051e-27 7.42481883e-12
1.44543977e-01 6.85090751e-12 6.79346843e-12 5.74390794e-14 1.99086631e-23 1.27830154e-24 6.92924411e-12
1.65958691e-01 6.41130192e-12 6.35579261e-12 5.55093059e-14 1.01537353e-21 7.20669242e-23 6.46674687e-12
1.90546072e-01 5.98667215e-12 5.92471230e-12 6.19598253e-14 2.14562461e-20 1.75395810e-21 6.03511933e-12
2.18776162e-01 5.56993060e-12 5.51162690e-12 5.83034441e-14 2.53426021e-19 2.09444845e-20 5.63230107e-12
2.51188643e-01 5.22789824e-12 5.16610786e-12 6.17872758e-14 3.10354234e-18 3.17192954e-19 5.25636919e-12
2.88403150e-01 4.88902583e-12 4.83548982e-12 5.35100990e-14 2.59064458e-17 2.60650557e-18 4.90552916e-12
3.31131121e-01 4.57014147e-12 4.52107404e-12 4.89184101e-14 1.49013942e-16 1.47176234e-17 4.57810618e-12
3.80189396e-01 4.27030573e-12 4.22576153e-12 4.39223752e-14 6.21827414e-16 5.99023334e-17 4.27253728e-12
4.36515832e-01 3.99048710e-12 3.94934428e-12 3.91706408e-14 1.97217172e-15 1.89136723e-16 3.98736380e-12
5.01187234e-01 3.73116641e-12 3.69074119e-12 3.55045704e-14 4.92064221e-15 4.61317444e-16 3.72122441e-12
5.75439937e-01 3.48994237e-12 3.44866128e-12 3.11801227e-14 1.01009636e-14 9.21844992e-16 3.47284869e-12
6.60693448e-01 3.26607990e-12 3.22202627e-12 2.63503166e-14 1.77033144e-14 1.59767410e-15 3.24105097e-12
7.58577575e-01 3.06116183e-12 3.00994344e-12 2.36364035e-14 2.75819883e-14 2.42137570e-15 3.02472476e-12
8.70963590e-01 2.87189597e-12 2.81160780e-12 2.10062955e-14 3.92818798e-14 3.28144302e-15 2.82283739e-12
1.00000000e+00 2.69669733e-12 2.62603210e-12 1.81164118e-14 5.25488207e-14 4.15686571e-15 2.63442513e-12
1.14815362e+00 2.53554200e-12 2.45242738e-12 1.34312157e-14 6.96834001e-14 5.22907994e-15 2.45858859e-12
1.31825674e+00 2.39506203e-12 2.29004434e-12 1.06791730e-14 9.43385143e-14 6.46152363e-15 2.29448837e-12
1.51356125e+00 2.27732556e-12 2.13816824e-12 8.50680058e-15 1.30650520e-13 8.00059741e-15 2.14134114e-12
1.73780083e+00 2.18268979e-12 1.99618741e-12 6.16578786e-15 1.80336593e-13 9.47041994e-15 1.99841583e-12
1.99526231e+00 2.10745964e-12 1.86348969e-12 4.48556061e-15 2.39484396e-13 1.02740561e-14 1.86503017e-12
2.29086765e+00 2.04305054e-12 1.73948586e-12 3.04064610e-15 3.00524042e-13 1.02031344e-14 1.74054743e-12
2.63026799e+00 1.97993658e-12 1.62363499e-12 2.13570222e-15 3.54165884e-13 9.20736542e-15 1.62437337e-12
3.01995172e+00 1.90771937e-12 1.51543325e-12 1.44109218e-15 3.90845024e-13 7.72752610e-15 1.51595343e-12
3.46736850e+00 1.82373280e-12 1.41439763e-12 9.46616237e-16 4.08388558e-13 6.12571105e-15 1.41477006e-12
3.98107171e+00 1.72432868e-12 1.32007019e-12 6.42666635e-16 4.03615828e-13 4.41812333e-15 1.32034025e-12
4.57088190e+00 1.61488191e-12 1.23201472e-12 4.10366245e-16 3.82456827e-13 3.05110541e-15 1.23221321e-12
5.24807460e+00 1.36895590e-12 1.01871961e-12 2.35160577e-16 3.50001127e-13 1.93831565e-15 1.01885146e-12
6.02559586e+00 9.87796245e-13 6.73076095e-13 1.00922449e-16 3.14619228e-13 1.14869154e-15 6.73148485e-13
6.70000000e+00 7.75933989e-13 4.89604187e-13 4.83411004e-17 2.86281460e-13 7.41414351e-16 4.89650796e-13
6.92422916e+00 7.20956145e-13 4.43564399e-13 3.96295471e-17 2.77352116e-13 6.37240582e-16 4.43605145e-13
7.15596261e+00 6.72924283e-13 4.01853253e-13 2.99928601e-17 2.71041037e-13 5.42959859e-16 4.01889522e-13
7.39545150e+00 6.36347856e-13 3.64063100e-13 2.33743014e-17 2.72261382e-13 4.54918350e-16 3.64096743e-13
7.64295536e+00 6.23955333e-13 3.29823183e-13 1.67758800e-17 2.94115374e-13 3.85148714e-16 3.29857910e-13
7.89874245e+00 6.46659439e-13 2.98798171e-13 1.08550447e-17 3.47850413e-13 3.24048565e-16 2.98838820e-13
8.16308998e+00 6.97440129e-13 2.70686970e-13 6.27620724e-18 4.26746883e-13 2.61688390e-16 2.70736695e-13
8.43628443e+00 7.81705471e-13 2.45214645e-13 3.66260477e-18 5.36487163e-13 2.06851973e-16 2.45277229e-13
8.71862190e+00 8.35613207e-13 2.22142249e-13 2.29067069e-18 6.13468667e-13 1.61887758e-16 2.22211915e-13
9.01040836e+00 8.95805546e-13 2.01239155e-13 1.48163425e-18 6.94564910e-13 1.23192609e-16 2.01315610e-13
9.31196005e+00 9.40028669e-13 1.82304012e-13 0.00000000e+00 7.57724657e-13 0.00000000e+00 1.82384346e-13
9.62360379e+00 9.14604791e-13 1.65158639e-13 0.00000000e+00 7.49446152e-13 0.00000000e+00 1.65233336e-13
9.94567731e+00 8.43550573e-13 1.49631669e-13 0.00000000e+00 6.93918904e-13 0.00000000e+00 1.49695167e-13
1.02785297e+01 7.59698509e-13 1.35566130e-13 0.00000000e+00 6.24132379e-13 0.00000000e+00 1.35618173e-13
1.06225216e+01 6.78470416e-13 1.22822750e-13 0.00000000e+00 5.55647666e-13 0.00000000e+00 1.22864947e-13
1.09780260e+01 5.96038608e-13 1.11278026e-13 0.00000000e+00 4.84760582e-13 0.00000000e+00 1.11311006e-13
1.13454280e+01 5.24983354e-13 1.00817692e-13 0.00000000e+00 4.24165662e-13 0.00000000e+00 1.00843571e-13
1.17251259e+01 4.64621258e-13 9.13400318e-14 0.00000000e+00 3.73281226e-13 0.00000000e+00 9.13604705e-14
1.21175312e+01 4.10581502e-13 8.27530802e-14 0.00000000e+00 3.27828422e-13 0.00000000e+00 8.27691389e-14
1.25230691e+01 3.62566579e-13 7.49731338e-14 0.00000000e+00 2.87593446e-13 0.00000000e+00 7.49857166e-14
1.29421791e+01 3.22528203e-13 6.79243015e-14 0.00000000e+00 2.54603902e-13 0.00000000e+00 6.79342298e-14
1.33753155e+01 2.88490885e-13 6.15379590e-14 0.00000000e+00 2.26952926e-13 0.00000000e+00 6.15458488e-14
1.38229477e+01 2.65253795e-13 5.57516576e-14 0.00000000e+00 2.09502137e-13 0.00000000e+00 5.57582167e-14
1.42855609e+01 2.49107487e-13 5.05091396e-14 0.00000000e+00 1.98598348e-13 0.00000000e+00 5.05148403e-14
1.47636563e+01 2.46126600e-13 4.57591288e-14 0.00000000e+00 2.00367471e-13 0.00000000e+00 4.57645392e-14
1.52577522e+01 2.46422611e-13 4.14557180e-14 0.00000000e+00 2.04966893e-13 0.00000000e+00 4.14609457e-14
1.57683840e+01 2.48756847e-13 3.75569364e-14 0.00000000e+00 2.11199910e-13 0.00000000e+00 3.75620523e-14
1.62961051e+01 2.51722658e-13 3.40248015e-14 0.00000000e+00 2.17697856e-13 0.00000000e+00 3.40298020e-14
1.68414875e+01 2.54616026e-13 3.08248398e-14 0.00000000e+00 2.23791186e-13 0.00000000e+00 3.08297166e-14
1.74051222e+01 2.54207018e-13 2.79259288e-14 0.00000000e+00 2.26281089e-13 0.00000000e+00 2.79305599e-14
1.79876201e+01 2.51882354e-13 2.52997093e-14 0.00000000e+00 2.26582644e-13 0.00000000e+00 2.53040334e-14
1.85896125e+01 2.45290095e-13 2.29205870e-14 0.00000000e+00 2.22369508e-13 0.00000000e+00 2.29244994e-14
1.92117518e+01 2.34910659e-13 2.07652949e-14 0.00000000e+00 2.14145364e-13 0.00000000e+00 2.07687314e-14
1.98547123e+01 2.22806899e-13 1.88127274e-14 0.00000000e+00 2.03994172e-13 0.00000000e+00 1.88156870e-14
2.05191907e+01 2.10514479e-13 1.70437793e-14 0.00000000e+00 1.93470700e-13 0.00000000e+00 1.70463024e-14
2.12059073e+01 1.99472724e-13 1.54411560e-14 0.00000000e+00 1.84031568e-13 0.00000000e+00 1.54433068e-14
2.19156062e+01 1.89674174e-13 1.39892109e-14 0.00000000e+00 1.75684964e-13 0.00000000e+00 1.39910532e-14
2.26490567e+01 1.80382862e-13 1.26737857e-14 0.00000000e+00 1.67709076e-13 0.00000000e+00 1.26753663e-14
2.34070535e+01 1.72139407e-13 1.14820451e-14 0.00000000e+00 1.60657362e-13 0.00000000e+00 1.14834036e-14
2.41904183e+01 1.64733813e-13 1.04023597e-14 0.00000000e+00 1.54331454e-13 0.00000000e+00 1.04035303e-14
2.50000000e+01 1.57642900e-13 9.42419502e-15 0.00000000e+00 1.48218705e-13 0.00000000e+00 9.42520591e-15
2.75422870e+01 1.39765599e-13 7.04807070e-15 0.00000000e+00 1.32717528e-13 0.00000000e+00 7.04872996e-15
3.16227766e+01 1.17108033e-13 4.65668750e-15 0.00000000e+00 1.12451345e-13 0.00000000e+00 4.65704970e-15
3.63078055e+01 9.52518616e-14 3.07668427e-15 0.00000000e+00 9.21751773e-14 0.00000000e+00 3.07688223e-15
4.16869383e+01 7.38207554e-14 2.03277060e-15 0.00000000e+00 7.17879848e-14 0.00000000e+00 2.03287593e-15
4.78630092e+01 5.40649731e-14 1.34305351e-15 0.00000000e+00 5.27219196e-14 0.00000000e+00 1.34310781e-15
5.49540874e+01 3.77765289e-14 8.87355131e-16 0.00000000e+00 3.68891737e-14 0.00000000e+00 8.87382527e-16
6.30957344e+01 2.52944785e-14 5.86274174e-16 0.00000000e+00 2.47082043e-14 0.00000000e+00 5.86287821e-16
7.24435960e+01 1.63239274e-14 3.87349773e-16 0.00000000e+00 1.59365776e-14 0.00000000e+00 3.87356522e-16
8.31763771e+01 1.02137503e-14 2.55920583e-16 0.00000000e+00 9.95782976e-15 0.00000000e+00 2.55923916e-16
9.54992586e+01 6.23078024e-15 1.69085605e-16 0.00000000e+00 6.06169463e-15 0.00000000e+00 1.69087255e-16
1.09647820e+02 3.72070990e-15 1.11714022e-16 0.00000000e+00 3.60899588e-15 0.00000000e+00 1.11714841e-16
1.25892541e+02 2.20468371e-15 7.38088507e-17 0.00000000e+00 2.13087486e-15 0.00000000e+00 7.38092637e-17
1.44543977e+02 1.29001465e-15 4.87650872e-17 0.00000000e+00 1.24124957e-15 0.00000000e+00 4.87652969e-17
1.65958691e+02 7.16431409e-16 3.22188093e-17 0.00000000e+00 6.84212600e-16 0.00000000e+00 3.22189122e-17
1.90546072e+02 3.96216795e-16 2.12867733e-17 0.00000000e+00 3.74930022e-16 0.00000000e+00 2.12868242e-17
2.18776162e+02 2.17924249e-16 1.40640399e-17 0.00000000e+00 2.03860210e-16 0.00000000e+00 1.40640653e-17
2.51188643e+02 1.19165319e-16 9.29202309e-18 0.00000000e+00 1.09873296e-16 0.00000000e+00 9.29203577e-18
2.88403150e+02 6.47976437e-17 6.13918081e-18 0.00000000e+00 5.86584629e-17 0.00000000e+00 6.13918715e-18
3.31131121e+02 3.51600786e-17 4.05611755e-18 0.00000000e+00 3.11039611e-17 0.00000000e+00 4.05612073e-18
3.80189396e+02 1.90500473e-17 2.67985079e-18 0.00000000e+00 1.63701965e-17 0.00000000e+00 2.67985239e-18
4.36515832e+02 1.03382156e-17 1.77056011e-18 0.00000000e+00 8.56765544e-18 0.00000000e+00 1.77056092e-18
5.01187234e+02 5.62945168e-18 1.16979759e-18 0.00000000e+00 4.45965409e-18 0.00000000e+00 1.16979800e-18
5.75439937e+02 3.08364069e-18 7.72877670e-19 0.00000000e+00 2.31076302e-18 0.00000000e+00 7.72877871e-19
6.60693448e+02 1.70323309e-18 5.10635244e-19 0.00000000e+00 1.19259785e-18 0.00000000e+00 5.10635346e-19
7.58577575e+02 9.50767295e-19 3.37373376e-19 0.00000000e+00 6.13393919e-19 0.00000000e+00 3.37373427e-19
8.70963590e+02 5.37374555e-19 2.22900387e-19 0.00000000e+00 3.14474168e-19 0.00000000e+00 2.22900413e-19
1.00000000e+03 1.60755247e-19 0.00000000e+00 0.00000000e+00 1.60755247e-19 0.00000000e+00 0.00000000e+00
