# column 1: lambda (micron)
# column 2: total flux; lambda*F_lambda (W/m2)
# column 3: direct stellar flux; lambda*F_lambda (W/m2)
# column 4: scattered stellar flux; lambda*F_lambda (W/m2)
# column 5: total dust emission flux; lambda*F_lambda (W/m2)
# column 6: dust emission scattered flux; lambda*F_lambda (W/m2)
# column 7: transparent flux; lambda*F_lambda (W/m2)
1.00000000e-03 1.07208550e-12 1.07207876e-12 6.74188787e-18 0.00000000e+00 0.00000000e+00 1.07335627e-12
1.14815362e-03 1.26492246e-12 1.26491280e-12 9.66578075e-18 0.00000000e+00 0.00000000e+00 1.26690456e-12
1.31825674e-03 1.49237969e-12 1.49236524e-12 1.44520489e-17 0.00000000e+00 0.00000000e+00 1.49535359e-12
1.51356125e-03 1.76086639e-12 1.76083897e-12 2.74173648e-17 0.00000000e+00 0.00000000e+00 1.76499670e-12
1.73780083e-03 2.07976186e-12 2.07830391e-12 1.45794889e-15 0.00000000e+00 0.00000000e+00 2.08326203e-12
1.99526231e-03 2.45187825e-12 2.45116120e-12 7.17052395e-16 0.00000000e+00 0.00000000e+00 2.45891716e-12
2.29086765e-03 2.91426495e-12 2.89260391e-12 2.16610359e-14 0.00000000e+00 0.00000000e+00 2.90231066e-12
2.63026799e-03 3.41387647e-12 3.41193207e-12 1.94439867e-15 0.00000000e+00 0.00000000e+00 3.42565717e-12
3.01995172e-03 4.02388930e-12 4.02334745e-12 5.41851643e-16 0.00000000e+00 0.00000000e+00 4.04337385e-12
3.46736850e-03 4.80621390e-12 4.74462904e-12 6.15848591e-14 0.00000000e+00 0.00000000e+00 4.77247759e-12
3.98107171e-03 5.61130218e-12 5.59544440e-12 1.58577843e-14 0.00000000e+00 0.00000000e+00 5.63305378e-12
4.57088190e-03 6.71359231e-12 6.61916566e-12 9.44266480e-14 0.00000000e+00 0.00000000e+00 6.64880962e-12
5.24807460e-03 7.81058673e-12 7.80306510e-12 7.52163335e-15 0.00000000e+00 0.00000000e+00 7.84772720e-12
6.02559586e-03 9.32960317e-12 9.19930988e-12 1.30293298e-13 0.00000000e+00 0.00000000e+00 9.26283435e-12
6.91830971e-03 1.08723733e-11 1.08466243e-11 2.57489698e-14 0.00000000e+00 0.00000000e+00 1.09331145e-11
7.94328235e-03 1.28445058e-11 1.27907393e-11 5.37665033e-14 3.66555400e-303 1.67784295e-305 1.29045807e-11
9.12010839e-03 1.51562562e-11 1.50825059e-11 7.37502728e-14 1.67885437e-264 7.57005565e-267 1.52315429e-11
1.04712855e-02 1.69439975e-11 1.68345234e-11 1.09474116e-13 7.43411995e-231 9.59279951e-233 1.70115517e-11
1.20226443e-02 1.69181544e-11 1.68241333e-11 9.40211263e-14 1.19835685e-201 1.06105034e-203 1.70115517e-11
1.38038426e-02 1.69278203e-11 1.68118178e-11 1.16002499e-13 3.36470967e-176 3.56856700e-178 1.70115517e-11
1.58489319e-02 1.69536036e-11 1.67966953e-11 1.56908254e-13 4.67798477e-154 6.38218991e-156 1.70115517e-11
1.81970086e-02 1.69642313e-11 1.67827596e-11 1.81471718e-13 8.55294682e-135 1.47704393e-136 1.70115517e-11
2.08929613e-02 1.70082128e-11 1.67711848e-11 2.37027957e-13 4.57581444e-118 1.06600666e-119 1.70115517e-11
2.39883292e-02 1.70421862e-11 1.67561997e-11 2.85986481e-13 1.63666882e-103 4.52189314e-105 1.70115517e-11
2.75422870e-02 1.70749622e-11 1.67387862e-11 3.36175983e-13 7.46526942e-91 2.53886066e-92 1.70115517e-11
3.16227766e-02 1.70980918e-11 1.67217348e-11 3.76356988e-13 7.39439898e-80 2.91532225e-81 1.70115517e-11
3.63078055e-02 1.71046681e-11 1.67083727e-11 3.96295439e-13 2.58934838e-70 1.04201515e-71 1.70115517e-11
4.16869383e-02 1.71467038e-11 1.66968241e-11 4.49879769e-13 4.98870885e-62 2.40803467e-63 1.70115517e-11
4.78630092e-02 1.71371905e-11 1.66650319e-11 4.72158629e-13 7.59433634e-55 4.06169921e-56 1.70115517e-11
5.49540874e-02 1.70654555e-11 1.66209194e-11 4.44536134e-13 1.26561959e-48 6.95028059e-50 1.70115517e-11
6.30957344e-02 1.68798773e-11 1.65108201e-11 3.69057228e-13 4.07956657e-43 2.17680805e-44 1.70115517e-11
7.24435960e-02 1.66700715e-11 1.63813494e-11 2.88722180e-13 2.36041651e-38 1.11242207e-39 1.70115517e-11
8.31763771e-02 1.66730756e-11 1.63928291e-11 2.80246468e-13 2.42608003e-34 1.10951161e-35 1.70115517e-11
9.54992586e-02 1.66987154e-11 1.64265449e-11 2.72170461e-13 6.87019995e-31 3.29382495e-32 1.70115517e-11
1.09647820e-01 1.60948569e-11 1.57804219e-11 3.14434986e-13 5.86376703e-28 3.11172048e-29 1.62459122e-11
1.25892541e-01 1.51443344e-11 1.48030561e-11 3.41278227e-13 1.91397495e-25 1.06814913e-26 1.51615674e-11
1.44543977e-01 1.42059170e-11 1.38717122e-11 3.34204886e-13 2.62036305e-23 1.48632039e-24 1.41495980e-11
1.65958691e-01 1.33126385e-11 1.29780876e-11 3.34550891e-13 1.32915402e-21 8.11498520e-23 1.32051732e-11
1.90546072e-01 1.24056209e-11 1.20978194e-11 3.07801524e-13 2.79802807e-20 1.93577356e-21 1.23237846e-11
2.18776162e-01 1.14960278e-11 1.12542473e-11 2.41780114e-13 3.30271461e-19 2.25129231e-20 1.15012250e-11
2.51188643e-01 1.08240884e-11 1.05488335e-11 2.75250846e-13 4.01298485e-18 3.35257525e-19 1.07335677e-11
2.88403150e-01 1.01516335e-11 9.87380108e-12 2.77798935e-13 3.34932553e-17 2.79910767e-18 1.00171482e-11
3.31131121e-01 9.49851922e-12 9.23182066e-12 2.66506259e-13 1.92300333e-16 1.57852806e-17 9.34854667e-12
3.80189396e-01 8.88649958e-12 8.62883665e-12 2.56860167e-13 8.02766218e-16 6.48732125e-17 8.72457139e-12
4.36515832e-01 8.29804977e-12 8.06443008e-12 2.31081921e-13 2.53776225e-15 1.99167708e-16 8.14224377e-12
5.01187234e-01 7.75237468e-12 7.53639460e-12 2.09638140e-13 6.34194129e-15 4.97411334e-16 7.59878402e-12
5.75439937e-01 7.24479136e-12 7.04209389e-12 1.89472938e-13 1.32245310e-14 1.12413389e-15 7.09159786e-12
6.60693448e-01 6.76714290e-12 6.57932660e-12 1.63522393e-13 2.42939045e-14 2.45538321e-15 6.61826421e-12
7.58577575e-01 6.33355484e-12 6.14627077e-12 1.43862753e-13 4.34213117e-14 6.13104194e-15 6.17652353e-12
8.70963590e-01 5.94467287e-12 5.74128365e-12 1.21843705e-13 8.15455214e-14 1.57316826e-14 5.76426715e-12
1.00000000e+00 5.62996081e-12 5.36234914e-12 1.01503382e-13 1.66108288e-13 3.81320842e-14 5.37952711e-12
1.14815362e+00 5.44549311e-12 5.00785671e-12 8.15216010e-14 3.56114803e-13 8.32751551e-14 5.02046681e-12
1.31825674e+00 5.49166495e-12 4.67627666e-12 6.34161789e-14 7.51972110e-13 1.57993706e-13 4.68537225e-12
1.51356125e+00 5.88979296e-12 4.36614983e-12 5.15646177e-14 1.47207852e-12 2.60635241e-13 4.37264380e-12
1.73780083e+00 6.73021439e-12 4.07622772e-12 4.14183363e-14 2.61256833e-12 3.81150091e-13 4.08078863e-12
1.99526231e+00 7.96027201e-12 3.80526064e-12 3.37084054e-14 4.12130297e-12 4.91456813e-13 3.80841354e-12
2.29086765e+00 9.48419995e-12 3.55204560e-12 2.61208261e-14 5.90603352e-12 5.69599487e-13 3.55421832e-12
2.63026799e+00 1.11585724e-11 3.31547828e-12 2.05963361e-14 7.82249773e-12 5.89543890e-13 3.31698953e-12
3.01995172e+00 1.28314019e-11 3.09453009e-12 1.63402577e-14 9.72053156e-12 5.94370761e-13 3.09559474e-12
3.46736850e+00 1.45251270e-11 2.88821484e-12 1.28156432e-14 1.16240966e-11 5.73025795e-13 2.88897711e-12
3.98107171e+00 1.61569836e-11 2.69559758e-12 9.85940228e-15 1.34515266e-11 5.22873137e-13 2.69615031e-12
4.57088190e+00 1.76551106e-11 2.51578761e-12 7.48477563e-15 1.51318382e-11 4.48471907e-13 2.51619387e-12
5.24807460e+00 1.90275082e-11 2.08023681e-12 4.63994952e-15 1.69426315e-11 3.54291509e-13 2.08050667e-12
6.02559586e+00 1.96105255e-11 1.37442896e-12 2.23407466e-15 1.82338625e-11 2.59376102e-13 1.37457712e-12
6.70000000e+00 2.00331306e-11 9.99777291e-13 1.21227807e-15 1.90321410e-11 1.91228333e-13 9.99872685e-13
6.92422916e+00 2.01061236e-11 9.05763529e-13 9.99645246e-16 1.91993604e-11 1.71617746e-13 9.05846924e-13
7.15596261e+00 2.01744320e-11 8.20588900e-13 7.96449069e-16 1.93530467e-11 1.51580341e-13 8.20663132e-13
7.39545150e+00 2.01438973e-11 7.43420974e-13 6.00336177e-16 1.93998760e-11 1.29201227e-13 7.43489831e-13
7.64295536e+00 2.00668358e-11 6.73502656e-13 3.97619901e-16 1.93929355e-11 1.00744388e-13 6.73573732e-13
7.89874245e+00 1.98855134e-11 6.10149190e-13 2.13988781e-16 1.92751502e-11 6.99916597e-14 6.10232385e-13
8.16308998e+00 1.94994814e-11 5.52745744e-13 1.08978776e-16 1.89466267e-11 4.59889962e-14 5.52847515e-13
8.43628443e+00 1.91509435e-11 5.00730897e-13 5.17187900e-17 1.86501609e-11 2.89534523e-14 5.00858987e-13
8.71862190e+00 1.89073455e-11 4.53616758e-13 3.06145250e-17 1.84536981e-11 2.10518607e-14 4.53759343e-13
9.01040836e+00 1.85848931e-11 4.10932362e-13 1.80662158e-17 1.81739427e-11 1.53762931e-14 4.11088843e-13
9.31196005e+00 1.86895843e-11 3.72266560e-13 0.00000000e+00 1.83173177e-11 0.00000000e+00 3.72430980e-13
9.62360379e+00 1.82695362e-11 3.37255533e-13 0.00000000e+00 1.79322807e-11 0.00000000e+00 3.37408415e-13
9.94567731e+00 1.84193202e-11 3.05549330e-13 0.00000000e+00 1.81137709e-11 0.00000000e+00 3.05679292e-13
1.02785297e+01 1.84490431e-11 2.76827388e-13 0.00000000e+00 1.81722158e-11 0.00000000e+00 2.76933904e-13
1.06225216e+01 1.88251408e-11 2.50805303e-13 0.00000000e+00 1.85743355e-11 0.00000000e+00 2.50891667e-13
1.09780260e+01 1.90369259e-11 2.27230883e-13 0.00000000e+00 1.88096950e-11 0.00000000e+00 2.27298384e-13
1.13454280e+01 1.91695458e-11 2.05870791e-13 0.00000000e+00 1.89636750e-11 0.00000000e+00 2.05923759e-13
1.17251259e+01 1.92851125e-11 1.86517324e-13 0.00000000e+00 1.90985951e-11 0.00000000e+00 1.86559155e-13
1.21175312e+01 1.93493471e-11 1.68982688e-13 0.00000000e+00 1.91803644e-11 0.00000000e+00 1.69015555e-13
1.25230691e+01 1.93567995e-11 1.53095962e-13 0.00000000e+00 1.92037035e-11 0.00000000e+00 1.53121715e-13
1.29421791e+01 1.90770950e-11 1.38702176e-13 0.00000000e+00 1.89383928e-11 0.00000000e+00 1.38722496e-13
1.33753155e+01 1.89783253e-11 1.25661199e-13 0.00000000e+00 1.88526641e-11 0.00000000e+00 1.25677347e-13
1.38229477e+01 1.87009012e-11 1.13845510e-13 0.00000000e+00 1.85870557e-11 0.00000000e+00 1.13858934e-13
1.42855609e+01 1.85224882e-11 1.03140230e-13 0.00000000e+00 1.84193479e-11 0.00000000e+00 1.03151898e-13
1.47636563e+01 1.83102991e-11 9.34406539e-14 0.00000000e+00 1.82168584e-11 0.00000000e+00 9.34517274e-14
1.52577522e+01 1.80513817e-11 8.46530393e-14 0.00000000e+00 1.79667286e-11 0.00000000e+00 8.46637387e-14
1.57683840e+01 1.79495570e-11 7.66916818e-14 0.00000000e+00 1.78728653e-11 0.00000000e+00 7.67021526e-14
1.62961051e+01 1.76249062e-11 6.94790214e-14 0.00000000e+00 1.75554272e-11 0.00000000e+00 6.94892560e-14
1.68414875e+01 1.74040685e-11 6.29446626e-14 0.00000000e+00 1.73411239e-11 0.00000000e+00 6.29546439e-14
1.74051222e+01 1.70645125e-11 5.70250534e-14 0.00000000e+00 1.70074875e-11 0.00000000e+00 5.70345319e-14
1.79876201e+01 1.67369880e-11 5.16622838e-14 0.00000000e+00 1.66853257e-11 0.00000000e+00 5.16711337e-14
1.85896125e+01 1.62582037e-11 4.68040900e-14 0.00000000e+00 1.62113996e-11 0.00000000e+00 4.68120974e-14
1.92117518e+01 1.59551451e-11 4.24029604e-14 0.00000000e+00 1.59127422e-11 0.00000000e+00 4.24099939e-14
1.98547123e+01 1.54065143e-11 3.84157968e-14 0.00000000e+00 1.53680985e-11 0.00000000e+00 3.84218542e-14
2.05191907e+01 1.49260435e-11 3.48035859e-14 0.00000000e+00 1.48912399e-11 0.00000000e+00 3.48087501e-14
2.12059073e+01 1.43928728e-11 3.15310121e-14 0.00000000e+00 1.43613418e-11 0.00000000e+00 3.15354141e-14
2.19156062e+01 1.38993309e-11 2.85661246e-14 0.00000000e+00 1.38707647e-11 0.00000000e+00 2.85698952e-14
2.26490567e+01 1.33180271e-11 2.58800121e-14 0.00000000e+00 1.32921471e-11 0.00000000e+00 2.58832470e-14
2.34070535e+01 1.26395638e-11 2.34464647e-14 0.00000000e+00 1.26161173e-11 0.00000000e+00 2.34492452e-14
2.41904183e+01 1.21242156e-11 2.12417354e-14 0.00000000e+00 1.21029738e-11 0.00000000e+00 2.12441313e-14
2.50000000e+01 1.15001411e-11 1.92443123e-14 0.00000000e+00 1.14808968e-11 0.00000000e+00 1.92463813e-14
2.75422870e+01 9.81207207e-12 1.43922402e-14 0.00000000e+00 9.79767983e-12 0.00000000e+00 1.43935895e-14
3.16227766e+01 7.52112360e-12 9.50900894e-15 0.00000000e+00 7.51161459e-12 0.00000000e+00 9.50975027e-15
3.63078055e+01 5.46220568e-12 6.28262454e-15 0.00000000e+00 5.45592305e-12 0.00000000e+00 6.28302969e-15
4.16869383e+01 3.76731294e-12 4.15094099e-15 0.00000000e+00 3.76316200e-12 0.00000000e+00 4.15115655e-15
4.78630092e+01 2.44874347e-12 2.74253081e-15 0.00000000e+00 2.44600094e-12 0.00000000e+00 2.74264194e-15
5.49540874e+01 1.51004133e-12 1.81198949e-15 0.00000000e+00 1.50822934e-12 0.00000000e+00 1.81204556e-15
6.30957344e+01 8.93781448e-13 1.19717870e-15 0.00000000e+00 8.92584270e-13 0.00000000e+00 1.19720663e-15
7.24435960e+01 5.08445880e-13 7.90972760e-16 0.00000000e+00 5.07654908e-13 0.00000000e+00 7.90986575e-16
8.31763771e+01 2.82330010e-13 5.22592826e-16 0.00000000e+00 2.81807417e-13 0.00000000e+00 5.22599647e-16
9.54992586e+01 1.53678623e-13 3.45274787e-16 0.00000000e+00 1.53333349e-13 0.00000000e+00 3.45278163e-16
1.09647820e+02 8.24508839e-14 2.28121343e-16 0.00000000e+00 8.22227625e-14 0.00000000e+00 2.28123020e-16
1.25892541e+02 4.43109007e-14 1.50718539e-16 0.00000000e+00 4.41601822e-14 0.00000000e+00 1.50719385e-16
1.44543977e+02 2.37411350e-14 9.95788806e-17 0.00000000e+00 2.36415561e-14 0.00000000e+00 9.95793099e-17
1.65958691e+02 1.21681480e-14 6.57911871e-17 0.00000000e+00 1.21023568e-14 0.00000000e+00 6.57913976e-17
1.90546072e+02 6.25351028e-15 4.34678411e-17 0.00000000e+00 6.21004244e-15 0.00000000e+00 4.34679453e-17
2.18776162e+02 3.21522426e-15 2.87189348e-17 0.00000000e+00 3.18650532e-15 0.00000000e+00 2.87189867e-17
2.51188643e+02 1.65198212e-15 1.89744204e-17 0.00000000e+00 1.63300769e-15 0.00000000e+00 1.89744463e-17
2.88403150e+02 8.46752191e-16 1.25362794e-17 0.00000000e+00 8.34215912e-16 0.00000000e+00 1.25362924e-17
3.31131121e+02 4.34016794e-16 8.28263973e-18 0.00000000e+00 4.25734154e-16 0.00000000e+00 8.28264623e-18
3.80189396e+02 2.22190012e-16 5.47228684e-18 0.00000000e+00 2.16717725e-16 0.00000000e+00 5.47229010e-18
4.36515832e+02 1.13799516e-16 3.61550458e-18 0.00000000e+00 1.10184011e-16 0.00000000e+00 3.61550621e-18
5.01187234e+02 5.83168910e-17 2.38874044e-18 0.00000000e+00 5.59281506e-17 0.00000000e+00 2.38874127e-18
5.75439937e+02 2.99308431e-17 1.57822529e-18 0.00000000e+00 2.83526178e-17 0.00000000e+00 1.57822570e-18
6.60693448e+02 1.54005681e-17 1.04272317e-18 0.00000000e+00 1.43578449e-17 0.00000000e+00 1.04272338e-18
7.58577575e+02 7.95295472e-18 6.88920402e-19 0.00000000e+00 7.26403432e-18 0.00000000e+00 6.88920507e-19
8.70963590e+02 4.12638525e-18 4.55165213e-19 0.00000000e+00 3.67122004e-18 0.00000000e+00 4.55165265e-19
1.00000000e+03 1.85347791e-18 0.00000000e+00 0.00000000e+00 1.85347791e-18 0.00000000e+00 0.00000000e+00
