# column 1: lambda (micron)
# column 2: total flux; lambda*F_lambda (W/m2)
# column 3: direct stellar flux; lambda*F_lambda (W/m2)
# column 4: scattered stellar flux; lambda*F_lambda (W/m2)
# column 5: total dust emission flux; lambda*F_lambda (W/m2)
# column 6: dust emission scattered flux; lambda*F_lambda (W/m2)
# column 7: transparent flux; lambda*F_lambda (W/m2)
1.00000000e-03 1.07335943e-12 1.07335627e-12 3.16403978e-18 0.00000000e+00 0.00000000e+00 1.07335627e-12
1.14815362e-03 1.26690927e-12 1.26690456e-12 4.71104522e-18 0.00000000e+00 0.00000000e+00 1.26690456e-12
1.31825674e-03 1.49536041e-12 1.49535359e-12 6.82252209e-18 0.00000000e+00 0.00000000e+00 1.49535359e-12
1.51356125e-03 1.76500695e-12 1.76499670e-12 1.02507033e-17 0.00000000e+00 0.00000000e+00 1.76499670e-12
1.73780083e-03 2.08328029e-12 2.08326203e-12 1.82674517e-17 0.00000000e+00 0.00000000e+00 2.08326203e-12
1.99526231e-03 2.45894911e-12 2.45891716e-12 3.19468262e-17 0.00000000e+00 0.00000000e+00 2.45891716e-12
2.29086765e-03 2.90235756e-12 2.90231066e-12 4.68947619e-17 0.00000000e+00 0.00000000e+00 2.90231066e-12
2.63026799e-03 3.42574801e-12 3.42565717e-12 9.08443419e-17 0.00000000e+00 0.00000000e+00 3.42565717e-12
3.01995172e-03 4.04352487e-12 4.04337385e-12 1.51018997e-16 0.00000000e+00 0.00000000e+00 4.04337385e-12
3.46736850e-03 4.77270845e-12 4.77247759e-12 2.30857965e-16 0.00000000e+00 0.00000000e+00 4.77247759e-12
3.98107171e-03 5.63340415e-12 5.63305378e-12 3.50372043e-16 0.00000000e+00 0.00000000e+00 5.63305378e-12
4.57088190e-03 6.64969604e-12 6.64880962e-12 8.86416298e-16 0.00000000e+00 0.00000000e+00 6.64880962e-12
5.24807460e-03 7.84925870e-12 7.84772720e-12 1.53150403e-15 0.00000000e+00 0.00000000e+00 7.84772720e-12
6.02559586e-03 9.26546897e-12 9.26283435e-12 2.63461598e-15 0.00000000e+00 0.00000000e+00 9.26283435e-12
6.91830971e-03 1.09371522e-11 1.09331145e-11 4.03770732e-15 0.00000000e+00 0.00000000e+00 1.09331145e-11
7.94328235e-03 1.29130040e-11 1.29045807e-11 8.42333139e-15 0.00000000e+00 0.00000000e+00 1.29045807e-11
9.12010839e-03 1.52421627e-11 1.52315429e-11 1.06198328e-14 0.00000000e+00 0.00000000e+00 1.52315429e-11
1.04712855e-02 1.70251591e-11 1.70115517e-11 1.36073390e-14 0.00000000e+00 0.00000000e+00 1.70115517e-11
1.20226443e-02 1.70342389e-11 1.70115517e-11 2.26871447e-14 0.00000000e+00 0.00000000e+00 1.70115517e-11
1.38038426e-02 1.70413970e-11 1.70115517e-11 2.98452750e-14 2.47119330e-291 3.47044361e-292 1.70115517e-11
1.58489319e-02 1.70584284e-11 1.70115517e-11 4.68766513e-14 2.86544441e-254 3.34431892e-255 1.70115517e-11
1.81970086e-02 1.70679135e-11 1.70115517e-11 5.63617829e-14 5.37422358e-222 7.37020920e-223 1.70115517e-11
2.08929613e-02 1.70992798e-11 1.70115517e-11 8.77281043e-14 6.05874124e-194 7.86531625e-195 1.70115517e-11
2.39883292e-02 1.71203016e-11 1.70115517e-11 1.08749866e-13 1.57824255e-169 1.91624409e-170 1.70115517e-11
2.75422870e-02 1.71473316e-11 1.70115517e-11 1.35779928e-13 2.78713508e-148 3.19297474e-149 1.70115517e-11
3.16227766e-02 1.71775676e-11 1.70115517e-11 1.66015855e-13 8.37089170e-130 9.40768585e-131 1.70115517e-11
3.63078055e-02 1.71938020e-11 1.70115517e-11 1.82250296e-13 9.68283151e-114 1.09308428e-114 1.70115517e-11
4.16869383e-02 1.72633859e-11 1.70115517e-11 2.51834214e-13 9.05662715e-100 1.14785444e-100 1.70115517e-11
4.78630092e-02 1.73234905e-11 1.70115517e-11 3.11938778e-13 1.22559689e-87 1.69591283e-88 1.70115517e-11
5.49540874e-02 1.73708017e-11 1.70115517e-11 3.59249963e-13 4.22700989e-77 6.17087432e-78 1.70115517e-11
6.30957344e-02 1.73892390e-11 1.70115517e-11 3.77687332e-13 7.72179604e-68 1.15441866e-68 1.70115517e-11
7.24435960e-02 1.73433769e-11 1.70115517e-11 3.31825171e-13 8.26627680e-60 1.11724730e-60 1.70115517e-11
8.31763771e-02 1.73394478e-11 1.70115517e-11 3.27896058e-13 6.18155274e-53 8.23572070e-54 1.70115517e-11
9.54992586e-02 1.73462332e-11 1.70115517e-11 3.34681508e-13 5.56351253e-47 7.82307444e-48 1.70115517e-11
1.09647820e-01 1.66165632e-11 1.62459122e-11 3.70651038e-13 7.44507784e-42 1.16431801e-42 1.62459122e-11
1.25892541e-01 1.55220816e-11 1.51615674e-11 3.60514245e-13 2.02767565e-37 3.30898350e-38 1.51615674e-11
1.44543977e-01 1.44943870e-11 1.41495980e-11 3.44788993e-13 1.33279661e-33 2.18797265e-34 1.41495980e-11
1.65958691e-01 1.35709728e-11 1.32051732e-11 3.65799687e-13 2.04790898e-30 3.76150724e-31 1.32051732e-11
1.90546072e-01 1.27147541e-11 1.23237846e-11 3.90969485e-13 8.54445800e-28 1.79738494e-28 1.23237846e-11
2.18776162e-01 1.18494961e-11 1.15012250e-11 3.48271079e-13 1.34852121e-25 2.94188206e-26 1.15012250e-11
2.51188643e-01 1.11607257e-11 1.07335677e-11 4.27157957e-13 1.80894813e-23 4.85270563e-24 1.07335677e-11
2.88403150e-01 1.04302725e-11 1.00171482e-11 4.13124227e-13 1.25014662e-21 3.45835219e-22 1.00171482e-11
3.31131121e-01 9.74294108e-12 9.34854667e-12 3.94394365e-13 4.72993681e-20 1.33314039e-20 9.34854667e-12
3.80189396e-01 9.09492943e-12 8.72457139e-12 3.70356955e-13 1.08204199e-18 3.13801527e-19 8.72457139e-12
4.36515832e-01 8.49248358e-12 8.14224377e-12 3.50223635e-13 1.61758724e-17 4.82994642e-18 8.14224377e-12
5.01187234e-01 7.92644332e-12 7.59878402e-12 3.27496462e-13 1.62840879e-16 4.96660810e-17 7.59878402e-12
5.75439937e-01 7.39899839e-12 7.09159786e-12 3.06221392e-13 1.17913147e-15 3.65000210e-16 7.09159786e-12
6.60693448e-01 6.91029699e-12 6.61826421e-12 2.85696699e-13 6.33608337e-15 1.97929175e-15 6.61826421e-12
7.58577575e-01 6.46424404e-12 6.17652353e-12 2.61100138e-13 2.66203637e-14 8.22171591e-15 6.17652353e-12
8.70963590e-01 6.08701782e-12 5.76426715e-12 2.32518077e-13 9.02325942e-14 2.70526154e-14 5.76426715e-12
1.00000000e+00 5.83360577e-12 5.37952711e-12 1.99575985e-13 2.54502675e-13 7.21347842e-14 5.37952711e-12
1.14815362e+00 5.79596546e-12 5.02046681e-12 1.64594378e-13 6.10904266e-13 1.58173117e-13 5.02046681e-12
1.31825674e+00 6.10704754e-12 4.68537225e-12 1.29154279e-13 1.29252101e-12 2.95278063e-13 4.68537225e-12
1.51356125e+00 6.89393434e-12 4.37264380e-12 1.00083763e-13 2.42120678e-12 4.77782723e-13 4.37264380e-12
1.73780083e+00 8.12428216e-12 4.08078863e-12 7.67659489e-14 3.96672758e-12 6.62041859e-13 4.08078863e-12
1.99526231e+00 9.60505252e-12 3.80841354e-12 5.77587166e-14 5.73888027e-12 7.80660598e-13 3.80841354e-12
2.29086765e+00 1.11842787e-11 3.55421832e-12 4.37721946e-14 7.58628818e-12 8.15449675e-13 3.55421832e-12
2.63026799e+00 1.25432024e-11 3.31698953e-12 3.22877898e-14 9.19392505e-12 7.68649100e-13 3.31698953e-12
3.01995172e+00 1.35761675e-11 3.09559474e-12 2.41231952e-14 1.04564496e-11 6.82310359e-13 3.09559474e-12
3.46736850e+00 1.42499658e-11 2.88897711e-12 1.74369403e-14 1.13435518e-11 5.70751327e-13 2.88897711e-12
3.98107171e+00 1.45194391e-11 2.69615031e-12 1.24847348e-14 1.18108040e-11 4.50645861e-13 2.69615031e-12
4.57088190e+00 1.44719857e-11 2.51619387e-12 8.80646079e-15 1.19469854e-11 3.32062631e-13 2.51619387e-12
5.24807460e+00 1.39418267e-11 2.08050667e-12 5.17980744e-15 1.18561402e-11 2.28271224e-13 2.08050667e-12
6.02559586e+00 1.29815112e-11 1.37457712e-12 2.34920662e-15 1.16045849e-11 1.48114084e-13 1.37457712e-12
6.70000000e+00 1.22859387e-11 9.99872685e-13 1.22746360e-15 1.12848386e-11 1.01040881e-13 9.99872685e-13
6.92422916e+00 1.20156377e-11 9.05846924e-13 9.98789104e-16 1.11087920e-11 8.91076738e-14 9.05846924e-13
7.15596261e+00 1.18914017e-11 8.20663132e-13 7.91196114e-16 1.10699474e-11 7.69825708e-14 8.20663132e-13
7.39545150e+00 1.18386895e-11 7.43489831e-13 6.08819023e-16 1.10945909e-11 6.58298372e-14 7.43489831e-13
7.64295536e+00 1.21667561e-11 6.73573732e-13 4.13499803e-16 1.14927689e-11 5.31235550e-14 6.73573732e-13
7.89874245e+00 1.28814965e-11 6.10232385e-13 2.42410798e-16 1.22710217e-11 4.02349672e-14 6.10232385e-13
8.16308998e+00 1.37658815e-11 5.52847515e-13 1.33896806e-16 1.32129001e-11 2.92813755e-14 5.52847515e-13
8.43628443e+00 1.47397419e-11 5.00858987e-13 7.06442283e-17 1.42388122e-11 2.05863750e-14 5.00858987e-13
8.71862190e+00 1.52835586e-11 4.53759343e-13 4.37906391e-17 1.48297555e-11 1.57829055e-14 4.53759343e-13
9.01040836e+00 1.58050564e-11 4.11088843e-13 2.85176651e-17 1.53939391e-11 1.20932258e-14 4.11088843e-13
9.31196005e+00 1.60758494e-11 3.72430980e-13 0.00000000e+00 1.57034184e-11 0.00000000e+00 3.72430980e-13
9.62360379e+00 1.58783342e-11 3.37408415e-13 0.00000000e+00 1.55409258e-11 0.00000000e+00 3.37408415e-13
9.94567731e+00 1.53149861e-11 3.05679292e-13 0.00000000e+00 1.50093068e-11 0.00000000e+00 3.05679292e-13
1.02785297e+01 1.49495230e-11 2.76933904e-13 0.00000000e+00 1.46725891e-11 0.00000000e+00 2.76933904e-13
1.06225216e+01 1.42775098e-11 2.50891667e-13 0.00000000e+00 1.40266182e-11 0.00000000e+00 2.50891667e-13
1.09780260e+01 1.38066028e-11 2.27298384e-13 0.00000000e+00 1.35793044e-11 0.00000000e+00 2.27298384e-13
1.13454280e+01 1.33636025e-11 2.05923759e-13 0.00000000e+00 1.31576788e-11 0.00000000e+00 2.05923759e-13
1.17251259e+01 1.28644267e-11 1.86559155e-13 0.00000000e+00 1.26778676e-11 0.00000000e+00 1.86559155e-13
1.21175312e+01 1.25096222e-11 1.69015555e-13 0.00000000e+00 1.23406067e-11 0.00000000e+00 1.69015555e-13
1.25230691e+01 1.20415778e-11 1.53121715e-13 0.00000000e+00 1.18884561e-11 0.00000000e+00 1.53121715e-13
1.29421791e+01 1.16647089e-11 1.38722496e-13 0.00000000e+00 1.15259864e-11 0.00000000e+00 1.38722496e-13
1.33753155e+01 1.12516905e-11 1.25677347e-13 0.00000000e+00 1.11260131e-11 0.00000000e+00 1.25677347e-13
1.38229477e+01 1.09830924e-11 1.13858934e-13 0.00000000e+00 1.08692335e-11 0.00000000e+00 1.13858934e-13
1.42855609e+01 1.08683631e-11 1.03151898e-13 0.00000000e+00 1.07652112e-11 0.00000000e+00 1.03151898e-13
1.47636563e+01 1.10367088e-11 9.34517274e-14 0.00000000e+00 1.09432571e-11 0.00000000e+00 9.34517274e-14
1.52577522e+01 1.12477956e-11 8.46637387e-14 0.00000000e+00 1.11631319e-11 0.00000000e+00 8.46637387e-14
1.57683840e+01 1.15642860e-11 7.67021526e-14 0.00000000e+00 1.14875838e-11 0.00000000e+00 7.67021526e-14
1.62961051e+01 1.18291241e-11 6.94892560e-14 0.00000000e+00 1.17596348e-11 0.00000000e+00 6.94892560e-14
1.68414875e+01 1.20781872e-11 6.29546439e-14 0.00000000e+00 1.20152325e-11 0.00000000e+00 6.29546439e-14
1.74051222e+01 1.22929321e-11 5.70345319e-14 0.00000000e+00 1.22358976e-11 0.00000000e+00 5.70345319e-14
1.79876201e+01 1.23931660e-11 5.16711337e-14 0.00000000e+00 1.23414949e-11 0.00000000e+00 5.16711337e-14
1.85896125e+01 1.24148497e-11 4.68120974e-14 0.00000000e+00 1.23680376e-11 0.00000000e+00 4.68120974e-14
1.92117518e+01 1.24088651e-11 4.24099939e-14 0.00000000e+00 1.23664551e-11 0.00000000e+00 4.24099939e-14
1.98547123e+01 1.23185403e-11 3.84218542e-14 0.00000000e+00 1.22801184e-11 0.00000000e+00 3.84218542e-14
2.05191907e+01 1.21573826e-11 3.48087501e-14 0.00000000e+00 1.21225739e-11 0.00000000e+00 3.48087501e-14
2.12059073e+01 1.19941790e-11 3.15354141e-14 0.00000000e+00 1.19626436e-11 0.00000000e+00 3.15354141e-14
2.19156062e+01 1.17490923e-11 2.85698952e-14 0.00000000e+00 1.17205224e-11 0.00000000e+00 2.85698952e-14
2.26490567e+01 1.15859177e-11 2.58832470e-14 0.00000000e+00 1.15600345e-11 0.00000000e+00 2.58832470e-14
2.34070535e+01 1.13310300e-11 2.34492452e-14 0.00000000e+00 1.13075808e-11 0.00000000e+00 2.34492452e-14
2.41904183e+01 1.10445213e-11 2.12441313e-14 0.00000000e+00 1.10232772e-11 0.00000000e+00 2.12441313e-14
2.50000000e+01 1.07776630e-11 1.92463813e-14 0.00000000e+00 1.07584166e-11 0.00000000e+00 1.92463813e-14
2.75422870e+01 9.90726849e-12 1.43935895e-14 0.00000000e+00 9.89287490e-12 0.00000000e+00 1.43935895e-14
3.16227766e+01 8.40872045e-12 9.50975027e-15 0.00000000e+00 8.39921070e-12 0.00000000e+00 9.50975027e-15
3.63078055e+01 6.71846765e-12 6.28302969e-15 0.00000000e+00 6.71218462e-12 0.00000000e+00 6.28302969e-15
4.16869383e+01 4.98635959e-12 4.15115655e-15 0.00000000e+00 4.98220844e-12 0.00000000e+00 4.15115655e-15
4.78630092e+01 3.46095170e-12 2.74264194e-15 0.00000000e+00 3.45820905e-12 0.00000000e+00 2.74264194e-15
5.49540874e+01 2.25304667e-12 1.81204556e-15 0.00000000e+00 2.25123462e-12 0.00000000e+00 1.81204556e-15
6.30957344e+01 1.39504245e-12 1.19720663e-15 0.00000000e+00 1.39384524e-12 0.00000000e+00 1.19720663e-15
7.24435960e+01 8.29299372e-13 7.90986575e-16 0.00000000e+00 8.28508385e-13 0.00000000e+00 7.90986575e-16
8.31763771e+01 4.78141650e-13 5.22599647e-16 0.00000000e+00 4.77619050e-13 0.00000000e+00 5.22599647e-16
9.54992586e+01 2.69643155e-13 3.45278163e-16 0.00000000e+00 2.69297877e-13 0.00000000e+00 3.45278163e-16
1.09647820e+02 1.49576699e-13 2.28123020e-16 0.00000000e+00 1.49348576e-13 0.00000000e+00 2.28123020e-16
1.25892541e+02 8.27750597e-14 1.50719385e-16 0.00000000e+00 8.26243403e-14 0.00000000e+00 1.50719385e-16
1.44543977e+02 4.55249410e-14 9.95793099e-17 0.00000000e+00 4.54253617e-14 0.00000000e+00 9.95793099e-17
1.65958691e+02 2.38660202e-14 6.57913976e-17 0.00000000e+00 2.38002288e-14 0.00000000e+00 6.57913976e-17
1.90546072e+02 1.25133795e-14 4.34679453e-17 0.00000000e+00 1.24699116e-14 0.00000000e+00 4.34679453e-17
2.18776162e+02 6.54879528e-15 2.87189867e-17 0.00000000e+00 6.52007630e-15 0.00000000e+00 2.87189867e-17
2.51188643e+02 3.41521201e-15 1.89744463e-17 0.00000000e+00 3.39623756e-15 0.00000000e+00 1.89744463e-17
2.88403150e+02 1.77295955e-15 1.25362924e-17 0.00000000e+00 1.76042326e-15 0.00000000e+00 1.25362924e-17
3.31131121e+02 9.18102635e-16 8.28264623e-18 0.00000000e+00 9.09819988e-16 0.00000000e+00 8.28264623e-18
3.80189396e+02 4.73799124e-16 5.47229010e-18 0.00000000e+00 4.68326834e-16 0.00000000e+00 5.47229010e-18
4.36515832e+02 2.44049659e-16 3.61550621e-18 0.00000000e+00 2.40434153e-16 0.00000000e+00 3.61550621e-18
5.01187234e+02 1.25474480e-16 2.38874127e-18 0.00000000e+00 1.23085739e-16 0.00000000e+00 2.38874127e-18
5.75439937e+02 6.44415861e-17 1.57822570e-18 0.00000000e+00 6.28633604e-17 0.00000000e+00 1.57822570e-18
6.60693448e+02 3.30843719e-17 1.04272338e-18 0.00000000e+00 3.20416485e-17 0.00000000e+00 1.04272338e-18
7.58577575e+02 1.69917345e-17 6.88920507e-19 0.00000000e+00 1.63028140e-17 0.00000000e+00 6.88920507e-19
8.70963590e+02 8.73530536e-18 4.55165265e-19 0.00000000e+00 8.28014010e-18 0.00000000e+00 4.55165265e-19
1.00000000e+03 4.19844627e-18 0.00000000e+00 0.00000000e+00 4.19844627e-18 0.00000000e+00 0.00000000e+00
