# column 1: lambda (micron)
# column 2: total flux; lambda*F_lambda (W/m2)
# column 3: direct stellar flux; lambda*F_lambda (W/m2)
# column 4: scattered stellar flux; lambda*F_lambda (W/m2)
# column 5: total dust emission flux; lambda*F_lambda (W/m2)
# column 6: dust emission scattered flux; lambda*F_lambda (W/m2)
# column 7: transparent flux; lambda*F_lambda (W/m2)
1.00000000e-03 1.07335763e-12 1.07335627e-12 1.35529173e-18 0.00000000e+00 0.00000000e+00 1.07335627e-12
1.14815362e-03 1.26690666e-12 1.26690456e-12 2.10173454e-18 0.00000000e+00 0.00000000e+00 1.26690456e-12
1.31825674e-03 1.49535670e-12 1.49535359e-12 3.10705538e-18 0.00000000e+00 0.00000000e+00 1.49535359e-12
1.51356125e-03 1.76500556e-12 1.76499670e-12 8.86111729e-18 0.00000000e+00 0.00000000e+00 1.76499670e-12
1.73780083e-03 2.08526350e-12 2.08326203e-12 2.00147067e-15 0.00000000e+00 0.00000000e+00 2.08326203e-12
1.99526231e-03 2.45980264e-12 2.45891716e-12 8.85482488e-16 0.00000000e+00 0.00000000e+00 2.45891716e-12
2.29086765e-03 2.90235962e-12 2.90231066e-12 4.89508410e-17 0.00000000e+00 0.00000000e+00 2.90231066e-12
2.63026799e-03 3.42574661e-12 3.42565717e-12 8.94378074e-17 0.00000000e+00 0.00000000e+00 3.42565717e-12
3.01995172e-03 4.04388816e-12 4.04337385e-12 5.14311283e-16 0.00000000e+00 0.00000000e+00 4.04337385e-12
3.46736850e-03 4.77276549e-12 4.77247759e-12 2.87902272e-16 0.00000000e+00 0.00000000e+00 4.77247759e-12
3.98107171e-03 5.63406708e-12 5.63305378e-12 1.01329863e-15 0.00000000e+00 0.00000000e+00 5.63305378e-12
4.57088190e-03 6.67212082e-12 6.64880962e-12 2.33111971e-14 0.00000000e+00 0.00000000e+00 6.64880962e-12
5.24807460e-03 7.85350300e-12 7.84772720e-12 5.77580664e-15 0.00000000e+00 0.00000000e+00 7.84772720e-12
6.02559586e-03 9.27170540e-12 9.26283435e-12 8.87105113e-15 0.00000000e+00 0.00000000e+00 9.26283435e-12
6.91830971e-03 1.09418724e-11 1.09331145e-11 8.75786194e-15 0.00000000e+00 0.00000000e+00 1.09331145e-11
7.94328235e-03 1.29577888e-11 1.29045807e-11 5.32080754e-14 2.82156383e-303 7.28300526e-306 1.29045807e-11
9.12010839e-03 1.52684958e-11 1.52315429e-11 3.69529156e-14 1.19222109e-264 4.57887988e-267 1.52315429e-11
1.04712855e-02 1.70529770e-11 1.70115517e-11 4.14253275e-14 4.88374497e-231 2.78622449e-233 1.70115517e-11
1.20226443e-02 1.70583032e-11 1.70115517e-11 4.67514566e-14 7.43542538e-202 4.92029120e-204 1.70115517e-11
1.38038426e-02 1.70658429e-11 1.70115517e-11 5.42911870e-14 1.97679456e-176 1.56300412e-178 1.70115517e-11
1.58489319e-02 1.70638454e-11 1.70115517e-11 5.22937317e-14 2.62017944e-154 2.72167382e-156 1.70115517e-11
1.81970086e-02 1.70796017e-11 1.70115517e-11 6.80500297e-14 4.59307116e-135 5.99022579e-137 1.70115517e-11
2.08929613e-02 1.70938835e-11 1.70115517e-11 8.23317436e-14 2.36824030e-118 4.25281922e-120 1.70115517e-11
2.39883292e-02 1.71134494e-11 1.70115517e-11 1.01897674e-13 8.20241807e-104 1.75101491e-105 1.70115517e-11
2.75422870e-02 1.71348405e-11 1.70115517e-11 1.23288790e-13 3.63435209e-91 9.46288212e-93 1.70115517e-11
3.16227766e-02 1.71591193e-11 1.70115517e-11 1.47567605e-13 3.51485407e-80 1.10034616e-81 1.70115517e-11
3.63078055e-02 1.71763305e-11 1.70115517e-11 1.64778799e-13 1.20955065e-70 4.27064637e-72 1.70115517e-11
4.16869383e-02 1.72317720e-11 1.70115517e-11 2.20220326e-13 2.30008260e-62 1.10375479e-63 1.70115517e-11
4.78630092e-02 1.72887674e-11 1.70115517e-11 2.77215659e-13 3.47916022e-55 2.16146662e-56 1.70115517e-11
5.49540874e-02 1.73493209e-11 1.70115517e-11 3.37769165e-13 5.79920095e-49 4.44394221e-50 1.70115517e-11
6.30957344e-02 1.73973006e-11 1.70115517e-11 3.85748883e-13 1.87382521e-43 1.66813503e-44 1.70115517e-11
7.24435960e-02 1.73719017e-11 1.70115517e-11 3.60350028e-13 1.07499398e-38 9.18885969e-40 1.70115517e-11
8.31763771e-02 1.73679573e-11 1.70115517e-11 3.56405581e-13 1.09565319e-34 9.26873841e-36 1.70115517e-11
9.54992586e-02 1.73815802e-11 1.70115517e-11 3.70028437e-13 3.08599338e-31 2.73900109e-32 1.70115517e-11
1.09647820e-01 1.66309473e-11 1.62459122e-11 3.85035141e-13 2.62014182e-28 2.47201531e-29 1.62459122e-11
1.25892541e-01 1.55179767e-11 1.51615674e-11 3.56409308e-13 8.44765415e-26 7.65272157e-27 1.51615674e-11
1.44543977e-01 1.44662883e-11 1.41495980e-11 3.16690282e-13 1.14650002e-23 1.00626982e-24 1.41495980e-11
1.65958691e-01 1.35410036e-11 1.32051732e-11 3.35830480e-13 5.82694642e-22 5.68156525e-23 1.32051732e-11
1.90546072e-01 1.26928706e-11 1.23237846e-11 3.69085952e-13 1.23547202e-20 1.42453686e-21 1.23237846e-11
2.18776162e-01 1.18619847e-11 1.15012250e-11 3.60759545e-13 1.46632985e-19 1.79745451e-20 1.15012250e-11
2.51188643e-01 1.11517818e-11 1.07335677e-11 4.18212300e-13 1.79938984e-18 2.65520294e-19 1.07335677e-11
2.88403150e-01 1.04032977e-11 1.00171482e-11 3.86134550e-13 1.49467911e-17 2.17315774e-18 1.00171482e-11
3.31131121e-01 9.69644587e-12 9.34854667e-12 3.47813970e-13 8.52230302e-17 1.18820714e-17 9.34854667e-12
3.80189396e-01 9.04355094e-12 8.72457139e-12 3.18624685e-13 3.54869107e-16 4.85602559e-17 8.72457139e-12
4.36515832e-01 8.44109585e-12 8.14224377e-12 2.97721816e-13 1.13026149e-15 1.54232158e-16 8.14224377e-12
5.01187234e-01 7.87227083e-12 7.59878402e-12 2.70582321e-13 2.90449627e-15 4.07405700e-16 7.59878402e-12
5.75439937e-01 7.35111629e-12 7.09159786e-12 2.52963361e-13 6.55506644e-15 1.01628533e-15 7.09159786e-12
6.60693448e-01 6.86785089e-12 6.61826421e-12 2.35153537e-13 1.44331464e-14 2.64076099e-15 6.61826421e-12
7.58577575e-01 6.42142663e-12 6.17652353e-12 2.11306269e-13 3.35968240e-14 7.24064638e-15 6.17652353e-12
8.70963590e-01 6.03219711e-12 5.76426715e-12 1.87214653e-13 8.07152997e-14 1.87418572e-14 5.76426715e-12
1.00000000e+00 5.72734596e-12 5.37952711e-12 1.60457409e-13 1.87361437e-13 4.36012834e-14 5.37952711e-12
1.14815362e+00 5.55433392e-12 5.02046681e-12 1.29801770e-13 4.04065336e-13 8.80325206e-14 5.02046681e-12
1.31825674e+00 5.59361708e-12 4.68537225e-12 1.03590848e-13 8.04653986e-13 1.55472149e-13 4.68537225e-12
1.51356125e+00 5.88979638e-12 4.37264380e-12 7.94136520e-14 1.43773893e-12 2.39626781e-13 4.37264380e-12
1.73780083e+00 6.43735551e-12 4.08078863e-12 6.10654582e-14 2.29550142e-12 3.18943791e-13 4.08078863e-12
1.99526231e+00 7.11951095e-12 3.80841354e-12 4.48112281e-14 3.26628618e-12 3.70869021e-13 3.80841354e-12
2.29086765e+00 7.88268353e-12 3.55421832e-12 3.26521763e-14 4.29581303e-12 3.80811711e-13 3.55421832e-12
2.63026799e+00 8.50496484e-12 3.31698953e-12 2.35249351e-14 5.16445038e-12 3.55447798e-13 3.31698953e-12
3.01995172e+00 8.92795253e-12 3.09559474e-12 1.66716044e-14 5.81568618e-12 3.08243153e-13 3.09559474e-12
3.46736850e+00 9.11812434e-12 2.88897711e-12 1.16841900e-14 6.21746304e-12 2.48949041e-13 2.88897711e-12
3.98107171e+00 9.06886426e-12 2.69615031e-12 8.11947184e-15 6.36459448e-12 1.88876416e-13 2.69615031e-12
4.57088190e+00 8.82461005e-12 2.51619387e-12 5.53638605e-15 6.30287979e-12 1.34776322e-13 2.51619387e-12
5.24807460e+00 8.18501163e-12 2.08050667e-12 3.18283861e-15 6.10132212e-12 9.03433962e-14 2.08050667e-12
6.02559586e+00 7.20857897e-12 1.37457712e-12 1.41260312e-15 5.83258925e-12 5.73420236e-14 1.37457712e-12
6.70000000e+00 6.58643793e-12 9.99872685e-13 7.28489648e-16 5.58583675e-12 3.87680566e-14 9.99872685e-13
6.92422916e+00 6.41966469e-12 9.05846924e-13 5.87750592e-16 5.51323001e-12 3.40484525e-14 9.05846924e-13
7.15596261e+00 6.27774302e-12 8.20663132e-13 4.72175842e-16 5.45660771e-12 2.95324592e-14 8.20663132e-13
7.39545150e+00 6.23059538e-12 7.43489831e-13 3.54499359e-16 5.48675105e-12 2.52189680e-14 7.43489831e-13
7.64295536e+00 6.44787162e-12 6.73573732e-13 2.47678220e-16 5.77405021e-12 2.07779122e-14 6.73573732e-13
7.89874245e+00 6.98519628e-12 6.10232385e-13 1.48792732e-16 6.37481510e-12 1.60798420e-14 6.10232385e-13
8.16308998e+00 7.72581975e-12 5.52847515e-13 8.54666124e-17 7.17288677e-12 1.22086064e-14 5.52847515e-13
8.43628443e+00 8.68174339e-12 5.00858987e-13 4.62827118e-17 8.18083812e-12 8.97314782e-15 5.00858987e-13
8.71862190e+00 9.28503147e-12 4.53759343e-13 2.97355530e-17 8.83124239e-12 7.06968190e-15 4.53759343e-13
9.01040836e+00 9.83459843e-12 4.11088843e-13 1.90461738e-17 9.42349054e-12 5.45550575e-15 4.11088843e-13
9.31196005e+00 1.02636948e-11 3.72430980e-13 0.00000000e+00 9.89126377e-12 0.00000000e+00 3.72430980e-13
9.62360379e+00 1.01962189e-11 3.37408415e-13 0.00000000e+00 9.85881049e-12 0.00000000e+00 3.37408415e-13
9.94567731e+00 9.66016929e-12 3.05679292e-13 0.00000000e+00 9.35449000e-12 0.00000000e+00 3.05679292e-13
1.02785297e+01 9.15628740e-12 2.76933904e-13 0.00000000e+00 8.87935349e-12 0.00000000e+00 2.76933904e-13
1.06225216e+01 8.55236812e-12 2.50891667e-13 0.00000000e+00 8.30147645e-12 0.00000000e+00 2.50891667e-13
1.09780260e+01 8.00417119e-12 2.27298384e-13 0.00000000e+00 7.77687281e-12 0.00000000e+00 2.27298384e-13
1.13454280e+01 7.50841085e-12 2.05923759e-13 0.00000000e+00 7.30248709e-12 0.00000000e+00 2.05923759e-13
1.17251259e+01 7.07917062e-12 1.86559155e-13 0.00000000e+00 6.89261147e-12 0.00000000e+00 1.86559155e-13
1.21175312e+01 6.66231480e-12 1.69015555e-13 0.00000000e+00 6.49329925e-12 0.00000000e+00 1.69015555e-13
1.25230691e+01 6.33441895e-12 1.53121715e-13 0.00000000e+00 6.18129724e-12 0.00000000e+00 1.53121715e-13
1.29421791e+01 6.01722077e-12 1.38722496e-13 0.00000000e+00 5.87849828e-12 0.00000000e+00 1.38722496e-13
1.33753155e+01 5.71021799e-12 1.25677347e-13 0.00000000e+00 5.58454065e-12 0.00000000e+00 1.25677347e-13
1.38229477e+01 5.53641828e-12 1.13858934e-13 0.00000000e+00 5.42255934e-12 0.00000000e+00 1.13858934e-13
1.42855609e+01 5.46030511e-12 1.03151898e-13 0.00000000e+00 5.35715322e-12 0.00000000e+00 1.03151898e-13
1.47636563e+01 5.55810312e-12 9.34517274e-14 0.00000000e+00 5.46465139e-12 0.00000000e+00 9.34517274e-14
1.52577522e+01 5.70430832e-12 8.46637387e-14 0.00000000e+00 5.61964458e-12 0.00000000e+00 8.46637387e-14
1.57683840e+01 5.87455963e-12 7.67021526e-14 0.00000000e+00 5.79785748e-12 0.00000000e+00 7.67021526e-14
1.62961051e+01 6.03087809e-12 6.94892560e-14 0.00000000e+00 5.96138883e-12 0.00000000e+00 6.94892560e-14
1.68414875e+01 6.18089458e-12 6.29546439e-14 0.00000000e+00 6.11793994e-12 0.00000000e+00 6.29546439e-14
1.74051222e+01 6.30105833e-12 5.70345319e-14 0.00000000e+00 6.24402380e-12 0.00000000e+00 5.70345319e-14
1.79876201e+01 6.39330673e-12 5.16711337e-14 0.00000000e+00 6.34163560e-12 0.00000000e+00 5.16711337e-14
1.85896125e+01 6.42280354e-12 4.68120974e-14 0.00000000e+00 6.37599145e-12 0.00000000e+00 4.68120974e-14
1.92117518e+01 6.37297442e-12 4.24099939e-14 0.00000000e+00 6.33056443e-12 0.00000000e+00 4.24099939e-14
1.98547123e+01 6.27568987e-12 3.84218542e-14 0.00000000e+00 6.23726802e-12 0.00000000e+00 3.84218542e-14
2.05191907e+01 6.16483771e-12 3.48087501e-14 0.00000000e+00 6.13002896e-12 0.00000000e+00 3.48087501e-14
2.12059073e+01 6.04379307e-12 3.15354141e-14 0.00000000e+00 6.01225765e-12 0.00000000e+00 3.15354141e-14
2.19156062e+01 5.92624629e-12 2.85698952e-14 0.00000000e+00 5.89767640e-12 0.00000000e+00 2.85698952e-14
2.26490567e+01 5.82758728e-12 2.58832470e-14 0.00000000e+00 5.80170404e-12 0.00000000e+00 2.58832470e-14
2.34070535e+01 5.68815469e-12 2.34492452e-14 0.00000000e+00 5.66470545e-12 0.00000000e+00 2.34492452e-14
2.41904183e+01 5.57362260e-12 2.12441313e-14 0.00000000e+00 5.55237846e-12 0.00000000e+00 2.12441313e-14
2.50000000e+01 5.44651556e-12 1.92463813e-14 0.00000000e+00 5.42726918e-12 0.00000000e+00 1.92463813e-14
2.75422870e+01 5.00223987e-12 1.43935895e-14 0.00000000e+00 4.98784628e-12 0.00000000e+00 1.43935895e-14
3.16227766e+01 4.23939610e-12 9.50975027e-15 0.00000000e+00 4.22988635e-12 0.00000000e+00 9.50975027e-15
3.63078055e+01 3.38708293e-12 6.28302969e-15 0.00000000e+00 3.38079990e-12 0.00000000e+00 6.28302969e-15
4.16869383e+01 2.51802938e-12 4.15115655e-15 0.00000000e+00 2.51387822e-12 0.00000000e+00 4.15115655e-15
4.78630092e+01 1.74613538e-12 2.74264194e-15 0.00000000e+00 1.74339274e-12 0.00000000e+00 2.74264194e-15
5.49540874e+01 1.13800411e-12 1.81204556e-15 0.00000000e+00 1.13619207e-12 0.00000000e+00 1.81204556e-15
6.30957344e+01 7.06148886e-13 1.19720663e-15 0.00000000e+00 7.04951679e-13 0.00000000e+00 1.19720663e-15
7.24435960e+01 4.20443022e-13 7.90986575e-16 0.00000000e+00 4.19652035e-13 0.00000000e+00 7.90986575e-16
8.31763771e+01 2.42802883e-13 5.22599647e-16 0.00000000e+00 2.42280283e-13 0.00000000e+00 5.22599647e-16
9.54992586e+01 1.36893241e-13 3.45278163e-16 0.00000000e+00 1.36547963e-13 0.00000000e+00 3.45278163e-16
1.09647820e+02 7.59660252e-14 2.28123020e-16 0.00000000e+00 7.57379022e-14 0.00000000e+00 2.28123020e-16
1.25892541e+02 4.20539454e-14 1.50719385e-16 0.00000000e+00 4.19032260e-14 0.00000000e+00 1.50719385e-16
1.44543977e+02 2.31263115e-14 9.95793099e-17 0.00000000e+00 2.30267322e-14 0.00000000e+00 9.95793099e-17
1.65958691e+02 1.21204102e-14 6.57913976e-17 0.00000000e+00 1.20546188e-14 0.00000000e+00 6.57913976e-17
1.90546072e+02 6.35426935e-15 4.34679453e-17 0.00000000e+00 6.31080141e-15 0.00000000e+00 4.34679453e-17
2.18776162e+02 3.32626556e-15 2.87189867e-17 0.00000000e+00 3.29754657e-15 0.00000000e+00 2.87189867e-17
2.51188643e+02 1.73540939e-15 1.89744463e-17 0.00000000e+00 1.71643494e-15 0.00000000e+00 1.89744463e-17
2.88403150e+02 9.01633542e-16 1.25362924e-17 0.00000000e+00 8.89097249e-16 0.00000000e+00 1.25362924e-17
3.31131121e+02 4.67486284e-16 8.28264623e-18 0.00000000e+00 4.59203638e-16 0.00000000e+00 8.28264623e-18
3.80189396e+02 2.41724164e-16 5.47229010e-18 0.00000000e+00 2.36251874e-16 0.00000000e+00 5.47229010e-18
4.36515832e+02 1.24842587e-16 3.61550621e-18 0.00000000e+00 1.21227081e-16 0.00000000e+00 3.61550621e-18
5.01187234e+02 6.44196341e-17 2.38874127e-18 0.00000000e+00 6.20308928e-17 0.00000000e+00 2.38874127e-18
5.75439937e+02 3.32466605e-17 1.57822570e-18 0.00000000e+00 3.16684348e-17 0.00000000e+00 1.57822570e-18
6.60693448e+02 1.71783003e-17 1.04272338e-18 0.00000000e+00 1.61355769e-17 0.00000000e+00 1.04272338e-18
7.58577575e+02 8.89609375e-18 6.88920507e-19 0.00000000e+00 8.20717325e-18 0.00000000e+00 6.88920507e-19
8.70963590e+02 4.62238537e-18 4.55165265e-19 0.00000000e+00 4.16722011e-18 0.00000000e+00 4.55165265e-19
1.00000000e+03 2.11245376e-18 0.00000000e+00 0.00000000e+00 2.11245376e-18 0.00000000e+00 0.00000000e+00
