# column 1: lambda (micron)
# column 2: total flux; lambda*F_lambda (W/m2)
# column 3: direct stellar flux; lambda*F_lambda (W/m2)
# column 4: scattered stellar flux; lambda*F_lambda (W/m2)
# column 5: total dust emission flux; lambda*F_lambda (W/m2)
# column 6: dust emission scattered flux; lambda*F_lambda (W/m2)
# column 7: transparent flux; lambda*F_lambda (W/m2)
1.00000000e-03 1.07335848e-12 1.07335627e-12 2.21362190e-18 0.00000000e+00 0.00000000e+00 1.07335627e-12
1.14815362e-03 1.26690788e-12 1.26690456e-12 3.32825016e-18 0.00000000e+00 0.00000000e+00 1.26690456e-12
1.31825674e-03 1.49535853e-12 1.49535359e-12 4.93952107e-18 0.00000000e+00 0.00000000e+00 1.49535359e-12
1.51356125e-03 1.76500426e-12 1.76499670e-12 7.55843563e-18 0.00000000e+00 0.00000000e+00 1.76499670e-12
1.73780083e-03 2.08553720e-12 2.08326203e-12 2.27517731e-15 0.00000000e+00 0.00000000e+00 2.08326203e-12
1.99526231e-03 2.45921634e-12 2.45891716e-12 2.99176532e-16 0.00000000e+00 0.00000000e+00 2.45891716e-12
2.29086765e-03 2.90266821e-12 2.90231066e-12 3.57543261e-16 0.00000000e+00 0.00000000e+00 2.90231066e-12
2.63026799e-03 3.42577767e-12 3.42565717e-12 1.20505642e-16 0.00000000e+00 0.00000000e+00 3.42565717e-12
3.01995172e-03 4.04456819e-12 4.04337385e-12 1.19434344e-15 0.00000000e+00 0.00000000e+00 4.04337385e-12
3.46736850e-03 4.78583248e-12 4.77247759e-12 1.33548875e-14 0.00000000e+00 0.00000000e+00 4.77247759e-12
3.98107171e-03 5.63479431e-12 5.63305378e-12 1.74052793e-15 0.00000000e+00 0.00000000e+00 5.63305378e-12
4.57088190e-03 6.65051653e-12 6.64880962e-12 1.70691491e-15 0.00000000e+00 0.00000000e+00 6.64880962e-12
5.24807460e-03 7.85012371e-12 7.84772720e-12 2.39651356e-15 0.00000000e+00 0.00000000e+00 7.84772720e-12
6.02559586e-03 9.26678791e-12 9.26283435e-12 3.95355418e-15 0.00000000e+00 0.00000000e+00 9.26283435e-12
6.91830971e-03 1.09405745e-11 1.09331145e-11 7.46000109e-15 0.00000000e+00 0.00000000e+00 1.09331145e-11
7.94328235e-03 1.29254531e-11 1.29045807e-11 2.08723991e-14 2.71752552e-303 2.99517837e-305 1.29045807e-11
9.12010839e-03 1.52534072e-11 1.52315429e-11 2.18643541e-14 1.28322838e-264 1.21807972e-266 1.52315429e-11
1.04712855e-02 1.70382186e-11 1.70115517e-11 2.66668748e-14 5.77905960e-231 3.96394091e-233 1.70115517e-11
1.20226443e-02 1.70526987e-11 1.70115517e-11 4.11469472e-14 9.59460473e-202 7.63004188e-204 1.70115517e-11
1.38038426e-02 1.70629789e-11 1.70115517e-11 5.14272147e-14 2.76028258e-176 3.55017839e-178 1.70115517e-11
1.58489319e-02 1.70742225e-11 1.70115517e-11 6.26708269e-14 3.90756980e-154 6.12513569e-156 1.70115517e-11
1.81970086e-02 1.71011971e-11 1.70115517e-11 8.96453743e-14 7.24550317e-135 1.26809324e-136 1.70115517e-11
2.08929613e-02 1.71188155e-11 1.70115517e-11 1.07263766e-13 3.92375944e-118 8.57954561e-120 1.70115517e-11
2.39883292e-02 1.71483105e-11 1.70115517e-11 1.36758775e-13 1.42379222e-103 4.06752573e-105 1.70115517e-11
2.75422870e-02 1.71762030e-11 1.70115517e-11 1.64651324e-13 6.56373022e-91 2.31725357e-92 1.70115517e-11
3.16227766e-02 1.72101551e-11 1.70115517e-11 1.98603404e-13 6.56125968e-80 2.68573901e-81 1.70115517e-11
3.63078055e-02 1.72345856e-11 1.70115517e-11 2.23033853e-13 2.32607838e-70 1.07169120e-71 1.70115517e-11
4.16869383e-02 1.73126795e-11 1.70115517e-11 3.01127758e-13 4.54463068e-62 2.76615229e-63 1.70115517e-11
4.78630092e-02 1.74012036e-11 1.70115517e-11 3.89651903e-13 7.02826597e-55 5.31614531e-56 1.70115517e-11
5.49540874e-02 1.74625499e-11 1.70115517e-11 4.50998233e-13 1.19071654e-48 1.05088738e-49 1.70115517e-11
6.30957344e-02 1.75210236e-11 1.70115517e-11 5.09471865e-13 3.88673633e-43 3.75230962e-44 1.70115517e-11
7.24435960e-02 1.74711275e-11 1.70115517e-11 4.59575814e-13 2.24476409e-38 1.98183898e-39 1.70115517e-11
8.31763771e-02 1.74635052e-11 1.70115517e-11 4.51953525e-13 2.31488079e-34 2.00129854e-35 1.70115517e-11
9.54992586e-02 1.74833993e-11 1.70115517e-11 4.71847629e-13 6.59579349e-31 5.96607049e-32 1.70115517e-11
1.09647820e-01 1.67465934e-11 1.62459122e-11 5.00681224e-13 5.68782616e-28 5.69097398e-29 1.62459122e-11
1.25892541e-01 1.56255342e-11 1.51615674e-11 4.63966848e-13 1.86507247e-25 1.91302476e-26 1.51615674e-11
1.44543977e-01 1.45780981e-11 1.41495980e-11 4.28500142e-13 2.55385380e-23 2.55949958e-24 1.41495980e-11
1.65958691e-01 1.36463715e-11 1.32051732e-11 4.41198368e-13 1.31089336e-21 1.47308937e-22 1.32051732e-11
1.90546072e-01 1.28044804e-11 1.23237846e-11 4.80695679e-13 2.79990530e-20 3.69140365e-21 1.23237846e-11
2.18776162e-01 1.19460675e-11 1.15012250e-11 4.44842154e-13 3.31353173e-19 4.41186557e-20 1.15012250e-11
2.51188643e-01 1.12533073e-11 1.07335677e-11 5.19735456e-13 4.12202095e-18 6.78938429e-19 1.07335677e-11
2.88403150e-01 1.04938150e-11 1.00171482e-11 4.76632354e-13 3.44487322e-17 5.64786651e-18 1.00171482e-11
3.31131121e-01 9.78351058e-12 9.34854667e-12 4.34766411e-13 1.97495323e-16 3.15789796e-17 9.34854667e-12
3.80189396e-01 9.12497481e-12 8.72457139e-12 3.99580115e-13 8.23304126e-16 1.28715708e-16 8.72457139e-12
4.36515832e-01 8.51275196e-12 8.14224377e-12 3.67899259e-13 2.60893319e-15 4.01904000e-16 8.14224377e-12
5.01187234e-01 7.93628243e-12 7.59878402e-12 3.30927197e-13 6.57121206e-15 1.01186297e-15 7.59878402e-12
5.75439937e-01 7.41216027e-12 7.09159786e-12 3.06535733e-13 1.40266700e-14 2.24598481e-15 7.09159786e-12
6.60693448e-01 6.92149963e-12 6.61826421e-12 2.75802813e-13 2.74326108e-14 4.85892756e-15 6.61826421e-12
7.58577575e-01 6.47736770e-12 6.17652353e-12 2.46863250e-13 5.39809129e-14 1.11116701e-14 6.17652353e-12
8.70963590e-01 6.08885418e-12 5.76426715e-12 2.09739746e-13 1.14847277e-13 2.70403474e-14 5.76426715e-12
1.00000000e+00 5.80750447e-12 5.37952711e-12 1.79241525e-13 2.48735835e-13 6.07062975e-14 5.37952711e-12
1.14815362e+00 5.69125082e-12 5.02046681e-12 1.44219042e-13 5.26564964e-13 1.21684278e-13 5.02046681e-12
1.31825674e+00 5.85077390e-12 4.68537225e-12 1.14671346e-13 1.05073031e-12 2.19570650e-13 4.68537225e-12
1.51356125e+00 6.36736163e-12 4.37264380e-12 8.74897086e-14 1.90722812e-12 3.40983733e-13 4.37264380e-12
1.73780083e+00 7.26803361e-12 4.08078863e-12 6.73373707e-14 3.11990761e-12 4.71746275e-13 4.08078863e-12
1.99526231e+00 8.39830210e-12 3.80841354e-12 5.12910084e-14 4.53859755e-12 5.65730330e-13 3.80841354e-12
2.29086765e+00 9.69256568e-12 3.55421832e-12 3.83499023e-14 6.09999746e-12 6.10741021e-13 3.55421832e-12
2.63026799e+00 1.08974844e-11 3.31698953e-12 2.82248242e-14 7.55227006e-12 5.99182325e-13 3.31698953e-12
3.01995172e+00 1.19280662e-11 3.09559474e-12 2.03347947e-14 8.81213664e-12 5.43944333e-13 3.09559474e-12
3.46736850e+00 1.27740427e-11 2.88897711e-12 1.45452465e-14 9.87052035e-12 4.61934267e-13 2.88897711e-12
3.98107171e+00 1.32472724e-11 2.69615031e-12 9.97041700e-15 1.05411517e-11 3.62310253e-13 2.69615031e-12
4.57088190e+00 1.34341035e-11 2.51619387e-12 6.68180195e-15 1.09112278e-11 2.66068587e-13 2.51619387e-12
5.24807460e+00 1.30340918e-11 2.08050667e-12 3.81289612e-15 1.09497722e-11 1.78934156e-13 2.08050667e-12
6.02559586e+00 1.20835279e-11 1.37457712e-12 1.64423483e-15 1.07073066e-11 1.12375924e-13 1.37457712e-12
6.70000000e+00 1.13561248e-11 9.99872685e-13 8.42021338e-16 1.03554101e-11 7.43575622e-14 9.99872685e-13
6.92422916e+00 1.11359865e-11 9.05846924e-13 6.78854354e-16 1.02294607e-11 6.48322293e-14 9.05846924e-13
7.15596261e+00 1.09268028e-11 8.20663132e-13 5.37566878e-16 1.01056021e-11 5.56708341e-14 8.20663132e-13
7.39545150e+00 1.08882455e-11 7.43489831e-13 4.09548745e-16 1.01443461e-11 4.75608440e-14 7.43489831e-13
7.64295536e+00 1.11717012e-11 6.73573732e-13 2.85176742e-16 1.04978423e-11 3.93552980e-14 6.73573732e-13
7.89874245e+00 1.19340115e-11 6.10232385e-13 1.75873324e-16 1.13236032e-11 3.08045834e-14 6.10232385e-13
8.16308998e+00 1.28576159e-11 5.52847515e-13 1.01903593e-16 1.23046665e-11 2.34636604e-14 5.52847515e-13
8.43628443e+00 1.40062246e-11 5.00858987e-13 5.49684951e-17 1.35053107e-11 1.70377930e-14 5.00858987e-13
8.71862190e+00 1.45235943e-11 4.53759343e-13 3.35473656e-17 1.40698014e-11 1.29448252e-14 4.53759343e-13
9.01040836e+00 1.51759559e-11 4.11088843e-13 1.95238526e-17 1.47648475e-11 9.62948150e-15 4.11088843e-13
9.31196005e+00 1.55238033e-11 3.72430980e-13 0.00000000e+00 1.51513723e-11 0.00000000e+00 3.72430980e-13
9.62360379e+00 1.52614614e-11 3.37408415e-13 0.00000000e+00 1.49240530e-11 0.00000000e+00 3.37408415e-13
9.94567731e+00 1.46929633e-11 3.05679292e-13 0.00000000e+00 1.43872840e-11 0.00000000e+00 3.05679292e-13
1.02785297e+01 1.40521571e-11 2.76933904e-13 0.00000000e+00 1.37752232e-11 0.00000000e+00 2.76933904e-13
1.06225216e+01 1.34356085e-11 2.50891667e-13 0.00000000e+00 1.31847169e-11 0.00000000e+00 2.50891667e-13
1.09780260e+01 1.26157981e-11 2.27298384e-13 0.00000000e+00 1.23884997e-11 0.00000000e+00 2.27298384e-13
1.13454280e+01 1.20241339e-11 2.05923759e-13 0.00000000e+00 1.18182101e-11 0.00000000e+00 2.05923759e-13
1.17251259e+01 1.13632243e-11 1.86559155e-13 0.00000000e+00 1.11766652e-11 0.00000000e+00 1.86559155e-13
1.21175312e+01 1.06927737e-11 1.69015555e-13 0.00000000e+00 1.05237581e-11 0.00000000e+00 1.69015555e-13
1.25230691e+01 1.00724137e-11 1.53121715e-13 0.00000000e+00 9.91929201e-12 0.00000000e+00 1.53121715e-13
1.29421791e+01 9.48005762e-12 1.38722496e-13 0.00000000e+00 9.34133513e-12 0.00000000e+00 1.38722496e-13
1.33753155e+01 8.90986550e-12 1.25677347e-13 0.00000000e+00 8.78418815e-12 0.00000000e+00 1.25677347e-13
1.38229477e+01 8.46301235e-12 1.13858934e-13 0.00000000e+00 8.34915342e-12 0.00000000e+00 1.13858934e-13
1.42855609e+01 8.20164021e-12 1.03151898e-13 0.00000000e+00 8.09848831e-12 0.00000000e+00 1.03151898e-13
1.47636563e+01 8.16971481e-12 9.34517274e-14 0.00000000e+00 8.07626308e-12 0.00000000e+00 9.34517274e-14
1.52577522e+01 8.20742720e-12 8.46637387e-14 0.00000000e+00 8.12276346e-12 0.00000000e+00 8.46637387e-14
1.57683840e+01 8.26874535e-12 7.67021526e-14 0.00000000e+00 8.19204320e-12 0.00000000e+00 7.67021526e-14
1.62961051e+01 8.31850209e-12 6.94892560e-14 0.00000000e+00 8.24901284e-12 0.00000000e+00 6.94892560e-14
1.68414875e+01 8.35491047e-12 6.29546439e-14 0.00000000e+00 8.29195582e-12 0.00000000e+00 6.29546439e-14
1.74051222e+01 8.30898801e-12 5.70345319e-14 0.00000000e+00 8.25195348e-12 0.00000000e+00 5.70345319e-14
1.79876201e+01 8.17998370e-12 5.16711337e-14 0.00000000e+00 8.12831256e-12 0.00000000e+00 5.16711337e-14
1.85896125e+01 7.95189153e-12 4.68120974e-14 0.00000000e+00 7.90507944e-12 0.00000000e+00 4.68120974e-14
1.92117518e+01 7.67821837e-12 4.24099939e-14 0.00000000e+00 7.63580838e-12 0.00000000e+00 4.24099939e-14
1.98547123e+01 7.36093811e-12 3.84218542e-14 0.00000000e+00 7.32251626e-12 0.00000000e+00 3.84218542e-14
2.05191907e+01 7.00426631e-12 3.48087501e-14 0.00000000e+00 6.96945756e-12 0.00000000e+00 3.48087501e-14
2.12059073e+01 6.65439190e-12 3.15354141e-14 0.00000000e+00 6.62285649e-12 0.00000000e+00 3.15354141e-14
2.19156062e+01 6.30533581e-12 2.85698952e-14 0.00000000e+00 6.27676591e-12 0.00000000e+00 2.85698952e-14
2.26490567e+01 6.00344852e-12 2.58832470e-14 0.00000000e+00 5.97756527e-12 0.00000000e+00 2.58832470e-14
2.34070535e+01 5.66202870e-12 2.34492452e-14 0.00000000e+00 5.63857945e-12 0.00000000e+00 2.34492452e-14
2.41904183e+01 5.35828683e-12 2.12441313e-14 0.00000000e+00 5.33704270e-12 0.00000000e+00 2.12441313e-14
2.50000000e+01 5.06077964e-12 1.92463813e-14 0.00000000e+00 5.04153326e-12 0.00000000e+00 1.92463813e-14
2.75422870e+01 4.20610597e-12 1.43935895e-14 0.00000000e+00 4.19171238e-12 0.00000000e+00 1.43935895e-14
3.16227766e+01 3.13592957e-12 9.50975027e-15 0.00000000e+00 3.12641982e-12 0.00000000e+00 9.50975027e-15
3.63078055e+01 2.21538975e-12 6.28302969e-15 0.00000000e+00 2.20910672e-12 0.00000000e+00 6.28302969e-15
4.16869383e+01 1.46895202e-12 4.15115655e-15 0.00000000e+00 1.46480086e-12 0.00000000e+00 4.15115655e-15
4.78630092e+01 9.18964145e-13 2.74264194e-15 0.00000000e+00 9.16221503e-13 0.00000000e+00 2.74264194e-15
5.49540874e+01 5.45839549e-13 1.81204556e-15 0.00000000e+00 5.44027504e-13 0.00000000e+00 1.81204556e-15
6.30957344e+01 3.12140361e-13 1.19720663e-15 0.00000000e+00 3.10943155e-13 0.00000000e+00 1.19720663e-15
7.24435960e+01 1.73035481e-13 7.90986575e-16 0.00000000e+00 1.72244495e-13 0.00000000e+00 7.90986575e-16
8.31763771e+01 9.40491057e-14 5.22599647e-16 0.00000000e+00 9.35265061e-14 0.00000000e+00 5.22599647e-16
9.54992586e+01 5.04193516e-14 3.45278163e-16 0.00000000e+00 5.00740734e-14 0.00000000e+00 3.45278163e-16
1.09647820e+02 2.68084209e-14 2.28123020e-16 0.00000000e+00 2.65802979e-14 0.00000000e+00 2.28123020e-16
1.25892541e+02 1.43340024e-14 1.50719385e-16 0.00000000e+00 1.41832830e-14 0.00000000e+00 1.50719385e-16
1.44543977e+02 7.65914487e-15 9.95793099e-17 0.00000000e+00 7.55956556e-15 0.00000000e+00 9.95793099e-17
1.65958691e+02 3.91642072e-15 6.57913976e-17 0.00000000e+00 3.85062932e-15 0.00000000e+00 6.57913976e-17
1.90546072e+02 2.01356541e-15 4.34679453e-17 0.00000000e+00 1.97009747e-15 0.00000000e+00 4.34679453e-17
2.18776162e+02 1.03835100e-15 2.87189867e-17 0.00000000e+00 1.00963201e-15 0.00000000e+00 2.87189867e-17
2.51188643e+02 5.35933989e-16 1.89744463e-17 0.00000000e+00 5.16959543e-16 0.00000000e+00 1.89744463e-17
2.88403150e+02 2.76602429e-16 1.25362924e-17 0.00000000e+00 2.64066136e-16 0.00000000e+00 1.25362924e-17
3.31131121e+02 1.43047412e-16 8.28264623e-18 0.00000000e+00 1.34764766e-16 0.00000000e+00 8.28264623e-18
3.80189396e+02 7.40962811e-17 5.47229010e-18 0.00000000e+00 6.86239910e-17 0.00000000e+00 5.47229010e-18
4.36515832e+02 3.85226983e-17 3.61550621e-18 0.00000000e+00 3.49071921e-17 0.00000000e+00 3.61550621e-18
5.01187234e+02 2.01169056e-17 2.38874127e-18 0.00000000e+00 1.77281644e-17 0.00000000e+00 2.38874127e-18
5.75439937e+02 1.05709126e-17 1.57822570e-18 0.00000000e+00 8.99268688e-18 0.00000000e+00 1.57822570e-18
6.60693448e+02 5.59932628e-18 1.04272338e-18 0.00000000e+00 4.55660290e-18 0.00000000e+00 1.04272338e-18
7.58577575e+02 2.99558010e-18 6.88920507e-19 0.00000000e+00 2.30665959e-18 0.00000000e+00 6.88920507e-19
8.70963590e+02 1.62158049e-18 4.55165265e-19 0.00000000e+00 1.16641522e-18 0.00000000e+00 4.55165265e-19
1.00000000e+03 5.89192467e-19 0.00000000e+00 0.00000000e+00 5.89192467e-19 0.00000000e+00 0.00000000e+00
