# column 1: lambda (micron)
# column 2: total flux; lambda*F_lambda (W/m2)
# column 3: direct stellar flux; lambda*F_lambda (W/m2)
# column 4: scattered stellar flux; lambda*F_lambda (W/m2)
# column 5: total dust emission flux; lambda*F_lambda (W/m2)
# column 6: dust emission scattered flux; lambda*F_lambda (W/m2)
# column 7: transparent flux; lambda*F_lambda (W/m2)
1.00000000e-03 8.45456850e-13 8.45454879e-13 1.97108811e-18 0.00000000e+00 0.00000000e+00 8.46529401e-13
1.14815362e-03 9.97503947e-13 9.97500862e-13 3.08488926e-18 0.00000000e+00 0.00000000e+00 9.99176121e-13
1.31825674e-03 1.17683968e-12 1.17683474e-12 4.94038059e-18 0.00000000e+00 0.00000000e+00 1.17934819e-12
1.51356125e-03 1.38852661e-12 1.38851205e-12 1.45603179e-17 0.00000000e+00 0.00000000e+00 1.39200901e-12
1.73780083e-03 1.63890033e-12 1.63884683e-12 5.35094061e-17 0.00000000e+00 0.00000000e+00 1.64301696e-12
1.99526231e-03 1.93281356e-12 1.93276366e-12 4.98982975e-17 0.00000000e+00 0.00000000e+00 1.93928682e-12
2.29086765e-03 2.28105230e-12 2.28081643e-12 2.35869717e-16 0.00000000e+00 0.00000000e+00 2.28898025e-12
2.63026799e-03 2.69037192e-12 2.69018745e-12 1.84476795e-16 0.00000000e+00 0.00000000e+00 2.70173063e-12
3.01995172e-03 3.17401958e-12 3.17206620e-12 1.95338386e-15 0.00000000e+00 0.00000000e+00 3.18890841e-12
3.46736850e-03 3.74125026e-12 3.74051444e-12 7.35816783e-16 0.00000000e+00 0.00000000e+00 3.76393440e-12
3.98107171e-03 4.41202573e-12 4.41102176e-12 1.00397226e-15 0.00000000e+00 0.00000000e+00 4.44264945e-12
4.57088190e-03 5.22044359e-12 5.21881982e-12 1.62376658e-15 0.00000000e+00 0.00000000e+00 5.24375082e-12
5.24807460e-03 6.16476290e-12 6.15174738e-12 1.30155198e-14 0.00000000e+00 0.00000000e+00 6.18930730e-12
6.02559586e-03 7.27535695e-12 7.25194640e-12 2.34105465e-14 0.00000000e+00 0.00000000e+00 7.30536713e-12
6.91830971e-03 8.56529785e-12 8.54994444e-12 1.53534071e-14 0.00000000e+00 0.00000000e+00 8.62267558e-12
7.94328235e-03 1.01398961e-11 1.00817936e-11 5.81024772e-14 2.13433901e-303 2.65394180e-305 1.01775219e-11
9.12010839e-03 1.19270975e-11 1.18874192e-11 3.96782969e-14 1.08907010e-264 1.04074113e-266 1.20127391e-11
1.04712855e-02 1.33399708e-11 1.32677340e-11 7.22367362e-14 5.24444795e-231 2.78720675e-233 1.34165878e-11
1.20226443e-02 1.33489482e-11 1.32590008e-11 8.99474402e-14 9.26802839e-202 8.32921920e-204 1.34165878e-11
1.38038426e-02 1.33247433e-11 1.32486496e-11 7.60937278e-14 2.79483431e-176 2.49681221e-178 1.34165878e-11
1.58489319e-02 1.33249330e-11 1.32359399e-11 8.89930920e-14 4.13854511e-154 4.68372287e-156 1.34165878e-11
1.81970086e-02 1.33222163e-11 1.32242282e-11 9.79880777e-14 8.01311705e-135 1.34456436e-136 1.34165878e-11
2.08929613e-02 1.33373988e-11 1.32145012e-11 1.22897607e-13 4.48796770e-118 9.11317793e-120 1.34165878e-11
2.39883292e-02 1.33552552e-11 1.32019089e-11 1.53346297e-13 1.67651626e-103 4.35695938e-105 1.34165878e-11
2.75422870e-02 1.33752006e-11 1.31872770e-11 1.87923565e-13 7.92353321e-91 2.48572816e-92 1.34165878e-11
3.16227766e-02 1.33773505e-11 1.31729503e-11 2.04400200e-13 8.10745335e-80 3.03925526e-81 1.34165878e-11
3.63078055e-02 1.33911103e-11 1.31617240e-11 2.29386291e-13 2.92846413e-70 1.21290235e-71 1.34165878e-11
4.16869383e-02 1.34346192e-11 1.31520218e-11 2.82597343e-13 5.81158390e-62 3.17589256e-63 1.34165878e-11
4.78630092e-02 1.34557675e-11 1.31253151e-11 3.30452466e-13 9.11687361e-55 6.23470170e-56 1.34165878e-11
5.49540874e-02 1.34524568e-11 1.30882643e-11 3.64192504e-13 1.56282135e-48 1.24107599e-49 1.34165878e-11
6.30957344e-02 1.33575818e-11 1.29958189e-11 3.61762817e-13 5.17239309e-43 4.58039797e-44 1.34165878e-11
7.24435960e-02 1.32196714e-11 1.28871606e-11 3.32510785e-13 3.03852428e-38 2.58749065e-39 1.34165878e-11
8.31763771e-02 1.32201060e-11 1.28967927e-11 3.23313358e-13 3.15805575e-34 2.61499751e-35 1.34165878e-11
9.54992586e-02 1.32569712e-11 1.29250845e-11 3.31886646e-13 9.05110326e-31 7.76425681e-32 1.34165878e-11
1.09647820e-01 1.27642047e-11 1.24215813e-11 3.42623389e-13 7.83174658e-28 7.34357886e-29 1.28127470e-11
1.25892541e-01 1.19869957e-11 1.16562322e-11 3.30763463e-13 2.56969284e-25 2.38568976e-26 1.19575512e-11
1.44543977e-01 1.12324666e-11 1.09258490e-11 3.06617595e-13 3.53424540e-23 3.20799576e-24 1.11594361e-11
1.65958691e-01 1.05467440e-11 1.02236909e-11 3.23053065e-13 1.81502236e-21 1.81616670e-22 1.04145917e-11
1.90546072e-01 9.86100146e-12 9.52951078e-12 3.31490643e-13 3.89090276e-20 4.64757975e-21 9.71946251e-12
2.18776162e-01 9.17003510e-12 8.86313689e-12 3.06897751e-13 4.64045576e-19 5.76106033e-20 9.07073019e-12
2.51188643e-01 8.65950558e-12 8.31000016e-12 3.49499655e-13 5.75730897e-18 8.75877190e-19 8.46529796e-12
2.88403150e-01 8.10838683e-12 7.77975844e-12 3.28580253e-13 4.81315006e-17 7.22427760e-18 7.90027573e-12
3.31131121e-01 7.57824623e-12 7.27482439e-12 3.03145697e-13 2.76139937e-16 4.00876123e-17 7.37296631e-12
3.80189396e-01 7.08257352e-12 6.80035574e-12 2.81065119e-13 1.15265530e-15 1.63055867e-16 6.88085251e-12
4.36515832e-01 6.61675369e-12 6.35615391e-12 2.56942545e-13 3.65723192e-15 5.10976485e-16 6.42158520e-12
5.01187234e-01 6.18618320e-12 5.94050818e-12 2.36476211e-13 9.19880637e-15 1.28643110e-15 5.99297201e-12
5.75439937e-01 5.78730875e-12 5.55133685e-12 2.16629744e-13 1.93421637e-14 2.75025173e-15 5.59296690e-12
6.60693448e-01 5.41665675e-12 5.18691488e-12 1.93704738e-13 3.60371274e-14 5.47407327e-15 5.21966041e-12
7.58577575e-01 5.08292783e-12 4.84582789e-12 1.71939069e-13 6.51608644e-14 1.11275876e-14 4.87127053e-12
8.70963590e-01 4.79769910e-12 4.52680441e-12 1.49816242e-13 1.21078452e-13 2.33966478e-14 4.54613417e-12
1.00000000e+00 4.58923913e-12 4.22825174e-12 1.27258904e-13 2.33728491e-13 4.82189792e-14 4.24269927e-12
1.14815362e+00 4.50400775e-12 3.94891137e-12 1.04689837e-13 4.50406539e-13 9.08696490e-14 3.95951734e-12
1.31825674e+00 4.62110880e-12 3.68758643e-12 8.30672921e-14 8.50455082e-13 1.55092028e-13 3.69523659e-12
1.51356125e+00 4.97941674e-12 3.44313337e-12 6.46034351e-14 1.47167993e-12 2.34691414e-13 3.44859544e-12
1.73780083e+00 5.59065948e-12 3.21458030e-12 4.94811985e-14 2.32659798e-12 3.09677947e-13 3.21841652e-12
1.99526231e+00 6.34266518e-12 3.00094911e-12 3.66356982e-14 3.30508037e-12 3.56694439e-13 3.00360106e-12
2.29086765e+00 7.12695057e-12 2.80129609e-12 2.70648441e-14 4.29858963e-12 3.63795489e-13 2.80312361e-12
2.63026799e+00 7.79278848e-12 2.61475601e-12 1.93146719e-14 5.15871779e-12 3.47226711e-13 2.61602716e-12
3.01995172e+00 8.27940566e-12 2.44052309e-12 1.40408792e-14 5.82484169e-12 3.08690284e-13 2.44141860e-12
3.46736850e+00 8.62493294e-12 2.27782324e-12 1.00006045e-14 6.33710910e-12 2.62546579e-13 2.27846441e-12
3.98107171e+00 8.78720919e-12 2.12592179e-12 7.06975201e-15 6.65421765e-12 2.08503533e-13 2.12638671e-12
4.57088190e+00 8.72541334e-12 1.98411782e-12 4.73780710e-15 6.73655771e-12 1.54736912e-13 1.98445954e-12
5.24807460e+00 8.32413663e-12 1.64061689e-12 2.75571135e-15 6.68076403e-12 1.06040905e-13 1.64084388e-12
6.02559586e+00 7.59624119e-12 1.08397017e-12 1.23379208e-15 6.51103723e-12 6.82426645e-14 1.08409480e-12
6.70000000e+00 7.07764813e-12 7.88494485e-13 6.34586482e-16 6.28851906e-12 4.60470182e-14 7.88574724e-13
6.92422916e+00 6.91803437e-12 7.14348799e-13 5.15619788e-16 6.20316995e-12 4.03457475e-14 7.14418944e-13
7.15596261e+00 6.79376198e-12 6.47174167e-13 4.07213536e-16 6.14618060e-12 3.49689802e-14 6.47236606e-13
7.39545150e+00 6.75318089e-12 5.86314024e-13 3.09632688e-16 6.16655724e-12 2.97172402e-14 5.86371942e-13
7.64295536e+00 6.90323829e-12 5.31171069e-13 2.16324382e-16 6.37185090e-12 2.42366682e-14 5.31230854e-13
7.89874245e+00 7.33623169e-12 4.81205130e-13 1.30561935e-16 6.85489600e-12 1.84981757e-14 4.81275108e-13
8.16308998e+00 7.93175188e-12 4.35931486e-13 7.23565131e-17 7.49574804e-12 1.37920953e-14 4.36017088e-13
8.43628443e+00 8.65526706e-12 3.94907288e-13 3.95590032e-17 8.26032021e-12 9.84215248e-15 3.95015029e-13
8.71862190e+00 9.10273092e-12 3.57748779e-13 2.44090984e-17 8.74495773e-12 7.46197822e-15 3.57868711e-13
9.01040836e+00 9.44991430e-12 3.24083928e-13 1.50849829e-17 9.12581528e-12 5.60673519e-15 3.24215549e-13
9.31196005e+00 9.72394355e-12 2.93588755e-13 0.00000000e+00 9.43035480e-12 0.00000000e+00 2.93727053e-13
9.62360379e+00 9.53942389e-12 2.65977034e-13 0.00000000e+00 9.27344685e-12 0.00000000e+00 2.66105627e-13
9.94567731e+00 9.13592513e-12 2.40972343e-13 0.00000000e+00 8.89495279e-12 0.00000000e+00 2.41081657e-13
1.02785297e+01 8.74724999e-12 2.18321290e-13 0.00000000e+00 8.52892870e-12 0.00000000e+00 2.18410884e-13
1.06225216e+01 8.21652302e-12 1.97799376e-13 0.00000000e+00 8.01872364e-12 0.00000000e+00 1.97872020e-13
1.09780260e+01 7.75387366e-12 1.79207806e-13 0.00000000e+00 7.57466586e-12 0.00000000e+00 1.79264583e-13
1.13454280e+01 7.30702723e-12 1.62362395e-13 0.00000000e+00 7.14466483e-12 0.00000000e+00 1.62406948e-13
1.17251259e+01 6.92007443e-12 1.47099381e-13 0.00000000e+00 6.77297505e-12 0.00000000e+00 1.47134567e-13
1.21175312e+01 6.53935252e-12 1.33270720e-13 0.00000000e+00 6.40608180e-12 0.00000000e+00 1.33298366e-13
1.25230691e+01 6.18993019e-12 1.20741628e-13 0.00000000e+00 6.06918856e-12 0.00000000e+00 1.20763289e-13
1.29421791e+01 5.86398096e-12 1.09389891e-13 0.00000000e+00 5.75459107e-12 0.00000000e+00 1.09406983e-13
1.33753155e+01 5.52340384e-12 9.91050160e-14 0.00000000e+00 5.42429882e-12 0.00000000e+00 9.91185987e-14
1.38229477e+01 5.31453904e-12 8.97864184e-14 0.00000000e+00 5.22475262e-12 0.00000000e+00 8.97977103e-14
1.42855609e+01 5.15984795e-12 8.13435231e-14 0.00000000e+00 5.07850442e-12 0.00000000e+00 8.13533371e-14
1.47636563e+01 5.14145271e-12 7.36937394e-14 0.00000000e+00 5.06775897e-12 0.00000000e+00 7.37030537e-14
1.52577522e+01 5.18924494e-12 6.67631858e-14 0.00000000e+00 5.12248176e-12 0.00000000e+00 6.67721855e-14
1.57683840e+01 5.24475658e-12 6.04842732e-14 0.00000000e+00 5.18427230e-12 0.00000000e+00 6.04930805e-14
1.62961051e+01 5.27029498e-12 5.47958397e-14 0.00000000e+00 5.21549914e-12 0.00000000e+00 5.48044484e-14
1.68414875e+01 5.30294755e-12 4.96423666e-14 0.00000000e+00 5.25330519e-12 0.00000000e+00 4.96507622e-14
1.74051222e+01 5.30176451e-12 4.49737444e-14 0.00000000e+00 5.25679077e-12 0.00000000e+00 4.49817171e-14
1.79876201e+01 5.24880555e-12 4.07442944e-14 0.00000000e+00 5.20806125e-12 0.00000000e+00 4.07517384e-14
1.85896125e+01 5.16484670e-12 3.69128019e-14 0.00000000e+00 5.12793389e-12 0.00000000e+00 3.69195372e-14
1.92117518e+01 5.00505201e-12 3.34417915e-14 0.00000000e+00 4.97161022e-12 0.00000000e+00 3.34477076e-14
1.98547123e+01 4.83669287e-12 3.02972659e-14 0.00000000e+00 4.80639561e-12 0.00000000e+00 3.03023610e-14
2.05191907e+01 4.63190333e-12 2.74484519e-14 0.00000000e+00 4.60445488e-12 0.00000000e+00 2.74527957e-14
2.12059073e+01 4.46024010e-12 2.48674943e-14 0.00000000e+00 4.43537261e-12 0.00000000e+00 2.48711970e-14
2.19156062e+01 4.27124228e-12 2.25291944e-14 0.00000000e+00 4.24871308e-12 0.00000000e+00 2.25323660e-14
2.26490567e+01 4.08229284e-12 2.04107523e-14 0.00000000e+00 4.06188208e-12 0.00000000e+00 2.04134733e-14
2.34070535e+01 3.90007050e-12 1.84914978e-14 0.00000000e+00 3.88157901e-12 0.00000000e+00 1.84938366e-14
2.41904183e+01 3.70696680e-12 1.67527028e-14 0.00000000e+00 3.69021410e-12 0.00000000e+00 1.67547181e-14
2.50000000e+01 3.54178950e-12 1.51774021e-14 0.00000000e+00 3.52661210e-12 0.00000000e+00 1.51791424e-14
2.75422870e+01 3.02284995e-12 1.13507312e-14 0.00000000e+00 3.01149922e-12 0.00000000e+00 1.13518661e-14
3.16227766e+01 2.33115679e-12 7.49948001e-15 0.00000000e+00 2.32365731e-12 0.00000000e+00 7.50010357e-15
3.63078055e+01 1.68991133e-12 4.95492850e-15 0.00000000e+00 1.68495640e-12 0.00000000e+00 4.95526929e-15
4.16869383e+01 1.15511729e-12 3.27373263e-15 0.00000000e+00 1.15184356e-12 0.00000000e+00 3.27391395e-15
4.78630092e+01 7.40206092e-13 2.16296002e-15 0.00000000e+00 7.38043132e-13 0.00000000e+00 2.16305350e-15
5.49540874e+01 4.49663644e-13 1.42906811e-15 0.00000000e+00 4.48234575e-13 0.00000000e+00 1.42911527e-15
6.30957344e+01 2.61865889e-13 9.44183603e-16 0.00000000e+00 2.60921706e-13 0.00000000e+00 9.44207098e-16
7.24435960e+01 1.47695562e-13 6.23819823e-16 0.00000000e+00 1.47071743e-13 0.00000000e+00 6.23831443e-16
8.31763771e+01 8.13748862e-14 4.12155609e-16 0.00000000e+00 8.09627306e-14 0.00000000e+00 4.12161347e-16
9.54992586e+01 4.41429551e-14 2.72309462e-16 0.00000000e+00 4.38706456e-14 0.00000000e+00 2.72312302e-16
1.09647820e+02 2.36904560e-14 1.79913543e-16 0.00000000e+00 2.35105425e-14 0.00000000e+00 1.79914953e-16
1.25892541e+02 1.27617420e-14 1.18867920e-16 0.00000000e+00 1.26428741e-14 0.00000000e+00 1.18868631e-16
1.44543977e+02 6.86442453e-15 7.85353646e-17 0.00000000e+00 6.78588916e-15 0.00000000e+00 7.85357256e-17
1.65958691e+02 3.52886913e-15 5.18878623e-17 0.00000000e+00 3.47698127e-15 0.00000000e+00 5.18880394e-17
1.90546072e+02 1.82219837e-15 3.42820000e-17 0.00000000e+00 1.78791637e-15 0.00000000e+00 3.42820876e-17
2.18776162e+02 9.42737765e-16 2.26499070e-17 0.00000000e+00 9.20087858e-16 0.00000000e+00 2.26499507e-17
2.51188643e+02 4.87801496e-16 1.49646522e-17 0.00000000e+00 4.72836843e-16 0.00000000e+00 1.49646740e-17
2.88403150e+02 2.52133704e-16 9.88705116e-18 0.00000000e+00 2.42246652e-16 0.00000000e+00 9.88706207e-18
3.31131121e+02 1.30487923e-16 6.53231166e-18 0.00000000e+00 1.23955612e-16 0.00000000e+00 6.53231713e-18
3.80189396e+02 6.75786404e-17 4.31585639e-18 0.00000000e+00 6.32627840e-17 0.00000000e+00 4.31585913e-18
4.36515832e+02 3.50918439e-17 2.85145847e-18 0.00000000e+00 3.22403854e-17 0.00000000e+00 2.85145985e-18
5.01187234e+02 1.82848169e-17 1.88394015e-18 0.00000000e+00 1.64008767e-17 0.00000000e+00 1.88394084e-18
5.75439937e+02 9.57585488e-18 1.24470702e-18 0.00000000e+00 8.33114786e-18 0.00000000e+00 1.24470737e-18
6.60693448e+02 5.04885963e-18 8.22369829e-19 0.00000000e+00 4.22648980e-18 0.00000000e+00 8.22370004e-19
7.58577575e+02 2.68510710e-18 5.43334386e-19 0.00000000e+00 2.14177272e-18 0.00000000e+00 5.43334473e-19
8.70963590e+02 1.44298447e-18 3.58977483e-19 0.00000000e+00 1.08400699e-18 0.00000000e+00 3.58977527e-19
1.00000000e+03 5.47987876e-19 0.00000000e+00 0.00000000e+00 5.47987876e-19 0.00000000e+00 0.00000000e+00
