# column 1: lambda (micron)
# column 2: total flux; lambda*F_lambda (W/m2)
# column 3: direct stellar flux; lambda*F_lambda (W/m2)
# column 4: scattered stellar flux; lambda*F_lambda (W/m2)
# column 5: total dust emission flux; lambda*F_lambda (W/m2)
# column 6: dust emission scattered flux; lambda*F_lambda (W/m2)
# column 7: transparent flux; lambda*F_lambda (W/m2)
1.00000000e-03 3.57786803e-13 3.57785423e-13 1.37992087e-18 0.00000000e+00 0.00000000e+00 3.57785423e-13
1.14815362e-03 4.22303752e-13 4.22301518e-13 2.23400516e-18 0.00000000e+00 0.00000000e+00 4.22301518e-13
1.31825674e-03 4.98454794e-13 4.98451197e-13 3.59752342e-18 0.00000000e+00 0.00000000e+00 4.98451197e-13
1.51356125e-03 5.88337829e-13 5.88332233e-13 5.59568505e-18 0.00000000e+00 0.00000000e+00 5.88332233e-13
1.73780083e-03 6.94430341e-13 6.94420676e-13 9.66539964e-18 0.00000000e+00 0.00000000e+00 6.94420676e-13
1.99526231e-03 8.19657123e-13 8.19639053e-13 1.80699394e-17 0.00000000e+00 0.00000000e+00 8.19639053e-13
2.29086765e-03 9.67466095e-13 9.67436888e-13 2.92067273e-17 0.00000000e+00 0.00000000e+00 9.67436888e-13
2.63026799e-03 1.14194330e-12 1.14188572e-12 5.75783777e-17 0.00000000e+00 0.00000000e+00 1.14188572e-12
3.01995172e-03 1.34789823e-12 1.34779128e-12 1.06946824e-16 0.00000000e+00 0.00000000e+00 1.34779128e-12
3.46736850e-03 1.59100013e-12 1.59082586e-12 1.74262821e-16 0.00000000e+00 0.00000000e+00 1.59082586e-12
3.98107171e-03 1.87798756e-12 1.87768459e-12 3.02970187e-16 0.00000000e+00 0.00000000e+00 1.87768459e-12
4.57088190e-03 2.21684557e-12 2.21626987e-12 5.75700980e-16 0.00000000e+00 0.00000000e+00 2.21626987e-12
5.24807460e-03 2.61683622e-12 2.61590907e-12 9.27156828e-16 0.00000000e+00 0.00000000e+00 2.61590907e-12
6.02559586e-03 3.08959711e-12 3.08761145e-12 1.98565963e-15 0.00000000e+00 0.00000000e+00 3.08761145e-12
6.91830971e-03 3.64737779e-12 3.64437151e-12 3.00628301e-15 0.00000000e+00 0.00000000e+00 3.64437151e-12
7.94328235e-03 4.30696208e-12 4.30152690e-12 5.43518278e-15 3.55444918e-304 3.47727370e-306 4.30152690e-12
9.12010839e-03 5.08624168e-12 5.07718096e-12 9.06071658e-15 1.58125625e-265 3.05812292e-267 5.07718096e-12
1.04712855e-02 5.68211115e-12 5.67051724e-12 1.15939105e-14 6.68642922e-232 1.00042379e-233 5.67051724e-12
1.20226443e-02 5.69123110e-12 5.67051724e-12 2.07138653e-14 1.05180149e-202 1.65367396e-204 5.67051724e-12
1.38038426e-02 5.69792986e-12 5.67051724e-12 2.74126210e-14 2.87662739e-177 4.90127238e-179 5.67051724e-12
1.58489319e-02 5.71073918e-12 5.67051724e-12 4.02219454e-14 3.92185713e-155 9.04211584e-157 5.67051724e-12
1.81970086e-02 5.72725472e-12 5.67051724e-12 5.67374788e-14 7.01498349e-136 1.71189998e-137 5.67051724e-12
2.08929613e-02 5.73322429e-12 5.67051724e-12 6.27070485e-14 3.69460823e-119 1.17074591e-120 5.67051724e-12
2.39883292e-02 5.75376788e-12 5.67051724e-12 8.32506400e-14 1.30813866e-104 5.25363087e-106 5.67051724e-12
2.75422870e-02 5.77373908e-12 5.67051724e-12 1.03221842e-13 5.88606762e-92 2.74345293e-93 5.67051724e-12
3.16227766e-02 5.77786486e-12 5.67051724e-12 1.07347618e-13 5.75831194e-81 2.97395395e-82 5.67051724e-12
3.63078055e-02 5.79053789e-12 5.67051724e-12 1.20020648e-13 1.99946939e-71 1.08557057e-72 5.67051724e-12
4.16869383e-02 5.80178858e-12 5.67051724e-12 1.31271344e-13 3.80393362e-63 2.21637330e-64 5.67051724e-12
4.78630092e-02 5.81520975e-12 5.67051724e-12 1.44692513e-13 5.74634145e-56 3.69278003e-57 5.67051724e-12
5.49540874e-02 5.80714512e-12 5.67051724e-12 1.36627879e-13 9.49165770e-50 6.24680493e-51 5.67051724e-12
6.30957344e-02 5.79936978e-12 5.67051724e-12 1.28852541e-13 3.04272903e-44 2.07882024e-45 5.67051724e-12
7.24435960e-02 5.77571151e-12 5.67051724e-12 1.05194275e-13 1.74371276e-39 1.07437073e-40 5.67051724e-12
8.31763771e-02 5.77512927e-12 5.67051724e-12 1.04612027e-13 1.78196531e-35 1.04092238e-36 5.67051724e-12
9.54992586e-02 5.77664360e-12 5.67051724e-12 1.06126365e-13 5.03678531e-32 3.08225332e-33 5.67051724e-12
1.09647820e-01 5.52593355e-12 5.41530405e-12 1.10629496e-13 4.30151789e-29 2.86134053e-30 5.41530405e-12
1.25892541e-01 5.16784886e-12 5.05385580e-12 1.13993062e-13 1.40538023e-26 9.74267415e-28 5.05385580e-12
1.44543977e-01 4.82407773e-12 4.71653266e-12 1.07545077e-13 1.91625437e-24 1.26764624e-25 4.71653266e-12
1.65958691e-01 4.50160072e-12 4.40172439e-12 9.98763294e-14 9.74404811e-23 7.03200288e-24 4.40172439e-12
1.90546072e-01 4.21628562e-12 4.10792822e-12 1.08357400e-13 2.04368218e-21 1.62398932e-22 4.10792822e-12
2.18776162e-01 3.92522432e-12 3.83374167e-12 9.14826203e-14 2.40732568e-20 1.94110852e-21 3.83374167e-12
2.51188643e-01 3.67455165e-12 3.57785591e-12 9.66954563e-14 2.92428027e-19 2.73929316e-20 3.57785591e-12
2.88403150e-01 3.43203544e-12 3.33904941e-12 9.29835882e-14 2.44034965e-18 2.23708725e-19 3.33904941e-12
3.31131121e-01 3.20456745e-12 3.11618222e-12 8.83712350e-14 1.39956114e-17 1.23483160e-18 3.11618222e-12
3.80189396e-01 2.98629160e-12 2.90819046e-12 7.80426147e-14 5.85233733e-17 5.08642724e-18 2.90819046e-12
4.36515832e-01 2.78439290e-12 2.71408126e-12 7.01253109e-14 1.86336257e-16 1.57603147e-17 2.71408126e-12
5.01187234e-01 2.59607229e-12 2.53292801e-12 6.26660621e-14 4.78223639e-16 4.16817610e-17 2.53292801e-12
5.75439937e-01 2.42091507e-12 2.36386595e-12 5.59810421e-14 1.06807306e-15 1.02731461e-16 2.36386595e-12
6.60693448e-01 2.25830094e-12 2.20608807e-12 4.99350399e-14 2.27782928e-15 2.62950307e-16 2.20608807e-12
7.58577575e-01 2.10895336e-12 2.05884118e-12 4.50835840e-14 5.02860009e-15 7.03993792e-16 2.05884118e-12
8.70963590e-01 1.97246312e-12 1.92142238e-12 3.95933176e-14 1.14474205e-14 1.77561709e-15 1.92142238e-12
1.00000000e+00 1.85176266e-12 1.79317570e-12 3.31193993e-14 2.54675608e-14 3.99858243e-15 1.79317570e-12
1.14815362e+00 1.75543234e-12 1.67348894e-12 2.81809081e-14 5.37624912e-14 7.96127101e-15 1.67348894e-12
1.31825674e+00 1.69091236e-12 1.56179075e-12 2.33214239e-14 1.05800189e-13 1.39728268e-14 1.56179075e-12
1.51356125e+00 1.66505571e-12 1.45754793e-12 1.77715468e-14 1.89736229e-13 2.14839845e-14 1.45754793e-12
1.73780083e+00 1.68053331e-12 1.36026288e-12 1.31949208e-14 3.07075508e-13 2.83059099e-14 1.36026288e-12
1.99526231e+00 1.72779457e-12 1.26947118e-12 1.00880529e-14 4.48235337e-13 3.21382494e-14 1.26947118e-12
2.29086765e+00 1.79264118e-12 1.18473944e-12 7.29781060e-15 6.00603932e-13 3.24294472e-14 1.18473944e-12
2.63026799e+00 1.84966429e-12 1.10566318e-12 5.01297646e-15 7.38988136e-13 2.93542751e-14 1.10566318e-12
3.01995172e+00 1.88808974e-12 1.03186491e-12 3.46511139e-15 8.52759712e-13 2.50049445e-14 1.03186491e-12
3.46736850e+00 1.89975628e-12 9.62992369e-13 2.42767776e-15 9.34336238e-13 2.00212651e-14 9.62992369e-13
3.98107171e+00 1.86946353e-12 8.98716770e-13 1.65196794e-15 9.69094794e-13 1.52301248e-14 8.98716770e-13
4.57088190e+00 1.80731098e-12 8.38731291e-13 1.13991620e-15 9.67439770e-13 1.09722316e-14 8.38731291e-13
5.24807460e+00 1.63282935e-12 6.93502223e-13 6.49536590e-16 9.38677589e-13 7.49473995e-15 6.93502223e-13
6.02559586e+00 1.35189136e-12 4.58192375e-13 2.94678381e-16 8.93404309e-13 4.85766016e-15 4.58192375e-13
6.70000000e+00 1.18235841e-12 3.33290895e-13 1.51416619e-16 8.48916100e-13 3.31683261e-15 3.33290895e-13
6.92422916e+00 1.13783440e-12 3.01948975e-13 1.20560147e-16 8.35764864e-13 2.93452566e-15 3.01948975e-13
7.15596261e+00 1.10019103e-12 2.73554377e-13 9.53561191e-17 8.26541295e-13 2.53203846e-15 2.73554377e-13
7.39545150e+00 1.07800645e-12 2.47829944e-13 7.37629633e-17 8.30102746e-13 2.17646176e-15 2.47829944e-13
7.64295536e+00 1.10729572e-12 2.24524577e-13 5.17289975e-17 8.82719418e-13 1.77314499e-15 2.24524577e-13
7.89874245e+00 1.19956202e-12 2.03410795e-13 2.99781144e-17 9.96121251e-13 1.36290978e-15 2.03410795e-13
8.16308998e+00 1.35111158e-12 1.84282505e-13 1.69474952e-17 1.16681213e-12 1.04335389e-15 1.84282505e-13
8.43628443e+00 1.56056395e-12 1.66952996e-13 9.23399172e-18 1.39360172e-12 7.55789616e-16 1.66952996e-13
8.71862190e+00 1.72434393e-12 1.51253114e-13 6.04433921e-18 1.57308477e-12 6.08809828e-16 1.51253114e-13
9.01040836e+00 1.87703351e-12 1.37029614e-13 3.86452767e-18 1.74000003e-12 4.59920621e-16 1.37029614e-13
9.31196005e+00 2.01197375e-12 1.24143660e-13 0.00000000e+00 1.88783009e-12 0.00000000e+00 1.24143660e-13
9.62360379e+00 1.98391317e-12 1.12469472e-13 0.00000000e+00 1.87144370e-12 0.00000000e+00 1.12469472e-13
9.94567731e+00 1.87270009e-12 1.01893097e-13 0.00000000e+00 1.77080699e-12 0.00000000e+00 1.01893097e-13
1.02785297e+01 1.72140888e-12 9.23113014e-14 0.00000000e+00 1.62909758e-12 0.00000000e+00 9.23113014e-14
1.06225216e+01 1.57284819e-12 8.36305558e-14 0.00000000e+00 1.48921764e-12 0.00000000e+00 8.36305558e-14
1.09780260e+01 1.42394104e-12 7.57661279e-14 0.00000000e+00 1.34817491e-12 0.00000000e+00 7.57661279e-14
1.13454280e+01 1.28108192e-12 6.86412529e-14 0.00000000e+00 1.21244067e-12 0.00000000e+00 6.86412529e-14
1.17251259e+01 1.17520332e-12 6.21863851e-14 0.00000000e+00 1.11301694e-12 0.00000000e+00 6.21863851e-14
1.21175312e+01 1.07178639e-12 5.63385184e-14 0.00000000e+00 1.01544788e-12 0.00000000e+00 5.63385184e-14
1.25230691e+01 9.87843254e-13 5.10405718e-14 0.00000000e+00 9.36802683e-13 0.00000000e+00 5.10405718e-14
1.29421791e+01 9.10465477e-13 4.62408321e-14 0.00000000e+00 8.64224645e-13 0.00000000e+00 4.62408321e-14
1.33753155e+01 8.48013760e-13 4.18924490e-14 0.00000000e+00 8.06121311e-13 0.00000000e+00 4.18924490e-14
1.38229477e+01 8.10817317e-13 3.79529781e-14 0.00000000e+00 7.72864339e-13 0.00000000e+00 3.79529781e-14
1.42855609e+01 7.92442060e-13 3.43839660e-14 0.00000000e+00 7.58058094e-13 0.00000000e+00 3.43839660e-14
1.47636563e+01 8.00057904e-13 3.11505758e-14 0.00000000e+00 7.68907328e-13 0.00000000e+00 3.11505758e-14
1.52577522e+01 8.19289120e-13 2.82212462e-14 0.00000000e+00 7.91067873e-13 0.00000000e+00 2.82212462e-14
1.57683840e+01 8.42668724e-13 2.55673842e-14 0.00000000e+00 8.17101340e-13 0.00000000e+00 2.55673842e-14
1.62961051e+01 8.63891493e-13 2.31630853e-14 0.00000000e+00 8.40728408e-13 0.00000000e+00 2.31630853e-14
1.68414875e+01 8.90632129e-13 2.09848813e-14 0.00000000e+00 8.69647248e-13 0.00000000e+00 2.09848813e-14
1.74051222e+01 9.00876452e-13 1.90115106e-14 0.00000000e+00 8.81864941e-13 0.00000000e+00 1.90115106e-14
1.79876201e+01 9.15876479e-13 1.72237112e-14 0.00000000e+00 8.98652768e-13 0.00000000e+00 1.72237112e-14
1.85896125e+01 9.16871136e-13 1.56040325e-14 0.00000000e+00 9.01267104e-13 0.00000000e+00 1.56040325e-14
1.92117518e+01 9.10216165e-13 1.41366646e-14 0.00000000e+00 8.96079500e-13 0.00000000e+00 1.41366646e-14
1.98547123e+01 8.87551680e-13 1.28072847e-14 0.00000000e+00 8.74744396e-13 0.00000000e+00 1.28072847e-14
2.05191907e+01 8.77449279e-13 1.16029167e-14 0.00000000e+00 8.65846362e-13 0.00000000e+00 1.16029167e-14
2.12059073e+01 8.58639219e-13 1.05118047e-14 0.00000000e+00 8.48127415e-13 0.00000000e+00 1.05118047e-14
2.19156062e+01 8.46206413e-13 9.52329842e-15 0.00000000e+00 8.36683115e-13 0.00000000e+00 9.52329842e-15
2.26490567e+01 8.34781760e-13 8.62774902e-15 0.00000000e+00 8.26154011e-13 0.00000000e+00 8.62774902e-15
2.34070535e+01 8.21692735e-13 7.81641505e-15 0.00000000e+00 8.13876320e-13 0.00000000e+00 7.81641505e-15
2.41904183e+01 8.14649061e-13 7.08137710e-15 0.00000000e+00 8.07567684e-13 0.00000000e+00 7.08137710e-15
2.50000000e+01 8.04540430e-13 6.41546044e-15 0.00000000e+00 7.98124970e-13 0.00000000e+00 6.41546044e-15
2.75422870e+01 7.72969829e-13 4.79786316e-15 0.00000000e+00 7.68171966e-13 0.00000000e+00 4.79786316e-15
3.16227766e+01 7.11529956e-13 3.16991676e-15 0.00000000e+00 7.08360039e-13 0.00000000e+00 3.16991676e-15
3.63078055e+01 6.22294990e-13 2.09434323e-15 0.00000000e+00 6.20200647e-13 0.00000000e+00 2.09434323e-15
4.16869383e+01 5.07619975e-13 1.38371885e-15 0.00000000e+00 5.06236256e-13 0.00000000e+00 1.38371885e-15
4.78630092e+01 3.87899864e-13 9.14213979e-16 0.00000000e+00 3.86985650e-13 0.00000000e+00 9.14213979e-16
5.49540874e+01 2.76575591e-13 6.04015186e-16 0.00000000e+00 2.75971576e-13 0.00000000e+00 6.04015186e-16
6.30957344e+01 1.86619552e-13 3.99068876e-16 0.00000000e+00 1.86220484e-13 0.00000000e+00 3.99068876e-16
7.24435960e+01 1.19792686e-13 2.63662192e-16 0.00000000e+00 1.19529023e-13 0.00000000e+00 2.63662192e-16
8.31763771e+01 7.38229092e-14 1.74199882e-16 0.00000000e+00 7.36487093e-14 0.00000000e+00 1.74199882e-16
9.54992586e+01 4.41185927e-14 1.15092721e-16 0.00000000e+00 4.40035000e-14 0.00000000e+00 1.15092721e-16
1.09647820e+02 2.57058882e-14 7.60410067e-17 0.00000000e+00 2.56298472e-14 0.00000000e+00 7.60410067e-17
1.25892541e+02 1.48424520e-14 5.02397949e-17 0.00000000e+00 1.47922122e-14 0.00000000e+00 5.02397949e-17
1.44543977e+02 8.45406935e-15 3.31931033e-17 0.00000000e+00 8.42087624e-15 0.00000000e+00 3.31931033e-17
1.65958691e+02 4.57129563e-15 2.19304659e-17 0.00000000e+00 4.54936516e-15 0.00000000e+00 2.19304659e-17
1.90546072e+02 2.46086847e-15 1.44893151e-17 0.00000000e+00 2.44637915e-15 0.00000000e+00 1.44893151e-17
2.18776162e+02 1.31697127e-15 9.57299556e-18 0.00000000e+00 1.30739827e-15 0.00000000e+00 9.57299556e-18
2.51188643e+02 7.00042194e-16 6.32481544e-18 0.00000000e+00 6.93717378e-16 0.00000000e+00 6.32481544e-18
2.88403150e+02 3.69438945e-16 4.17876412e-18 0.00000000e+00 3.65260181e-16 0.00000000e+00 4.17876412e-18
3.31131121e+02 1.94077404e-16 2.76088208e-18 0.00000000e+00 1.91316522e-16 0.00000000e+00 2.76088208e-18
3.80189396e+02 1.01427437e-16 1.82409670e-18 0.00000000e+00 9.96033403e-17 0.00000000e+00 1.82409670e-18
4.36515832e+02 5.28407414e-17 1.20516874e-18 0.00000000e+00 5.16355726e-17 0.00000000e+00 1.20516874e-18
5.01187234e+02 2.74519510e-17 7.96247089e-19 0.00000000e+00 2.66557039e-17 0.00000000e+00 7.96247089e-19
5.75439937e+02 1.42374385e-17 5.26075235e-19 0.00000000e+00 1.37113633e-17 0.00000000e+00 5.26075235e-19
6.60693448e+02 7.37929954e-18 3.47574461e-19 0.00000000e+00 7.03172508e-18 0.00000000e+00 3.47574461e-19
7.58577575e+02 3.82633809e-18 2.29640169e-19 0.00000000e+00 3.59669792e-18 0.00000000e+00 2.29640169e-19
8.70963590e+02 1.98677722e-18 1.51721755e-19 0.00000000e+00 1.83505547e-18 0.00000000e+00 1.51721755e-19
1.00000000e+03 9.34103841e-19 0.00000000e+00 0.00000000e+00 9.34103841e-19 0.00000000e+00 0.00000000e+00
