# column 1: lambda (micron)
# column 2: total flux; lambda*F_lambda (W/m2)
# column 3: direct stellar flux; lambda*F_lambda (W/m2)
# column 4: scattered stellar flux; lambda*F_lambda (W/m2)
# column 5: total dust emission flux; lambda*F_lambda (W/m2)
# column 6: dust emission scattered flux; lambda*F_lambda (W/m2)
# column 7: transparent flux; lambda*F_lambda (W/m2)
1.00000000e-03 1.04635534e-12 1.04634360e-12 1.17317920e-17 0.00000000e+00 0.00000000e+00 1.04634360e-12
1.14815362e-03 1.23502919e-12 1.23502095e-12 8.24205813e-18 0.00000000e+00 0.00000000e+00 1.23502095e-12
1.31825674e-03 1.45780241e-12 1.45772071e-12 8.16983460e-17 0.00000000e+00 0.00000000e+00 1.45772071e-12
1.51356125e-03 1.72060423e-12 1.72057784e-12 2.63892946e-17 0.00000000e+00 0.00000000e+00 1.72057784e-12
1.73780083e-03 2.03086522e-12 2.03083353e-12 3.16909006e-17 0.00000000e+00 0.00000000e+00 2.03083353e-12
1.99526231e-03 2.42056949e-12 2.39703472e-12 2.35347756e-14 0.00000000e+00 0.00000000e+00 2.39703472e-12
2.29086765e-03 2.82954534e-12 2.82926954e-12 2.75794077e-16 0.00000000e+00 0.00000000e+00 2.82926954e-12
2.63026799e-03 3.33986595e-12 3.33944522e-12 4.20731200e-16 0.00000000e+00 0.00000000e+00 3.33944522e-12
3.01995172e-03 3.94199025e-12 3.94161611e-12 3.74145197e-16 0.00000000e+00 0.00000000e+00 3.94161611e-12
3.46736850e-03 4.65347140e-12 4.65237083e-12 1.10056776e-15 0.00000000e+00 0.00000000e+00 4.65237083e-12
3.98107171e-03 5.49510344e-12 5.49128930e-12 3.81414415e-15 0.00000000e+00 0.00000000e+00 5.49128930e-12
4.57088190e-03 6.48866128e-12 6.48148207e-12 7.17920576e-15 0.00000000e+00 0.00000000e+00 6.48148207e-12
5.24807460e-03 7.67547292e-12 7.65022704e-12 2.52458804e-14 0.00000000e+00 0.00000000e+00 7.65022704e-12
6.02559586e-03 9.05569024e-12 9.02972084e-12 2.59693934e-14 0.00000000e+00 0.00000000e+00 9.02972084e-12
6.91830971e-03 1.07212008e-11 1.06579658e-11 6.32349560e-14 0.00000000e+00 0.00000000e+00 1.06579658e-11
7.94328235e-03 1.26376790e-11 1.25798170e-11 5.78620031e-14 5.48053141e-304 1.80998987e-306 1.25798170e-11
9.12010839e-03 1.49073341e-11 1.48482176e-11 5.91164750e-14 3.19463239e-265 1.97491377e-267 1.48482176e-11
1.04712855e-02 1.66985613e-11 1.65834298e-11 1.15131561e-13 1.72600025e-231 1.03068994e-233 1.65834298e-11
1.20226443e-02 1.66616314e-11 1.65834298e-11 7.82016041e-14 3.34847047e-202 2.12596219e-204 1.65834298e-11
1.38038426e-02 1.66570874e-11 1.65834298e-11 7.36576259e-14 1.10104137e-176 9.59702213e-179 1.65834298e-11
1.58489319e-02 1.66834924e-11 1.65834298e-11 1.00062592e-13 1.75109444e-154 1.63117513e-156 1.65834298e-11
1.81970086e-02 1.66852969e-11 1.65834298e-11 1.01867117e-13 3.59771372e-135 3.73684388e-137 1.65834298e-11
2.08929613e-02 1.66874229e-11 1.65834298e-11 1.03993069e-13 2.13041305e-118 3.00957121e-120 1.65834298e-11
2.39883292e-02 1.66789702e-11 1.65834298e-11 9.55404285e-14 8.32127888e-104 1.34485065e-105 1.65834298e-11
2.75422870e-02 1.66902159e-11 1.65834298e-11 1.06786142e-13 4.09187701e-91 7.92609599e-93 1.65834298e-11
3.16227766e-02 1.66910476e-11 1.65834298e-11 1.07617835e-13 4.33278273e-80 1.00412022e-81 1.65834298e-11
3.63078055e-02 1.66919605e-11 1.65834298e-11 1.08530697e-13 1.61356998e-70 4.15903926e-72 1.65834298e-11
4.16869383e-02 1.67016577e-11 1.65834298e-11 1.18227876e-13 3.27635048e-62 1.13539571e-63 1.65834298e-11
4.78630092e-02 1.67128797e-11 1.65834298e-11 1.29449927e-13 5.24652115e-55 2.38915477e-56 1.65834298e-11
5.49540874e-02 1.67265535e-11 1.65834298e-11 1.43123715e-13 9.18752295e-49 5.27859174e-50 1.65834298e-11
6.30957344e-02 1.67412698e-11 1.65834298e-11 1.57840033e-13 3.10307518e-43 2.17064419e-44 1.65834298e-11
7.24435960e-02 1.67373678e-11 1.65834298e-11 1.53937976e-13 1.85618649e-38 1.29615021e-39 1.65834298e-11
8.31763771e-02 1.67351330e-11 1.65834298e-11 1.51703211e-13 1.96015128e-34 1.35329860e-35 1.65834298e-11
9.54992586e-02 1.67348408e-11 1.65834298e-11 1.51411004e-13 5.69189295e-31 4.13273990e-32 1.65834298e-11
1.09647820e-01 1.59839613e-11 1.58370587e-11 1.46902602e-13 4.96488563e-28 3.83283598e-29 1.58370587e-11
1.25892541e-01 1.49129393e-11 1.47800032e-11 1.32936112e-13 1.63969395e-25 1.19049400e-26 1.47800032e-11
1.44543977e-01 1.39090809e-11 1.37935015e-11 1.15579348e-13 2.27416802e-23 1.59429071e-24 1.37935015e-11
1.65958691e-01 1.29876936e-11 1.28728446e-11 1.14848951e-13 1.17657730e-21 9.35387186e-23 1.28728446e-11
1.90546072e-01 1.21414447e-11 1.20136376e-11 1.27807052e-13 2.53349455e-20 2.48426314e-21 1.20136376e-11
2.18776162e-01 1.13339634e-11 1.12117790e-11 1.22184112e-13 3.05207857e-19 3.28581445e-20 1.12117790e-11
2.51188643e-01 1.05998210e-11 1.04634409e-11 1.36376304e-13 3.80552918e-18 5.16762793e-19 1.04634409e-11
2.88403150e-01 9.88976670e-12 9.76505125e-12 1.24683529e-13 3.19192050e-17 4.22882979e-18 9.76505125e-12
3.31131121e-01 9.22641035e-12 9.11327608e-12 1.12950680e-13 1.83591388e-16 2.31875942e-17 9.11327608e-12
3.80189396e-01 8.60557382e-12 8.50500410e-12 9.98013673e-14 7.68356606e-16 9.36992532e-17 8.50500410e-12
4.36515832e-01 8.03100760e-12 7.93733165e-12 9.12295649e-14 2.44638550e-15 2.96252114e-16 7.93733165e-12
5.01187234e-01 7.49670100e-12 7.40754890e-12 8.29978329e-14 6.15427185e-15 7.48382745e-16 7.40754890e-12
5.75439937e-01 7.00296909e-12 6.91312687e-12 7.70563714e-14 1.27858499e-14 1.55964456e-15 6.91312687e-12
6.60693448e-01 6.54833247e-12 6.45170538e-12 7.36602492e-14 2.29668366e-14 2.88187160e-15 6.45170538e-12
7.58577575e-01 6.12260769e-12 6.02108180e-12 6.37795712e-14 3.77463281e-14 4.86317650e-15 6.02108180e-12
8.70963590e-01 5.73564277e-12 5.61920048e-12 5.69262867e-14 5.95160011e-14 7.88884306e-15 5.61920048e-12
1.00000000e+00 5.38589103e-12 5.24414302e-12 4.83606420e-14 9.33873670e-14 1.23442407e-14 5.24414302e-12
1.14815362e+00 5.08562380e-12 4.89411902e-12 3.99526929e-14 1.51552088e-13 1.93231542e-14 4.89411902e-12
1.31825674e+00 4.85073984e-12 4.56745763e-12 3.25595948e-14 2.50722614e-13 2.84829460e-14 4.56745763e-12
1.51356125e+00 4.69353119e-12 4.26259947e-12 2.48712548e-14 4.06060457e-13 3.97500367e-14 4.26259947e-12
1.73780083e+00 4.61128226e-12 3.97808929e-12 1.86265940e-14 6.14566370e-13 4.96517452e-14 3.97808929e-12
1.99526231e+00 4.57853290e-12 3.71256894e-12 1.32857968e-14 8.52678159e-13 5.47956357e-14 3.71256894e-12
2.29086765e+00 4.55439571e-12 3.46477093e-12 9.24498967e-15 1.08037979e-12 5.39050001e-14 3.46477093e-12
2.63026799e+00 4.50131601e-12 3.23351237e-12 6.59047309e-15 1.26121317e-12 4.91537644e-14 3.23351237e-12
3.01995172e+00 4.39870602e-12 3.01768933e-12 4.65964223e-15 1.37635705e-12 4.21948744e-14 3.01768933e-12
3.46736850e+00 4.24166613e-12 2.81627154e-12 3.20428029e-15 1.42219031e-12 3.46401803e-14 2.81627154e-12
3.98107171e+00 4.03674591e-12 2.62829753e-12 2.21211408e-15 1.40623626e-12 2.66206579e-14 2.62829753e-12
4.57088190e+00 3.80340420e-12 2.45286997e-12 1.50090125e-15 1.34903332e-12 1.93567772e-14 2.45286997e-12
5.24807460e+00 3.30396553e-12 2.02814751e-12 8.59790165e-16 1.27495823e-12 1.31436718e-14 2.02814751e-12
6.02559586e+00 2.53416609e-12 1.33998377e-12 3.84329652e-16 1.19379799e-12 8.52464416e-15 1.33998377e-12
6.70000000e+00 2.10061438e-12 9.74709347e-13 1.95906577e-16 1.12570912e-12 5.74294869e-15 9.74709347e-13
6.92422916e+00 1.98467999e-12 8.83049889e-13 1.62818330e-16 1.10146728e-12 5.02919846e-15 8.83049889e-13
7.15596261e+00 1.88609980e-12 8.00009879e-13 1.27025396e-16 1.08596290e-12 4.39760287e-15 8.00009879e-13
7.39545150e+00 1.81882573e-12 7.24778763e-13 9.57496400e-17 1.09395122e-12 3.74905166e-15 7.24778763e-13
7.64295536e+00 1.81813610e-12 6.56622211e-13 6.66322168e-17 1.16144726e-12 3.11348347e-15 6.56622211e-13
7.89874245e+00 1.91910986e-12 5.94874946e-13 4.11000706e-17 1.32419381e-12 2.44872405e-15 5.94874946e-13
8.16308998e+00 2.09078089e-12 5.38934254e-13 2.37714811e-17 1.55182286e-12 1.89033675e-15 5.38934254e-13
8.43628443e+00 2.35375536e-12 4.88254098e-13 1.29701890e-17 1.86548829e-12 1.42270286e-15 4.88254098e-13
8.71862190e+00 2.51387955e-12 4.42339790e-13 8.43812225e-18 2.07153132e-12 1.11742714e-15 4.42339790e-13
9.01040836e+00 2.68696720e-12 4.00743158e-13 5.62863309e-18 2.28621842e-12 8.51961579e-16 4.00743158e-13
9.31196005e+00 2.81108054e-12 3.63058180e-13 0.00000000e+00 2.44802236e-12 0.00000000e+00 3.63058180e-13
9.62360379e+00 2.75189138e-12 3.28917012e-13 0.00000000e+00 2.42297437e-12 0.00000000e+00 3.28917012e-13
9.94567731e+00 2.56556284e-12 2.97986401e-13 0.00000000e+00 2.26757644e-12 0.00000000e+00 2.97986401e-13
1.02785297e+01 2.35799844e-12 2.69964435e-13 0.00000000e+00 2.08803401e-12 0.00000000e+00 2.69964435e-13
1.06225216e+01 2.14527782e-12 2.44577592e-13 0.00000000e+00 1.90070022e-12 0.00000000e+00 2.44577592e-13
1.09780260e+01 1.93607495e-12 2.21578069e-13 0.00000000e+00 1.71449688e-12 0.00000000e+00 2.21578069e-13
1.13454280e+01 1.75121943e-12 2.00741370e-13 0.00000000e+00 1.55047806e-12 0.00000000e+00 2.00741370e-13
1.17251259e+01 1.59566730e-12 1.81864106e-13 0.00000000e+00 1.41380319e-12 0.00000000e+00 1.81864106e-13
1.21175312e+01 1.45351901e-12 1.64762018e-13 0.00000000e+00 1.28875699e-12 0.00000000e+00 1.64762018e-13
1.25230691e+01 1.33055647e-12 1.49268171e-13 0.00000000e+00 1.18128830e-12 0.00000000e+00 1.49268171e-13
1.29421791e+01 1.21653098e-12 1.35231331e-13 0.00000000e+00 1.08129965e-12 0.00000000e+00 1.35231331e-13
1.33753155e+01 1.12438024e-12 1.22514483e-13 0.00000000e+00 1.00186576e-12 0.00000000e+00 1.22514483e-13
1.38229477e+01 1.05663153e-12 1.10993499e-13 0.00000000e+00 9.45638033e-13 0.00000000e+00 1.10993499e-13
1.42855609e+01 1.01278715e-12 1.00555922e-13 0.00000000e+00 9.12231231e-13 0.00000000e+00 1.00555922e-13
1.47636563e+01 1.01144976e-12 9.10998706e-14 0.00000000e+00 9.20349885e-13 0.00000000e+00 9.10998706e-14
1.52577522e+01 1.02180084e-12 8.25330452e-14 0.00000000e+00 9.39267792e-13 0.00000000e+00 8.25330452e-14
1.57683840e+01 1.03634836e-12 7.47718247e-14 0.00000000e+00 9.61576537e-13 0.00000000e+00 7.47718247e-14
1.62961051e+01 1.05580660e-12 6.77404517e-14 0.00000000e+00 9.88066144e-13 0.00000000e+00 6.77404517e-14
1.68414875e+01 1.06826474e-12 6.13702932e-14 0.00000000e+00 1.00689445e-12 0.00000000e+00 6.13702932e-14
1.74051222e+01 1.07213776e-12 5.55991699e-14 0.00000000e+00 1.01653859e-12 0.00000000e+00 5.55991699e-14
1.79876201e+01 1.07010708e-12 5.03707500e-14 0.00000000e+00 1.01973633e-12 0.00000000e+00 5.03707500e-14
1.85896125e+01 1.04855556e-12 4.56339988e-14 0.00000000e+00 1.00292156e-12 0.00000000e+00 4.56339988e-14
1.92117518e+01 1.01932553e-12 4.13426810e-14 0.00000000e+00 9.77982852e-13 0.00000000e+00 4.13426810e-14
1.98547123e+01 9.81457687e-13 3.74549090e-14 0.00000000e+00 9.44002778e-13 0.00000000e+00 3.74549090e-14
2.05191907e+01 9.39142692e-13 3.39327342e-14 0.00000000e+00 9.05209958e-13 0.00000000e+00 3.39327342e-14
2.12059073e+01 9.01038501e-13 3.07417768e-14 0.00000000e+00 8.70296724e-13 0.00000000e+00 3.07417768e-14
2.19156062e+01 8.61493858e-13 2.78508898e-14 0.00000000e+00 8.33642968e-13 0.00000000e+00 2.78508898e-14
2.26490567e+01 8.28443683e-13 2.52318552e-14 0.00000000e+00 8.03211827e-13 0.00000000e+00 2.52318552e-14
2.34070535e+01 7.95233196e-13 2.28591087e-14 0.00000000e+00 7.72374087e-13 0.00000000e+00 2.28591087e-14
2.41904183e+01 7.62938471e-13 2.07094900e-14 0.00000000e+00 7.42228981e-13 0.00000000e+00 2.07094900e-14
2.50000000e+01 7.31399705e-13 1.87620165e-14 0.00000000e+00 7.12637689e-13 0.00000000e+00 1.87620165e-14
2.75422870e+01 6.41238649e-13 1.40313526e-14 0.00000000e+00 6.27207296e-13 0.00000000e+00 1.40313526e-14
3.16227766e+01 5.17719206e-13 9.27042274e-15 0.00000000e+00 5.08448784e-13 0.00000000e+00 9.27042274e-15
3.63078055e+01 3.96450620e-13 6.12490756e-15 0.00000000e+00 3.90325713e-13 0.00000000e+00 6.12490756e-15
4.16869383e+01 2.84565016e-13 4.04668630e-15 0.00000000e+00 2.80518330e-13 0.00000000e+00 4.04668630e-15
4.78630092e+01 1.91088345e-13 2.67361912e-15 0.00000000e+00 1.88414726e-13 0.00000000e+00 2.67361912e-15
5.49540874e+01 1.21655668e-13 1.76644264e-15 0.00000000e+00 1.19889226e-13 0.00000000e+00 1.76644264e-15
6.30957344e+01 7.39892496e-14 1.16707708e-15 0.00000000e+00 7.28221725e-14 0.00000000e+00 1.16707708e-15
7.24435960e+01 4.35374103e-14 7.71080178e-16 0.00000000e+00 4.27663302e-14 0.00000000e+00 7.71080178e-16
8.31763771e+01 2.49314878e-14 5.09447621e-16 0.00000000e+00 2.44220402e-14 0.00000000e+00 5.09447621e-16
9.54992586e+01 1.40141123e-14 3.36588705e-16 0.00000000e+00 1.36775236e-14 0.00000000e+00 3.36588705e-16
1.09647820e+02 7.77458243e-15 2.22381952e-16 0.00000000e+00 7.55220047e-15 0.00000000e+00 2.22381952e-16
1.25892541e+02 4.31711003e-15 1.46926299e-16 0.00000000e+00 4.17018373e-15 0.00000000e+00 1.46926299e-16
1.44543977e+02 2.38702739e-15 9.70732430e-17 0.00000000e+00 2.28995415e-15 0.00000000e+00 9.70732430e-17
1.65958691e+02 1.26184304e-15 6.41356556e-17 0.00000000e+00 1.19770738e-15 0.00000000e+00 6.41356556e-17
1.90546072e+02 6.69360993e-16 4.23740075e-17 0.00000000e+00 6.26986985e-16 0.00000000e+00 4.23740075e-17
2.18776162e+02 3.55717062e-16 2.79962291e-17 0.00000000e+00 3.27720833e-16 0.00000000e+00 2.79962291e-17
2.51188643e+02 1.89183599e-16 1.84969251e-17 0.00000000e+00 1.70686674e-16 0.00000000e+00 1.84969251e-17
2.88403150e+02 1.00705034e-16 1.22207972e-17 0.00000000e+00 8.84842364e-17 0.00000000e+00 1.22207972e-17
3.31131121e+02 5.38116220e-17 8.07420067e-18 0.00000000e+00 4.57374213e-17 0.00000000e+00 8.07420067e-18
3.80189396e+02 2.88842047e-17 5.33457148e-18 0.00000000e+00 2.35496332e-17 0.00000000e+00 5.33457148e-18
4.36515832e+02 1.56180518e-17 3.52451642e-18 0.00000000e+00 1.20935354e-17 0.00000000e+00 3.52451642e-18
5.01187234e+02 8.52162419e-18 2.32862491e-18 0.00000000e+00 6.19299928e-18 0.00000000e+00 2.32862491e-18
5.75439937e+02 4.70240261e-18 1.53850722e-18 0.00000000e+00 3.16389539e-18 0.00000000e+00 1.53850722e-18
6.60693448e+02 2.62960150e-18 1.01648164e-18 0.00000000e+00 1.61311986e-18 0.00000000e+00 1.01648164e-18
7.58577575e+02 1.49256763e-18 6.71582760e-19 0.00000000e+00 8.20984871e-19 0.00000000e+00 6.71582760e-19
8.70963590e+02 8.60796972e-19 4.43710329e-19 0.00000000e+00 4.17086643e-19 0.00000000e+00 4.43710329e-19
1.00000000e+03 2.11532936e-19 0.00000000e+00 0.00000000e+00 2.11532936e-19 0.00000000e+00 0.00000000e+00
