# column 1: lambda (micron)
# column 2: total flux; lambda*F_lambda (W/m2)
# column 3: direct stellar flux; lambda*F_lambda (W/m2)
# column 4: scattered stellar flux; lambda*F_lambda (W/m2)
# column 5: total dust emission flux; lambda*F_lambda (W/m2)
# column 6: dust emission scattered flux; lambda*F_lambda (W/m2)
# column 7: transparent flux; lambda*F_lambda (W/m2)
1.00000000e-03 1.07296305e-12 1.07295583e-12 7.21860840e-18 0.00000000e+00 0.00000000e+00 1.07335627e-12
1.14815362e-03 1.26629075e-12 1.26628016e-12 1.05940809e-17 0.00000000e+00 0.00000000e+00 1.26690456e-12
1.31825674e-03 1.49443248e-12 1.49441663e-12 1.58510319e-17 0.00000000e+00 0.00000000e+00 1.49535359e-12
1.51356125e-03 1.76371735e-12 1.76369293e-12 2.44160257e-17 0.00000000e+00 0.00000000e+00 1.76499670e-12
1.73780083e-03 2.08174997e-12 2.08170727e-12 4.27022104e-17 0.00000000e+00 0.00000000e+00 2.08326203e-12
1.99526231e-03 2.45656039e-12 2.45648441e-12 7.59827357e-17 0.00000000e+00 0.00000000e+00 2.45891716e-12
2.29086765e-03 2.89938286e-12 2.89926582e-12 1.17038111e-16 0.00000000e+00 0.00000000e+00 2.90231066e-12
2.63026799e-03 3.42158517e-12 3.42135086e-12 2.34314622e-16 0.00000000e+00 0.00000000e+00 3.42565717e-12
3.01995172e-03 4.03746987e-12 4.03708842e-12 3.81445863e-16 0.00000000e+00 0.00000000e+00 4.04337385e-12
3.46736850e-03 4.76436941e-12 4.76373447e-12 6.34941335e-16 0.00000000e+00 0.00000000e+00 4.77247759e-12
3.98107171e-03 5.62228724e-12 5.62124280e-12 1.04444291e-15 0.00000000e+00 0.00000000e+00 5.63305378e-12
4.57088190e-03 6.64190830e-12 6.63950724e-12 2.40105778e-15 0.00000000e+00 0.00000000e+00 6.64880962e-12
5.24807460e-03 7.84342935e-12 7.83370612e-12 9.72322844e-15 0.00000000e+00 0.00000000e+00 7.84772720e-12
6.02559586e-03 9.26023705e-12 9.24288365e-12 1.73533994e-14 0.00000000e+00 0.00000000e+00 9.26283435e-12
6.91830971e-03 1.09221110e-11 1.09059413e-11 1.61696913e-14 0.00000000e+00 0.00000000e+00 1.09331145e-11
7.94328235e-03 1.28984889e-11 1.28688030e-11 2.96858743e-14 2.43193828e-303 1.18283766e-305 1.29045807e-11
9.12010839e-03 1.52440374e-11 1.51846885e-11 5.93489650e-14 1.06206457e-264 5.55733163e-267 1.52315429e-11
1.04712855e-02 1.70196578e-11 1.69558854e-11 6.37724558e-14 4.47503268e-231 2.62970836e-233 1.70115517e-11
1.20226443e-02 1.70473950e-11 1.69526058e-11 9.47892037e-14 7.00321885e-202 6.05100537e-204 1.70115517e-11
1.38038426e-02 1.70833226e-11 1.69487166e-11 1.34605983e-13 1.91399082e-176 2.88100975e-178 1.70115517e-11
1.58489319e-02 1.71073320e-11 1.69439383e-11 1.63393682e-13 2.58208984e-154 4.01366916e-156 1.70115517e-11
1.81970086e-02 1.71523483e-11 1.69395324e-11 2.12815901e-13 4.62331062e-135 1.02594741e-136 1.70115517e-11
2.08929613e-02 1.72187362e-11 1.69358710e-11 2.82865192e-13 2.42395339e-118 6.99484353e-120 1.70115517e-11
2.39883292e-02 1.73183436e-11 1.69311283e-11 3.87215270e-13 8.56030678e-104 3.28494561e-105 1.70115517e-11
2.75422870e-02 1.74146275e-11 1.69256133e-11 4.89014139e-13 3.84775637e-91 1.75940833e-92 1.70115517e-11
3.16227766e-02 1.74940231e-11 1.69202092e-11 5.73813882e-13 3.77474014e-80 2.07167649e-81 1.70115517e-11
3.63078055e-02 1.75523030e-11 1.69159717e-11 6.36331320e-13 1.31560112e-70 8.21988201e-72 1.70115517e-11
4.16869383e-02 1.76900804e-11 1.69123074e-11 7.77772931e-13 2.52164835e-62 1.89597690e-63 1.70115517e-11
4.78630092e-02 1.77974692e-11 1.69022111e-11 8.95258170e-13 3.83647392e-55 3.36653383e-56 1.70115517e-11
5.49540874e-02 1.78015089e-11 1.68881802e-11 9.13328777e-13 6.37904306e-49 5.97722609e-50 1.70115517e-11
6.30957344e-02 1.76836507e-11 1.68530489e-11 8.30601867e-13 2.04817549e-43 1.91664831e-44 1.70115517e-11
7.24435960e-02 1.74606374e-11 1.68115299e-11 6.49107491e-13 1.17118316e-38 9.44619677e-40 1.70115517e-11
8.31763771e-02 1.74313766e-11 1.68152204e-11 6.16156271e-13 1.19699830e-34 9.47635167e-36 1.70115517e-11
9.54992586e-02 1.74556661e-11 1.68260489e-11 6.29617240e-13 3.37161917e-31 2.73486338e-32 1.70115517e-11
1.09647820e-01 1.68151360e-11 1.60986052e-11 7.16530822e-13 2.87551242e-28 2.59712102e-29 1.62459122e-11
1.25892541e-01 1.58013878e-11 1.50483134e-11 7.53074340e-13 9.37025761e-26 8.96533778e-27 1.51615674e-11
1.44543977e-01 1.47677867e-11 1.40619364e-11 7.05850292e-13 1.27623068e-23 1.21880505e-24 1.41495980e-11
1.65958691e-01 1.38397394e-11 1.31335979e-11 7.06141527e-13 6.47821352e-22 6.68729770e-23 1.32051732e-11
1.90546072e-01 1.29572698e-11 1.22525342e-11 7.04735509e-13 1.36667805e-20 1.56738207e-21 1.23237846e-11
2.18776162e-01 1.19947051e-11 1.14232638e-11 5.71441136e-13 1.60519825e-19 1.77197133e-20 1.15012250e-11
2.51188643e-01 1.13012823e-11 1.06753409e-11 6.25939365e-13 1.95869393e-18 2.57017318e-19 1.07335677e-11
2.88403150e-01 1.05806905e-11 9.97201187e-12 6.08662390e-13 1.62866908e-17 2.11683565e-18 1.00171482e-11
3.31131121e-01 9.87502363e-12 9.31181588e-12 5.63114386e-13 9.33678008e-17 1.20172957e-17 9.34854667e-12
3.80189396e-01 9.21910727e-12 8.69446182e-12 5.24257465e-13 3.87987935e-16 4.82994079e-17 8.72457139e-12
4.36515832e-01 8.60033345e-12 8.11778255e-12 4.81320855e-13 1.23003976e-15 1.51485796e-16 8.14224377e-12
5.01187234e-01 8.00809675e-12 7.57918064e-12 4.25802753e-13 3.11336090e-15 3.87553090e-16 7.59878402e-12
5.75439937e-01 7.45779012e-12 7.07604983e-12 3.74895158e-13 6.84513560e-15 9.30110338e-16 7.09159786e-12
6.60693448e-01 6.94627716e-12 6.60603945e-12 3.25629269e-13 1.46084448e-14 2.45168312e-15 6.61826421e-12
7.58577575e-01 6.47986458e-12 6.16702868e-12 2.79573659e-13 3.32622403e-14 6.80350082e-15 6.17652353e-12
8.70963590e-01 6.07538214e-12 5.75705602e-12 2.35962426e-13 8.23636955e-14 1.94897604e-14 5.76426715e-12
1.00000000e+00 5.76892514e-12 5.37413895e-12 1.93617816e-13 2.01168369e-13 4.75672933e-14 5.37952711e-12
1.14815362e+00 5.63751741e-12 5.01651237e-12 1.55437256e-13 4.65567786e-13 1.02834493e-13 5.02046681e-12
1.31825674e+00 5.78880435e-12 4.68252049e-12 1.22128712e-13 9.84155144e-13 1.93312595e-13 4.68537225e-12
1.51356125e+00 6.33533236e-12 4.37060805e-12 9.68467813e-14 1.86787753e-12 3.19500734e-13 4.37264380e-12
1.73780083e+00 7.32352676e-12 4.07935905e-12 7.60565922e-14 3.16811112e-12 4.61626807e-13 4.08078863e-12
1.99526231e+00 8.72682389e-12 3.80742538e-12 5.84806349e-14 4.86091787e-12 5.88158995e-13 3.80841354e-12
2.29086765e+00 1.03982788e-11 3.55353741e-12 4.51271200e-14 6.79961424e-12 6.63807700e-13 3.55421832e-12
2.63026799e+00 1.22219144e-11 3.31651595e-12 3.36399772e-14 8.87175846e-12 6.85007159e-13 3.31698953e-12
3.01995172e+00 1.39747094e-11 3.09526112e-12 2.48272864e-14 1.08546210e-11 6.60188478e-13 3.09559474e-12
3.46736850e+00 1.55216411e-11 2.88873825e-12 1.78196521e-14 1.26150832e-11 5.83487815e-13 2.88897711e-12
3.98107171e+00 1.69390122e-11 2.69597712e-12 1.24706836e-14 1.42305644e-11 4.83872705e-13 2.69615031e-12
4.57088190e+00 1.78880537e-11 2.51606658e-12 8.34008424e-15 1.53636470e-11 3.71996961e-13 2.51619387e-12
5.24807460e+00 1.82910262e-11 2.08042211e-12 4.78872050e-15 1.62058154e-11 2.63357100e-13 2.08050667e-12
6.02559586e+00 1.79555594e-11 1.37453070e-12 2.09935334e-15 1.65789294e-11 1.74570665e-13 1.37457712e-12
6.70000000e+00 1.75672905e-11 9.99842795e-13 1.07561200e-15 1.65663721e-11 1.20353886e-13 9.99872685e-13
6.92422916e+00 1.74010519e-11 9.05820793e-13 8.65009582e-16 1.64943661e-11 1.05973462e-13 9.05846924e-13
7.15596261e+00 1.72922689e-11 8.20639872e-13 6.81635567e-16 1.64709474e-11 9.21206408e-14 8.20663132e-13
7.39545150e+00 1.72714049e-11 7.43468256e-13 5.22852361e-16 1.65274138e-11 7.86984243e-14 7.43489831e-13
7.64295536e+00 1.75538708e-11 6.73551462e-13 3.61320765e-16 1.68799580e-11 6.42191189e-14 6.73573732e-13
7.89874245e+00 1.83455824e-11 6.10206317e-13 2.18829390e-16 1.77351572e-11 4.87551174e-14 6.10232385e-13
8.16308998e+00 1.92732339e-11 5.52815626e-13 1.22074739e-16 1.87202962e-11 3.58847461e-14 5.52847515e-13
8.43628443e+00 2.03179593e-11 5.00818850e-13 6.35694328e-17 1.98170768e-11 2.53604551e-14 5.00858987e-13
8.71862190e+00 2.09270126e-11 4.53714663e-13 3.75073254e-17 2.04732604e-11 1.88963947e-14 4.53759343e-13
9.01040836e+00 2.16721879e-11 4.11039808e-13 2.04367327e-17 2.12611276e-11 1.37328730e-14 4.11088843e-13
9.31196005e+00 2.17878499e-11 3.72379456e-13 0.00000000e+00 2.14154704e-11 0.00000000e+00 3.72430980e-13
9.62360379e+00 2.17250954e-11 3.37360506e-13 0.00000000e+00 2.13877349e-11 0.00000000e+00 3.37408415e-13
9.94567731e+00 2.09379002e-11 3.05638566e-13 0.00000000e+00 2.06322617e-11 0.00000000e+00 3.05679292e-13
1.02785297e+01 2.07039978e-11 2.76900526e-13 0.00000000e+00 2.04270973e-11 0.00000000e+00 2.76933904e-13
1.06225216e+01 2.00196864e-11 2.50864604e-13 0.00000000e+00 1.97688218e-11 0.00000000e+00 2.50891667e-13
1.09780260e+01 1.94317166e-11 2.27277232e-13 0.00000000e+00 1.92044394e-11 0.00000000e+00 2.27298384e-13
1.13454280e+01 1.88475938e-11 2.05907161e-13 0.00000000e+00 1.86416866e-11 0.00000000e+00 2.05923759e-13
1.17251259e+01 1.82770729e-11 1.86546047e-13 0.00000000e+00 1.80905269e-11 0.00000000e+00 1.86559155e-13
1.21175312e+01 1.76068118e-11 1.69005256e-13 0.00000000e+00 1.74378066e-11 0.00000000e+00 1.69015555e-13
1.25230691e+01 1.69466332e-11 1.53113646e-13 0.00000000e+00 1.67935195e-11 0.00000000e+00 1.53121715e-13
1.29421791e+01 1.62458498e-11 1.38716129e-13 0.00000000e+00 1.61071337e-11 0.00000000e+00 1.38722496e-13
1.33753155e+01 1.55328090e-11 1.25672287e-13 0.00000000e+00 1.54071367e-11 0.00000000e+00 1.25677347e-13
1.38229477e+01 1.49255260e-11 1.13854728e-13 0.00000000e+00 1.48116713e-11 0.00000000e+00 1.13858934e-13
1.42855609e+01 1.45007060e-11 1.03148242e-13 0.00000000e+00 1.43975578e-11 0.00000000e+00 1.03151898e-13
1.47636563e+01 1.45062970e-11 9.34482577e-14 0.00000000e+00 1.44128487e-11 0.00000000e+00 9.34517274e-14
1.52577522e+01 1.44629972e-11 8.46603862e-14 0.00000000e+00 1.43783368e-11 0.00000000e+00 8.46637387e-14
1.57683840e+01 1.44596295e-11 7.66988717e-14 0.00000000e+00 1.43829307e-11 0.00000000e+00 7.67021526e-14
1.62961051e+01 1.44995689e-11 6.94860491e-14 0.00000000e+00 1.44300828e-11 0.00000000e+00 6.94892560e-14
1.68414875e+01 1.43988975e-11 6.29515163e-14 0.00000000e+00 1.43359460e-11 0.00000000e+00 6.29546439e-14
1.74051222e+01 1.41630689e-11 5.70315619e-14 0.00000000e+00 1.41060374e-11 0.00000000e+00 5.70345319e-14
1.79876201e+01 1.40873466e-11 5.16683607e-14 0.00000000e+00 1.40356783e-11 0.00000000e+00 5.16711337e-14
1.85896125e+01 1.36991369e-11 4.68095884e-14 0.00000000e+00 1.36523273e-11 0.00000000e+00 4.68120974e-14
1.92117518e+01 1.32064003e-11 4.24077900e-14 0.00000000e+00 1.31639925e-11 0.00000000e+00 4.24099939e-14
1.98547123e+01 1.26566874e-11 3.84199561e-14 0.00000000e+00 1.26182675e-11 0.00000000e+00 3.84218542e-14
2.05191907e+01 1.20823761e-11 3.48071319e-14 0.00000000e+00 1.20475690e-11 0.00000000e+00 3.48087501e-14
2.12059073e+01 1.15185919e-11 3.15340348e-14 0.00000000e+00 1.14870579e-11 0.00000000e+00 3.15354141e-14
2.19156062e+01 1.09389510e-11 2.85687138e-14 0.00000000e+00 1.09103823e-11 0.00000000e+00 2.85698952e-14
2.26490567e+01 1.04194758e-11 2.58822334e-14 0.00000000e+00 1.03935935e-11 0.00000000e+00 2.58832470e-14
2.34070535e+01 9.85980531e-12 2.34483739e-14 0.00000000e+00 9.83635694e-12 0.00000000e+00 2.34492452e-14
2.41904183e+01 9.34688309e-12 2.12433806e-14 0.00000000e+00 9.32563971e-12 0.00000000e+00 2.12441313e-14
2.50000000e+01 8.81733935e-12 1.92457330e-14 0.00000000e+00 8.79809361e-12 0.00000000e+00 1.92463813e-14
2.75422870e+01 7.33579883e-12 1.43931667e-14 0.00000000e+00 7.32140567e-12 0.00000000e+00 1.43935895e-14
3.16227766e+01 5.47999604e-12 9.50951799e-15 0.00000000e+00 5.47048653e-12 0.00000000e+00 9.50975027e-15
3.63078055e+01 3.87285318e-12 6.28290275e-15 0.00000000e+00 3.86657028e-12 0.00000000e+00 6.28302969e-15
4.16869383e+01 2.58527767e-12 4.15108901e-15 0.00000000e+00 2.58112658e-12 0.00000000e+00 4.15115655e-15
4.78630092e+01 1.62199786e-12 2.74260712e-15 0.00000000e+00 1.61925525e-12 0.00000000e+00 2.74264194e-15
5.49540874e+01 9.68310866e-13 1.81202799e-15 0.00000000e+00 9.66498838e-13 0.00000000e+00 1.81204556e-15
6.30957344e+01 5.55272452e-13 1.19719788e-15 0.00000000e+00 5.54075254e-13 0.00000000e+00 1.19720663e-15
7.24435960e+01 3.09044971e-13 7.90982246e-16 0.00000000e+00 3.08253989e-13 0.00000000e+00 7.90986575e-16
8.31763771e+01 1.68097295e-13 5.22597510e-16 0.00000000e+00 1.67574697e-13 0.00000000e+00 5.22599647e-16
9.54992586e+01 9.01439348e-14 3.45277105e-16 0.00000000e+00 8.97986577e-14 0.00000000e+00 3.45278163e-16
1.09647820e+02 4.78638876e-14 2.28122495e-16 0.00000000e+00 4.76357651e-14 0.00000000e+00 2.28123020e-16
1.25892541e+02 2.55356490e-14 1.50719120e-16 0.00000000e+00 2.53849299e-14 0.00000000e+00 1.50719385e-16
1.44543977e+02 1.36140629e-14 9.95791754e-17 0.00000000e+00 1.35144838e-14 0.00000000e+00 9.95793099e-17
1.65958691e+02 6.94157903e-15 6.57913317e-17 0.00000000e+00 6.87578770e-15 0.00000000e+00 6.57913976e-17
1.90546072e+02 3.55670296e-15 4.34679127e-17 0.00000000e+00 3.51323505e-15 0.00000000e+00 4.34679453e-17
2.18776162e+02 1.82628065e-15 2.87189704e-17 0.00000000e+00 1.79756168e-15 0.00000000e+00 2.87189867e-17
2.51188643e+02 9.38079864e-16 1.89744382e-17 0.00000000e+00 9.19105426e-16 0.00000000e+00 1.89744463e-17
2.88403150e+02 4.81408976e-16 1.25362883e-17 0.00000000e+00 4.68872688e-16 0.00000000e+00 1.25362924e-17
3.31131121e+02 2.47260287e-16 8.28264419e-18 0.00000000e+00 2.38977643e-16 0.00000000e+00 8.28264623e-18
3.80189396e+02 1.27031011e-16 5.47228908e-18 0.00000000e+00 1.21558722e-16 0.00000000e+00 5.47229010e-18
4.36515832e+02 6.53840380e-17 3.61550570e-18 0.00000000e+00 6.17685323e-17 0.00000000e+00 3.61550621e-18
5.01187234e+02 3.37295733e-17 2.38874101e-18 0.00000000e+00 3.13408323e-17 0.00000000e+00 2.38874127e-18
5.75439937e+02 1.74624543e-17 1.57822557e-18 0.00000000e+00 1.58842287e-17 0.00000000e+00 1.57822570e-18
6.60693448e+02 9.08518107e-18 1.04272332e-18 0.00000000e+00 8.04245775e-18 0.00000000e+00 1.04272338e-18
7.58577575e+02 4.75745709e-18 6.88920474e-19 0.00000000e+00 4.06853662e-18 0.00000000e+00 6.88920507e-19
8.70963590e+02 2.51127205e-18 4.55165248e-19 0.00000000e+00 2.05610680e-18 0.00000000e+00 4.55165265e-19
1.00000000e+03 1.03805357e-18 0.00000000e+00 0.00000000e+00 1.03805357e-18 0.00000000e+00 0.00000000e+00
