# column 1: lambda (micron)
# column 2: total flux; lambda*F_lambda (W/m2)
# column 3: direct stellar flux; lambda*F_lambda (W/m2)
# column 4: scattered stellar flux; lambda*F_lambda (W/m2)
# column 5: total dust emission flux; lambda*F_lambda (W/m2)
# column 6: dust emission scattered flux; lambda*F_lambda (W/m2)
# column 7: transparent flux; lambda*F_lambda (W/m2)
1.00000000e-03 8.46529525e-13 8.46529401e-13 1.23698722e-19 0.00000000e+00 0.00000000e+00 8.46529401e-13
1.14815362e-03 9.99176321e-13 9.99176121e-13 2.00714337e-19 0.00000000e+00 0.00000000e+00 9.99176121e-13
1.31825674e-03 1.17934849e-12 1.17934819e-12 3.00068721e-19 0.00000000e+00 0.00000000e+00 1.17934819e-12
1.51356125e-03 1.39200951e-12 1.39200901e-12 5.01288120e-19 0.00000000e+00 0.00000000e+00 1.39200901e-12
1.73780083e-03 1.64301784e-12 1.64301696e-12 8.78454110e-19 0.00000000e+00 0.00000000e+00 1.64301696e-12
1.99526231e-03 1.93928850e-12 1.93928682e-12 1.67650305e-18 0.00000000e+00 0.00000000e+00 1.93928682e-12
2.29086765e-03 2.28898292e-12 2.28898025e-12 2.66756959e-18 0.00000000e+00 0.00000000e+00 2.28898025e-12
2.63026799e-03 2.70173586e-12 2.70173063e-12 5.22669515e-18 0.00000000e+00 0.00000000e+00 2.70173063e-12
3.01995172e-03 3.18891745e-12 3.18890841e-12 9.03772928e-18 0.00000000e+00 0.00000000e+00 3.18890841e-12
3.46736850e-03 3.76394993e-12 3.76393440e-12 1.55274992e-17 0.00000000e+00 0.00000000e+00 3.76393440e-12
3.98107171e-03 4.44267360e-12 4.44264945e-12 2.41556382e-17 0.00000000e+00 0.00000000e+00 4.44264945e-12
4.57088190e-03 5.24380270e-12 5.24375082e-12 5.18772694e-17 0.00000000e+00 0.00000000e+00 5.24375082e-12
5.24807460e-03 6.18940672e-12 6.18930730e-12 9.94158328e-17 0.00000000e+00 0.00000000e+00 6.18930730e-12
6.02559586e-03 7.30554130e-12 7.30536713e-12 1.74166405e-16 0.00000000e+00 0.00000000e+00 7.30536713e-12
6.91830971e-03 8.62296047e-12 8.62267558e-12 2.84899419e-16 0.00000000e+00 0.00000000e+00 8.62267558e-12
7.94328235e-03 1.01780064e-11 1.01775219e-11 4.84513238e-16 0.00000000e+00 0.00000000e+00 1.01775219e-11
9.12010839e-03 1.20135375e-11 1.20127391e-11 7.98351423e-16 0.00000000e+00 0.00000000e+00 1.20127391e-11
1.04712855e-02 1.34176577e-11 1.34165878e-11 1.06986096e-15 0.00000000e+00 0.00000000e+00 1.34165878e-11
1.20226443e-02 1.34182805e-11 1.34165878e-11 1.69262156e-15 0.00000000e+00 0.00000000e+00 1.34165878e-11
1.38038426e-02 1.34188353e-11 1.34165878e-11 2.24749275e-15 3.97598146e-289 7.83871714e-291 1.34165878e-11
1.58489319e-02 1.34195514e-11 1.34165878e-11 2.96358278e-15 2.10538264e-252 6.19109596e-254 1.34165878e-11
1.81970086e-02 1.34218083e-11 1.34165878e-11 5.22047841e-15 1.93206502e-220 7.35962013e-222 1.34165878e-11
2.08929613e-02 1.34225205e-11 1.34165878e-11 5.93263539e-15 1.18035931e-192 4.40996549e-194 1.34165878e-11
2.39883292e-02 1.34246969e-11 1.34165878e-11 8.10906643e-15 1.81680248e-168 7.17329108e-170 1.34165878e-11
2.75422870e-02 1.34278370e-11 1.34165878e-11 1.12491368e-14 2.04185989e-147 9.26476420e-149 1.34165878e-11
3.16227766e-02 1.34308490e-11 1.34165878e-11 1.42611987e-14 4.12179440e-129 2.07059479e-130 1.34165878e-11
3.63078055e-02 1.34341664e-11 1.34165878e-11 1.75785780e-14 3.37144464e-113 1.79399066e-114 1.34165878e-11
4.16869383e-02 1.34408241e-11 1.34165878e-11 2.42362693e-14 2.28901698e-99 1.44793555e-100 1.34165878e-11
4.78630092e-02 1.34507034e-11 1.34165878e-11 3.41155391e-14 2.37148397e-87 1.78905388e-88 1.34165878e-11
5.49540874e-02 1.34580830e-11 1.34165878e-11 4.14951466e-14 6.40121743e-77 5.48537189e-78 1.34165878e-11
6.30957344e-02 1.34695393e-11 1.34165878e-11 5.29514736e-14 9.50098068e-68 9.04239201e-69 1.34165878e-11
7.24435960e-02 1.34676683e-11 1.34165878e-11 5.10804531e-14 8.43765386e-60 7.61881234e-61 1.34165878e-11
8.31763771e-02 1.34645469e-11 1.34165878e-11 4.79590569e-14 5.23216077e-53 4.62864851e-54 1.34165878e-11
9.54992586e-02 1.34670791e-11 1.34165878e-11 5.04912689e-14 3.94266107e-47 3.56721191e-48 1.34165878e-11
1.09647820e-01 1.28666057e-11 1.28127470e-11 5.38587687e-14 4.40707286e-42 4.35279624e-43 1.28127470e-11
1.25892541e-01 1.20066325e-11 1.19575512e-11 4.90813218e-14 9.98738004e-38 9.59992970e-39 1.19575512e-11
1.44543977e-01 1.12019816e-11 1.11594361e-11 4.25455480e-14 5.48838608e-34 5.07672256e-35 1.11594361e-11
1.65958691e-01 1.04593498e-11 1.04145917e-11 4.47580941e-14 6.97268551e-31 6.91160437e-32 1.04145917e-11
1.90546072e-01 9.77240913e-12 9.71946251e-12 5.29466191e-14 2.42724215e-28 2.83547370e-29 9.71946251e-12
2.18776162e-01 9.12220054e-12 9.07073019e-12 5.14703505e-14 3.29188520e-26 4.06773518e-27 9.07073019e-12
2.51188643e-01 8.52595100e-12 8.46529796e-12 6.06530335e-14 3.47410488e-24 5.11577231e-25 8.46529796e-12
2.88403150e-01 7.95616085e-12 7.90027573e-12 5.58851129e-14 1.92389910e-22 2.81631896e-23 7.90027573e-12
3.31131121e-01 7.42198090e-12 7.37296631e-12 4.90145914e-14 5.97956613e-21 8.71575893e-22 7.37296631e-12
3.80189396e-01 6.92649641e-12 6.88085251e-12 4.56437858e-14 1.14910555e-19 1.68992065e-20 6.88085251e-12
4.36515832e-01 6.46359495e-12 6.42158520e-12 4.20082602e-14 1.48358137e-18 2.26562707e-19 6.42158520e-12
5.01187234e-01 6.03127482e-12 5.99297201e-12 3.82893444e-14 1.34681866e-17 2.09982188e-18 5.99297201e-12
5.75439937e-01 5.62786091e-12 5.59296690e-12 3.48040575e-14 8.99491371e-17 1.39918420e-17 5.59296690e-12
6.60693448e-01 5.25270984e-12 5.21966041e-12 3.25934408e-14 4.55987656e-16 7.03275516e-17 5.21966041e-12
7.58577575e-01 4.90324668e-12 4.87127053e-12 3.01520902e-14 1.82405765e-15 2.71466543e-16 4.87127053e-12
8.70963590e-01 4.57768224e-12 4.54613417e-12 2.56079025e-14 5.94016665e-15 8.30864147e-16 4.54613417e-12
1.00000000e+00 4.28045295e-12 4.24269927e-12 2.17180790e-14 1.60356060e-14 2.07304611e-15 4.24269927e-12
1.14815362e+00 4.01569697e-12 3.95951734e-12 1.85705609e-14 3.76090697e-14 4.33633293e-15 3.95951734e-12
1.31825674e+00 3.78857831e-12 3.69523659e-12 1.53399572e-14 7.80017641e-14 7.83641666e-15 3.69523659e-12
1.51356125e+00 3.60252129e-12 3.44859544e-12 1.08819968e-14 1.43043857e-13 1.21504756e-14 3.44859544e-12
1.73780083e+00 3.45855102e-12 3.21841652e-12 8.45338832e-15 2.31681109e-13 1.63061911e-14 3.21841652e-12
1.99526231e+00 3.34263777e-12 3.00360106e-12 5.86841182e-15 3.33168292e-13 1.84283993e-14 3.00360106e-12
2.29086765e+00 3.23986755e-12 2.80312361e-12 4.12226525e-15 4.32621681e-13 1.82252468e-14 2.80312361e-12
2.63026799e+00 3.12968610e-12 2.61602716e-12 2.71099678e-15 5.10947935e-13 1.60069627e-14 2.61602716e-12
3.01995172e+00 3.00323203e-12 2.44141860e-12 1.75253564e-15 5.60060898e-13 1.30112613e-14 2.44141860e-12
3.46736850e+00 2.85521323e-12 2.27846441e-12 1.19924422e-15 5.75549573e-13 9.65595326e-15 2.27846441e-12
3.98107171e+00 2.68349820e-12 2.12638671e-12 7.60108172e-16 5.56351386e-13 6.61972707e-15 2.12638671e-12
4.57088190e+00 2.49912947e-12 1.98445954e-12 4.79655471e-16 5.14190270e-13 4.21518553e-15 1.98445954e-12
5.24807460e+00 2.10111066e-12 1.64084388e-12 2.63277180e-16 4.60003505e-13 2.58762942e-15 1.64084388e-12
6.02559586e+00 1.48885884e-12 1.08409480e-12 1.10890307e-16 4.04653151e-13 1.47501734e-15 1.08409480e-12
6.70000000e+00 1.15192209e-12 7.88574724e-13 5.66030915e-17 3.63290767e-13 9.05107535e-16 7.88574724e-13
6.92422916e+00 1.06469103e-12 7.14418944e-13 4.47874995e-17 3.50227294e-13 7.76840938e-16 7.14418944e-13
7.15596261e+00 9.88806644e-13 6.47236606e-13 3.50307058e-17 3.41535007e-13 6.65719531e-16 6.47236606e-13
7.39545150e+00 9.29573282e-13 5.86371942e-13 2.59790338e-17 3.43175360e-13 5.64715127e-16 5.86371942e-13
7.64295536e+00 9.04152759e-13 5.31230854e-13 1.90040311e-17 3.72902901e-13 4.77202707e-16 5.31230854e-13
7.89874245e+00 9.27439573e-13 4.81275108e-13 1.22082724e-17 4.46152257e-13 4.00925245e-16 4.81275108e-13
8.16308998e+00 9.89475585e-13 4.36017088e-13 7.29753476e-18 5.53451200e-13 3.34829542e-16 4.36017088e-13
8.43628443e+00 1.09767920e-12 3.95015029e-13 4.23412948e-18 7.02659935e-13 2.70452718e-16 3.95015029e-13
8.71862190e+00 1.16662374e-12 3.57868711e-13 2.65729773e-18 8.08752372e-13 2.18483517e-16 3.57868711e-13
9.01040836e+00 1.23952263e-12 3.24215549e-13 1.79372334e-18 9.15305285e-13 1.67140412e-16 3.24215549e-13
9.31196005e+00 1.29298482e-12 2.93727053e-13 0.00000000e+00 9.99257763e-13 0.00000000e+00 2.93727053e-13
9.62360379e+00 1.25650306e-12 2.66105627e-13 0.00000000e+00 9.90397435e-13 0.00000000e+00 2.66105627e-13
9.94567731e+00 1.15133818e-12 2.41081657e-13 0.00000000e+00 9.10256520e-13 0.00000000e+00 2.41081657e-13
1.02785297e+01 1.03479577e-12 2.18410884e-13 0.00000000e+00 8.16384887e-13 0.00000000e+00 2.18410884e-13
1.06225216e+01 9.23875073e-13 1.97872020e-13 0.00000000e+00 7.26003054e-13 0.00000000e+00 1.97872020e-13
1.09780260e+01 8.07660260e-13 1.79264583e-13 0.00000000e+00 6.28395676e-13 0.00000000e+00 1.79264583e-13
1.13454280e+01 7.08309167e-13 1.62406948e-13 0.00000000e+00 5.45902219e-13 0.00000000e+00 1.62406948e-13
1.17251259e+01 6.24137502e-13 1.47134567e-13 0.00000000e+00 4.77002935e-13 0.00000000e+00 1.47134567e-13
1.21175312e+01 5.48671124e-13 1.33298366e-13 0.00000000e+00 4.15372758e-13 0.00000000e+00 1.33298366e-13
1.25230691e+01 4.83540538e-13 1.20763289e-13 0.00000000e+00 3.62777249e-13 0.00000000e+00 1.20763289e-13
1.29421791e+01 4.28128461e-13 1.09406983e-13 0.00000000e+00 3.18721478e-13 0.00000000e+00 1.09406983e-13
1.33753155e+01 3.81280480e-13 9.91185987e-14 0.00000000e+00 2.82161881e-13 0.00000000e+00 9.91185987e-14
1.38229477e+01 3.48548626e-13 8.97977103e-14 0.00000000e+00 2.58750915e-13 0.00000000e+00 8.97977103e-14
1.42855609e+01 3.26237597e-13 8.13533371e-14 0.00000000e+00 2.44884260e-13 0.00000000e+00 8.13533371e-14
1.47636563e+01 3.21560536e-13 7.37030537e-14 0.00000000e+00 2.47857482e-13 0.00000000e+00 7.37030537e-14
1.52577522e+01 3.20693566e-13 6.67721855e-14 0.00000000e+00 2.53921380e-13 0.00000000e+00 6.67721855e-14
1.57683840e+01 3.23210126e-13 6.04930805e-14 0.00000000e+00 2.62717046e-13 0.00000000e+00 6.04930805e-14
1.62961051e+01 3.26133952e-13 5.48044484e-14 0.00000000e+00 2.71329503e-13 0.00000000e+00 5.48044484e-14
1.68414875e+01 3.29696812e-13 4.96507622e-14 0.00000000e+00 2.80046050e-13 0.00000000e+00 4.96507622e-14
1.74051222e+01 3.29238529e-13 4.49817171e-14 0.00000000e+00 2.84256812e-13 0.00000000e+00 4.49817171e-14
1.79876201e+01 3.24966155e-13 4.07517384e-14 0.00000000e+00 2.84214417e-13 0.00000000e+00 4.07517384e-14
1.85896125e+01 3.16719143e-13 3.69195372e-14 0.00000000e+00 2.79799606e-13 0.00000000e+00 3.69195372e-14
1.92117518e+01 3.02642868e-13 3.34477076e-14 0.00000000e+00 2.69195160e-13 0.00000000e+00 3.34477076e-14
1.98547123e+01 2.86914065e-13 3.03023610e-14 0.00000000e+00 2.56611704e-13 0.00000000e+00 3.03023610e-14
2.05191907e+01 2.70213567e-13 2.74527957e-14 0.00000000e+00 2.42760771e-13 0.00000000e+00 2.74527957e-14
2.12059073e+01 2.55284472e-13 2.48711970e-14 0.00000000e+00 2.30413275e-13 0.00000000e+00 2.48711970e-14
2.19156062e+01 2.42103784e-13 2.25323660e-14 0.00000000e+00 2.19571418e-13 0.00000000e+00 2.25323660e-14
2.26490567e+01 2.30257079e-13 2.04134733e-14 0.00000000e+00 2.09843606e-13 0.00000000e+00 2.04134733e-14
2.34070535e+01 2.19461385e-13 1.84938366e-14 0.00000000e+00 2.00967549e-13 0.00000000e+00 1.84938366e-14
2.41904183e+01 2.10039351e-13 1.67547181e-14 0.00000000e+00 1.93284633e-13 0.00000000e+00 1.67547181e-14
2.50000000e+01 2.00882556e-13 1.51791424e-14 0.00000000e+00 1.85703414e-13 0.00000000e+00 1.51791424e-14
2.75422870e+01 1.78281891e-13 1.13518661e-14 0.00000000e+00 1.66930025e-13 0.00000000e+00 1.13518661e-14
3.16227766e+01 1.50686951e-13 7.50010357e-15 0.00000000e+00 1.43186847e-13 0.00000000e+00 7.50010357e-15
3.63078055e+01 1.24571180e-13 4.95526929e-15 0.00000000e+00 1.19615911e-13 0.00000000e+00 4.95526929e-15
4.16869383e+01 9.87348568e-14 3.27391395e-15 0.00000000e+00 9.54609429e-14 0.00000000e+00 3.27391395e-15
4.78630092e+01 7.43113711e-14 2.16305350e-15 0.00000000e+00 7.21483176e-14 0.00000000e+00 2.16305350e-15
5.49540874e+01 5.35126832e-14 1.42911527e-15 0.00000000e+00 5.20835679e-14 0.00000000e+00 1.42911527e-15
6.30957344e+01 3.70150919e-14 9.44207098e-16 0.00000000e+00 3.60708848e-14 0.00000000e+00 9.44207098e-16
7.24435960e+01 2.46996172e-14 6.23831443e-16 0.00000000e+00 2.40757857e-14 0.00000000e+00 6.23831443e-16
8.31763771e+01 1.59640026e-14 4.12161347e-16 0.00000000e+00 1.55518413e-14 0.00000000e+00 4.12161347e-16
9.54992586e+01 1.00404958e-14 2.72312302e-16 0.00000000e+00 9.76818351e-15 0.00000000e+00 2.72312302e-16
1.09647820e+02 6.16487216e-15 1.79914953e-16 0.00000000e+00 5.98495721e-15 0.00000000e+00 1.79914953e-16
1.25892541e+02 3.74403455e-15 1.18868631e-16 0.00000000e+00 3.62516592e-15 0.00000000e+00 1.18868631e-16
1.44543977e+02 2.23835695e-15 7.85357256e-17 0.00000000e+00 2.15982123e-15 0.00000000e+00 7.85357256e-17
1.65958691e+02 1.26696657e-15 5.18880394e-17 0.00000000e+00 1.21507853e-15 0.00000000e+00 5.18880394e-17
1.90546072e+02 7.11919375e-16 3.42820876e-17 0.00000000e+00 6.77637288e-16 0.00000000e+00 3.42820876e-17
2.18776162e+02 3.96756629e-16 2.26499507e-17 0.00000000e+00 3.74106678e-16 0.00000000e+00 2.26499507e-17
2.51188643e+02 2.19241670e-16 1.49646740e-17 0.00000000e+00 2.04276996e-16 0.00000000e+00 1.49646740e-17
2.88403150e+02 1.20179052e-16 9.88706207e-18 0.00000000e+00 1.10291989e-16 0.00000000e+00 9.88706207e-18
3.31131121e+02 6.55785794e-17 6.53231713e-18 0.00000000e+00 5.90462622e-17 0.00000000e+00 6.53231713e-18
3.80189396e+02 3.56502915e-17 4.31585913e-18 0.00000000e+00 3.13344323e-17 0.00000000e+00 4.31585913e-18
4.36515832e+02 1.93674244e-17 2.85145985e-18 0.00000000e+00 1.65159645e-17 0.00000000e+00 2.85145985e-18
5.01187234e+02 1.05333853e-17 1.88394084e-18 0.00000000e+00 8.64944447e-18 0.00000000e+00 1.88394084e-18
5.75439937e+02 5.74984819e-18 1.24470737e-18 0.00000000e+00 4.50514082e-18 0.00000000e+00 1.24470737e-18
6.60693448e+02 3.15795515e-18 8.22370004e-19 0.00000000e+00 2.33558515e-18 0.00000000e+00 8.22370004e-19
7.58577575e+02 1.74926324e-18 5.43334473e-19 0.00000000e+00 1.20592877e-18 0.00000000e+00 5.43334473e-19
8.70963590e+02 9.79297654e-19 3.58977527e-19 0.00000000e+00 6.20320128e-19 0.00000000e+00 3.58977527e-19
1.00000000e+03 3.18012191e-19 0.00000000e+00 0.00000000e+00 3.18012191e-19 0.00000000e+00 0.00000000e+00
