# column 1: lambda (micron)
# column 2: total flux; lambda*F_lambda (W/m2)
# column 3: direct stellar flux; lambda*F_lambda (W/m2)
# column 4: scattered stellar flux; lambda*F_lambda (W/m2)
# column 5: total dust emission flux; lambda*F_lambda (W/m2)
# column 6: dust emission scattered flux; lambda*F_lambda (W/m2)
# column 7: transparent flux; lambda*F_lambda (W/m2)
1.00000000e-03 8.46530644e-13 8.46529401e-13 1.24314250e-18 0.00000000e+00 0.00000000e+00 8.46529401e-13
1.14815362e-03 9.99178067e-13 9.99176121e-13 1.94620462e-18 0.00000000e+00 0.00000000e+00 9.99176121e-13
1.31825674e-03 1.17935111e-12 1.17934819e-12 2.92031437e-18 0.00000000e+00 0.00000000e+00 1.17934819e-12
1.51356125e-03 1.39201354e-12 1.39200901e-12 4.53238622e-18 0.00000000e+00 0.00000000e+00 1.39200901e-12
1.73780083e-03 1.64302502e-12 1.64301696e-12 8.05716559e-18 0.00000000e+00 0.00000000e+00 1.64301696e-12
1.99526231e-03 1.93930128e-12 1.93928682e-12 1.44584153e-17 0.00000000e+00 0.00000000e+00 1.93928682e-12
2.29086765e-03 2.28900203e-12 2.28898025e-12 2.17714187e-17 0.00000000e+00 0.00000000e+00 2.28898025e-12
2.63026799e-03 2.70177475e-12 2.70173063e-12 4.41247508e-17 0.00000000e+00 0.00000000e+00 2.70173063e-12
3.01995172e-03 3.18898061e-12 3.18890841e-12 7.21956773e-17 0.00000000e+00 0.00000000e+00 3.18890841e-12
3.46736850e-03 3.76405349e-12 3.76393440e-12 1.19084349e-16 0.00000000e+00 0.00000000e+00 3.76393440e-12
3.98107171e-03 4.44283523e-12 4.44264945e-12 1.85784222e-16 0.00000000e+00 0.00000000e+00 4.44264945e-12
4.57088190e-03 5.24418900e-12 5.24375082e-12 4.38174033e-16 0.00000000e+00 0.00000000e+00 5.24375082e-12
5.24807460e-03 6.19007401e-12 6.18930730e-12 7.66702323e-16 0.00000000e+00 0.00000000e+00 6.18930730e-12
6.02559586e-03 7.30671820e-12 7.30536713e-12 1.35106469e-15 0.00000000e+00 0.00000000e+00 7.30536713e-12
6.91830971e-03 8.62477034e-12 8.62267558e-12 2.09476661e-15 0.00000000e+00 0.00000000e+00 8.62267558e-12
7.94328235e-03 1.01810169e-11 1.01775219e-11 3.49496981e-15 0.00000000e+00 0.00000000e+00 1.01775219e-11
9.12010839e-03 1.20209496e-11 1.20127391e-11 8.21050097e-15 0.00000000e+00 0.00000000e+00 1.20127391e-11
1.04712855e-02 1.34242196e-11 1.34165878e-11 7.63171136e-15 0.00000000e+00 0.00000000e+00 1.34165878e-11
1.20226443e-02 1.34276450e-11 1.34165878e-11 1.10571908e-14 9.56131694e-312 2.37539159e-312 1.34165878e-11
1.38038426e-02 1.34386226e-11 1.34165878e-11 2.20347928e-14 2.25571585e-272 5.28488078e-273 1.34165878e-11
1.58489319e-02 1.34435145e-11 1.34165878e-11 2.69266512e-14 4.40282784e-238 1.17221759e-238 1.34165878e-11
1.81970086e-02 1.34472202e-11 1.34165878e-11 3.06323840e-14 2.90864578e-208 7.53567491e-209 1.34165878e-11
2.08929613e-02 1.34613253e-11 1.34165878e-11 4.47374280e-14 2.50129041e-182 6.79637289e-183 1.34165878e-11
2.39883292e-02 1.34763009e-11 1.34165878e-11 5.97130595e-14 9.40724268e-160 2.80156410e-160 1.34165878e-11
2.75422870e-02 1.34943860e-11 1.34165878e-11 7.77981464e-14 3.91256928e-140 1.12228833e-140 1.34165878e-11
3.16227766e-02 1.35137570e-11 1.34165878e-11 9.71691155e-14 4.57439073e-123 1.36140033e-123 1.34165878e-11
3.63078055e-02 1.35251707e-11 1.34165878e-11 1.08582853e-13 3.06937603e-108 8.94779533e-109 1.34165878e-11
4.16869383e-02 1.35660162e-11 1.34165878e-11 1.49428374e-13 2.42266884e-95 7.51178536e-96 1.34165878e-11
4.78630092e-02 1.36062265e-11 1.34165878e-11 1.89638703e-13 3.55160196e-84 1.11109561e-84 1.34165878e-11
5.49540874e-02 1.36330144e-11 1.34165878e-11 2.16426523e-13 1.68374640e-74 5.38439076e-75 1.34165878e-11
6.30957344e-02 1.36589918e-11 1.34165878e-11 2.42404009e-13 4.60385443e-66 1.51946669e-66 1.34165878e-11
7.24435960e-02 1.36397382e-11 1.34165878e-11 2.23150318e-13 8.82404414e-59 2.72815544e-59 1.34165878e-11
8.31763771e-02 1.36386191e-11 1.34165878e-11 2.22031251e-13 2.22597035e-52 6.07011032e-53 1.34165878e-11
9.54992586e-02 1.36443340e-11 1.34165878e-11 2.27746163e-13 9.80887269e-47 2.29335321e-47 1.34165878e-11
1.09647820e-01 1.30529163e-11 1.28127470e-11 2.40169332e-13 9.39768263e-42 1.98278641e-42 1.28127470e-11
1.25892541e-01 1.21848054e-11 1.19575512e-11 2.27254220e-13 2.10139921e-37 4.03670470e-38 1.19575512e-11
1.44543977e-01 1.13684006e-11 1.11594361e-11 2.08964562e-13 1.23708168e-33 2.14726945e-34 1.11594361e-11
1.65958691e-01 1.06315055e-11 1.04145917e-11 2.16913808e-13 1.78064281e-30 3.24600072e-31 1.04145917e-11
1.90546072e-01 9.95481409e-12 9.71946251e-12 2.35351577e-13 7.08455422e-28 1.48699767e-28 9.71946251e-12
2.18776162e-01 9.29770632e-12 9.07073019e-12 2.26976127e-13 1.09477913e-25 2.40675124e-26 9.07073019e-12
2.51188643e-01 8.73343939e-12 8.46529796e-12 2.68141425e-13 1.43440960e-23 3.83978038e-24 8.46529796e-12
2.88403150e-01 8.14340557e-12 7.90027573e-12 2.43129836e-13 9.57642633e-22 2.58639778e-22 7.90027573e-12
3.31131121e-01 7.60260859e-12 7.37296631e-12 2.29642249e-13 3.53851988e-20 9.64417666e-21 7.37296631e-12
3.80189396e-01 7.08975495e-12 6.88085251e-12 2.08901659e-13 7.77932028e-19 2.15796277e-19 6.88085251e-12
4.36515832e-01 6.61573359e-12 6.42158520e-12 1.94137345e-13 1.10384478e-17 3.06880433e-18 6.42158520e-12
5.01187234e-01 6.17730398e-12 5.99297201e-12 1.84226715e-13 1.05261178e-16 2.94333660e-17 5.99297201e-12
5.75439937e-01 5.76324570e-12 5.59296690e-12 1.69558347e-13 7.20450721e-16 1.99825419e-16 5.59296690e-12
6.60693448e-01 5.37854929e-12 5.21966041e-12 1.55258933e-13 3.62993787e-15 9.91682105e-16 5.21966041e-12
7.58577575e-01 5.02875172e-12 4.87127053e-12 1.43176134e-13 1.43050518e-14 3.80975114e-15 4.87127053e-12
8.70963590e-01 4.71711124e-12 4.54613417e-12 1.25080033e-13 4.58970348e-14 1.17410546e-14 4.54613417e-12
1.00000000e+00 4.47519091e-12 4.24269927e-12 1.10157605e-13 1.22334040e-13 2.92418639e-14 4.24269927e-12
1.14815362e+00 4.33116329e-12 3.95951734e-12 9.16458517e-14 2.80000100e-13 6.06905755e-14 3.95951734e-12
1.31825674e+00 4.34096686e-12 3.69523659e-12 7.32919287e-14 5.72438343e-13 1.08563884e-13 3.69523659e-12
1.51356125e+00 4.54051377e-12 3.44859544e-12 5.75268822e-14 1.03439145e-12 1.68378630e-13 3.44859544e-12
1.73780083e+00 4.90833321e-12 3.21841652e-12 4.44335497e-14 1.64548314e-12 2.22101890e-13 3.21841652e-12
1.99526231e+00 5.37475080e-12 3.00360106e-12 3.25419158e-14 2.33860782e-12 2.55029865e-13 3.00360106e-12
2.29086765e+00 5.84849422e-12 2.80312361e-12 2.35839044e-14 3.02178671e-12 2.56423758e-13 2.80312361e-12
2.63026799e+00 6.21117810e-12 2.61602716e-12 1.66239182e-14 3.57852702e-12 2.32642199e-13 2.61602716e-12
3.01995172e+00 6.41670055e-12 2.44141860e-12 1.18828158e-14 3.96339913e-12 1.95815571e-13 2.44141860e-12
3.46736850e+00 6.43567104e-12 2.27846441e-12 8.30755486e-15 4.14889908e-12 1.54244285e-13 2.27846441e-12
3.98107171e+00 6.26592611e-12 2.12638671e-12 5.73873611e-15 4.13380066e-12 1.13449207e-13 2.12638671e-12
4.57088190e+00 5.97198610e-12 1.98445954e-12 3.81866942e-15 3.98370789e-12 7.86342841e-14 1.98445954e-12
5.24807460e+00 5.38208664e-12 1.64084388e-12 2.18162029e-15 3.73906115e-12 5.06623061e-14 1.64084388e-12
6.02559586e+00 4.54877349e-12 1.08409480e-12 9.52154888e-16 3.46372654e-12 3.09591184e-14 1.08409480e-12
6.70000000e+00 4.02502237e-12 7.88574724e-13 4.90914892e-16 3.23595673e-12 2.03377671e-14 7.88574724e-13
6.92422916e+00 3.87716715e-12 7.14418944e-13 3.97876464e-16 3.16235033e-12 1.76217100e-14 7.14418944e-13
7.15596261e+00 3.76442450e-12 6.47236606e-13 3.17652222e-16 3.11687024e-12 1.51252189e-14 6.47236606e-13
7.39545150e+00 3.71156557e-12 5.86371942e-13 2.38887220e-16 3.12495474e-12 1.28929328e-14 5.86371942e-13
7.64295536e+00 3.83723358e-12 5.31230854e-13 1.68347989e-16 3.30583437e-12 1.07220884e-14 5.31230854e-13
7.89874245e+00 4.21569577e-12 4.81275108e-13 1.02176045e-16 3.73431848e-12 8.62067939e-15 4.81275108e-13
8.16308998e+00 4.72557171e-12 4.36017088e-13 5.97218206e-17 4.28949490e-12 6.73131797e-15 4.36017088e-13
8.43628443e+00 5.42771037e-12 3.95015029e-13 3.29611953e-17 5.03266238e-12 5.07980619e-15 3.95015029e-13
8.71862190e+00 5.82546701e-12 3.57868711e-13 2.07492041e-17 5.46757755e-12 3.95215507e-15 3.57868711e-13
9.01040836e+00 6.22431937e-12 3.24215549e-13 1.34846451e-17 5.90009034e-12 3.05716383e-15 3.24215549e-13
9.31196005e+00 6.46398277e-12 2.93727053e-13 0.00000000e+00 6.17025571e-12 0.00000000e+00 2.93727053e-13
9.62360379e+00 6.38360511e-12 2.66105627e-13 0.00000000e+00 6.11749948e-12 0.00000000e+00 2.66105627e-13
9.94567731e+00 5.97807259e-12 2.41081657e-13 0.00000000e+00 5.73699093e-12 0.00000000e+00 2.41081657e-13
1.02785297e+01 5.56545944e-12 2.18410884e-13 0.00000000e+00 5.34704855e-12 0.00000000e+00 2.18410884e-13
1.06225216e+01 5.17733500e-12 1.97872020e-13 0.00000000e+00 4.97946298e-12 0.00000000e+00 1.97872020e-13
1.09780260e+01 4.73663055e-12 1.79264583e-13 0.00000000e+00 4.55736596e-12 0.00000000e+00 1.79264583e-13
1.13454280e+01 4.36644686e-12 1.62406948e-13 0.00000000e+00 4.20403991e-12 0.00000000e+00 1.62406948e-13
1.17251259e+01 4.01545826e-12 1.47134567e-13 0.00000000e+00 3.86832369e-12 0.00000000e+00 1.47134567e-13
1.21175312e+01 3.71875646e-12 1.33298366e-13 0.00000000e+00 3.58545809e-12 0.00000000e+00 1.33298366e-13
1.25230691e+01 3.42573312e-12 1.20763289e-13 0.00000000e+00 3.30496983e-12 0.00000000e+00 1.20763289e-13
1.29421791e+01 3.17029807e-12 1.09406983e-13 0.00000000e+00 3.06089109e-12 0.00000000e+00 1.09406983e-13
1.33753155e+01 2.95286430e-12 9.91185987e-14 0.00000000e+00 2.85374570e-12 0.00000000e+00 9.91185987e-14
1.38229477e+01 2.80430096e-12 8.97977103e-14 0.00000000e+00 2.71450325e-12 0.00000000e+00 8.97977103e-14
1.42855609e+01 2.72303932e-12 8.13533371e-14 0.00000000e+00 2.64168598e-12 0.00000000e+00 8.13533371e-14
1.47636563e+01 2.75096536e-12 7.37030537e-14 0.00000000e+00 2.67726230e-12 0.00000000e+00 7.37030537e-14
1.52577522e+01 2.81418915e-12 6.67721855e-14 0.00000000e+00 2.74741697e-12 0.00000000e+00 6.67721855e-14
1.57683840e+01 2.89271801e-12 6.04930805e-14 0.00000000e+00 2.83222493e-12 0.00000000e+00 6.04930805e-14
1.62961051e+01 2.97405874e-12 5.48044484e-14 0.00000000e+00 2.91925429e-12 0.00000000e+00 5.48044484e-14
1.68414875e+01 3.04825812e-12 4.96507622e-14 0.00000000e+00 2.99860736e-12 0.00000000e+00 4.96507622e-14
1.74051222e+01 3.10095088e-12 4.49817171e-14 0.00000000e+00 3.05596917e-12 0.00000000e+00 4.49817171e-14
1.79876201e+01 3.14390624e-12 4.07517384e-14 0.00000000e+00 3.10315450e-12 0.00000000e+00 4.07517384e-14
1.85896125e+01 3.13789164e-12 3.69195372e-14 0.00000000e+00 3.10097210e-12 0.00000000e+00 3.69195372e-14
1.92117518e+01 3.08479507e-12 3.34477076e-14 0.00000000e+00 3.05134736e-12 0.00000000e+00 3.34477076e-14
1.98547123e+01 3.01888286e-12 3.03023610e-14 0.00000000e+00 2.98858050e-12 0.00000000e+00 3.03023610e-14
2.05191907e+01 2.94667081e-12 2.74527957e-14 0.00000000e+00 2.91921801e-12 0.00000000e+00 2.74527957e-14
2.12059073e+01 2.87629641e-12 2.48711970e-14 0.00000000e+00 2.85142521e-12 0.00000000e+00 2.48711970e-14
2.19156062e+01 2.80943102e-12 2.25323660e-14 0.00000000e+00 2.78689866e-12 0.00000000e+00 2.25323660e-14
2.26490567e+01 2.74317934e-12 2.04134733e-14 0.00000000e+00 2.72276587e-12 0.00000000e+00 2.04134733e-14
2.34070535e+01 2.68171405e-12 1.84938366e-14 0.00000000e+00 2.66322021e-12 0.00000000e+00 1.84938366e-14
2.41904183e+01 2.61814549e-12 1.67547181e-14 0.00000000e+00 2.60139077e-12 0.00000000e+00 1.67547181e-14
2.50000000e+01 2.55850940e-12 1.51791424e-14 0.00000000e+00 2.54333025e-12 0.00000000e+00 1.51791424e-14
2.75422870e+01 2.37409089e-12 1.13518661e-14 0.00000000e+00 2.36273903e-12 0.00000000e+00 1.13518661e-14
3.16227766e+01 2.05981752e-12 7.50010357e-15 0.00000000e+00 2.05231742e-12 0.00000000e+00 7.50010357e-15
3.63078055e+01 1.69372448e-12 4.95526929e-15 0.00000000e+00 1.68876921e-12 0.00000000e+00 4.95526929e-15
4.16869383e+01 1.30111274e-12 3.27391395e-15 0.00000000e+00 1.29783883e-12 0.00000000e+00 3.27391395e-15
4.78630092e+01 9.30200672e-13 2.16305350e-15 0.00000000e+00 9.28037618e-13 0.00000000e+00 2.16305350e-15
5.49540874e+01 6.25234869e-13 1.42911527e-15 0.00000000e+00 6.23805753e-13 0.00000000e+00 1.42911527e-15
6.30957344e+01 3.99852265e-13 9.44207098e-16 0.00000000e+00 3.98908058e-13 0.00000000e+00 9.44207098e-16
7.24435960e+01 2.45456262e-13 6.23831443e-16 0.00000000e+00 2.44832431e-13 0.00000000e+00 6.23831443e-16
8.31763771e+01 1.45855839e-13 4.12161347e-16 0.00000000e+00 1.45443677e-13 0.00000000e+00 4.12161347e-16
9.54992586e+01 8.46456269e-14 2.72312302e-16 0.00000000e+00 8.43733146e-14 0.00000000e+00 2.72312302e-16
1.09647820e+02 4.81653314e-14 1.79914953e-16 0.00000000e+00 4.79854164e-14 0.00000000e+00 1.79914953e-16
1.25892541e+02 2.72992762e-14 1.18868631e-16 0.00000000e+00 2.71804076e-14 0.00000000e+00 1.18868631e-16
1.44543977e+02 1.53337999e-14 7.85357256e-17 0.00000000e+00 1.52552642e-14 0.00000000e+00 7.85357256e-17
1.65958691e+02 8.18887657e-15 5.18880394e-17 0.00000000e+00 8.13698853e-15 0.00000000e+00 5.18880394e-17
1.90546072e+02 4.36550354e-15 3.42820876e-17 0.00000000e+00 4.33122145e-15 0.00000000e+00 3.42820876e-17
2.18776162e+02 2.31906094e-15 2.26499507e-17 0.00000000e+00 2.29641099e-15 0.00000000e+00 2.26499507e-17
2.51188643e+02 1.22572042e-15 1.49646740e-17 0.00000000e+00 1.21075575e-15 0.00000000e+00 1.49646740e-17
2.88403150e+02 6.44139791e-16 9.88706207e-18 0.00000000e+00 6.34252729e-16 0.00000000e+00 9.88706207e-18
3.31131121e+02 3.37349150e-16 6.53231713e-18 0.00000000e+00 3.30816833e-16 0.00000000e+00 6.53231713e-18
3.80189396e+02 1.75969823e-16 4.31585913e-18 0.00000000e+00 1.71653964e-16 0.00000000e+00 4.31585913e-18
4.36515832e+02 9.15903938e-17 2.85145985e-18 0.00000000e+00 8.87389339e-17 0.00000000e+00 2.85145985e-18
5.01187234e+02 4.75871863e-17 1.88394084e-18 0.00000000e+00 4.57032455e-17 0.00000000e+00 1.88394084e-18
5.75439937e+02 2.47094421e-17 1.24470737e-18 0.00000000e+00 2.34647347e-17 0.00000000e+00 1.24470737e-18
6.60693448e+02 1.28368341e-17 8.22370004e-19 0.00000000e+00 1.20144641e-17 0.00000000e+00 8.22370004e-19
7.58577575e+02 6.68052966e-18 5.43334473e-19 0.00000000e+00 6.13719519e-18 0.00000000e+00 5.43334473e-19
8.70963590e+02 3.48675344e-18 3.58977527e-19 0.00000000e+00 3.12777591e-18 0.00000000e+00 3.58977527e-19
1.00000000e+03 1.59067890e-18 0.00000000e+00 0.00000000e+00 1.59067890e-18 0.00000000e+00 0.00000000e+00
