# column 1: lambda (micron)
# column 2: total flux; lambda*F_lambda (W/m2)
# column 3: direct stellar flux; lambda*F_lambda (W/m2)
# column 4: scattered stellar flux; lambda*F_lambda (W/m2)
# column 5: total dust emission flux; lambda*F_lambda (W/m2)
# column 6: dust emission scattered flux; lambda*F_lambda (W/m2)
# column 7: transparent flux; lambda*F_lambda (W/m2)
1.00000000e-03 6.93997150e-13 6.93993746e-13 3.40398315e-18 0.00000000e+00 0.00000000e+00 6.93993746e-13
1.14815362e-03 8.19144956e-13 8.19135139e-13 9.81743211e-18 0.00000000e+00 0.00000000e+00 8.19135139e-13
1.31825674e-03 9.66852153e-13 9.66842108e-13 1.00448442e-17 0.00000000e+00 0.00000000e+00 9.66842108e-13
1.51356125e-03 1.14122077e-12 1.14118369e-12 3.70808216e-17 0.00000000e+00 0.00000000e+00 1.14118369e-12
1.73780083e-03 1.34715452e-12 1.34696266e-12 1.91856505e-16 0.00000000e+00 0.00000000e+00 1.34696266e-12
1.99526231e-03 1.59001599e-12 1.58984782e-12 1.68162921e-16 0.00000000e+00 0.00000000e+00 1.58984782e-12
2.29086765e-03 1.87678964e-12 1.87653019e-12 2.59450925e-16 0.00000000e+00 0.00000000e+00 1.87653019e-12
2.63026799e-03 2.21610787e-12 2.21490731e-12 1.20055674e-15 0.00000000e+00 0.00000000e+00 2.21490731e-12
3.01995172e-03 2.61545541e-12 2.61430080e-12 1.15460608e-15 0.00000000e+00 0.00000000e+00 2.61430080e-12
3.46736850e-03 3.08800354e-12 3.08571319e-12 2.29035457e-15 0.00000000e+00 0.00000000e+00 3.08571319e-12
3.98107171e-03 3.66160299e-12 3.64213095e-12 1.94720375e-14 0.00000000e+00 0.00000000e+00 3.64213095e-12
4.57088190e-03 4.31486965e-12 4.29888232e-12 1.59873353e-14 0.00000000e+00 0.00000000e+00 4.29888232e-12
5.24807460e-03 5.10216766e-12 5.07405951e-12 2.81081480e-14 0.00000000e+00 0.00000000e+00 5.07405951e-12
6.02559586e-03 6.02993427e-12 5.98901715e-12 4.09171247e-14 0.00000000e+00 0.00000000e+00 5.98901715e-12
6.91830971e-03 7.09360115e-12 7.06896053e-12 2.46406224e-14 0.00000000e+00 0.00000000e+00 7.06896053e-12
7.94328235e-03 8.46622520e-12 8.34363998e-12 1.22585220e-13 4.25308226e-304 7.79777548e-306 8.34363998e-12
9.12010839e-03 9.94534166e-12 9.84817045e-12 9.71712110e-14 2.66928021e-265 1.49252144e-267 9.84817045e-12
1.04712855e-02 1.11044280e-11 1.09990604e-11 1.05367508e-13 1.56520542e-231 1.42860424e-233 1.09990604e-11
1.20226443e-02 1.11025064e-11 1.09990604e-11 1.03445909e-13 3.25707743e-202 3.77488022e-204 1.09990604e-11
1.38038426e-02 1.11366882e-11 1.09990604e-11 1.37627708e-13 1.13555684e-176 1.53146337e-178 1.09990604e-11
1.58489319e-02 1.11472839e-11 1.09990604e-11 1.48223461e-13 1.92196156e-154 4.70036031e-156 1.09990604e-11
1.81970086e-02 1.11645916e-11 1.09990604e-11 1.65531113e-13 4.11718367e-135 9.35881898e-137 1.09990604e-11
2.08929613e-02 1.11730212e-11 1.09990604e-11 1.73960722e-13 2.54048526e-118 7.27043780e-120 1.09990604e-11
2.39883292e-02 1.11867891e-11 1.09990604e-11 1.87728616e-13 1.02953455e-103 3.46791726e-105 1.09990604e-11
2.75422870e-02 1.12057581e-11 1.09990604e-11 2.06697687e-13 5.22661836e-91 2.03585572e-92 1.09990604e-11
3.16227766e-02 1.12168054e-11 1.09990604e-11 2.17744947e-13 5.67716758e-80 2.43789438e-81 1.09990604e-11
3.63078055e-02 1.12282990e-11 1.09990604e-11 2.29238533e-13 2.16749897e-70 1.04752071e-71 1.09990604e-11
4.16869383e-02 1.12559287e-11 1.09990604e-11 2.56868237e-13 4.49615434e-62 2.63916184e-63 1.09990604e-11
4.78630092e-02 1.12802483e-11 1.09990604e-11 2.81187892e-13 7.32292748e-55 5.13241008e-56 1.09990604e-11
5.49540874e-02 1.12979356e-11 1.09990604e-11 2.98875173e-13 1.29657436e-48 1.02731948e-49 1.09990604e-11
6.30957344e-02 1.13051466e-11 1.09990604e-11 3.06086177e-13 4.39484802e-43 3.78758143e-44 1.09990604e-11
7.24435960e-02 1.12767673e-11 1.09990604e-11 2.77706869e-13 2.63515533e-38 2.13974927e-39 1.09990604e-11
8.31763771e-02 1.12679555e-11 1.09990604e-11 2.68895029e-13 2.80550188e-34 2.21768523e-35 1.09990604e-11
9.54992586e-02 1.12649093e-11 1.09990604e-11 2.65848821e-13 8.21734083e-31 6.71902770e-32 1.09990604e-11
1.09647820e-01 1.07847973e-11 1.05040253e-11 2.80772005e-13 7.25799397e-28 6.35922816e-29 1.05040253e-11
1.25892541e-01 1.00678877e-11 9.80292679e-12 2.64960868e-13 2.43028533e-25 2.12321313e-26 9.80292679e-12
1.44543977e-01 9.38414975e-12 9.14862359e-12 2.35526160e-13 3.40142735e-23 2.91963112e-24 9.14862359e-12
1.65958691e-01 8.77127698e-12 8.53799231e-12 2.33284670e-13 1.76889570e-21 1.66464565e-22 8.53799231e-12
1.90546072e-01 8.21046237e-12 7.96811805e-12 2.42344283e-13 3.81157928e-20 4.18434751e-21 7.96811805e-12
2.18776162e-01 7.65761360e-12 7.43628044e-12 2.21332709e-13 4.56552103e-19 5.12701802e-20 7.43628044e-12
2.51188643e-01 7.18080275e-12 6.93994070e-12 2.40856350e-13 5.69923742e-18 7.77598197e-19 6.93994070e-12
2.88403150e-01 6.70448284e-12 6.47672950e-12 2.27705222e-13 4.81090621e-17 6.48825323e-18 6.47672950e-12
3.31131121e-01 6.25253606e-12 6.04443567e-12 2.07821544e-13 2.78853709e-16 3.68969510e-17 6.04443567e-12
3.80189396e-01 5.83111881e-12 5.64099558e-12 1.88952967e-13 1.17026456e-15 1.49264355e-16 5.64099558e-12
4.36515832e-01 5.43763650e-12 5.26448339e-12 1.69406117e-13 3.74699976e-15 4.82987166e-16 5.26448339e-12
5.01187234e-01 5.07586737e-12 4.91310176e-12 1.53331868e-13 9.43374196e-15 1.20142943e-15 4.91310176e-12
5.75439937e-01 4.74335309e-12 4.58517335e-12 1.38447247e-13 1.97324905e-14 2.53321275e-15 4.58517335e-12
6.60693448e-01 4.44139005e-12 4.27913275e-12 1.26311890e-13 3.59454095e-14 4.79458217e-15 4.27913275e-12
7.58577575e-01 4.16416242e-12 3.99351904e-12 1.09751418e-13 6.08919591e-14 8.43099442e-15 3.99351904e-12
8.70963590e-01 3.92621450e-12 3.72696882e-12 9.78476900e-14 1.01397994e-13 1.52956278e-14 3.72696882e-12
1.00000000e+00 3.72989086e-12 3.47820968e-12 8.01140330e-14 1.71567146e-13 2.77029737e-14 3.47820968e-12
1.14815362e+00 3.61030088e-12 3.24605414e-12 6.64971946e-14 2.97749545e-13 4.78373179e-14 3.24605414e-12
1.31825674e+00 3.60378016e-12 3.02939399e-12 5.17313605e-14 5.22654811e-13 7.78854198e-14 3.02939399e-12
1.51356125e+00 3.73932939e-12 2.82719497e-12 4.13955216e-14 8.70738901e-13 1.14869373e-13 2.82719497e-12
1.73780083e+00 4.00897436e-12 2.63849186e-12 3.12543863e-14 1.33922810e-12 1.48777168e-13 2.63849186e-12
1.99526231e+00 4.36349549e-12 2.46238388e-12 2.28952186e-14 1.87821639e-12 1.68753726e-13 2.46238388e-12
2.29086765e+00 4.72459681e-12 2.29803035e-12 1.64957227e-14 2.41007074e-12 1.69609021e-13 2.29803035e-12
2.63026799e+00 4.99851166e-12 2.14464670e-12 1.17438939e-14 2.84212107e-12 1.57143074e-13 2.14464670e-12
3.01995172e+00 5.17682396e-12 2.00150076e-12 8.36300315e-15 3.16696020e-12 1.37329008e-13 2.00150076e-12
3.46736850e+00 5.24124461e-12 1.86790919e-12 6.01718185e-15 3.36731823e-12 1.14202213e-13 1.86790919e-12
3.98107171e+00 5.19003237e-12 1.74323429e-12 4.28404050e-15 3.44251405e-12 9.03275533e-14 1.74323429e-12
4.57088190e+00 5.04635682e-12 1.62688090e-12 2.94241576e-15 3.41653351e-12 6.67767385e-14 1.62688090e-12
5.24807460e+00 4.66926495e-12 1.34518114e-12 1.72075308e-15 3.32236305e-12 4.59761755e-14 1.34518114e-12
6.02559586e+00 4.08259014e-12 8.88752369e-13 7.67840339e-16 3.19306993e-12 2.99698141e-14 8.88752369e-13
6.70000000e+00 3.70448239e-12 6.46481889e-13 3.99975253e-16 3.05760053e-12 2.03749617e-14 6.46481889e-13
6.92422916e+00 3.59598297e-12 5.85688198e-13 3.30637055e-16 3.00996413e-12 1.78908709e-14 5.85688198e-13
7.15596261e+00 3.50700700e-12 5.30611407e-13 2.58642801e-16 2.97613695e-12 1.55683074e-14 5.30611407e-13
7.39545150e+00 3.46865493e-12 4.80713913e-13 1.97518945e-16 2.98774350e-12 1.32257491e-14 4.80713913e-13
7.64295536e+00 3.53776425e-12 4.35508666e-13 1.37350197e-16 3.10211824e-12 1.07882912e-14 4.35508666e-13
7.89874245e+00 3.80985637e-12 3.94554418e-13 8.15319359e-17 3.41522042e-12 8.28267123e-15 3.94554418e-13
8.16308998e+00 4.15509352e-12 3.57451415e-13 4.47022753e-17 3.79759740e-12 6.15079871e-15 3.57451415e-13
8.43628443e+00 4.60783115e-12 3.23837494e-13 2.42129922e-17 4.28396944e-12 4.41665584e-15 3.23837494e-13
8.71862190e+00 4.89490660e-12 2.93384550e-13 1.55891233e-17 4.60150646e-12 3.35810098e-15 2.93384550e-13
9.01040836e+00 5.16303326e-12 2.65795332e-13 9.76925864e-18 4.89722816e-12 2.55541618e-15 2.65795332e-13
9.31196005e+00 5.36749526e-12 2.40800541e-13 0.00000000e+00 5.12669472e-12 0.00000000e+00 2.40800541e-13
9.62360379e+00 5.24526449e-12 2.18156204e-13 0.00000000e+00 5.02710828e-12 0.00000000e+00 2.18156204e-13
9.94567731e+00 4.99716589e-12 1.97641289e-13 0.00000000e+00 4.79952460e-12 0.00000000e+00 1.97641289e-13
1.02785297e+01 4.65916191e-12 1.79055550e-13 0.00000000e+00 4.48010636e-12 0.00000000e+00 1.79055550e-13
1.06225216e+01 4.35495062e-12 1.62217572e-13 0.00000000e+00 4.19273305e-12 0.00000000e+00 1.62217572e-13
1.09780260e+01 4.02610528e-12 1.46962999e-13 0.00000000e+00 3.87914228e-12 0.00000000e+00 1.46962999e-13
1.13454280e+01 3.76065498e-12 1.33142932e-13 0.00000000e+00 3.62751205e-12 0.00000000e+00 1.33142932e-13
1.17251259e+01 3.51727635e-12 1.20622472e-13 0.00000000e+00 3.39665388e-12 0.00000000e+00 1.20622472e-13
1.21175312e+01 3.28351139e-12 1.09279408e-13 0.00000000e+00 3.17423199e-12 0.00000000e+00 1.09279408e-13
1.25230691e+01 3.08451281e-12 9.90030204e-14 0.00000000e+00 2.98550979e-12 0.00000000e+00 9.90030204e-14
1.29421791e+01 2.90187341e-12 8.96930008e-14 0.00000000e+00 2.81218041e-12 0.00000000e+00 8.96930008e-14
1.33753155e+01 2.74113163e-12 8.12584743e-14 0.00000000e+00 2.65987316e-12 0.00000000e+00 8.12584743e-14
1.38229477e+01 2.62123645e-12 7.36171115e-14 0.00000000e+00 2.54761934e-12 0.00000000e+00 7.36171115e-14
1.42855609e+01 2.55626602e-12 6.66943252e-14 0.00000000e+00 2.48957170e-12 0.00000000e+00 6.66943252e-14
1.47636563e+01 2.55671025e-12 6.04225420e-14 0.00000000e+00 2.49628771e-12 0.00000000e+00 6.04225420e-14
1.52577522e+01 2.57311690e-12 5.47405431e-14 0.00000000e+00 2.51837635e-12 0.00000000e+00 5.47405431e-14
1.57683840e+01 2.61231045e-12 4.95928665e-14 0.00000000e+00 2.56271758e-12 0.00000000e+00 4.95928665e-14
1.62961051e+01 2.63247299e-12 4.49292657e-14 0.00000000e+00 2.58754373e-12 0.00000000e+00 4.49292657e-14
1.68414875e+01 2.66042834e-12 4.07042194e-14 0.00000000e+00 2.61972412e-12 0.00000000e+00 4.07042194e-14
1.74051222e+01 2.66744010e-12 3.68764869e-14 0.00000000e+00 2.63056361e-12 0.00000000e+00 3.68764869e-14
1.79876201e+01 2.65274303e-12 3.34087056e-14 0.00000000e+00 2.61933433e-12 0.00000000e+00 3.34087056e-14
1.85896125e+01 2.61893233e-12 3.02670267e-14 0.00000000e+00 2.58866530e-12 0.00000000e+00 3.02670267e-14
1.92117518e+01 2.56044758e-12 2.74207841e-14 0.00000000e+00 2.53302679e-12 0.00000000e+00 2.74207841e-14
1.98547123e+01 2.48226197e-12 2.48421957e-14 0.00000000e+00 2.45741977e-12 0.00000000e+00 2.48421957e-14
2.05191907e+01 2.39604309e-12 2.25060919e-14 0.00000000e+00 2.37353700e-12 0.00000000e+00 2.25060919e-14
2.12059073e+01 2.31051116e-12 2.03896700e-14 0.00000000e+00 2.29012149e-12 0.00000000e+00 2.03896700e-14
2.19156062e+01 2.22920434e-12 1.84722717e-14 0.00000000e+00 2.21073207e-12 0.00000000e+00 1.84722717e-14
2.26490567e+01 2.14697961e-12 1.67351811e-14 0.00000000e+00 2.13024443e-12 0.00000000e+00 1.67351811e-14
2.34070535e+01 2.06631209e-12 1.51614426e-14 0.00000000e+00 2.05115064e-12 0.00000000e+00 1.51614426e-14
2.41904183e+01 1.99495400e-12 1.37356949e-14 0.00000000e+00 1.98121830e-12 0.00000000e+00 1.37356949e-14
2.50000000e+01 1.91259468e-12 1.24440213e-14 0.00000000e+00 1.90015066e-12 0.00000000e+00 1.24440213e-14
2.75422870e+01 1.67493451e-12 9.30637977e-15 0.00000000e+00 1.66562813e-12 0.00000000e+00 9.30637977e-15
3.16227766e+01 1.33866510e-12 6.14866414e-15 0.00000000e+00 1.33251643e-12 0.00000000e+00 6.14866414e-15
3.63078055e+01 1.00816341e-12 4.06238211e-15 0.00000000e+00 1.00410102e-12 0.00000000e+00 4.06238211e-15
4.16869383e+01 7.12068316e-13 2.68398924e-15 0.00000000e+00 7.09384327e-13 0.00000000e+00 2.68398924e-15
4.78630092e+01 4.70641177e-13 1.77329411e-15 0.00000000e+00 4.68867883e-13 0.00000000e+00 1.77329411e-15
5.49540874e+01 2.93471734e-13 1.17160380e-15 0.00000000e+00 2.92300130e-13 0.00000000e+00 1.17160380e-15
6.30957344e+01 1.75063818e-13 7.74070953e-16 0.00000000e+00 1.74289747e-13 0.00000000e+00 7.74070953e-16
7.24435960e+01 1.00916758e-13 5.11423607e-16 0.00000000e+00 1.00405335e-13 0.00000000e+00 5.11423607e-16
8.31763771e+01 5.66326278e-14 3.37894226e-16 0.00000000e+00 5.62947335e-14 0.00000000e+00 3.37894226e-16
9.54992586e+01 3.12130808e-14 2.23244502e-16 0.00000000e+00 3.09898363e-14 0.00000000e+00 2.23244502e-16
1.09647820e+02 1.69834391e-14 1.47496179e-16 0.00000000e+00 1.68359429e-14 0.00000000e+00 1.47496179e-16
1.25892541e+02 9.25949672e-15 9.74497594e-17 0.00000000e+00 9.16204696e-15 0.00000000e+00 9.74497594e-17
1.44543977e+02 5.02941195e-15 6.43844175e-17 0.00000000e+00 4.96502753e-15 0.00000000e+00 6.43844175e-17
1.65958691e+02 2.60950977e-15 4.25383628e-17 0.00000000e+00 2.56697141e-15 0.00000000e+00 4.25383628e-17
1.90546072e+02 1.35792388e-15 2.81048176e-17 0.00000000e+00 1.32981906e-15 0.00000000e+00 2.81048176e-17
2.18776162e+02 7.07301815e-16 1.85686688e-17 0.00000000e+00 6.88733146e-16 0.00000000e+00 1.85686688e-17
2.51188643e+02 3.68114272e-16 1.22681978e-17 0.00000000e+00 3.55846074e-16 0.00000000e+00 1.22681978e-17
2.88403150e+02 1.91290937e-16 8.10551794e-18 0.00000000e+00 1.83185419e-16 0.00000000e+00 8.10551794e-18
3.31131121e+02 9.94667350e-17 5.35526259e-18 0.00000000e+00 9.41114724e-17 0.00000000e+00 5.35526259e-18
3.80189396e+02 5.17377866e-17 3.53818691e-18 0.00000000e+00 4.81995997e-17 0.00000000e+00 3.53818691e-18
4.36515832e+02 2.69747290e-17 2.33765691e-18 0.00000000e+00 2.46370721e-17 0.00000000e+00 2.33765691e-18
5.01187234e+02 1.41100693e-17 1.54447460e-18 0.00000000e+00 1.25655947e-17 0.00000000e+00 1.54447460e-18
5.75439937e+02 7.41739607e-18 1.02042425e-18 0.00000000e+00 6.39697182e-18 0.00000000e+00 1.02042425e-18
6.60693448e+02 3.92566324e-18 6.74187617e-19 0.00000000e+00 3.25147562e-18 0.00000000e+00 6.74187617e-19
7.58577575e+02 2.09585787e-18 4.45431341e-19 0.00000000e+00 1.65042653e-18 0.00000000e+00 4.45431341e-19
8.70963590e+02 1.13081333e-18 2.94293569e-19 0.00000000e+00 8.36519757e-19 0.00000000e+00 2.94293569e-19
1.00000000e+03 4.23403636e-19 0.00000000e+00 0.00000000e+00 4.23403636e-19 0.00000000e+00 0.00000000e+00
