# column 1: lambda (micron)
# column 2: total flux; lambda*F_lambda (W/m2)
# column 3: direct stellar flux; lambda*F_lambda (W/m2)
# column 4: scattered stellar flux; lambda*F_lambda (W/m2)
# column 5: total dust emission flux; lambda*F_lambda (W/m2)
# column 6: dust emission scattered flux; lambda*F_lambda (W/m2)
# column 7: transparent flux; lambda*F_lambda (W/m2)
1.00000000e-03 6.93839528e-13 6.93838458e-13 1.07046303e-18 0.00000000e+00 0.00000000e+00 6.93993746e-13
1.14815362e-03 8.18894705e-13 8.18892993e-13 1.71131094e-18 0.00000000e+00 0.00000000e+00 8.19135139e-13
1.31825674e-03 9.66481442e-13 9.66478740e-13 2.70276751e-18 0.00000000e+00 0.00000000e+00 9.66842108e-13
1.51356125e-03 1.14068222e-12 1.14067806e-12 4.15833794e-18 0.00000000e+00 0.00000000e+00 1.14118369e-12
1.73780083e-03 1.34636749e-12 1.34635969e-12 7.80639713e-18 0.00000000e+00 0.00000000e+00 1.34696266e-12
1.99526231e-03 1.58891770e-12 1.58890429e-12 1.34093218e-17 0.00000000e+00 0.00000000e+00 1.58984782e-12
2.29086765e-03 1.87537064e-12 1.87534925e-12 2.13886716e-17 0.00000000e+00 0.00000000e+00 1.87653019e-12
2.63026799e-03 2.21327932e-12 2.21323704e-12 4.22782188e-17 0.00000000e+00 0.00000000e+00 2.21490731e-12
3.01995172e-03 2.61193787e-12 2.61186277e-12 7.51006635e-17 0.00000000e+00 0.00000000e+00 2.61430080e-12
3.46736850e-03 3.08245431e-12 3.08232165e-12 1.32659688e-16 0.00000000e+00 0.00000000e+00 3.08571319e-12
3.98107171e-03 3.63776033e-12 3.63754912e-12 2.11216132e-16 0.00000000e+00 0.00000000e+00 3.64213095e-12
4.57088190e-03 4.29571778e-12 4.29527415e-12 4.43630018e-16 0.00000000e+00 0.00000000e+00 4.29888232e-12
5.24807460e-03 5.06945676e-12 5.06862065e-12 8.36104243e-16 0.00000000e+00 0.00000000e+00 5.07405951e-12
6.02559586e-03 5.98283373e-12 5.98127758e-12 1.55614873e-15 0.00000000e+00 0.00000000e+00 5.98901715e-12
6.91830971e-03 7.06069948e-12 7.05841838e-12 2.28109819e-15 0.00000000e+00 0.00000000e+00 7.06896053e-12
7.94328235e-03 8.33392894e-12 8.32975888e-12 4.17006410e-15 5.28581274e-304 8.55314674e-307 8.34363998e-12
9.12010839e-03 9.83742619e-12 9.82999065e-12 7.43553892e-15 2.30548253e-265 8.83377096e-268 9.84817045e-12
1.04712855e-02 1.09877368e-11 1.09774607e-11 1.02760453e-14 9.76058407e-232 1.16529837e-233 1.09990604e-11
1.20226443e-02 1.09981364e-11 1.09761873e-11 2.19491189e-14 1.50751185e-202 6.04123666e-205 1.09990604e-11
1.38038426e-02 1.10027331e-11 1.09746770e-11 2.80560586e-14 4.09429658e-177 2.55795380e-179 1.09990604e-11
1.58489319e-02 1.10104701e-11 1.09728213e-11 3.76487679e-14 5.54532806e-155 6.86509723e-157 1.09990604e-11
1.81970086e-02 1.10174749e-11 1.09711100e-11 4.63649112e-14 9.83955395e-136 1.14072071e-137 1.09990604e-11
2.08929613e-02 1.10330829e-11 1.09696878e-11 6.33951169e-14 5.14668655e-119 8.91706964e-121 1.09990604e-11
2.39883292e-02 1.10522083e-11 1.09678453e-11 8.43629329e-14 1.80873262e-104 4.20627805e-106 1.09990604e-11
2.75422870e-02 1.10674131e-11 1.09657026e-11 1.01710508e-13 8.10781330e-92 2.34711933e-93 1.09990604e-11
3.16227766e-02 1.10888864e-11 1.09636027e-11 1.25283720e-13 7.92109744e-81 2.77500839e-82 1.09990604e-11
3.63078055e-02 1.11010370e-11 1.09619559e-11 1.39081153e-13 2.75084359e-71 1.10007218e-72 1.09990604e-11
4.16869383e-02 1.11369824e-11 1.09605317e-11 1.76450705e-13 5.27104238e-63 2.80930941e-64 1.09990604e-11
4.78630092e-02 1.11774589e-11 1.09566070e-11 2.20851847e-13 8.02979171e-56 5.42821928e-57 1.09990604e-11
5.49540874e-02 1.11971581e-11 1.09511513e-11 2.46006755e-13 1.33895077e-49 1.02316806e-50 1.09990604e-11
6.30957344e-02 1.12114053e-11 1.09374831e-11 2.73922136e-13 4.34678998e-44 3.72969574e-45 1.09990604e-11
7.24435960e-02 1.11695632e-11 1.09213151e-11 2.48248128e-13 2.50710281e-39 2.00160021e-40 1.09990604e-11
8.31763771e-02 1.11690087e-11 1.09227528e-11 2.46255941e-13 2.56444360e-35 2.03875983e-36 1.09990604e-11
9.54992586e-02 1.11780608e-11 1.09269707e-11 2.51090028e-13 7.23039330e-32 5.99862636e-33 1.09990604e-11
1.09647820e-01 1.07038539e-11 1.04468004e-11 2.57053542e-13 6.13348979e-29 5.42660300e-30 1.05040253e-11
1.25892541e-01 1.00032283e-11 9.75894475e-12 2.44283524e-13 1.98512247e-26 1.76063523e-27 9.80292679e-12
1.44543977e-01 9.33716966e-12 9.11458905e-12 2.22580609e-13 2.69315094e-24 2.31101240e-25 9.14862359e-12
1.65958691e-01 8.73589423e-12 8.51020760e-12 2.25686628e-13 1.36614016e-22 1.27834377e-23 8.53799231e-12
1.90546072e-01 8.18367328e-12 7.94045743e-12 2.43215844e-13 2.89342989e-21 3.14240651e-22 7.96811805e-12
2.18776162e-01 7.62659114e-12 7.40600849e-12 2.20582608e-13 3.43084201e-20 3.85577979e-21 7.43628044e-12
2.51188643e-01 7.17071336e-12 6.91733769e-12 2.53375252e-13 4.17858411e-19 5.52798107e-20 6.93994070e-12
2.88403150e-01 6.69206930e-12 6.45921129e-12 2.32854554e-13 3.46291210e-18 4.45376706e-19 6.47672950e-12
3.31131121e-01 6.24470144e-12 6.03018145e-12 2.14500176e-13 1.98140015e-17 2.48997411e-18 6.04443567e-12
3.80189396e-01 5.82124389e-12 5.62931200e-12 1.91849260e-13 8.26275690e-17 1.01486076e-17 5.64099558e-12
4.36515832e-01 5.42731033e-12 5.25499242e-12 1.72052680e-13 2.65232328e-16 3.30925666e-17 5.26448339e-12
5.01187234e-01 5.06171907e-12 4.90549629e-12 1.55522836e-13 6.99944070e-16 9.40115942e-17 4.91310176e-12
5.75439937e-01 4.71670992e-12 4.57914168e-12 1.35877189e-13 1.69104813e-15 2.69490686e-16 4.58517335e-12
6.60693448e-01 4.40320351e-12 4.27439064e-12 1.24656694e-13 4.15617885e-15 8.21736553e-16 4.27913275e-12
7.58577575e-01 4.11063571e-12 3.98983611e-12 1.09977009e-13 1.08225892e-14 2.48711610e-15 3.99351904e-12
8.70963590e-01 3.84914733e-12 3.72417188e-12 9.71676277e-14 2.78078233e-14 6.71031541e-15 3.72696882e-12
1.00000000e+00 3.62422663e-12 3.47611991e-12 8.19044655e-14 6.62022570e-14 1.54188473e-14 3.47820968e-12
1.14815362e+00 3.45621164e-12 3.24452050e-12 6.77389537e-14 1.43952190e-13 3.06020199e-14 3.24605414e-12
1.31825674e+00 3.36935394e-12 3.02828804e-12 5.43301201e-14 2.86735780e-13 5.26329677e-14 3.02939399e-12
1.51356125e+00 3.38446898e-12 2.82640550e-12 4.24810913e-14 5.15582387e-13 7.92888613e-14 2.82719497e-12
1.73780083e+00 3.50477983e-12 2.63793748e-12 3.27599949e-14 8.34082355e-13 1.04408159e-13 2.63849186e-12
1.99526231e+00 3.69990199e-12 2.46200069e-12 2.36528674e-14 1.21424843e-12 1.18074546e-13 2.46238388e-12
2.29086765e+00 3.93157567e-12 2.29776630e-12 1.71525451e-14 1.61665682e-12 1.18428856e-13 2.29803035e-12
2.63026799e+00 4.13613935e-12 2.14446306e-12 1.20804287e-14 1.97959586e-12 1.07663309e-13 2.14464670e-12
3.01995172e+00 4.30533693e-12 2.00137139e-12 8.36605298e-15 2.29559949e-12 9.14212935e-14 2.00150076e-12
3.46736850e+00 4.36554230e-12 1.86781657e-12 5.80139947e-15 2.49192433e-12 7.27820744e-14 1.86790919e-12
3.98107171e+00 4.33655195e-12 1.74316713e-12 4.00627768e-15 2.58937855e-12 5.53626371e-14 1.74323429e-12
4.57088190e+00 4.21670526e-12 1.62683153e-12 2.71873307e-15 2.58715499e-12 3.94823361e-14 1.62688090e-12
5.24807460e+00 3.88575738e-12 1.34514836e-12 1.55169917e-15 2.53905733e-12 2.67808050e-14 1.34518114e-12
6.02559586e+00 3.32507073e-12 8.88734367e-13 6.92197927e-16 2.43564417e-12 1.73825891e-14 8.88752369e-13
6.70000000e+00 2.99022811e-12 6.46470299e-13 3.56239869e-16 2.34340157e-12 1.19178281e-14 6.46481889e-13
6.92422916e+00 2.89680693e-12 5.85678065e-13 2.87931082e-16 2.31084093e-12 1.05009817e-14 5.85688198e-13
7.15596261e+00 2.82664682e-12 5.30602388e-13 2.27730483e-16 2.29581670e-12 9.11365846e-15 5.30611407e-13
7.39545150e+00 2.79256764e-12 4.80705547e-13 1.75194023e-16 2.31168690e-12 7.83016750e-15 4.80713913e-13
7.64295536e+00 2.86804457e-12 4.35500030e-13 1.21865642e-16 2.43242268e-12 6.44065206e-15 4.35508666e-13
7.89874245e+00 3.12578634e-12 3.94544310e-13 7.22799446e-17 2.73116975e-12 4.98383045e-15 3.94554418e-13
8.16308998e+00 3.50955601e-12 3.57439049e-13 4.14790838e-17 3.15207548e-12 3.80884388e-15 3.57451415e-13
8.43628443e+00 4.02745807e-12 3.23821930e-13 2.26085847e-17 3.70361353e-12 2.83880042e-15 3.23837494e-13
8.71862190e+00 4.38792358e-12 2.93367224e-13 1.44813080e-17 4.09454188e-12 2.19293600e-15 2.93384550e-13
9.01040836e+00 4.76228188e-12 2.65776317e-13 9.30127465e-18 4.49649626e-12 1.70943809e-15 2.65795332e-13
9.31196005e+00 5.10048337e-12 2.40780561e-13 0.00000000e+00 4.85970281e-12 0.00000000e+00 2.40800541e-13
9.62360379e+00 5.05982811e-12 2.18137626e-13 0.00000000e+00 4.84169048e-12 0.00000000e+00 2.18156204e-13
9.94567731e+00 4.77654800e-12 1.97625496e-13 0.00000000e+00 4.57892250e-12 0.00000000e+00 1.97641289e-13
1.02785297e+01 4.48115693e-12 1.79042607e-13 0.00000000e+00 4.30211432e-12 0.00000000e+00 1.79055550e-13
1.06225216e+01 4.12738962e-12 1.62207078e-13 0.00000000e+00 3.96518255e-12 0.00000000e+00 1.62217572e-13
1.09780260e+01 3.77816446e-12 1.46954797e-13 0.00000000e+00 3.63120966e-12 0.00000000e+00 1.46962999e-13
1.13454280e+01 3.48167587e-12 1.33136496e-13 0.00000000e+00 3.34853938e-12 0.00000000e+00 1.33142932e-13
1.17251259e+01 3.21824265e-12 1.20617389e-13 0.00000000e+00 3.09762526e-12 0.00000000e+00 1.20622472e-13
1.21175312e+01 3.00249891e-12 1.09275415e-13 0.00000000e+00 2.89322349e-12 0.00000000e+00 1.09279408e-13
1.25230691e+01 2.80561877e-12 9.89998913e-14 0.00000000e+00 2.70661888e-12 0.00000000e+00 9.90030204e-14
1.29421791e+01 2.63050141e-12 8.96905318e-14 0.00000000e+00 2.54081088e-12 0.00000000e+00 8.96930008e-14
1.33753155e+01 2.49424465e-12 8.12565122e-14 0.00000000e+00 2.41298814e-12 0.00000000e+00 8.12584743e-14
1.38229477e+01 2.40294760e-12 7.36154804e-14 0.00000000e+00 2.32933212e-12 0.00000000e+00 7.36171115e-14
1.42855609e+01 2.36162640e-12 6.66929076e-14 0.00000000e+00 2.29493349e-12 0.00000000e+00 6.66943252e-14
1.47636563e+01 2.40804413e-12 6.04211966e-14 0.00000000e+00 2.34762293e-12 0.00000000e+00 6.04225420e-14
1.52577522e+01 2.48331018e-12 5.47392431e-14 0.00000000e+00 2.42857093e-12 0.00000000e+00 5.47405431e-14
1.57683840e+01 2.55924604e-12 4.95915943e-14 0.00000000e+00 2.50965444e-12 0.00000000e+00 4.95928665e-14
1.62961051e+01 2.63950656e-12 4.49280222e-14 0.00000000e+00 2.59457854e-12 0.00000000e+00 4.49292657e-14
1.68414875e+01 2.73177111e-12 4.07030066e-14 0.00000000e+00 2.69106810e-12 0.00000000e+00 4.07042194e-14
1.74051222e+01 2.79892759e-12 3.68753352e-14 0.00000000e+00 2.76205225e-12 0.00000000e+00 3.68764869e-14
1.79876201e+01 2.84763915e-12 3.34076303e-14 0.00000000e+00 2.81423152e-12 0.00000000e+00 3.34087056e-14
1.85896125e+01 2.85231193e-12 3.02660537e-14 0.00000000e+00 2.82204588e-12 0.00000000e+00 3.02670267e-14
1.92117518e+01 2.84751226e-12 2.74199295e-14 0.00000000e+00 2.82009233e-12 0.00000000e+00 2.74207841e-14
1.98547123e+01 2.81318082e-12 2.48414597e-14 0.00000000e+00 2.78833936e-12 0.00000000e+00 2.48421957e-14
2.05191907e+01 2.76310232e-12 2.25054644e-14 0.00000000e+00 2.74059686e-12 0.00000000e+00 2.25060919e-14
2.12059073e+01 2.73746432e-12 2.03891352e-14 0.00000000e+00 2.71707519e-12 0.00000000e+00 2.03896700e-14
2.19156062e+01 2.69932439e-12 1.84718135e-14 0.00000000e+00 2.68085257e-12 0.00000000e+00 1.84722717e-14
2.26490567e+01 2.66131396e-12 1.67347880e-14 0.00000000e+00 2.64457917e-12 0.00000000e+00 1.67351811e-14
2.34070535e+01 2.61811839e-12 1.51611048e-14 0.00000000e+00 2.60295728e-12 0.00000000e+00 1.51614426e-14
2.41904183e+01 2.58200893e-12 1.37354038e-14 0.00000000e+00 2.56827353e-12 0.00000000e+00 1.37356949e-14
2.50000000e+01 2.53438990e-12 1.24437699e-14 0.00000000e+00 2.52194613e-12 0.00000000e+00 1.24440213e-14
2.75422870e+01 2.39932483e-12 9.30621583e-15 0.00000000e+00 2.39001861e-12 0.00000000e+00 9.30637977e-15
3.16227766e+01 2.11718909e-12 6.14857407e-15 0.00000000e+00 2.11104051e-12 0.00000000e+00 6.14866414e-15
3.63078055e+01 1.76470825e-12 4.06233289e-15 0.00000000e+00 1.76064591e-12 0.00000000e+00 4.06238211e-15
4.16869383e+01 1.36713185e-12 2.68396305e-15 0.00000000e+00 1.36444789e-12 0.00000000e+00 2.68398924e-15
4.78630092e+01 9.88091731e-13 1.77328061e-15 0.00000000e+00 9.86318450e-13 0.00000000e+00 1.77329411e-15
5.49540874e+01 6.68542509e-13 1.17159699e-15 0.00000000e+00 6.67370912e-13 0.00000000e+00 1.17160380e-15
6.30957344e+01 4.28698600e-13 7.74067560e-16 0.00000000e+00 4.27924532e-13 0.00000000e+00 7.74070953e-16
7.24435960e+01 2.62743087e-13 5.11421929e-16 0.00000000e+00 2.62231665e-13 0.00000000e+00 5.11423607e-16
8.31763771e+01 1.55339756e-13 3.37893398e-16 0.00000000e+00 1.55001863e-13 0.00000000e+00 3.37894226e-16
9.54992586e+01 8.95868963e-14 2.23244091e-16 0.00000000e+00 8.93636522e-14 0.00000000e+00 2.23244502e-16
1.09647820e+02 5.06181881e-14 1.47495976e-16 0.00000000e+00 5.04706921e-14 0.00000000e+00 1.47496179e-16
1.25892541e+02 2.84509354e-14 9.74496567e-17 0.00000000e+00 2.83534858e-14 0.00000000e+00 9.74497594e-17
1.44543977e+02 1.58509623e-14 6.43843654e-17 0.00000000e+00 1.57865779e-14 0.00000000e+00 6.43844175e-17
1.65958691e+02 8.40308955e-15 4.25383372e-17 0.00000000e+00 8.36055121e-15 0.00000000e+00 4.25383628e-17
1.90546072e+02 4.44878659e-15 2.81048049e-17 0.00000000e+00 4.42068178e-15 0.00000000e+00 2.81048176e-17
2.18776162e+02 2.34684715e-15 1.85686625e-17 0.00000000e+00 2.32827849e-15 0.00000000e+00 1.85686688e-17
2.51188643e+02 1.23269961e-15 1.22681947e-17 0.00000000e+00 1.22043142e-15 0.00000000e+00 1.22681978e-17
2.88403150e+02 6.44016228e-16 8.10551636e-18 0.00000000e+00 6.35910711e-16 0.00000000e+00 8.10551794e-18
3.31131121e+02 3.35444108e-16 5.35526180e-18 0.00000000e+00 3.30088846e-16 0.00000000e+00 5.35526259e-18
3.80189396e+02 1.74080760e-16 3.53818651e-18 0.00000000e+00 1.70542574e-16 0.00000000e+00 3.53818691e-18
4.36515832e+02 9.01703842e-17 2.33765671e-18 0.00000000e+00 8.78327275e-17 0.00000000e+00 2.33765691e-18
5.01187234e+02 4.66290734e-17 1.54447450e-18 0.00000000e+00 4.50845989e-17 0.00000000e+00 1.54447460e-18
5.75439937e+02 2.40989985e-17 1.02042420e-18 0.00000000e+00 2.30785743e-17 0.00000000e+00 1.02042425e-18
6.60693448e+02 1.24603930e-17 6.74187591e-19 0.00000000e+00 1.17862054e-17 0.00000000e+00 6.74187617e-19
7.58577575e+02 6.45231815e-18 4.45431328e-19 0.00000000e+00 6.00688682e-18 0.00000000e+00 4.45431341e-19
8.70963590e+02 3.34954873e-18 2.94293562e-19 0.00000000e+00 3.05525517e-18 0.00000000e+00 2.94293569e-19
1.00000000e+03 1.55107522e-18 0.00000000e+00 0.00000000e+00 1.55107522e-18 0.00000000e+00 0.00000000e+00
