# column 1: lambda (micron)
# column 2: total flux; lambda*F_lambda (W/m2)
# column 3: direct stellar flux; lambda*F_lambda (W/m2)
# column 4: scattered stellar flux; lambda*F_lambda (W/m2)
# column 5: total dust emission flux; lambda*F_lambda (W/m2)
# column 6: dust emission scattered flux; lambda*F_lambda (W/m2)
# column 7: transparent flux; lambda*F_lambda (W/m2)
1.00000000e-03 1.04610355e-12 1.04610087e-12 2.67603963e-18 0.00000000e+00 0.00000000e+00 1.04634360e-12
1.14815362e-03 1.23464658e-12 1.23464245e-12 4.13074655e-18 0.00000000e+00 0.00000000e+00 1.23502095e-12
1.31825674e-03 1.45715907e-12 1.45715273e-12 6.34165536e-18 0.00000000e+00 0.00000000e+00 1.45772071e-12
1.51356125e-03 1.71979730e-12 1.71978749e-12 9.81823361e-18 0.00000000e+00 0.00000000e+00 1.72057784e-12
1.73780083e-03 2.02990852e-12 2.02989102e-12 1.74994902e-17 0.00000000e+00 0.00000000e+00 2.03083353e-12
1.99526231e-03 2.39559037e-12 2.39555990e-12 3.04697942e-17 0.00000000e+00 0.00000000e+00 2.39703472e-12
2.29086765e-03 2.82747099e-12 2.82742363e-12 4.73573078e-17 0.00000000e+00 0.00000000e+00 2.82926954e-12
2.63026799e-03 3.33693145e-12 3.33683446e-12 9.69952528e-17 0.00000000e+00 0.00000000e+00 3.33944522e-12
3.01995172e-03 3.93796580e-12 3.93780526e-12 1.60537646e-16 0.00000000e+00 0.00000000e+00 3.94161611e-12
3.46736850e-03 4.64733089e-12 4.64706961e-12 2.61287336e-16 0.00000000e+00 0.00000000e+00 4.65237083e-12
3.98107171e-03 5.48456377e-12 5.48412757e-12 4.36194077e-16 0.00000000e+00 0.00000000e+00 5.49128930e-12
4.57088190e-03 6.47678111e-12 6.47584222e-12 9.38893514e-16 0.00000000e+00 0.00000000e+00 6.48148207e-12
5.24807460e-03 7.64347305e-12 7.64172570e-12 1.74734264e-15 0.00000000e+00 0.00000000e+00 7.65022704e-12
6.02559586e-03 9.02082017e-12 9.01762338e-12 3.19678668e-15 0.00000000e+00 0.00000000e+00 9.02972084e-12
6.91830971e-03 1.06462422e-11 1.06414878e-11 4.75437890e-15 0.00000000e+00 0.00000000e+00 1.06579658e-11
7.94328235e-03 1.25664824e-11 1.25581201e-11 8.36238597e-15 1.06586447e-303 2.42246579e-306 1.25798170e-11
9.12010839e-03 1.48399022e-11 1.48198017e-11 2.01005530e-14 4.64868163e-265 4.22192704e-267 1.48482176e-11
1.04712855e-02 1.65744200e-11 1.65496684e-11 2.47516774e-14 1.93316772e-231 6.78634203e-234 1.65834298e-11
1.20226443e-02 1.65821296e-11 1.65476780e-11 3.44516414e-14 3.03181730e-202 4.30294924e-204 1.65834298e-11
1.38038426e-02 1.66066584e-11 1.65453175e-11 6.13408853e-14 8.16539629e-177 9.17079282e-179 1.65834298e-11
1.58489319e-02 1.66120775e-11 1.65424171e-11 6.96604569e-14 1.09808161e-154 1.45274663e-156 1.65834298e-11
1.81970086e-02 1.66282243e-11 1.65397424e-11 8.84819472e-14 1.94810111e-135 2.85207952e-137 1.65834298e-11
2.08929613e-02 1.66538497e-11 1.65375195e-11 1.16330210e-13 1.01824356e-118 2.22610633e-120 1.65834298e-11
2.39883292e-02 1.66878648e-11 1.65346398e-11 1.53224978e-13 3.57177774e-104 9.93587638e-106 1.65834298e-11
2.75422870e-02 1.67355396e-11 1.65312909e-11 2.04248715e-13 1.59989937e-91 5.51665820e-93 1.65834298e-11
3.16227766e-02 1.67706072e-11 1.65280089e-11 2.42598382e-13 1.56319513e-80 6.61529346e-82 1.65834298e-11
3.63078055e-02 1.68048314e-11 1.65254351e-11 2.79396345e-13 5.42798177e-71 2.62568061e-72 1.65834298e-11
4.16869383e-02 1.69031461e-11 1.65232092e-11 3.79936889e-13 1.04170002e-62 6.69265988e-64 1.65834298e-11
4.78630092e-02 1.70033212e-11 1.65170754e-11 4.86245801e-13 1.58881346e-55 1.28159185e-56 1.65834298e-11
5.49540874e-02 1.70742691e-11 1.65085488e-11 5.65720236e-13 2.66148422e-49 2.52786138e-50 1.65834298e-11
6.30957344e-02 1.71233016e-11 1.64871879e-11 6.36113652e-13 8.64653260e-44 9.30988911e-45 1.65834298e-11
7.24435960e-02 1.70387918e-11 1.64619214e-11 5.76870395e-13 4.96412116e-39 4.98278823e-40 1.65834298e-11
8.31763771e-02 1.70269977e-11 1.64641682e-11 5.62829479e-13 5.07308822e-35 5.03901275e-36 1.65834298e-11
9.54992586e-02 1.70469667e-11 1.64707596e-11 5.76207089e-13 1.42966558e-31 1.45807040e-32 1.65834298e-11
1.09647820e-01 1.63658228e-11 1.57476192e-11 6.18203642e-13 1.22076402e-28 1.36993265e-29 1.58370587e-11
1.25892541e-01 1.52870974e-11 1.47112603e-11 5.75837157e-13 3.94182178e-26 4.29033801e-27 1.47800032e-11
1.44543977e-01 1.42766008e-11 1.37403056e-11 5.36295229e-13 5.35230271e-24 5.66554600e-25 1.37935015e-11
1.65958691e-01 1.33780247e-11 1.28294168e-11 5.48607910e-13 2.72277595e-22 3.14543910e-23 1.28728446e-11
1.90546072e-01 1.25630789e-11 1.19704039e-11 5.92675022e-13 5.78387411e-21 7.69777566e-22 1.20136376e-11
2.18776162e-01 1.17118332e-11 1.11644643e-11 5.47368804e-13 6.86604307e-20 9.53823062e-21 1.12117790e-11
2.51188643e-01 1.10466510e-11 1.04281122e-11 6.18537998e-13 8.43934785e-19 1.39031752e-19 1.04634409e-11
2.88403150e-01 1.03127585e-11 9.73766981e-12 5.75081680e-13 6.99495170e-18 1.12393125e-18 9.76505125e-12
3.31131121e-01 9.62808475e-12 9.09099621e-12 5.37048472e-13 4.00603600e-17 6.33013453e-18 9.11327608e-12
3.80189396e-01 8.97639387e-12 8.48674213e-12 4.89484731e-13 1.67000678e-16 2.59573620e-17 8.50500410e-12
4.36515832e-01 8.36659131e-12 7.92249676e-12 4.43557780e-13 5.36765691e-16 8.45367317e-17 7.93733165e-12
5.01187234e-01 7.80735902e-12 7.39566108e-12 4.10268848e-13 1.42909215e-15 2.40235691e-16 7.40754890e-12
5.75439937e-01 7.27955703e-12 6.90369897e-12 3.72258610e-13 3.59945281e-15 7.04552620e-16 6.91312687e-12
6.60693448e-01 6.79327802e-12 6.44429311e-12 3.39296445e-13 9.68846258e-15 2.33017791e-15 6.45170538e-12
7.58577575e-01 6.34137014e-12 6.01532509e-12 2.97689415e-13 2.83556367e-14 7.70380793e-15 6.02108180e-12
8.70963590e-01 5.95546487e-12 5.61482863e-12 2.59628612e-13 8.10076313e-14 2.24225136e-14 5.61920048e-12
1.00000000e+00 5.66994365e-12 5.24087652e-12 2.20894730e-13 2.08172394e-13 5.54977082e-14 5.24414302e-12
1.14815362e+00 5.55419654e-12 4.89172180e-12 1.79188875e-13 4.83285864e-13 1.19352031e-13 4.89411902e-12
1.31825674e+00 5.70057809e-12 4.56572892e-12 1.42048127e-13 9.92801044e-13 2.17391718e-13 4.56745763e-12
1.51356125e+00 6.20364707e-12 4.26136546e-12 1.09974554e-13 1.83230706e-12 3.42979997e-13 4.26259947e-12
1.73780083e+00 7.05243046e-12 3.97722273e-12 8.37457558e-14 2.99146197e-12 4.72982256e-13 3.97808929e-12
1.99526231e+00 8.18408917e-12 3.71196997e-12 6.19412666e-14 4.41017793e-12 5.61289407e-13 3.71256894e-12
2.29086765e+00 9.37345393e-12 3.46435821e-12 4.60190746e-14 5.86307665e-12 5.87628075e-13 3.46477093e-12
2.63026799e+00 1.04943772e-11 3.23322532e-12 3.25324058e-14 7.22861952e-12 5.54042054e-13 3.23351237e-12
3.01995172e+00 1.13566723e-11 3.01748711e-12 2.30221840e-14 8.31616303e-12 4.80902461e-13 3.01768933e-12
3.46736850e+00 1.18404589e-11 2.81612677e-12 1.58196339e-14 9.00851253e-12 3.82480654e-13 2.81627154e-12
3.98107171e+00 1.19998082e-11 2.62819255e-12 1.08932583e-14 9.36072237e-12 2.89006144e-13 2.62829753e-12
4.57088190e+00 1.17998765e-11 2.45279282e-12 7.08493595e-15 9.33999880e-12 2.01475956e-13 2.45286997e-12
5.24807460e+00 1.11433212e-11 2.02809626e-12 3.99489926e-15 9.11123001e-12 1.32224296e-13 2.02814751e-12
6.02559586e+00 1.01600273e-11 1.33995563e-12 1.71173880e-15 8.81835994e-12 8.29256666e-14 1.33998377e-12
6.70000000e+00 9.44852858e-12 9.74691230e-13 8.64174222e-16 8.47297317e-12 5.51720411e-14 9.74709347e-13
6.92422916e+00 9.25758988e-12 8.83034051e-13 7.00571407e-16 8.37385525e-12 4.82691104e-14 8.83049889e-13
7.15596261e+00 9.10553263e-12 7.99995781e-13 5.51979064e-16 8.30498487e-12 4.16892253e-14 8.00009879e-13
7.39545150e+00 9.08798187e-12 7.24765686e-13 4.22061469e-16 8.36279413e-12 3.58420428e-14 7.24778763e-13
7.64295536e+00 9.42623854e-12 6.56608712e-13 2.97975267e-16 8.76933186e-12 2.99232475e-14 6.56622211e-13
7.89874245e+00 1.02726646e-11 5.94859145e-13 1.83984870e-16 9.67762148e-12 2.37312559e-14 5.94874946e-13
8.16308998e+00 1.13855712e-11 5.38914926e-13 1.08957843e-16 1.08465473e-11 1.84916521e-14 5.38934254e-13
8.43628443e+00 1.27653043e-11 4.88229770e-13 6.05845523e-17 1.22770139e-11 1.38258905e-14 4.88254098e-13
8.71862190e+00 1.35922838e-11 4.42312708e-13 3.79682071e-17 1.31499331e-11 1.08742913e-14 4.42339790e-13
9.01040836e+00 1.43883301e-11 4.00713436e-13 2.27518652e-17 1.39875939e-11 8.29325840e-15 4.00743158e-13
9.31196005e+00 1.49589057e-11 3.63026949e-13 0.00000000e+00 1.45958788e-11 0.00000000e+00 3.63058180e-13
9.62360379e+00 1.48372131e-11 3.28887972e-13 0.00000000e+00 1.45083251e-11 0.00000000e+00 3.28917012e-13
9.94567731e+00 1.42427837e-11 2.97961716e-13 0.00000000e+00 1.39448220e-11 0.00000000e+00 2.97986401e-13
1.02785297e+01 1.34792867e-11 2.69944204e-13 0.00000000e+00 1.32093425e-11 0.00000000e+00 2.69964435e-13
1.06225216e+01 1.27651022e-11 2.44561188e-13 0.00000000e+00 1.25205410e-11 0.00000000e+00 2.44577592e-13
1.09780260e+01 1.19768533e-11 2.21565249e-13 0.00000000e+00 1.17552880e-11 0.00000000e+00 2.21578069e-13
1.13454280e+01 1.12482092e-11 2.00731310e-13 0.00000000e+00 1.10474779e-11 0.00000000e+00 2.00741370e-13
1.17251259e+01 1.06760007e-11 1.81856161e-13 0.00000000e+00 1.04941446e-11 0.00000000e+00 1.81864106e-13
1.21175312e+01 1.00579384e-11 1.64755776e-13 0.00000000e+00 9.89318262e-12 0.00000000e+00 1.64762018e-13
1.25230691e+01 9.52649136e-12 1.49263280e-13 0.00000000e+00 9.37722808e-12 0.00000000e+00 1.49268171e-13
1.29421791e+01 9.08047138e-12 1.35227471e-13 0.00000000e+00 8.94524391e-12 0.00000000e+00 1.35231331e-13
1.33753155e+01 8.62499280e-12 1.22511416e-13 0.00000000e+00 8.50248138e-12 0.00000000e+00 1.22514483e-13
1.38229477e+01 8.35801166e-12 1.10990949e-13 0.00000000e+00 8.24702072e-12 0.00000000e+00 1.10993499e-13
1.42855609e+01 8.19363249e-12 1.00553706e-13 0.00000000e+00 8.09307879e-12 0.00000000e+00 1.00555922e-13
1.47636563e+01 8.33142878e-12 9.10977675e-14 0.00000000e+00 8.24033101e-12 0.00000000e+00 9.10998706e-14
1.52577522e+01 8.50333133e-12 8.25310131e-14 0.00000000e+00 8.42080032e-12 0.00000000e+00 8.25330452e-14
1.57683840e+01 8.75344690e-12 7.47698361e-14 0.00000000e+00 8.67867706e-12 0.00000000e+00 7.47718247e-14
1.62961051e+01 8.99596764e-12 6.77385080e-14 0.00000000e+00 8.92822914e-12 0.00000000e+00 6.77404517e-14
1.68414875e+01 9.20769779e-12 6.13683975e-14 0.00000000e+00 9.14632939e-12 0.00000000e+00 6.13702932e-14
1.74051222e+01 9.33501682e-12 5.55973697e-14 0.00000000e+00 9.27941945e-12 0.00000000e+00 5.55991699e-14
1.79876201e+01 9.39760141e-12 5.03690692e-14 0.00000000e+00 9.34723234e-12 0.00000000e+00 5.03707500e-14
1.85896125e+01 9.38417880e-12 4.56324780e-14 0.00000000e+00 9.33854632e-12 0.00000000e+00 4.56339988e-14
1.92117518e+01 9.22728892e-12 4.13413452e-14 0.00000000e+00 9.18594757e-12 0.00000000e+00 4.13426810e-14
1.98547123e+01 9.04637869e-12 3.74537585e-14 0.00000000e+00 9.00892493e-12 0.00000000e+00 3.74549090e-14
2.05191907e+01 8.83193450e-12 3.39317534e-14 0.00000000e+00 8.79800274e-12 0.00000000e+00 3.39327342e-14
2.12059073e+01 8.61287187e-12 3.07409408e-14 0.00000000e+00 8.58213092e-12 0.00000000e+00 3.07417768e-14
2.19156062e+01 8.34623929e-12 2.78501737e-14 0.00000000e+00 8.31838912e-12 0.00000000e+00 2.78508898e-14
2.26490567e+01 8.13761117e-12 2.52312408e-14 0.00000000e+00 8.11237993e-12 0.00000000e+00 2.52318552e-14
2.34070535e+01 7.87945936e-12 2.28585807e-14 0.00000000e+00 7.85660078e-12 0.00000000e+00 2.28591087e-14
2.41904183e+01 7.63956037e-12 2.07090349e-14 0.00000000e+00 7.61885134e-12 0.00000000e+00 2.07094900e-14
2.50000000e+01 7.38917014e-12 1.87616235e-14 0.00000000e+00 7.37040851e-12 0.00000000e+00 1.87620165e-14
2.75422870e+01 6.60335856e-12 1.40310964e-14 0.00000000e+00 6.58932746e-12 0.00000000e+00 1.40313526e-14
3.16227766e+01 5.38507674e-12 9.27028195e-15 0.00000000e+00 5.37580646e-12 0.00000000e+00 9.27042274e-15
3.63078055e+01 4.13493216e-12 6.12483062e-15 0.00000000e+00 4.12880733e-12 0.00000000e+00 6.12490756e-15
4.16869383e+01 2.95611037e-12 4.04664536e-15 0.00000000e+00 2.95206373e-12 0.00000000e+00 4.04668630e-15
4.78630092e+01 1.97058313e-12 2.67359802e-15 0.00000000e+00 1.96790953e-12 0.00000000e+00 2.67361912e-15
5.49540874e+01 1.24191773e-12 1.76643199e-15 0.00000000e+00 1.24015130e-12 0.00000000e+00 1.76644264e-15
6.30957344e+01 7.46293407e-13 1.16707177e-15 0.00000000e+00 7.45126335e-13 0.00000000e+00 1.16707708e-15
7.24435960e+01 4.32290684e-13 7.71077554e-16 0.00000000e+00 4.31519606e-13 0.00000000e+00 7.71080178e-16
8.31763771e+01 2.43798750e-13 5.09446326e-16 0.00000000e+00 2.43289304e-13 0.00000000e+00 5.09447621e-16
9.54992586e+01 1.34862044e-13 3.36588064e-16 0.00000000e+00 1.34525456e-13 0.00000000e+00 3.36588705e-16
1.09647820e+02 7.35617942e-14 2.22381634e-16 0.00000000e+00 7.33394126e-14 0.00000000e+00 2.22381952e-16
1.25892541e+02 4.01635480e-14 1.46926138e-16 0.00000000e+00 4.00166219e-14 0.00000000e+00 1.46926299e-16
1.44543977e+02 2.18410845e-14 9.70731615e-17 0.00000000e+00 2.17440113e-14 0.00000000e+00 9.70732430e-17
1.65958691e+02 1.13303055e-14 6.41356157e-17 0.00000000e+00 1.12661699e-14 0.00000000e+00 6.41356556e-17
1.90546072e+02 5.89107638e-15 4.23739877e-17 0.00000000e+00 5.84870240e-15 0.00000000e+00 4.23740075e-17
2.18776162e+02 3.06236843e-15 2.79962192e-17 0.00000000e+00 3.03437221e-15 0.00000000e+00 2.79962291e-17
2.51188643e+02 1.58856522e-15 1.84969202e-17 0.00000000e+00 1.57006830e-15 0.00000000e+00 1.84969251e-17
2.88403150e+02 8.21390622e-16 1.22207948e-17 0.00000000e+00 8.09169827e-16 0.00000000e+00 1.22207972e-17
3.31131121e+02 4.24228508e-16 8.07419943e-18 0.00000000e+00 4.16154308e-16 0.00000000e+00 8.07420067e-18
3.80189396e+02 2.18642439e-16 5.33457086e-18 0.00000000e+00 2.13307868e-16 0.00000000e+00 5.33457148e-18
4.36515832e+02 1.12644166e-16 3.52451611e-18 0.00000000e+00 1.09119650e-16 0.00000000e+00 3.52451642e-18
5.01187234e+02 5.80171448e-17 2.32862475e-18 0.00000000e+00 5.56885201e-17 0.00000000e+00 2.32862491e-18
5.75439937e+02 2.99046996e-17 1.53850714e-18 0.00000000e+00 2.83661924e-17 0.00000000e+00 1.53850722e-18
6.60693448e+02 1.54415776e-17 1.01648160e-18 0.00000000e+00 1.44250960e-17 0.00000000e+00 1.01648164e-18
7.58577575e+02 7.99664232e-18 6.71582740e-19 0.00000000e+00 7.32505958e-18 0.00000000e+00 6.71582760e-19
8.70963590e+02 4.15769825e-18 4.43710319e-19 0.00000000e+00 3.71398793e-18 0.00000000e+00 4.43710329e-19
1.00000000e+03 1.88041720e-18 0.00000000e+00 0.00000000e+00 1.88041720e-18 0.00000000e+00 0.00000000e+00
