# column 1: lambda (micron)
# column 2: total flux; lambda*F_lambda (W/m2)
# column 3: direct stellar flux; lambda*F_lambda (W/m2)
# column 4: scattered stellar flux; lambda*F_lambda (W/m2)
# column 5: total dust emission flux; lambda*F_lambda (W/m2)
# column 6: dust emission scattered flux; lambda*F_lambda (W/m2)
# column 7: transparent flux; lambda*F_lambda (W/m2)
1.00000000e-03 9.68073346e-13 9.68073281e-13 6.53410866e-20 0.00000000e+00 0.00000000e+00 9.68073281e-13
1.14815362e-03 1.14263698e-12 1.14263687e-12 1.06390658e-19 0.00000000e+00 0.00000000e+00 1.14263687e-12
1.31825674e-03 1.34867804e-12 1.34867788e-12 1.67481768e-19 0.00000000e+00 0.00000000e+00 1.34867788e-12
1.51356125e-03 1.59187259e-12 1.59187233e-12 2.61296922e-19 0.00000000e+00 0.00000000e+00 1.59187233e-12
1.73780083e-03 1.87892023e-12 1.87891976e-12 4.69197235e-19 0.00000000e+00 0.00000000e+00 1.87891976e-12
1.99526231e-03 2.21772866e-12 2.21772777e-12 8.93464884e-19 0.00000000e+00 0.00000000e+00 2.21772777e-12
2.29086765e-03 2.61763130e-12 2.61762985e-12 1.45053119e-18 0.00000000e+00 0.00000000e+00 2.61762985e-12
2.63026799e-03 3.08964532e-12 3.08964252e-12 2.80005135e-18 0.00000000e+00 0.00000000e+00 3.08964252e-12
3.01995172e-03 3.64677349e-12 3.64676883e-12 4.65843588e-18 0.00000000e+00 0.00000000e+00 3.64676883e-12
3.46736850e-03 4.30436457e-12 4.30435650e-12 8.06891764e-18 0.00000000e+00 0.00000000e+00 4.30435650e-12
3.98107171e-03 5.08053435e-12 5.08052080e-12 1.35463063e-17 0.00000000e+00 0.00000000e+00 5.08052080e-12
4.57088190e-03 5.99667248e-12 5.99664354e-12 2.89425778e-17 0.00000000e+00 0.00000000e+00 5.99664354e-12
5.24807460e-03 7.07801191e-12 7.07796211e-12 4.97930940e-17 0.00000000e+00 0.00000000e+00 7.07796211e-12
6.02559586e-03 8.35435935e-12 8.35426474e-12 9.46105836e-17 0.00000000e+00 0.00000000e+00 8.35426474e-12
6.91830971e-03 9.86085825e-12 9.86071107e-12 1.47176828e-16 0.00000000e+00 0.00000000e+00 9.86071107e-12
7.94328235e-03 1.16390576e-11 1.16388008e-11 2.56848467e-16 0.00000000e+00 0.00000000e+00 1.16388008e-11
9.12010839e-03 1.37379256e-11 1.37375167e-11 4.08870097e-16 0.00000000e+00 0.00000000e+00 1.37375167e-11
1.04712855e-02 1.53434996e-11 1.53429287e-11 5.70966058e-16 0.00000000e+00 0.00000000e+00 1.53429287e-11
1.20226443e-02 1.53438134e-11 1.53429287e-11 8.84783611e-16 0.00000000e+00 0.00000000e+00 1.53429287e-11
1.38038426e-02 1.53441107e-11 1.53429287e-11 1.18198792e-15 5.39250438e-281 9.79787895e-284 1.53429287e-11
1.58489319e-02 1.53445095e-11 1.53429287e-11 1.58084340e-15 1.08691695e-245 2.84982629e-248 1.53429287e-11
1.81970086e-02 1.53452053e-11 1.53429287e-11 2.27662825e-15 5.76956486e-215 2.32470969e-217 1.53429287e-11
2.08929613e-02 1.53472262e-11 1.53429287e-11 4.29754738e-15 2.96377331e-188 1.47837150e-190 1.53429287e-11
2.39883292e-02 1.53477326e-11 1.53429287e-11 4.80397536e-15 5.25683437e-165 3.83843838e-167 1.53429287e-11
2.75422870e-02 1.53487428e-11 1.53429287e-11 5.81415286e-15 8.95490002e-145 8.36186064e-147 1.53429287e-11
3.16227766e-02 1.53505219e-11 1.53429287e-11 7.59328103e-15 3.49656474e-127 4.14149632e-129 1.53429287e-11
3.63078055e-02 1.53520651e-11 1.53429287e-11 9.13647340e-15 6.83819239e-112 9.73000901e-114 1.53429287e-11
4.16869383e-02 1.53563700e-11 1.53429287e-11 1.34413769e-14 1.33490309e-98 2.75820269e-100 1.53429287e-11
4.78630092e-02 1.53615000e-11 1.53429287e-11 1.85713424e-14 4.73015350e-87 1.42616231e-88 1.53429287e-11
5.49540874e-02 1.53678770e-11 1.53429287e-11 2.49482980e-14 5.15939261e-77 2.09934425e-78 1.53429287e-11
6.30957344e-02 1.53753454e-11 1.53429287e-11 3.24166971e-14 3.69011534e-68 2.14461959e-69 1.53429287e-11
7.24435960e-02 1.53755800e-11 1.53429287e-11 3.26513792e-14 1.86267857e-60 1.24354354e-61 1.53429287e-11
8.31763771e-02 1.53751159e-11 1.53429287e-11 3.21872266e-14 7.62965914e-54 5.70614891e-55 1.53429287e-11
9.54992586e-02 1.53765459e-11 1.53429287e-11 3.36172440e-14 4.43225133e-48 3.85677687e-49 1.53429287e-11
1.09647820e-01 1.46867302e-11 1.46523889e-11 3.43413613e-14 4.35061796e-43 4.25407423e-44 1.46523889e-11
1.25892541e-01 1.37028067e-11 1.36744049e-11 2.84017362e-14 9.55974129e-39 9.30452634e-40 1.36744049e-11
1.44543977e-01 1.27876858e-11 1.27616972e-11 2.59885594e-14 5.42617100e-35 4.99350899e-36 1.27616972e-11
1.65958691e-01 1.19358673e-11 1.19099088e-11 2.59584581e-14 7.39138206e-32 7.18789597e-33 1.19099088e-11
1.90546072e-01 1.11462902e-11 1.11149736e-11 3.13166031e-14 2.81558066e-29 3.32705930e-30 1.11149736e-11
2.18776162e-01 1.04060022e-11 1.03730969e-11 3.29052341e-14 4.23098517e-27 5.51570577e-28 1.03730969e-11
2.51188643e-01 9.71828946e-12 9.68073733e-12 3.75521278e-14 5.07756751e-25 7.38369985e-26 9.68073733e-12
2.88403150e-01 9.06703778e-12 9.03458975e-12 3.24480326e-14 3.20246042e-23 4.36486573e-24 9.03458975e-12
3.31131121e-01 8.46005275e-12 8.43156974e-12 2.84830074e-14 1.11889445e-21 1.43248710e-22 8.43156974e-12
3.80189396e-01 7.89412364e-12 7.86879872e-12 2.53248920e-14 2.37164990e-20 2.88387152e-21 7.86879872e-12
4.36515832e-01 7.36795871e-12 7.34359025e-12 2.43681335e-14 3.26295312e-19 3.82727962e-20 7.34359025e-12
5.01187234e-01 6.87615493e-12 6.85343719e-12 2.27146674e-14 3.08035377e-18 3.46100226e-19 6.85343719e-12
5.75439937e-01 6.41688920e-12 6.39599973e-12 2.08684391e-14 2.10371260e-17 2.27644337e-18 6.39599973e-12
6.60693448e-01 5.98880816e-12 5.96909425e-12 1.96050975e-14 1.08809307e-16 1.14139533e-17 5.96909425e-12
7.58577575e-01 5.58925604e-12 5.57068288e-12 1.81252121e-14 4.47945562e-16 4.51233464e-17 5.57068288e-12
8.70963590e-01 5.21689320e-12 5.19886376e-12 1.65128535e-14 1.51658631e-15 1.44670433e-16 5.19886376e-12
1.00000000e+00 4.87054080e-12 4.85186196e-12 1.43601257e-14 4.31871393e-15 3.87016872e-16 4.85186196e-12
1.14815362e+00 4.55076743e-12 4.52802104e-12 1.19284361e-14 1.08179511e-14 8.89099582e-16 4.52802104e-12
1.31825674e+00 4.25909521e-12 4.22579511e-12 9.10410195e-15 2.41959959e-14 1.80688252e-15 4.22579511e-12
1.51356125e+00 3.99932927e-12 3.94374146e-12 7.46323044e-15 4.81245786e-14 3.12876812e-15 3.94374146e-12
1.73780083e+00 3.77103761e-12 3.68051368e-12 5.66246140e-15 8.48614673e-14 4.65320986e-15 3.68051368e-12
1.99526231e+00 3.57185394e-12 3.43485522e-12 4.05671394e-15 1.32942005e-13 5.95962359e-15 3.43485522e-12
2.29086765e+00 3.39564744e-12 3.20559341e-12 2.84770636e-15 1.87206322e-13 6.66453915e-15 3.20559341e-12
2.63026799e+00 3.23406228e-12 2.99163384e-12 1.88102734e-15 2.40547418e-13 6.59361133e-15 2.99163384e-12
3.01995172e+00 3.07790115e-12 2.79195514e-12 1.30000356e-15 2.84645998e-13 5.86468250e-15 2.79195514e-12
3.46736850e+00 2.92032828e-12 2.60560415e-12 9.23985781e-16 3.13800148e-13 4.86138238e-15 2.60560415e-12
3.98107171e+00 2.75692788e-12 2.43169128e-12 6.08142901e-16 3.24628462e-13 3.71142679e-15 2.43169128e-12
4.57088190e+00 2.58832838e-12 2.26938634e-12 3.77462960e-16 3.18564575e-13 2.64446740e-15 2.26938634e-12
5.24807460e+00 2.17681833e-12 1.87643467e-12 2.24715816e-16 3.00158944e-13 1.72549471e-15 1.87643467e-12
6.02559586e+00 1.51539884e-12 1.23974809e-12 9.47485913e-17 2.75555995e-13 1.05888992e-15 1.23974809e-12
6.70000000e+00 1.15585600e-12 9.01797527e-13 4.96214363e-17 2.54008853e-13 6.86331564e-16 9.01797527e-13
6.92422916e+00 1.06363110e-12 8.16994532e-13 3.73893884e-17 2.46599176e-13 5.94588349e-16 8.16994532e-13
7.15596261e+00 9.81984803e-13 7.40166218e-13 3.14502367e-17 2.41787135e-13 5.05933642e-16 7.40166218e-13
7.39545150e+00 9.13907463e-13 6.70562664e-13 2.40631681e-17 2.43320736e-13 4.33378361e-16 6.70562664e-13
7.64295536e+00 8.69684529e-13 6.07504471e-13 1.65258336e-17 2.62163533e-13 3.65170052e-16 6.07504471e-13
7.89874245e+00 8.59055246e-13 5.50376127e-13 1.01493520e-17 3.08668970e-13 2.94608180e-16 5.50376127e-13
8.16308998e+00 8.74725081e-13 4.98620004e-13 5.84262468e-18 3.76099235e-13 2.38416168e-16 4.98620004e-13
8.43628443e+00 9.25851684e-13 4.51730909e-13 3.50419465e-18 4.74117271e-13 1.85132305e-16 4.51730909e-13
8.71862190e+00 9.52338928e-13 4.09251158e-13 2.08354294e-18 5.43085687e-13 1.46959665e-16 4.09251158e-13
9.01040836e+00 9.86652823e-13 3.70766106e-13 1.40380158e-18 6.15885313e-13 1.12521462e-16 3.70766106e-13
9.31196005e+00 1.01054110e-12 3.35900102e-13 0.00000000e+00 6.74640996e-13 0.00000000e+00 3.35900102e-13
9.62360379e+00 9.78059172e-13 3.04312818e-13 0.00000000e+00 6.73746354e-13 0.00000000e+00 3.04312818e-13
9.94567731e+00 9.00719353e-13 2.75695930e-13 0.00000000e+00 6.25023423e-13 0.00000000e+00 2.75695930e-13
1.02785297e+01 8.14595067e-13 2.49770110e-13 0.00000000e+00 5.64824957e-13 0.00000000e+00 2.49770110e-13
1.06225216e+01 7.33927569e-13 2.26282295e-13 0.00000000e+00 5.07645274e-13 0.00000000e+00 2.26282295e-13
1.09780260e+01 6.49249658e-13 2.05003220e-13 0.00000000e+00 4.44246438e-13 0.00000000e+00 2.05003220e-13
1.13454280e+01 5.75803771e-13 1.85725182e-13 0.00000000e+00 3.90078589e-13 0.00000000e+00 1.85725182e-13
1.17251259e+01 5.13112892e-13 1.68260007e-13 0.00000000e+00 3.44852885e-13 0.00000000e+00 1.68260007e-13
1.21175312e+01 4.56901247e-13 1.52437217e-13 0.00000000e+00 3.04464029e-13 0.00000000e+00 1.52437217e-13
1.25230691e+01 4.06452176e-13 1.38102367e-13 0.00000000e+00 2.68349809e-13 0.00000000e+00 1.38102367e-13
1.29421791e+01 3.64312952e-13 1.25115533e-13 0.00000000e+00 2.39197418e-13 0.00000000e+00 1.25115533e-13
1.33753155e+01 3.27993976e-13 1.13349952e-13 0.00000000e+00 2.14644023e-13 0.00000000e+00 1.13349952e-13
1.38229477e+01 3.01332807e-13 1.02690779e-13 0.00000000e+00 1.98642028e-13 0.00000000e+00 1.02690779e-13
1.42855609e+01 2.82804612e-13 9.30339713e-14 0.00000000e+00 1.89770640e-13 0.00000000e+00 9.30339713e-14
1.47636563e+01 2.76704397e-13 8.42852675e-14 0.00000000e+00 1.92419130e-13 0.00000000e+00 8.42852675e-14
1.52577522e+01 2.73717814e-13 7.63592720e-14 0.00000000e+00 1.97358542e-13 0.00000000e+00 7.63592720e-14
1.57683840e+01 2.74008780e-13 6.91786191e-14 0.00000000e+00 2.04830161e-13 0.00000000e+00 6.91786191e-14
1.62961051e+01 2.74828718e-13 6.26732185e-14 0.00000000e+00 2.12155500e-13 0.00000000e+00 6.26732185e-14
1.68414875e+01 2.76716809e-13 5.67795711e-14 0.00000000e+00 2.19937238e-13 0.00000000e+00 5.67795711e-14
1.74051222e+01 2.75433796e-13 5.14401489e-14 0.00000000e+00 2.23993647e-13 0.00000000e+00 5.14401489e-14
1.79876201e+01 2.72053051e-13 4.66028339e-14 0.00000000e+00 2.25450217e-13 0.00000000e+00 4.66028339e-14
1.85896125e+01 2.64519422e-13 4.22204090e-14 0.00000000e+00 2.22299013e-13 0.00000000e+00 4.22204090e-14
1.92117518e+01 2.53982813e-13 3.82500974e-14 0.00000000e+00 2.15732716e-13 0.00000000e+00 3.82500974e-14
1.98547123e+01 2.41825755e-13 3.46531450e-14 0.00000000e+00 2.07172610e-13 0.00000000e+00 3.46531450e-14
2.05191907e+01 2.29317747e-13 3.13944418e-14 0.00000000e+00 1.97923305e-13 0.00000000e+00 3.13944418e-14
2.12059073e+01 2.17304932e-13 2.84421796e-14 0.00000000e+00 1.88862752e-13 0.00000000e+00 2.84421796e-14
2.19156062e+01 2.06994560e-13 2.57675415e-14 0.00000000e+00 1.81227018e-13 0.00000000e+00 2.57675415e-14
2.26490567e+01 1.98053742e-13 2.33444203e-14 0.00000000e+00 1.74709322e-13 0.00000000e+00 2.33444203e-14
2.34070535e+01 1.90136650e-13 2.11491639e-14 0.00000000e+00 1.68987486e-13 0.00000000e+00 2.11491639e-14
2.41904183e+01 1.81826110e-13 1.91603445e-14 0.00000000e+00 1.62665765e-13 0.00000000e+00 1.91603445e-14
2.50000000e+01 1.75307651e-13 1.73585491e-14 0.00000000e+00 1.57949102e-13 0.00000000e+00 1.73585491e-14
2.75422870e+01 1.56725880e-13 1.29817562e-14 0.00000000e+00 1.43744124e-13 0.00000000e+00 1.29817562e-14
3.16227766e+01 1.34398991e-13 8.57696126e-15 0.00000000e+00 1.25822029e-13 0.00000000e+00 8.57696126e-15
3.63078055e+01 1.12488661e-13 5.66674211e-15 0.00000000e+00 1.06821918e-13 0.00000000e+00 5.66674211e-15
4.16869383e+01 9.00292245e-14 3.74397938e-15 0.00000000e+00 8.62852451e-14 0.00000000e+00 3.74397938e-15
4.78630092e+01 6.85463925e-14 2.47362265e-15 0.00000000e+00 6.60727699e-14 0.00000000e+00 2.47362265e-15
5.49540874e+01 4.96846782e-14 1.63430628e-15 0.00000000e+00 4.80503719e-14 0.00000000e+00 1.63430628e-15
6.30957344e+01 3.44374263e-14 1.07977545e-15 0.00000000e+00 3.33576508e-14 0.00000000e+00 1.07977545e-15
7.24435960e+01 2.29185464e-14 7.13400564e-16 0.00000000e+00 2.22051458e-14 0.00000000e+00 7.13400564e-16
8.31763771e+01 1.47341114e-14 4.71339078e-16 0.00000000e+00 1.42627723e-14 0.00000000e+00 4.71339078e-16
9.54992586e+01 9.19602440e-15 3.11410641e-16 0.00000000e+00 8.88461376e-15 0.00000000e+00 3.11410641e-16
1.09647820e+02 5.59555670e-15 2.05746970e-16 0.00000000e+00 5.38980973e-15 0.00000000e+00 2.05746970e-16
1.25892541e+02 3.36729714e-15 1.35935675e-16 0.00000000e+00 3.23136146e-15 0.00000000e+00 1.35935675e-16
1.44543977e+02 1.99494621e-15 8.98118099e-17 0.00000000e+00 1.90513440e-15 0.00000000e+00 8.98118099e-17
1.65958691e+02 1.12163078e-15 5.93380743e-17 0.00000000e+00 1.06229270e-15 0.00000000e+00 5.93380743e-17
1.90546072e+02 6.26658044e-16 3.92042769e-17 0.00000000e+00 5.87453767e-16 0.00000000e+00 3.92042769e-17
2.18776162e+02 3.47660690e-16 2.59020089e-17 0.00000000e+00 3.21758681e-16 0.00000000e+00 2.59020089e-17
2.51188643e+02 1.91606271e-16 1.71132876e-17 0.00000000e+00 1.74492983e-16 0.00000000e+00 1.71132876e-17
2.88403150e+02 1.04938250e-16 1.13066370e-17 0.00000000e+00 9.36316132e-17 0.00000000e+00 1.13066370e-17
3.31131121e+02 5.73250968e-17 7.47022097e-18 0.00000000e+00 4.98548759e-17 0.00000000e+00 7.47022097e-18
3.80189396e+02 3.12670738e-17 4.93552605e-18 0.00000000e+00 2.63315478e-17 0.00000000e+00 4.93552605e-18
4.36515832e+02 1.70822704e-17 3.26086972e-18 0.00000000e+00 1.38214007e-17 0.00000000e+00 3.26086972e-18
5.01187234e+02 9.36656345e-18 2.15443526e-18 0.00000000e+00 7.21212819e-18 0.00000000e+00 2.15443526e-18
5.75439937e+02 5.16811285e-18 1.42342126e-18 0.00000000e+00 3.74469159e-18 0.00000000e+00 1.42342126e-18
6.60693448e+02 2.87648420e-18 9.40445101e-19 0.00000000e+00 1.93603910e-18 0.00000000e+00 9.40445101e-19
7.58577575e+02 1.61860085e-18 6.21345916e-19 0.00000000e+00 9.97254931e-19 0.00000000e+00 6.21345916e-19
8.70963590e+02 9.22437628e-19 4.10519176e-19 0.00000000e+00 5.11918452e-19 0.00000000e+00 4.10519176e-19
1.00000000e+03 2.61967732e-19 0.00000000e+00 0.00000000e+00 2.61967732e-19 0.00000000e+00 0.00000000e+00
