# column 1: lambda (micron)
# column 2: total flux; lambda*F_lambda (W/m2)
# column 3: direct stellar flux; lambda*F_lambda (W/m2)
# column 4: scattered stellar flux; lambda*F_lambda (W/m2)
# column 5: total dust emission flux; lambda*F_lambda (W/m2)
# column 6: dust emission scattered flux; lambda*F_lambda (W/m2)
# column 7: transparent flux; lambda*F_lambda (W/m2)
1.00000000e-03 3.57434429e-13 3.57434130e-13 2.98974026e-19 0.00000000e+00 0.00000000e+00 3.57785423e-13
1.14815362e-03 4.21754342e-13 4.21753801e-13 5.40630445e-19 0.00000000e+00 0.00000000e+00 4.22301518e-13
1.31825674e-03 4.97630134e-13 4.97629394e-13 7.40196960e-19 0.00000000e+00 0.00000000e+00 4.98451197e-13
1.51356125e-03 5.87190190e-13 5.87188813e-13 1.37663530e-18 0.00000000e+00 0.00000000e+00 5.88332233e-13
1.73780083e-03 6.93059488e-13 6.93057139e-13 2.34994199e-18 0.00000000e+00 0.00000000e+00 6.94420676e-13
1.99526231e-03 8.17526514e-13 8.17505932e-13 2.05822972e-17 0.00000000e+00 0.00000000e+00 8.19639053e-13
2.29086765e-03 9.64784778e-13 9.64767196e-13 1.75820764e-17 0.00000000e+00 0.00000000e+00 9.67436888e-13
2.63026799e-03 1.13817610e-12 1.13811063e-12 6.54774497e-17 0.00000000e+00 0.00000000e+00 1.14188572e-12
3.01995172e-03 1.34251358e-12 1.34228255e-12 2.31026071e-16 0.00000000e+00 0.00000000e+00 1.34779128e-12
3.46736850e-03 1.58367895e-12 1.58316487e-12 5.14081353e-16 0.00000000e+00 0.00000000e+00 1.59082586e-12
3.98107171e-03 1.86796749e-12 1.86733769e-12 6.29801076e-16 0.00000000e+00 0.00000000e+00 1.87768459e-12
4.57088190e-03 2.20904752e-12 2.20811596e-12 9.31557518e-16 0.00000000e+00 0.00000000e+00 2.21626987e-12
5.24807460e-03 2.61481458e-12 2.60362291e-12 1.11916639e-14 0.00000000e+00 0.00000000e+00 2.61590907e-12
6.02559586e-03 3.07152788e-12 3.07013463e-12 1.39325420e-15 0.00000000e+00 0.00000000e+00 3.08761145e-12
6.91830971e-03 3.62344904e-12 3.62057416e-12 2.87487677e-15 0.00000000e+00 0.00000000e+00 3.64437151e-12
7.94328235e-03 4.27521293e-12 4.27020150e-12 5.01143663e-15 1.44475562e-303 6.46867499e-305 4.30152690e-12
9.12010839e-03 5.04455127e-12 5.03616741e-12 8.38385714e-15 8.28318165e-265 1.63911908e-265 5.07718096e-12
1.04712855e-02 5.63422000e-12 5.62179806e-12 1.24219342e-14 3.48091984e-231 4.06212709e-232 5.67051724e-12
1.20226443e-02 5.63265420e-12 5.61893587e-12 1.37183286e-14 6.58949964e-202 1.41133259e-202 5.67051724e-12
1.38038426e-02 5.63083556e-12 5.61554288e-12 1.52926806e-14 1.76189597e-176 2.63285524e-177 5.67051724e-12
1.58489319e-02 5.63430170e-12 5.61137596e-12 2.29257402e-14 2.42891629e-154 2.89168691e-155 5.67051724e-12
1.81970086e-02 5.63552137e-12 5.60753547e-12 2.79859027e-14 4.57557447e-135 6.01321106e-136 5.67051724e-12
2.08929613e-02 5.63883812e-12 5.60434519e-12 3.44929276e-14 2.45769273e-118 2.91134161e-119 5.67051724e-12
2.39883292e-02 5.63780408e-12 5.60021437e-12 3.75897139e-14 8.73437236e-104 9.14362661e-105 5.67051724e-12
2.75422870e-02 5.64178502e-12 5.59541333e-12 4.63716923e-14 4.01664725e-91 4.31679070e-92 5.67051724e-12
3.16227766e-02 5.64019079e-12 5.59071126e-12 4.94795234e-14 3.97823627e-80 4.21124935e-81 5.67051724e-12
3.63078055e-02 5.64045226e-12 5.58702596e-12 5.34262970e-14 1.39474391e-70 1.40596473e-71 5.67051724e-12
4.16869383e-02 5.64545837e-12 5.58384041e-12 6.16179554e-14 2.70901020e-62 2.84283232e-63 5.67051724e-12
4.78630092e-02 5.64589355e-12 5.57506892e-12 7.08246273e-14 4.07471297e-55 4.32922087e-56 5.67051724e-12
5.49540874e-02 5.63807543e-12 5.56289340e-12 7.51820321e-14 6.71746830e-49 6.97530766e-50 5.67051724e-12
6.30957344e-02 5.61112343e-12 5.53248009e-12 7.86433414e-14 2.08777192e-43 1.94156955e-44 5.67051724e-12
7.24435960e-02 5.57299528e-12 5.49667019e-12 7.63250849e-14 1.17459446e-38 9.46693247e-40 5.67051724e-12
8.31763771e-02 5.57336750e-12 5.49984733e-12 7.35201722e-14 1.21194143e-34 9.33727610e-36 5.67051724e-12
9.54992586e-02 5.57933354e-12 5.50917630e-12 7.01572412e-14 3.50662059e-31 2.82855736e-32 5.67051724e-12
1.09647820e-01 5.35786599e-12 5.28699089e-12 7.08750991e-14 3.09349260e-28 2.82483870e-29 5.41530405e-12
1.25892541e-01 5.01960966e-12 4.95507569e-12 6.45339700e-14 1.05417529e-25 1.05532116e-26 5.05385580e-12
1.44543977e-01 4.69878882e-12 4.63999444e-12 5.87943761e-14 1.50796766e-23 1.54186607e-24 4.71653266e-12
1.65958691e-01 4.39855907e-12 4.33919165e-12 5.93674185e-14 7.84654761e-22 8.79836191e-23 4.40172439e-12
1.90546072e-01 4.10583424e-12 4.04569769e-12 6.01365305e-14 1.65668001e-20 2.07202456e-21 4.10792822e-12
2.18776162e-01 3.82289550e-12 3.76570540e-12 5.71899064e-14 1.88854746e-19 2.20742976e-20 3.83374167e-12
2.51188643e-01 3.58630920e-12 3.52698544e-12 5.93213532e-14 2.40820921e-18 3.39332013e-19 3.57785591e-12
2.88403150e-01 3.35257312e-12 3.29958588e-12 5.29662724e-14 2.09629365e-17 3.01251332e-18 3.33904941e-12
3.31131121e-01 3.13023863e-12 3.08405269e-12 4.60620251e-14 1.23917821e-16 1.73861675e-17 3.11618222e-12
3.80189396e-01 2.92580604e-12 2.88184242e-12 4.34349253e-14 5.28697324e-16 7.27205358e-17 2.90819046e-12
4.36515832e-01 2.73219793e-12 2.69266811e-12 3.78143653e-14 1.71545631e-15 2.31641916e-16 2.71408126e-12
5.01187234e-01 2.55443898e-12 2.51576142e-12 3.42819930e-14 4.39556750e-15 5.70921571e-16 2.53292801e-12
5.75439937e-01 2.38770708e-12 2.35024630e-12 2.81719206e-14 9.28885637e-15 1.16373212e-15 2.36386595e-12
6.60693448e-01 2.23802827e-12 2.19537649e-12 2.60438986e-14 1.66078799e-14 1.96250768e-15 2.20608807e-12
7.58577575e-01 2.10008061e-12 2.05051949e-12 2.28960607e-14 2.66650579e-14 3.00326421e-15 2.05884118e-12
8.70963590e-01 1.97362757e-12 1.91510077e-12 1.92724635e-14 3.92543328e-14 4.00210985e-15 1.92142238e-12
1.00000000e+00 1.85885787e-12 1.78845123e-12 1.60509127e-14 5.43557224e-14 5.05413559e-15 1.79317570e-12
1.14815362e+00 1.75712331e-12 1.67002098e-12 1.33092373e-14 7.37931004e-14 6.08097146e-15 1.67348894e-12
1.31825674e+00 1.67080554e-12 1.55928946e-12 1.00886903e-14 1.01427390e-13 7.28585133e-15 1.56179075e-12
1.51356125e+00 1.60460112e-12 1.45576216e-12 7.86560835e-15 1.40973352e-13 8.73519899e-15 1.45754793e-12
1.73780083e+00 1.55784108e-12 1.35900871e-12 5.82951477e-15 1.93002855e-13 9.91875140e-15 1.36026288e-12
1.99526231e+00 1.52711995e-12 1.26860422e-12 4.23524565e-15 2.54280488e-13 1.04868082e-14 1.26947118e-12
2.29086765e+00 1.50246806e-12 1.18414201e-12 3.01213813e-15 3.15313911e-13 1.01499362e-14 1.18473944e-12
2.63026799e+00 1.47479848e-12 1.10524764e-12 2.03014241e-15 3.67520699e-13 9.12470972e-15 1.10566318e-12
3.01995172e+00 1.43431067e-12 1.03157217e-12 1.30336496e-15 4.01435128e-13 7.59518349e-15 1.03186491e-12
3.46736850e+00 1.37971275e-12 9.62782776e-13 8.88777331e-16 4.16041193e-13 5.96607071e-15 9.62992369e-13
3.98107171e+00 1.30858217e-12 8.98564792e-13 6.21663914e-16 4.09395718e-13 4.38042908e-15 8.98716770e-13
4.57088190e+00 1.22530509e-12 8.38619586e-13 4.08979604e-16 3.86276521e-13 3.00481338e-15 8.38731291e-13
5.24807460e+00 1.04724215e-12 6.93428024e-13 2.18479822e-16 3.53595647e-13 1.91758856e-15 6.93502223e-13
6.02559586e+00 7.75809779e-13 4.58151637e-13 9.47757427e-17 3.17563366e-13 1.17119943e-15 4.58192375e-13
6.70000000e+00 6.22120873e-13 3.33264666e-13 5.12393852e-17 2.88804968e-13 7.50274609e-16 3.33290895e-13
6.92422916e+00 5.82035775e-13 3.01926045e-13 3.91567474e-17 2.80070573e-13 6.48810931e-16 3.01948975e-13
7.15596261e+00 5.47615117e-13 2.73533967e-13 3.24810260e-17 2.74048669e-13 5.53670830e-16 2.73554377e-13
7.39545150e+00 5.22922499e-13 2.47811011e-13 2.40011230e-17 2.75087487e-13 4.70356076e-16 2.47829944e-13
7.64295536e+00 5.20659847e-13 2.24505035e-13 1.66836708e-17 2.96138129e-13 3.95804454e-16 2.24524577e-13
7.89874245e+00 5.51445266e-13 2.03387920e-13 1.01751120e-17 3.48047171e-13 3.23189153e-16 2.03410795e-13
8.16308998e+00 6.08017902e-13 1.84254522e-13 6.17737752e-18 4.23757203e-13 2.59322925e-16 1.84282505e-13
8.43628443e+00 6.97256034e-13 1.66917776e-13 3.50890360e-18 5.30334749e-13 1.99959947e-16 1.66952996e-13
8.71862190e+00 7.56975355e-13 1.51213909e-13 2.26981363e-18 6.05759176e-13 1.55108045e-16 1.51253114e-13
9.01040836e+00 8.17275094e-13 1.36986588e-13 1.52393355e-18 6.80286983e-13 1.17194221e-16 1.37029614e-13
9.31196005e+00 8.63968782e-13 1.24098450e-13 0.00000000e+00 7.39870332e-13 0.00000000e+00 1.24143660e-13
9.62360379e+00 8.44932877e-13 1.12427434e-13 0.00000000e+00 7.32505442e-13 0.00000000e+00 1.12469472e-13
9.94567731e+00 7.77223342e-13 1.01857363e-13 0.00000000e+00 6.75365979e-13 0.00000000e+00 1.01893097e-13
1.02785297e+01 7.01832347e-13 9.22820134e-14 0.00000000e+00 6.09550334e-13 0.00000000e+00 9.23113014e-14
1.06225216e+01 6.26985687e-13 8.36068088e-14 0.00000000e+00 5.43378879e-13 0.00000000e+00 8.36305558e-14
1.09780260e+01 5.50917975e-13 7.57475678e-14 0.00000000e+00 4.75170408e-13 0.00000000e+00 7.57661279e-14
1.13454280e+01 4.84608568e-13 6.86266888e-14 0.00000000e+00 4.15981879e-13 0.00000000e+00 6.86412529e-14
1.17251259e+01 4.28515454e-13 6.21748831e-14 0.00000000e+00 3.66340571e-13 0.00000000e+00 6.21863851e-14
1.21175312e+01 3.79116054e-13 5.63294812e-14 0.00000000e+00 3.22786573e-13 0.00000000e+00 5.63385184e-14
1.25230691e+01 3.35820599e-13 5.10334907e-14 0.00000000e+00 2.84787108e-13 0.00000000e+00 5.10405718e-14
1.29421791e+01 2.98921790e-13 4.62352449e-14 0.00000000e+00 2.52686545e-13 0.00000000e+00 4.62408321e-14
1.33753155e+01 2.67944495e-13 4.18880090e-14 0.00000000e+00 2.26056486e-13 0.00000000e+00 4.18924490e-14
1.38229477e+01 2.46895642e-13 3.79492869e-14 0.00000000e+00 2.08946355e-13 0.00000000e+00 3.79529781e-14
1.42855609e+01 2.33051997e-13 3.43807579e-14 0.00000000e+00 1.98671239e-13 0.00000000e+00 3.43839660e-14
1.47636563e+01 2.31463246e-13 3.11475311e-14 0.00000000e+00 2.00315715e-13 0.00000000e+00 3.11505758e-14
1.52577522e+01 2.32400694e-13 2.82183043e-14 0.00000000e+00 2.04182389e-13 0.00000000e+00 2.82212462e-14
1.57683840e+01 2.35036872e-13 2.55645052e-14 0.00000000e+00 2.09472367e-13 0.00000000e+00 2.55673842e-14
1.62961051e+01 2.38695470e-13 2.31602713e-14 0.00000000e+00 2.15535199e-13 0.00000000e+00 2.31630853e-14
1.68414875e+01 2.42028570e-13 2.09821369e-14 0.00000000e+00 2.21046433e-13 0.00000000e+00 2.09848813e-14
1.74051222e+01 2.41705655e-13 1.90089044e-14 0.00000000e+00 2.22696750e-13 0.00000000e+00 1.90115106e-14
1.79876201e+01 2.40325260e-13 1.72212779e-14 0.00000000e+00 2.23103982e-13 0.00000000e+00 1.72237112e-14
1.85896125e+01 2.34356993e-13 1.56018308e-14 0.00000000e+00 2.18755162e-13 0.00000000e+00 1.56040325e-14
1.92117518e+01 2.25357457e-13 1.41347307e-14 0.00000000e+00 2.11222727e-13 0.00000000e+00 1.41366646e-14
1.98547123e+01 2.14137827e-13 1.28056192e-14 0.00000000e+00 2.01332208e-13 0.00000000e+00 1.28072847e-14
2.05191907e+01 2.03271136e-13 1.16014968e-14 0.00000000e+00 1.91669640e-13 0.00000000e+00 1.16029167e-14
2.12059073e+01 1.92639013e-13 1.05105943e-14 0.00000000e+00 1.82128418e-13 0.00000000e+00 1.05118047e-14
2.19156062e+01 1.83764611e-13 9.52226166e-15 0.00000000e+00 1.74242349e-13 0.00000000e+00 9.52329842e-15
2.26490567e+01 1.75540646e-13 8.62685955e-15 0.00000000e+00 1.66913787e-13 0.00000000e+00 8.62774902e-15
2.34070535e+01 1.68181737e-13 7.81565054e-15 0.00000000e+00 1.60366086e-13 0.00000000e+00 7.81641505e-15
2.41904183e+01 1.61243381e-13 7.08071832e-15 0.00000000e+00 1.54162663e-13 0.00000000e+00 7.08137710e-15
2.50000000e+01 1.55350220e-13 6.41489156e-15 0.00000000e+00 1.48935328e-13 0.00000000e+00 6.41546044e-15
2.75422870e+01 1.38487573e-13 4.79749216e-15 0.00000000e+00 1.33690081e-13 0.00000000e+00 4.79786316e-15
3.16227766e+01 1.17536195e-13 3.16971292e-15 0.00000000e+00 1.14366482e-13 0.00000000e+00 3.16991676e-15
3.63078055e+01 9.64848506e-14 2.09423183e-15 0.00000000e+00 9.43906187e-14 0.00000000e+00 2.09434323e-15
4.16869383e+01 7.52274845e-14 1.38365958e-15 0.00000000e+00 7.38438249e-14 0.00000000e+00 1.38371885e-15
4.78630092e+01 5.55109087e-14 9.14183423e-16 0.00000000e+00 5.45967253e-14 0.00000000e+00 9.14213979e-16
5.49540874e+01 3.89437334e-14 6.03999768e-16 0.00000000e+00 3.83397336e-14 0.00000000e+00 6.04015186e-16
6.30957344e+01 2.61622119e-14 3.99061196e-16 0.00000000e+00 2.57631507e-14 0.00000000e+00 3.99068876e-16
7.24435960e+01 1.69265925e-14 2.63658393e-16 0.00000000e+00 1.66629341e-14 0.00000000e+00 2.63662192e-16
8.31763771e+01 1.06185968e-14 1.74198007e-16 0.00000000e+00 1.04443988e-14 0.00000000e+00 1.74199882e-16
9.54992586e+01 6.48930657e-15 1.15091793e-16 0.00000000e+00 6.37421478e-15 0.00000000e+00 1.15092721e-16
1.09647820e+02 3.87835666e-15 7.60405456e-17 0.00000000e+00 3.80231612e-15 0.00000000e+00 7.60410067e-17
1.25892541e+02 2.29899937e-15 5.02395624e-17 0.00000000e+00 2.24875981e-15 0.00000000e+00 5.02397949e-17
1.44543977e+02 1.34531422e-15 3.31929853e-17 0.00000000e+00 1.31212123e-15 0.00000000e+00 3.31931033e-17
1.65958691e+02 7.46067014e-16 2.19304080e-17 0.00000000e+00 7.24136606e-16 0.00000000e+00 2.19304659e-17
1.90546072e+02 4.11680026e-16 1.44892865e-17 0.00000000e+00 3.97190740e-16 0.00000000e+00 1.44893151e-17
2.18776162e+02 2.25753535e-16 9.57298128e-18 0.00000000e+00 2.16180554e-16 0.00000000e+00 9.57299556e-18
2.51188643e+02 1.22925813e-16 6.32480831e-18 0.00000000e+00 1.16601005e-16 0.00000000e+00 6.32481544e-18
2.88403150e+02 6.64753843e-17 4.17876056e-18 0.00000000e+00 6.22966237e-17 0.00000000e+00 4.17876412e-18
3.31131121e+02 3.58115881e-17 2.76088029e-18 0.00000000e+00 3.30507078e-17 0.00000000e+00 2.76088208e-18
3.80189396e+02 1.92278488e-17 1.82409580e-18 0.00000000e+00 1.74037530e-17 0.00000000e+00 1.82409670e-18
4.36515832e+02 1.03174673e-17 1.20516829e-18 0.00000000e+00 9.11229898e-18 0.00000000e+00 1.20516874e-18
5.01187234e+02 5.54110209e-18 7.96246863e-19 0.00000000e+00 4.74485523e-18 0.00000000e+00 7.96247089e-19
5.75439937e+02 2.98535174e-18 5.26075121e-19 0.00000000e+00 2.45927662e-18 0.00000000e+00 5.26075235e-19
6.60693448e+02 1.61714583e-18 3.47574404e-19 0.00000000e+00 1.26957143e-18 0.00000000e+00 3.47574461e-19
7.58577575e+02 8.82769718e-19 2.29640140e-19 0.00000000e+00 6.53129578e-19 0.00000000e+00 2.29640169e-19
8.70963590e+02 4.86631750e-19 1.51721741e-19 0.00000000e+00 3.34910009e-19 0.00000000e+00 1.51721755e-19
1.00000000e+03 1.71230285e-19 0.00000000e+00 0.00000000e+00 1.71230285e-19 0.00000000e+00 0.00000000e+00
