# column 1: lambda (micron)
# column 2: total flux; lambda*F_lambda (W/m2)
# column 3: direct stellar flux; lambda*F_lambda (W/m2)
# column 4: scattered stellar flux; lambda*F_lambda (W/m2)
# column 5: total dust emission flux; lambda*F_lambda (W/m2)
# column 6: dust emission scattered flux; lambda*F_lambda (W/m2)
# column 7: transparent flux; lambda*F_lambda (W/m2)
1.00000000e-03 9.68074720e-13 9.68073281e-13 1.43912591e-18 0.00000000e+00 0.00000000e+00 9.68073281e-13
1.14815362e-03 1.14263906e-12 1.14263687e-12 2.19085796e-18 0.00000000e+00 0.00000000e+00 1.14263687e-12
1.31825674e-03 1.34868136e-12 1.34867788e-12 3.47802912e-18 0.00000000e+00 0.00000000e+00 1.34867788e-12
1.51356125e-03 1.59187759e-12 1.59187233e-12 5.26286749e-18 0.00000000e+00 0.00000000e+00 1.59187233e-12
1.73780083e-03 1.87892939e-12 1.87891976e-12 9.62809224e-18 0.00000000e+00 0.00000000e+00 1.87891976e-12
1.99526231e-03 2.21774489e-12 2.21772777e-12 1.71244279e-17 0.00000000e+00 0.00000000e+00 2.21772777e-12
2.29086765e-03 2.61765544e-12 2.61762985e-12 2.55988165e-17 0.00000000e+00 0.00000000e+00 2.61762985e-12
2.63026799e-03 3.08969588e-12 3.08964252e-12 5.33583662e-17 0.00000000e+00 0.00000000e+00 3.08964252e-12
3.01995172e-03 3.64685669e-12 3.64676883e-12 8.78666371e-17 0.00000000e+00 0.00000000e+00 3.64676883e-12
3.46736850e-03 4.30450233e-12 4.30435650e-12 1.45828895e-16 0.00000000e+00 0.00000000e+00 4.30435650e-12
3.98107171e-03 5.08075001e-12 5.08052080e-12 2.29214976e-16 0.00000000e+00 0.00000000e+00 5.08052080e-12
4.57088190e-03 5.99716256e-12 5.99664354e-12 5.19015328e-16 0.00000000e+00 0.00000000e+00 5.99664354e-12
5.24807460e-03 7.07886022e-12 7.07796211e-12 8.98104596e-16 0.00000000e+00 0.00000000e+00 7.07796211e-12
6.02559586e-03 8.35596592e-12 8.35426474e-12 1.70117429e-15 0.00000000e+00 0.00000000e+00 8.35426474e-12
6.91830971e-03 9.86335663e-12 9.86071107e-12 2.64555418e-15 0.00000000e+00 0.00000000e+00 9.86071107e-12
7.94328235e-03 1.16434842e-11 1.16388008e-11 4.68345485e-15 3.47185816e-303 6.54611600e-305 1.16388008e-11
9.12010839e-03 1.37447903e-11 1.37375167e-11 7.27358978e-15 1.88595353e-264 1.32388592e-265 1.37375167e-11
1.04712855e-02 1.53531181e-11 1.53429287e-11 1.01894816e-14 9.40931771e-231 8.83847681e-232 1.53429287e-11
1.20226443e-02 1.53573811e-11 1.53429287e-11 1.44524165e-14 1.55762608e-201 4.63544853e-203 1.53429287e-11
1.38038426e-02 1.53669558e-11 1.53429287e-11 2.40271774e-14 4.78623211e-176 2.13729614e-177 1.53429287e-11
1.58489319e-02 1.53753686e-11 1.53429287e-11 3.24398889e-14 6.98314831e-154 2.19485044e-155 1.53429287e-11
1.81970086e-02 1.53919982e-11 1.53429287e-11 4.90695002e-14 1.36832956e-134 6.36702661e-136 1.53429287e-11
2.08929613e-02 1.54032702e-11 1.53429287e-11 6.03415151e-14 7.65979871e-118 3.68927009e-119 1.53429287e-11
2.39883292e-02 1.54278948e-11 1.53429287e-11 8.49661550e-14 2.85525894e-103 1.41056999e-104 1.53429287e-11
2.75422870e-02 1.54470250e-11 1.53429287e-11 1.04096307e-13 1.35095588e-90 7.68473244e-92 1.53429287e-11
3.16227766e-02 1.54703428e-11 1.53429287e-11 1.27414133e-13 1.38408222e-79 8.81820962e-81 1.53429287e-11
3.63078055e-02 1.54877115e-11 1.53429287e-11 1.44782844e-13 4.98725816e-70 3.21935510e-71 1.53429287e-11
4.16869383e-02 1.55447099e-11 1.53429287e-11 2.01781257e-13 9.86907521e-62 7.37128345e-63 1.53429287e-11
4.78630092e-02 1.55933045e-11 1.53429287e-11 2.50375837e-13 1.53612951e-54 1.29223885e-55 1.53429287e-11
5.49540874e-02 1.56419731e-11 1.53429287e-11 2.99044413e-13 2.61467875e-48 2.39446274e-49 1.53429287e-11
6.30957344e-02 1.56721457e-11 1.53429287e-11 3.29217047e-13 8.48450324e-43 7.80602631e-44 1.53429287e-11
7.24435960e-02 1.56479629e-11 1.53429287e-11 3.05034253e-13 4.88602749e-38 3.91298146e-39 1.53429287e-11
8.31763771e-02 1.56427277e-11 1.53429287e-11 2.99799070e-13 5.09019770e-34 3.98242072e-35 1.53429287e-11
9.54992586e-02 1.56522147e-11 1.53429287e-11 3.09286028e-13 1.46438088e-30 1.19492255e-31 1.53429287e-11
1.09647820e-01 1.49793568e-11 1.46523889e-11 3.26967914e-13 1.28345395e-27 1.18164380e-28 1.46523889e-11
1.25892541e-01 1.39784965e-11 1.36744049e-11 3.04091558e-13 4.27779222e-25 4.10077251e-26 1.36744049e-11
1.44543977e-01 1.30474057e-11 1.27616972e-11 2.85708427e-13 5.97258830e-23 5.83554182e-24 1.27616972e-11
1.65958691e-01 1.22157096e-11 1.19099088e-11 3.05800735e-13 3.09387347e-21 3.40917979e-22 1.19099088e-11
1.90546072e-01 1.14389712e-11 1.11149736e-11 3.23997540e-13 6.56966519e-20 8.14125545e-21 1.11149736e-11
2.18776162e-01 1.06796472e-11 1.03730969e-11 3.06549502e-13 7.72106885e-19 9.32764603e-20 1.03730969e-11
2.51188643e-01 1.00372631e-11 9.68073733e-12 3.56516089e-13 9.69743077e-18 1.46756131e-18 9.68073733e-12
2.88403150e-01 9.37110428e-12 9.03458975e-12 3.36432285e-13 8.22433412e-17 1.26262944e-17 9.03458975e-12
3.31131121e-01 8.74115174e-12 8.43156974e-12 3.09105150e-13 4.76846225e-16 7.27721430e-17 8.43156974e-12
3.80189396e-01 8.15691431e-12 7.86879872e-12 2.86110126e-13 2.00545851e-15 3.00898743e-16 7.86879872e-12
4.36515832e-01 7.61314889e-12 7.34359025e-12 2.63168406e-13 6.39023223e-15 9.44170788e-16 7.34359025e-12
5.01187234e-01 7.11413567e-12 6.85343719e-12 2.44586096e-13 1.61123850e-14 2.36460772e-15 6.85343719e-12
5.75439937e-01 6.65516818e-12 6.39599973e-12 2.25508482e-13 3.36599697e-14 4.90910638e-15 6.39599973e-12
6.60693448e-01 6.23474103e-12 5.96909425e-12 2.04266278e-13 6.13804951e-14 9.19061170e-15 5.96909425e-12
7.58577575e-01 5.86007286e-12 5.57068288e-12 1.84362866e-13 1.05027106e-13 1.67882056e-14 5.57068288e-12
8.70963590e-01 5.53846542e-12 5.19886376e-12 1.61322113e-13 1.78279548e-13 3.08313326e-14 5.19886376e-12
1.00000000e+00 5.30066968e-12 4.85186196e-12 1.37964474e-13 3.10843246e-13 5.88703739e-14 4.85186196e-12
1.14815362e+00 5.19746185e-12 4.52802104e-12 1.12059335e-13 5.57381469e-13 1.06066796e-13 4.52802104e-12
1.31825674e+00 5.30650482e-12 4.22579511e-12 8.69910741e-14 9.93718633e-13 1.75120359e-13 4.22579511e-12
1.51356125e+00 5.68997350e-12 3.94374146e-12 6.77487356e-14 1.67848330e-12 2.59701818e-13 3.94374146e-12
1.73780083e+00 6.32408104e-12 3.68051368e-12 5.13986395e-14 2.59216872e-12 3.38689529e-13 3.68051368e-12
1.99526231e+00 7.12147412e-12 3.43485522e-12 3.83663206e-14 3.64825258e-12 3.85766370e-13 3.43485522e-12
2.29086765e+00 7.91215129e-12 3.20559341e-12 2.75098765e-14 4.67904800e-12 3.92330272e-13 3.20559341e-12
2.63026799e+00 8.59386716e-12 2.99163384e-12 1.93872744e-14 5.58284605e-12 3.70097178e-13 2.99163384e-12
3.01995172e+00 9.06968959e-12 2.79195514e-12 1.41742756e-14 6.26356017e-12 3.28821209e-13 2.79195514e-12
3.46736850e+00 9.36610169e-12 2.60560415e-12 1.01494648e-14 6.75034808e-12 2.77260189e-13 2.60560415e-12
3.98107171e+00 9.49757197e-12 2.43169128e-12 7.23483285e-15 7.05864586e-12 2.25540154e-13 2.43169128e-12
4.57088190e+00 9.41068307e-12 2.26938634e-12 5.03138906e-15 7.13626534e-12 1.68586925e-13 2.26938634e-12
5.24807460e+00 8.99304644e-12 1.87643467e-12 2.94174357e-15 7.11367003e-12 1.17748679e-13 1.87643467e-12
6.02559586e+00 8.23652860e-12 1.23974809e-12 1.33684728e-15 6.99544367e-12 7.71717918e-14 1.23974809e-12
6.70000000e+00 7.67514938e-12 9.01797527e-13 6.91939791e-16 6.77265991e-12 5.28965676e-14 9.01797527e-13
6.92422916e+00 7.51947463e-12 8.16994532e-13 5.55739352e-16 6.70192436e-12 4.64257072e-14 8.16994532e-13
7.15596261e+00 7.39337700e-12 7.40166218e-13 4.43335480e-16 6.65276745e-12 4.03486746e-14 7.40166218e-13
7.39545150e+00 7.34235678e-12 6.70562664e-13 3.37808709e-16 6.67145631e-12 3.42683077e-14 6.70562664e-13
7.64295536e+00 7.51010645e-12 6.07504471e-13 2.33438386e-16 6.90236854e-12 2.77425450e-14 6.07504471e-13
7.89874245e+00 7.94018678e-12 5.50376127e-13 1.36416697e-16 7.38967424e-12 2.09472011e-14 5.50376127e-13
8.16308998e+00 8.51597709e-12 4.98620004e-13 7.66350911e-17 8.01728045e-12 1.54055519e-14 4.98620004e-13
8.43628443e+00 9.25981353e-12 4.51730909e-13 4.05815015e-17 8.80804204e-12 1.08701760e-14 4.51730909e-13
8.71862190e+00 9.73671848e-12 4.09251158e-13 2.54029281e-17 9.32744191e-12 8.28802428e-15 4.09251158e-13
9.01040836e+00 1.01110937e-11 3.70766106e-13 1.63027472e-17 9.74031131e-12 6.21165952e-15 3.70766106e-13
9.31196005e+00 1.03307592e-11 3.35900102e-13 0.00000000e+00 9.99485909e-12 0.00000000e+00 3.35900102e-13
9.62360379e+00 1.02924680e-11 3.04312818e-13 0.00000000e+00 9.98815520e-12 0.00000000e+00 3.04312818e-13
9.94567731e+00 9.80697476e-12 2.75695930e-13 0.00000000e+00 9.53127883e-12 0.00000000e+00 2.75695930e-13
1.02785297e+01 9.25989880e-12 2.49770110e-13 0.00000000e+00 9.01012869e-12 0.00000000e+00 2.49770110e-13
1.06225216e+01 8.88851458e-12 2.26282295e-13 0.00000000e+00 8.66223229e-12 0.00000000e+00 2.26282295e-13
1.09780260e+01 8.39700359e-12 2.05003220e-13 0.00000000e+00 8.19200037e-12 0.00000000e+00 2.05003220e-13
1.13454280e+01 7.93266231e-12 1.85725182e-13 0.00000000e+00 7.74693713e-12 0.00000000e+00 1.85725182e-13
1.17251259e+01 7.52851637e-12 1.68260007e-13 0.00000000e+00 7.36025637e-12 0.00000000e+00 1.68260007e-13
1.21175312e+01 7.15172567e-12 1.52437217e-13 0.00000000e+00 6.99928845e-12 0.00000000e+00 1.52437217e-13
1.25230691e+01 6.80618572e-12 1.38102367e-13 0.00000000e+00 6.66808335e-12 0.00000000e+00 1.38102367e-13
1.29421791e+01 6.46443064e-12 1.25115533e-13 0.00000000e+00 6.33931511e-12 0.00000000e+00 1.25115533e-13
1.33753155e+01 6.15304275e-12 1.13349952e-13 0.00000000e+00 6.03969280e-12 0.00000000e+00 1.13349952e-13
1.38229477e+01 5.90834937e-12 1.02690779e-13 0.00000000e+00 5.80565859e-12 0.00000000e+00 1.02690779e-13
1.42855609e+01 5.75510211e-12 9.30339713e-14 0.00000000e+00 5.66206814e-12 0.00000000e+00 9.30339713e-14
1.47636563e+01 5.76248754e-12 8.42852675e-14 0.00000000e+00 5.67820228e-12 0.00000000e+00 8.42852675e-14
1.52577522e+01 5.80157036e-12 7.63592720e-14 0.00000000e+00 5.72521109e-12 0.00000000e+00 7.63592720e-14
1.57683840e+01 5.84996876e-12 6.91786191e-14 0.00000000e+00 5.78079014e-12 0.00000000e+00 6.91786191e-14
1.62961051e+01 5.89878565e-12 6.26732185e-14 0.00000000e+00 5.83611243e-12 0.00000000e+00 6.26732185e-14
1.68414875e+01 5.91998305e-12 5.67795711e-14 0.00000000e+00 5.86320348e-12 0.00000000e+00 5.67795711e-14
1.74051222e+01 5.91422004e-12 5.14401489e-14 0.00000000e+00 5.86277989e-12 0.00000000e+00 5.14401489e-14
1.79876201e+01 5.85532231e-12 4.66028339e-14 0.00000000e+00 5.80871948e-12 0.00000000e+00 4.66028339e-14
1.85896125e+01 5.74029494e-12 4.22204090e-14 0.00000000e+00 5.69807453e-12 0.00000000e+00 4.22204090e-14
1.92117518e+01 5.60109085e-12 3.82500974e-14 0.00000000e+00 5.56284075e-12 0.00000000e+00 3.82500974e-14
1.98547123e+01 5.41539201e-12 3.46531450e-14 0.00000000e+00 5.38073887e-12 0.00000000e+00 3.46531450e-14
2.05191907e+01 5.19353304e-12 3.13944418e-14 0.00000000e+00 5.16213860e-12 0.00000000e+00 3.13944418e-14
2.12059073e+01 5.01484308e-12 2.84421796e-14 0.00000000e+00 4.98640090e-12 0.00000000e+00 2.84421796e-14
2.19156062e+01 4.79948922e-12 2.57675415e-14 0.00000000e+00 4.77372168e-12 0.00000000e+00 2.57675415e-14
2.26490567e+01 4.60184395e-12 2.33444203e-14 0.00000000e+00 4.57849953e-12 0.00000000e+00 2.33444203e-14
2.34070535e+01 4.40499669e-12 2.11491639e-14 0.00000000e+00 4.38384753e-12 0.00000000e+00 2.11491639e-14
2.41904183e+01 4.20185917e-12 1.91603445e-14 0.00000000e+00 4.18269883e-12 0.00000000e+00 1.91603445e-14
2.50000000e+01 4.01223197e-12 1.73585491e-14 0.00000000e+00 3.99487342e-12 0.00000000e+00 1.73585491e-14
2.75422870e+01 3.44394644e-12 1.29817562e-14 0.00000000e+00 3.43096469e-12 0.00000000e+00 1.29817562e-14
3.16227766e+01 2.66787339e-12 8.57696126e-15 0.00000000e+00 2.65929643e-12 0.00000000e+00 8.57696126e-15
3.63078055e+01 1.95362055e-12 5.66674211e-15 0.00000000e+00 1.94795380e-12 0.00000000e+00 5.66674211e-15
4.16869383e+01 1.33984405e-12 3.74397938e-15 0.00000000e+00 1.33610007e-12 0.00000000e+00 3.74397938e-15
4.78630092e+01 8.65394540e-13 2.47362265e-15 0.00000000e+00 8.62920917e-13 0.00000000e+00 2.47362265e-15
5.49540874e+01 5.29079342e-13 1.63430628e-15 0.00000000e+00 5.27445036e-13 0.00000000e+00 1.63430628e-15
6.30957344e+01 3.10274454e-13 1.07977545e-15 0.00000000e+00 3.09194679e-13 0.00000000e+00 1.07977545e-15
7.24435960e+01 1.75699239e-13 7.13400564e-16 0.00000000e+00 1.74985839e-13 0.00000000e+00 7.13400564e-16
8.31763771e+01 9.71484828e-14 4.71339078e-16 0.00000000e+00 9.66771437e-14 0.00000000e+00 4.71339078e-16
9.54992586e+01 5.28239601e-14 3.11410641e-16 0.00000000e+00 5.25125495e-14 0.00000000e+00 3.11410641e-16
1.09647820e+02 2.84256006e-14 2.05746970e-16 0.00000000e+00 2.82198537e-14 0.00000000e+00 2.05746970e-16
1.25892541e+02 1.53388910e-14 1.35935675e-16 0.00000000e+00 1.52029553e-14 0.00000000e+00 1.35935675e-16
1.44543977e+02 8.25947152e-15 8.98118099e-17 0.00000000e+00 8.16965971e-15 0.00000000e+00 8.98118099e-17
1.65958691e+02 4.25168091e-15 5.93380743e-17 0.00000000e+00 4.19234283e-15 0.00000000e+00 5.93380743e-17
1.90546072e+02 2.19699533e-15 3.92042769e-17 0.00000000e+00 2.15779105e-15 0.00000000e+00 3.92042769e-17
2.18776162e+02 1.13705656e-15 2.59020089e-17 0.00000000e+00 1.11115455e-15 0.00000000e+00 2.59020089e-17
2.51188643e+02 5.88476124e-16 1.71132876e-17 0.00000000e+00 5.71362837e-16 0.00000000e+00 1.71132876e-17
2.88403150e+02 3.04167779e-16 1.13066370e-17 0.00000000e+00 2.92861142e-16 0.00000000e+00 1.13066370e-17
3.31131121e+02 1.57379390e-16 7.47022097e-18 0.00000000e+00 1.49909169e-16 0.00000000e+00 7.47022097e-18
3.80189396e+02 8.14651759e-17 4.93552605e-18 0.00000000e+00 7.65296498e-17 0.00000000e+00 4.93552605e-18
4.36515832e+02 4.22712757e-17 3.26086972e-18 0.00000000e+00 3.90104059e-17 0.00000000e+00 3.26086972e-18
5.01187234e+02 2.20027411e-17 2.15443526e-18 0.00000000e+00 1.98483058e-17 0.00000000e+00 2.15443526e-18
5.75439937e+02 1.15067932e-17 1.42342126e-18 0.00000000e+00 1.00833720e-17 0.00000000e+00 1.42342126e-18
6.60693448e+02 6.05647466e-18 9.40445101e-19 0.00000000e+00 5.11602956e-18 0.00000000e+00 9.40445101e-19
7.58577575e+02 3.21410271e-18 6.21345916e-19 0.00000000e+00 2.59275679e-18 0.00000000e+00 6.21345916e-19
8.70963590e+02 1.72286696e-18 4.10519176e-19 0.00000000e+00 1.31234778e-18 0.00000000e+00 4.10519176e-19
1.00000000e+03 6.63460796e-19 0.00000000e+00 0.00000000e+00 6.63460796e-19 0.00000000e+00 0.00000000e+00
