# column 1: lambda (micron)
# column 2: total flux; lambda*F_lambda (W/m2)
# column 3: direct stellar flux; lambda*F_lambda (W/m2)
# column 4: scattered stellar flux; lambda*F_lambda (W/m2)
# column 5: total dust emission flux; lambda*F_lambda (W/m2)
# column 6: dust emission scattered flux; lambda*F_lambda (W/m2)
# column 7: transparent flux; lambda*F_lambda (W/m2)
1.00000000e-03 2.06076031e-13 2.06075710e-13 3.21291317e-19 0.00000000e+00 0.00000000e+00 2.06075710e-13
1.14815362e-03 2.43236063e-13 2.43235413e-13 6.49772457e-19 0.00000000e+00 0.00000000e+00 2.43235413e-13
1.31825674e-03 2.87096776e-13 2.87095777e-13 9.99480452e-19 0.00000000e+00 0.00000000e+00 2.87095777e-13
1.51356125e-03 3.38866563e-13 3.38865070e-13 1.49250980e-18 0.00000000e+00 0.00000000e+00 3.38865070e-13
1.73780083e-03 3.99972606e-13 3.99969435e-13 3.17096437e-18 0.00000000e+00 0.00000000e+00 3.99969435e-13
1.99526231e-03 4.72096808e-13 4.72092178e-13 4.63068466e-18 0.00000000e+00 0.00000000e+00 4.72092178e-13
2.29086765e-03 5.57229763e-13 5.57220139e-13 9.62361214e-18 0.00000000e+00 0.00000000e+00 5.57220139e-13
2.63026799e-03 6.57715787e-13 6.57698429e-13 1.73586970e-17 0.00000000e+00 0.00000000e+00 6.57698429e-13
3.01995172e-03 7.76324387e-13 7.76295028e-13 2.93591009e-17 0.00000000e+00 0.00000000e+00 7.76295028e-13
3.46736850e-03 9.16330626e-13 9.16277040e-13 5.35852345e-17 0.00000000e+00 0.00000000e+00 9.16277040e-13
3.98107171e-03 1.08157478e-12 1.08150070e-12 7.40817188e-17 0.00000000e+00 0.00000000e+00 1.08150070e-12
4.57088190e-03 1.27664537e-12 1.27651759e-12 1.27781122e-16 0.00000000e+00 0.00000000e+00 1.27651759e-12
5.24807460e-03 1.50696512e-12 1.50670006e-12 2.65067179e-16 0.00000000e+00 0.00000000e+00 1.50670006e-12
6.02559586e-03 1.77889261e-12 1.77838917e-12 5.03440401e-16 0.00000000e+00 0.00000000e+00 1.77838917e-12
6.91830971e-03 2.09985736e-12 2.09906943e-12 7.87927120e-16 0.00000000e+00 0.00000000e+00 2.09906943e-12
7.94328235e-03 2.47892125e-12 2.47757497e-12 1.34628643e-15 1.53516201e-303 9.93795899e-305 2.47757497e-12
9.12010839e-03 2.92669344e-12 2.92433286e-12 2.36057822e-15 6.56525072e-265 4.03137156e-266 2.92433286e-12
1.04712855e-02 3.26953317e-12 3.26608014e-12 3.45303168e-15 2.85480610e-231 2.88929031e-232 3.26608014e-12
1.20226443e-02 3.27089846e-12 3.26608014e-12 4.81832210e-15 4.28366352e-202 3.26729392e-203 3.26608014e-12
1.38038426e-02 3.27305602e-12 3.26608014e-12 6.97587791e-15 1.16755981e-176 1.00837821e-177 3.26608014e-12
1.58489319e-02 3.28046395e-12 3.26608014e-12 1.43838087e-14 1.54497070e-154 1.27208758e-155 3.26608014e-12
1.81970086e-02 3.28027085e-12 3.26608014e-12 1.41907108e-14 2.71757275e-135 2.36327335e-136 3.26608014e-12
2.08929613e-02 3.28399143e-12 3.26608014e-12 1.79112942e-14 1.38102427e-118 9.91094419e-120 3.26608014e-12
2.39883292e-02 3.28661665e-12 3.26608014e-12 2.05365151e-14 4.81425601e-104 3.84919360e-105 3.26608014e-12
2.75422870e-02 3.28983454e-12 3.26608014e-12 2.37544028e-14 2.14330483e-91 1.80163882e-92 3.26608014e-12
3.16227766e-02 3.29639533e-12 3.26608014e-12 3.03151948e-14 2.05119552e-80 1.69837820e-81 3.26608014e-12
3.63078055e-02 3.29669001e-12 3.26608014e-12 3.06098701e-14 7.00513305e-71 5.24823645e-72 3.26608014e-12
4.16869383e-02 3.30175167e-12 3.26608014e-12 3.56715297e-14 1.31261304e-62 1.02098489e-63 3.26608014e-12
4.78630092e-02 3.30517767e-12 3.26608014e-12 3.90975336e-14 1.94913600e-55 1.55069079e-56 3.26608014e-12
5.49540874e-02 3.29915331e-12 3.26608014e-12 3.30731724e-14 3.15893119e-49 2.47970911e-50 3.26608014e-12
6.30957344e-02 3.30339698e-12 3.26608014e-12 3.73168422e-14 9.70211948e-44 7.31725737e-45 3.26608014e-12
7.24435960e-02 3.29670293e-12 3.26608014e-12 3.06227913e-14 5.36624263e-39 3.70749191e-40 3.26608014e-12
8.31763771e-02 3.29645507e-12 3.26608014e-12 3.03749365e-14 5.50067766e-35 3.70363569e-36 3.26608014e-12
9.54992586e-02 3.29745691e-12 3.26608014e-12 3.13767756e-14 1.56370623e-31 1.06649466e-32 3.26608014e-12
1.09647820e-01 3.15404106e-12 3.11908354e-12 3.49575157e-14 1.36322634e-28 9.96821214e-30 3.11908354e-12
1.25892541e-01 2.94040719e-12 2.91089813e-12 2.95090619e-14 4.56078328e-26 3.42496238e-27 2.91089813e-12
1.44543977e-01 2.74329288e-12 2.71660820e-12 2.66846773e-14 6.40881891e-24 4.71514945e-25 2.71660820e-12
1.65958691e-01 2.56279192e-12 2.53528629e-12 2.75056287e-14 3.30089913e-22 2.46708163e-23 2.53528629e-12
1.90546072e-01 2.39399737e-12 2.36606683e-12 2.79305319e-14 6.85253591e-21 5.72719308e-22 2.36606683e-12
2.18776162e-01 2.23267646e-12 2.20814205e-12 2.45343355e-14 7.85519936e-20 6.40137279e-21 2.20814205e-12
2.51188643e-01 2.08882357e-12 2.06075806e-12 2.80645263e-14 9.83113067e-19 9.04415834e-20 2.06075806e-12
2.88403150e-01 1.94750104e-12 1.92321132e-12 2.42813742e-14 8.34178013e-18 7.31525135e-19 1.92321132e-12
3.31131121e-01 1.81861805e-12 1.79484524e-12 2.37240840e-14 4.87238408e-17 4.22834363e-18 1.79484524e-12
3.80189396e-01 1.69516535e-12 1.67504704e-12 1.99114642e-14 2.06845134e-16 1.67446375e-17 1.67504704e-12
4.36515832e-01 1.58292949e-12 1.56324485e-12 1.90238204e-14 6.60821834e-16 5.13134001e-17 1.56324485e-12
5.01187234e-01 1.47782517e-12 1.45890498e-12 1.72478386e-14 1.67234652e-15 1.20663232e-16 1.45890498e-12
5.75439937e-01 1.37919752e-12 1.36152935e-12 1.41901928e-14 3.47797655e-15 2.38458605e-16 1.36152935e-12
6.60693448e-01 1.29032050e-12 1.27065312e-12 1.35388155e-14 6.12856658e-15 3.94038526e-16 1.27065312e-12
7.58577575e-01 1.20726508e-12 1.18584249e-12 1.18071270e-14 9.61546848e-15 5.67268603e-16 1.18584249e-12
8.70963590e-01 1.12998445e-12 1.10669260e-12 9.63066147e-15 1.36611895e-14 7.35350410e-16 1.10669260e-12
1.00000000e+00 1.05865803e-12 1.03282563e-12 7.94622361e-15 1.78861759e-14 8.60899470e-16 1.03282563e-12
1.14815362e+00 9.93532743e-13 9.63888963e-13 7.01426691e-15 2.26295133e-14 9.90894392e-16 9.63888963e-13
1.31825674e+00 9.33882027e-13 8.99553520e-13 5.48012064e-15 2.88483870e-14 1.12344517e-15 8.99553520e-13
1.51356125e+00 8.82250490e-13 8.39512191e-13 4.46597667e-15 3.82723226e-14 1.41442759e-15 8.39512191e-13
1.73780083e+00 8.39244326e-13 7.83478363e-13 3.16969121e-15 5.25962721e-14 1.82331234e-15 7.83478363e-13
1.99526231e+00 8.06656809e-13 7.31184552e-13 2.19849271e-15 7.32737648e-14 2.25278674e-15 7.31184552e-13
2.29086765e+00 7.83712954e-13 6.82381128e-13 1.57582689e-15 9.97559997e-14 2.62984450e-15 6.82381128e-13
2.63026799e+00 7.67589764e-13 6.36835122e-13 1.14417811e-15 1.29610463e-13 2.77964716e-15 6.36835122e-13
3.01995172e+00 7.53652131e-13 5.94329117e-13 8.22862889e-16 1.58500151e-13 2.69622670e-15 5.94329117e-13
3.46736850e+00 7.38443097e-13 5.54660204e-13 5.61801174e-16 1.83221092e-13 2.40851682e-15 5.54660204e-13
3.98107171e+00 7.16971641e-13 5.17639021e-13 3.85366607e-16 1.98947254e-13 2.00427880e-15 5.17639021e-13
4.57088190e+00 6.88969189e-13 4.83088843e-13 2.46550262e-16 2.05633796e-13 1.54546514e-15 4.83088843e-13
5.24807460e+00 6.03564204e-13 3.99440428e-13 1.44533476e-16 2.03979243e-13 1.10801731e-15 3.99440428e-13
6.02559586e+00 4.60439811e-13 2.63907674e-13 6.40787237e-17 1.96468058e-13 7.32740327e-16 2.63907674e-13
6.70000000e+00 3.79471417e-13 1.91967457e-13 3.37267437e-17 1.87470233e-13 5.01619509e-16 1.91967457e-13
6.92422916e+00 3.58067585e-13 1.73915272e-13 2.72740467e-17 1.84125039e-13 4.45328320e-16 1.73915272e-13
7.15596261e+00 3.39191289e-13 1.57560674e-13 2.19231334e-17 1.81608691e-13 3.86423211e-16 1.57560674e-13
7.39545150e+00 3.25904412e-13 1.42744025e-13 1.59427613e-17 1.83144444e-13 3.29789567e-16 1.42744025e-13
7.64295536e+00 3.23450510e-13 1.29320701e-13 1.05056736e-17 1.94119304e-13 2.68000575e-16 1.29320701e-13
7.89874245e+00 3.38949047e-13 1.17159675e-13 6.86857761e-18 2.21782504e-13 2.06452370e-16 1.17159675e-13
8.16308998e+00 3.69534257e-13 1.06142245e-13 3.82911741e-18 2.63388183e-13 1.58486221e-16 1.06142245e-13
8.43628443e+00 4.18608061e-13 9.61608686e-14 2.00104940e-18 3.22445192e-13 1.17815415e-16 9.61608686e-14
8.71862190e+00 4.52700398e-13 8.71181185e-14 1.32089587e-18 3.65580959e-13 9.10274353e-17 8.71181185e-14
9.01040836e+00 4.91158732e-13 7.89257281e-14 8.76609035e-19 4.12232127e-13 6.74520884e-17 7.89257281e-14
9.31196005e+00 5.23011977e-13 7.15037315e-14 0.00000000e+00 4.51508245e-13 0.00000000e+00 7.15037315e-14
9.62360379e+00 5.16665560e-13 6.47796826e-14 0.00000000e+00 4.51885877e-13 0.00000000e+00 6.47796826e-14
9.94567731e+00 4.82980002e-13 5.86879481e-14 0.00000000e+00 4.24292054e-13 0.00000000e+00 5.86879481e-14
1.02785297e+01 4.40741914e-13 5.31690665e-14 0.00000000e+00 3.87572848e-13 0.00000000e+00 5.31690665e-14
1.06225216e+01 4.00481590e-13 4.81691679e-14 0.00000000e+00 3.52312422e-13 0.00000000e+00 4.81691679e-14
1.09780260e+01 3.58674208e-13 4.36394486e-14 0.00000000e+00 3.15034760e-13 0.00000000e+00 4.36394486e-14
1.13454280e+01 3.19800354e-13 3.95356937e-14 0.00000000e+00 2.80264660e-13 0.00000000e+00 3.95356937e-14
1.17251259e+01 2.88514129e-13 3.58178467e-14 0.00000000e+00 2.52696282e-13 0.00000000e+00 3.58178467e-14
1.21175312e+01 2.59504868e-13 3.24496176e-14 0.00000000e+00 2.27055250e-13 0.00000000e+00 3.24496176e-14
1.25230691e+01 2.33326798e-13 2.93981291e-14 0.00000000e+00 2.03928669e-13 0.00000000e+00 2.93981291e-14
1.29421791e+01 2.11705798e-13 2.66335956e-14 0.00000000e+00 1.85072202e-13 0.00000000e+00 2.66335956e-14
1.33753155e+01 1.92998086e-13 2.41290327e-14 0.00000000e+00 1.68869053e-13 0.00000000e+00 2.41290327e-14
1.38229477e+01 1.80920080e-13 2.18599931e-14 0.00000000e+00 1.59060087e-13 0.00000000e+00 2.18599931e-14
1.42855609e+01 1.73057968e-13 1.98043289e-14 0.00000000e+00 1.53253639e-13 0.00000000e+00 1.98043289e-14
1.47636563e+01 1.72906314e-13 1.79419747e-14 0.00000000e+00 1.54964339e-13 0.00000000e+00 1.79419747e-14
1.52577522e+01 1.74481053e-13 1.62547521e-14 0.00000000e+00 1.58226301e-13 0.00000000e+00 1.62547521e-14
1.57683840e+01 1.77477309e-13 1.47261920e-14 0.00000000e+00 1.62751117e-13 0.00000000e+00 1.47261920e-14
1.62961051e+01 1.80375343e-13 1.33413743e-14 0.00000000e+00 1.67033969e-13 0.00000000e+00 1.33413743e-14
1.68414875e+01 1.83866740e-13 1.20867817e-14 0.00000000e+00 1.71779959e-13 0.00000000e+00 1.20867817e-14
1.74051222e+01 1.84475804e-13 1.09501681e-14 0.00000000e+00 1.73525635e-13 0.00000000e+00 1.09501681e-14
1.79876201e+01 1.84131028e-13 9.92043915e-15 0.00000000e+00 1.74210588e-13 0.00000000e+00 9.92043915e-15
1.85896125e+01 1.81128766e-13 8.98754353e-15 0.00000000e+00 1.72141222e-13 0.00000000e+00 8.98754353e-15
1.92117518e+01 1.74924055e-13 8.14237531e-15 0.00000000e+00 1.66781680e-13 0.00000000e+00 8.14237531e-15
1.98547123e+01 1.67828616e-13 7.37668479e-15 0.00000000e+00 1.60451931e-13 0.00000000e+00 7.37668479e-15
2.05191907e+01 1.60466269e-13 6.68299807e-15 0.00000000e+00 1.53783271e-13 0.00000000e+00 6.68299807e-15
2.12059073e+01 1.53860559e-13 6.05454408e-15 0.00000000e+00 1.47806015e-13 0.00000000e+00 6.05454408e-15
2.19156062e+01 1.47709400e-13 5.48518847e-15 0.00000000e+00 1.42224211e-13 0.00000000e+00 5.48518847e-15
2.26490567e+01 1.42530706e-13 4.96937378e-15 0.00000000e+00 1.37561332e-13 0.00000000e+00 4.96937378e-15
2.34070535e+01 1.38017535e-13 4.50206513e-15 0.00000000e+00 1.33515470e-13 0.00000000e+00 4.50206513e-15
2.41904183e+01 1.32829334e-13 4.07870113e-15 0.00000000e+00 1.28750633e-13 0.00000000e+00 4.07870113e-15
2.50000000e+01 1.28692508e-13 3.69514932e-15 0.00000000e+00 1.24997359e-13 0.00000000e+00 3.69514932e-15
2.75422870e+01 1.16152594e-13 2.76345259e-15 0.00000000e+00 1.13389141e-13 0.00000000e+00 2.76345259e-15
3.16227766e+01 9.95737906e-14 1.82579502e-15 0.00000000e+00 9.77479956e-14 0.00000000e+00 1.82579502e-15
3.63078055e+01 8.19743024e-14 1.20629081e-15 0.00000000e+00 8.07680116e-14 0.00000000e+00 1.20629081e-15
4.16869383e+01 6.42607332e-14 7.96988434e-16 0.00000000e+00 6.34637448e-14 0.00000000e+00 7.96988434e-16
4.78630092e+01 4.72584032e-14 5.26565037e-16 0.00000000e+00 4.67318382e-14 0.00000000e+00 5.26565037e-16
5.49540874e+01 3.28338814e-14 3.47898070e-16 0.00000000e+00 3.24859833e-14 0.00000000e+00 3.47898070e-16
6.30957344e+01 2.17512832e-14 2.29853975e-16 0.00000000e+00 2.15214292e-14 0.00000000e+00 2.29853975e-16
7.24435960e+01 1.37788814e-14 1.51863015e-16 0.00000000e+00 1.36270184e-14 0.00000000e+00 1.51863015e-16
8.31763771e+01 8.42870735e-15 1.00334899e-16 0.00000000e+00 8.32837245e-15 0.00000000e+00 1.00334899e-16
9.54992586e+01 5.01600073e-15 6.62906105e-17 0.00000000e+00 4.94971012e-15 0.00000000e+00 6.62906105e-17
1.09647820e+02 2.91682210e-15 4.37977720e-17 0.00000000e+00 2.87302433e-15 0.00000000e+00 4.37977720e-17
1.25892541e+02 1.68264220e-15 2.89369010e-17 0.00000000e+00 1.65370530e-15 0.00000000e+00 2.89369010e-17
1.44543977e+02 9.59963191e-16 1.91184209e-17 0.00000000e+00 9.40844770e-16 0.00000000e+00 1.91184209e-17
1.65958691e+02 5.20572894e-16 1.26314154e-17 0.00000000e+00 5.07941479e-16 0.00000000e+00 1.26314154e-17
1.90546072e+02 2.81418946e-16 8.34549342e-18 0.00000000e+00 2.73073453e-16 0.00000000e+00 8.34549342e-18
2.18776162e+02 1.51449737e-16 5.51381282e-18 0.00000000e+00 1.45935924e-16 0.00000000e+00 5.51381282e-18
2.51188643e+02 8.11012899e-17 3.64294000e-18 0.00000000e+00 7.74583499e-17 0.00000000e+00 3.64294000e-18
2.88403150e+02 4.32015158e-17 2.40686659e-18 0.00000000e+00 4.07946492e-17 0.00000000e+00 2.40686659e-18
3.31131121e+02 2.29660882e-17 1.59020099e-18 0.00000000e+00 2.13758872e-17 0.00000000e+00 1.59020099e-18
3.80189396e+02 1.21845133e-17 1.05063537e-18 0.00000000e+00 1.11338779e-17 0.00000000e+00 1.05063537e-18
4.36515832e+02 6.46861207e-18 6.94147908e-19 0.00000000e+00 5.77446416e-18 0.00000000e+00 6.94147908e-19
5.01187234e+02 3.44050705e-18 4.58618975e-19 0.00000000e+00 2.98188808e-18 0.00000000e+00 4.58618975e-19
5.75439937e+02 1.83743515e-18 3.03006552e-19 0.00000000e+00 1.53442860e-18 0.00000000e+00 3.03006552e-19
6.60693448e+02 9.87360858e-19 2.00194443e-19 0.00000000e+00 7.87166415e-19 0.00000000e+00 2.00194443e-19
7.58577575e+02 5.35013543e-19 1.32267157e-19 0.00000000e+00 4.02746386e-19 0.00000000e+00 1.32267157e-19
8.70963590e+02 2.92927968e-19 8.73880441e-20 0.00000000e+00 2.05539924e-19 0.00000000e+00 8.73880441e-20
1.00000000e+03 1.04653049e-19 0.00000000e+00 0.00000000e+00 1.04653049e-19 0.00000000e+00 0.00000000e+00
