# column 1: lambda (micron)
# column 2: total flux; lambda*F_lambda (W/m2)
# column 3: direct stellar flux; lambda*F_lambda (W/m2)
# column 4: scattered stellar flux; lambda*F_lambda (W/m2)
# column 5: total dust emission flux; lambda*F_lambda (W/m2)
# column 6: dust emission scattered flux; lambda*F_lambda (W/m2)
# column 7: transparent flux; lambda*F_lambda (W/m2)
1.00000000e-03 1.04616202e-12 1.04616148e-12 5.43593731e-19 0.00000000e+00 0.00000000e+00 1.04634360e-12
1.14815362e-03 1.23473781e-12 1.23473695e-12 8.61339988e-19 0.00000000e+00 0.00000000e+00 1.23502095e-12
1.31825674e-03 1.45729590e-12 1.45729454e-12 1.36082579e-18 0.00000000e+00 0.00000000e+00 1.45772071e-12
1.51356125e-03 1.71998690e-12 1.71998480e-12 2.09429698e-18 0.00000000e+00 0.00000000e+00 1.72057784e-12
1.73780083e-03 2.03013017e-12 2.03012633e-12 3.84285816e-18 0.00000000e+00 0.00000000e+00 2.03083353e-12
1.99526231e-03 2.39593483e-12 2.39592808e-12 6.75097637e-18 0.00000000e+00 0.00000000e+00 2.39703472e-12
2.29086765e-03 2.82789514e-12 2.82788445e-12 1.06903559e-17 0.00000000e+00 0.00000000e+00 2.82926954e-12
2.63026799e-03 3.33750697e-12 3.33748618e-12 2.07925505e-17 0.00000000e+00 0.00000000e+00 3.33944522e-12
3.01995172e-03 3.93883720e-12 3.93875650e-12 8.06996108e-17 0.00000000e+00 0.00000000e+00 3.94161611e-12
3.46736850e-03 4.64845400e-12 4.64839277e-12 6.12311028e-17 0.00000000e+00 0.00000000e+00 4.65237083e-12
3.98107171e-03 5.48601216e-12 5.48591500e-12 9.71533136e-17 0.00000000e+00 0.00000000e+00 5.49128930e-12
4.57088190e-03 6.47746342e-12 6.47725005e-12 2.13373138e-16 0.00000000e+00 0.00000000e+00 6.48148207e-12
5.24807460e-03 7.64423393e-12 7.64384763e-12 3.86304823e-16 0.00000000e+00 0.00000000e+00 7.65022704e-12
6.02559586e-03 9.02135512e-12 9.02064263e-12 7.12481832e-16 0.00000000e+00 0.00000000e+00 9.02972084e-12
6.91830971e-03 1.06466764e-11 1.06456000e-11 1.07630955e-15 0.00000000e+00 0.00000000e+00 1.06579658e-11
7.94328235e-03 1.25653817e-11 1.25635343e-11 1.84730231e-15 5.28241531e-304 4.55937347e-307 1.25798170e-11
9.12010839e-03 1.48299767e-11 1.48268921e-11 3.08463850e-15 2.29945954e-265 2.52427652e-268 1.48482176e-11
1.04712855e-02 1.65623503e-11 1.65580922e-11 4.25803949e-15 9.65862176e-232 1.33114255e-234 1.65834298e-11
1.20226443e-02 1.65632663e-11 1.65565981e-11 6.66823509e-15 1.50490265e-202 3.21885831e-205 1.65834298e-11
1.38038426e-02 1.65641270e-11 1.65548260e-11 9.30093842e-15 4.08360898e-177 1.42727167e-179 1.65834298e-11
1.58489319e-02 1.65669251e-11 1.65526485e-11 1.42765811e-14 5.50155511e-155 2.39859246e-157 1.65834298e-11
1.81970086e-02 1.65699155e-11 1.65506405e-11 1.92750086e-14 9.78501556e-136 5.79344688e-138 1.65834298e-11
2.08929613e-02 1.65754281e-11 1.65489715e-11 2.64566056e-14 5.10418127e-119 4.57969369e-121 1.65834298e-11
2.39883292e-02 1.65907946e-11 1.65468094e-11 4.39852742e-14 1.78849922e-104 2.14785719e-106 1.65834298e-11
2.75422870e-02 1.65976371e-11 1.65442947e-11 5.33423893e-14 7.99979445e-92 1.25118286e-93 1.65834298e-11
3.16227766e-02 1.66065751e-11 1.65418303e-11 6.47448827e-14 7.79778333e-81 1.52438354e-82 1.65834298e-11
3.63078055e-02 1.66121214e-11 1.65398975e-11 7.22238659e-14 2.70500255e-71 6.35665912e-73 1.65834298e-11
4.16869383e-02 1.66393123e-11 1.65382260e-11 1.01086282e-13 5.16247665e-63 1.71121361e-64 1.65834298e-11
4.78630092e-02 1.66700209e-11 1.65336194e-11 1.36401550e-13 7.85250483e-56 3.63561732e-57 1.65834298e-11
5.49540874e-02 1.66953097e-11 1.65272151e-11 1.68094584e-13 1.31347339e-49 7.64766533e-51 1.65834298e-11
6.30957344e-02 1.67262751e-11 1.65111674e-11 2.15107778e-13 4.29111650e-44 3.15792120e-45 1.65834298e-11
7.24435960e-02 1.67047956e-11 1.64921788e-11 2.12616834e-13 2.49148582e-39 1.83456320e-40 1.65834298e-11
8.31763771e-02 1.67067473e-11 1.64938676e-11 2.12879764e-13 2.54979806e-35 1.88168488e-36 1.65834298e-11
9.54992586e-02 1.67184689e-11 1.64988218e-11 2.19647131e-13 7.19100143e-32 5.57674284e-33 1.65834298e-11
1.09647820e-01 1.59959877e-11 1.57699051e-11 2.26082671e-13 6.08997308e-29 4.97177491e-30 1.58370587e-11
1.25892541e-01 1.49230889e-11 1.47283956e-11 1.94693318e-13 1.95896555e-26 1.49386803e-27 1.47800032e-11
1.44543977e-01 1.39275674e-11 1.37535695e-11 1.73997890e-13 2.65530989e-24 1.92635611e-25 1.37935015e-11
1.65958691e-01 1.30230465e-11 1.28402471e-11 1.82799391e-13 1.34824069e-22 1.09650946e-23 1.28728446e-11
1.90546072e-01 1.21939343e-11 1.19811849e-11 2.12749369e-13 2.86583199e-21 2.86057781e-22 1.20136376e-11
2.18776162e-01 1.13883357e-11 1.11762602e-11 2.12075507e-13 3.42675643e-20 3.80663416e-21 1.12117790e-11
2.51188643e-01 1.06858630e-11 1.04369227e-11 2.48939894e-13 4.19066684e-19 5.64079736e-20 1.04634409e-11
2.88403150e-01 9.96845075e-12 9.74449984e-12 2.23947453e-13 3.46405134e-18 4.45981576e-19 9.76505125e-12
3.31131121e-01 9.30050147e-12 9.09655446e-12 2.03927234e-13 1.97768659e-17 2.45021056e-18 9.11327608e-12
3.80189396e-01 8.67274898e-12 8.49129853e-12 1.81368089e-13 8.23680238e-17 9.87931114e-18 8.50500410e-12
4.36515832e-01 8.09166729e-12 7.92619848e-12 1.65203845e-13 2.64961934e-16 3.27124096e-17 7.93733165e-12
5.01187234e-01 7.55366995e-12 7.39862772e-12 1.54341471e-13 7.00762818e-16 9.35835181e-17 7.40754890e-12
5.75439937e-01 7.04696869e-12 6.90605194e-12 1.39213529e-13 1.70322313e-15 2.71716676e-16 6.91312687e-12
6.60693448e-01 6.58125239e-12 6.44614318e-12 1.30881174e-13 4.22802965e-15 8.34698748e-16 6.45170538e-12
7.58577575e-01 6.14661316e-12 6.01676204e-12 1.18721920e-13 1.11291974e-14 2.53349425e-15 6.02108180e-12
8.70963590e-01 5.75125981e-12 5.61591998e-12 1.06443593e-13 2.88962397e-14 6.88309965e-15 5.61920048e-12
1.00000000e+00 5.40369047e-12 5.24169199e-12 9.26237453e-14 6.93747354e-14 1.58949739e-14 5.24414302e-12
1.14815362e+00 5.12151879e-12 4.89232028e-12 7.72474973e-14 1.51951010e-13 3.18223105e-14 4.89411902e-12
1.31825674e+00 4.93132177e-12 4.56616052e-12 6.15959545e-14 3.03565296e-13 5.48958641e-14 4.56745763e-12
1.51356125e+00 4.85652960e-12 4.26167356e-12 4.77316574e-14 5.47124382e-13 8.30864888e-14 4.26259947e-12
1.73780083e+00 4.89897622e-12 3.97743910e-12 3.66364220e-14 8.84900701e-13 1.10330346e-13 3.97808929e-12
1.99526231e+00 5.02468363e-12 3.71211953e-12 2.62713719e-14 1.28629273e-12 1.24767427e-13 3.71256894e-12
2.29086765e+00 5.18921257e-12 3.46446126e-12 1.87258487e-14 1.70602546e-12 1.25251745e-13 3.46477093e-12
2.63026799e+00 5.32883624e-12 3.23329699e-12 1.32080218e-14 2.08233122e-12 1.13996332e-13 3.23351237e-12
3.01995172e+00 5.42564850e-12 3.01753760e-12 9.08998993e-15 2.39902091e-12 9.66706247e-14 3.01768933e-12
3.46736850e+00 5.41901719e-12 2.81616292e-12 6.19290040e-15 2.59666138e-12 7.70575948e-14 2.81627154e-12
3.98107171e+00 5.32396318e-12 2.62821877e-12 4.27449471e-15 2.69146992e-12 5.85181858e-14 2.62829753e-12
4.57088190e+00 5.13834630e-12 2.45281208e-12 2.87969468e-15 2.68265453e-12 4.17615733e-14 2.45286997e-12
5.24807460e+00 4.65828668e-12 2.02810906e-12 1.63609636e-15 2.62854152e-12 2.83307792e-14 2.02814751e-12
6.02559586e+00 3.87283674e-12 1.33996266e-12 7.24278050e-16 2.53214981e-12 1.83645885e-14 1.33998377e-12
6.70000000e+00 3.41577282e-12 9.74695754e-13 3.72544352e-16 2.44070452e-12 1.25902391e-14 9.74709347e-13
6.92422916e+00 3.29089468e-12 8.83038006e-13 3.00570213e-16 2.40755611e-12 1.10711946e-14 8.83049889e-13
7.15596261e+00 3.19726123e-12 7.99999301e-13 2.36893357e-16 2.39702503e-12 9.65273206e-15 8.00009879e-13
7.39545150e+00 3.14125398e-12 7.24768951e-13 1.83572450e-16 2.41630145e-12 8.28286694e-15 7.24778763e-13
7.64295536e+00 3.20521416e-12 6.56612082e-13 1.27196158e-16 2.54847488e-12 6.83012348e-15 6.56622211e-13
7.89874245e+00 3.47066542e-12 5.94863091e-13 7.59318445e-17 2.87572640e-12 5.34177253e-15 5.94874946e-13
8.16308998e+00 3.87296393e-12 5.38919752e-13 4.36118571e-17 3.33400057e-12 4.11257251e-15 5.38934254e-13
8.43628443e+00 4.43492299e-12 4.88235845e-13 2.43020330e-17 3.94666285e-12 3.07054353e-15 4.88254098e-13
8.71862190e+00 4.83373517e-12 4.42319470e-13 1.56269819e-17 4.39140007e-12 2.40399927e-15 4.42339790e-13
9.01040836e+00 5.25359315e-12 4.00720858e-13 9.95977149e-18 4.85286233e-12 1.87665549e-15 4.00743158e-13
9.31196005e+00 5.62787163e-12 3.63034747e-13 0.00000000e+00 5.26483688e-12 0.00000000e+00 3.63058180e-13
9.62360379e+00 5.58467126e-12 3.28895223e-13 0.00000000e+00 5.25577603e-12 0.00000000e+00 3.28917012e-13
9.94567731e+00 5.28234032e-12 2.97967880e-13 0.00000000e+00 4.98437244e-12 0.00000000e+00 2.97986401e-13
1.02785297e+01 4.94646825e-12 2.69949255e-13 0.00000000e+00 4.67651900e-12 0.00000000e+00 2.69964435e-13
1.06225216e+01 4.56903668e-12 2.44565284e-13 0.00000000e+00 4.32447139e-12 0.00000000e+00 2.44577592e-13
1.09780260e+01 4.17198647e-12 2.21568450e-13 0.00000000e+00 3.95041802e-12 0.00000000e+00 2.21578069e-13
1.13454280e+01 3.85489249e-12 2.00733822e-13 0.00000000e+00 3.65415867e-12 0.00000000e+00 2.00741370e-13
1.17251259e+01 3.56296118e-12 1.81858145e-13 0.00000000e+00 3.38110303e-12 0.00000000e+00 1.81864106e-13
1.21175312e+01 3.31520735e-12 1.64757334e-13 0.00000000e+00 3.15045002e-12 0.00000000e+00 1.64762018e-13
1.25230691e+01 3.07935012e-12 1.49264501e-13 0.00000000e+00 2.93008562e-12 0.00000000e+00 1.49268171e-13
1.29421791e+01 2.89239643e-12 1.35228435e-13 0.00000000e+00 2.75716800e-12 0.00000000e+00 1.35231331e-13
1.33753155e+01 2.73156703e-12 1.22512182e-13 0.00000000e+00 2.60905485e-12 0.00000000e+00 1.22514483e-13
1.38229477e+01 2.62617468e-12 1.10991586e-13 0.00000000e+00 2.51518309e-12 0.00000000e+00 1.10993499e-13
1.42855609e+01 2.58520585e-12 1.00554259e-13 0.00000000e+00 2.48465159e-12 0.00000000e+00 1.00555922e-13
1.47636563e+01 2.63287973e-12 9.10982926e-14 0.00000000e+00 2.54178144e-12 0.00000000e+00 9.10998706e-14
1.52577522e+01 2.71708715e-12 8.25315205e-14 0.00000000e+00 2.63455563e-12 0.00000000e+00 8.25330452e-14
1.57683840e+01 2.81164421e-12 7.47703326e-14 0.00000000e+00 2.73687388e-12 0.00000000e+00 7.47718247e-14
1.62961051e+01 2.90496625e-12 6.77389933e-14 0.00000000e+00 2.83722725e-12 0.00000000e+00 6.77404517e-14
1.68414875e+01 3.02322988e-12 6.13688709e-14 0.00000000e+00 2.96186101e-12 0.00000000e+00 6.13702932e-14
1.74051222e+01 3.09123576e-12 5.55978192e-14 0.00000000e+00 3.03563794e-12 0.00000000e+00 5.55991699e-14
1.79876201e+01 3.14659531e-12 5.03694889e-14 0.00000000e+00 3.09622582e-12 0.00000000e+00 5.03707500e-14
1.85896125e+01 3.16134308e-12 4.56328578e-14 0.00000000e+00 3.11571023e-12 0.00000000e+00 4.56339988e-14
1.92117518e+01 3.14971545e-12 4.13416787e-14 0.00000000e+00 3.10837377e-12 0.00000000e+00 4.13426810e-14
1.98547123e+01 3.09483849e-12 3.74540458e-14 0.00000000e+00 3.05738445e-12 0.00000000e+00 3.74549090e-14
2.05191907e+01 3.04300972e-12 3.39319983e-14 0.00000000e+00 3.00907772e-12 0.00000000e+00 3.39327342e-14
2.12059073e+01 2.98863378e-12 3.07411495e-14 0.00000000e+00 2.95789263e-12 0.00000000e+00 3.07417768e-14
2.19156062e+01 2.94020720e-12 2.78503525e-14 0.00000000e+00 2.91235684e-12 0.00000000e+00 2.78508898e-14
2.26490567e+01 2.88462680e-12 2.52313943e-14 0.00000000e+00 2.85939541e-12 0.00000000e+00 2.52318552e-14
2.34070535e+01 2.82831252e-12 2.28587125e-14 0.00000000e+00 2.80545381e-12 0.00000000e+00 2.28591087e-14
2.41904183e+01 2.77734308e-12 2.07091486e-14 0.00000000e+00 2.75663393e-12 0.00000000e+00 2.07094900e-14
2.50000000e+01 2.72953492e-12 1.87617216e-14 0.00000000e+00 2.71077320e-12 0.00000000e+00 1.87620165e-14
2.75422870e+01 2.54917896e-12 1.40311603e-14 0.00000000e+00 2.53514780e-12 0.00000000e+00 1.40313526e-14
3.16227766e+01 2.22758365e-12 9.27031710e-15 0.00000000e+00 2.21831333e-12 0.00000000e+00 9.27042274e-15
3.63078055e+01 1.83362262e-12 6.12484983e-15 0.00000000e+00 1.82749777e-12 0.00000000e+00 6.12490756e-15
4.16869383e+01 1.40654585e-12 4.04665558e-15 0.00000000e+00 1.40249920e-12 0.00000000e+00 4.04668630e-15
4.78630092e+01 1.00983728e-12 2.67360329e-15 0.00000000e+00 1.00716367e-12 0.00000000e+00 2.67361912e-15
5.49540874e+01 6.78578356e-13 1.76643465e-15 0.00000000e+00 6.76811921e-13 0.00000000e+00 1.76644264e-15
6.30957344e+01 4.33063837e-13 1.16707310e-15 0.00000000e+00 4.31896763e-13 0.00000000e+00 1.16707708e-15
7.24435960e+01 2.64630643e-13 7.71078209e-16 0.00000000e+00 2.63859565e-13 0.00000000e+00 7.71080178e-16
8.31763771e+01 1.56298315e-13 5.09446649e-16 0.00000000e+00 1.55788868e-13 0.00000000e+00 5.09447621e-16
9.54992586e+01 9.00249246e-14 3.36588224e-16 0.00000000e+00 8.96883364e-14 0.00000000e+00 3.36588705e-16
1.09647820e+02 5.08152352e-14 2.22381713e-16 0.00000000e+00 5.05928535e-14 0.00000000e+00 2.22381952e-16
1.25892541e+02 2.85502780e-14 1.46926178e-16 0.00000000e+00 2.84033518e-14 0.00000000e+00 1.46926299e-16
1.44543977e+02 1.59003635e-14 9.70731818e-17 0.00000000e+00 1.58032903e-14 0.00000000e+00 9.70732430e-17
1.65958691e+02 8.43359206e-15 6.41356256e-17 0.00000000e+00 8.36945643e-15 0.00000000e+00 6.41356556e-17
1.90546072e+02 4.46522947e-15 4.23739926e-17 0.00000000e+00 4.42285548e-15 0.00000000e+00 4.23740075e-17
2.18776162e+02 2.35733970e-15 2.79962217e-17 0.00000000e+00 2.32934348e-15 0.00000000e+00 2.79962291e-17
2.51188643e+02 1.23928031e-15 1.84969214e-17 0.00000000e+00 1.22078339e-15 0.00000000e+00 1.84969251e-17
2.88403150e+02 6.48270632e-16 1.22207954e-17 0.00000000e+00 6.36049837e-16 0.00000000e+00 1.22207972e-17
3.31131121e+02 3.38203861e-16 8.07419974e-18 0.00000000e+00 3.30129661e-16 0.00000000e+00 8.07420067e-18
3.80189396e+02 1.75892103e-16 5.33457101e-18 0.00000000e+00 1.70557532e-16 0.00000000e+00 5.33457148e-18
4.36515832e+02 9.13649682e-17 3.52451619e-18 0.00000000e+00 8.78404520e-17 0.00000000e+00 3.52451642e-18
5.01187234e+02 4.74164366e-17 2.32862479e-18 0.00000000e+00 4.50878118e-17 0.00000000e+00 2.32862491e-18
5.75439937e+02 2.46186236e-17 1.53850716e-18 0.00000000e+00 2.30801165e-17 0.00000000e+00 1.53850722e-18
6.60693448e+02 1.28032116e-17 1.01648161e-18 0.00000000e+00 1.17867300e-17 0.00000000e+00 1.01648164e-18
7.58577575e+02 6.67862049e-18 6.71582745e-19 0.00000000e+00 6.00703774e-18 0.00000000e+00 6.71582760e-19
8.70963590e+02 3.49903064e-18 4.43710322e-19 0.00000000e+00 3.05532032e-18 0.00000000e+00 4.43710329e-19
1.00000000e+03 1.55109546e-18 0.00000000e+00 0.00000000e+00 1.55109546e-18 0.00000000e+00 0.00000000e+00
