# column 1: lambda (micron)
# column 2: total flux; lambda*F_lambda (W/m2)
# column 3: direct stellar flux; lambda*F_lambda (W/m2)
# column 4: scattered stellar flux; lambda*F_lambda (W/m2)
# column 5: total dust emission flux; lambda*F_lambda (W/m2)
# column 6: dust emission scattered flux; lambda*F_lambda (W/m2)
# column 7: transparent flux; lambda*F_lambda (W/m2)
1.00000000e-03 9.68077893e-13 9.68073281e-13 4.61228918e-18 0.00000000e+00 0.00000000e+00 9.68073281e-13
1.14815362e-03 1.14264388e-12 1.14263687e-12 7.00466973e-18 0.00000000e+00 0.00000000e+00 1.14263687e-12
1.31825674e-03 1.34868831e-12 1.34867788e-12 1.04298544e-17 0.00000000e+00 0.00000000e+00 1.34867788e-12
1.51356125e-03 1.59188778e-12 1.59187233e-12 1.54473771e-17 0.00000000e+00 0.00000000e+00 1.59187233e-12
1.73780083e-03 1.87894868e-12 1.87891976e-12 2.89202673e-17 0.00000000e+00 0.00000000e+00 1.87891976e-12
1.99526231e-03 2.21777596e-12 2.21772777e-12 4.81901601e-17 0.00000000e+00 0.00000000e+00 2.21772777e-12
2.29086765e-03 2.61770635e-12 2.61762985e-12 7.65086740e-17 0.00000000e+00 0.00000000e+00 2.61762985e-12
2.63026799e-03 3.08979148e-12 3.08964252e-12 1.48957767e-16 0.00000000e+00 0.00000000e+00 3.08964252e-12
3.01995172e-03 3.64700623e-12 3.64676883e-12 2.37402061e-16 0.00000000e+00 0.00000000e+00 3.64676883e-12
3.46736850e-03 4.30475264e-12 4.30435650e-12 3.96143169e-16 0.00000000e+00 0.00000000e+00 4.30435650e-12
3.98107171e-03 5.08112094e-12 5.08052080e-12 6.00138273e-16 0.00000000e+00 0.00000000e+00 5.08052080e-12
4.57088190e-03 5.99820012e-12 5.99664354e-12 1.55658153e-15 0.00000000e+00 0.00000000e+00 5.99664354e-12
5.24807460e-03 7.08052293e-12 7.07796211e-12 2.56081575e-15 0.00000000e+00 0.00000000e+00 7.07796211e-12
6.02559586e-03 8.35871337e-12 8.35426474e-12 4.44862749e-15 0.00000000e+00 0.00000000e+00 8.35426474e-12
6.91830971e-03 9.86783551e-12 9.86071107e-12 7.12444193e-15 0.00000000e+00 0.00000000e+00 9.86071107e-12
7.94328235e-03 1.16498068e-11 1.16388008e-11 1.10060529e-14 0.00000000e+00 0.00000000e+00 1.16388008e-11
9.12010839e-03 1.37557759e-11 1.37375167e-11 1.82592082e-14 0.00000000e+00 0.00000000e+00 1.37375167e-11
1.04712855e-02 1.53692958e-11 1.53429287e-11 2.63670914e-14 0.00000000e+00 0.00000000e+00 1.53429287e-11
1.20226443e-02 1.53815713e-11 1.53429287e-11 3.86426419e-14 0.00000000e+00 0.00000000e+00 1.53429287e-11
1.38038426e-02 1.54283969e-11 1.53429287e-11 8.54682748e-14 2.27399443e-291 2.27091431e-292 1.53429287e-11
1.58489319e-02 1.54360663e-11 1.53429287e-11 9.31376496e-14 2.89678115e-254 3.52681815e-255 1.53429287e-11
1.81970086e-02 1.54510078e-11 1.53429287e-11 1.08079122e-13 5.48682592e-222 6.21233556e-223 1.53429287e-11
2.08929613e-02 1.54823908e-11 1.53429287e-11 1.39462164e-13 6.47680582e-194 7.60769343e-195 1.53429287e-11
2.39883292e-02 1.55271972e-11 1.53429287e-11 1.84268522e-13 1.73898083e-169 1.99842016e-170 1.53429287e-11
2.75422870e-02 1.55550225e-11 1.53429287e-11 2.12093854e-13 3.17100333e-148 3.58908389e-149 1.53429287e-11
3.16227766e-02 1.55999019e-11 1.53429287e-11 2.56973187e-13 9.85125459e-130 1.20902376e-130 1.53429287e-11
3.63078055e-02 1.56260760e-11 1.53429287e-11 2.83147325e-13 1.15546603e-113 1.41926117e-114 1.53429287e-11
4.16869383e-02 1.56994475e-11 1.53429287e-11 3.56518818e-13 1.08605924e-99 1.47934337e-100 1.53429287e-11
4.78630092e-02 1.57506275e-11 1.53429287e-11 4.07698874e-13 1.48407774e-87 2.21213028e-88 1.53429287e-11
5.49540874e-02 1.57825275e-11 1.53429287e-11 4.39598788e-13 5.07089211e-77 7.94317013e-78 1.53429287e-11
6.30957344e-02 1.57616065e-11 1.53429287e-11 4.18677820e-13 9.13384504e-68 1.50251957e-68 1.53429287e-11
7.24435960e-02 1.56985635e-11 1.53429287e-11 3.55634844e-13 9.51203816e-60 1.44533068e-60 1.53429287e-11
8.31763771e-02 1.56774036e-11 1.53429287e-11 3.34474964e-13 7.01574332e-53 1.03088985e-53 1.53429287e-11
9.54992586e-02 1.56963754e-11 1.53429287e-11 3.53446767e-13 6.14640806e-47 9.36063174e-48 1.53429287e-11
1.09647820e-01 1.50523276e-11 1.46523889e-11 3.99938747e-13 8.06283107e-42 1.34260087e-42 1.46523889e-11
1.25892541e-01 1.40796774e-11 1.36744049e-11 4.05272447e-13 2.12770251e-37 3.68680710e-38 1.36744049e-11
1.44543977e-01 1.31514631e-11 1.27616972e-11 3.89765909e-13 1.34915413e-33 2.32992212e-34 1.27616972e-11
1.65958691e-01 1.23253909e-11 1.19099088e-11 4.15482125e-13 2.01959871e-30 3.89559111e-31 1.19099088e-11
1.90546072e-01 1.15431359e-11 1.11149736e-11 4.28162309e-13 8.18851987e-28 1.82951873e-28 1.11149736e-11
2.18776162e-01 1.07477631e-11 1.03730969e-11 3.74666170e-13 1.25894914e-25 2.91475869e-26 1.03730969e-11
2.51188643e-01 1.01410282e-11 9.68073733e-12 4.60290857e-13 1.69161388e-23 4.86056378e-24 9.68073733e-12
2.88403150e-01 9.47165742e-12 9.03458975e-12 4.37067665e-13 1.16246524e-21 3.46198045e-22 9.03458975e-12
3.31131121e-01 8.84953163e-12 8.43156974e-12 4.17961840e-13 4.44726548e-20 1.35754573e-20 8.43156974e-12
3.80189396e-01 8.25552346e-12 7.86879872e-12 3.86723709e-13 1.02719208e-18 3.20653973e-19 7.86879872e-12
4.36515832e-01 7.71579728e-12 7.34359025e-12 3.72191594e-13 1.54303136e-17 4.92683742e-18 7.34359025e-12
5.01187234e-01 7.20619710e-12 6.85343719e-12 3.52602500e-13 1.57412457e-16 5.17223128e-17 6.85343719e-12
5.75439937e-01 6.71961806e-12 6.39599973e-12 3.22474958e-13 1.14337418e-15 3.75633570e-16 6.39599973e-12
6.60693448e-01 6.27779455e-12 5.96909425e-12 3.02529758e-13 6.17054010e-15 2.03804395e-15 5.96909425e-12
7.58577575e-01 5.86731361e-12 5.57068288e-12 2.70620831e-13 2.60098909e-14 8.49340349e-15 5.57068288e-12
8.70963590e-01 5.52552479e-12 5.19886376e-12 2.38461103e-13 8.81999260e-14 2.76594385e-14 5.19886376e-12
1.00000000e+00 5.30593272e-12 4.85186196e-12 2.07178683e-13 2.46892077e-13 7.32036162e-14 4.85186196e-12
1.14815362e+00 5.29706918e-12 4.52802104e-12 1.71208494e-13 5.97839644e-13 1.62076618e-13 4.52802104e-12
1.31825674e+00 5.62679131e-12 4.22579511e-12 1.37069428e-13 1.26392677e-12 3.01626798e-13 4.22579511e-12
1.51356125e+00 6.41319320e-12 3.94374146e-12 1.06842933e-13 2.36260880e-12 4.85372955e-13 3.94374146e-12
1.73780083e+00 7.64461017e-12 3.68051368e-12 8.20566857e-14 3.88203980e-12 6.71520602e-13 3.68051368e-12
1.99526231e+00 9.17866137e-12 3.43485522e-12 6.27631508e-14 5.68104300e-12 7.99853902e-13 3.43485522e-12
2.29086765e+00 1.08106677e-11 3.20559341e-12 4.67539784e-14 7.55832032e-12 8.38891861e-13 3.20559341e-12
2.63026799e+00 1.22796956e-11 2.99163384e-12 3.45825860e-14 9.25347923e-12 7.96366191e-13 2.99163384e-12
3.01995172e+00 1.33319055e-11 2.79195514e-12 2.52759151e-14 1.05146744e-11 6.93628271e-13 2.79195514e-12
3.46736850e+00 1.40115152e-11 2.60560415e-12 1.80332988e-14 1.13878777e-11 5.66233019e-13 2.60560415e-12
3.98107171e+00 1.42238590e-11 2.43169128e-12 1.27050273e-14 1.17794626e-11 4.33996501e-13 2.43169128e-12
4.57088190e+00 1.40833677e-11 2.26938634e-12 8.72686570e-15 1.18052545e-11 3.12650360e-13 2.26938634e-12
5.24807460e+00 1.33360593e-11 1.87643467e-12 5.08984582e-15 1.14545348e-11 2.07102663e-13 1.87643467e-12
6.02559586e+00 1.22343338e-11 1.23974809e-12 2.24144832e-15 1.09923443e-11 1.30877332e-13 1.23974809e-12
6.70000000e+00 1.14476841e-11 9.01797527e-13 1.15823200e-15 1.05447284e-11 8.74386404e-14 9.01797527e-13
6.92422916e+00 1.11758596e-11 8.16994532e-13 9.34293023e-16 1.03579308e-11 7.62698779e-14 8.16994532e-13
7.15596261e+00 1.09827845e-11 7.40166218e-13 7.50712062e-16 1.02418676e-11 6.58787976e-14 7.40166218e-13
7.39545150e+00 1.09467039e-11 6.70562664e-13 5.69454995e-16 1.02755718e-11 5.62915637e-14 6.70562664e-13
7.64295536e+00 1.12893888e-11 6.07504471e-13 3.94569163e-16 1.06814897e-11 4.59956333e-14 6.07504471e-13
7.89874245e+00 1.20518393e-11 5.50376127e-13 2.36963478e-16 1.15012262e-11 3.56123738e-14 5.50376127e-13
8.16308998e+00 1.31275666e-11 4.98620004e-13 1.34238435e-16 1.26288124e-11 2.65644369e-14 4.98620004e-13
8.43628443e+00 1.42449909e-11 4.51730909e-13 7.26711870e-17 1.37931874e-11 1.92523510e-14 4.51730909e-13
8.71862190e+00 1.47845458e-11 4.09251158e-13 4.57519518e-17 1.43752489e-11 1.48515348e-14 4.09251158e-13
9.01040836e+00 1.52471164e-11 3.70766106e-13 2.90944979e-17 1.48763212e-11 1.13096458e-14 3.70766106e-13
9.31196005e+00 1.55523151e-11 3.35900102e-13 0.00000000e+00 1.52164150e-11 0.00000000e+00 3.35900102e-13
9.62360379e+00 1.53452924e-11 3.04312818e-13 0.00000000e+00 1.50409796e-11 0.00000000e+00 3.04312818e-13
9.94567731e+00 1.46383279e-11 2.75695930e-13 0.00000000e+00 1.43626320e-11 0.00000000e+00 2.75695930e-13
1.02785297e+01 1.41075611e-11 2.49770110e-13 0.00000000e+00 1.38577910e-11 0.00000000e+00 2.49770110e-13
1.06225216e+01 1.36016287e-11 2.26282295e-13 0.00000000e+00 1.33753464e-11 0.00000000e+00 2.26282295e-13
1.09780260e+01 1.29491045e-11 2.05003220e-13 0.00000000e+00 1.27441013e-11 0.00000000e+00 2.05003220e-13
1.13454280e+01 1.24057153e-11 1.85725182e-13 0.00000000e+00 1.22199901e-11 0.00000000e+00 1.85725182e-13
1.17251259e+01 1.18258548e-11 1.68260007e-13 0.00000000e+00 1.16575948e-11 0.00000000e+00 1.68260007e-13
1.21175312e+01 1.13699121e-11 1.52437217e-13 0.00000000e+00 1.12174749e-11 0.00000000e+00 1.52437217e-13
1.25230691e+01 1.08916412e-11 1.38102367e-13 0.00000000e+00 1.07535388e-11 0.00000000e+00 1.38102367e-13
1.29421791e+01 1.04597678e-11 1.25115533e-13 0.00000000e+00 1.03346523e-11 0.00000000e+00 1.25115533e-13
1.33753155e+01 1.00049494e-11 1.13349952e-13 0.00000000e+00 9.89159944e-12 0.00000000e+00 1.13349952e-13
1.38229477e+01 9.73476017e-12 1.02690779e-13 0.00000000e+00 9.63206939e-12 0.00000000e+00 1.02690779e-13
1.42855609e+01 9.59518892e-12 9.30339713e-14 0.00000000e+00 9.50215495e-12 0.00000000e+00 9.30339713e-14
1.47636563e+01 9.73354279e-12 8.42852675e-14 0.00000000e+00 9.64925752e-12 0.00000000e+00 8.42852675e-14
1.52577522e+01 9.96974602e-12 7.63592720e-14 0.00000000e+00 9.89338675e-12 0.00000000e+00 7.63592720e-14
1.57683840e+01 1.02150789e-11 6.91786191e-14 0.00000000e+00 1.01459003e-11 0.00000000e+00 6.91786191e-14
1.62961051e+01 1.04658579e-11 6.26732185e-14 0.00000000e+00 1.04031847e-11 0.00000000e+00 6.26732185e-14
1.68414875e+01 1.07770482e-11 5.67795711e-14 0.00000000e+00 1.07202687e-11 0.00000000e+00 5.67795711e-14
1.74051222e+01 1.09337018e-11 5.14401489e-14 0.00000000e+00 1.08822617e-11 0.00000000e+00 5.14401489e-14
1.79876201e+01 1.10957122e-11 4.66028339e-14 0.00000000e+00 1.10491094e-11 0.00000000e+00 4.66028339e-14
1.85896125e+01 1.10959912e-11 4.22204090e-14 0.00000000e+00 1.10537708e-11 0.00000000e+00 4.22204090e-14
1.92117518e+01 1.10472506e-11 3.82500974e-14 0.00000000e+00 1.10090005e-11 0.00000000e+00 3.82500974e-14
1.98547123e+01 1.09241546e-11 3.46531450e-14 0.00000000e+00 1.08895014e-11 0.00000000e+00 3.46531450e-14
2.05191907e+01 1.07083997e-11 3.13944418e-14 0.00000000e+00 1.06770053e-11 0.00000000e+00 3.13944418e-14
2.12059073e+01 1.05332067e-11 2.84421796e-14 0.00000000e+00 1.05047645e-11 0.00000000e+00 2.84421796e-14
2.19156062e+01 1.03213006e-11 2.57675415e-14 0.00000000e+00 1.02955331e-11 0.00000000e+00 2.57675415e-14
2.26490567e+01 1.01397985e-11 2.33444203e-14 0.00000000e+00 1.01164540e-11 0.00000000e+00 2.33444203e-14
2.34070535e+01 9.92985279e-12 2.11491639e-14 0.00000000e+00 9.90870362e-12 0.00000000e+00 2.11491639e-14
2.41904183e+01 9.71740803e-12 1.91603445e-14 0.00000000e+00 9.69824768e-12 0.00000000e+00 1.91603445e-14
2.50000000e+01 9.47504549e-12 1.73585491e-14 0.00000000e+00 9.45768694e-12 0.00000000e+00 1.73585491e-14
2.75422870e+01 8.67908293e-12 1.29817562e-14 0.00000000e+00 8.66610117e-12 0.00000000e+00 1.29817562e-14
3.16227766e+01 7.34158629e-12 8.57696126e-15 0.00000000e+00 7.33300933e-12 0.00000000e+00 8.57696126e-15
3.63078055e+01 5.82250979e-12 5.66674211e-15 0.00000000e+00 5.81684305e-12 0.00000000e+00 5.66674211e-15
4.16869383e+01 4.29466832e-12 3.74397938e-15 0.00000000e+00 4.29092434e-12 0.00000000e+00 3.74397938e-15
4.78630092e+01 2.94810134e-12 2.47362265e-15 0.00000000e+00 2.94562772e-12 0.00000000e+00 2.47362265e-15
5.49540874e+01 1.90412699e-12 1.63430628e-15 0.00000000e+00 1.90249269e-12 0.00000000e+00 1.63430628e-15
6.30957344e+01 1.16952285e-12 1.07977545e-15 0.00000000e+00 1.16844308e-12 0.00000000e+00 1.07977545e-15
7.24435960e+01 6.91171111e-13 7.13400564e-16 0.00000000e+00 6.90457710e-13 0.00000000e+00 7.13400564e-16
8.31763771e+01 3.96543263e-13 4.71339078e-16 0.00000000e+00 3.96071924e-13 0.00000000e+00 4.71339078e-16
9.54992586e+01 2.22673695e-13 3.11410641e-16 0.00000000e+00 2.22362284e-13 0.00000000e+00 3.11410641e-16
1.09647820e+02 1.23075672e-13 2.05746970e-16 0.00000000e+00 1.22869925e-13 0.00000000e+00 2.05746970e-16
1.25892541e+02 6.79718450e-14 1.35935675e-16 0.00000000e+00 6.78359093e-14 0.00000000e+00 1.35935675e-16
1.44543977e+02 3.73145240e-14 8.98118099e-17 0.00000000e+00 3.72247122e-14 0.00000000e+00 8.98118099e-17
1.65958691e+02 1.95302598e-14 5.93380743e-17 0.00000000e+00 1.94709217e-14 0.00000000e+00 5.93380743e-17
1.90546072e+02 1.02269743e-14 3.92042769e-17 0.00000000e+00 1.01877700e-14 0.00000000e+00 3.92042769e-17
2.18776162e+02 5.34701036e-15 2.59020089e-17 0.00000000e+00 5.32110835e-15 0.00000000e+00 2.59020089e-17
2.51188643e+02 2.78672073e-15 1.71132876e-17 0.00000000e+00 2.76960744e-15 0.00000000e+00 1.71132876e-17
2.88403150e+02 1.44598851e-15 1.13066370e-17 0.00000000e+00 1.43468187e-15 0.00000000e+00 1.13066370e-17
3.31131121e+02 7.48570971e-16 7.47022097e-18 0.00000000e+00 7.41100751e-16 0.00000000e+00 7.47022097e-18
3.80189396e+02 3.86276690e-16 4.93552605e-18 0.00000000e+00 3.81341164e-16 0.00000000e+00 4.93552605e-18
4.36515832e+02 1.98981352e-16 3.26086972e-18 0.00000000e+00 1.95720482e-16 0.00000000e+00 3.26086972e-18
5.01187234e+02 1.02324435e-16 2.15443526e-18 0.00000000e+00 1.00169999e-16 0.00000000e+00 2.15443526e-18
5.75439937e+02 5.25736139e-17 1.42342126e-18 0.00000000e+00 5.11501927e-17 0.00000000e+00 1.42342126e-18
6.60693448e+02 2.70077550e-17 9.40445101e-19 0.00000000e+00 2.60673099e-17 0.00000000e+00 9.40445101e-19
7.58577575e+02 1.38828320e-17 6.21345916e-19 0.00000000e+00 1.32614861e-17 0.00000000e+00 6.21345916e-19
8.70963590e+02 7.14533461e-18 4.10519176e-19 0.00000000e+00 6.73481544e-18 0.00000000e+00 4.10519176e-19
1.00000000e+03 3.41462583e-18 0.00000000e+00 0.00000000e+00 3.41462583e-18 0.00000000e+00 0.00000000e+00
