# column 1: lambda (micron)
# column 2: total flux; lambda*F_lambda (W/m2)
# column 3: direct stellar flux; lambda*F_lambda (W/m2)
# column 4: scattered stellar flux; lambda*F_lambda (W/m2)
# column 5: total dust emission flux; lambda*F_lambda (W/m2)
# column 6: dust emission scattered flux; lambda*F_lambda (W/m2)
# column 7: transparent flux; lambda*F_lambda (W/m2)
1.00000000e-03 6.92955286e-13 6.92955199e-13 8.62615294e-20 0.00000000e+00 0.00000000e+00 6.93993746e-13
1.14815362e-03 8.17516386e-13 8.17516028e-13 3.57720399e-19 0.00000000e+00 0.00000000e+00 8.19135139e-13
1.31825674e-03 9.64415973e-13 9.64412995e-13 2.97859790e-18 0.00000000e+00 0.00000000e+00 9.66842108e-13
1.51356125e-03 1.13781625e-12 1.13780419e-12 1.20612577e-17 0.00000000e+00 0.00000000e+00 1.14118369e-12
1.73780083e-03 1.34294693e-12 1.34293260e-12 1.43310099e-17 0.00000000e+00 0.00000000e+00 1.34696266e-12
1.99526231e-03 1.58364178e-12 1.58354425e-12 9.75308485e-17 0.00000000e+00 0.00000000e+00 1.58984782e-12
2.29086765e-03 1.86882505e-12 1.86864132e-12 1.83724176e-16 0.00000000e+00 0.00000000e+00 1.87653019e-12
2.63026799e-03 2.20387883e-12 2.20375360e-12 1.25226527e-16 0.00000000e+00 0.00000000e+00 2.21490731e-12
3.01995172e-03 2.59841093e-12 2.59802833e-12 3.82594267e-16 0.00000000e+00 0.00000000e+00 2.61430080e-12
3.46736850e-03 3.06927354e-12 3.06308740e-12 6.18613930e-15 0.00000000e+00 0.00000000e+00 3.08571319e-12
3.98107171e-03 3.61513525e-12 3.61157821e-12 3.55703610e-15 0.00000000e+00 0.00000000e+00 3.64213095e-12
4.57088190e-03 4.27616433e-12 4.27479355e-12 1.37077370e-15 0.00000000e+00 0.00000000e+00 4.29888232e-12
5.24807460e-03 5.06062659e-12 5.03777274e-12 2.28538487e-14 0.00000000e+00 0.00000000e+00 5.07405951e-12
6.02559586e-03 5.96292846e-12 5.93741297e-12 2.55154868e-14 0.00000000e+00 0.00000000e+00 5.98901715e-12
6.91830971e-03 7.00851905e-12 6.99870969e-12 9.80936073e-15 0.00000000e+00 0.00000000e+00 7.06896053e-12
7.94328235e-03 8.26135201e-12 8.25118431e-12 1.01677061e-14 3.66076339e-303 5.61717236e-305 8.34363998e-12
9.12010839e-03 9.76581576e-12 9.72714594e-12 3.86698134e-14 1.86763797e-264 4.38167210e-266 9.84817045e-12
1.04712855e-02 1.08804761e-11 1.08553173e-11 2.51587308e-14 9.37457389e-231 5.96170458e-232 1.09990604e-11
1.20226443e-02 1.08762150e-11 1.08468928e-11 2.93221614e-14 1.58935748e-201 5.69432747e-203 1.09990604e-11
1.38038426e-02 1.08906971e-11 1.08369089e-11 5.37881865e-14 4.79310097e-176 1.97754259e-177 1.09990604e-11
1.58489319e-02 1.08667838e-11 1.08246521e-11 4.21317521e-14 7.06857842e-154 3.26823635e-155 1.09990604e-11
1.81970086e-02 1.08589701e-11 1.08133596e-11 4.56104928e-14 1.36108354e-134 6.91516450e-136 1.09990604e-11
2.08929613e-02 1.08508945e-11 1.08039821e-11 4.69123880e-14 7.54956329e-118 3.73535996e-119 1.09990604e-11
2.39883292e-02 1.08399941e-11 1.07918441e-11 4.81500077e-14 2.81714084e-103 1.66579487e-104 1.09990604e-11
2.75422870e-02 1.08336481e-11 1.07777427e-11 5.59054011e-14 1.31100620e-90 7.45125154e-92 1.09990604e-11
3.16227766e-02 1.08191899e-11 1.07639381e-11 5.52517914e-14 1.32482983e-79 7.23441329e-81 1.09990604e-11
3.63078055e-02 1.08093079e-11 1.07531228e-11 5.61851462e-14 4.75418998e-70 2.65384104e-71 1.09990604e-11
4.16869383e-02 1.08052405e-11 1.07437772e-11 6.14632905e-14 9.35667960e-62 5.80636476e-63 1.09990604e-11
4.78630092e-02 1.07869522e-11 1.07180582e-11 6.88940258e-14 1.44105032e-54 9.74714335e-56 1.09990604e-11
5.49540874e-02 1.07588180e-11 1.06823934e-11 7.64246127e-14 2.42259059e-48 1.67574003e-49 1.09990604e-11
6.30957344e-02 1.06821019e-11 1.05934849e-11 8.86169700e-14 7.80571404e-43 5.13396084e-44 1.09990604e-11
7.24435960e-02 1.05796685e-11 1.04891286e-11 9.05398242e-14 4.51482063e-38 2.56308626e-39 1.09990604e-11
8.31763771e-02 1.05881005e-11 1.04983730e-11 8.97275039e-14 4.69617908e-34 2.59871572e-35 1.09990604e-11
9.54992586e-02 1.06126448e-11 1.05255332e-11 8.71115421e-14 1.34770248e-30 7.90441424e-32 1.09990604e-11
1.09647820e-01 1.02085379e-11 1.01269554e-11 8.15825095e-14 1.18026935e-27 7.94901571e-29 1.05040253e-11
1.25892541e-01 9.58381100e-12 9.51232474e-12 7.14862661e-14 3.93163586e-25 2.85932535e-26 9.80292679e-12
1.44543977e-01 8.98401254e-12 8.92325706e-12 6.07554832e-14 5.49896016e-23 4.08256113e-24 9.14862359e-12
1.65958691e-01 8.41148375e-12 8.35376637e-12 5.77173833e-14 2.84571187e-21 2.41445388e-22 8.53799231e-12
1.90546072e-01 7.84795846e-12 7.78482814e-12 6.31302538e-14 6.01675436e-20 5.69486263e-21 7.96811805e-12
2.18776162e-01 7.29826187e-12 7.23602844e-12 6.22327291e-14 7.05153901e-19 6.51570574e-20 7.43628044e-12
2.51188643e-01 6.85500734e-12 6.79007310e-12 6.49254187e-14 8.82668594e-18 1.03596958e-18 6.93994070e-12
2.88403150e-01 6.41590766e-12 6.36039373e-12 5.54389738e-14 7.49580354e-17 8.88020460e-18 6.47672950e-12
3.31131121e-01 5.99978133e-12 5.94968228e-12 4.96627996e-14 4.36247101e-16 5.15863332e-17 6.04443567e-12
3.80189396e-01 5.60854895e-12 5.56326679e-12 4.34449043e-14 1.83725512e-15 2.12067670e-16 5.64099558e-12
4.36515832e-01 5.24675774e-12 5.20129343e-12 3.95847287e-14 5.87957947e-15 6.65399302e-16 5.26448339e-12
5.01187234e-01 4.91096088e-12 4.86242852e-12 3.37018819e-14 1.48304798e-14 1.65139591e-15 4.91310176e-12
5.75439937e-01 4.60539958e-12 4.54495938e-12 2.98283966e-14 3.06117984e-14 3.28130992e-15 4.58517335e-12
6.60693448e-01 4.32808827e-12 4.24749776e-12 2.67405470e-14 5.38499630e-14 5.62393472e-15 4.27913275e-12
7.58577575e-01 4.07454381e-12 3.96893695e-12 2.21734053e-14 8.34334512e-14 8.13745926e-15 3.99351904e-12
8.70963590e-01 3.84438593e-12 3.70829122e-12 1.93839541e-14 1.16710763e-13 1.07641332e-14 3.72696882e-12
1.00000000e+00 3.62884428e-12 3.46424853e-12 1.61072195e-14 1.48488527e-13 1.23086424e-14 3.47820968e-12
1.14815362e+00 3.42740561e-12 3.23580456e-12 1.27295504e-14 1.78871499e-13 1.30781529e-14 3.24605414e-12
1.31825674e+00 3.24093461e-12 3.02200049e-12 1.00210362e-14 2.08913086e-13 1.33898245e-14 3.02939399e-12
1.51356125e+00 3.06827960e-12 2.82191593e-12 7.35028220e-15 2.39013393e-13 1.29421253e-14 2.82719497e-12
1.73780083e+00 2.91056650e-12 2.63478406e-12 5.27174978e-15 2.70510691e-13 1.21977536e-14 2.63849186e-12
1.99526231e+00 2.76574960e-12 2.45982062e-12 3.77863332e-15 3.02150343e-13 1.06293557e-14 2.46238388e-12
2.29086765e+00 2.62953521e-12 2.29626392e-12 2.46383509e-15 3.30807456e-13 8.99276089e-15 2.29803035e-12
2.63026799e+00 2.49649391e-12 2.14341803e-12 1.74266765e-15 3.51333214e-13 7.26170924e-15 2.14464670e-12
3.01995172e+00 2.36126673e-12 2.00063516e-12 1.21194743e-15 3.59419624e-13 5.69285437e-15 2.00150076e-12
3.46736850e+00 2.22352237e-12 1.86728944e-12 8.44314686e-16 3.55388613e-13 4.37359379e-15 1.86790919e-12
3.98107171e+00 2.08265292e-12 1.74278489e-12 5.82458962e-16 3.39285570e-13 3.26093579e-15 1.74323429e-12
4.57088190e+00 1.94218837e-12 1.62655058e-12 3.70661050e-16 3.15267130e-13 2.34289552e-15 1.62688090e-12
5.24807460e+00 1.63456437e-12 1.34496174e-12 2.10158252e-16 2.89392475e-13 1.61241963e-15 1.34518114e-12
6.02559586e+00 1.15269586e-12 8.88631905e-13 9.15042091e-17 2.63972451e-13 1.04361321e-15 8.88752369e-13
6.70000000e+00 8.90952811e-13 6.46404328e-13 4.71537712e-17 2.44501329e-13 7.07996971e-16 6.46481889e-13
6.92422916e+00 8.23900168e-13 5.85620393e-13 3.76570376e-17 2.38242117e-13 6.27815145e-16 5.85688198e-13
7.15596261e+00 7.65437447e-13 5.30551052e-13 2.97095250e-17 2.34856685e-13 5.42328828e-16 5.30611407e-13
7.39545150e+00 7.16840963e-13 4.80657928e-13 2.25787347e-17 2.36160456e-13 4.66032736e-16 4.80713913e-13
7.64295536e+00 6.89004287e-13 4.35450877e-13 1.64975770e-17 2.53536913e-13 3.88344508e-16 4.35508666e-13
7.89874245e+00 6.89762619e-13 3.94486776e-13 1.05461554e-17 2.95265297e-13 3.05651063e-16 3.94554418e-13
8.16308998e+00 7.15046217e-13 3.57368670e-13 5.85173973e-18 3.57671695e-13 2.38830660e-16 3.57451415e-13
8.43628443e+00 7.69973683e-13 3.23733351e-13 3.23749932e-18 4.46237095e-13 1.80580159e-16 3.23837494e-13
8.71862190e+00 8.03135134e-13 2.93268623e-13 1.93458238e-18 5.09864576e-13 1.41762827e-16 2.93384550e-13
9.01040836e+00 8.41826926e-13 2.65668108e-13 1.36168205e-18 5.76157456e-13 1.08010182e-16 2.65795332e-13
9.31196005e+00 8.70410377e-13 2.40666864e-13 0.00000000e+00 6.29743514e-13 0.00000000e+00 2.40800541e-13
9.62360379e+00 8.41194426e-13 2.18031908e-13 0.00000000e+00 6.23162519e-13 0.00000000e+00 2.18156204e-13
9.94567731e+00 7.76604721e-13 1.97535627e-13 0.00000000e+00 5.79069094e-13 0.00000000e+00 1.97641289e-13
1.02785297e+01 7.00457217e-13 1.78968949e-13 0.00000000e+00 5.21488268e-13 0.00000000e+00 1.79055550e-13
1.06225216e+01 6.31894364e-13 1.62147355e-13 0.00000000e+00 4.69747009e-13 0.00000000e+00 1.62217572e-13
1.09780260e+01 5.58932079e-13 1.46908118e-13 0.00000000e+00 4.12023961e-13 0.00000000e+00 1.46962999e-13
1.13454280e+01 4.97066542e-13 1.33099866e-13 0.00000000e+00 3.63966676e-13 0.00000000e+00 1.33142932e-13
1.17251259e+01 4.44863446e-13 1.20588461e-13 0.00000000e+00 3.24274985e-13 0.00000000e+00 1.20622472e-13
1.21175312e+01 3.98075039e-13 1.09252686e-13 0.00000000e+00 2.88822354e-13 0.00000000e+00 1.09279408e-13
1.25230691e+01 3.57068296e-13 9.89820817e-14 0.00000000e+00 2.58086214e-13 0.00000000e+00 9.90030204e-14
1.29421791e+01 3.22190945e-13 8.96764793e-14 0.00000000e+00 2.32514466e-13 0.00000000e+00 8.96930008e-14
1.33753155e+01 2.91596408e-13 8.12453450e-14 0.00000000e+00 2.10351063e-13 0.00000000e+00 8.12584743e-14
1.38229477e+01 2.70414989e-13 7.36061966e-14 0.00000000e+00 1.96808793e-13 0.00000000e+00 7.36171115e-14
1.42855609e+01 2.55778110e-13 6.66848387e-14 0.00000000e+00 1.89093271e-13 0.00000000e+00 6.66943252e-14
1.47636563e+01 2.51129758e-13 6.04135386e-14 0.00000000e+00 1.90716220e-13 0.00000000e+00 6.04225420e-14
1.52577522e+01 2.49277670e-13 5.47318438e-14 0.00000000e+00 1.94545827e-13 0.00000000e+00 5.47405431e-14
1.57683840e+01 2.49195881e-13 4.95843532e-14 0.00000000e+00 1.99611528e-13 0.00000000e+00 4.95928665e-14
1.62961051e+01 2.50026341e-13 4.49209444e-14 0.00000000e+00 2.05105396e-13 0.00000000e+00 4.49292657e-14
1.68414875e+01 2.50599111e-13 4.06961040e-14 0.00000000e+00 2.09903007e-13 0.00000000e+00 4.07042194e-14
1.74051222e+01 2.48925024e-13 3.68687803e-14 0.00000000e+00 2.12056244e-13 0.00000000e+00 3.68764869e-14
1.79876201e+01 2.45555796e-13 3.34015101e-14 0.00000000e+00 2.12154286e-13 0.00000000e+00 3.34087056e-14
1.85896125e+01 2.38629118e-13 3.02605162e-14 0.00000000e+00 2.08368602e-13 0.00000000e+00 3.02670267e-14
1.92117518e+01 2.28835070e-13 2.74150655e-14 0.00000000e+00 2.01420005e-13 0.00000000e+00 2.74207841e-14
1.98547123e+01 2.18019846e-13 2.48372707e-14 0.00000000e+00 1.93182575e-13 0.00000000e+00 2.48421957e-14
2.05191907e+01 2.06448153e-13 2.25018931e-14 0.00000000e+00 1.83946260e-13 0.00000000e+00 2.25060919e-14
2.12059073e+01 1.96020205e-13 2.03860909e-14 0.00000000e+00 1.75634114e-13 0.00000000e+00 2.03896700e-14
2.19156062e+01 1.86104384e-13 1.84692059e-14 0.00000000e+00 1.67635178e-13 0.00000000e+00 1.84722717e-14
2.26490567e+01 1.77637827e-13 1.67325509e-14 0.00000000e+00 1.60905276e-13 0.00000000e+00 1.67351811e-14
2.34070535e+01 1.68730250e-13 1.51591819e-14 0.00000000e+00 1.53571068e-13 0.00000000e+00 1.51614426e-14
2.41904183e+01 1.61523867e-13 1.37337469e-14 0.00000000e+00 1.47790120e-13 0.00000000e+00 1.37356949e-14
2.50000000e+01 1.54418081e-13 1.24423391e-14 0.00000000e+00 1.41975742e-13 0.00000000e+00 1.24440213e-14
2.75422870e+01 1.34484078e-13 9.30528271e-15 0.00000000e+00 1.25178795e-13 0.00000000e+00 9.30637977e-15
3.16227766e+01 1.08708060e-13 6.14806139e-15 0.00000000e+00 1.02559999e-13 0.00000000e+00 6.14866414e-15
3.63078055e+01 8.43352412e-14 4.06205270e-15 0.00000000e+00 8.02731885e-14 0.00000000e+00 4.06238211e-15
4.16869383e+01 6.17681250e-14 2.68381398e-15 0.00000000e+00 5.90843110e-14 0.00000000e+00 2.68398924e-15
4.78630092e+01 4.24666100e-14 1.77320375e-15 0.00000000e+00 4.06934062e-14 0.00000000e+00 1.77329411e-15
5.49540874e+01 2.78156220e-14 1.17155821e-15 0.00000000e+00 2.66440638e-14 0.00000000e+00 1.17160380e-15
6.30957344e+01 1.74966274e-14 7.74048243e-16 0.00000000e+00 1.67225791e-14 0.00000000e+00 7.74070953e-16
7.24435960e+01 1.06354992e-14 5.11412375e-16 0.00000000e+00 1.01240868e-14 0.00000000e+00 5.11423607e-16
8.31763771e+01 6.30145669e-15 3.37888680e-16 0.00000000e+00 5.96356801e-15 0.00000000e+00 3.37894226e-16
9.54992586e+01 3.66379756e-15 2.23241756e-16 0.00000000e+00 3.44055580e-15 0.00000000e+00 2.23244502e-16
1.09647820e+02 2.09914851e-15 1.47494816e-16 0.00000000e+00 1.95165369e-15 0.00000000e+00 1.47496179e-16
1.25892541e+02 1.20249677e-15 9.74490721e-17 0.00000000e+00 1.10504770e-15 0.00000000e+00 9.74497594e-17
1.44543977e+02 6.84935502e-16 6.43840685e-17 0.00000000e+00 6.20551433e-16 0.00000000e+00 6.43844175e-17
1.65958691e+02 3.73386175e-16 4.25381917e-17 0.00000000e+00 3.30847983e-16 0.00000000e+00 4.25383628e-17
1.90546072e+02 2.04294635e-16 2.81047329e-17 0.00000000e+00 1.76189902e-16 0.00000000e+00 2.81048176e-17
2.18776162e+02 1.12044794e-16 1.85686266e-17 0.00000000e+00 9.34761676e-17 0.00000000e+00 1.85686688e-17
2.51188643e+02 6.16003683e-17 1.22681767e-17 0.00000000e+00 4.93321915e-17 0.00000000e+00 1.22681978e-17
2.88403150e+02 3.39737437e-17 8.10550738e-18 0.00000000e+00 2.58682364e-17 0.00000000e+00 8.10551794e-18
3.31131121e+02 1.88604578e-17 5.35525730e-18 0.00000000e+00 1.35052005e-17 0.00000000e+00 5.35526259e-18
3.80189396e+02 1.05522838e-17 3.53818425e-18 0.00000000e+00 7.01409956e-18 0.00000000e+00 3.53818691e-18
4.36515832e+02 5.96687285e-18 2.33765558e-18 0.00000000e+00 3.62921727e-18 0.00000000e+00 2.33765691e-18
5.01187234e+02 3.41511700e-18 1.54447393e-18 0.00000000e+00 1.87064307e-18 0.00000000e+00 1.54447460e-18
5.75439937e+02 1.98154650e-18 1.02042391e-18 0.00000000e+00 9.61122581e-19 0.00000000e+00 1.02042425e-18
6.60693448e+02 1.16663203e-18 6.74187448e-19 0.00000000e+00 4.92444580e-19 0.00000000e+00 6.74187617e-19
7.58577575e+02 6.97127166e-19 4.45431256e-19 0.00000000e+00 2.51695910e-19 0.00000000e+00 4.45431341e-19
8.70963590e+02 4.22637039e-19 2.94293526e-19 0.00000000e+00 1.28343513e-19 0.00000000e+00 2.94293569e-19
1.00000000e+03 6.53017446e-20 0.00000000e+00 0.00000000e+00 6.53017446e-20 0.00000000e+00 0.00000000e+00
