# column 1: lambda (micron)
# column 2: total flux; lambda*F_lambda (W/m2)
# column 3: direct stellar flux; lambda*F_lambda (W/m2)
# column 4: scattered stellar flux; lambda*F_lambda (W/m2)
# column 5: total dust emission flux; lambda*F_lambda (W/m2)
# column 6: dust emission scattered flux; lambda*F_lambda (W/m2)
# column 7: transparent flux; lambda*F_lambda (W/m2)
1.00000000e-03 6.93247691e-13 6.93247569e-13 1.22069274e-19 0.00000000e+00 0.00000000e+00 6.93993746e-13
1.14815362e-03 8.17971955e-13 8.17971758e-13 1.97726827e-19 0.00000000e+00 0.00000000e+00 8.19135139e-13
1.31825674e-03 9.65096905e-13 9.65096583e-13 3.21973928e-19 0.00000000e+00 0.00000000e+00 9.66842108e-13
1.51356125e-03 1.13875556e-12 1.13875508e-12 4.80939981e-19 0.00000000e+00 0.00000000e+00 1.14118369e-12
1.73780083e-03 1.34407057e-12 1.34406652e-12 4.04682140e-18 0.00000000e+00 0.00000000e+00 1.34696266e-12
1.99526231e-03 1.58535623e-12 1.58531724e-12 3.89891929e-17 0.00000000e+00 0.00000000e+00 1.58984782e-12
2.29086765e-03 1.87088010e-12 1.87086001e-12 2.00818080e-17 0.00000000e+00 0.00000000e+00 1.87653019e-12
2.63026799e-03 2.20711150e-12 2.20688956e-12 2.21940348e-16 0.00000000e+00 0.00000000e+00 2.21490731e-12
3.01995172e-03 2.60547726e-12 2.60260151e-12 2.87574214e-15 0.00000000e+00 0.00000000e+00 2.61430080e-12
3.46736850e-03 3.06971190e-12 3.06944355e-12 2.68356429e-16 0.00000000e+00 0.00000000e+00 3.08571319e-12
3.98107171e-03 3.62100729e-12 3.62015796e-12 8.49330675e-16 0.00000000e+00 0.00000000e+00 3.64213095e-12
4.57088190e-03 4.28246744e-12 4.28156493e-12 9.02511036e-16 0.00000000e+00 0.00000000e+00 4.29888232e-12
5.24807460e-03 5.04920787e-12 5.04796727e-12 1.24059955e-15 0.00000000e+00 0.00000000e+00 5.07405951e-12
6.02559586e-03 5.95556907e-12 5.95190313e-12 3.66594268e-15 0.00000000e+00 0.00000000e+00 5.98901715e-12
6.91830971e-03 7.04248325e-12 7.01842625e-12 2.40569982e-14 0.00000000e+00 0.00000000e+00 7.06896053e-12
7.94328235e-03 8.29301895e-12 8.27712208e-12 1.58968660e-14 1.69767636e-303 1.65721356e-305 8.34363998e-12
9.12010839e-03 9.77058425e-12 9.76108356e-12 9.50068565e-15 8.82736110e-265 8.38982819e-266 9.84817045e-12
1.04712855e-02 1.09203985e-11 1.08956142e-11 2.47842793e-14 3.74769770e-231 1.21609671e-232 1.09990604e-11
1.20226443e-02 1.09198560e-11 1.08895395e-11 3.03164733e-14 6.72830275e-202 6.77498459e-203 1.09990604e-11
1.38038426e-02 1.09159896e-11 1.08823387e-11 3.36509164e-14 1.85256193e-176 1.15243925e-177 1.09990604e-11
1.58489319e-02 1.09067893e-11 1.08734959e-11 3.32934671e-14 2.59652894e-154 1.42600251e-155 1.09990604e-11
1.81970086e-02 1.08984075e-11 1.08653463e-11 3.30611880e-14 4.85487843e-135 2.98692466e-136 1.09990604e-11
2.08929613e-02 1.08969854e-11 1.08585770e-11 3.84084141e-14 2.60861674e-118 1.52801120e-119 1.09990604e-11
2.39883292e-02 1.08889830e-11 1.08498124e-11 3.91706064e-14 9.41632144e-104 5.74665531e-105 1.09990604e-11
2.75422870e-02 1.08804580e-11 1.08396266e-11 4.08313486e-14 4.31145346e-91 2.64518036e-92 1.09990604e-11
3.16227766e-02 1.08729563e-11 1.08296516e-11 4.33046830e-14 4.27895525e-80 2.59679744e-81 1.09990604e-11
3.63078055e-02 1.08661339e-11 1.08218341e-11 4.42997601e-14 1.51257932e-70 9.46286764e-72 1.09990604e-11
4.16869383e-02 1.08668484e-11 1.08150772e-11 5.17712221e-14 2.92436298e-62 2.03068994e-63 1.09990604e-11
4.78630092e-02 1.08557357e-11 1.07964736e-11 5.92621089e-14 4.44658500e-55 3.21618488e-56 1.09990604e-11
5.49540874e-02 1.08386212e-11 1.07706549e-11 6.79662841e-14 7.38194854e-49 5.43831082e-50 1.09990604e-11
6.30957344e-02 1.07814690e-11 1.07061858e-11 7.52832070e-14 2.34768719e-43 1.75896504e-44 1.09990604e-11
7.24435960e-02 1.07058195e-11 1.06303204e-11 7.54991649e-14 1.34033133e-38 8.66366983e-40 1.09990604e-11
8.31763771e-02 1.07091855e-11 1.06370494e-11 7.21360364e-14 1.38569472e-34 8.84978839e-36 1.09990604e-11
9.54992586e-02 1.07280534e-11 1.06568100e-11 7.12434541e-14 3.94253066e-31 2.60315767e-32 1.09990604e-11
1.09647820e-01 1.03007261e-11 1.02317736e-11 6.89525550e-14 3.45870237e-28 2.62815960e-29 1.05040253e-11
1.25892541e-01 9.65599849e-12 9.59329564e-12 6.27028466e-14 1.14918452e-25 9.06587167e-27 9.80292679e-12
1.44543977e-01 9.04001801e-12 8.98616824e-12 5.38497747e-14 1.60276227e-23 1.27174902e-24 9.14862359e-12
1.65958691e-01 8.45809840e-12 8.40525124e-12 5.28471508e-14 8.28166101e-22 7.27293917e-23 8.53799231e-12
1.90546072e-01 7.89221732e-12 7.83602448e-12 5.61928255e-14 1.74846683e-20 1.74678371e-21 7.96811805e-12
2.18776162e-01 7.34671514e-12 7.29188133e-12 5.48336022e-14 2.03535239e-19 2.01039265e-20 7.43628044e-12
2.51188643e-01 6.89176513e-12 6.83195571e-12 5.98068767e-14 2.54419602e-18 3.06223258e-19 6.93994070e-12
2.88403150e-01 6.44676044e-12 6.39294889e-12 5.37899130e-14 2.16336498e-17 2.60240515e-18 6.47672950e-12
3.31131121e-01 6.02596959e-12 5.97622010e-12 4.96242168e-14 1.25271784e-16 1.46861239e-17 6.04443567e-12
3.80189396e-01 5.62688915e-12 5.58505160e-12 4.13096989e-14 5.27852487e-16 5.96319215e-17 5.64099558e-12
4.36515832e-01 5.25916399e-12 5.21901497e-12 3.84615932e-14 1.68743357e-15 1.87590498e-16 5.26448339e-12
5.01187234e-01 4.91318640e-12 4.87664850e-12 3.22865270e-14 4.25136619e-15 4.57896754e-16 4.91310176e-12
5.75439937e-01 4.59638890e-12 4.55625060e-12 3.13282754e-14 8.81002474e-15 9.19518692e-16 4.58517335e-12
6.60693448e-01 4.29904289e-12 4.25638463e-12 2.70666792e-14 1.55915869e-14 1.57747147e-15 4.27913275e-12
7.58577575e-01 4.02471720e-12 3.97584562e-12 2.42916364e-14 2.45799462e-14 2.39944255e-15 3.99351904e-12
8.70963590e-01 3.77002593e-12 3.71354263e-12 2.08959049e-14 3.55873906e-14 3.28276488e-15 3.72696882e-12
1.00000000e+00 3.53411851e-12 3.46817528e-12 1.72647040e-14 4.86785303e-14 4.27033999e-15 3.47820968e-12
1.14815362e+00 3.31941627e-12 3.23868827e-12 1.45559094e-14 6.61720852e-14 5.30566883e-15 3.24605414e-12
1.31825674e+00 3.12699074e-12 3.02408119e-12 1.07503834e-14 9.21591667e-14 6.76493120e-15 3.02939399e-12
1.51356125e+00 2.96260762e-12 2.82340187e-12 8.49299599e-15 1.30712755e-13 8.36308278e-15 2.82719497e-12
1.73780083e+00 2.82542858e-12 2.63582790e-12 6.48970582e-15 1.83110969e-13 1.00391539e-14 2.63849186e-12
1.99526231e+00 2.71036372e-12 2.46054234e-12 4.59760050e-15 2.45223773e-13 1.07610630e-14 2.46238388e-12
2.29086765e+00 2.60875334e-12 2.29676133e-12 3.28745656e-15 3.08704557e-13 1.06812822e-14 2.29803035e-12
2.63026799e+00 2.50935561e-12 2.14376404e-12 2.24562653e-15 3.63345948e-13 9.68710395e-15 2.14464670e-12
3.01995172e+00 2.40344183e-12 2.00087893e-12 1.46802894e-15 4.01094866e-13 8.09929230e-15 2.00150076e-12
3.46736850e+00 2.28547448e-12 1.86746398e-12 9.86374289e-16 4.17024125e-13 6.35464114e-15 1.86790919e-12
3.98107171e+00 2.15524669e-12 1.74291146e-12 6.70477636e-16 4.11664748e-13 4.64401501e-15 1.74323429e-12
4.57088190e+00 2.01603887e-12 1.62664362e-12 4.13042936e-16 3.88982216e-13 3.12834206e-15 1.62688090e-12
5.24807460e+00 1.70093198e-12 1.34502353e-12 2.33820104e-16 3.55674631e-13 2.00905852e-15 1.34518114e-12
6.02559586e+00 1.20856025e-12 8.88665834e-13 1.02501628e-16 3.19791916e-13 1.18977128e-15 8.88752369e-13
6.70000000e+00 9.37046330e-13 6.46426174e-13 5.05625467e-17 2.90569594e-13 7.65645251e-16 6.46481889e-13
6.92422916e+00 8.67013843e-13 5.85639491e-13 4.14284803e-17 2.81332924e-13 6.55163193e-16 5.85688198e-13
7.15596261e+00 8.06084976e-13 5.30568051e-13 3.17651819e-17 2.75485159e-13 5.63832464e-16 5.30611407e-13
7.39545150e+00 7.57146438e-13 4.80673696e-13 2.53747138e-17 2.76447366e-13 4.78198752e-16 4.80713913e-13
7.64295536e+00 7.34612181e-13 4.35467154e-13 1.80578152e-17 2.99126970e-13 4.01565753e-16 4.35508666e-13
7.89874245e+00 7.48749788e-13 3.94505827e-13 1.08784457e-17 3.54233082e-13 3.32797452e-16 3.94554418e-13
8.16308998e+00 7.92842277e-13 3.57391975e-13 6.89568757e-18 4.35443406e-13 2.74368801e-16 3.57451415e-13
8.43628443e+00 8.72027785e-13 3.23762681e-13 3.77552755e-18 5.48261328e-13 2.18015986e-16 3.23837494e-13
8.71862190e+00 9.22387104e-13 2.93301271e-13 2.52243197e-18 6.29083310e-13 1.72838741e-16 2.93384550e-13
9.01040836e+00 9.78382710e-13 2.65703937e-13 1.66369215e-18 7.12677109e-13 1.30114655e-16 2.65795332e-13
9.31196005e+00 1.01945817e-12 2.40704509e-13 0.00000000e+00 7.78753658e-13 0.00000000e+00 2.40800541e-13
9.62360379e+00 9.89973630e-13 2.18066911e-13 0.00000000e+00 7.71906719e-13 0.00000000e+00 2.18156204e-13
9.94567731e+00 9.11308663e-13 1.97565383e-13 0.00000000e+00 7.13743280e-13 0.00000000e+00 1.97641289e-13
1.02785297e+01 8.21239697e-13 1.78993338e-13 0.00000000e+00 6.42246359e-13 0.00000000e+00 1.79055550e-13
1.06225216e+01 7.35091368e-13 1.62167130e-13 0.00000000e+00 5.72924238e-13 0.00000000e+00 1.62217572e-13
1.09780260e+01 6.44851678e-13 1.46923575e-13 0.00000000e+00 4.97928104e-13 0.00000000e+00 1.46962999e-13
1.13454280e+01 5.67890068e-13 1.33111995e-13 0.00000000e+00 4.34778072e-13 0.00000000e+00 1.33142932e-13
1.17251259e+01 5.02962988e-13 1.20598040e-13 0.00000000e+00 3.82364948e-13 0.00000000e+00 1.20622472e-13
1.21175312e+01 4.44813419e-13 1.09260212e-13 0.00000000e+00 3.35553207e-13 0.00000000e+00 1.09279408e-13
1.25230691e+01 3.93582018e-13 9.89879791e-14 0.00000000e+00 2.94594039e-13 0.00000000e+00 9.90030204e-14
1.29421791e+01 3.50971466e-13 8.96811326e-14 0.00000000e+00 2.61290333e-13 0.00000000e+00 8.96930008e-14
1.33753155e+01 3.13538894e-13 8.12490429e-14 0.00000000e+00 2.32289851e-13 0.00000000e+00 8.12584743e-14
1.38229477e+01 2.87376238e-13 7.36092708e-14 0.00000000e+00 2.13766967e-13 0.00000000e+00 7.36171115e-14
1.42855609e+01 2.70133031e-13 6.66875106e-14 0.00000000e+00 2.03445521e-13 0.00000000e+00 6.66943252e-14
1.47636563e+01 2.66017844e-13 6.04160745e-14 0.00000000e+00 2.05601769e-13 0.00000000e+00 6.04225420e-14
1.52577522e+01 2.64529222e-13 5.47342940e-14 0.00000000e+00 2.09794928e-13 0.00000000e+00 5.47405431e-14
1.57683840e+01 2.66251523e-13 4.95867509e-14 0.00000000e+00 2.16664772e-13 0.00000000e+00 4.95928665e-14
1.62961051e+01 2.68869096e-13 4.49232881e-14 0.00000000e+00 2.23945808e-13 0.00000000e+00 4.49292657e-14
1.68414875e+01 2.70498765e-13 4.06983897e-14 0.00000000e+00 2.29800376e-13 0.00000000e+00 4.07042194e-14
1.74051222e+01 2.69758759e-13 3.68709509e-14 0.00000000e+00 2.32887808e-13 0.00000000e+00 3.68764869e-14
1.79876201e+01 2.66873594e-13 3.34035367e-14 0.00000000e+00 2.33470057e-13 0.00000000e+00 3.34087056e-14
1.85896125e+01 2.59622338e-13 3.02623498e-14 0.00000000e+00 2.29359988e-13 0.00000000e+00 3.02670267e-14
1.92117518e+01 2.48121042e-13 2.74166761e-14 0.00000000e+00 2.20704366e-13 0.00000000e+00 2.74207841e-14
1.98547123e+01 2.35145980e-13 2.48386578e-14 0.00000000e+00 2.10307323e-13 0.00000000e+00 2.48421957e-14
2.05191907e+01 2.21887804e-13 2.25030757e-14 0.00000000e+00 1.99384728e-13 0.00000000e+00 2.25060919e-14
2.12059073e+01 2.09584510e-13 2.03870990e-14 0.00000000e+00 1.89197411e-13 0.00000000e+00 2.03896700e-14
2.19156062e+01 1.98892419e-13 1.84700694e-14 0.00000000e+00 1.80422349e-13 0.00000000e+00 1.84722717e-14
2.26490567e+01 1.89321536e-13 1.67332917e-14 0.00000000e+00 1.72588245e-13 0.00000000e+00 1.67351811e-14
2.34070535e+01 1.80763368e-13 1.51598186e-14 0.00000000e+00 1.65603549e-13 0.00000000e+00 1.51614426e-14
2.41904183e+01 1.72703949e-13 1.37342955e-14 0.00000000e+00 1.58969654e-13 0.00000000e+00 1.37356949e-14
2.50000000e+01 1.65321660e-13 1.24428129e-14 0.00000000e+00 1.52878847e-13 0.00000000e+00 1.24440213e-14
2.75422870e+01 1.45785679e-13 9.30559170e-15 0.00000000e+00 1.36480087e-13 0.00000000e+00 9.30637977e-15
3.16227766e+01 1.21918787e-13 6.14823116e-15 0.00000000e+00 1.15770556e-13 0.00000000e+00 6.14866414e-15
3.63078055e+01 9.89048912e-14 4.06214548e-15 0.00000000e+00 9.48427457e-14 0.00000000e+00 4.06238211e-15
4.16869383e+01 7.64632187e-14 2.68386334e-15 0.00000000e+00 7.37793554e-14 0.00000000e+00 2.68398924e-15
4.78630092e+01 5.61134693e-14 1.77322920e-15 0.00000000e+00 5.43402401e-14 0.00000000e+00 1.77329411e-15
5.49540874e+01 3.91361182e-14 1.17157105e-15 0.00000000e+00 3.79645472e-14 0.00000000e+00 1.17160380e-15
6.30957344e+01 2.62252890e-14 7.74054640e-16 0.00000000e+00 2.54512344e-14 0.00000000e+00 7.74070953e-16
7.24435960e+01 1.69420265e-14 5.11415539e-16 0.00000000e+00 1.64306110e-14 0.00000000e+00 5.11423607e-16
8.31763771e+01 1.06125810e-14 3.37890242e-16 0.00000000e+00 1.02746907e-14 0.00000000e+00 3.37894226e-16
9.54992586e+01 6.48827166e-15 2.23242530e-16 0.00000000e+00 6.26502913e-15 0.00000000e+00 2.23244502e-16
1.09647820e+02 3.88204983e-15 1.47495200e-16 0.00000000e+00 3.73455463e-15 0.00000000e+00 1.47496179e-16
1.25892541e+02 2.30488043e-15 9.74492657e-17 0.00000000e+00 2.20743117e-15 0.00000000e+00 9.74497594e-17
1.44543977e+02 1.35172872e-15 6.43841668e-17 0.00000000e+00 1.28734456e-15 0.00000000e+00 6.43844175e-17
1.65958691e+02 7.52826624e-16 4.25382399e-17 0.00000000e+00 7.10288384e-16 0.00000000e+00 4.25383628e-17
1.90546072e+02 4.17631492e-16 2.81047567e-17 0.00000000e+00 3.89526735e-16 0.00000000e+00 2.81048176e-17
2.18776162e+02 2.30539210e-16 1.85686385e-17 0.00000000e+00 2.11970572e-16 0.00000000e+00 1.85686688e-17
2.51188643e+02 1.26587093e-16 1.22681827e-17 0.00000000e+00 1.14318910e-16 0.00000000e+00 1.22681978e-17
2.88403150e+02 6.91754644e-17 8.10551035e-18 0.00000000e+00 6.10699540e-17 0.00000000e+00 8.10551794e-18
3.31131121e+02 3.77534532e-17 5.35525879e-18 0.00000000e+00 3.23981944e-17 0.00000000e+00 5.35526259e-18
3.80189396e+02 2.05973476e-17 3.53818500e-18 0.00000000e+00 1.70591626e-17 0.00000000e+00 3.53818691e-18
4.36515832e+02 1.12691746e-17 2.33765595e-18 0.00000000e+00 8.93151868e-18 0.00000000e+00 2.33765691e-18
5.01187234e+02 6.19513311e-18 1.54447412e-18 0.00000000e+00 4.65065899e-18 0.00000000e+00 1.54447460e-18
5.75439937e+02 3.43083564e-18 1.02042401e-18 0.00000000e+00 2.41041163e-18 0.00000000e+00 1.02042425e-18
6.60693448e+02 1.91851565e-18 6.74187495e-19 0.00000000e+00 1.24432816e-18 0.00000000e+00 6.74187617e-19
7.58577575e+02 1.08556819e-18 4.45431280e-19 0.00000000e+00 6.40136905e-19 0.00000000e+00 4.45431341e-19
8.70963590e+02 6.22539051e-19 2.94293538e-19 0.00000000e+00 3.28245513e-19 0.00000000e+00 2.94293569e-19
1.00000000e+03 1.67822003e-19 0.00000000e+00 0.00000000e+00 1.67822003e-19 0.00000000e+00 0.00000000e+00
