# column 1: lambda (micron)
# column 2: total flux; lambda*F_lambda (W/m2)
# column 3: direct stellar flux; lambda*F_lambda (W/m2)
# column 4: scattered stellar flux; lambda*F_lambda (W/m2)
# column 5: total dust emission flux; lambda*F_lambda (W/m2)
# column 6: dust emission scattered flux; lambda*F_lambda (W/m2)
# column 7: transparent flux; lambda*F_lambda (W/m2)
1.00000000e-03 2.06066622e-13 2.06065747e-13 8.74487206e-19 0.00000000e+00 0.00000000e+00 2.06075710e-13
1.14815362e-03 2.43220866e-13 2.43219877e-13 9.88712561e-19 0.00000000e+00 0.00000000e+00 2.43235413e-13
1.31825674e-03 2.87074245e-13 2.87072464e-13 1.78192155e-18 0.00000000e+00 0.00000000e+00 2.87095777e-13
1.51356125e-03 3.38835353e-13 3.38832628e-13 2.72467326e-18 0.00000000e+00 0.00000000e+00 3.38865070e-13
1.73780083e-03 3.99936259e-13 3.99930747e-13 5.51183091e-18 0.00000000e+00 0.00000000e+00 3.99969435e-13
1.99526231e-03 4.72040554e-13 4.72031636e-13 8.91797177e-18 0.00000000e+00 0.00000000e+00 4.72092178e-13
2.29086765e-03 5.57158429e-13 5.57144363e-13 1.40659938e-17 0.00000000e+00 0.00000000e+00 5.57220139e-13
2.63026799e-03 6.57621173e-13 6.57591250e-13 2.99230173e-17 0.00000000e+00 0.00000000e+00 6.57698429e-13
3.01995172e-03 7.76188384e-13 7.76138570e-13 4.98133913e-17 0.00000000e+00 0.00000000e+00 7.76295028e-13
3.46736850e-03 9.16137636e-13 9.16059380e-13 7.82558569e-17 0.00000000e+00 0.00000000e+00 9.16277040e-13
3.98107171e-03 1.08134677e-12 1.08120663e-12 1.40136180e-16 0.00000000e+00 0.00000000e+00 1.08150070e-12
4.57088190e-03 1.27652427e-12 1.27628605e-12 2.38214656e-16 0.00000000e+00 0.00000000e+00 1.27651759e-12
5.24807460e-03 1.50686172e-12 1.50635101e-12 5.10716885e-16 0.00000000e+00 0.00000000e+00 1.50670006e-12
6.02559586e-03 1.77882533e-12 1.77789242e-12 9.32907234e-16 0.00000000e+00 0.00000000e+00 1.77838917e-12
6.91830971e-03 2.09967053e-12 2.09839276e-12 1.27776756e-15 0.00000000e+00 0.00000000e+00 2.09906943e-12
7.94328235e-03 2.47974781e-12 2.47668391e-12 3.06389171e-15 3.84936858e-304 7.56031815e-307 2.47757497e-12
9.12010839e-03 2.92756357e-12 2.92316578e-12 4.39778241e-15 1.73866642e-265 4.65181756e-268 2.92433286e-12
1.04712855e-02 3.27990215e-12 3.26469345e-12 1.52087042e-14 7.54224224e-232 2.58990266e-234 3.26608014e-12
1.20226443e-02 3.27455389e-12 3.26461163e-12 9.94226447e-15 1.21315392e-202 1.01297700e-204 3.26608014e-12
1.38038426e-02 3.27861592e-12 3.26451458e-12 1.41013394e-14 3.36282998e-177 2.33890451e-179 3.26608014e-12
1.58489319e-02 3.28023666e-12 3.26439532e-12 1.58413316e-14 4.63859604e-155 4.83094527e-157 3.26608014e-12
1.81970086e-02 3.28632856e-12 3.26428533e-12 2.20432293e-14 8.41643908e-136 1.14815408e-137 3.26608014e-12
2.08929613e-02 3.29598466e-12 3.26419391e-12 3.17907548e-14 4.46964288e-119 8.33388611e-121 3.26608014e-12
2.39883292e-02 3.30431168e-12 3.26407546e-12 4.02362218e-14 1.58995086e-104 3.63508768e-106 3.26608014e-12
2.75422870e-02 3.30618149e-12 3.26393769e-12 4.22438062e-14 7.21758135e-92 2.10063638e-93 3.26608014e-12
3.16227766e-02 3.30396607e-12 3.26380265e-12 4.01634280e-14 7.10395622e-81 2.28846267e-82 3.26608014e-12
3.63078055e-02 3.30796540e-12 3.26369673e-12 4.42686738e-14 2.48513670e-71 8.80033566e-73 3.26608014e-12
4.16869383e-02 3.30935460e-12 3.26360512e-12 4.57494728e-14 4.76723319e-63 2.01293114e-64 3.26608014e-12
4.78630092e-02 3.30585742e-12 3.26335263e-12 4.25047960e-14 7.24104793e-56 3.43031731e-57 3.26608014e-12
5.49540874e-02 3.30118505e-12 3.26300151e-12 3.81835377e-14 1.20905777e-49 6.28230457e-51 3.26608014e-12
6.30957344e-02 3.30247608e-12 3.26212126e-12 4.03548131e-14 3.91132565e-44 2.08866963e-45 3.26608014e-12
7.24435960e-02 3.29715905e-12 3.26107890e-12 3.60801454e-14 2.26799879e-39 1.08904709e-40 3.26608014e-12
8.31763771e-02 3.29498340e-12 3.26117165e-12 3.38117568e-14 2.32735179e-35 1.09236265e-36 3.26608014e-12
9.54992586e-02 3.29529209e-12 3.26144367e-12 3.38484256e-14 6.57097921e-32 3.18790360e-33 3.26608014e-12
1.09647820e-01 3.15134397e-12 3.11540471e-12 3.59392572e-14 5.57683581e-29 2.88495943e-30 3.11908354e-12
1.25892541e-01 2.94118819e-12 2.90807171e-12 3.31164803e-14 1.81325128e-26 9.74310284e-28 2.91089813e-12
1.44543977e-01 2.74800251e-12 2.71442170e-12 3.35808141e-14 2.47214109e-24 1.31433445e-25 2.71660820e-12
1.65958691e-01 2.56383574e-12 2.53350162e-12 3.03341186e-14 1.24967737e-22 6.99942848e-24 2.53528629e-12
1.90546072e-01 2.39680059e-12 2.36428999e-12 3.25105987e-14 2.63109299e-21 1.69802821e-22 2.36606683e-12
2.18776162e-01 2.23497404e-12 2.20619700e-12 2.87770129e-14 3.11010853e-20 1.99747036e-21 2.20814205e-12
2.51188643e-01 2.09024911e-12 2.05930623e-12 3.09425096e-14 3.75688444e-19 2.86941243e-20 2.06075806e-12
2.88403150e-01 1.95043631e-12 1.92208634e-12 2.83468462e-14 3.12438777e-18 2.33289534e-19 1.92321132e-12
3.31131121e-01 1.82150109e-12 1.79392999e-12 2.75531940e-14 1.79105231e-17 1.30355558e-18 1.79484524e-12
3.80189396e-01 1.69802211e-12 1.67429693e-12 2.36505774e-14 7.46084426e-17 5.26693327e-18 1.67504704e-12
4.36515832e-01 1.58362966e-12 1.56263558e-12 2.07582687e-14 2.35815706e-16 1.61782700e-17 1.56324485e-12
5.01187234e-01 1.47839035e-12 1.45841680e-12 1.93843441e-14 5.89208113e-16 4.01536488e-17 1.45890498e-12
5.75439937e-01 1.38026582e-12 1.36114222e-12 1.79088435e-14 1.21475597e-15 8.03870123e-17 1.36152935e-12
6.60693448e-01 1.28763184e-12 1.27034878e-12 1.51260952e-14 2.15695869e-15 1.37311282e-16 1.27065312e-12
7.58577575e-01 1.20243567e-12 1.18560614e-12 1.33232524e-14 3.50626833e-15 2.24925394e-16 1.18584249e-12
8.70963590e-01 1.12462992e-12 1.10651313e-12 1.26606475e-14 5.45615014e-15 3.41170205e-16 1.10669260e-12
1.00000000e+00 1.05214031e-12 1.03269154e-12 1.08950990e-14 8.55367031e-15 5.25983026e-16 1.03282563e-12
1.14815362e+00 9.86742626e-13 9.63790561e-13 8.64496234e-15 1.43071020e-14 8.89874524e-16 9.63888963e-13
1.31825674e+00 9.31670952e-13 8.99482563e-13 6.94165986e-15 2.52467292e-14 1.50731595e-15 8.99553520e-13
1.51356125e+00 8.89693240e-13 8.39461541e-13 5.68124092e-15 4.45504577e-14 2.44135714e-15 8.39512191e-13
1.73780083e+00 8.62410234e-13 7.83442796e-13 4.16980038e-15 7.47976373e-14 3.60588303e-15 7.83478363e-13
1.99526231e+00 8.49727594e-13 7.31159969e-13 3.30373037e-15 1.15263896e-13 4.60799440e-15 7.31184552e-13
2.29086765e+00 8.46840118e-13 6.82364189e-13 2.15415068e-15 1.62321779e-13 5.18155759e-15 6.82381128e-13
2.63026799e+00 8.48391958e-13 6.36823341e-13 1.52946551e-15 2.10039152e-13 5.21716675e-15 6.36835122e-13
3.01995172e+00 8.46964273e-13 5.94320817e-13 1.03744223e-15 2.51606014e-13 4.77658888e-15 5.94329117e-13
3.46736850e+00 8.36122415e-13 5.54654262e-13 7.36153399e-16 2.80731999e-13 4.02440985e-15 5.54660204e-13
3.98107171e+00 8.12143888e-13 5.17634713e-13 4.69592501e-16 2.94039582e-13 3.09887388e-15 5.17639021e-13
4.57088190e+00 7.74973665e-13 4.83085676e-13 3.08350721e-16 2.91579638e-13 2.20594334e-15 4.83088843e-13
5.24807460e+00 6.76158590e-13 3.99438325e-13 1.84576764e-16 2.76535688e-13 1.46175104e-15 3.99440428e-13
6.02559586e+00 5.19802779e-13 2.63906519e-13 8.46126165e-17 2.55811647e-13 9.04783418e-16 2.63907674e-13
6.70000000e+00 4.28122831e-13 1.91966713e-13 4.04068481e-17 2.36115711e-13 5.84807461e-16 1.91967457e-13
6.92422916e+00 4.03333733e-13 1.73914622e-13 3.38023495e-17 2.29385309e-13 5.08251520e-16 1.73915272e-13
7.15596261e+00 3.82986539e-13 1.57560095e-13 2.62907654e-17 2.25400153e-13 4.32993250e-16 1.57560674e-13
7.39545150e+00 3.68581179e-13 1.42743489e-13 1.98612984e-17 2.25817829e-13 3.68279330e-16 1.42744025e-13
7.64295536e+00 3.71629113e-13 1.29320147e-13 1.31230598e-17 2.42295843e-13 3.06285243e-16 1.29320701e-13
7.89874245e+00 3.98970887e-13 1.17159027e-13 8.95321701e-18 2.81802907e-13 2.45635119e-16 1.17159675e-13
8.16308998e+00 4.46811932e-13 1.06141452e-13 5.02257735e-18 3.40665458e-13 1.95309422e-16 1.06142245e-13
8.43628443e+00 5.16576376e-13 9.61598702e-14 2.81450112e-18 4.20413692e-13 1.50074134e-16 9.61608686e-14
8.71862190e+00 5.65275530e-13 8.71170070e-14 1.82464467e-18 4.78156698e-13 1.15935215e-16 8.71181185e-14
9.01040836e+00 6.17801300e-13 7.89245082e-14 1.09976866e-18 5.38875692e-13 8.53230962e-17 7.89257281e-14
9.31196005e+00 6.56232324e-13 7.15024497e-14 0.00000000e+00 5.84729875e-13 0.00000000e+00 7.15037315e-14
9.62360379e+00 6.44725447e-13 6.47784908e-14 0.00000000e+00 5.79946956e-13 0.00000000e+00 6.47796826e-14
9.94567731e+00 5.97753188e-13 5.86869350e-14 0.00000000e+00 5.39066253e-13 0.00000000e+00 5.86879481e-14
1.02785297e+01 5.42443991e-13 5.31682361e-14 0.00000000e+00 4.89275755e-13 0.00000000e+00 5.31690665e-14
1.06225216e+01 4.88224186e-13 4.81684947e-14 0.00000000e+00 4.40055691e-13 0.00000000e+00 4.81691679e-14
1.09780260e+01 4.30606759e-13 4.36389224e-14 0.00000000e+00 3.86967837e-13 0.00000000e+00 4.36394486e-14
1.13454280e+01 3.80094990e-13 3.95352808e-14 0.00000000e+00 3.40559710e-13 0.00000000e+00 3.95356937e-14
1.17251259e+01 3.37629347e-13 3.58175206e-14 0.00000000e+00 3.01811827e-13 0.00000000e+00 3.58178467e-14
1.21175312e+01 3.00690016e-13 3.24493614e-14 0.00000000e+00 2.68240655e-13 0.00000000e+00 3.24496176e-14
1.25230691e+01 2.67099487e-13 2.93979283e-14 0.00000000e+00 2.37701558e-13 0.00000000e+00 2.93981291e-14
1.29421791e+01 2.39314499e-13 2.66334373e-14 0.00000000e+00 2.12681062e-13 0.00000000e+00 2.66335956e-14
1.33753155e+01 2.15306332e-13 2.41289068e-14 0.00000000e+00 1.91177426e-13 0.00000000e+00 2.41290327e-14
1.38229477e+01 1.99430668e-13 2.18598885e-14 0.00000000e+00 1.77570779e-13 0.00000000e+00 2.18599931e-14
1.42855609e+01 1.88960290e-13 1.98042380e-14 0.00000000e+00 1.69156053e-13 0.00000000e+00 1.98043289e-14
1.47636563e+01 1.88184786e-13 1.79418884e-14 0.00000000e+00 1.70242898e-13 0.00000000e+00 1.79419747e-14
1.52577522e+01 1.90579643e-13 1.62546687e-14 0.00000000e+00 1.74324974e-13 0.00000000e+00 1.62547521e-14
1.57683840e+01 1.93846173e-13 1.47261104e-14 0.00000000e+00 1.79120063e-13 0.00000000e+00 1.47261920e-14
1.62961051e+01 1.97379919e-13 1.33412945e-14 0.00000000e+00 1.84038624e-13 0.00000000e+00 1.33413743e-14
1.68414875e+01 2.01321935e-13 1.20867039e-14 0.00000000e+00 1.89235231e-13 0.00000000e+00 1.20867817e-14
1.74051222e+01 2.02454972e-13 1.09500943e-14 0.00000000e+00 1.91504878e-13 0.00000000e+00 1.09501681e-14
1.79876201e+01 2.01498113e-13 9.92037016e-15 0.00000000e+00 1.91577743e-13 0.00000000e+00 9.92043915e-15
1.85896125e+01 1.97504830e-13 8.98748112e-15 0.00000000e+00 1.88517349e-13 0.00000000e+00 8.98754353e-15
1.92117518e+01 1.90010457e-13 8.14232048e-15 0.00000000e+00 1.81868137e-13 0.00000000e+00 8.14237531e-15
1.98547123e+01 1.81406279e-13 7.37663757e-15 0.00000000e+00 1.74029642e-13 0.00000000e+00 7.37668479e-15
2.05191907e+01 1.73499340e-13 6.68295782e-15 0.00000000e+00 1.66816383e-13 0.00000000e+00 6.68299807e-15
2.12059073e+01 1.65014328e-13 6.05450976e-15 0.00000000e+00 1.58959818e-13 0.00000000e+00 6.05454408e-15
2.19156062e+01 1.58252437e-13 5.48515908e-15 0.00000000e+00 1.52767278e-13 0.00000000e+00 5.48518847e-15
2.26490567e+01 1.51792298e-13 4.96934857e-15 0.00000000e+00 1.46822950e-13 0.00000000e+00 4.96937378e-15
2.34070535e+01 1.46350673e-13 4.50204346e-15 0.00000000e+00 1.41848630e-13 0.00000000e+00 4.50206513e-15
2.41904183e+01 1.41327591e-13 4.07868246e-15 0.00000000e+00 1.37248908e-13 0.00000000e+00 4.07870113e-15
2.50000000e+01 1.37025829e-13 3.69513319e-15 0.00000000e+00 1.33330696e-13 0.00000000e+00 3.69514932e-15
2.75422870e+01 1.24339523e-13 2.76344208e-15 0.00000000e+00 1.21576081e-13 0.00000000e+00 2.76345259e-15
3.16227766e+01 1.08919855e-13 1.82578925e-15 0.00000000e+00 1.07094066e-13 0.00000000e+00 1.82579502e-15
3.63078055e+01 9.29310227e-14 1.20628765e-15 0.00000000e+00 9.17247351e-14 0.00000000e+00 1.20629081e-15
4.16869383e+01 7.57831301e-14 7.96986754e-16 0.00000000e+00 7.49861434e-14 0.00000000e+00 7.96988434e-16
4.78630092e+01 5.84885222e-14 5.26564170e-16 0.00000000e+00 5.79619581e-14 0.00000000e+00 5.26565037e-16
5.49540874e+01 4.28650157e-14 3.47897633e-16 0.00000000e+00 4.25171180e-14 0.00000000e+00 3.47898070e-16
6.30957344e+01 3.00011177e-14 2.29853757e-16 0.00000000e+00 2.97712639e-14 0.00000000e+00 2.29853975e-16
7.24435960e+01 2.00740643e-14 1.51862908e-16 0.00000000e+00 1.99222014e-14 0.00000000e+00 1.51863015e-16
8.31763771e+01 1.29379275e-14 1.00334846e-16 0.00000000e+00 1.28375927e-14 0.00000000e+00 1.00334899e-16
9.54992586e+01 8.08084735e-15 6.62905842e-17 0.00000000e+00 8.01455677e-15 0.00000000e+00 6.62906105e-17
1.09647820e+02 4.91114485e-15 4.37977590e-17 0.00000000e+00 4.86734709e-15 0.00000000e+00 4.37977720e-17
1.25892541e+02 2.94743218e-15 2.89368944e-17 0.00000000e+00 2.91849528e-15 0.00000000e+00 2.89369010e-17
1.44543977e+02 1.73978356e-15 1.91184176e-17 0.00000000e+00 1.72066514e-15 0.00000000e+00 1.91184209e-17
1.65958691e+02 9.71795951e-16 1.26314138e-17 0.00000000e+00 9.59164538e-16 0.00000000e+00 1.26314154e-17
1.90546072e+02 5.38471579e-16 8.34549261e-18 0.00000000e+00 5.30126086e-16 0.00000000e+00 8.34549342e-18
2.18776162e+02 2.95734345e-16 5.51381242e-18 0.00000000e+00 2.90220532e-16 0.00000000e+00 5.51381282e-18
2.51188643e+02 1.60926148e-16 3.64293980e-18 0.00000000e+00 1.57283208e-16 0.00000000e+00 3.64294000e-18
2.88403150e+02 8.67473314e-17 2.40686649e-18 0.00000000e+00 8.43404649e-17 0.00000000e+00 2.40686659e-18
3.31131121e+02 4.64747281e-17 1.59020094e-18 0.00000000e+00 4.48845272e-17 0.00000000e+00 1.59020099e-18
3.80189396e+02 2.47434452e-17 1.05063535e-18 0.00000000e+00 2.36928098e-17 0.00000000e+00 1.05063537e-18
4.36515832e+02 1.31244314e-17 6.94147895e-19 0.00000000e+00 1.24302835e-17 0.00000000e+00 6.94147908e-19
5.01187234e+02 6.94193101e-18 4.58618968e-19 0.00000000e+00 6.48331205e-18 0.00000000e+00 4.58618975e-19
5.75439937e+02 3.66789923e-18 3.03006548e-19 0.00000000e+00 3.36489268e-18 0.00000000e+00 3.03006552e-19
6.60693448e+02 1.93925119e-18 2.00194442e-19 0.00000000e+00 1.73905675e-18 0.00000000e+00 2.00194443e-19
7.58577575e+02 1.02776592e-18 1.32267156e-19 0.00000000e+00 8.95498762e-19 0.00000000e+00 1.32267157e-19
8.70963590e+02 5.46939022e-19 8.73880436e-20 0.00000000e+00 4.59550978e-19 0.00000000e+00 8.73880441e-20
1.00000000e+03 2.35110516e-19 0.00000000e+00 0.00000000e+00 2.35110516e-19 0.00000000e+00 0.00000000e+00
