# column 1: lambda (micron)
# column 2: total flux; lambda*F_lambda (W/m2)
# column 3: direct stellar flux; lambda*F_lambda (W/m2)
# column 4: scattered stellar flux; lambda*F_lambda (W/m2)
# column 5: total dust emission flux; lambda*F_lambda (W/m2)
# column 6: dust emission scattered flux; lambda*F_lambda (W/m2)
# column 7: transparent flux; lambda*F_lambda (W/m2)
1.00000000e-03 5.25636772e-13 5.25636674e-13 9.81857770e-20 0.00000000e+00 0.00000000e+00 5.25636674e-13
1.14815362e-03 6.20419975e-13 6.20419813e-13 1.62374076e-19 0.00000000e+00 0.00000000e+00 6.20419813e-13
1.31825674e-03 7.32294583e-13 7.32294308e-13 2.74601112e-19 0.00000000e+00 0.00000000e+00 7.32294308e-13
1.51356125e-03 8.64342509e-13 8.64342083e-13 4.25857527e-19 0.00000000e+00 0.00000000e+00 8.64342083e-13
1.73780083e-03 1.02020162e-12 1.02020080e-12 8.19360260e-19 0.00000000e+00 0.00000000e+00 1.02020080e-12
1.99526231e-03 1.20416546e-12 1.20416405e-12 1.40911377e-18 0.00000000e+00 0.00000000e+00 1.20416405e-12
2.29086765e-03 1.42130191e-12 1.42129968e-12 2.22946618e-18 0.00000000e+00 0.00000000e+00 1.42129968e-12
2.63026799e-03 1.67759385e-12 1.67758934e-12 4.51043244e-18 0.00000000e+00 0.00000000e+00 1.67758934e-12
3.01995172e-03 1.98032270e-12 1.98009332e-12 2.29383533e-16 0.00000000e+00 0.00000000e+00 1.98009332e-12
3.46736850e-03 2.33767792e-12 2.33714500e-12 5.32913842e-16 0.00000000e+00 0.00000000e+00 2.33714500e-12
3.98107171e-03 2.75909849e-12 2.75858048e-12 5.18011452e-16 0.00000000e+00 0.00000000e+00 2.75858048e-12
4.57088190e-03 3.27960735e-12 3.25600946e-12 2.35978836e-14 0.00000000e+00 0.00000000e+00 3.25600946e-12
5.24807460e-03 3.84633606e-12 3.84313516e-12 3.20089615e-15 0.00000000e+00 0.00000000e+00 3.84313516e-12
6.02559586e-03 4.53696906e-12 4.53613173e-12 8.37329798e-16 0.00000000e+00 0.00000000e+00 4.53613173e-12
6.91830971e-03 5.35809934e-12 5.35408989e-12 4.00944721e-15 0.00000000e+00 0.00000000e+00 5.35408989e-12
7.94328235e-03 6.32966891e-12 6.31954278e-12 1.01261295e-14 4.30563936e-304 7.18732576e-307 6.31954278e-12
9.12010839e-03 7.46799668e-12 7.45908676e-12 8.90992020e-15 2.07264209e-265 3.52444842e-268 7.45908676e-12
1.04712855e-02 8.34824207e-12 8.33078048e-12 1.74615921e-14 9.50865442e-232 2.25033470e-234 8.33078048e-12
1.20226443e-02 8.34498422e-12 8.33078048e-12 1.42037414e-14 1.60035958e-202 6.02872364e-205 8.33078048e-12
1.38038426e-02 8.34229698e-12 8.33078048e-12 1.15165011e-14 4.63905252e-177 2.15197958e-179 8.33078048e-12
1.58489319e-02 8.34942911e-12 8.33078048e-12 1.86486348e-14 6.62141332e-155 3.50558464e-157 8.33078048e-12
1.81970086e-02 8.34407164e-12 8.33078048e-12 1.32911680e-14 1.24211209e-135 1.19147489e-137 8.33078048e-12
2.08929613e-02 8.34748670e-12 8.33078048e-12 1.67062210e-14 6.75390479e-119 6.94072576e-121 8.33078048e-12
2.39883292e-02 8.34882424e-12 8.33078048e-12 1.80437598e-14 2.45849253e-104 3.23555164e-106 8.33078048e-12
2.75422870e-02 8.35298890e-12 8.33078048e-12 2.22084208e-14 1.13739969e-91 1.96173092e-93 8.33078048e-12
3.16227766e-02 8.35547882e-12 8.33078048e-12 2.46983466e-14 1.14072934e-80 2.36841059e-82 8.33078048e-12
3.63078055e-02 8.35617558e-12 8.33078048e-12 2.53951005e-14 4.05793076e-71 1.00114504e-72 8.33078048e-12
4.16869383e-02 8.36192902e-12 8.33078048e-12 3.11485468e-14 7.90386714e-63 2.58711302e-64 8.33078048e-12
4.78630092e-02 8.36847817e-12 8.33078048e-12 3.76976913e-14 1.22184214e-55 5.29086072e-57 8.33078048e-12
5.49540874e-02 8.37035990e-12 8.33078048e-12 3.95794250e-14 2.07090179e-49 1.08312745e-50 8.33078048e-12
6.30957344e-02 8.37690391e-12 8.33078048e-12 4.61234367e-14 6.81155965e-44 4.19559141e-45 8.33078048e-12
7.24435960e-02 8.37328354e-12 8.33078048e-12 4.25030663e-14 3.99144681e-39 2.37420862e-40 8.33078048e-12
8.31763771e-02 8.37297313e-12 8.33078048e-12 4.21926584e-14 4.12781256e-35 2.44066013e-36 8.33078048e-12
9.54992586e-02 8.37403839e-12 8.33078048e-12 4.32579139e-14 1.17347332e-31 7.15885314e-33 8.33078048e-12
1.09647820e-01 7.99943811e-12 7.95583672e-12 4.36013904e-14 1.00336999e-28 6.55500783e-30 7.95583672e-12
1.25892541e-01 7.46471307e-12 7.42481883e-12 3.98942331e-14 3.26587218e-26 2.06509392e-27 7.42481883e-12
1.44543977e-01 6.96545835e-12 6.92924411e-12 3.62142442e-14 4.46493003e-24 2.71328047e-25 6.92924411e-12
1.65958691e-01 6.50378417e-12 6.46674687e-12 3.70373009e-14 2.27289026e-22 1.50950850e-23 6.46674687e-12
1.90546072e-01 6.07412396e-12 6.03511933e-12 3.90046306e-14 4.82737977e-21 3.87768119e-22 6.03511933e-12
2.18776162e-01 5.67063063e-12 5.63230107e-12 3.83295018e-14 5.75907891e-20 4.97650992e-21 5.63230107e-12
2.51188643e-01 5.29653751e-12 5.25636919e-12 4.01676142e-14 7.00625545e-19 7.13400203e-20 5.25636919e-12
2.88403150e-01 4.94151403e-12 4.90552916e-12 3.59790463e-14 5.82956596e-18 5.73604287e-19 4.90552916e-12
3.31131121e-01 4.60951133e-12 4.57810618e-12 3.13717319e-14 3.34161622e-17 3.16322917e-18 4.57810618e-12
3.80189396e-01 4.30173802e-12 4.27253728e-12 2.90614528e-14 1.39278302e-16 1.27427343e-17 4.27253728e-12
4.36515832e-01 4.01408294e-12 3.98736380e-12 2.62791283e-14 4.40013815e-16 3.87310099e-17 3.98736380e-12
5.01187234e-01 3.74601575e-12 3.72122441e-12 2.36946832e-14 1.09665918e-15 9.28938087e-17 3.72122441e-12
5.75439937e-01 3.49703154e-12 3.47284869e-12 2.19207860e-14 2.26206290e-15 1.90778013e-16 3.47284869e-12
6.60693448e-01 3.26374285e-12 3.24105097e-12 1.86965655e-14 3.99531653e-15 3.27374601e-16 3.24105097e-12
7.58577575e-01 3.04815863e-12 3.02472476e-12 1.70517748e-14 6.38209167e-15 5.10070197e-16 3.02472476e-12
8.70963590e-01 2.84558623e-12 2.82283739e-12 1.31617428e-14 9.58709772e-15 7.28816813e-16 2.82283739e-12
1.00000000e+00 2.66028694e-12 2.63442513e-12 1.17884549e-14 1.40733493e-14 1.00686194e-15 2.63442513e-12
1.14815362e+00 2.48937831e-12 2.45858859e-12 9.47104818e-15 2.13186737e-14 1.39126168e-15 2.45858859e-12
1.31825674e+00 2.33617907e-12 2.29448837e-12 7.96586450e-15 3.37248297e-14 1.94606215e-15 2.29448837e-12
1.51356125e+00 2.20113426e-12 2.14134114e-12 5.87497930e-15 5.39181343e-14 2.66532546e-15 2.14134114e-12
1.73780083e+00 2.08603520e-12 1.99841583e-12 4.33936218e-15 8.32800080e-14 3.39624996e-15 1.99841583e-12
1.99526231e+00 1.98862131e-12 1.86503017e-12 3.22788821e-15 1.20363251e-13 3.94389384e-15 1.86503017e-12
2.29086765e+00 1.90356663e-12 1.74054743e-12 2.18177645e-15 1.60837427e-13 4.21063122e-15 1.74054743e-12
2.63026799e+00 1.82497883e-12 1.62437337e-12 1.57085793e-15 1.99034599e-13 4.06664354e-15 1.62437337e-12
3.01995172e+00 1.74568661e-12 1.51595343e-12 1.01228988e-15 2.28720883e-13 3.67068177e-15 1.51595343e-12
3.46736850e+00 1.66284280e-12 1.41477006e-12 7.04774969e-16 2.47367962e-13 3.15551301e-15 1.41477006e-12
3.98107171e+00 1.57454639e-12 1.32034025e-12 4.77540272e-16 2.53728603e-13 2.50883622e-15 1.32034025e-12
4.57088190e+00 1.48111974e-12 1.23221321e-12 3.11962851e-16 2.48594566e-13 1.89261075e-15 1.23221321e-12
5.24807460e+00 1.25511404e-12 1.01885146e-12 1.85684241e-16 2.36076897e-13 1.30927576e-15 1.01885146e-12
6.02559586e+00 8.92560109e-13 6.73148485e-13 8.18480782e-17 2.19329776e-13 8.53718547e-16 6.73148485e-13
6.70000000e+00 6.94380633e-13 4.89650796e-13 4.15867597e-17 2.04688250e-13 5.80089964e-16 4.89650796e-13
6.92422916e+00 6.43530464e-13 4.43605145e-13 3.30215199e-17 1.99892298e-13 5.12421516e-16 4.43605145e-13
7.15596261e+00 5.98493513e-13 4.01889522e-13 2.77920034e-17 1.96576199e-13 4.40884629e-16 4.01889522e-13
7.39545150e+00 5.62210861e-13 3.64096743e-13 2.01532067e-17 1.98093965e-13 3.75634961e-16 3.64096743e-13
7.64295536e+00 5.42336421e-13 3.29857910e-13 1.38516069e-17 2.12464659e-13 3.11713104e-16 3.29857910e-13
7.89874245e+00 5.46362736e-13 2.98838820e-13 8.43027491e-18 2.47515486e-13 2.46499493e-16 2.98838820e-13
8.16308998e+00 5.70923306e-13 2.70736695e-13 5.19513950e-18 3.00181416e-13 1.90371864e-16 2.70736695e-13
8.43628443e+00 6.19770269e-13 2.45277229e-13 2.95084601e-18 3.74490089e-13 1.44384104e-16 2.45277229e-13
8.71862190e+00 6.51248877e-13 2.22211915e-13 1.76315453e-18 4.29035200e-13 1.13127126e-16 2.22211915e-13
9.01040836e+00 6.88463296e-13 2.01315610e-13 1.16983600e-18 4.87146516e-13 8.66404913e-17 2.01315610e-13
9.31196005e+00 7.15589674e-13 1.82384346e-13 0.00000000e+00 5.33205328e-13 0.00000000e+00 1.82384346e-13
9.62360379e+00 6.97514265e-13 1.65233336e-13 0.00000000e+00 5.32280929e-13 0.00000000e+00 1.65233336e-13
9.94567731e+00 6.41512077e-13 1.49695167e-13 0.00000000e+00 4.91816910e-13 0.00000000e+00 1.49695167e-13
1.02785297e+01 5.79651227e-13 1.35618173e-13 0.00000000e+00 4.44033054e-13 0.00000000e+00 1.35618173e-13
1.06225216e+01 5.23367899e-13 1.22864947e-13 0.00000000e+00 4.00502952e-13 0.00000000e+00 1.22864947e-13
1.09780260e+01 4.62492931e-13 1.11311006e-13 0.00000000e+00 3.51181925e-13 0.00000000e+00 1.11311006e-13
1.13454280e+01 4.10988270e-13 1.00843571e-13 0.00000000e+00 3.10144699e-13 0.00000000e+00 1.00843571e-13
1.17251259e+01 3.67630252e-13 9.13604705e-14 0.00000000e+00 2.76269782e-13 0.00000000e+00 9.13604705e-14
1.21175312e+01 3.28015691e-13 8.27691389e-14 0.00000000e+00 2.45246553e-13 0.00000000e+00 8.27691389e-14
1.25230691e+01 2.94208787e-13 7.49857166e-14 0.00000000e+00 2.19223070e-13 0.00000000e+00 7.49857166e-14
1.29421791e+01 2.64207502e-13 6.79342298e-14 0.00000000e+00 1.96273272e-13 0.00000000e+00 6.79342298e-14
1.33753155e+01 2.39327913e-13 6.15458488e-14 0.00000000e+00 1.77782064e-13 0.00000000e+00 6.15458488e-14
1.38229477e+01 2.21652886e-13 5.57582167e-14 0.00000000e+00 1.65894670e-13 0.00000000e+00 5.57582167e-14
1.42855609e+01 2.09736200e-13 5.05148403e-14 0.00000000e+00 1.59221360e-13 0.00000000e+00 5.05148403e-14
1.47636563e+01 2.06320600e-13 4.57645392e-14 0.00000000e+00 1.60556061e-13 0.00000000e+00 4.57645392e-14
1.52577522e+01 2.05921207e-13 4.14609457e-14 0.00000000e+00 1.64460261e-13 0.00000000e+00 4.14609457e-14
1.57683840e+01 2.07039409e-13 3.75620523e-14 0.00000000e+00 1.69477356e-13 0.00000000e+00 3.75620523e-14
1.62961051e+01 2.08280912e-13 3.40298020e-14 0.00000000e+00 1.74251110e-13 0.00000000e+00 3.40298020e-14
1.68414875e+01 2.09594635e-13 3.08297166e-14 0.00000000e+00 1.78764918e-13 0.00000000e+00 3.08297166e-14
1.74051222e+01 2.09682436e-13 2.79305599e-14 0.00000000e+00 1.81751876e-13 0.00000000e+00 2.79305599e-14
1.79876201e+01 2.07092002e-13 2.53040334e-14 0.00000000e+00 1.81787969e-13 0.00000000e+00 2.53040334e-14
1.85896125e+01 2.02203898e-13 2.29244994e-14 0.00000000e+00 1.79279399e-13 0.00000000e+00 2.29244994e-14
1.92117518e+01 1.94825454e-13 2.07687314e-14 0.00000000e+00 1.74056722e-13 0.00000000e+00 2.07687314e-14
1.98547123e+01 1.85556231e-13 1.88156870e-14 0.00000000e+00 1.66740544e-13 0.00000000e+00 1.88156870e-14
2.05191907e+01 1.75846469e-13 1.70463024e-14 0.00000000e+00 1.58800167e-13 0.00000000e+00 1.70463024e-14
2.12059073e+01 1.67356147e-13 1.54433068e-14 0.00000000e+00 1.51912840e-13 0.00000000e+00 1.54433068e-14
2.19156062e+01 1.59829811e-13 1.39910532e-14 0.00000000e+00 1.45838758e-13 0.00000000e+00 1.39910532e-14
2.26490567e+01 1.52517551e-13 1.26753663e-14 0.00000000e+00 1.39842185e-13 0.00000000e+00 1.26753663e-14
2.34070535e+01 1.46323352e-13 1.14834036e-14 0.00000000e+00 1.34839949e-13 0.00000000e+00 1.14834036e-14
2.41904183e+01 1.40183303e-13 1.04035303e-14 0.00000000e+00 1.29779773e-13 0.00000000e+00 1.04035303e-14
2.50000000e+01 1.34963740e-13 9.42520591e-15 0.00000000e+00 1.25538534e-13 0.00000000e+00 9.42520591e-15
2.75422870e+01 1.20031505e-13 7.04872996e-15 0.00000000e+00 1.12982775e-13 0.00000000e+00 7.04872996e-15
3.16227766e+01 1.00336136e-13 4.65704970e-15 0.00000000e+00 9.56790862e-14 0.00000000e+00 4.65704970e-15
3.63078055e+01 8.14321812e-14 3.07688223e-15 0.00000000e+00 7.83552989e-14 0.00000000e+00 3.07688223e-15
4.16869383e+01 6.24376699e-14 2.03287593e-15 0.00000000e+00 6.04047939e-14 0.00000000e+00 2.03287593e-15
4.78630092e+01 4.52147961e-14 1.34310781e-15 0.00000000e+00 4.38716883e-14 0.00000000e+00 1.34310781e-15
5.49540874e+01 3.10345892e-14 8.87382527e-16 0.00000000e+00 3.01472067e-14 0.00000000e+00 8.87382527e-16
6.30957344e+01 2.03326263e-14 5.86287821e-16 0.00000000e+00 1.97463385e-14 0.00000000e+00 5.86287821e-16
7.24435960e+01 1.28001798e-14 3.87356522e-16 0.00000000e+00 1.24128233e-14 0.00000000e+00 3.87356522e-16
8.31763771e+01 7.80586343e-15 2.55923916e-16 0.00000000e+00 7.54993951e-15 0.00000000e+00 2.55923916e-16
9.54992586e+01 4.64130449e-15 1.69087255e-16 0.00000000e+00 4.47221724e-15 0.00000000e+00 1.69087255e-16
1.09647820e+02 2.70481009e-15 1.11714841e-16 0.00000000e+00 2.59309524e-15 0.00000000e+00 1.11714841e-16
1.25892541e+02 1.56704250e-15 7.38092637e-17 0.00000000e+00 1.49323323e-15 0.00000000e+00 7.38092637e-17
1.44543977e+02 8.98671423e-16 4.87652969e-17 0.00000000e+00 8.49906126e-16 0.00000000e+00 4.87652969e-17
1.65958691e+02 4.91360074e-16 3.22189122e-17 0.00000000e+00 4.59141162e-16 0.00000000e+00 3.22189122e-17
1.90546072e+02 2.68350315e-16 2.12868242e-17 0.00000000e+00 2.47063491e-16 0.00000000e+00 2.12868242e-17
2.18776162e+02 1.46269800e-16 1.40640653e-17 0.00000000e+00 1.32205734e-16 0.00000000e+00 1.40640653e-17
2.51188643e+02 7.95446117e-17 9.29203577e-18 0.00000000e+00 7.02525759e-17 0.00000000e+00 9.29203577e-18
2.88403150e+02 4.31870663e-17 6.13918715e-18 0.00000000e+00 3.70478792e-17 0.00000000e+00 6.13918715e-18
3.31131121e+02 2.34911893e-17 4.05612073e-18 0.00000000e+00 1.94350686e-17 0.00000000e+00 4.05612073e-18
3.80189396e+02 1.28136243e-17 2.67985239e-18 0.00000000e+00 1.01337720e-17 0.00000000e+00 2.67985239e-18
4.36515832e+02 7.03138898e-18 1.77056092e-18 0.00000000e+00 5.26082807e-18 0.00000000e+00 1.77056092e-18
5.01187234e+02 3.88897893e-18 1.16979800e-18 0.00000000e+00 2.71918093e-18 0.00000000e+00 1.16979800e-18
5.75439937e+02 2.17324406e-18 7.72877871e-19 0.00000000e+00 1.40036619e-18 0.00000000e+00 7.72877871e-19
6.60693448e+02 1.22954200e-18 5.10635346e-19 0.00000000e+00 7.18906657e-19 0.00000000e+00 5.10635346e-19
7.58577575e+02 7.05437176e-19 3.37373427e-19 0.00000000e+00 3.68063749e-19 0.00000000e+00 3.37373427e-19
8.70963590e+02 4.10848922e-19 2.22900413e-19 0.00000000e+00 1.87948509e-19 0.00000000e+00 2.22900413e-19
1.00000000e+03 9.57447410e-20 0.00000000e+00 0.00000000e+00 9.57447410e-20 0.00000000e+00 0.00000000e+00
