# column 1: lambda (micron)
# column 2: total flux; lambda*F_lambda (W/m2)
# column 3: direct stellar flux; lambda*F_lambda (W/m2)
# column 4: scattered stellar flux; lambda*F_lambda (W/m2)
# column 5: total dust emission flux; lambda*F_lambda (W/m2)
# column 6: dust emission scattered flux; lambda*F_lambda (W/m2)
# column 7: transparent flux; lambda*F_lambda (W/m2)
1.00000000e-03 6.93979615e-13 6.93976207e-13 3.40785602e-18 0.00000000e+00 0.00000000e+00 6.93993746e-13
1.14815362e-03 8.19112947e-13 8.19107790e-13 5.15704184e-18 0.00000000e+00 0.00000000e+00 8.19135139e-13
1.31825674e-03 9.66809443e-13 9.66801065e-13 8.37755051e-18 0.00000000e+00 0.00000000e+00 9.66842108e-13
1.51356125e-03 1.14114006e-12 1.14112658e-12 1.34839111e-17 0.00000000e+00 0.00000000e+00 1.14118369e-12
1.73780083e-03 1.34691666e-12 1.34689455e-12 2.21076211e-17 0.00000000e+00 0.00000000e+00 1.34696266e-12
1.99526231e-03 1.58978203e-12 1.58974124e-12 4.07844792e-17 0.00000000e+00 0.00000000e+00 1.58984782e-12
2.29086765e-03 1.87646862e-12 1.87639679e-12 7.18272838e-17 0.00000000e+00 0.00000000e+00 1.87653019e-12
2.63026799e-03 2.21484532e-12 2.21471862e-12 1.26695484e-16 0.00000000e+00 0.00000000e+00 2.21490731e-12
3.01995172e-03 2.61427526e-12 2.61402536e-12 2.49899363e-16 0.00000000e+00 0.00000000e+00 2.61430080e-12
3.46736850e-03 3.08575527e-12 3.08532999e-12 4.25280979e-16 0.00000000e+00 0.00000000e+00 3.08571319e-12
3.98107171e-03 3.64231104e-12 3.64161323e-12 6.97809945e-16 0.00000000e+00 0.00000000e+00 3.64213095e-12
4.57088190e-03 4.29992903e-12 4.29847469e-12 1.45433760e-15 0.00000000e+00 0.00000000e+00 4.29888232e-12
5.24807460e-03 5.07611682e-12 5.07344500e-12 2.67182041e-15 0.00000000e+00 0.00000000e+00 5.07405951e-12
6.02559586e-03 5.99302582e-12 5.98814260e-12 4.88321629e-15 0.00000000e+00 0.00000000e+00 5.98901715e-12
6.91830971e-03 7.07570922e-12 7.06776920e-12 7.94002355e-15 0.00000000e+00 0.00000000e+00 7.06896053e-12
7.94328235e-03 8.35569880e-12 8.34207121e-12 1.36275898e-14 0.00000000e+00 0.00000000e+00 8.34363998e-12
9.12010839e-03 9.86832493e-12 9.84611569e-12 2.22092361e-14 0.00000000e+00 0.00000000e+00 9.84817045e-12
1.04712855e-02 1.10291864e-11 1.09966190e-11 3.25673831e-14 0.00000000e+00 0.00000000e+00 1.09990604e-11
1.20226443e-02 1.10451976e-11 1.09964750e-11 4.87226833e-14 9.40472541e-312 9.19119043e-314 1.09990604e-11
1.38038426e-02 1.10658866e-11 1.09963041e-11 6.95825607e-14 1.65164493e-272 2.37406804e-274 1.09990604e-11
1.58489319e-02 1.10921593e-11 1.09960941e-11 9.60652331e-14 2.37618804e-238 4.10113546e-240 1.09990604e-11
1.81970086e-02 1.11311140e-11 1.09959004e-11 1.35213596e-13 1.26896090e-208 2.92544528e-210 1.09990604e-11
2.08929613e-02 1.11811105e-11 1.09957394e-11 1.85371121e-13 8.86836458e-183 2.93826810e-184 1.09990604e-11
2.39883292e-02 1.12443092e-11 1.09955308e-11 2.48778373e-13 2.76393420e-160 1.15791223e-161 1.09990604e-11
2.75422870e-02 1.12886636e-11 1.09952882e-11 2.93375397e-13 1.03499646e-140 5.10116357e-142 1.09990604e-11
3.16227766e-02 1.13420723e-11 1.09950504e-11 3.47021872e-13 1.08490024e-123 6.60202227e-125 1.09990604e-11
3.63078055e-02 1.13799455e-11 1.09948639e-11 3.85081662e-13 6.70561597e-109 4.43604047e-110 1.09990604e-11
4.16869383e-02 1.14578705e-11 1.09947026e-11 4.63167912e-13 4.81263786e-96 3.88378293e-97 1.09990604e-11
4.78630092e-02 1.14924464e-11 1.09942579e-11 4.98188470e-13 7.04849250e-85 6.71265324e-86 1.09990604e-11
5.49540874e-02 1.15217688e-11 1.09936395e-11 5.28129310e-13 3.46785533e-75 3.60097631e-76 1.09990604e-11
6.30957344e-02 1.15138734e-11 1.09920891e-11 5.21784292e-13 1.20287978e-66 1.36460391e-67 1.09990604e-11
7.24435960e-02 1.14337461e-11 1.09902529e-11 4.43493246e-13 3.23071368e-59 3.68920579e-60 1.09990604e-11
8.31763771e-02 1.14244986e-11 1.09904163e-11 4.34082374e-13 8.68972076e-53 1.17923836e-53 1.09990604e-11
9.54992586e-02 1.14216701e-11 1.09908955e-11 4.30774579e-13 4.53088917e-47 7.86901860e-48 1.09990604e-11
1.09647820e-01 1.09612999e-11 1.04975471e-11 4.63752769e-13 5.12731752e-42 1.06575551e-42 1.05040253e-11
1.25892541e-01 1.02582827e-11 9.79794992e-12 4.60332826e-13 1.39297041e-37 3.03394626e-38 9.80292679e-12
1.44543977e-01 9.55781912e-12 9.14477366e-12 4.13045459e-13 9.60158628e-34 2.05099582e-34 9.14862359e-12
1.65958691e-01 8.94502297e-12 8.53485000e-12 4.10172968e-13 1.56362644e-30 3.57649736e-31 8.53799231e-12
1.90546072e-01 8.38623602e-12 7.96498947e-12 4.21246550e-13 6.87835645e-28 1.82663143e-28 7.96811805e-12
2.18776162e-01 7.81734069e-12 7.43285559e-12 3.84485099e-13 1.12166073e-25 3.16413167e-26 7.43628044e-12
2.51188643e-01 7.35984876e-12 6.93738441e-12 4.22464349e-13 1.58542017e-23 5.20624216e-24 6.93994070e-12
2.88403150e-01 6.86130594e-12 6.47474877e-12 3.86557176e-13 1.10187500e-21 3.59363824e-22 6.47672950e-12
3.31131121e-01 6.39905875e-12 6.04282423e-12 3.56234486e-13 4.13144359e-20 1.35531456e-20 6.04443567e-12
3.80189396e-01 5.95636453e-12 5.63967492e-12 3.16688685e-13 9.20340769e-19 3.00991687e-19 5.64099558e-12
4.36515832e-01 5.55250209e-12 5.26341070e-12 2.89078391e-13 1.30049214e-17 4.27136112e-18 5.26448339e-12
5.01187234e-01 5.17444571e-12 4.91224227e-12 2.62081231e-13 1.22209874e-16 4.01005679e-17 4.91310176e-12
5.75439937e-01 4.81716088e-12 4.58449179e-12 2.31851861e-13 8.17233213e-16 2.65701163e-16 4.58517335e-12
6.60693448e-01 4.49083757e-12 4.27859695e-12 2.08207201e-13 4.03342280e-15 1.28711084e-15 4.27913275e-12
7.58577575e-01 4.18881474e-12 3.99310295e-12 1.80171372e-13 1.55404169e-14 4.80178547e-15 3.99351904e-12
8.70963590e-01 3.93440487e-12 3.72665285e-12 1.59074735e-13 4.86772795e-14 1.42429745e-14 3.72696882e-12
1.00000000e+00 3.73561925e-12 3.47797362e-12 1.32644557e-13 1.25001075e-13 3.37484069e-14 3.47820968e-12
1.14815362e+00 3.63747945e-12 3.24588091e-12 1.10223377e-13 2.81375166e-13 6.80676596e-14 3.24605414e-12
1.31825674e+00 3.67183550e-12 3.02926907e-12 8.79355588e-14 5.54630868e-13 1.15556562e-13 3.02939399e-12
1.51356125e+00 3.88344990e-12 2.82710580e-12 6.82249871e-14 9.88119111e-13 1.73814066e-13 2.82719497e-12
1.73780083e+00 4.25824615e-12 2.63842925e-12 5.33527234e-14 1.56646418e-12 2.23728345e-13 2.63849186e-12
1.99526231e+00 4.73798028e-12 2.46234060e-12 3.88127198e-14 2.23682696e-12 2.50447236e-13 2.46238388e-12
2.29086765e+00 5.22539809e-12 2.29800053e-12 2.80637083e-14 2.89933386e-12 2.44273013e-13 2.29803035e-12
2.63026799e+00 5.65712689e-12 2.14462596e-12 1.95614999e-14 3.49293942e-12 2.17143813e-13 2.14464670e-12
3.01995172e+00 5.96718682e-12 2.00148615e-12 1.36990377e-14 3.95200163e-12 1.80136493e-13 2.00150076e-12
3.46736850e+00 6.15993466e-12 1.86789873e-12 9.44602862e-15 4.28258990e-12 1.41348461e-13 1.86790919e-12
3.98107171e+00 6.17529153e-12 1.74322670e-12 6.52603117e-15 4.42553880e-12 1.05219759e-13 1.74323429e-12
4.57088190e+00 6.07187477e-12 1.62687532e-12 4.35869238e-15 4.44064076e-12 7.45106302e-14 1.62688090e-12
5.24807460e+00 5.71405164e-12 1.34517744e-12 2.48193678e-15 4.36639226e-12 5.01331677e-14 1.34518114e-12
6.02559586e+00 5.13172049e-12 8.88750336e-13 1.08434102e-15 4.24188581e-12 3.24406049e-14 8.88752369e-13
6.70000000e+00 4.76497158e-12 6.46480580e-13 5.52197478e-16 4.11793880e-12 2.23454534e-14 6.46481889e-13
6.92422916e+00 4.66935795e-12 5.85687053e-13 4.48365331e-16 4.08322253e-12 1.97273818e-14 5.85688198e-13
7.15596261e+00 4.58657686e-12 5.30610388e-13 3.52978671e-16 4.05561349e-12 1.71919239e-14 5.30611407e-13
7.39545150e+00 4.58972456e-12 4.80712968e-13 2.68840366e-16 4.10874276e-12 1.47471158e-14 4.80713913e-13
7.64295536e+00 4.72381231e-12 4.35507691e-13 1.85993005e-16 4.28811863e-12 1.21005334e-14 4.35508666e-13
7.89874245e+00 5.14789139e-12 3.94553276e-13 1.13482662e-16 4.75322463e-12 9.43299983e-15 3.94554418e-13
8.16308998e+00 5.74805488e-12 3.57450018e-13 6.64348128e-17 5.39053843e-12 7.19803502e-15 3.57451415e-13
8.43628443e+00 6.62449486e-12 3.23835736e-13 3.63835656e-17 6.30062274e-12 5.32860938e-15 3.23837494e-13
8.71862190e+00 7.18418006e-12 2.93382593e-13 2.26105874e-17 6.89077485e-12 4.20354658e-15 2.93384550e-13
9.01040836e+00 7.82402055e-12 2.65793184e-13 1.40190454e-17 7.55821335e-12 3.21859033e-15 2.65795332e-13
9.31196005e+00 8.26864182e-12 2.40798285e-13 0.00000000e+00 8.02784353e-12 0.00000000e+00 2.40800541e-13
9.62360379e+00 8.25765589e-12 2.18154106e-13 0.00000000e+00 8.03950179e-12 0.00000000e+00 2.18156204e-13
9.94567731e+00 7.88022378e-12 1.97639505e-13 0.00000000e+00 7.68258428e-12 0.00000000e+00 1.97641289e-13
1.02785297e+01 7.39857439e-12 1.79054088e-13 0.00000000e+00 7.21952031e-12 0.00000000e+00 1.79055550e-13
1.06225216e+01 6.92763251e-12 1.62216387e-13 0.00000000e+00 6.76541613e-12 0.00000000e+00 1.62217572e-13
1.09780260e+01 6.42464577e-12 1.46962073e-13 0.00000000e+00 6.27768369e-12 0.00000000e+00 1.46962999e-13
1.13454280e+01 5.95176978e-12 1.33142205e-13 0.00000000e+00 5.81862757e-12 0.00000000e+00 1.33142932e-13
1.17251259e+01 5.59321629e-12 1.20621898e-13 0.00000000e+00 5.47259439e-12 0.00000000e+00 1.20622472e-13
1.21175312e+01 5.26191882e-12 1.09278957e-13 0.00000000e+00 5.15263986e-12 0.00000000e+00 1.09279408e-13
1.25230691e+01 4.98010176e-12 9.90026671e-14 0.00000000e+00 4.88109909e-12 0.00000000e+00 9.90030204e-14
1.29421791e+01 4.73465592e-12 8.96927220e-14 0.00000000e+00 4.64496319e-12 0.00000000e+00 8.96930008e-14
1.33753155e+01 4.54986629e-12 8.12582527e-14 0.00000000e+00 4.46860804e-12 0.00000000e+00 8.12584743e-14
1.38229477e+01 4.43878031e-12 7.36169273e-14 0.00000000e+00 4.36516338e-12 0.00000000e+00 7.36171115e-14
1.42855609e+01 4.40156180e-12 6.66941651e-14 0.00000000e+00 4.33486763e-12 0.00000000e+00 6.66943252e-14
1.47636563e+01 4.51878394e-12 6.04223901e-14 0.00000000e+00 4.45836155e-12 0.00000000e+00 6.04225420e-14
1.52577522e+01 4.66486035e-12 5.47403963e-14 0.00000000e+00 4.61011995e-12 0.00000000e+00 5.47405431e-14
1.57683840e+01 4.85002485e-12 4.95927228e-14 0.00000000e+00 4.80043212e-12 0.00000000e+00 4.95928665e-14
1.62961051e+01 5.03796246e-12 4.49291253e-14 0.00000000e+00 4.99303333e-12 0.00000000e+00 4.49292657e-14
1.68414875e+01 5.21252574e-12 4.07040824e-14 0.00000000e+00 5.17182166e-12 0.00000000e+00 4.07042194e-14
1.74051222e+01 5.35354442e-12 3.68763568e-14 0.00000000e+00 5.31666807e-12 0.00000000e+00 3.68764869e-14
1.79876201e+01 5.47142074e-12 3.34085842e-14 0.00000000e+00 5.43801216e-12 0.00000000e+00 3.34087056e-14
1.85896125e+01 5.55172441e-12 3.02669168e-14 0.00000000e+00 5.52145749e-12 0.00000000e+00 3.02670267e-14
1.92117518e+01 5.57286589e-12 2.74206875e-14 0.00000000e+00 5.54544520e-12 0.00000000e+00 2.74207841e-14
1.98547123e+01 5.53101287e-12 2.48421126e-14 0.00000000e+00 5.50617076e-12 0.00000000e+00 2.48421957e-14
2.05191907e+01 5.53272137e-12 2.25060210e-14 0.00000000e+00 5.51021535e-12 0.00000000e+00 2.25060919e-14
2.12059073e+01 5.49673236e-12 2.03896096e-14 0.00000000e+00 5.47634276e-12 0.00000000e+00 2.03896700e-14
2.19156062e+01 5.44627211e-12 1.84722199e-14 0.00000000e+00 5.42779989e-12 0.00000000e+00 1.84722717e-14
2.26490567e+01 5.41193431e-12 1.67351367e-14 0.00000000e+00 5.39519917e-12 0.00000000e+00 1.67351811e-14
2.34070535e+01 5.38756317e-12 1.51614044e-14 0.00000000e+00 5.37240176e-12 0.00000000e+00 1.51614426e-14
2.41904183e+01 5.35624071e-12 1.37356620e-14 0.00000000e+00 5.34250505e-12 0.00000000e+00 1.37356949e-14
2.50000000e+01 5.29719010e-12 1.24439929e-14 0.00000000e+00 5.28474611e-12 0.00000000e+00 1.24440213e-14
2.75422870e+01 5.06928060e-12 9.30636126e-15 0.00000000e+00 5.05997423e-12 0.00000000e+00 9.30637977e-15
3.16227766e+01 4.55334089e-12 6.14865397e-15 0.00000000e+00 4.54719223e-12 0.00000000e+00 6.14866414e-15
3.63078055e+01 3.83314756e-12 4.06237655e-15 0.00000000e+00 3.82908518e-12 0.00000000e+00 4.06238211e-15
4.16869383e+01 2.98705267e-12 2.68398629e-15 0.00000000e+00 2.98436868e-12 0.00000000e+00 2.68398924e-15
4.78630092e+01 2.16528724e-12 1.77329258e-15 0.00000000e+00 2.16351394e-12 0.00000000e+00 1.77329411e-15
5.49540874e+01 1.46821287e-12 1.17160303e-15 0.00000000e+00 1.46704126e-12 0.00000000e+00 1.17160380e-15
6.30957344e+01 9.42260011e-13 7.74070570e-16 0.00000000e+00 9.41485941e-13 0.00000000e+00 7.74070953e-16
7.24435960e+01 5.79070683e-13 5.11423418e-16 0.00000000e+00 5.78559259e-13 0.00000000e+00 5.11423607e-16
8.31763771e+01 3.42551231e-13 3.37894133e-16 0.00000000e+00 3.42213337e-13 0.00000000e+00 3.37894226e-16
9.54992586e+01 1.97426755e-13 2.23244455e-16 0.00000000e+00 1.97203510e-13 0.00000000e+00 2.23244502e-16
1.09647820e+02 1.11478576e-13 1.47496156e-16 0.00000000e+00 1.11331080e-13 0.00000000e+00 1.47496179e-16
1.25892541e+02 6.26533146e-14 9.74497478e-17 0.00000000e+00 6.25558649e-14 0.00000000e+00 9.74497594e-17
1.44543977e+02 3.48879653e-14 6.43844116e-17 0.00000000e+00 3.48235809e-14 0.00000000e+00 6.43844175e-17
1.65958691e+02 1.84881129e-14 4.25383599e-17 0.00000000e+00 1.84455745e-14 0.00000000e+00 4.25383628e-17
1.90546072e+02 9.77925819e-15 2.81048162e-17 0.00000000e+00 9.75115337e-15 0.00000000e+00 2.81048176e-17
2.18776162e+02 5.15599743e-15 1.85686681e-17 0.00000000e+00 5.13742876e-15 0.00000000e+00 1.85686688e-17
2.51188643e+02 2.70516921e-15 1.22681975e-17 0.00000000e+00 2.69290101e-15 0.00000000e+00 1.22681978e-17
2.88403150e+02 1.41132646e-15 8.10551776e-18 0.00000000e+00 1.40322095e-15 0.00000000e+00 8.10551794e-18
3.31131121e+02 7.33801418e-16 5.35526250e-18 0.00000000e+00 7.28446156e-16 0.00000000e+00 5.35526259e-18
3.80189396e+02 3.79940775e-16 3.53818686e-18 0.00000000e+00 3.76402588e-16 0.00000000e+00 3.53818691e-18
4.36515832e+02 1.96206823e-16 2.33765689e-18 0.00000000e+00 1.93869166e-16 0.00000000e+00 2.33765691e-18
5.01187234e+02 1.01062749e-16 1.54447459e-18 0.00000000e+00 9.95182748e-17 0.00000000e+00 1.54447460e-18
5.75439937e+02 5.19674218e-17 1.02042424e-18 0.00000000e+00 5.09469975e-17 0.00000000e+00 1.02042425e-18
6.60693448e+02 2.66942034e-17 6.74187614e-19 0.00000000e+00 2.60200157e-17 0.00000000e+00 6.74187617e-19
7.58577575e+02 1.37072817e-17 4.45431340e-19 0.00000000e+00 1.32618503e-17 0.00000000e+00 4.45431341e-19
8.70963590e+02 7.03987972e-18 2.94293568e-19 0.00000000e+00 6.74558615e-18 0.00000000e+00 2.94293569e-19
1.00000000e+03 3.42471583e-18 0.00000000e+00 0.00000000e+00 3.42471583e-18 0.00000000e+00 0.00000000e+00
