# column 1: lambda (micron)
# column 2: total flux; lambda*F_lambda (W/m2)
# column 3: direct stellar flux; lambda*F_lambda (W/m2)
# column 4: scattered stellar flux; lambda*F_lambda (W/m2)
# column 5: total dust emission flux; lambda*F_lambda (W/m2)
# column 6: dust emission scattered flux; lambda*F_lambda (W/m2)
# column 7: transparent flux; lambda*F_lambda (W/m2)
1.00000000e-03 6.93994926e-13 6.93993746e-13 1.17990119e-18 0.00000000e+00 0.00000000e+00 6.93993746e-13
1.14815362e-03 8.19146697e-13 8.19135139e-13 1.15581005e-17 0.00000000e+00 0.00000000e+00 8.19135139e-13
1.31825674e-03 9.66847627e-13 9.66842108e-13 5.51889894e-18 0.00000000e+00 0.00000000e+00 9.66842108e-13
1.51356125e-03 1.14119499e-12 1.14118369e-12 1.12958885e-17 0.00000000e+00 0.00000000e+00 1.14118369e-12
1.73780083e-03 1.34698946e-12 1.34696266e-12 2.67964330e-17 0.00000000e+00 0.00000000e+00 1.34696266e-12
1.99526231e-03 1.58992424e-12 1.58984782e-12 7.64196525e-17 0.00000000e+00 0.00000000e+00 1.58984782e-12
2.29086765e-03 1.87690294e-12 1.87653019e-12 3.72744862e-16 0.00000000e+00 0.00000000e+00 1.87653019e-12
2.63026799e-03 2.21516371e-12 2.21490731e-12 2.56402443e-16 0.00000000e+00 0.00000000e+00 2.21490731e-12
3.01995172e-03 2.61460314e-12 2.61430080e-12 3.02330894e-16 0.00000000e+00 0.00000000e+00 2.61430080e-12
3.46736850e-03 3.08700185e-12 3.08571319e-12 1.28866699e-15 0.00000000e+00 0.00000000e+00 3.08571319e-12
3.98107171e-03 3.64526661e-12 3.64213095e-12 3.13565686e-15 0.00000000e+00 0.00000000e+00 3.64213095e-12
4.57088190e-03 4.30036414e-12 4.29888232e-12 1.48181618e-15 0.00000000e+00 0.00000000e+00 4.29888232e-12
5.24807460e-03 5.08269948e-12 5.07405951e-12 8.63996921e-15 0.00000000e+00 0.00000000e+00 5.07405951e-12
6.02559586e-03 6.01970889e-12 5.98901715e-12 3.06917463e-14 0.00000000e+00 0.00000000e+00 5.98901715e-12
6.91830971e-03 7.07967344e-12 7.06896053e-12 1.07129176e-14 0.00000000e+00 0.00000000e+00 7.06896053e-12
7.94328235e-03 8.36142675e-12 8.34363998e-12 1.77867721e-14 2.00356065e-303 7.53187420e-306 8.34363998e-12
9.12010839e-03 9.88817993e-12 9.84817045e-12 4.00094828e-14 9.88191173e-265 5.57245736e-267 9.84817045e-12
1.04712855e-02 1.10414715e-11 1.09990604e-11 4.24110867e-14 4.61958357e-231 2.54849774e-233 1.09990604e-11
1.20226443e-02 1.10500515e-11 1.09990604e-11 5.09910625e-14 7.94843121e-202 9.44064297e-204 1.09990604e-11
1.38038426e-02 1.10684517e-11 1.09990604e-11 6.93912473e-14 2.34281371e-176 3.39997627e-178 1.09990604e-11
1.58489319e-02 1.10731075e-11 1.09990604e-11 7.40470378e-14 3.39148660e-154 5.55648507e-156 1.09990604e-11
1.81970086e-02 1.10823022e-11 1.09990604e-11 8.32417076e-14 6.39627377e-135 9.64743272e-137 1.09990604e-11
2.08929613e-02 1.10910531e-11 1.09990604e-11 9.19926190e-14 3.52919365e-118 7.22102840e-120 1.09990604e-11
2.39883292e-02 1.11136283e-11 1.09990604e-11 1.14567858e-13 1.30097261e-103 3.56943883e-105 1.09990604e-11
2.75422870e-02 1.11320047e-11 1.09990604e-11 1.32944206e-13 6.07351843e-91 2.01207817e-92 1.09990604e-11
3.16227766e-02 1.11492949e-11 1.09990604e-11 1.50234505e-13 6.13892258e-80 2.33105315e-81 1.09990604e-11
3.63078055e-02 1.11517317e-11 1.09990604e-11 1.52671219e-13 2.19339066e-70 8.94729189e-72 1.09990604e-11
4.16869383e-02 1.11832232e-11 1.09990604e-11 1.84162713e-13 4.30686935e-62 2.23440400e-63 1.09990604e-11
4.78630092e-02 1.12171476e-11 1.09990604e-11 2.18087203e-13 6.68321903e-55 4.16382640e-56 1.09990604e-11
5.49540874e-02 1.12281172e-11 1.09990604e-11 2.29056770e-13 1.13306216e-48 7.74663621e-50 1.09990604e-11
6.30957344e-02 1.12373419e-11 1.09990604e-11 2.38281488e-13 3.70313884e-43 2.59022951e-44 1.09990604e-11
7.24435960e-02 1.12092610e-11 1.09990604e-11 2.10200550e-13 2.15870789e-38 1.34543871e-39 1.09990604e-11
8.31763771e-02 1.12044741e-11 1.09990604e-11 2.05413676e-13 2.23859275e-34 1.38368629e-35 1.09990604e-11
9.54992586e-02 1.12056370e-11 1.09990604e-11 2.06576524e-13 6.37911091e-31 4.06488587e-32 1.09990604e-11
1.09647820e-01 1.07242268e-11 1.05040253e-11 2.20201459e-13 5.50078037e-28 3.99919114e-29 1.05040253e-11
1.25892541e-01 1.00178803e-11 9.80292679e-12 2.14953545e-13 1.80496557e-25 1.35744973e-26 9.80292679e-12
1.44543977e-01 9.34845261e-12 9.14862359e-12 1.99829015e-13 2.48010173e-23 1.86964153e-24 9.14862359e-12
1.65958691e-01 8.73792329e-12 8.53799231e-12 1.99930974e-13 1.27057777e-21 1.08037622e-22 8.53799231e-12
1.90546072e-01 8.18466479e-12 7.96811805e-12 2.16546716e-13 2.69720944e-20 2.62668352e-21 7.96811805e-12
2.18776162e-01 7.63140725e-12 7.43628044e-12 1.95126490e-13 3.19080214e-19 3.05886572e-20 7.43628044e-12
2.51188643e-01 7.15298260e-12 6.93994070e-12 2.13037969e-13 3.93107372e-18 4.73925130e-19 6.93994070e-12
2.88403150e-01 6.68422641e-12 6.47672950e-12 2.07463905e-13 3.29995385e-17 4.08183089e-18 6.47672950e-12
3.31131121e-01 6.23782558e-12 6.04443567e-12 1.93200429e-13 1.89483168e-16 2.28441445e-17 6.04443567e-12
3.80189396e-01 5.81930939e-12 5.64099558e-12 1.77521182e-13 7.92627051e-16 9.49586301e-17 5.64099558e-12
4.36515832e-01 5.42886439e-12 5.26448339e-12 1.61864224e-13 2.51677818e-15 3.00908184e-16 5.26448339e-12
5.01187234e-01 5.06618753e-12 4.91310176e-12 1.46757038e-13 6.32872971e-15 7.60614793e-16 4.91310176e-12
5.75439937e-01 4.73271843e-12 4.58517335e-12 1.34281921e-13 1.32631639e-14 1.62878778e-15 4.58517335e-12
6.60693448e-01 4.42533166e-12 4.27913275e-12 1.21726441e-13 2.44724718e-14 3.16384684e-15 4.27913275e-12
7.58577575e-01 4.14410226e-12 3.99351904e-12 1.07571732e-13 4.30114844e-14 6.14858540e-15 3.99351904e-12
8.70963590e-01 3.89670928e-12 3.72696882e-12 9.33217509e-14 7.64187119e-14 1.19709822e-14 3.72696882e-12
1.00000000e+00 3.69779111e-12 3.47820968e-12 8.08668972e-14 1.38714533e-13 2.32382997e-14 3.47820968e-12
1.14815362e+00 3.57190610e-12 3.24605414e-12 6.67198605e-14 2.59132098e-13 4.31004764e-14 3.24605414e-12
1.31825674e+00 3.55721246e-12 3.02939399e-12 5.22795558e-14 4.75538911e-13 7.24776333e-14 3.02939399e-12
1.51356125e+00 3.68748417e-12 2.82719497e-12 4.12332273e-14 8.19055973e-13 1.09236948e-13 2.82719497e-12
1.73780083e+00 3.95361199e-12 2.63849186e-12 3.05072120e-14 1.28461291e-12 1.43436353e-13 2.63849186e-12
1.99526231e+00 4.30704152e-12 2.46238388e-12 2.33185206e-14 1.82133912e-12 1.63025548e-13 2.46238388e-12
2.29086765e+00 4.66457436e-12 2.29803035e-12 1.65149875e-14 2.35002902e-12 1.67914493e-13 2.29803035e-12
2.63026799e+00 4.96240039e-12 2.14464670e-12 1.21454371e-14 2.80560825e-12 1.56356248e-13 2.14464670e-12
3.01995172e+00 5.14278084e-12 2.00150076e-12 8.50768960e-15 3.13277239e-12 1.38071419e-13 2.00150076e-12
3.46736850e+00 5.20970288e-12 1.86790919e-12 6.13275824e-15 3.33566092e-12 1.14552164e-13 1.86790919e-12
3.98107171e+00 5.16931600e-12 1.74323429e-12 4.29050201e-15 3.42179121e-12 8.88509249e-14 1.74323429e-12
4.57088190e+00 5.01058381e-12 1.62688090e-12 2.88091797e-15 3.38082199e-12 6.50496437e-14 1.62688090e-12
5.24807460e+00 4.62094453e-12 1.34518114e-12 1.64696391e-15 3.27411642e-12 4.43204380e-14 1.34518114e-12
6.02559586e+00 4.01141450e-12 8.88752369e-13 7.48918455e-16 3.12191321e-12 2.82999468e-14 8.88752369e-13
6.70000000e+00 3.63508474e-12 6.46481889e-13 3.81102263e-16 2.98822175e-12 1.89705894e-14 6.46481889e-13
6.92422916e+00 3.52054447e-12 5.85688198e-13 3.11522862e-16 2.93454475e-12 1.66080083e-14 5.85688198e-13
7.15596261e+00 3.42578263e-12 5.30611407e-13 2.48137854e-16 2.89492308e-12 1.44730528e-14 5.30611407e-13
7.39545150e+00 3.38211136e-12 4.80713913e-13 1.90384101e-16 2.90120706e-12 1.23145503e-14 4.80713913e-13
7.64295536e+00 3.47676478e-12 4.35508666e-13 1.30400079e-16 3.04112571e-12 1.00801648e-14 4.35508666e-13
7.89874245e+00 3.72991854e-12 3.94554418e-13 7.85685266e-17 3.33528555e-12 7.80581159e-15 3.94554418e-13
8.16308998e+00 4.11095835e-12 3.57451415e-13 4.46247404e-17 3.75346231e-12 5.92834221e-15 3.57451415e-13
8.43628443e+00 4.58655988e-12 3.23837494e-13 2.40923949e-17 4.26269829e-12 4.29232422e-15 3.23837494e-13
8.71862190e+00 4.85488186e-12 2.93384550e-13 1.51220676e-17 4.56148219e-12 3.29081713e-15 2.93384550e-13
9.01040836e+00 5.12592747e-12 2.65795332e-13 9.64457544e-18 4.86012249e-12 2.47197152e-15 2.65795332e-13
9.31196005e+00 5.32473391e-12 2.40800541e-13 0.00000000e+00 5.08393337e-12 0.00000000e+00 2.40800541e-13
9.62360379e+00 5.23385620e-12 2.18156204e-13 0.00000000e+00 5.01569999e-12 0.00000000e+00 2.18156204e-13
9.94567731e+00 4.97075672e-12 1.97641289e-13 0.00000000e+00 4.77311543e-12 0.00000000e+00 1.97641289e-13
1.02785297e+01 4.60233666e-12 1.79055550e-13 0.00000000e+00 4.42328111e-12 0.00000000e+00 1.79055550e-13
1.06225216e+01 4.32002892e-12 1.62217572e-13 0.00000000e+00 4.15781134e-12 0.00000000e+00 1.62217572e-13
1.09780260e+01 3.98124986e-12 1.46962999e-13 0.00000000e+00 3.83428687e-12 0.00000000e+00 1.46962999e-13
1.13454280e+01 3.69373690e-12 1.33142932e-13 0.00000000e+00 3.56059396e-12 0.00000000e+00 1.33142932e-13
1.17251259e+01 3.45567320e-12 1.20622472e-13 0.00000000e+00 3.33505073e-12 0.00000000e+00 1.20622472e-13
1.21175312e+01 3.21577244e-12 1.09279408e-13 0.00000000e+00 3.10649303e-12 0.00000000e+00 1.09279408e-13
1.25230691e+01 3.00164908e-12 9.90030204e-14 0.00000000e+00 2.90264606e-12 0.00000000e+00 9.90030204e-14
1.29421791e+01 2.80822855e-12 8.96930008e-14 0.00000000e+00 2.71853555e-12 0.00000000e+00 8.96930008e-14
1.33753155e+01 2.63190158e-12 8.12584743e-14 0.00000000e+00 2.55064310e-12 0.00000000e+00 8.12584743e-14
1.38229477e+01 2.51754221e-12 7.36171115e-14 0.00000000e+00 2.44392510e-12 0.00000000e+00 7.36171115e-14
1.42855609e+01 2.43681973e-12 6.66943252e-14 0.00000000e+00 2.37012540e-12 0.00000000e+00 6.66943252e-14
1.47636563e+01 2.44719995e-12 6.04225420e-14 0.00000000e+00 2.38677741e-12 0.00000000e+00 6.04225420e-14
1.52577522e+01 2.46213437e-12 5.47405431e-14 0.00000000e+00 2.40739382e-12 0.00000000e+00 5.47405431e-14
1.57683840e+01 2.49367300e-12 4.95928665e-14 0.00000000e+00 2.44408013e-12 0.00000000e+00 4.95928665e-14
1.62961051e+01 2.52390899e-12 4.49292657e-14 0.00000000e+00 2.47897972e-12 0.00000000e+00 4.49292657e-14
1.68414875e+01 2.55074157e-12 4.07042194e-14 0.00000000e+00 2.51003735e-12 0.00000000e+00 4.07042194e-14
1.74051222e+01 2.56112229e-12 3.68764869e-14 0.00000000e+00 2.52424580e-12 0.00000000e+00 3.68764869e-14
1.79876201e+01 2.54152614e-12 3.34087056e-14 0.00000000e+00 2.50811743e-12 0.00000000e+00 3.34087056e-14
1.85896125e+01 2.50764600e-12 3.02670267e-14 0.00000000e+00 2.47737898e-12 0.00000000e+00 3.02670267e-14
1.92117518e+01 2.44541020e-12 2.74207841e-14 0.00000000e+00 2.41798942e-12 0.00000000e+00 2.74207841e-14
1.98547123e+01 2.36250280e-12 2.48421957e-14 0.00000000e+00 2.33766061e-12 0.00000000e+00 2.48421957e-14
2.05191907e+01 2.28267764e-12 2.25060919e-14 0.00000000e+00 2.26017155e-12 0.00000000e+00 2.25060919e-14
2.12059073e+01 2.19146224e-12 2.03896700e-14 0.00000000e+00 2.17107257e-12 0.00000000e+00 2.03896700e-14
2.19156062e+01 2.11395646e-12 1.84722717e-14 0.00000000e+00 2.09548419e-12 0.00000000e+00 1.84722717e-14
2.26490567e+01 2.02372528e-12 1.67351811e-14 0.00000000e+00 2.00699010e-12 0.00000000e+00 1.67351811e-14
2.34070535e+01 1.94099432e-12 1.51614426e-14 0.00000000e+00 1.92583288e-12 0.00000000e+00 1.51614426e-14
2.41904183e+01 1.86385088e-12 1.37356949e-14 0.00000000e+00 1.85011519e-12 0.00000000e+00 1.37356949e-14
2.50000000e+01 1.78252367e-12 1.24440213e-14 0.00000000e+00 1.77007965e-12 0.00000000e+00 1.24440213e-14
2.75422870e+01 1.55906314e-12 9.30637977e-15 0.00000000e+00 1.54975676e-12 0.00000000e+00 9.30637977e-15
3.16227766e+01 1.23600989e-12 6.14866414e-15 0.00000000e+00 1.22986123e-12 0.00000000e+00 6.14866414e-15
3.63078055e+01 9.23725985e-13 4.06238211e-15 0.00000000e+00 9.19663602e-13 0.00000000e+00 4.06238211e-15
4.16869383e+01 6.46218735e-13 2.68398924e-15 0.00000000e+00 6.43534746e-13 0.00000000e+00 2.68398924e-15
4.78630092e+01 4.23046663e-13 1.77329411e-15 0.00000000e+00 4.21273369e-13 0.00000000e+00 1.77329411e-15
5.49540874e+01 2.62105132e-13 1.17160380e-15 0.00000000e+00 2.60933529e-13 0.00000000e+00 1.17160380e-15
6.30957344e+01 1.55478440e-13 7.74070953e-16 0.00000000e+00 1.54704369e-13 0.00000000e+00 7.74070953e-16
7.24435960e+01 8.91196618e-14 5.11423607e-16 0.00000000e+00 8.86082382e-14 0.00000000e+00 5.11423607e-16
8.31763771e+01 4.98389982e-14 3.37894226e-16 0.00000000e+00 4.95011040e-14 0.00000000e+00 3.37894226e-16
9.54992586e+01 2.73874519e-14 2.23244502e-16 0.00000000e+00 2.71642074e-14 0.00000000e+00 2.23244502e-16
1.09647820e+02 1.48686595e-14 1.47496179e-16 0.00000000e+00 1.47211634e-14 0.00000000e+00 1.47496179e-16
1.25892541e+02 8.09391024e-15 9.74497594e-17 0.00000000e+00 7.99646048e-15 0.00000000e+00 9.74497594e-17
1.44543977e+02 4.39192711e-15 6.43844175e-17 0.00000000e+00 4.32754269e-15 0.00000000e+00 6.43844175e-17
1.65958691e+02 2.27644608e-15 4.25383628e-17 0.00000000e+00 2.23390771e-15 0.00000000e+00 4.25383628e-17
1.90546072e+02 1.18439096e-15 2.81048176e-17 0.00000000e+00 1.15628614e-15 0.00000000e+00 2.81048176e-17
2.18776162e+02 6.16968352e-16 1.85686688e-17 0.00000000e+00 5.98399683e-16 0.00000000e+00 1.85686688e-17
2.51188643e+02 3.21254210e-16 1.22681978e-17 0.00000000e+00 3.08986012e-16 0.00000000e+00 1.22681978e-17
2.88403150e+02 1.67089664e-16 8.10551794e-18 0.00000000e+00 1.58984146e-16 0.00000000e+00 8.10551794e-18
3.31131121e+02 8.70029407e-17 5.35526259e-18 0.00000000e+00 8.16476781e-17 0.00000000e+00 5.35526259e-18
3.80189396e+02 4.53418707e-17 3.53818691e-18 0.00000000e+00 4.18036838e-17 0.00000000e+00 3.53818691e-18
4.36515832e+02 2.37010468e-17 2.33765691e-18 0.00000000e+00 2.13633899e-17 0.00000000e+00 2.33765691e-18
5.01187234e+02 1.24380084e-17 1.54447460e-18 0.00000000e+00 1.08935338e-17 0.00000000e+00 1.54447460e-18
5.75439937e+02 6.56537507e-18 1.02042425e-18 0.00000000e+00 5.54495082e-18 0.00000000e+00 1.02042425e-18
6.60693448e+02 3.49227429e-18 6.74187617e-19 0.00000000e+00 2.81808667e-18 0.00000000e+00 6.74187617e-19
7.58577575e+02 1.87571163e-18 4.45431341e-19 0.00000000e+00 1.43028029e-18 0.00000000e+00 4.45431341e-19
8.70963590e+02 1.01917903e-18 2.94293569e-19 0.00000000e+00 7.24885457e-19 0.00000000e+00 2.94293569e-19
1.00000000e+03 3.66874665e-19 0.00000000e+00 0.00000000e+00 3.66874665e-19 0.00000000e+00 0.00000000e+00
