# column 1: lambda (micron)
# column 2: total flux; lambda*F_lambda (W/m2)
# column 3: direct stellar flux; lambda*F_lambda (W/m2)
# column 4: scattered stellar flux; lambda*F_lambda (W/m2)
# column 5: total dust emission flux; lambda*F_lambda (W/m2)
# column 6: dust emission scattered flux; lambda*F_lambda (W/m2)
# column 7: transparent flux; lambda*F_lambda (W/m2)
1.00000000e-03 6.93995357e-13 6.93993746e-13 1.61133079e-18 0.00000000e+00 0.00000000e+00 6.93993746e-13
1.14815362e-03 8.19137485e-13 8.19135139e-13 2.34628083e-18 0.00000000e+00 0.00000000e+00 8.19135139e-13
1.31825674e-03 9.66845877e-13 9.66842108e-13 3.76946325e-18 0.00000000e+00 0.00000000e+00 9.66842108e-13
1.51356125e-03 1.14118949e-12 1.14118369e-12 5.80355360e-18 0.00000000e+00 0.00000000e+00 1.14118369e-12
1.73780083e-03 1.34697381e-12 1.34696266e-12 1.11520200e-17 0.00000000e+00 0.00000000e+00 1.34696266e-12
1.99526231e-03 1.58986605e-12 1.58984782e-12 1.82299985e-17 0.00000000e+00 0.00000000e+00 1.58984782e-12
2.29086765e-03 1.87655826e-12 1.87653019e-12 2.80622343e-17 0.00000000e+00 0.00000000e+00 1.87653019e-12
2.63026799e-03 2.21496350e-12 2.21490731e-12 5.61870867e-17 0.00000000e+00 0.00000000e+00 2.21490731e-12
3.01995172e-03 2.61439431e-12 2.61430080e-12 9.35083843e-17 0.00000000e+00 0.00000000e+00 2.61430080e-12
3.46736850e-03 3.08587149e-12 3.08571319e-12 1.58303202e-16 0.00000000e+00 0.00000000e+00 3.08571319e-12
3.98107171e-03 3.64236988e-12 3.64213095e-12 2.38927989e-16 0.00000000e+00 0.00000000e+00 3.64213095e-12
4.57088190e-03 4.29946541e-12 4.29888232e-12 5.83093943e-16 0.00000000e+00 0.00000000e+00 4.29888232e-12
5.24807460e-03 5.07502320e-12 5.07405951e-12 9.63690177e-16 0.00000000e+00 0.00000000e+00 5.07405951e-12
6.02559586e-03 5.99084147e-12 5.98901715e-12 1.82432115e-15 0.00000000e+00 0.00000000e+00 5.98901715e-12
6.91830971e-03 7.07179313e-12 7.06896053e-12 2.83260758e-15 0.00000000e+00 0.00000000e+00 7.06896053e-12
7.94328235e-03 8.34829427e-12 8.34363998e-12 4.65428802e-15 1.39435708e-303 2.57566083e-304 8.34363998e-12
9.12010839e-03 9.85539421e-12 9.84817045e-12 7.22376131e-15 5.49738724e-265 4.64935527e-266 9.84817045e-12
1.04712855e-02 1.10106743e-11 1.09990604e-11 1.16138539e-14 2.37540878e-231 2.17506502e-232 1.09990604e-11
1.20226443e-02 1.10146046e-11 1.09990604e-11 1.55441334e-14 3.75766278e-202 3.37033019e-203 1.09990604e-11
1.38038426e-02 1.10294506e-11 1.09990604e-11 3.03901252e-14 1.07858765e-176 1.42394768e-177 1.09990604e-11
1.58489319e-02 1.10433021e-11 1.09990604e-11 4.42416261e-14 1.41670828e-154 1.45638120e-155 1.09990604e-11
1.81970086e-02 1.10438070e-11 1.09990604e-11 4.47465597e-14 2.62139313e-135 3.49363578e-136 1.09990604e-11
2.08929613e-02 1.10563827e-11 1.09990604e-11 5.73223027e-14 1.32143051e-118 1.32182146e-119 1.09990604e-11
2.39883292e-02 1.10790432e-11 1.09990604e-11 7.99828049e-14 4.72574565e-104 5.61634040e-105 1.09990604e-11
2.75422870e-02 1.10958903e-11 1.09990604e-11 9.68298577e-14 2.09357741e-91 2.36426815e-92 1.09990604e-11
3.16227766e-02 1.11125536e-11 1.09990604e-11 1.13493144e-13 2.02603970e-80 2.23116472e-81 1.09990604e-11
3.63078055e-02 1.11271344e-11 1.09990604e-11 1.28073909e-13 6.93200253e-71 6.97711028e-72 1.09990604e-11
4.16869383e-02 1.11607824e-11 1.09990604e-11 1.61721952e-13 1.31885943e-62 1.37995633e-63 1.09990604e-11
4.78630092e-02 1.11871808e-11 1.09990604e-11 1.88120369e-13 1.94364847e-55 1.98813602e-56 1.09990604e-11
5.49540874e-02 1.12101631e-11 1.09990604e-11 2.11102640e-13 3.14926061e-49 3.14479271e-50 1.09990604e-11
6.30957344e-02 1.12148419e-11 1.09990604e-11 2.15781483e-13 9.62423142e-44 8.89309647e-45 1.09990604e-11
7.24435960e-02 1.11882327e-11 1.09990604e-11 1.89172295e-13 5.27733326e-39 4.08678919e-40 1.09990604e-11
8.31763771e-02 1.11847020e-11 1.09990604e-11 1.85641524e-13 5.43507871e-35 4.18164883e-36 1.09990604e-11
9.54992586e-02 1.11867124e-11 1.09990604e-11 1.87651952e-13 1.55411604e-31 1.23231528e-32 1.09990604e-11
1.09647820e-01 1.07082838e-11 1.05040253e-11 2.04258520e-13 1.37577019e-28 1.22661826e-29 1.05040253e-11
1.25892541e-01 1.00010278e-11 9.80292679e-12 1.98101010e-13 4.66018622e-26 4.44845124e-27 9.80292679e-12
1.44543977e-01 9.33589766e-12 9.14862359e-12 1.87274065e-13 6.58456822e-24 6.35040244e-25 9.14862359e-12
1.65958691e-01 8.73053823e-12 8.53799231e-12 1.92545912e-13 3.45638476e-22 3.61794362e-23 8.53799231e-12
1.90546072e-01 8.17406326e-12 7.96811805e-12 2.05945206e-13 7.20635111e-21 8.32054133e-22 7.96811805e-12
2.18776162e-01 7.62624044e-12 7.43628044e-12 1.89959920e-13 8.18630821e-20 8.80013765e-21 7.43628044e-12
2.51188643e-01 7.15883387e-12 6.93994070e-12 2.18892120e-13 1.04695865e-18 1.37640516e-19 6.93994070e-12
2.88403150e-01 6.68413477e-12 6.47672950e-12 2.07396225e-13 9.04033542e-18 1.21999289e-18 6.47672950e-12
3.31131121e-01 6.24369950e-12 6.04443567e-12 1.99210470e-13 5.33693533e-17 7.00707096e-18 6.04443567e-12
3.80189396e-01 5.81740885e-12 5.64099558e-12 1.76185391e-13 2.27881005e-16 2.94111443e-17 5.64099558e-12
4.36515832e-01 5.42997044e-12 5.26448339e-12 1.64742785e-13 7.44265988e-16 9.49306959e-17 5.26448339e-12
5.01187234e-01 5.06941241e-12 4.91310176e-12 1.54353882e-13 1.95676516e-15 2.52444154e-16 4.91310176e-12
5.75439937e-01 4.73709735e-12 4.58517335e-12 1.47412891e-13 4.51110847e-15 6.38992292e-16 4.58517335e-12
6.60693448e-01 4.41930893e-12 4.27913275e-12 1.30255800e-13 9.92038473e-15 1.61706106e-15 4.27913275e-12
7.58577575e-01 4.13626089e-12 3.99351904e-12 1.20043984e-13 2.26978633e-14 4.38588454e-15 3.99351904e-12
8.70963590e-01 3.88442096e-12 3.72696882e-12 1.04000690e-13 5.34514545e-14 1.12866866e-14 3.72696882e-12
1.00000000e+00 3.69083069e-12 3.47820968e-12 9.11200178e-14 1.21500994e-13 2.58937867e-14 3.47820968e-12
1.14815362e+00 3.58260278e-12 3.24605414e-12 7.72761135e-14 2.59272523e-13 5.21485207e-14 3.24605414e-12
1.31825674e+00 3.60148779e-12 3.02939399e-12 6.38778453e-14 5.08215954e-13 9.14761642e-14 3.02939399e-12
1.51356125e+00 3.78483795e-12 2.82719497e-12 4.77269913e-14 9.09915992e-13 1.41407488e-13 2.82719497e-12
1.73780083e+00 4.11691857e-12 2.63849186e-12 3.68041794e-14 1.44162253e-12 1.85397582e-13 2.63849186e-12
1.99526231e+00 4.53935235e-12 2.46238388e-12 2.82114404e-14 2.04875703e-12 2.12101104e-13 2.46238388e-12
2.29086765e+00 4.97944682e-12 2.29803035e-12 2.03898429e-14 2.66102663e-12 2.13696971e-13 2.29803035e-12
2.63026799e+00 5.33479571e-12 2.14464670e-12 1.43940902e-14 3.17575491e-12 1.97380720e-13 2.14464670e-12
3.01995172e+00 5.55280912e-12 2.00150076e-12 1.05386774e-14 3.54076968e-12 1.69178541e-13 2.00150076e-12
3.46736850e+00 5.61487955e-12 1.86790919e-12 7.47293387e-15 3.73949743e-12 1.35365266e-13 1.86790919e-12
3.98107171e+00 5.52807003e-12 1.74323429e-12 5.12039057e-15 3.77971536e-12 1.02158827e-13 1.74323429e-12
4.57088190e+00 5.30904636e-12 1.62688090e-12 3.45881493e-15 3.67870665e-12 7.21438069e-14 1.62688090e-12
5.24807460e+00 4.84893606e-12 1.34518114e-12 1.99689750e-15 3.50175802e-12 4.72087518e-14 1.34518114e-12
6.02559586e+00 4.15894260e-12 8.88752369e-13 8.84109890e-16 3.26930612e-12 2.95619599e-14 8.88752369e-13
6.70000000e+00 3.72960764e-12 6.46481889e-13 4.57869039e-16 3.08266788e-12 1.96148200e-14 6.46481889e-13
6.92422916e+00 3.60404992e-12 5.85688198e-13 3.67300965e-16 3.01799442e-12 1.70110913e-14 5.85688198e-13
7.15596261e+00 3.49724419e-12 5.30611407e-13 2.92656192e-16 2.96634012e-12 1.47557833e-14 5.30611407e-13
7.39545150e+00 3.46529749e-12 4.80713913e-13 2.22326948e-16 2.98436125e-12 1.25134114e-14 4.80713913e-13
7.64295536e+00 3.57879745e-12 4.35508666e-13 1.54843012e-16 3.14313394e-12 1.03816032e-14 4.35508666e-13
7.89874245e+00 3.89859141e-12 3.94554418e-13 9.34704894e-17 3.50394352e-12 8.18847145e-15 3.94554418e-13
8.16308998e+00 4.34655007e-12 3.57451415e-13 5.39688330e-17 3.98904469e-12 6.31488841e-15 3.57451415e-13
8.43628443e+00 4.91983005e-12 3.23837494e-13 2.96383492e-17 4.59596291e-12 4.71399100e-15 3.23837494e-13
8.71862190e+00 5.28420501e-12 2.93384550e-13 1.86254091e-17 4.99080183e-12 3.65380827e-15 2.93384550e-13
9.01040836e+00 5.60152646e-12 2.65795332e-13 1.21901212e-17 5.33571894e-12 2.77999461e-15 2.65795332e-13
9.31196005e+00 5.82200923e-12 2.40800541e-13 0.00000000e+00 5.58120869e-12 0.00000000e+00 2.40800541e-13
9.62360379e+00 5.71038673e-12 2.18156204e-13 0.00000000e+00 5.49223053e-12 0.00000000e+00 2.18156204e-13
9.94567731e+00 5.38902322e-12 1.97641289e-13 0.00000000e+00 5.19138193e-12 0.00000000e+00 1.97641289e-13
1.02785297e+01 5.03520321e-12 1.79055550e-13 0.00000000e+00 4.85614766e-12 0.00000000e+00 1.79055550e-13
1.06225216e+01 4.66672352e-12 1.62217572e-13 0.00000000e+00 4.50450595e-12 0.00000000e+00 1.62217572e-13
1.09780260e+01 4.29237756e-12 1.46962999e-13 0.00000000e+00 4.14541456e-12 0.00000000e+00 1.46962999e-13
1.13454280e+01 3.96617383e-12 1.33142932e-13 0.00000000e+00 3.83303090e-12 0.00000000e+00 1.33142932e-13
1.17251259e+01 3.68023301e-12 1.20622472e-13 0.00000000e+00 3.55961053e-12 0.00000000e+00 1.20622472e-13
1.21175312e+01 3.41111889e-12 1.09279408e-13 0.00000000e+00 3.30183948e-12 0.00000000e+00 1.09279408e-13
1.25230691e+01 3.18111684e-12 9.90030204e-14 0.00000000e+00 3.08211382e-12 0.00000000e+00 9.90030204e-14
1.29421791e+01 2.95896879e-12 8.96930008e-14 0.00000000e+00 2.86927579e-12 0.00000000e+00 8.96930008e-14
1.33753155e+01 2.76857637e-12 8.12584743e-14 0.00000000e+00 2.68731790e-12 0.00000000e+00 8.12584743e-14
1.38229477e+01 2.65107456e-12 7.36171115e-14 0.00000000e+00 2.57745745e-12 0.00000000e+00 7.36171115e-14
1.42855609e+01 2.57495715e-12 6.66943252e-14 0.00000000e+00 2.50826282e-12 0.00000000e+00 6.66943252e-14
1.47636563e+01 2.59908174e-12 6.04225420e-14 0.00000000e+00 2.53865920e-12 0.00000000e+00 6.04225420e-14
1.52577522e+01 2.63771723e-12 5.47405431e-14 0.00000000e+00 2.58297669e-12 0.00000000e+00 5.47405431e-14
1.57683840e+01 2.70527256e-12 4.95928665e-14 0.00000000e+00 2.65567970e-12 0.00000000e+00 4.95928665e-14
1.62961051e+01 2.76094484e-12 4.49292657e-14 0.00000000e+00 2.71601558e-12 0.00000000e+00 4.49292657e-14
1.68414875e+01 2.81217227e-12 4.07042194e-14 0.00000000e+00 2.77146805e-12 0.00000000e+00 4.07042194e-14
1.74051222e+01 2.86003419e-12 3.68764869e-14 0.00000000e+00 2.82315770e-12 0.00000000e+00 3.68764869e-14
1.79876201e+01 2.86506736e-12 3.34087056e-14 0.00000000e+00 2.83165866e-12 0.00000000e+00 3.34087056e-14
1.85896125e+01 2.85386575e-12 3.02670267e-14 0.00000000e+00 2.82359872e-12 0.00000000e+00 3.02670267e-14
1.92117518e+01 2.80835674e-12 2.74207841e-14 0.00000000e+00 2.78093595e-12 0.00000000e+00 2.74207841e-14
1.98547123e+01 2.74642595e-12 2.48421957e-14 0.00000000e+00 2.72158375e-12 0.00000000e+00 2.48421957e-14
2.05191907e+01 2.67165931e-12 2.25060919e-14 0.00000000e+00 2.64915322e-12 0.00000000e+00 2.25060919e-14
2.12059073e+01 2.60848747e-12 2.03896700e-14 0.00000000e+00 2.58809780e-12 0.00000000e+00 2.03896700e-14
2.19156062e+01 2.54321224e-12 1.84722717e-14 0.00000000e+00 2.52473997e-12 0.00000000e+00 1.84722717e-14
2.26490567e+01 2.47110164e-12 1.67351811e-14 0.00000000e+00 2.45436646e-12 0.00000000e+00 1.67351811e-14
2.34070535e+01 2.41419895e-12 1.51614426e-14 0.00000000e+00 2.39903751e-12 0.00000000e+00 1.51614426e-14
2.41904183e+01 2.34977509e-12 1.37356949e-14 0.00000000e+00 2.33603940e-12 0.00000000e+00 1.37356949e-14
2.50000000e+01 2.28164487e-12 1.24440213e-14 0.00000000e+00 2.26920084e-12 0.00000000e+00 1.24440213e-14
2.75422870e+01 2.07976530e-12 9.30637977e-15 0.00000000e+00 2.07045892e-12 0.00000000e+00 9.30637977e-15
3.16227766e+01 1.76213854e-12 6.14866414e-15 0.00000000e+00 1.75598988e-12 0.00000000e+00 6.14866414e-15
3.63078055e+01 1.40717218e-12 4.06238211e-15 0.00000000e+00 1.40310980e-12 0.00000000e+00 4.06238211e-15
4.16869383e+01 1.04766915e-12 2.68398924e-15 0.00000000e+00 1.04498516e-12 0.00000000e+00 2.68398924e-15
4.78630092e+01 7.25769782e-13 1.77329411e-15 0.00000000e+00 7.23996488e-13 0.00000000e+00 1.77329411e-15
5.49540874e+01 4.73581910e-13 1.17160380e-15 0.00000000e+00 4.72410307e-13 0.00000000e+00 1.17160380e-15
6.30957344e+01 2.94617864e-13 7.74070953e-16 0.00000000e+00 2.93843793e-13 0.00000000e+00 7.74070953e-16
7.24435960e+01 1.76041726e-13 5.11423607e-16 0.00000000e+00 1.75530302e-13 0.00000000e+00 5.11423607e-16
8.31763771e+01 1.02098292e-13 3.37894226e-16 0.00000000e+00 1.01760398e-13 0.00000000e+00 3.37894226e-16
9.54992586e+01 5.79428715e-14 2.23244502e-16 0.00000000e+00 5.77196270e-14 0.00000000e+00 2.23244502e-16
1.09647820e+02 3.23506329e-14 1.47496179e-16 0.00000000e+00 3.22031368e-14 0.00000000e+00 1.47496179e-16
1.25892541e+02 1.80313287e-14 9.74497594e-17 0.00000000e+00 1.79338789e-14 0.00000000e+00 9.74497594e-17
1.44543977e+02 9.97925791e-15 6.43844175e-17 0.00000000e+00 9.91487349e-15 0.00000000e+00 6.43844175e-17
1.65958691e+02 5.26126915e-15 4.25383628e-17 0.00000000e+00 5.21873079e-15 0.00000000e+00 4.25383628e-17
1.90546072e+02 2.77432342e-15 2.81048176e-17 0.00000000e+00 2.74621860e-15 0.00000000e+00 2.81048176e-17
2.18776162e+02 1.46018364e-15 1.85686688e-17 0.00000000e+00 1.44161497e-15 0.00000000e+00 1.85686688e-17
2.51188643e+02 7.65895630e-16 1.22681978e-17 0.00000000e+00 7.53627432e-16 0.00000000e+00 1.22681978e-17
2.88403150e+02 4.00010067e-16 8.10551794e-18 0.00000000e+00 3.91904549e-16 0.00000000e+00 8.10551794e-18
3.31131121e+02 2.08470092e-16 5.35526259e-18 0.00000000e+00 2.03114830e-16 0.00000000e+00 5.35526259e-18
3.80189396e+02 1.08355686e-16 3.53818691e-18 0.00000000e+00 1.04817499e-16 0.00000000e+00 3.53818691e-18
4.36515832e+02 5.62694314e-17 2.33765691e-18 0.00000000e+00 5.39317745e-17 0.00000000e+00 2.33765691e-18
5.01187234e+02 2.92077160e-17 1.54447460e-18 0.00000000e+00 2.76632414e-17 0.00000000e+00 1.54447460e-18
5.75439937e+02 1.51730772e-17 1.02042425e-18 0.00000000e+00 1.41526529e-17 0.00000000e+00 1.02042425e-18
6.60693448e+02 7.89873681e-18 6.74187617e-19 0.00000000e+00 7.22454919e-18 0.00000000e+00 6.74187617e-19
7.58577575e+02 4.12613588e-18 4.45431341e-19 0.00000000e+00 3.68070454e-18 0.00000000e+00 4.45431341e-19
8.70963590e+02 2.16586455e-18 2.94293569e-19 0.00000000e+00 1.87157098e-18 0.00000000e+00 2.94293569e-19
1.00000000e+03 9.49933531e-19 0.00000000e+00 0.00000000e+00 9.49933531e-19 0.00000000e+00 0.00000000e+00
