# column 1: lambda (micron)
# column 2: total flux; lambda*F_lambda (W/m2)
# column 3: direct stellar flux; lambda*F_lambda (W/m2)
# column 4: scattered stellar flux; lambda*F_lambda (W/m2)
# column 5: total dust emission flux; lambda*F_lambda (W/m2)
# column 6: dust emission scattered flux; lambda*F_lambda (W/m2)
# column 7: transparent flux; lambda*F_lambda (W/m2)
1.00000000e-03 6.93223579e-13 6.93223461e-13 1.18458679e-19 0.00000000e+00 0.00000000e+00 6.93993746e-13
1.14815362e-03 8.17934376e-13 8.17934178e-13 1.98059370e-19 0.00000000e+00 0.00000000e+00 8.19135139e-13
1.31825674e-03 9.65040513e-13 9.65040209e-13 3.03733627e-19 0.00000000e+00 0.00000000e+00 9.66842108e-13
1.51356125e-03 1.13867725e-12 1.13867666e-12 5.88620826e-19 0.00000000e+00 0.00000000e+00 1.14118369e-12
1.73780083e-03 1.34400457e-12 1.34397301e-12 3.15639254e-17 0.00000000e+00 0.00000000e+00 1.34696266e-12
1.99526231e-03 1.58541769e-12 1.58517100e-12 2.46689790e-16 0.00000000e+00 0.00000000e+00 1.58984782e-12
2.29086765e-03 1.87767976e-12 1.87067701e-12 7.00274996e-15 0.00000000e+00 0.00000000e+00 1.87653019e-12
2.63026799e-03 2.20676497e-12 2.20663087e-12 1.34104457e-16 0.00000000e+00 0.00000000e+00 2.21490731e-12
3.01995172e-03 2.60241268e-12 2.60222420e-12 1.88481083e-16 0.00000000e+00 0.00000000e+00 2.61430080e-12
3.46736850e-03 3.06927195e-12 3.06891905e-12 3.52906938e-16 0.00000000e+00 0.00000000e+00 3.08571319e-12
3.98107171e-03 3.61997185e-12 3.61944987e-12 5.21975745e-16 0.00000000e+00 0.00000000e+00 3.64213095e-12
4.57088190e-03 4.28148420e-12 4.28100629e-12 4.77907703e-16 0.00000000e+00 0.00000000e+00 4.29888232e-12
5.24807460e-03 5.04832374e-12 5.04712605e-12 1.19768436e-15 0.00000000e+00 0.00000000e+00 5.07405951e-12
6.02559586e-03 5.95686992e-12 5.95070722e-12 6.16269387e-15 0.00000000e+00 0.00000000e+00 5.98901715e-12
6.91830971e-03 7.02230531e-12 7.01679872e-12 5.50659656e-15 0.00000000e+00 0.00000000e+00 7.06896053e-12
7.94328235e-03 8.28410207e-12 8.27498069e-12 9.12137990e-15 2.11415941e-303 4.98903148e-305 8.34363998e-12
9.12010839e-03 9.78616820e-12 9.75828126e-12 2.78869393e-14 1.09090040e-264 8.86331620e-266 9.84817045e-12
1.04712855e-02 1.09359597e-11 1.08922865e-11 4.36732258e-14 5.18610601e-231 5.29945625e-232 1.09990604e-11
1.20226443e-02 1.09201302e-11 1.08860174e-11 3.41127961e-14 8.71162784e-202 8.29238399e-203 1.09990604e-11
1.38038426e-02 1.09070508e-11 1.08785862e-11 2.84645352e-14 2.56268137e-176 2.67677304e-177 1.09990604e-11
1.58489319e-02 1.09120716e-11 1.08694608e-11 4.26107271e-14 3.64719956e-154 3.63248868e-155 1.09990604e-11
1.81970086e-02 1.08949263e-11 1.08610511e-11 3.38752264e-14 6.84135769e-135 6.97178042e-136 1.09990604e-11
2.08929613e-02 1.08921785e-11 1.08540657e-11 3.81128017e-14 3.64642650e-118 2.96453599e-119 1.09990604e-11
2.39883292e-02 1.08843364e-11 1.08450217e-11 3.93147069e-14 1.32162228e-103 1.07644486e-104 1.09990604e-11
2.75422870e-02 1.08775266e-11 1.08345115e-11 4.30151396e-14 6.06877090e-91 4.88551330e-92 1.09990604e-11
3.16227766e-02 1.08708832e-11 1.08242190e-11 4.66642098e-14 6.05545570e-80 4.93468546e-81 1.09990604e-11
3.63078055e-02 1.08628380e-11 1.08161530e-11 4.66850525e-14 2.13672825e-70 1.66253011e-71 1.09990604e-11
4.16869383e-02 1.08629887e-11 1.08091813e-11 5.38073377e-14 4.16440965e-62 3.62555921e-63 1.09990604e-11
4.78630092e-02 1.08511578e-11 1.07899873e-11 6.11705129e-14 6.29785286e-55 5.60683620e-56 1.09990604e-11
5.49540874e-02 1.08327676e-11 1.07633511e-11 6.94165510e-14 1.04560585e-48 9.52661495e-50 1.09990604e-11
6.30957344e-02 1.07757733e-11 1.06968495e-11 7.89237850e-14 3.27976133e-43 2.77026671e-44 1.09990604e-11
7.24435960e-02 1.06982551e-11 1.06186090e-11 7.96461963e-14 1.84916435e-38 1.34406003e-39 1.09990604e-11
8.31763771e-02 1.07028687e-11 1.06255480e-11 7.73207355e-14 1.91313325e-34 1.34345329e-35 1.09990604e-11
9.54992586e-02 1.07206316e-11 1.06459258e-11 7.47058016e-14 5.51367252e-31 4.05390746e-32 1.09990604e-11
1.09647820e-01 1.02969336e-11 1.02230915e-11 7.38421221e-14 4.85981640e-28 4.06569645e-29 1.05040253e-11
1.25892541e-01 9.65104432e-12 9.58659439e-12 6.44499331e-14 1.64560991e-25 1.48379949e-26 9.80292679e-12
1.44543977e-01 9.03734698e-12 8.98096509e-12 5.63818943e-14 2.32527691e-23 2.10290180e-24 9.14862359e-12
1.65958691e-01 8.45721547e-12 8.40099484e-12 5.62206243e-14 1.20821442e-21 1.18474540e-22 8.53799231e-12
1.90546072e-01 7.89224201e-12 7.83179114e-12 6.04508526e-14 2.55122311e-20 2.82816424e-21 7.96811805e-12
2.18776162e-01 7.34781814e-12 7.28726055e-12 6.05573020e-14 2.93975006e-19 3.13705553e-20 7.43628044e-12
2.51188643e-01 6.89243292e-12 6.82849315e-12 6.39360473e-14 3.71969110e-18 4.80545087e-19 6.93994070e-12
2.88403150e-01 6.44712800e-12 6.39025875e-12 5.68373525e-14 3.18999785e-17 4.11214567e-18 6.47672950e-12
3.31131121e-01 6.02272271e-12 5.97402785e-12 4.85082635e-14 1.86592308e-16 2.33181486e-17 6.04443567e-12
3.80189396e-01 5.62920195e-12 5.58325244e-12 4.51593715e-14 7.90139893e-16 9.57674057e-17 5.64099558e-12
4.36515832e-01 5.25873536e-12 5.21755172e-12 3.86473522e-14 2.53628819e-15 2.99682974e-16 5.26448339e-12
5.01187234e-01 4.91744286e-12 4.87547463e-12 3.55549191e-14 6.41330349e-15 7.30420429e-16 4.91310176e-12
5.75439937e-01 4.59880905e-12 4.55531869e-12 3.01383575e-14 1.33519971e-14 1.46587776e-15 4.58517335e-12
6.60693448e-01 4.30768622e-12 4.25565129e-12 2.84412204e-14 2.35937154e-14 2.46793817e-15 4.27913275e-12
7.58577575e-01 4.03742616e-12 3.97527562e-12 2.50018804e-14 3.71486673e-14 3.72945725e-15 3.99351904e-12
8.70963590e-01 3.78761608e-12 3.71310942e-12 2.13574381e-14 5.31492188e-14 4.93605745e-15 3.72696882e-12
1.00000000e+00 3.55688939e-12 3.46785139e-12 1.80883489e-14 7.09496553e-14 6.13955616e-15 3.47820968e-12
1.14815362e+00 3.34585887e-12 3.23845044e-12 1.50261639e-14 9.23822621e-14 7.25682664e-15 3.24605414e-12
1.31825674e+00 3.15667505e-12 3.02390960e-12 1.14009641e-14 1.21364485e-13 8.59516489e-15 3.02939399e-12
1.51356125e+00 2.99342215e-12 2.82327934e-12 8.90930750e-15 1.61233503e-13 1.01058678e-14 2.82719497e-12
1.73780083e+00 2.85548821e-12 2.63574183e-12 6.48479624e-15 2.13261576e-13 1.13649758e-14 2.63849186e-12
1.99526231e+00 2.73903628e-12 2.46048284e-12 4.63672363e-15 2.73916717e-13 1.18456562e-14 2.46238388e-12
2.29086765e+00 2.63470433e-12 2.29672032e-12 3.32236979e-15 3.34661643e-13 1.13805211e-14 2.29803035e-12
2.63026799e+00 2.53177132e-12 2.14373551e-12 2.21444580e-15 3.85821364e-13 1.01537173e-14 2.14464670e-12
3.01995172e+00 2.42127677e-12 2.00085884e-12 1.42573334e-15 4.18992197e-13 8.41966005e-15 2.00150076e-12
3.46736850e+00 2.30076573e-12 1.86744959e-12 9.52253197e-16 4.32363884e-13 6.55654399e-15 1.86790919e-12
3.98107171e+00 2.16764843e-12 1.74290102e-12 6.71795703e-16 4.24075608e-13 4.77219610e-15 1.74323429e-12
4.57088190e+00 2.02637584e-12 1.62663595e-12 4.35119076e-16 3.99304775e-13 3.23424339e-15 1.62688090e-12
5.24807460e+00 1.70991522e-12 1.34501844e-12 2.33035227e-16 3.64663746e-13 2.04803664e-15 1.34518114e-12
6.02559586e+00 1.21590115e-12 8.88663037e-13 9.99467382e-17 3.27138167e-13 1.24374815e-15 8.88752369e-13
6.70000000e+00 9.43881140e-13 6.46424373e-13 5.40018695e-17 2.97402765e-13 7.92830930e-16 6.46481889e-13
6.92422916e+00 8.73871521e-13 5.85637916e-13 4.11794727e-17 2.88192425e-13 6.84789373e-16 5.85688198e-13
7.15596261e+00 8.12651458e-13 5.30566650e-13 3.39414678e-17 2.82050866e-13 5.84075404e-16 5.30611407e-13
7.39545150e+00 7.63995820e-13 4.80672396e-13 2.53105590e-17 2.83298113e-13 4.97404251e-16 4.80713913e-13
7.64295536e+00 7.41414654e-13 4.35465812e-13 1.75523042e-17 3.05931290e-13 4.20415708e-16 4.35508666e-13
7.89874245e+00 7.55817259e-13 3.94504257e-13 1.08808533e-17 3.61302121e-13 3.47105584e-16 3.94554418e-13
8.16308998e+00 8.00123296e-13 3.57390054e-13 6.64613752e-18 4.42726596e-13 2.83040319e-16 3.57451415e-13
8.43628443e+00 8.81667987e-13 3.23760263e-13 3.80532744e-18 5.57903919e-13 2.22257977e-16 3.23837494e-13
8.71862190e+00 9.33959596e-13 2.93298580e-13 2.47687231e-18 6.40658539e-13 1.75411691e-16 2.93384550e-13
9.01040836e+00 9.89126107e-13 2.65700983e-13 1.67267115e-18 7.23423451e-13 1.33593590e-16 2.65795332e-13
9.31196005e+00 1.03022902e-12 2.40701405e-13 0.00000000e+00 7.89527618e-13 0.00000000e+00 2.40800541e-13
9.62360379e+00 1.00135099e-12 2.18064025e-13 0.00000000e+00 7.83286966e-13 0.00000000e+00 2.18156204e-13
9.94567731e+00 9.19484149e-13 1.97562930e-13 0.00000000e+00 7.21921219e-13 0.00000000e+00 1.97641289e-13
1.02785297e+01 8.29580733e-13 1.78991327e-13 0.00000000e+00 6.50589406e-13 0.00000000e+00 1.79055550e-13
1.06225216e+01 7.42435644e-13 1.62165499e-13 0.00000000e+00 5.80270145e-13 0.00000000e+00 1.62217572e-13
1.09780260e+01 6.52783944e-13 1.46922300e-13 0.00000000e+00 5.05861643e-13 0.00000000e+00 1.46962999e-13
1.13454280e+01 5.75288460e-13 1.33110995e-13 0.00000000e+00 4.42177465e-13 0.00000000e+00 1.33142932e-13
1.17251259e+01 5.09216308e-13 1.20597250e-13 0.00000000e+00 3.88619058e-13 0.00000000e+00 1.20622472e-13
1.21175312e+01 4.51067898e-13 1.09259591e-13 0.00000000e+00 3.41808306e-13 0.00000000e+00 1.09279408e-13
1.25230691e+01 3.99688822e-13 9.89874929e-14 0.00000000e+00 3.00701330e-13 0.00000000e+00 9.90030204e-14
1.29421791e+01 3.55616010e-13 8.96807490e-14 0.00000000e+00 2.65935261e-13 0.00000000e+00 8.96930008e-14
1.33753155e+01 3.18496244e-13 8.12487381e-14 0.00000000e+00 2.37247506e-13 0.00000000e+00 8.12584743e-14
1.38229477e+01 2.92604122e-13 7.36090174e-14 0.00000000e+00 2.18995105e-13 0.00000000e+00 7.36171115e-14
1.42855609e+01 2.74950140e-13 6.66872904e-14 0.00000000e+00 2.08262850e-13 0.00000000e+00 6.66943252e-14
1.47636563e+01 2.70772145e-13 6.04158654e-14 0.00000000e+00 2.10356280e-13 0.00000000e+00 6.04225420e-14
1.52577522e+01 2.69787880e-13 5.47340920e-14 0.00000000e+00 2.15053788e-13 0.00000000e+00 5.47405431e-14
1.57683840e+01 2.71015963e-13 4.95865533e-14 0.00000000e+00 2.21429409e-13 0.00000000e+00 4.95928665e-14
1.62961051e+01 2.73532737e-13 4.49230949e-14 0.00000000e+00 2.28609642e-13 0.00000000e+00 4.49292657e-14
1.68414875e+01 2.76141269e-13 4.06982013e-14 0.00000000e+00 2.35443068e-13 0.00000000e+00 4.07042194e-14
1.74051222e+01 2.74851559e-13 3.68707719e-14 0.00000000e+00 2.37980787e-13 0.00000000e+00 3.68764869e-14
1.79876201e+01 2.72061954e-13 3.34033696e-14 0.00000000e+00 2.38658584e-13 0.00000000e+00 3.34087056e-14
1.85896125e+01 2.64725387e-13 3.02621987e-14 0.00000000e+00 2.34463189e-13 0.00000000e+00 3.02670267e-14
1.92117518e+01 2.53529977e-13 2.74165433e-14 0.00000000e+00 2.26113433e-13 0.00000000e+00 2.74207841e-14
1.98547123e+01 2.40365225e-13 2.48385434e-14 0.00000000e+00 2.15526681e-13 0.00000000e+00 2.48421957e-14
2.05191907e+01 2.27473527e-13 2.25029782e-14 0.00000000e+00 2.04970548e-13 0.00000000e+00 2.25060919e-14
2.12059073e+01 2.14817381e-13 2.03870159e-14 0.00000000e+00 1.94430365e-13 0.00000000e+00 2.03896700e-14
2.19156062e+01 2.04057397e-13 1.84699982e-14 0.00000000e+00 1.85587398e-13 0.00000000e+00 1.84722717e-14
2.26490567e+01 1.94388249e-13 1.67332306e-14 0.00000000e+00 1.77655018e-13 0.00000000e+00 1.67351811e-14
2.34070535e+01 1.85553479e-13 1.51597661e-14 0.00000000e+00 1.70393713e-13 0.00000000e+00 1.51614426e-14
2.41904183e+01 1.77290930e-13 1.37342503e-14 0.00000000e+00 1.63556680e-13 0.00000000e+00 1.37356949e-14
2.50000000e+01 1.70126950e-13 1.24427738e-14 0.00000000e+00 1.57684176e-13 0.00000000e+00 1.24440213e-14
2.75422870e+01 1.50432086e-13 9.30556623e-15 0.00000000e+00 1.41126520e-13 0.00000000e+00 9.30637977e-15
3.16227766e+01 1.26026314e-13 6.14821717e-15 0.00000000e+00 1.19878097e-13 0.00000000e+00 6.14866414e-15
3.63078055e+01 1.02324030e-13 4.06213783e-15 0.00000000e+00 9.82618919e-14 0.00000000e+00 4.06238211e-15
4.16869383e+01 7.90468352e-14 2.68385927e-15 0.00000000e+00 7.63629760e-14 0.00000000e+00 2.68398924e-15
4.78630092e+01 5.78256132e-14 1.77322710e-15 0.00000000e+00 5.60523861e-14 0.00000000e+00 1.77329411e-15
5.49540874e+01 4.02856495e-14 1.17156999e-15 0.00000000e+00 3.91140795e-14 0.00000000e+00 1.17160380e-15
6.30957344e+01 2.69335572e-14 7.74054112e-16 0.00000000e+00 2.61595031e-14 0.00000000e+00 7.74070953e-16
7.24435960e+01 1.73653754e-14 5.11415278e-16 0.00000000e+00 1.68539601e-14 0.00000000e+00 5.11423607e-16
8.31763771e+01 1.08700169e-14 3.37890114e-16 0.00000000e+00 1.05321268e-14 0.00000000e+00 3.37894226e-16
9.54992586e+01 6.63643401e-15 2.23242466e-16 0.00000000e+00 6.41319155e-15 0.00000000e+00 2.23244502e-16
1.09647820e+02 3.96767165e-15 1.47495168e-16 0.00000000e+00 3.82017648e-15 0.00000000e+00 1.47496179e-16
1.25892541e+02 2.35419656e-15 9.74492497e-17 0.00000000e+00 2.25674731e-15 0.00000000e+00 9.74497594e-17
1.44543977e+02 1.37992186e-15 6.43841587e-17 0.00000000e+00 1.31553771e-15 0.00000000e+00 6.43844175e-17
1.65958691e+02 7.68091946e-16 4.25382359e-17 0.00000000e+00 7.25553710e-16 0.00000000e+00 4.25383628e-17
1.90546072e+02 4.25898295e-16 2.81047548e-17 0.00000000e+00 3.97793540e-16 0.00000000e+00 2.81048176e-17
2.18776162e+02 2.34983231e-16 1.85686375e-17 0.00000000e+00 2.16414593e-16 0.00000000e+00 1.85686688e-17
2.51188643e+02 1.28967971e-16 1.22681822e-17 0.00000000e+00 1.16699789e-16 0.00000000e+00 1.22681978e-17
2.88403150e+02 7.04416566e-17 8.10551011e-18 0.00000000e+00 6.23361465e-17 0.00000000e+00 8.10551794e-18
3.31131121e+02 3.84219894e-17 5.35525867e-18 0.00000000e+00 3.30667307e-17 0.00000000e+00 5.35526259e-18
3.80189396e+02 2.09481748e-17 3.53818494e-18 0.00000000e+00 1.74099899e-17 0.00000000e+00 3.53818691e-18
4.36515832e+02 1.14524994e-17 2.33765592e-18 0.00000000e+00 9.11484347e-18 0.00000000e+00 2.33765691e-18
5.01187234e+02 6.29032958e-18 1.54447411e-18 0.00000000e+00 4.74585547e-18 0.00000000e+00 1.54447460e-18
5.75439937e+02 3.48009449e-18 1.02042400e-18 0.00000000e+00 2.45967049e-18 0.00000000e+00 1.02042425e-18
6.60693448e+02 1.94391511e-18 6.74187491e-19 0.00000000e+00 1.26972762e-18 0.00000000e+00 6.74187617e-19
7.58577575e+02 1.09862201e-18 4.45431278e-19 0.00000000e+00 6.53190732e-19 0.00000000e+00 4.45431341e-19
8.70963590e+02 6.29227399e-19 2.94293537e-19 0.00000000e+00 3.34933862e-19 0.00000000e+00 2.94293569e-19
1.00000000e+03 1.71239292e-19 0.00000000e+00 0.00000000e+00 1.71239292e-19 0.00000000e+00 0.00000000e+00
