# column 1: lambda (micron)
# column 2: total flux; lambda*F_lambda (W/m2)
# column 3: direct stellar flux; lambda*F_lambda (W/m2)
# column 4: scattered stellar flux; lambda*F_lambda (W/m2)
# column 5: total dust emission flux; lambda*F_lambda (W/m2)
# column 6: dust emission scattered flux; lambda*F_lambda (W/m2)
# column 7: transparent flux; lambda*F_lambda (W/m2)
1.00000000e-03 1.04449500e-12 1.04448048e-12 1.45214074e-17 0.00000000e+00 0.00000000e+00 1.04634360e-12
1.14815362e-03 1.23214574e-12 1.23211644e-12 2.93029150e-17 0.00000000e+00 0.00000000e+00 1.23502095e-12
1.31825674e-03 1.45340395e-12 1.45336337e-12 4.05859440e-17 0.00000000e+00 0.00000000e+00 1.45772071e-12
1.51356125e-03 1.71477020e-12 1.71451595e-12 2.54251549e-16 0.00000000e+00 0.00000000e+00 1.72057784e-12
1.73780083e-03 2.02373852e-12 2.02360474e-12 1.33779238e-16 0.00000000e+00 0.00000000e+00 2.03083353e-12
1.99526231e-03 2.40031463e-12 2.38572893e-12 1.45857050e-14 0.00000000e+00 0.00000000e+00 2.39703472e-12
2.29086765e-03 2.81559291e-12 2.81512077e-12 4.72137510e-16 0.00000000e+00 0.00000000e+00 2.82926954e-12
2.63026799e-03 3.32522138e-12 3.31944252e-12 5.77885641e-15 0.00000000e+00 0.00000000e+00 3.33944522e-12
3.01995172e-03 3.91390279e-12 3.91243689e-12 1.46589848e-15 0.00000000e+00 0.00000000e+00 3.94161611e-12
3.46736850e-03 4.61592280e-12 4.61180334e-12 4.11945660e-15 0.00000000e+00 0.00000000e+00 4.65237083e-12
3.98107171e-03 5.49186758e-12 5.43651452e-12 5.53530593e-14 0.00000000e+00 0.00000000e+00 5.49128930e-12
4.57088190e-03 6.44763532e-12 6.43828438e-12 9.35094247e-15 0.00000000e+00 0.00000000e+00 6.48148207e-12
5.24807460e-03 7.61633487e-12 7.58516463e-12 3.11702450e-14 0.00000000e+00 0.00000000e+00 7.65022704e-12
6.02559586e-03 8.99501420e-12 8.93720718e-12 5.78070223e-14 0.00000000e+00 0.00000000e+00 9.02972084e-12
6.91830971e-03 1.06290880e-11 1.05320392e-11 9.70487833e-14 0.00000000e+00 0.00000000e+00 1.06579658e-11
7.94328235e-03 1.25654885e-11 1.24141057e-11 1.51382860e-13 9.19672497e-303 5.02709992e-304 1.25798170e-11
9.12010839e-03 1.48217751e-11 1.46313265e-11 1.90448630e-13 4.06887439e-264 7.04390824e-266 1.48482176e-11
1.04712855e-02 1.65282698e-11 1.63258433e-11 2.02426520e-13 1.85021891e-230 8.67496062e-232 1.65834298e-11
1.20226443e-02 1.66331464e-11 1.63107667e-11 3.22379699e-13 2.96883901e-201 1.04714716e-202 1.65834298e-11
1.38038426e-02 1.66342618e-11 1.62929022e-11 3.41359608e-13 8.31981148e-176 2.64573576e-177 1.65834298e-11
1.58489319e-02 1.66419623e-11 1.62709749e-11 3.70987372e-13 1.19298657e-153 7.61516950e-155 1.65834298e-11
1.81970086e-02 1.66667962e-11 1.62507771e-11 4.16019050e-13 2.14056054e-134 1.00428182e-135 1.65834298e-11
2.08929613e-02 1.68002289e-11 1.62340075e-11 5.66221408e-13 1.15182676e-117 6.69321706e-119 1.65834298e-11
2.39883292e-02 1.68434766e-11 1.62123054e-11 6.31171173e-13 4.14789342e-103 2.86328740e-104 1.65834298e-11
2.75422870e-02 1.68584349e-11 1.61870986e-11 6.71336334e-13 1.85732812e-90 1.08165946e-91 1.65834298e-11
3.16227766e-02 1.68629825e-11 1.61624285e-11 7.00553955e-13 1.83712297e-79 1.15056838e-80 1.65834298e-11
3.63078055e-02 1.68013556e-11 1.61431048e-11 6.58250746e-13 6.39894424e-70 3.82379776e-71 1.65834298e-11
4.16869383e-02 1.68363817e-11 1.61264099e-11 7.09971780e-13 1.23201618e-61 8.03193751e-63 1.65834298e-11
4.78630092e-02 1.67732864e-11 1.60804801e-11 6.92806316e-13 1.85110548e-54 1.16078816e-55 1.65834298e-11
5.49540874e-02 1.66261516e-11 1.60168234e-11 6.09328109e-13 3.06095984e-48 1.87913145e-49 1.65834298e-11
6.30957344e-02 1.63724502e-11 1.58583103e-11 5.14139949e-13 9.70005559e-43 5.60086793e-44 1.65834298e-11
7.24435960e-02 1.60954382e-11 1.56725778e-11 4.22860431e-13 5.53321448e-38 2.83123992e-39 1.65834298e-11
8.31763771e-02 1.60827168e-11 1.56890167e-11 3.93700123e-13 5.68824304e-34 2.78111576e-35 1.65834298e-11
9.54992586e-02 1.61338623e-11 1.57373307e-11 3.96531623e-13 1.61979491e-30 8.16282809e-32 1.65834298e-11
1.09647820e-01 1.55816058e-11 1.51628398e-11 4.18765986e-13 1.40182302e-27 7.82992271e-29 1.58370587e-11
1.25892541e-01 1.47202875e-11 1.42600774e-11 4.60210044e-13 4.62676341e-25 2.74106268e-26 1.47800032e-11
1.44543977e-01 1.38284901e-11 1.33900954e-11 4.38394704e-13 6.41444473e-23 3.88654262e-24 1.37935015e-11
1.65958691e-01 1.29873088e-11 1.25429829e-11 4.44325824e-13 3.28253724e-21 2.19617770e-22 1.28728446e-11
1.90546072e-01 1.20969797e-11 1.16854970e-11 4.11482586e-13 6.87303402e-20 5.02101259e-21 1.20136376e-11
2.18776162e-01 1.11801214e-11 1.08534073e-11 3.26713237e-13 8.02053245e-19 5.47727885e-20 1.12117790e-11
2.51188643e-01 1.05583289e-11 1.01950993e-11 3.63219679e-13 9.88380273e-18 8.46199891e-19 1.04634409e-11
2.88403150e-01 9.91277555e-12 9.55667634e-12 3.56015801e-13 8.34083739e-17 7.21040916e-18 9.76505125e-12
3.31131121e-01 9.29312021e-12 8.94352122e-12 3.49115589e-13 4.83401361e-16 4.20305277e-17 9.11327608e-12
3.80189396e-01 8.70032209e-12 8.36572422e-12 3.32570203e-13 2.02767051e-15 1.72334946e-16 8.50500410e-12
4.36515832e-01 8.13780464e-12 7.82408420e-12 3.07264754e-13 6.45568387e-15 5.41260075e-16 7.93733165e-12
5.01187234e-01 7.61007234e-12 7.31671891e-12 2.77126778e-13 1.62266522e-14 1.37012015e-15 7.40754890e-12
5.75439937e-01 7.13110365e-12 6.84103412e-12 2.56418023e-13 3.36515003e-14 2.87850158e-15 6.91312687e-12
6.60693448e-01 6.68169521e-12 6.39498496e-12 2.26044752e-13 6.06654980e-14 5.73906552e-15 6.45170538e-12
7.58577575e-01 6.28133054e-12 5.97700177e-12 2.01754660e-13 1.02574109e-13 1.18843955e-14 6.02108180e-12
8.70963590e-01 5.92621315e-12 5.58570459e-12 1.70932660e-13 1.69575906e-13 2.58801915e-14 5.61920048e-12
1.00000000e+00 5.65714252e-12 5.21910310e-12 1.44272337e-13 2.93767080e-13 5.58848556e-14 5.24414302e-12
1.14815362e+00 5.53792362e-12 4.87573446e-12 1.16795146e-13 5.45394014e-13 1.15287301e-13 4.89411902e-12
1.31825674e+00 5.67916653e-12 4.55419509e-12 9.01371144e-14 1.03483433e-12 2.11457116e-13 4.56745763e-12
1.51356125e+00 6.19704877e-12 4.25312935e-12 7.08115914e-14 1.87310782e-12 3.43825338e-13 4.26259947e-12
1.73780083e+00 7.15883903e-12 3.97143753e-12 5.65042650e-14 3.13089723e-12 4.81445044e-13 3.97808929e-12
1.99526231e+00 8.48926025e-12 3.70797033e-12 4.36300415e-14 4.73765987e-12 5.85190878e-13 3.71256894e-12
2.29086765e+00 1.02568688e-11 3.46160178e-12 3.32061818e-14 6.76206081e-12 6.62862110e-13 3.46477093e-12
2.63026799e+00 1.19522382e-11 3.23130797e-12 2.55295615e-14 8.69540070e-12 6.72300855e-13 3.23351237e-12
3.01995172e+00 1.37700038e-11 3.01613631e-12 2.01599745e-14 1.07337075e-11 6.62842966e-13 3.01768933e-12
3.46736850e+00 1.53283086e-11 2.81515960e-12 1.54247248e-14 1.24977242e-11 6.16916701e-13 2.81627154e-12
3.98107171e+00 1.68593422e-11 2.62749123e-12 1.18295143e-14 1.42200214e-11 5.52469326e-13 2.62829753e-12
4.57088190e+00 1.80191849e-11 2.45227733e-12 8.82240540e-15 1.55580852e-11 4.60715665e-13 2.45286997e-12
5.24807460e+00 1.87330952e-11 2.02775385e-12 5.49120620e-15 1.66998502e-11 3.52965010e-13 2.02814751e-12
6.02559586e+00 1.89784905e-11 1.33976763e-12 2.62952368e-15 1.76360933e-11 2.53579034e-13 1.33998377e-12
6.70000000e+00 1.90683869e-11 9.74570186e-13 1.42117638e-15 1.80923955e-11 1.83905625e-13 9.74709347e-13
6.92422916e+00 1.90211280e-11 8.82928234e-13 1.16760706e-15 1.81370322e-11 1.64177651e-13 8.83049889e-13
7.15596261e+00 1.90238256e-11 7.99901589e-13 9.31583512e-16 1.82229924e-11 1.44644326e-13 8.00009879e-13
7.39545150e+00 1.90045642e-11 7.24678314e-13 7.06793978e-16 1.82791791e-11 1.23204270e-13 7.24778763e-13
7.64295536e+00 1.90314088e-11 6.56518525e-13 4.66304384e-16 1.83744240e-11 9.68620169e-14 6.56622211e-13
7.89874245e+00 1.90805127e-11 5.94753582e-13 2.53961629e-16 1.84855051e-11 6.75739089e-14 5.94874946e-13
8.16308998e+00 1.89213434e-11 5.38785795e-13 1.29774325e-16 1.83824278e-11 4.49220324e-14 5.38934254e-13
8.43628443e+00 1.87253273e-11 4.88067248e-13 6.27757021e-17 1.82371973e-11 2.86212684e-14 4.88254098e-13
8.71862190e+00 1.86365221e-11 4.42131798e-13 3.72214954e-17 1.81943531e-11 2.08127799e-14 4.42339790e-13
9.01040836e+00 1.84275478e-11 4.00514900e-13 2.30655565e-17 1.80270098e-11 1.51586631e-14 4.00743158e-13
9.31196005e+00 1.83212661e-11 3.62818345e-13 0.00000000e+00 1.79584478e-11 0.00000000e+00 3.63058180e-13
9.62360379e+00 1.82061427e-11 3.28694007e-13 0.00000000e+00 1.78774487e-11 0.00000000e+00 3.28917012e-13
9.94567731e+00 1.82998499e-11 2.97796829e-13 0.00000000e+00 1.80020531e-11 0.00000000e+00 2.97986401e-13
1.02785297e+01 1.79895845e-11 2.69809061e-13 0.00000000e+00 1.77197755e-11 0.00000000e+00 2.69964435e-13
1.06225216e+01 1.82567028e-11 2.44451611e-13 0.00000000e+00 1.80122511e-11 0.00000000e+00 2.44577592e-13
1.09780260e+01 1.85200506e-11 2.21479604e-13 0.00000000e+00 1.82985710e-11 0.00000000e+00 2.21578069e-13
1.13454280e+01 1.88176769e-11 2.00664103e-13 0.00000000e+00 1.86170128e-11 0.00000000e+00 2.00741370e-13
1.17251259e+01 1.89705115e-11 1.81803084e-13 0.00000000e+00 1.87887084e-11 0.00000000e+00 1.81864106e-13
1.21175312e+01 1.92465441e-11 1.64714073e-13 0.00000000e+00 1.90818300e-11 0.00000000e+00 1.64762018e-13
1.25230691e+01 1.94478329e-11 1.49230603e-13 0.00000000e+00 1.92986023e-11 0.00000000e+00 1.49268171e-13
1.29421791e+01 1.96777457e-11 1.35201688e-13 0.00000000e+00 1.95425440e-11 0.00000000e+00 1.35231331e-13
1.33753155e+01 1.96658677e-11 1.22490926e-13 0.00000000e+00 1.95433768e-11 0.00000000e+00 1.22514483e-13
1.38229477e+01 1.96793143e-11 1.10973915e-13 0.00000000e+00 1.95683403e-11 0.00000000e+00 1.10993499e-13
1.42855609e+01 1.96165853e-11 1.00538901e-13 0.00000000e+00 1.95160464e-11 0.00000000e+00 1.00555922e-13
1.47636563e+01 1.97060551e-11 9.10837167e-14 0.00000000e+00 1.96149714e-11 0.00000000e+00 9.10998706e-14
1.52577522e+01 1.98217418e-11 8.25174369e-14 0.00000000e+00 1.97392244e-11 0.00000000e+00 8.25330452e-14
1.57683840e+01 2.00625889e-11 7.47565501e-14 0.00000000e+00 1.99878324e-11 0.00000000e+00 7.47718247e-14
1.62961051e+01 2.00999209e-11 6.77255217e-14 0.00000000e+00 2.00321954e-11 0.00000000e+00 6.77404517e-14
1.68414875e+01 2.02069786e-11 6.13557327e-14 0.00000000e+00 2.01456229e-11 0.00000000e+00 6.13702932e-14
1.74051222e+01 2.02714649e-11 5.55853429e-14 0.00000000e+00 2.02158796e-11 0.00000000e+00 5.55991699e-14
1.79876201e+01 2.03795998e-11 5.03578399e-14 0.00000000e+00 2.03292419e-11 0.00000000e+00 5.03707500e-14
1.85896125e+01 2.02493528e-11 4.56223178e-14 0.00000000e+00 2.02037304e-11 0.00000000e+00 4.56339988e-14
1.92117518e+01 2.00821211e-11 4.13324207e-14 0.00000000e+00 2.00407886e-11 0.00000000e+00 4.13426810e-14
1.98547123e+01 1.98856134e-11 3.74460725e-14 0.00000000e+00 1.98481674e-11 0.00000000e+00 3.74549090e-14
2.05191907e+01 1.96634624e-11 3.39252008e-14 0.00000000e+00 1.96295372e-11 0.00000000e+00 3.39327342e-14
2.12059073e+01 1.92704057e-11 3.07353552e-14 0.00000000e+00 1.92396703e-11 0.00000000e+00 3.07417768e-14
2.19156062e+01 1.89432831e-11 2.78453893e-14 0.00000000e+00 1.89154377e-11 0.00000000e+00 2.78508898e-14
2.26490567e+01 1.84150886e-11 2.52271361e-14 0.00000000e+00 1.83898615e-11 0.00000000e+00 2.52318552e-14
2.34070535e+01 1.80701320e-11 2.28550526e-14 0.00000000e+00 1.80472770e-11 0.00000000e+00 2.28591087e-14
2.41904183e+01 1.74898993e-11 2.07059948e-14 0.00000000e+00 1.74691933e-11 0.00000000e+00 2.07094900e-14
2.50000000e+01 1.68532936e-11 1.87589982e-14 0.00000000e+00 1.68345346e-11 0.00000000e+00 1.87620165e-14
2.75422870e+01 1.50872617e-11 1.40293843e-14 0.00000000e+00 1.50732324e-11 0.00000000e+00 1.40313526e-14
3.16227766e+01 1.22409137e-11 9.26934128e-15 0.00000000e+00 1.22316443e-11 0.00000000e+00 9.27042274e-15
3.63078055e+01 9.34445148e-12 6.12431652e-15 0.00000000e+00 9.33832716e-12 0.00000000e+00 6.12490756e-15
4.16869383e+01 6.70673744e-12 4.04637183e-15 0.00000000e+00 6.70269107e-12 0.00000000e+00 4.04668630e-15
4.78630092e+01 4.50184108e-12 2.67345700e-15 0.00000000e+00 4.49916763e-12 0.00000000e+00 2.67361912e-15
5.49540874e+01 2.84559237e-12 1.76636084e-15 0.00000000e+00 2.84382601e-12 0.00000000e+00 1.76644264e-15
6.30957344e+01 1.71985986e-12 1.16703633e-15 0.00000000e+00 1.71869282e-12 0.00000000e+00 1.16707708e-15
7.24435960e+01 9.96350389e-13 7.71060025e-16 0.00000000e+00 9.95579329e-13 0.00000000e+00 7.71080178e-16
8.31763771e+01 5.61095957e-13 5.09437670e-16 0.00000000e+00 5.60586520e-13 0.00000000e+00 5.09447621e-16
9.54992586e+01 3.09715034e-13 3.36583780e-16 0.00000000e+00 3.09378450e-13 0.00000000e+00 3.36588705e-16
1.09647820e+02 1.68262557e-13 2.22379506e-16 0.00000000e+00 1.68040177e-13 0.00000000e+00 2.22381952e-16
1.25892541e+02 9.14264153e-14 1.46925066e-16 0.00000000e+00 9.12794902e-14 0.00000000e+00 1.46926299e-16
1.44543977e+02 4.94491428e-14 9.70726168e-17 0.00000000e+00 4.93520701e-14 0.00000000e+00 9.70732430e-17
1.65958691e+02 2.55659548e-14 6.41353486e-17 0.00000000e+00 2.55018195e-14 0.00000000e+00 6.41356556e-17
1.90546072e+02 1.32352117e-14 4.23738554e-17 0.00000000e+00 1.31928378e-14 0.00000000e+00 4.23740075e-17
2.18776162e+02 6.84807723e-15 2.79961533e-17 0.00000000e+00 6.82008108e-15 0.00000000e+00 2.79962291e-17
2.51188643e+02 3.53583583e-15 1.84968873e-17 0.00000000e+00 3.51733894e-15 0.00000000e+00 1.84969251e-17
2.88403150e+02 1.81936476e-15 1.22207783e-17 0.00000000e+00 1.80714398e-15 0.00000000e+00 1.22207972e-17
3.31131121e+02 9.34898752e-16 8.07419118e-18 0.00000000e+00 9.26824560e-16 0.00000000e+00 8.07420067e-18
3.80189396e+02 4.79203802e-16 5.33456672e-18 0.00000000e+00 4.73869235e-16 0.00000000e+00 5.33457148e-18
4.36515832e+02 2.45380963e-16 3.52451404e-18 0.00000000e+00 2.41856449e-16 0.00000000e+00 3.52451642e-18
5.01187234e+02 1.25510132e-16 2.32862371e-18 0.00000000e+00 1.23181508e-16 0.00000000e+00 2.32862491e-18
5.75439937e+02 6.41695178e-17 1.53850662e-18 0.00000000e+00 6.26310112e-17 0.00000000e+00 1.53850722e-18
6.60693448e+02 3.28147706e-17 1.01648134e-18 0.00000000e+00 3.17982893e-17 0.00000000e+00 1.01648164e-18
7.58577575e+02 1.67954650e-17 6.71582608e-19 0.00000000e+00 1.61238824e-17 0.00000000e+00 6.71582760e-19
8.70963590e+02 8.60865917e-18 4.43710253e-19 0.00000000e+00 8.16494892e-18 0.00000000e+00 4.43710329e-19
1.00000000e+03 4.12931736e-18 0.00000000e+00 0.00000000e+00 4.12931736e-18 0.00000000e+00 0.00000000e+00
