# column 1: lambda (micron)
# column 2: total flux; lambda*F_lambda (W/m2)
# column 3: direct stellar flux; lambda*F_lambda (W/m2)
# column 4: scattered stellar flux; lambda*F_lambda (W/m2)
# column 5: total dust emission flux; lambda*F_lambda (W/m2)
# column 6: dust emission scattered flux; lambda*F_lambda (W/m2)
# column 7: transparent flux; lambda*F_lambda (W/m2)
1.00000000e-03 8.43947254e-13 8.43942251e-13 5.00333706e-18 0.00000000e+00 0.00000000e+00 8.46529401e-13
1.14815362e-03 9.95159169e-13 9.95143722e-13 1.54470557e-17 0.00000000e+00 0.00000000e+00 9.99176121e-13
1.31825674e-03 1.17331892e-12 1.17330018e-12 1.87461703e-17 0.00000000e+00 0.00000000e+00 1.17934819e-12
1.51356125e-03 1.38370653e-12 1.38359669e-12 1.09841069e-16 0.00000000e+00 0.00000000e+00 1.39200901e-12
1.73780083e-03 1.63305011e-12 1.63298542e-12 6.46971628e-17 0.00000000e+00 0.00000000e+00 1.64301696e-12
1.99526231e-03 1.92494077e-12 1.92360406e-12 1.33671835e-15 0.00000000e+00 0.00000000e+00 1.93928682e-12
2.29086765e-03 2.27000055e-12 2.26935587e-12 6.44681424e-16 0.00000000e+00 0.00000000e+00 2.28898025e-12
2.63026799e-03 3.21674339e-12 2.67399669e-12 5.42746699e-13 0.00000000e+00 0.00000000e+00 2.70173063e-12
3.01995172e-03 3.14992918e-12 3.14847173e-12 1.45745535e-15 0.00000000e+00 0.00000000e+00 3.18890841e-12
3.46736850e-03 3.72454458e-12 3.70774248e-12 1.68020978e-14 0.00000000e+00 0.00000000e+00 3.76393440e-12
3.98107171e-03 4.37009953e-12 4.36681267e-12 3.28685838e-15 0.00000000e+00 0.00000000e+00 4.44264945e-12
4.57088190e-03 5.20108116e-12 5.18387137e-12 1.72097903e-14 0.00000000e+00 0.00000000e+00 5.24375082e-12
5.24807460e-03 6.12609351e-12 6.09917933e-12 2.69141855e-14 0.00000000e+00 0.00000000e+00 6.18930730e-12
6.02559586e-03 7.19086106e-12 7.17729261e-12 1.35684481e-14 0.00000000e+00 0.00000000e+00 7.30536713e-12
6.91830971e-03 8.50412602e-12 8.44844334e-12 5.56826808e-14 0.00000000e+00 0.00000000e+00 8.62267558e-12
7.94328235e-03 1.00526773e-11 9.94835595e-12 1.04321362e-13 9.35172942e-304 6.70026490e-305 1.01775219e-11
9.12010839e-03 1.18185384e-11 1.17129510e-11 1.05587354e-13 5.89264332e-265 2.37982791e-266 1.20127391e-11
1.04712855e-02 1.31964955e-11 1.30606695e-11 1.35826021e-13 3.61662716e-231 2.24413972e-232 1.34165878e-11
1.20226443e-02 1.31416550e-11 1.30399615e-11 1.01693543e-13 7.66340792e-202 4.78346043e-203 1.34165878e-11
1.38038426e-02 1.31429457e-11 1.30154420e-11 1.27503720e-13 2.68632387e-176 1.44077266e-177 1.34165878e-11
1.58489319e-02 1.30997205e-11 1.29853726e-11 1.14347912e-13 4.60087522e-154 2.87612508e-155 1.34165878e-11
1.81970086e-02 1.30973749e-11 1.29577005e-11 1.39674397e-13 9.96577888e-135 5.89337299e-136 1.34165878e-11
2.08929613e-02 1.30752399e-11 1.29347440e-11 1.40495960e-13 6.22323132e-118 4.12481366e-119 1.34165878e-11
2.39883292e-02 1.30583825e-11 1.29050605e-11 1.53321999e-13 2.53529591e-103 1.63976223e-104 1.34165878e-11
2.75422870e-02 1.30368385e-11 1.28706191e-11 1.66219430e-13 1.29090851e-90 8.95827798e-92 1.34165878e-11
3.16227766e-02 1.30196064e-11 1.28369483e-11 1.82658154e-13 1.40321335e-79 9.66442584e-81 1.34165878e-11
3.63078055e-02 1.29935232e-11 1.28106002e-11 1.82923013e-13 5.36458693e-70 3.64522818e-71 1.34165878e-11
4.16869383e-02 1.30125693e-11 1.27878547e-11 2.24714594e-13 1.11280633e-61 8.18400743e-63 1.34165878e-11
4.78630092e-02 1.29806460e-11 1.27253662e-11 2.55279765e-13 1.79978050e-54 1.41370051e-55 1.34165878e-11
5.49540874e-02 1.29213437e-11 1.26389714e-11 2.82372307e-13 3.15727688e-48 2.52568979e-49 1.34165878e-11
6.30957344e-02 1.27381336e-11 1.24249070e-11 3.13226640e-13 1.05567774e-42 8.90559657e-44 1.34165878e-11
7.24435960e-02 1.24786015e-11 1.21760309e-11 3.02570669e-13 6.24444378e-38 4.80122520e-39 1.34165878e-11
8.31763771e-02 1.24861956e-11 1.21979736e-11 2.88221928e-13 6.70099834e-34 5.15852399e-35 1.34165878e-11
9.54992586e-02 1.25550682e-11 1.22625590e-11 2.92509231e-13 1.97472737e-30 1.53370511e-31 1.34165878e-11
1.09647820e-01 1.21826350e-11 1.18902875e-11 2.92347535e-13 1.76608918e-27 1.46632138e-28 1.28127470e-11
1.25892541e-01 1.15140026e-11 1.12442634e-11 2.69739196e-13 6.00247974e-25 5.06710805e-26 1.19575512e-11
1.44543977e-01 1.08443299e-11 1.06048019e-11 2.39527995e-13 8.52854334e-23 7.34471272e-24 1.11594361e-11
1.65958691e-01 1.02030841e-11 9.96047355e-12 2.42610590e-13 4.49604284e-21 4.34564209e-22 1.04145917e-11
1.90546072e-01 9.52026353e-12 9.26799150e-12 2.52271935e-13 9.62948826e-20 1.03077158e-20 9.71946251e-12
2.18776162e-01 8.82416262e-12 8.57850122e-12 2.45660268e-13 1.13654246e-18 1.19600783e-19 9.07073019e-12
2.51188643e-01 8.36364034e-12 8.09587680e-12 2.67749114e-13 1.44318896e-17 1.90423634e-18 8.46529796e-12
2.88403150e-01 7.85688794e-12 7.61296036e-12 2.43803325e-13 1.24256555e-16 1.68955442e-17 7.90027573e-12
3.31131121e-01 7.35935568e-12 7.13867143e-12 2.19950472e-13 7.33779532e-16 1.01277849e-16 7.37296631e-12
3.80189396e-01 6.88818988e-12 6.68846227e-12 1.96612293e-13 3.11531798e-15 4.23534077e-16 6.88085251e-12
4.36515832e-01 6.45660867e-12 6.26503473e-12 1.81443646e-13 1.01302932e-14 1.41177249e-15 6.42158520e-12
5.01187234e-01 6.05787660e-12 5.86731983e-12 1.64706806e-13 2.58499632e-14 3.63361298e-15 5.99297201e-12
5.75439937e-01 5.70039059e-12 5.49316938e-12 1.52704879e-13 5.45163288e-14 7.77828440e-15 5.59296690e-12
6.60693448e-01 5.37581731e-12 5.14109634e-12 1.36514939e-13 9.82060347e-14 1.40772443e-14 5.21966041e-12
7.58577575e-01 5.09493928e-12 4.81018245e-12 1.25380840e-13 1.59375990e-13 2.28507857e-14 4.87127053e-12
8.70963590e-01 4.84913205e-12 4.49969132e-12 1.06914563e-13 2.42526170e-13 3.56734994e-14 4.54613417e-12
1.00000000e+00 4.65406055e-12 4.20796601e-12 9.20592687e-14 3.54035268e-13 5.31486981e-14 4.24269927e-12
1.14815362e+00 4.53506297e-12 3.93400648e-12 7.63788859e-14 5.24677603e-13 7.85233948e-14 3.95951734e-12
1.31825674e+00 4.52505597e-12 3.67682753e-12 5.99441416e-14 7.88284302e-13 1.11611727e-13 3.69523659e-12
1.51356125e+00 4.65622200e-12 3.43544722e-12 4.60877156e-14 1.17468706e-12 1.51360536e-13 3.44859544e-12
1.73780083e+00 4.91993853e-12 3.20917946e-12 3.46625815e-14 1.67609649e-12 1.84323812e-13 3.21841652e-12
1.99526231e+00 5.25899344e-12 2.99721415e-12 2.56922072e-14 2.23608708e-12 2.00159689e-13 3.00360106e-12
2.29086765e+00 5.59884481e-12 2.79872153e-12 1.84764209e-14 2.78164686e-12 1.94804381e-13 2.80312361e-12
2.63026799e+00 5.84935942e-12 2.61296490e-12 1.30753327e-14 3.22331919e-12 1.79678520e-13 2.61602716e-12
3.01995172e+00 5.99057845e-12 2.43926108e-12 9.32094841e-15 3.54199642e-12 1.56760511e-13 2.44141860e-12
3.46736850e+00 6.00553243e-12 2.27691958e-12 6.70177792e-15 3.72191107e-12 1.29576445e-13 2.27846441e-12
3.98107171e+00 5.91863400e-12 2.12526648e-12 4.59479961e-15 3.78877272e-12 1.02123866e-13 2.12638671e-12
4.57088190e+00 5.77122384e-12 1.98363613e-12 3.09350294e-15 3.78449420e-12 7.51669010e-14 1.98445954e-12
5.24807460e+00 5.31400582e-12 1.64029692e-12 1.77144164e-15 3.67193746e-12 5.14836884e-14 1.64084388e-12
6.02559586e+00 4.61560861e-12 1.08379449e-12 7.71765795e-16 3.53104235e-12 3.27839768e-14 1.08409480e-12
6.70000000e+00 4.15422020e-12 7.88381371e-13 3.92716669e-16 3.36544611e-12 2.17804534e-14 7.88574724e-13
6.92422916e+00 4.03098288e-12 7.14249913e-13 3.22475462e-16 3.31641049e-12 1.89841544e-14 7.14418944e-13
7.15596261e+00 3.92592705e-12 6.47086145e-13 2.49873094e-16 3.27859103e-12 1.64587082e-14 6.47236606e-13
7.39545150e+00 3.86612882e-12 5.86232376e-13 1.91700859e-16 3.27970475e-12 1.39650948e-14 5.86371942e-13
7.64295536e+00 3.95210262e-12 5.31086791e-13 1.32476998e-16 3.42088335e-12 1.15514890e-14 5.31230854e-13
7.89874245e+00 4.25007863e-12 4.81106486e-13 8.31199689e-17 3.76888902e-12 9.04639813e-15 4.81275108e-13
8.16308998e+00 4.67063294e-12 4.35810825e-13 4.84864459e-17 4.23477363e-12 6.94150123e-15 4.36017088e-13
8.43628443e+00 5.19205998e-12 3.94755436e-13 2.66760954e-17 4.79727787e-12 5.05994988e-15 3.95015029e-13
8.71862190e+00 5.48939264e-12 3.57579757e-13 1.65684159e-17 5.13179632e-12 3.87794820e-15 3.57868711e-13
9.01040836e+00 5.75772917e-12 3.23898450e-13 1.06727419e-17 5.43382004e-12 2.87658884e-15 3.24215549e-13
9.31196005e+00 6.01141006e-12 2.93393882e-13 0.00000000e+00 5.71801618e-12 0.00000000e+00 2.93727053e-13
9.62360379e+00 5.90676412e-12 2.65795839e-13 0.00000000e+00 5.64096828e-12 0.00000000e+00 2.66105627e-13
9.94567731e+00 5.59505251e-12 2.40818307e-13 0.00000000e+00 5.35423420e-12 0.00000000e+00 2.41081657e-13
1.02785297e+01 5.24053877e-12 2.18195036e-13 0.00000000e+00 5.02234373e-12 0.00000000e+00 2.18410884e-13
1.06225216e+01 4.88688816e-12 1.97697002e-13 0.00000000e+00 4.68919116e-12 0.00000000e+00 1.97872020e-13
1.09780260e+01 4.51833896e-12 1.79127788e-13 0.00000000e+00 4.33921117e-12 0.00000000e+00 1.79264583e-13
1.13454280e+01 4.19323469e-12 1.62299601e-13 0.00000000e+00 4.03093509e-12 0.00000000e+00 1.62406948e-13
1.17251259e+01 3.89832454e-12 1.47049787e-13 0.00000000e+00 3.75127475e-12 0.00000000e+00 1.47134567e-13
1.21175312e+01 3.62026831e-12 1.33231753e-13 0.00000000e+00 3.48703656e-12 0.00000000e+00 1.33298366e-13
1.25230691e+01 3.36407112e-12 1.20711093e-13 0.00000000e+00 3.24336002e-12 0.00000000e+00 1.20763289e-13
1.29421791e+01 3.11612435e-12 1.09365798e-13 0.00000000e+00 3.00675855e-12 0.00000000e+00 1.09406983e-13
1.33753155e+01 2.89666788e-12 9.90858693e-14 0.00000000e+00 2.79758201e-12 0.00000000e+00 9.91185987e-14
1.38229477e+01 2.73748995e-12 8.97705007e-14 0.00000000e+00 2.64771945e-12 0.00000000e+00 8.97977103e-14
1.42855609e+01 2.63559657e-12 8.13296884e-14 0.00000000e+00 2.55426688e-12 0.00000000e+00 8.13533371e-14
1.47636563e+01 2.62865628e-12 7.36806093e-14 0.00000000e+00 2.55497567e-12 0.00000000e+00 7.37030537e-14
1.52577522e+01 2.64666397e-12 6.67504994e-14 0.00000000e+00 2.57991347e-12 0.00000000e+00 6.67721855e-14
1.57683840e+01 2.67492516e-12 6.04718581e-14 0.00000000e+00 2.61445331e-12 0.00000000e+00 6.04930805e-14
1.62961051e+01 2.69403363e-12 5.47837048e-14 0.00000000e+00 2.63924992e-12 0.00000000e+00 5.48044484e-14
1.68414875e+01 2.71587777e-12 4.96305322e-14 0.00000000e+00 2.66624724e-12 0.00000000e+00 4.96507622e-14
1.74051222e+01 2.69752415e-12 4.49625063e-14 0.00000000e+00 2.65256164e-12 0.00000000e+00 4.49817171e-14
1.79876201e+01 2.67662885e-12 4.07338015e-14 0.00000000e+00 2.63589505e-12 0.00000000e+00 4.07517384e-14
1.85896125e+01 2.61658258e-12 3.69033080e-14 0.00000000e+00 2.57967927e-12 0.00000000e+00 3.69195372e-14
1.92117518e+01 2.51993350e-12 3.34334523e-14 0.00000000e+00 2.48650004e-12 0.00000000e+00 3.34477076e-14
1.98547123e+01 2.41934498e-12 3.02900839e-14 0.00000000e+00 2.38905490e-12 0.00000000e+00 3.03023610e-14
2.05191907e+01 2.28725950e-12 2.74423288e-14 0.00000000e+00 2.25981717e-12 0.00000000e+00 2.74527957e-14
2.12059073e+01 2.18575391e-12 2.48622749e-14 0.00000000e+00 2.16089163e-12 0.00000000e+00 2.48711970e-14
2.19156062e+01 2.07825925e-12 2.25247236e-14 0.00000000e+00 2.05573453e-12 0.00000000e+00 2.25323660e-14
2.26490567e+01 1.97049273e-12 2.04069166e-14 0.00000000e+00 1.95008582e-12 0.00000000e+00 2.04134733e-14
2.34070535e+01 1.86811857e-12 1.84882009e-14 0.00000000e+00 1.84963037e-12 0.00000000e+00 1.84938366e-14
2.41904183e+01 1.77638646e-12 1.67498619e-14 0.00000000e+00 1.75963660e-12 0.00000000e+00 1.67547181e-14
2.50000000e+01 1.67682643e-12 1.51749488e-14 0.00000000e+00 1.66165148e-12 0.00000000e+00 1.51791424e-14
2.75422870e+01 1.41711276e-12 1.13491312e-14 0.00000000e+00 1.40576363e-12 0.00000000e+00 1.13518661e-14
3.16227766e+01 1.07703053e-12 7.49860096e-15 0.00000000e+00 1.06953193e-12 0.00000000e+00 7.50010357e-15
3.63078055e+01 7.75213889e-13 4.95444807e-15 0.00000000e+00 7.70259441e-13 0.00000000e+00 4.95526929e-15
4.16869383e+01 5.23008753e-13 3.27347701e-15 0.00000000e+00 5.19735276e-13 0.00000000e+00 3.27391395e-15
4.78630092e+01 3.31217808e-13 2.16282824e-15 0.00000000e+00 3.29054980e-13 0.00000000e+00 2.16305350e-15
5.49540874e+01 1.99139312e-13 1.42900162e-15 0.00000000e+00 1.97710311e-13 0.00000000e+00 1.42911527e-15
6.30957344e+01 1.15252829e-13 9.44150480e-16 0.00000000e+00 1.14308678e-13 0.00000000e+00 9.44207098e-16
7.24435960e+01 6.46699919e-14 6.23803441e-16 0.00000000e+00 6.40461885e-14 0.00000000e+00 6.23831443e-16
8.31763771e+01 3.55561087e-14 4.12147520e-16 0.00000000e+00 3.51439611e-14 0.00000000e+00 4.12161347e-16
9.54992586e+01 1.92897297e-14 2.72305458e-16 0.00000000e+00 1.90174243e-14 0.00000000e+00 2.72312302e-16
1.09647820e+02 1.03663941e-14 1.79911554e-16 0.00000000e+00 1.01864825e-14 0.00000000e+00 1.79914953e-16
1.25892541e+02 5.60221270e-15 1.18866917e-16 0.00000000e+00 5.48334578e-15 0.00000000e+00 1.18868631e-16
1.44543977e+02 3.02520252e-15 7.85348555e-17 0.00000000e+00 2.94666766e-15 0.00000000e+00 7.85357256e-17
1.65958691e+02 1.56299464e-15 5.18876127e-17 0.00000000e+00 1.51110703e-15 0.00000000e+00 5.18880394e-17
1.90546072e+02 8.12301761e-16 3.42818764e-17 0.00000000e+00 7.78019885e-16 0.00000000e+00 3.42820876e-17
2.18776162e+02 4.23570427e-16 2.26498454e-17 0.00000000e+00 4.00920582e-16 0.00000000e+00 2.26499507e-17
2.51188643e+02 2.21289143e-16 1.49646214e-17 0.00000000e+00 2.06324521e-16 0.00000000e+00 1.49646740e-17
2.88403150e+02 1.15742646e-16 9.88703576e-18 0.00000000e+00 1.05855610e-16 0.00000000e+00 9.88706207e-18
3.31131121e+02 6.07681136e-17 6.53230394e-18 0.00000000e+00 5.42358097e-17 0.00000000e+00 6.53231713e-18
3.80189396e+02 3.20289178e-17 4.31585252e-18 0.00000000e+00 2.77130652e-17 0.00000000e+00 4.31585913e-18
4.36515832e+02 1.69906456e-17 2.85145653e-18 0.00000000e+00 1.41391891e-17 0.00000000e+00 2.85145985e-18
5.01187234e+02 9.08381462e-18 1.88393917e-18 0.00000000e+00 7.19987545e-18 0.00000000e+00 1.88394084e-18
5.75439937e+02 4.90527954e-18 1.24470653e-18 0.00000000e+00 3.66057301e-18 0.00000000e+00 1.24470737e-18
6.60693448e+02 2.68093019e-18 8.22369583e-19 0.00000000e+00 1.85856060e-18 0.00000000e+00 8.22370004e-19
7.58577575e+02 1.48584273e-18 5.43334262e-19 0.00000000e+00 9.42508466e-19 0.00000000e+00 5.43334473e-19
8.70963590e+02 8.36315292e-19 3.58977420e-19 0.00000000e+00 4.77337872e-19 0.00000000e+00 3.58977527e-19
1.00000000e+03 2.41442028e-19 0.00000000e+00 0.00000000e+00 2.41442028e-19 0.00000000e+00 0.00000000e+00
