# column 1: lambda (micron)
# column 2: total flux; lambda*F_lambda (W/m2)
# column 3: direct stellar flux; lambda*F_lambda (W/m2)
# column 4: scattered stellar flux; lambda*F_lambda (W/m2)
# column 5: total dust emission flux; lambda*F_lambda (W/m2)
# column 6: dust emission scattered flux; lambda*F_lambda (W/m2)
# column 7: transparent flux; lambda*F_lambda (W/m2)
1.00000000e-03 6.94001175e-13 6.93993746e-13 7.42922876e-18 0.00000000e+00 0.00000000e+00 6.93993746e-13
1.14815362e-03 8.19146412e-13 8.19135139e-13 1.12730136e-17 0.00000000e+00 0.00000000e+00 8.19135139e-13
1.31825674e-03 9.66859804e-13 9.66842108e-13 1.76959460e-17 0.00000000e+00 0.00000000e+00 9.66842108e-13
1.51356125e-03 1.14121131e-12 1.14118369e-12 2.76158839e-17 0.00000000e+00 0.00000000e+00 1.14118369e-12
1.73780083e-03 1.34700667e-12 1.34696266e-12 4.40120051e-17 0.00000000e+00 0.00000000e+00 1.34696266e-12
1.99526231e-03 1.58993098e-12 1.58984782e-12 8.31579252e-17 0.00000000e+00 0.00000000e+00 1.58984782e-12
2.29086765e-03 1.87666027e-12 1.87653019e-12 1.30079027e-16 0.00000000e+00 0.00000000e+00 1.87653019e-12
2.63026799e-03 2.21515848e-12 2.21490731e-12 2.51165706e-16 0.00000000e+00 0.00000000e+00 2.21490731e-12
3.01995172e-03 2.61474798e-12 2.61430080e-12 4.47178422e-16 0.00000000e+00 0.00000000e+00 2.61430080e-12
3.46736850e-03 3.08639404e-12 3.08571319e-12 6.80855252e-16 0.00000000e+00 0.00000000e+00 3.08571319e-12
3.98107171e-03 3.64321663e-12 3.64213095e-12 1.08567903e-15 0.00000000e+00 0.00000000e+00 3.64213095e-12
4.57088190e-03 4.30155141e-12 4.29888232e-12 2.66908739e-15 0.00000000e+00 0.00000000e+00 4.29888232e-12
5.24807460e-03 5.07834916e-12 5.07405951e-12 4.28964995e-15 0.00000000e+00 0.00000000e+00 5.07405951e-12
6.02559586e-03 5.99702301e-12 5.98901715e-12 8.00586588e-15 0.00000000e+00 0.00000000e+00 5.98901715e-12
6.91830971e-03 7.08164247e-12 7.06896053e-12 1.26819471e-14 0.00000000e+00 0.00000000e+00 7.06896053e-12
7.94328235e-03 8.36337746e-12 8.34363998e-12 1.97374793e-14 0.00000000e+00 0.00000000e+00 8.34363998e-12
9.12010839e-03 9.88541741e-12 9.84817045e-12 3.72469652e-14 0.00000000e+00 0.00000000e+00 9.84817045e-12
1.04712855e-02 1.10527445e-11 1.09990604e-11 5.36840569e-14 0.00000000e+00 0.00000000e+00 1.09990604e-11
1.20226443e-02 1.10772445e-11 1.09990604e-11 7.81840248e-14 0.00000000e+00 0.00000000e+00 1.09990604e-11
1.38038426e-02 1.10912462e-11 1.09990604e-11 9.21857805e-14 1.99238237e-272 3.31100549e-274 1.09990604e-11
1.58489319e-02 1.11482197e-11 1.09990604e-11 1.49159287e-13 5.57651042e-238 1.10928092e-239 1.09990604e-11
1.81970086e-02 1.11901942e-11 1.09990604e-11 1.91133797e-13 5.30856113e-208 1.29861722e-209 1.09990604e-11
2.08929613e-02 1.12247041e-11 1.09990604e-11 2.25643660e-13 6.14121035e-182 2.08442189e-183 1.09990604e-11
2.39883292e-02 1.12807397e-11 1.09990604e-11 2.81679261e-13 2.96113196e-159 1.17681216e-160 1.09990604e-11
2.75422870e-02 1.12932479e-11 1.09990604e-11 2.94187412e-13 1.63184479e-139 8.25716549e-141 1.09990604e-11
3.16227766e-02 1.12913722e-11 1.09990604e-11 2.92311751e-13 2.37848634e-122 1.39462747e-123 1.09990604e-11
3.63078055e-02 1.12940299e-11 1.09990604e-11 2.94969491e-13 1.96624592e-107 1.26468021e-108 1.09990604e-11
4.16869383e-02 1.13143065e-11 1.09990604e-11 3.15246088e-13 1.81971442e-94 1.45897603e-95 1.09990604e-11
4.78630092e-02 1.13092839e-11 1.09990604e-11 3.10223455e-13 3.32857152e-83 3.21874031e-84 1.09990604e-11
5.49540874e-02 1.12807187e-11 1.09990604e-11 2.81658272e-13 1.98648365e-73 2.16053598e-74 1.09990604e-11
6.30957344e-02 1.12583525e-11 1.09990604e-11 2.59292020e-13 8.01648313e-65 9.54007020e-66 1.09990604e-11
7.24435960e-02 1.12156414e-11 1.09990604e-11 2.16580985e-13 2.29004470e-57 2.53450984e-58 1.09990604e-11
8.31763771e-02 1.12029429e-11 1.09990604e-11 2.03882468e-13 5.28620787e-51 5.80437407e-52 1.09990604e-11
9.54992586e-02 1.12144249e-11 1.09990604e-11 2.15364489e-13 1.71334700e-45 1.96579346e-46 1.09990604e-11
1.09647820e-01 1.07390771e-11 1.05040253e-11 2.35051782e-13 9.45005096e-41 1.17732330e-41 1.05040253e-11
1.25892541e-01 1.00446822e-11 9.80292679e-12 2.41755445e-13 1.21738496e-36 1.50882269e-37 9.80292679e-12
1.44543977e-01 9.38701105e-12 9.14862359e-12 2.38387457e-13 4.43883227e-33 5.49782772e-34 9.14862359e-12
1.65958691e-01 8.77912112e-12 8.53799231e-12 2.41128807e-13 4.31623227e-30 6.04171941e-31 8.53799231e-12
1.90546072e-01 8.21387702e-12 7.96811805e-12 2.45758973e-13 1.29912377e-27 2.19699079e-28 7.96811805e-12
2.18776162e-01 7.65378033e-12 7.43628044e-12 2.17499889e-13 1.63403823e-25 2.96835942e-26 7.43628044e-12
2.51188643e-01 7.21097709e-12 6.93994070e-12 2.71036392e-13 1.81922833e-23 4.22558757e-24 6.93994070e-12
2.88403150e-01 6.73668654e-12 6.47672950e-12 2.59957035e-13 1.09813058e-21 2.69126218e-22 6.47672950e-12
3.31131121e-01 6.28625677e-12 6.04443567e-12 2.41821063e-13 3.78662310e-20 9.49334014e-21 6.04443567e-12
3.80189396e-01 5.87557893e-12 5.64099558e-12 2.34582550e-13 8.03491859e-19 2.09488255e-19 5.64099558e-12
4.36515832e-01 5.48232707e-12 5.26448339e-12 2.17832420e-13 1.12674830e-17 3.06555110e-18 5.26448339e-12
5.01187234e-01 5.11758476e-12 4.91310176e-12 2.04374488e-13 1.08513009e-16 3.04424215e-17 4.91310176e-12
5.75439937e-01 4.78174346e-12 4.58517335e-12 1.95825980e-13 7.44125843e-16 2.13898144e-16 4.58517335e-12
6.60693448e-01 4.46617305e-12 4.27913275e-12 1.83162341e-13 3.87796453e-15 1.12642433e-15 4.27913275e-12
7.58577575e-01 4.17716226e-12 3.99351904e-12 1.67738816e-13 1.59044068e-14 4.59141910e-15 3.99351904e-12
8.70963590e-01 3.93289551e-12 3.72696882e-12 1.52626711e-13 5.32999794e-14 1.50732173e-14 3.72696882e-12
1.00000000e+00 3.76038286e-12 3.47820968e-12 1.34808104e-13 1.47365077e-13 3.96894604e-14 3.47820968e-12
1.14815362e+00 3.71874150e-12 3.24605414e-12 1.17125421e-13 3.55561940e-13 8.75764154e-14 3.24605414e-12
1.31825674e+00 3.88747208e-12 3.02939399e-12 9.64226191e-14 7.61655470e-13 1.68129879e-13 3.02939399e-12
1.51356125e+00 4.34023222e-12 2.82719497e-12 7.80723768e-14 1.43496487e-12 2.73684928e-13 2.82719497e-12
1.73780083e+00 5.09234207e-12 2.63849186e-12 6.07617662e-14 2.39308844e-12 3.81723538e-13 2.63849186e-12
1.99526231e+00 6.03869859e-12 2.46238388e-12 4.54255153e-14 3.53088919e-12 4.51753374e-13 2.46238388e-12
2.29086765e+00 7.08536081e-12 2.29803035e-12 3.32901792e-14 4.75404028e-12 4.72840367e-13 2.29803035e-12
2.63026799e+00 7.99149780e-12 2.14464670e-12 2.36404513e-14 5.82321064e-12 4.41980340e-13 2.14464670e-12
3.01995172e+00 8.69654112e-12 2.00150076e-12 1.68293820e-14 6.67821098e-12 3.89136673e-13 2.00150076e-12
3.46736850e+00 9.15200583e-12 1.86790919e-12 1.18375356e-14 7.27225910e-12 3.25425246e-13 1.86790919e-12
3.98107171e+00 9.37569532e-12 1.74323429e-12 8.47583760e-15 7.62398519e-12 2.59439825e-13 1.74323429e-12
4.57088190e+00 9.35728237e-12 1.62688090e-12 5.78425252e-15 7.72461722e-12 1.92857144e-13 1.62688090e-12
5.24807460e+00 8.99617183e-12 1.34518114e-12 3.34648627e-15 7.64764420e-12 1.33824398e-13 1.34518114e-12
6.02559586e+00 8.32623986e-12 8.88752369e-13 1.49604053e-15 7.43599145e-12 8.58642013e-14 8.88752369e-13
6.70000000e+00 7.78798863e-12 6.46481889e-13 7.79815190e-16 7.14072693e-12 5.79462315e-14 6.46481889e-13
6.92422916e+00 7.61965778e-12 5.85688198e-13 6.22200841e-16 7.03334738e-12 5.05791433e-14 5.85688198e-13
7.15596261e+00 7.48031632e-12 5.30611407e-13 5.01336621e-16 6.94920357e-12 4.38605869e-14 5.30611407e-13
7.39545150e+00 7.45731818e-12 4.80713913e-13 3.81223478e-16 6.97622304e-12 3.71726565e-14 4.80713913e-13
7.64295536e+00 7.64489854e-12 4.35508666e-13 2.63614705e-16 7.20912626e-12 3.03781575e-14 4.35508666e-13
7.89874245e+00 8.14952305e-12 3.94554418e-13 1.56821911e-16 7.75481181e-12 2.32399169e-14 3.94554418e-13
8.16308998e+00 8.80396829e-12 3.57451415e-13 8.98692102e-17 8.44642701e-12 1.72033785e-14 3.57451415e-13
8.43628443e+00 9.55749314e-12 3.23837494e-13 4.75260726e-17 9.23360812e-12 1.21296167e-14 3.23837494e-13
8.71862190e+00 9.92693077e-12 2.93384550e-13 3.04688647e-17 9.63351575e-12 9.13721168e-15 2.93384550e-13
9.01040836e+00 1.03466963e-11 2.65795332e-13 1.94135604e-17 1.00808815e-11 6.83681032e-15 2.65795332e-13
9.31196005e+00 1.05283730e-11 2.40800541e-13 0.00000000e+00 1.02875724e-11 0.00000000e+00 2.40800541e-13
9.62360379e+00 1.03828758e-11 2.18156204e-13 0.00000000e+00 1.01647196e-11 0.00000000e+00 2.18156204e-13
9.94567731e+00 1.00004901e-11 1.97641289e-13 0.00000000e+00 9.80284877e-12 0.00000000e+00 1.97641289e-13
1.02785297e+01 9.48321922e-12 1.79055550e-13 0.00000000e+00 9.30416367e-12 0.00000000e+00 1.79055550e-13
1.06225216e+01 9.04378838e-12 1.62217572e-13 0.00000000e+00 8.88157081e-12 0.00000000e+00 1.62217572e-13
1.09780260e+01 8.51298761e-12 1.46962999e-13 0.00000000e+00 8.36602461e-12 0.00000000e+00 1.46962999e-13
1.13454280e+01 8.10206411e-12 1.33142932e-13 0.00000000e+00 7.96892118e-12 0.00000000e+00 1.33142932e-13
1.17251259e+01 7.69388031e-12 1.20622472e-13 0.00000000e+00 7.57325784e-12 0.00000000e+00 1.20622472e-13
1.21175312e+01 7.32278363e-12 1.09279408e-13 0.00000000e+00 7.21350422e-12 0.00000000e+00 1.09279408e-13
1.25230691e+01 6.98335092e-12 9.90030204e-14 0.00000000e+00 6.88434789e-12 0.00000000e+00 9.90030204e-14
1.29421791e+01 6.63020225e-12 8.96930008e-14 0.00000000e+00 6.54050925e-12 0.00000000e+00 8.96930008e-14
1.33753155e+01 6.31413364e-12 8.12584743e-14 0.00000000e+00 6.23287517e-12 0.00000000e+00 8.12584743e-14
1.38229477e+01 6.05920163e-12 7.36171115e-14 0.00000000e+00 5.98558452e-12 0.00000000e+00 7.36171115e-14
1.42855609e+01 5.91102285e-12 6.66943252e-14 0.00000000e+00 5.84432852e-12 0.00000000e+00 6.66943252e-14
1.47636563e+01 5.94330896e-12 6.04225420e-14 0.00000000e+00 5.88288642e-12 0.00000000e+00 6.04225420e-14
1.52577522e+01 6.00277318e-12 5.47405431e-14 0.00000000e+00 5.94803264e-12 0.00000000e+00 5.47405431e-14
1.57683840e+01 6.10414516e-12 4.95928665e-14 0.00000000e+00 6.05455230e-12 0.00000000e+00 4.95928665e-14
1.62961051e+01 6.17053942e-12 4.49292657e-14 0.00000000e+00 6.12561016e-12 0.00000000e+00 4.49292657e-14
1.68414875e+01 6.27585921e-12 4.07042194e-14 0.00000000e+00 6.23515499e-12 0.00000000e+00 4.07042194e-14
1.74051222e+01 6.31904278e-12 3.68764869e-14 0.00000000e+00 6.28216629e-12 0.00000000e+00 3.68764869e-14
1.79876201e+01 6.34690938e-12 3.34087056e-14 0.00000000e+00 6.31350068e-12 0.00000000e+00 3.34087056e-14
1.85896125e+01 6.27766041e-12 3.02670267e-14 0.00000000e+00 6.24739338e-12 0.00000000e+00 3.02670267e-14
1.92117518e+01 6.17923459e-12 2.74207841e-14 0.00000000e+00 6.15181381e-12 0.00000000e+00 2.74207841e-14
1.98547123e+01 6.02272868e-12 2.48421957e-14 0.00000000e+00 5.99788649e-12 0.00000000e+00 2.48421957e-14
2.05191907e+01 5.85190981e-12 2.25060919e-14 0.00000000e+00 5.82940372e-12 0.00000000e+00 2.25060919e-14
2.12059073e+01 5.68656449e-12 2.03896700e-14 0.00000000e+00 5.66617482e-12 0.00000000e+00 2.03896700e-14
2.19156062e+01 5.50592903e-12 1.84722717e-14 0.00000000e+00 5.48745675e-12 0.00000000e+00 1.84722717e-14
2.26490567e+01 5.32544374e-12 1.67351811e-14 0.00000000e+00 5.30870856e-12 0.00000000e+00 1.67351811e-14
2.34070535e+01 5.17972482e-12 1.51614426e-14 0.00000000e+00 5.16456338e-12 0.00000000e+00 1.51614426e-14
2.41904183e+01 4.99339793e-12 1.37356949e-14 0.00000000e+00 4.97966223e-12 0.00000000e+00 1.37356949e-14
2.50000000e+01 4.82043234e-12 1.24440213e-14 0.00000000e+00 4.80798832e-12 0.00000000e+00 1.24440213e-14
2.75422870e+01 4.29241128e-12 9.30637977e-15 0.00000000e+00 4.28310490e-12 0.00000000e+00 9.30637977e-15
3.16227766e+01 3.50434932e-12 6.14866414e-15 0.00000000e+00 3.49820066e-12 0.00000000e+00 6.14866414e-15
3.63078055e+01 2.70463861e-12 4.06238211e-15 0.00000000e+00 2.70057623e-12 0.00000000e+00 4.06238211e-15
4.16869383e+01 1.94308238e-12 2.68398924e-15 0.00000000e+00 1.94039839e-12 0.00000000e+00 2.68398924e-15
4.78630092e+01 1.30602853e-12 1.77329411e-15 0.00000000e+00 1.30425523e-12 0.00000000e+00 1.77329411e-15
5.49540874e+01 8.26590007e-13 1.17160380e-15 0.00000000e+00 8.25418403e-13 0.00000000e+00 1.17160380e-15
6.30957344e+01 5.00497797e-13 7.74070953e-16 0.00000000e+00 4.99723726e-13 0.00000000e+00 7.74070953e-16
7.24435960e+01 2.92337085e-13 5.11423607e-16 0.00000000e+00 2.91825661e-13 0.00000000e+00 5.11423607e-16
8.31763771e+01 1.66257199e-13 3.37894226e-16 0.00000000e+00 1.65919304e-13 0.00000000e+00 3.37894226e-16
9.54992586e+01 9.28066110e-14 2.23244502e-16 0.00000000e+00 9.25833665e-14 0.00000000e+00 2.23244502e-16
1.09647820e+02 5.10965733e-14 1.47496179e-16 0.00000000e+00 5.09490772e-14 0.00000000e+00 1.47496179e-16
1.25892541e+02 2.81461040e-14 9.74497594e-17 0.00000000e+00 2.80486543e-14 0.00000000e+00 9.74497594e-17
1.44543977e+02 1.54325847e-14 6.43844175e-17 0.00000000e+00 1.53682003e-14 0.00000000e+00 6.43844175e-17
1.65958691e+02 8.06686376e-15 4.25383628e-17 0.00000000e+00 8.02432540e-15 0.00000000e+00 4.25383628e-17
1.90546072e+02 4.22301521e-15 2.81048176e-17 0.00000000e+00 4.19491039e-15 0.00000000e+00 2.81048176e-17
2.18776162e+02 2.20859697e-15 1.85686688e-17 0.00000000e+00 2.19002830e-15 0.00000000e+00 1.85686688e-17
2.51188643e+02 1.15191828e-15 1.22681978e-17 0.00000000e+00 1.13965008e-15 0.00000000e+00 1.22681978e-17
2.88403150e+02 5.98436390e-16 8.10551794e-18 0.00000000e+00 5.90330872e-16 0.00000000e+00 8.10551794e-18
3.31131121e+02 3.10323656e-16 5.35526259e-18 0.00000000e+00 3.04968393e-16 0.00000000e+00 5.35526259e-18
3.80189396e+02 1.60483668e-16 3.53818691e-18 0.00000000e+00 1.56945482e-16 0.00000000e+00 3.53818691e-18
4.36515832e+02 8.29030406e-17 2.33765691e-18 0.00000000e+00 8.05653837e-17 0.00000000e+00 2.33765691e-18
5.01187234e+02 4.27877153e-17 1.54447460e-18 0.00000000e+00 4.12432407e-17 0.00000000e+00 1.54447460e-18
5.75439937e+02 2.20852134e-17 1.02042425e-18 0.00000000e+00 2.10647891e-17 0.00000000e+00 1.02042425e-18
6.60693448e+02 1.14115609e-17 6.74187617e-19 0.00000000e+00 1.07373733e-17 0.00000000e+00 6.74187617e-19
7.58577575e+02 5.90911842e-18 4.45431341e-19 0.00000000e+00 5.46368707e-18 0.00000000e+00 4.45431341e-19
8.70963590e+02 3.06955169e-18 2.94293569e-19 0.00000000e+00 2.77525812e-18 0.00000000e+00 2.94293569e-19
1.00000000e+03 1.40734024e-18 0.00000000e+00 0.00000000e+00 1.40734024e-18 0.00000000e+00 0.00000000e+00
