# column 1: lambda (micron)
# column 2: total flux; lambda*F_lambda (W/m2)
# column 3: direct stellar flux; lambda*F_lambda (W/m2)
# column 4: scattered stellar flux; lambda*F_lambda (W/m2)
# column 5: total dust emission flux; lambda*F_lambda (W/m2)
# column 6: dust emission scattered flux; lambda*F_lambda (W/m2)
# column 7: transparent flux; lambda*F_lambda (W/m2)
1.00000000e-03 8.46534213e-13 8.46529401e-13 4.81244072e-18 0.00000000e+00 0.00000000e+00 8.46529401e-13
1.14815362e-03 9.99184055e-13 9.99176121e-13 7.93442979e-18 0.00000000e+00 0.00000000e+00 9.99176121e-13
1.31825674e-03 1.17936054e-12 1.17934819e-12 1.23417160e-17 0.00000000e+00 0.00000000e+00 1.17934819e-12
1.51356125e-03 1.39202888e-12 1.39200901e-12 1.98718762e-17 0.00000000e+00 0.00000000e+00 1.39200901e-12
1.73780083e-03 1.64305372e-12 1.64301696e-12 3.67656111e-17 0.00000000e+00 0.00000000e+00 1.64301696e-12
1.99526231e-03 1.93935265e-12 1.93928682e-12 6.58302922e-17 0.00000000e+00 0.00000000e+00 1.93928682e-12
2.29086765e-03 2.28908744e-12 2.28898025e-12 1.07189966e-16 0.00000000e+00 0.00000000e+00 2.28898025e-12
2.63026799e-03 2.70195013e-12 2.70173063e-12 2.19497153e-16 0.00000000e+00 0.00000000e+00 2.70173063e-12
3.01995172e-03 3.18927640e-12 3.18890841e-12 3.67983759e-16 0.00000000e+00 0.00000000e+00 3.18890841e-12
3.46736850e-03 3.76452200e-12 3.76393440e-12 5.87596567e-16 0.00000000e+00 0.00000000e+00 3.76393440e-12
3.98107171e-03 4.44361827e-12 4.44264945e-12 9.68817991e-16 0.00000000e+00 0.00000000e+00 4.44264945e-12
4.57088190e-03 5.24586117e-12 5.24375082e-12 2.11034699e-15 0.00000000e+00 0.00000000e+00 5.24375082e-12
5.24807460e-03 6.21211824e-12 6.18930730e-12 2.28109415e-14 0.00000000e+00 0.00000000e+00 6.18930730e-12
6.02559586e-03 7.31257197e-12 7.30536713e-12 7.20484134e-15 0.00000000e+00 0.00000000e+00 7.30536713e-12
6.91830971e-03 8.63425766e-12 8.62267558e-12 1.15820820e-14 0.00000000e+00 0.00000000e+00 8.62267558e-12
7.94328235e-03 1.01971759e-11 1.01775219e-11 1.96539462e-14 2.00314329e-303 7.47848238e-306 1.01775219e-11
9.12010839e-03 1.20441876e-11 1.20127391e-11 3.14484656e-14 8.67660864e-265 4.69654049e-267 1.20127391e-11
1.04712855e-02 1.34700110e-11 1.34165878e-11 5.34232001e-14 3.64956960e-231 4.58598593e-233 1.34165878e-11
1.20226443e-02 1.34837488e-11 1.34165878e-11 6.71609262e-14 5.62900210e-202 4.55664043e-204 1.34165878e-11
1.38038426e-02 1.35047377e-11 1.34165878e-11 8.81498481e-14 1.52577262e-176 1.91812624e-178 1.34165878e-11
1.58489319e-02 1.35572104e-11 1.34165878e-11 1.40622609e-13 2.05761972e-154 3.72728091e-156 1.34165878e-11
1.81970086e-02 1.36063763e-11 1.34165878e-11 1.89788480e-13 3.65628677e-135 8.02953733e-137 1.34165878e-11
2.08929613e-02 1.36563221e-11 1.34165878e-11 2.39734230e-13 1.90598143e-118 5.16080679e-120 1.34165878e-11
2.39883292e-02 1.37275598e-11 1.34165878e-11 3.10971969e-13 6.68283154e-104 2.21550540e-105 1.34165878e-11
2.75422870e-02 1.37596179e-11 1.34165878e-11 3.43030020e-13 2.99062337e-91 1.17667593e-92 1.34165878e-11
3.16227766e-02 1.38029070e-11 1.34165878e-11 3.86319148e-13 2.91420328e-80 1.30483508e-81 1.34165878e-11
3.63078055e-02 1.38101841e-11 1.34165878e-11 3.93596300e-13 1.00898701e-70 4.88626836e-72 1.34165878e-11
4.16869383e-02 1.38529642e-11 1.34165878e-11 4.36376326e-13 1.92212434e-62 1.10556363e-63 1.34165878e-11
4.78630092e-02 1.38541303e-11 1.34165878e-11 4.37542449e-13 2.90302459e-55 1.89130819e-56 1.34165878e-11
5.49540874e-02 1.38286015e-11 1.34165878e-11 4.12013688e-13 4.81042362e-49 3.34587483e-50 1.34165878e-11
6.30957344e-02 1.37834737e-11 1.34165878e-11 3.66885877e-13 1.54910854e-43 1.13677325e-44 1.34165878e-11
7.24435960e-02 1.37177654e-11 1.34165878e-11 3.01177525e-13 8.90124088e-39 5.85525632e-40 1.34165878e-11
8.31763771e-02 1.37095214e-11 1.34165878e-11 2.92933530e-13 9.09048821e-35 5.86603172e-36 1.34165878e-11
9.54992586e-02 1.37244439e-11 1.34165878e-11 3.07856016e-13 2.55851193e-31 1.70538329e-32 1.34165878e-11
1.09647820e-01 1.31479285e-11 1.28127470e-11 3.35181573e-13 2.17753090e-28 1.63070920e-29 1.28127470e-11
1.25892541e-01 1.23074254e-11 1.19575512e-11 3.49874248e-13 7.05118299e-26 5.29963041e-27 1.19575512e-11
1.44543977e-01 1.15064987e-11 1.11594361e-11 3.47062622e-13 9.59854591e-24 7.21046031e-25 1.11594361e-11
1.65958691e-01 1.07705770e-11 1.04145917e-11 3.55985256e-13 4.87041619e-22 4.04889952e-23 1.04145917e-11
1.90546072e-01 1.00746208e-11 9.71946251e-12 3.55158323e-13 1.02784671e-20 9.82386699e-22 9.71946251e-12
2.18776162e-01 9.38715269e-12 9.07073019e-12 3.16422379e-13 1.21563633e-19 1.18911234e-20 9.07073019e-12
2.51188643e-01 8.83309863e-12 8.46529796e-12 3.67799178e-13 1.48503601e-18 1.78589295e-19 8.46529796e-12
2.88403150e-01 8.25276477e-12 7.90027573e-12 3.52476694e-13 1.23448831e-17 1.46936421e-18 7.90027573e-12
3.31131121e-01 7.71116202e-12 7.37296631e-12 3.38125179e-13 7.05396081e-17 8.12149852e-18 7.37296631e-12
3.80189396e-01 7.18985696e-12 6.88085251e-12 3.08710751e-13 2.93690022e-16 3.30272931e-17 6.88085251e-12
4.36515832e-01 6.71357815e-12 6.42158520e-12 2.91060295e-13 9.32656809e-16 1.04793782e-16 6.42158520e-12
5.01187234e-01 6.26147488e-12 5.99297201e-12 2.66114965e-13 2.38791059e-15 2.77963847e-16 5.99297201e-12
5.75439937e-01 5.84199933e-12 5.59296690e-12 2.43648531e-13 5.38390218e-15 7.28111099e-16 5.59296690e-12
6.60693448e-01 5.45203233e-12 5.21966041e-12 2.20324700e-13 1.20472198e-14 2.06701564e-15 5.21966041e-12
7.58577575e-01 5.09807062e-12 4.87127053e-12 1.97056322e-13 2.97437634e-14 6.40692806e-15 4.87127053e-12
8.70963590e-01 4.79380449e-12 4.54613417e-12 1.70343278e-13 7.73270419e-14 1.83883784e-14 4.54613417e-12
1.00000000e+00 4.57891424e-12 4.24269927e-12 1.42730899e-13 1.93484071e-13 4.59356450e-14 4.24269927e-12
1.14815362e+00 4.52130199e-12 3.95951734e-12 1.20244485e-13 4.41540168e-13 9.82899322e-14 3.95951734e-12
1.31825674e+00 4.69189211e-12 3.69523659e-12 9.41815197e-14 9.02474007e-13 1.75697870e-13 3.69523659e-12
1.51356125e+00 5.19725917e-12 3.44859544e-12 7.32375375e-14 1.67542620e-12 2.82791305e-13 3.44859544e-12
1.73780083e+00 6.01028214e-12 3.21841652e-12 5.57876731e-14 2.73607795e-12 3.84605182e-13 3.21841652e-12
1.99526231e+00 7.03297269e-12 3.00360106e-12 4.16148881e-14 3.98775674e-12 4.55651429e-13 3.00360106e-12
2.29086765e+00 8.10971784e-12 2.80312361e-12 2.99977642e-14 5.27659647e-12 4.77847367e-13 2.80312361e-12
2.63026799e+00 9.08181490e-12 2.61602716e-12 2.14942439e-14 6.44429350e-12 4.58987526e-13 2.61602716e-12
3.01995172e+00 9.85099895e-12 2.44141860e-12 1.56787028e-14 7.39390165e-12 4.06096524e-13 2.44141860e-12
3.46736850e+00 1.03895320e-11 2.27846441e-12 1.13166169e-14 8.09975095e-12 3.47225102e-13 2.27846441e-12
3.98107171e+00 1.07393927e-11 2.12638671e-12 8.02804610e-15 8.60497796e-12 2.82730119e-13 2.12638671e-12
4.57088190e+00 1.09294846e-11 1.98445954e-12 5.69849579e-15 8.93932655e-12 2.20585649e-13 1.98445954e-12
5.24807460e+00 1.08647480e-11 1.64084388e-12 3.48099193e-15 9.22042314e-12 1.59737155e-13 1.64084388e-12
6.02559586e+00 1.04589089e-11 1.08409480e-12 1.61515757e-15 9.37319894e-12 1.11538030e-13 1.08409480e-12
6.70000000e+00 1.01988864e-11 7.88574724e-13 8.53533414e-16 9.40945819e-12 8.05250309e-14 7.88574724e-13
6.92422916e+00 1.01287079e-11 7.14418944e-13 6.99258326e-16 9.41358966e-12 7.15915226e-14 7.14418944e-13
7.15596261e+00 1.01464893e-11 6.47236606e-13 5.56046543e-16 9.49869667e-12 6.30908776e-14 6.47236606e-13
7.39545150e+00 1.00331132e-11 5.86371942e-13 4.21430455e-16 9.44631982e-12 5.37729418e-14 5.86371942e-13
7.64295536e+00 1.01725565e-11 5.31230854e-13 2.82574756e-16 9.64104307e-12 4.26237273e-14 5.31230854e-13
7.89874245e+00 1.05242913e-11 4.81275108e-13 1.59997871e-16 1.00428562e-11 3.06683586e-14 4.81275108e-13
8.16308998e+00 1.10245770e-11 4.36017088e-13 8.61932560e-17 1.05884737e-11 2.14902084e-14 4.36017088e-13
8.43628443e+00 1.16887073e-11 3.95015029e-13 4.54513305e-17 1.12936469e-11 1.47202981e-14 3.95015029e-13
8.71862190e+00 1.21801487e-11 3.57868711e-13 2.82171131e-17 1.18222518e-11 1.10403412e-14 3.57868711e-13
9.01040836e+00 1.25276925e-11 3.24215549e-13 1.80098880e-17 1.22034589e-11 8.25284144e-15 3.24215549e-13
9.31196005e+00 1.29503118e-11 2.93727053e-13 0.00000000e+00 1.26565847e-11 0.00000000e+00 2.93727053e-13
9.62360379e+00 1.27864198e-11 2.66105627e-13 0.00000000e+00 1.25203141e-11 0.00000000e+00 2.66105627e-13
9.94567731e+00 1.24156505e-11 2.41081657e-13 0.00000000e+00 1.21745689e-11 0.00000000e+00 2.41081657e-13
1.02785297e+01 1.19754736e-11 2.18410884e-13 0.00000000e+00 1.17570627e-11 0.00000000e+00 2.18410884e-13
1.06225216e+01 1.16787058e-11 1.97872020e-13 0.00000000e+00 1.14808338e-11 0.00000000e+00 1.97872020e-13
1.09780260e+01 1.12130092e-11 1.79264583e-13 0.00000000e+00 1.10337446e-11 0.00000000e+00 1.79264583e-13
1.13454280e+01 1.10003295e-11 1.62406948e-13 0.00000000e+00 1.08379226e-11 0.00000000e+00 1.62406948e-13
1.17251259e+01 1.06599400e-11 1.47134567e-13 0.00000000e+00 1.05128054e-11 0.00000000e+00 1.47134567e-13
1.21175312e+01 1.03421260e-11 1.33298366e-13 0.00000000e+00 1.02088276e-11 0.00000000e+00 1.33298366e-13
1.25230691e+01 1.01771784e-11 1.20763289e-13 0.00000000e+00 1.00564151e-11 0.00000000e+00 1.20763289e-13
1.29421791e+01 1.00453826e-11 1.09406983e-13 0.00000000e+00 9.93597566e-12 0.00000000e+00 1.09406983e-13
1.33753155e+01 9.80578563e-12 9.91185987e-14 0.00000000e+00 9.70666704e-12 0.00000000e+00 9.91185987e-14
1.38229477e+01 9.61811581e-12 8.97977103e-14 0.00000000e+00 9.52831810e-12 0.00000000e+00 8.97977103e-14
1.42855609e+01 9.57971426e-12 8.13533371e-14 0.00000000e+00 9.49836092e-12 0.00000000e+00 8.13533371e-14
1.47636563e+01 9.58388804e-12 7.37030537e-14 0.00000000e+00 9.51018499e-12 0.00000000e+00 7.37030537e-14
1.52577522e+01 9.62751467e-12 6.67721855e-14 0.00000000e+00 9.56074248e-12 0.00000000e+00 6.67721855e-14
1.57683840e+01 9.69890154e-12 6.04930805e-14 0.00000000e+00 9.63840846e-12 0.00000000e+00 6.04930805e-14
1.62961051e+01 9.67019765e-12 5.48044484e-14 0.00000000e+00 9.61539320e-12 0.00000000e+00 5.48044484e-14
1.68414875e+01 9.62316469e-12 4.96507622e-14 0.00000000e+00 9.57351392e-12 0.00000000e+00 4.96507622e-14
1.74051222e+01 9.56618971e-12 4.49817171e-14 0.00000000e+00 9.52120799e-12 0.00000000e+00 4.49817171e-14
1.79876201e+01 9.49523956e-12 4.07517384e-14 0.00000000e+00 9.45448782e-12 0.00000000e+00 4.07517384e-14
1.85896125e+01 9.36354982e-12 3.69195372e-14 0.00000000e+00 9.32663028e-12 0.00000000e+00 3.69195372e-14
1.92117518e+01 9.20018508e-12 3.34477076e-14 0.00000000e+00 9.16673737e-12 0.00000000e+00 3.34477076e-14
1.98547123e+01 8.96940923e-12 3.03023610e-14 0.00000000e+00 8.93910687e-12 0.00000000e+00 3.03023610e-14
2.05191907e+01 8.74802671e-12 2.74527957e-14 0.00000000e+00 8.72057391e-12 0.00000000e+00 2.74527957e-14
2.12059073e+01 8.46568910e-12 2.48711970e-14 0.00000000e+00 8.44081791e-12 0.00000000e+00 2.48711970e-14
2.19156062e+01 8.21722490e-12 2.25323660e-14 0.00000000e+00 8.19469253e-12 0.00000000e+00 2.25323660e-14
2.26490567e+01 7.91624235e-12 2.04134733e-14 0.00000000e+00 7.89582887e-12 0.00000000e+00 2.04134733e-14
2.34070535e+01 7.67512358e-12 1.84938366e-14 0.00000000e+00 7.65662975e-12 0.00000000e+00 1.84938366e-14
2.41904183e+01 7.36974669e-12 1.67547181e-14 0.00000000e+00 7.35299197e-12 0.00000000e+00 1.67547181e-14
2.50000000e+01 7.08747857e-12 1.51791424e-14 0.00000000e+00 7.07229943e-12 0.00000000e+00 1.51791424e-14
2.75422870e+01 6.18856655e-12 1.13518661e-14 0.00000000e+00 6.17721468e-12 0.00000000e+00 1.13518661e-14
3.16227766e+01 4.91699094e-12 7.50010357e-15 0.00000000e+00 4.90949083e-12 0.00000000e+00 7.50010357e-15
3.63078055e+01 3.66814420e-12 4.95526929e-15 0.00000000e+00 3.66318893e-12 0.00000000e+00 4.95526929e-15
4.16869383e+01 2.58508060e-12 3.27391395e-15 0.00000000e+00 2.58180669e-12 0.00000000e+00 3.27391395e-15
4.78630092e+01 1.72259424e-12 2.16305350e-15 0.00000000e+00 1.72043119e-12 0.00000000e+00 2.16305350e-15
5.49540874e+01 1.08013394e-12 1.42911527e-15 0.00000000e+00 1.07870482e-12 0.00000000e+00 1.42911527e-15
6.30957344e+01 6.49923855e-13 9.44207098e-16 0.00000000e+00 6.48979648e-13 0.00000000e+00 9.44207098e-16
7.24435960e+01 3.75932481e-13 6.23831443e-16 0.00000000e+00 3.75308650e-13 0.00000000e+00 6.23831443e-16
8.31763771e+01 2.11197517e-13 4.12161347e-16 0.00000000e+00 2.10785356e-13 0.00000000e+00 4.12161347e-16
9.54992586e+01 1.16205430e-13 2.72312302e-16 0.00000000e+00 1.15933117e-13 0.00000000e+00 2.72312302e-16
1.09647820e+02 6.30191483e-14 1.79914953e-16 0.00000000e+00 6.28392333e-14 0.00000000e+00 1.79914953e-16
1.25892541e+02 3.41451385e-14 1.18868631e-16 0.00000000e+00 3.40262699e-14 0.00000000e+00 1.18868631e-16
1.44543977e+02 1.84270514e-14 7.85357256e-17 0.00000000e+00 1.83485157e-14 0.00000000e+00 7.85357256e-17
1.65958691e+02 9.50007926e-15 5.18880394e-17 0.00000000e+00 9.44819122e-15 0.00000000e+00 5.18880394e-17
1.90546072e+02 4.90722625e-15 3.42820876e-17 0.00000000e+00 4.87294416e-15 0.00000000e+00 3.42820876e-17
2.18776162e+02 2.53484016e-15 2.26499507e-17 0.00000000e+00 2.51219020e-15 0.00000000e+00 2.26499507e-17
2.51188643e+02 1.30752953e-15 1.49646740e-17 0.00000000e+00 1.29256486e-15 0.00000000e+00 1.49646740e-17
2.88403150e+02 6.72466831e-16 9.88706207e-18 0.00000000e+00 6.62579769e-16 0.00000000e+00 9.88706207e-18
3.31131121e+02 3.45662015e-16 6.53231713e-18 0.00000000e+00 3.39129698e-16 0.00000000e+00 6.53231713e-18
3.80189396e+02 1.77401049e-16 4.31585913e-18 0.00000000e+00 1.73085190e-16 0.00000000e+00 4.31585913e-18
4.36515832e+02 9.10459001e-17 2.85145985e-18 0.00000000e+00 8.81944402e-17 0.00000000e+00 2.85145985e-18
5.01187234e+02 4.67380253e-17 1.88394084e-18 0.00000000e+00 4.48540845e-17 0.00000000e+00 1.88394084e-18
5.75439937e+02 2.40215822e-17 1.24470737e-18 0.00000000e+00 2.27768748e-17 0.00000000e+00 1.24470737e-18
6.60693448e+02 1.23735828e-17 8.22370004e-19 0.00000000e+00 1.15512128e-17 0.00000000e+00 8.22370004e-19
7.58577575e+02 6.39484407e-18 5.43334473e-19 0.00000000e+00 5.85150959e-18 0.00000000e+00 5.43334473e-19
8.70963590e+02 3.31954473e-18 3.58977527e-19 0.00000000e+00 2.96056721e-18 0.00000000e+00 3.58977527e-19
1.00000000e+03 1.49613365e-18 0.00000000e+00 0.00000000e+00 1.49613365e-18 0.00000000e+00 0.00000000e+00
