# column 1: lambda (micron)
# column 2: total flux; lambda*F_lambda (W/m2)
# column 3: direct stellar flux; lambda*F_lambda (W/m2)
# column 4: scattered stellar flux; lambda*F_lambda (W/m2)
# column 5: total dust emission flux; lambda*F_lambda (W/m2)
# column 6: dust emission scattered flux; lambda*F_lambda (W/m2)
# column 7: transparent flux; lambda*F_lambda (W/m2)
1.00000000e-03 1.07335649e-12 1.07335627e-12 2.21141833e-19 0.00000000e+00 0.00000000e+00 1.07335627e-12
1.14815362e-03 1.26690491e-12 1.26690456e-12 3.52547019e-19 0.00000000e+00 0.00000000e+00 1.26690456e-12
1.31825674e-03 1.49535414e-12 1.49535359e-12 5.54693950e-19 0.00000000e+00 0.00000000e+00 1.49535359e-12
1.51356125e-03 1.76499755e-12 1.76499670e-12 8.47822361e-19 0.00000000e+00 0.00000000e+00 1.76499670e-12
1.73780083e-03 2.08326359e-12 2.08326203e-12 1.56529080e-18 0.00000000e+00 0.00000000e+00 2.08326203e-12
1.99526231e-03 2.45892002e-12 2.45891716e-12 2.86336790e-18 0.00000000e+00 0.00000000e+00 2.45891716e-12
2.29086765e-03 2.90231509e-12 2.90231066e-12 4.42352493e-18 0.00000000e+00 0.00000000e+00 2.90231066e-12
2.63026799e-03 3.42566595e-12 3.42565717e-12 8.78341276e-18 0.00000000e+00 0.00000000e+00 3.42565717e-12
3.01995172e-03 4.04338856e-12 4.04337385e-12 1.47168976e-17 0.00000000e+00 0.00000000e+00 4.04337385e-12
3.46736850e-03 4.77250331e-12 4.77247759e-12 2.57191932e-17 0.00000000e+00 0.00000000e+00 4.77247759e-12
3.98107171e-03 5.63309515e-12 5.63305378e-12 4.13733626e-17 0.00000000e+00 0.00000000e+00 5.63305378e-12
4.57088190e-03 6.64890061e-12 6.64880962e-12 9.09882368e-17 0.00000000e+00 0.00000000e+00 6.64880962e-12
5.24807460e-03 7.84789245e-12 7.84772720e-12 1.65253544e-16 0.00000000e+00 0.00000000e+00 7.84772720e-12
6.02559586e-03 9.26314192e-12 9.26283435e-12 3.07568750e-16 0.00000000e+00 0.00000000e+00 9.26283435e-12
6.91830971e-03 1.09335951e-11 1.09331145e-11 4.80611015e-16 0.00000000e+00 0.00000000e+00 1.09331145e-11
7.94328235e-03 1.29053755e-11 1.29045807e-11 7.94828687e-16 5.86296487e-304 3.58536541e-307 1.29045807e-11
9.12010839e-03 1.52328195e-11 1.52315429e-11 1.27662685e-15 2.53743039e-265 2.64617867e-268 1.52315429e-11
1.04712855e-02 1.70133407e-11 1.70115517e-11 1.78900859e-15 1.06001307e-231 1.14190592e-234 1.70115517e-11
1.20226443e-02 1.70159405e-11 1.70115517e-11 4.38883082e-15 1.64408465e-202 3.00382144e-205 1.70115517e-11
1.38038426e-02 1.70155907e-11 1.70115517e-11 4.03896296e-15 4.44567520e-177 1.61411804e-179 1.70115517e-11
1.58489319e-02 1.70168968e-11 1.70115517e-11 5.34506356e-15 5.96358077e-155 2.16495327e-157 1.70115517e-11
1.81970086e-02 1.70190309e-11 1.70115517e-11 7.47922347e-15 1.05681993e-135 4.80490362e-138 1.70115517e-11
2.08929613e-02 1.70221327e-11 1.70115517e-11 1.05809673e-14 5.49219831e-119 3.56705900e-121 1.70115517e-11
2.39883292e-02 1.70269692e-11 1.70115517e-11 1.54174485e-14 1.91835658e-104 1.65658746e-106 1.70115517e-11
2.75422870e-02 1.70321549e-11 1.70115517e-11 2.06031455e-14 8.55624109e-92 9.76813386e-94 1.70115517e-11
3.16227766e-02 1.70378432e-11 1.70115517e-11 2.62914808e-14 8.32222820e-81 1.24191513e-82 1.70115517e-11
3.63078055e-02 1.70411427e-11 1.70115517e-11 2.95909970e-14 2.87786772e-71 4.97120760e-73 1.70115517e-11
4.16869383e-02 1.70543703e-11 1.70115517e-11 4.28185755e-14 5.47202246e-63 1.34768665e-64 1.70115517e-11
4.78630092e-02 1.70725167e-11 1.70115517e-11 6.09650020e-14 8.28419590e-56 2.85329098e-57 1.70115517e-11
5.49540874e-02 1.70949618e-11 1.70115517e-11 8.34101012e-14 1.38096388e-49 6.10055512e-51 1.70115517e-11
6.30957344e-02 1.71204291e-11 1.70115517e-11 1.08877347e-13 4.49237057e-44 2.53732983e-45 1.70115517e-11
7.24435960e-02 1.71201906e-11 1.70115517e-11 1.08638834e-13 2.60857801e-39 1.49253490e-40 1.70115517e-11
8.31763771e-02 1.71217642e-11 1.70115517e-11 1.10212500e-13 2.66869016e-35 1.53948026e-36 1.70115517e-11
9.54992586e-02 1.71258693e-11 1.70115517e-11 1.14317553e-13 7.51288340e-32 4.53814007e-33 1.70115517e-11
1.09647820e-01 1.63591374e-11 1.62459122e-11 1.13225235e-13 6.34935733e-29 4.01002627e-30 1.62459122e-11
1.25892541e-01 1.52580767e-11 1.51615674e-11 9.65093594e-14 2.04214914e-26 1.18491170e-27 1.51615674e-11
1.44543977e-01 1.42318383e-11 1.41495980e-11 8.22402791e-14 2.76772861e-24 1.50945597e-25 1.41495980e-11
1.65958691e-01 1.32923398e-11 1.32051732e-11 8.71666441e-14 1.40089016e-22 8.52543099e-24 1.32051732e-11
1.90546072e-01 1.24239193e-11 1.23237846e-11 1.00134624e-13 2.96316493e-21 2.23642344e-22 1.23237846e-11
2.18776162e-01 1.16097740e-11 1.15012250e-11 1.08548977e-13 3.53434551e-20 3.00318063e-21 1.15012250e-11
2.51188643e-01 1.08561176e-11 1.07335677e-11 1.22549437e-13 4.29611571e-19 4.46807645e-20 1.07335677e-11
2.88403150e-01 1.01220058e-11 1.00171482e-11 1.04853993e-13 3.56016334e-18 3.57211201e-19 1.00171482e-11
3.31131121e-01 9.44338047e-12 9.34854667e-12 9.48134831e-14 2.03098312e-17 1.92052631e-18 9.34854667e-12
3.80189396e-01 8.80982709e-12 8.72457139e-12 8.51710496e-14 8.46481019e-17 7.69479539e-18 8.72457139e-12
4.36515832e-01 8.22073921e-12 8.14224377e-12 7.82240923e-14 2.71348864e-16 2.48859702e-17 8.14224377e-12
5.01187234e-01 7.67291557e-12 7.59878402e-12 7.34264572e-14 7.05094687e-16 6.69000733e-17 7.59878402e-12
5.75439937e-01 7.16088675e-12 7.09159786e-12 6.76783753e-14 1.61050540e-15 1.65809918e-16 7.09159786e-12
6.60693448e-01 6.68403445e-12 6.61826421e-12 6.22739765e-14 3.49626356e-15 4.16469322e-16 6.61826421e-12
7.58577575e-01 6.24092176e-12 6.17652353e-12 5.67739787e-14 7.62425122e-15 1.02971304e-15 6.17652353e-12
8.70963590e-01 5.83245283e-12 5.76426715e-12 5.15610267e-14 1.66246513e-14 2.43221564e-15 5.76426715e-12
1.00000000e+00 5.45848155e-12 5.37952711e-12 4.42358270e-14 3.47186104e-14 5.16220513e-15 5.37952711e-12
1.14815362e+00 5.12726049e-12 5.02046681e-12 3.77159230e-14 6.90777562e-14 9.87744920e-15 5.02046681e-12
1.31825674e+00 4.84505205e-12 4.68537225e-12 3.03255148e-14 1.29354290e-13 1.65583986e-14 4.68537225e-12
1.51356125e+00 4.62032824e-12 4.37264380e-12 2.40843999e-14 2.23600038e-13 2.48456616e-14 4.37264380e-12
1.73780083e+00 4.45098999e-12 4.08078863e-12 1.75470384e-14 3.52654318e-13 3.25417611e-14 4.08078863e-12
1.99526231e+00 4.32914076e-12 3.80841354e-12 1.26078603e-14 5.08119361e-13 3.68695958e-14 3.80841354e-12
2.29086765e+00 4.23434627e-12 3.55421832e-12 9.29546898e-15 6.70832484e-13 3.73077948e-14 3.55421832e-12
2.63026799e+00 4.14461674e-12 3.31698953e-12 6.28179440e-15 8.21345420e-13 3.45059702e-14 3.31698953e-12
3.01995172e+00 4.04594184e-12 3.09559474e-12 4.23086603e-15 9.46116228e-13 2.93701174e-14 3.09559474e-12
3.46736850e+00 3.92326587e-12 2.88897711e-12 2.93854241e-15 1.03135022e-12 2.38319414e-14 2.88897711e-12
3.98107171e+00 3.76839919e-12 2.69615031e-12 1.95218264e-15 1.07029669e-12 1.82815931e-14 2.69615031e-12
4.57088190e+00 3.58405466e-12 2.51619387e-12 1.32632287e-15 1.06653446e-12 1.31648768e-14 2.51619387e-12
5.24807460e+00 3.11748824e-12 2.08050667e-12 7.69418499e-16 1.03621215e-12 8.92887877e-15 2.08050667e-12
6.02559586e+00 2.36289918e-12 1.37457712e-12 3.42746781e-16 9.87979310e-13 5.78031466e-15 1.37457712e-12
6.70000000e+00 1.94555618e-12 9.99872685e-13 1.79548245e-16 9.45503944e-13 3.95050465e-15 9.99872685e-13
6.92422916e+00 1.83350177e-12 9.05846924e-13 1.45218223e-16 9.27509632e-13 3.49098298e-15 9.05846924e-13
7.15596261e+00 1.74124450e-12 8.20663132e-13 1.13467649e-16 9.20467901e-13 3.03831302e-15 8.20663132e-13
7.39545150e+00 1.67033578e-12 7.43489831e-13 8.91873056e-17 9.26756766e-13 2.60685206e-15 7.43489831e-13
7.64295536e+00 1.66129151e-12 6.73573732e-13 6.08592724e-17 9.87656919e-13 2.13703420e-15 6.73573732e-13
7.89874245e+00 1.73477924e-12 6.10232385e-13 3.60457028e-17 1.12451081e-12 1.67399661e-15 6.10232385e-13
8.16308998e+00 1.88493122e-12 5.52847515e-13 2.06664720e-17 1.33206304e-12 1.27981095e-15 5.52847515e-13
8.43628443e+00 2.11093855e-12 5.00858987e-13 1.14591197e-17 1.61006810e-12 9.66784049e-16 5.00858987e-13
8.71862190e+00 2.28558882e-12 4.53759343e-13 7.36356397e-18 1.83182211e-12 7.61105631e-16 4.53759343e-13
9.01040836e+00 2.46534708e-12 4.11088843e-13 5.05164590e-18 2.05425318e-12 5.90295618e-16 4.11088843e-13
9.31196005e+00 2.62056338e-12 3.72430980e-13 0.00000000e+00 2.24813240e-12 0.00000000e+00 3.72430980e-13
9.62360379e+00 2.57822717e-12 3.37408415e-13 0.00000000e+00 2.24081876e-12 0.00000000e+00 3.37408415e-13
9.94567731e+00 2.42338506e-12 3.05679292e-13 0.00000000e+00 2.11770577e-12 0.00000000e+00 3.05679292e-13
1.02785297e+01 2.23615507e-12 2.76933904e-13 0.00000000e+00 1.95922116e-12 0.00000000e+00 2.76933904e-13
1.06225216e+01 2.04418609e-12 2.50891667e-13 0.00000000e+00 1.79329442e-12 0.00000000e+00 2.50891667e-13
1.09780260e+01 1.84855275e-12 2.27298384e-13 0.00000000e+00 1.62125436e-12 0.00000000e+00 2.27298384e-13
1.13454280e+01 1.67533416e-12 2.05923759e-13 0.00000000e+00 1.46941040e-12 0.00000000e+00 2.05923759e-13
1.17251259e+01 1.52545808e-12 1.86559155e-13 0.00000000e+00 1.33889893e-12 0.00000000e+00 1.86559155e-13
1.21175312e+01 1.39786816e-12 1.69015555e-13 0.00000000e+00 1.22885261e-12 0.00000000e+00 1.69015555e-13
1.25230691e+01 1.27998878e-12 1.53121715e-13 0.00000000e+00 1.12686707e-12 0.00000000e+00 1.53121715e-13
1.29421791e+01 1.18189160e-12 1.38722496e-13 0.00000000e+00 1.04316911e-12 0.00000000e+00 1.38722496e-13
1.33753155e+01 1.09595911e-12 1.25677347e-13 0.00000000e+00 9.70281761e-13 0.00000000e+00 1.25677347e-13
1.38229477e+01 1.04426074e-12 1.13858934e-13 0.00000000e+00 9.30401803e-13 0.00000000e+00 1.13858934e-13
1.42855609e+01 1.01189908e-12 1.03151898e-13 0.00000000e+00 9.08747183e-13 0.00000000e+00 1.03151898e-13
1.47636563e+01 1.02512682e-12 9.34517274e-14 0.00000000e+00 9.31675092e-13 0.00000000e+00 9.34517274e-14
1.52577522e+01 1.04793220e-12 8.46637387e-14 0.00000000e+00 9.63268458e-13 0.00000000e+00 8.46637387e-14
1.57683840e+01 1.08376994e-12 7.67021526e-14 0.00000000e+00 1.00706779e-12 0.00000000e+00 7.67021526e-14
1.62961051e+01 1.12078966e-12 6.94892560e-14 0.00000000e+00 1.05130041e-12 0.00000000e+00 6.94892560e-14
1.68414875e+01 1.15990367e-12 6.29546439e-14 0.00000000e+00 1.09694902e-12 0.00000000e+00 6.29546439e-14
1.74051222e+01 1.18226844e-12 5.70345319e-14 0.00000000e+00 1.12523390e-12 0.00000000e+00 5.70345319e-14
1.79876201e+01 1.19874217e-12 5.16711337e-14 0.00000000e+00 1.14707103e-12 0.00000000e+00 5.16711337e-14
1.85896125e+01 1.20106902e-12 4.68120974e-14 0.00000000e+00 1.15425692e-12 0.00000000e+00 4.68120974e-14
1.92117518e+01 1.18788055e-12 4.24099939e-14 0.00000000e+00 1.14547055e-12 0.00000000e+00 4.24099939e-14
1.98547123e+01 1.16505619e-12 3.84218542e-14 0.00000000e+00 1.12663433e-12 0.00000000e+00 3.84218542e-14
2.05191907e+01 1.14130574e-12 3.48087501e-14 0.00000000e+00 1.10649699e-12 0.00000000e+00 3.48087501e-14
2.12059073e+01 1.11644277e-12 3.15354141e-14 0.00000000e+00 1.08490735e-12 0.00000000e+00 3.15354141e-14
2.19156062e+01 1.09195970e-12 2.85698952e-14 0.00000000e+00 1.06338981e-12 0.00000000e+00 2.85698952e-14
2.26490567e+01 1.07221608e-12 2.58832470e-14 0.00000000e+00 1.04633283e-12 0.00000000e+00 2.58832470e-14
2.34070535e+01 1.05897774e-12 2.34492452e-14 0.00000000e+00 1.03552849e-12 0.00000000e+00 2.34492452e-14
2.41904183e+01 1.03819488e-12 2.12441313e-14 0.00000000e+00 1.01695075e-12 0.00000000e+00 2.12441313e-14
2.50000000e+01 1.02046898e-12 1.92463813e-14 0.00000000e+00 1.00122260e-12 0.00000000e+00 1.92463813e-14
2.75422870e+01 9.64906648e-13 1.43935895e-14 0.00000000e+00 9.50513058e-13 0.00000000e+00 1.43935895e-14
3.16227766e+01 8.71602317e-13 9.50975027e-15 0.00000000e+00 8.62092567e-13 0.00000000e+00 9.50975027e-15
3.63078055e+01 7.42463648e-13 6.28302969e-15 0.00000000e+00 7.36180618e-13 0.00000000e+00 6.28302969e-15
4.16869383e+01 5.94896526e-13 4.15115655e-15 0.00000000e+00 5.90745370e-13 0.00000000e+00 4.15115655e-15
4.78630092e+01 4.46788018e-13 2.74264194e-15 0.00000000e+00 4.44045376e-13 0.00000000e+00 2.74264194e-15
5.49540874e+01 3.14113370e-13 1.81204556e-15 0.00000000e+00 3.12301325e-13 0.00000000e+00 1.81204556e-15
6.30957344e+01 2.09419142e-13 1.19720663e-15 0.00000000e+00 2.08221936e-13 0.00000000e+00 1.19720663e-15
7.24435960e+01 1.33253373e-13 7.90986575e-16 0.00000000e+00 1.32462386e-13 0.00000000e+00 7.90986575e-16
8.31763771e+01 8.17352004e-14 5.22599647e-16 0.00000000e+00 8.12126008e-14 0.00000000e+00 5.22599647e-16
9.54992586e+01 4.86649838e-14 3.45278163e-16 0.00000000e+00 4.83197056e-14 0.00000000e+00 3.45278163e-16
1.09647820e+02 2.82816399e-14 2.28123020e-16 0.00000000e+00 2.80535169e-14 0.00000000e+00 2.28123020e-16
1.25892541e+02 1.62973409e-14 1.50719385e-16 0.00000000e+00 1.61466215e-14 0.00000000e+00 1.50719385e-16
1.44543977e+02 9.28257164e-15 9.95793099e-17 0.00000000e+00 9.18299233e-15 0.00000000e+00 9.95793099e-17
1.65958691e+02 5.02255822e-15 6.57913976e-17 0.00000000e+00 4.95676682e-15 0.00000000e+00 6.57913976e-17
1.90546072e+02 2.70661214e-15 4.34679453e-17 0.00000000e+00 2.66314419e-15 0.00000000e+00 4.34679453e-17
2.18776162e+02 1.45132874e-15 2.87189867e-17 0.00000000e+00 1.42260976e-15 0.00000000e+00 2.87189867e-17
2.51188643e+02 7.73568943e-16 1.89744463e-17 0.00000000e+00 7.54594496e-16 0.00000000e+00 1.89744463e-17
2.88403150e+02 4.09782195e-16 1.25362924e-17 0.00000000e+00 3.97245902e-16 0.00000000e+00 1.25362924e-17
3.31131121e+02 2.16325226e-16 8.28264623e-18 0.00000000e+00 2.08042580e-16 0.00000000e+00 8.28264623e-18
3.80189396e+02 1.13787691e-16 5.47229010e-18 0.00000000e+00 1.08315401e-16 0.00000000e+00 5.47229010e-18
4.36515832e+02 5.97650309e-17 3.61550621e-18 0.00000000e+00 5.61495247e-17 0.00000000e+00 3.61550621e-18
5.01187234e+02 3.13746512e-17 2.38874127e-18 0.00000000e+00 2.89859100e-17 0.00000000e+00 2.38874127e-18
5.75439937e+02 1.64888208e-17 1.57822570e-18 0.00000000e+00 1.49105951e-17 0.00000000e+00 1.57822570e-18
6.60693448e+02 8.68963791e-18 1.04272338e-18 0.00000000e+00 7.64691453e-18 0.00000000e+00 1.04272338e-18
7.58577575e+02 4.60039350e-18 6.88920507e-19 0.00000000e+00 3.91147300e-18 0.00000000e+00 6.88920507e-19
8.70963590e+02 2.45088093e-18 4.55165265e-19 0.00000000e+00 1.99571567e-18 0.00000000e+00 4.55165265e-19
1.00000000e+03 1.01593060e-18 0.00000000e+00 0.00000000e+00 1.01593060e-18 0.00000000e+00 0.00000000e+00
