# column 1: lambda (micron)
# column 2: total flux; lambda*F_lambda (W/m2)
# column 3: direct stellar flux; lambda*F_lambda (W/m2)
# column 4: scattered stellar flux; lambda*F_lambda (W/m2)
# column 5: total dust emission flux; lambda*F_lambda (W/m2)
# column 6: dust emission scattered flux; lambda*F_lambda (W/m2)
# column 7: transparent flux; lambda*F_lambda (W/m2)
1.00000000e-03 1.04634652e-12 1.04634360e-12 2.92007207e-18 0.00000000e+00 0.00000000e+00 1.04634360e-12
1.14815362e-03 1.23502553e-12 1.23502095e-12 4.58320902e-18 0.00000000e+00 0.00000000e+00 1.23502095e-12
1.31825674e-03 1.45772781e-12 1.45772071e-12 7.09936398e-18 0.00000000e+00 0.00000000e+00 1.45772071e-12
1.51356125e-03 1.72058870e-12 1.72057784e-12 1.08650702e-17 0.00000000e+00 0.00000000e+00 1.72057784e-12
1.73780083e-03 2.03085272e-12 2.03083353e-12 1.91975012e-17 0.00000000e+00 0.00000000e+00 2.03083353e-12
1.99526231e-03 2.39706878e-12 2.39703472e-12 3.40651614e-17 0.00000000e+00 0.00000000e+00 2.39703472e-12
2.29086765e-03 2.82932259e-12 2.82926954e-12 5.30507331e-17 0.00000000e+00 0.00000000e+00 2.82926954e-12
2.63026799e-03 3.33955149e-12 3.33944522e-12 1.06261747e-16 0.00000000e+00 0.00000000e+00 3.33944522e-12
3.01995172e-03 3.94179208e-12 3.94161611e-12 1.75969738e-16 0.00000000e+00 0.00000000e+00 3.94161611e-12
3.46736850e-03 4.65266126e-12 4.65237083e-12 2.90429093e-16 0.00000000e+00 0.00000000e+00 4.65237083e-12
3.98107171e-03 5.49175747e-12 5.49128930e-12 4.68171593e-16 0.00000000e+00 0.00000000e+00 5.49128930e-12
4.57088190e-03 6.48254911e-12 6.48148207e-12 1.06703784e-15 0.00000000e+00 0.00000000e+00 6.48148207e-12
5.24807460e-03 7.65229903e-12 7.65022704e-12 2.07198694e-15 0.00000000e+00 0.00000000e+00 7.65022704e-12
6.02559586e-03 9.03345471e-12 9.02972084e-12 3.73386213e-15 0.00000000e+00 0.00000000e+00 9.02972084e-12
6.91830971e-03 1.06634903e-11 1.06579658e-11 5.52445310e-15 0.00000000e+00 0.00000000e+00 1.06579658e-11
7.94328235e-03 1.25926764e-11 1.25798170e-11 1.28593648e-14 0.00000000e+00 0.00000000e+00 1.25798170e-11
9.12010839e-03 1.48627736e-11 1.48482176e-11 1.45560119e-14 0.00000000e+00 0.00000000e+00 1.48482176e-11
1.04712855e-02 1.66056655e-11 1.65834298e-11 2.22357282e-14 0.00000000e+00 0.00000000e+00 1.65834298e-11
1.20226443e-02 1.66132503e-11 1.65834298e-11 2.98205491e-14 0.00000000e+00 0.00000000e+00 1.65834298e-11
1.38038426e-02 1.66552578e-11 1.65834298e-11 7.18279868e-14 1.04455675e-290 8.30383614e-292 1.65834298e-11
1.58489319e-02 1.66493744e-11 1.65834298e-11 6.59446111e-14 7.85287888e-254 7.85723239e-255 1.65834298e-11
1.81970086e-02 1.66713856e-11 1.65834298e-11 8.79557670e-14 9.52086263e-222 8.64787879e-223 1.65834298e-11
2.08929613e-02 1.67044397e-11 1.65834298e-11 1.21009926e-13 7.75269539e-194 7.94414880e-195 1.65834298e-11
2.39883292e-02 1.67451476e-11 1.65834298e-11 1.61717832e-13 1.56376483e-169 1.91785719e-170 1.65834298e-11
2.75422870e-02 1.67875097e-11 1.65834298e-11 2.04079866e-13 2.24711786e-148 2.98110699e-149 1.65834298e-11
3.16227766e-02 1.68466755e-11 1.65834298e-11 2.63245697e-13 5.74358203e-130 8.14154245e-131 1.65834298e-11
3.63078055e-02 1.68824244e-11 1.65834298e-11 2.98994616e-13 5.92419920e-114 8.80312966e-115 1.65834298e-11
4.16869383e-02 1.69805336e-11 1.65834298e-11 3.97103849e-13 5.14061484e-100 8.77878957e-101 1.65834298e-11
4.78630092e-02 1.71012219e-11 1.65834298e-11 5.17792072e-13 6.67147860e-88 1.31382075e-88 1.65834298e-11
5.49540874e-02 1.71932407e-11 1.65834298e-11 6.09810888e-13 2.21552213e-77 4.86610606e-78 1.65834298e-11
6.30957344e-02 1.72596995e-11 1.65834298e-11 6.76269701e-13 3.91624290e-68 9.50051065e-69 1.65834298e-11
7.24435960e-02 1.71930490e-11 1.65834298e-11 6.09619240e-13 4.00821835e-60 9.27563975e-61 1.65834298e-11
8.31763771e-02 1.71761117e-11 1.65834298e-11 5.92681877e-13 3.03862336e-53 6.85534216e-54 1.65834298e-11
9.54992586e-02 1.72136456e-11 1.65834298e-11 6.30215780e-13 2.84578690e-47 6.65665671e-48 1.65834298e-11
1.09647820e-01 1.64906744e-11 1.58370587e-11 6.53615669e-13 4.05106780e-42 1.01158615e-42 1.58370587e-11
1.25892541e-01 1.54037508e-11 1.47800032e-11 6.23747678e-13 1.15074333e-37 2.81115393e-38 1.47800032e-11
1.44543977e-01 1.43643719e-11 1.37935015e-11 5.70870413e-13 7.91781532e-34 1.87201632e-34 1.37935015e-11
1.65958691e-01 1.34664730e-11 1.28728446e-11 5.93628362e-13 1.27911639e-30 3.28216475e-31 1.28728446e-11
1.90546072e-01 1.26537709e-11 1.20136376e-11 6.40133341e-13 5.57795333e-28 1.61910034e-28 1.20136376e-11
2.18776162e-01 1.18054581e-11 1.12117790e-11 5.93679154e-13 9.27169111e-26 2.76493844e-26 1.12117790e-11
2.51188643e-01 1.11515617e-11 1.04634409e-11 6.88120803e-13 1.36054293e-23 4.71329367e-24 1.04634409e-11
2.88403150e-01 1.04050583e-11 9.76505125e-12 6.40007066e-13 1.00455081e-21 3.48518081e-22 9.76505125e-12
3.31131121e-01 9.69683440e-12 9.11327608e-12 5.83558282e-13 4.04173446e-20 1.38830294e-20 9.11327608e-12
3.80189396e-01 9.04379163e-12 8.50500410e-12 5.38786560e-13 9.74117432e-19 3.32815695e-19 8.50500410e-12
4.36515832e-01 8.42976413e-12 7.93733165e-12 4.92417581e-13 1.49013776e-17 5.08656515e-18 7.93733165e-12
5.01187234e-01 7.86313723e-12 7.40754890e-12 4.55434696e-13 1.53631661e-16 5.21963033e-17 7.40754890e-12
5.75439937e-01 7.32430965e-12 6.91312687e-12 4.10085765e-13 1.09702065e-15 3.66989600e-16 6.91312687e-12
6.60693448e-01 6.83327538e-12 6.45170538e-12 3.75699264e-13 5.87073830e-15 1.91545151e-15 6.45170538e-12
7.58577575e-01 6.38074413e-12 6.02108180e-12 3.35823070e-13 2.38392637e-14 7.54110395e-15 6.02108180e-12
8.70963590e-01 5.98911489e-12 5.61920048e-12 2.91195903e-13 7.87185088e-14 2.35941196e-14 5.61920048e-12
1.00000000e+00 5.70568497e-12 5.24414302e-12 2.48200566e-13 2.13341390e-13 5.97487696e-14 5.24414302e-12
1.14815362e+00 5.60273438e-12 4.89411902e-12 2.02104391e-13 5.06510969e-13 1.28707451e-13 4.89411902e-12
1.31825674e+00 5.77561032e-12 4.56745763e-12 1.58084994e-13 1.05006770e-12 2.33640061e-13 4.56745763e-12
1.51356125e+00 6.33294543e-12 4.26259947e-12 1.20643931e-13 1.94970203e-12 3.72033307e-13 4.26259947e-12
1.73780083e+00 7.27352195e-12 3.97808929e-12 9.26881008e-14 3.20274456e-12 5.10626479e-13 3.97808929e-12
1.99526231e+00 8.47726514e-12 3.71256894e-12 6.84822223e-14 4.69621398e-12 6.05548264e-13 3.71256894e-12
2.29086765e+00 9.70971464e-12 3.46477093e-12 4.91860273e-14 6.19575768e-12 6.23852456e-13 3.46477093e-12
2.63026799e+00 1.08365856e-11 3.23351237e-12 3.54583702e-14 7.56761484e-12 5.79604763e-13 3.23351237e-12
3.01995172e+00 1.16390780e-11 3.01768933e-12 2.45042375e-14 8.59688440e-12 4.94883555e-13 3.01768933e-12
3.46736850e+00 1.20183025e-11 2.81627154e-12 1.68568802e-14 9.18517404e-12 3.85197717e-13 2.81627154e-12
3.98107171e+00 1.20283872e-11 2.62829753e-12 1.12914347e-14 9.38879822e-12 2.83873003e-13 2.62829753e-12
4.57088190e+00 1.16726857e-11 2.45286997e-12 7.47218795e-15 9.21234350e-12 1.93621818e-13 2.45286997e-12
5.24807460e+00 1.08714808e-11 2.02814751e-12 4.16226738e-15 8.83917098e-12 1.25599616e-13 2.02814751e-12
6.02559586e+00 9.74959191e-12 1.33998377e-12 1.76431095e-15 8.40784382e-12 7.72696414e-14 1.33998377e-12
6.70000000e+00 8.98177520e-12 9.74709347e-13 8.98940775e-16 8.00616692e-12 5.09324023e-14 9.74709347e-13
6.92422916e+00 8.75709189e-12 8.83049889e-13 7.17934647e-16 7.87332406e-12 4.41960381e-14 8.83049889e-13
7.15596261e+00 8.60032428e-12 8.00009879e-13 5.69503801e-16 7.79974489e-12 3.84842282e-14 8.00009879e-13
7.39545150e+00 8.57991196e-12 7.24778763e-13 4.38525584e-16 7.85469468e-12 3.28461931e-14 7.24778763e-13
7.64295536e+00 8.94384094e-12 6.56622211e-13 3.06741476e-16 8.28691199e-12 2.75425245e-14 6.56622211e-13
7.89874245e+00 9.81541932e-12 5.94874946e-13 1.91995974e-16 9.22035238e-12 2.20551512e-14 5.94874946e-13
8.16308998e+00 1.10592067e-11 5.38934254e-13 1.13650785e-16 1.05201588e-11 1.74553758e-14 5.38934254e-13
8.43628443e+00 1.25585775e-11 4.88254098e-13 6.41431564e-17 1.20702593e-11 1.32508995e-14 4.88254098e-13
8.71862190e+00 1.35280091e-11 4.42339790e-13 4.04296352e-17 1.30856289e-11 1.04431963e-14 4.42339790e-13
9.01040836e+00 1.44517007e-11 4.00743158e-13 2.48915539e-17 1.40509327e-11 8.05626685e-15 4.00743158e-13
9.31196005e+00 1.51375700e-11 3.63058180e-13 0.00000000e+00 1.47745118e-11 0.00000000e+00 3.63058180e-13
9.62360379e+00 1.50098432e-11 3.28917012e-13 0.00000000e+00 1.46809262e-11 0.00000000e+00 3.28917012e-13
9.94567731e+00 1.41835668e-11 2.97986401e-13 0.00000000e+00 1.38855804e-11 0.00000000e+00 2.97986401e-13
1.02785297e+01 1.33951056e-11 2.69964435e-13 0.00000000e+00 1.31251412e-11 0.00000000e+00 2.69964435e-13
1.06225216e+01 1.26432936e-11 2.44577592e-13 0.00000000e+00 1.23987160e-11 0.00000000e+00 2.44577592e-13
1.09780260e+01 1.16975000e-11 2.21578069e-13 0.00000000e+00 1.14759219e-11 0.00000000e+00 2.21578069e-13
1.13454280e+01 1.09603128e-11 2.00741370e-13 0.00000000e+00 1.07595714e-11 0.00000000e+00 2.00741370e-13
1.17251259e+01 1.03343392e-11 1.81864106e-13 0.00000000e+00 1.01524751e-11 0.00000000e+00 1.81864106e-13
1.21175312e+01 9.72262483e-12 1.64762018e-13 0.00000000e+00 9.55786282e-12 0.00000000e+00 1.64762018e-13
1.25230691e+01 9.13964742e-12 1.49268171e-13 0.00000000e+00 8.99037925e-12 0.00000000e+00 1.49268171e-13
1.29421791e+01 8.63237125e-12 1.35231331e-13 0.00000000e+00 8.49713992e-12 0.00000000e+00 1.35231331e-13
1.33753155e+01 8.19843882e-12 1.22514483e-13 0.00000000e+00 8.07592434e-12 0.00000000e+00 1.22514483e-13
1.38229477e+01 7.94142832e-12 1.10993499e-13 0.00000000e+00 7.83043482e-12 0.00000000e+00 1.10993499e-13
1.42855609e+01 7.84834248e-12 1.00555922e-13 0.00000000e+00 7.74778656e-12 0.00000000e+00 1.00555922e-13
1.47636563e+01 7.99307490e-12 9.10998706e-14 0.00000000e+00 7.90197503e-12 0.00000000e+00 9.10998706e-14
1.52577522e+01 8.25064026e-12 8.25330452e-14 0.00000000e+00 8.16810721e-12 0.00000000e+00 8.25330452e-14
1.57683840e+01 8.55531929e-12 7.47718247e-14 0.00000000e+00 8.48054747e-12 0.00000000e+00 7.47718247e-14
1.62961051e+01 8.82047748e-12 6.77404517e-14 0.00000000e+00 8.75273703e-12 0.00000000e+00 6.77404517e-14
1.68414875e+01 9.07731943e-12 6.13702932e-14 0.00000000e+00 9.01594913e-12 0.00000000e+00 6.13702932e-14
1.74051222e+01 9.34696052e-12 5.55991699e-14 0.00000000e+00 9.29136135e-12 0.00000000e+00 5.55991699e-14
1.79876201e+01 9.43713873e-12 5.03707500e-14 0.00000000e+00 9.38676798e-12 0.00000000e+00 5.03707500e-14
1.85896125e+01 9.56847776e-12 4.56339988e-14 0.00000000e+00 9.52284376e-12 0.00000000e+00 4.56339988e-14
1.92117518e+01 9.48095660e-12 4.13426810e-14 0.00000000e+00 9.43961392e-12 0.00000000e+00 4.13426810e-14
1.98547123e+01 9.38285988e-12 3.74549090e-14 0.00000000e+00 9.34540497e-12 0.00000000e+00 3.74549090e-14
2.05191907e+01 9.26239559e-12 3.39327342e-14 0.00000000e+00 9.22846285e-12 0.00000000e+00 3.39327342e-14
2.12059073e+01 9.06220389e-12 3.07417768e-14 0.00000000e+00 9.03146211e-12 0.00000000e+00 3.07417768e-14
2.19156062e+01 8.91572892e-12 2.78508898e-14 0.00000000e+00 8.88787803e-12 0.00000000e+00 2.78508898e-14
2.26490567e+01 8.76024658e-12 2.52318552e-14 0.00000000e+00 8.73501472e-12 0.00000000e+00 2.52318552e-14
2.34070535e+01 8.56346003e-12 2.28591087e-14 0.00000000e+00 8.54060092e-12 0.00000000e+00 2.28591087e-14
2.41904183e+01 8.42072237e-12 2.07094900e-14 0.00000000e+00 8.40001288e-12 0.00000000e+00 2.07094900e-14
2.50000000e+01 8.22311639e-12 1.87620165e-14 0.00000000e+00 8.20435438e-12 0.00000000e+00 1.87620165e-14
2.75422870e+01 7.58025604e-12 1.40313526e-14 0.00000000e+00 7.56622468e-12 0.00000000e+00 1.40313526e-14
3.16227766e+01 6.49400794e-12 9.27042274e-15 0.00000000e+00 6.48473751e-12 0.00000000e+00 9.27042274e-15
3.63078055e+01 5.19478610e-12 6.12490756e-15 0.00000000e+00 5.18866120e-12 0.00000000e+00 6.12490756e-15
4.16869383e+01 3.87423374e-12 4.04668630e-15 0.00000000e+00 3.87018706e-12 0.00000000e+00 4.04668630e-15
4.78630092e+01 2.68479795e-12 2.67361912e-15 0.00000000e+00 2.68212433e-12 0.00000000e+00 2.67361912e-15
5.49540874e+01 1.74637627e-12 1.76644264e-15 0.00000000e+00 1.74460983e-12 0.00000000e+00 1.76644264e-15
6.30957344e+01 1.08181521e-12 1.16707708e-15 0.00000000e+00 1.08064813e-12 0.00000000e+00 1.16707708e-15
7.24435960e+01 6.42679568e-13 7.71080178e-16 0.00000000e+00 6.41908488e-13 0.00000000e+00 7.71080178e-16
8.31763771e+01 3.71023122e-13 5.09447621e-16 0.00000000e+00 3.70513674e-13 0.00000000e+00 5.09447621e-16
9.54992586e+01 2.09374758e-13 3.36588705e-16 0.00000000e+00 2.09038169e-13 0.00000000e+00 3.36588705e-16
1.09647820e+02 1.16163289e-13 2.22381952e-16 0.00000000e+00 1.15940907e-13 0.00000000e+00 2.22381952e-16
1.25892541e+02 6.43564253e-14 1.46926299e-16 0.00000000e+00 6.42094990e-14 0.00000000e+00 1.46926299e-16
1.44543977e+02 3.54318989e-14 9.70732430e-17 0.00000000e+00 3.53348256e-14 0.00000000e+00 9.70732430e-17
1.65958691e+02 1.85785533e-14 6.41356556e-17 0.00000000e+00 1.85144177e-14 0.00000000e+00 6.41356556e-17
1.90546072e+02 9.74552506e-15 4.23740075e-17 0.00000000e+00 9.70315106e-15 0.00000000e+00 4.23740075e-17
2.18776162e+02 5.10363635e-15 2.79962291e-17 0.00000000e+00 5.07564012e-15 0.00000000e+00 2.79962291e-17
2.51188643e+02 2.66319827e-15 1.84969251e-17 0.00000000e+00 2.64470135e-15 0.00000000e+00 1.84969251e-17
2.88403150e+02 1.38353574e-15 1.22207972e-17 0.00000000e+00 1.37131494e-15 0.00000000e+00 1.22207972e-17
3.31131121e+02 7.16987761e-16 8.07420067e-18 0.00000000e+00 7.08913560e-16 0.00000000e+00 8.07420067e-18
3.80189396e+02 3.70344661e-16 5.33457148e-18 0.00000000e+00 3.65010089e-16 0.00000000e+00 5.33457148e-18
4.36515832e+02 1.90968219e-16 3.52451642e-18 0.00000000e+00 1.87443703e-16 0.00000000e+00 3.52451642e-18
5.01187234e+02 9.83084797e-17 2.32862491e-18 0.00000000e+00 9.59798548e-17 0.00000000e+00 2.32862491e-18
5.75439937e+02 5.05687749e-17 1.53850722e-18 0.00000000e+00 4.90302676e-17 0.00000000e+00 1.53850722e-18
6.60693448e+02 2.60115695e-17 1.01648164e-18 0.00000000e+00 2.49950879e-17 0.00000000e+00 1.01648164e-18
7.58577575e+02 1.33912929e-17 6.71582760e-19 0.00000000e+00 1.27197102e-17 0.00000000e+00 6.71582760e-19
8.70963590e+02 6.90497016e-18 4.43710329e-19 0.00000000e+00 6.46125983e-18 0.00000000e+00 4.43710329e-19
1.00000000e+03 3.27659737e-18 0.00000000e+00 0.00000000e+00 3.27659737e-18 0.00000000e+00 0.00000000e+00
