# column 1: lambda (micron)
# column 2: total flux; lambda*F_lambda (W/m2)
# column 3: direct stellar flux; lambda*F_lambda (W/m2)
# column 4: scattered stellar flux; lambda*F_lambda (W/m2)
# column 5: total dust emission flux; lambda*F_lambda (W/m2)
# column 6: dust emission scattered flux; lambda*F_lambda (W/m2)
# column 7: transparent flux; lambda*F_lambda (W/m2)
1.00000000e-03 6.93994833e-13 6.93993746e-13 1.08689288e-18 0.00000000e+00 0.00000000e+00 6.93993746e-13
1.14815362e-03 8.19136709e-13 8.19135139e-13 1.56999141e-18 0.00000000e+00 0.00000000e+00 8.19135139e-13
1.31825674e-03 9.66844721e-13 9.66842108e-13 2.61326248e-18 0.00000000e+00 0.00000000e+00 9.66842108e-13
1.51356125e-03 1.14118778e-12 1.14118369e-12 4.08417998e-18 0.00000000e+00 0.00000000e+00 1.14118369e-12
1.73780083e-03 1.34697010e-12 1.34696266e-12 7.43949713e-18 0.00000000e+00 0.00000000e+00 1.34696266e-12
1.99526231e-03 1.58986130e-12 1.58984782e-12 1.34742345e-17 0.00000000e+00 0.00000000e+00 1.58984782e-12
2.29086765e-03 1.87655197e-12 1.87653019e-12 2.17753868e-17 0.00000000e+00 0.00000000e+00 1.87653019e-12
2.63026799e-03 2.21494929e-12 2.21490731e-12 4.19785987e-17 0.00000000e+00 0.00000000e+00 2.21490731e-12
3.01995172e-03 2.61437506e-12 2.61430080e-12 7.42571623e-17 0.00000000e+00 0.00000000e+00 2.61430080e-12
3.46736850e-03 3.08584139e-12 3.08571319e-12 1.28204456e-16 0.00000000e+00 0.00000000e+00 3.08571319e-12
3.98107171e-03 3.64233900e-12 3.64213095e-12 2.08045273e-16 0.00000000e+00 0.00000000e+00 3.64213095e-12
4.57088190e-03 4.29932099e-12 4.29888232e-12 4.38668168e-16 0.00000000e+00 0.00000000e+00 4.29888232e-12
5.24807460e-03 5.07493573e-12 5.07405951e-12 8.76219237e-16 0.00000000e+00 0.00000000e+00 5.07405951e-12
6.02559586e-03 5.99047036e-12 5.98901715e-12 1.45320993e-15 0.00000000e+00 0.00000000e+00 5.98901715e-12
6.91830971e-03 7.07124504e-12 7.06896053e-12 2.28451432e-15 0.00000000e+00 0.00000000e+00 7.06896053e-12
7.94328235e-03 8.34774338e-12 8.34363998e-12 4.10339712e-15 1.38201637e-304 2.27672431e-307 8.34363998e-12
9.12010839e-03 9.85485715e-12 9.84817045e-12 6.68670630e-15 5.93382825e-266 1.32509348e-268 9.84817045e-12
1.04712855e-02 1.10082792e-11 1.09990604e-11 9.21878628e-15 2.46438408e-232 8.58061544e-235 1.09990604e-11
1.20226443e-02 1.10147554e-11 1.09990604e-11 1.56949400e-14 3.79915904e-203 1.64313570e-205 1.09990604e-11
1.38038426e-02 1.10190912e-11 1.09990604e-11 2.00307577e-14 1.02213594e-177 6.58068018e-180 1.09990604e-11
1.58489319e-02 1.10263870e-11 1.09990604e-11 2.73265776e-14 1.36829115e-155 1.23201096e-157 1.09990604e-11
1.81970086e-02 1.10426066e-11 1.09990604e-11 4.35461395e-14 2.42013864e-136 2.91450693e-138 1.09990604e-11
2.08929613e-02 1.10528551e-11 1.09990604e-11 5.37946783e-14 1.25923744e-119 2.34603414e-121 1.09990604e-11
2.39883292e-02 1.10710503e-11 1.09990604e-11 7.19898921e-14 4.39547191e-105 1.01613579e-106 1.09990604e-11
2.75422870e-02 1.10903458e-11 1.09990604e-11 9.12853600e-14 1.96484642e-92 6.01795462e-94 1.09990604e-11
3.16227766e-02 1.11183090e-11 1.09990604e-11 1.19248589e-13 1.91147922e-81 6.97519818e-83 1.09990604e-11
3.63078055e-02 1.11346300e-11 1.09990604e-11 1.35569547e-13 6.62259187e-72 2.81893293e-73 1.09990604e-11
4.16869383e-02 1.11758174e-11 1.09990604e-11 1.76756960e-13 1.26498212e-63 7.04906909e-65 1.09990604e-11
4.78630092e-02 1.12189186e-11 1.09990604e-11 2.19858109e-13 1.91785540e-56 1.30394322e-57 1.09990604e-11
5.49540874e-02 1.12521512e-11 1.09990604e-11 2.53090781e-13 3.19409759e-50 2.48271782e-51 1.09990604e-11
6.30957344e-02 1.12626643e-11 1.09990604e-11 2.63603862e-13 1.03225873e-44 8.72936597e-46 1.09990604e-11
7.24435960e-02 1.12429887e-11 1.09990604e-11 2.43928256e-13 5.93969822e-40 4.61714242e-41 1.09990604e-11
8.31763771e-02 1.12435537e-11 1.09990604e-11 2.44493304e-13 6.06570896e-36 4.69315533e-37 1.09990604e-11
9.54992586e-02 1.12470415e-11 1.09990604e-11 2.47981084e-13 1.70702976e-32 1.37362463e-33 1.09990604e-11
1.09647820e-01 1.07589931e-11 1.05040253e-11 2.54967810e-13 1.44729814e-29 1.25640573e-30 1.05040253e-11
1.25892541e-01 1.00555565e-11 9.80292679e-12 2.52629697e-13 4.67496437e-27 4.03753703e-28 9.80292679e-12
1.44543977e-01 9.37572832e-12 9.14862359e-12 2.27104725e-13 6.33436074e-25 5.27593596e-26 9.14862359e-12
1.65958691e-01 8.76534218e-12 8.53799231e-12 2.27349868e-13 3.20947742e-23 2.91466478e-24 8.53799231e-12
1.90546072e-01 8.20491545e-12 7.96811805e-12 2.36797400e-13 6.78727756e-22 7.13412407e-23 7.96811805e-12
2.18776162e-01 7.65403091e-12 7.43628044e-12 2.17750470e-13 8.01400741e-21 8.45722004e-22 7.43628044e-12
2.51188643e-01 7.18925075e-12 6.93994070e-12 2.49309953e-13 9.75540626e-20 1.22639202e-20 6.93994070e-12
2.88403150e-01 6.70679853e-12 6.47672950e-12 2.30068214e-13 8.09879686e-19 1.00326513e-19 6.47672950e-12
3.31131121e-01 6.25490119e-12 6.04443567e-12 2.10460887e-13 4.63954795e-18 5.60750812e-19 6.04443567e-12
3.80189396e-01 5.83011857e-12 5.64099558e-12 1.89103432e-13 1.95621722e-17 2.35888460e-18 5.64099558e-12
4.36515832e-01 5.43573179e-12 5.26448339e-12 1.71182475e-13 6.59274932e-17 8.67025172e-18 5.26448339e-12
5.01187234e-01 5.06912607e-12 4.91310176e-12 1.55821138e-13 2.03169266e-16 3.35250517e-17 4.91310176e-12
5.75439937e-01 4.72384879e-12 4.58517335e-12 1.38010983e-13 6.64454785e-16 1.43341651e-16 4.58517335e-12
6.60693448e-01 4.40848499e-12 4.27913275e-12 1.27023859e-13 2.32837877e-15 5.89494677e-16 4.27913275e-12
7.58577575e-01 4.11184873e-12 3.99351904e-12 1.10572971e-13 7.75671724e-15 2.06534096e-15 3.99351904e-12
8.70963590e-01 3.84653214e-12 3.72696882e-12 9.65493351e-14 2.30139803e-14 5.93633462e-15 3.72696882e-12
1.00000000e+00 3.61882064e-12 3.47820968e-12 8.21583790e-14 5.84525775e-14 1.40475373e-14 3.47820968e-12
1.14815362e+00 3.44316113e-12 3.24605414e-12 6.54431281e-14 1.31663857e-13 2.85515524e-14 3.24605414e-12
1.31825674e+00 3.34923570e-12 3.02939399e-12 5.40455587e-14 2.65796156e-13 4.92938400e-14 3.02939399e-12
1.51356125e+00 3.35247820e-12 2.82719497e-12 4.19443624e-14 4.83338867e-13 7.52768158e-14 2.82719497e-12
1.73780083e+00 3.45576356e-12 2.63849186e-12 3.17002490e-14 7.85571445e-13 9.89148439e-14 2.63849186e-12
1.99526231e+00 3.63502205e-12 2.46238388e-12 2.32182757e-14 1.14941990e-12 1.12429403e-13 2.46238388e-12
2.29086765e+00 3.85738694e-12 2.29803035e-12 1.75015074e-14 1.54185508e-12 1.13393405e-13 2.29803035e-12
2.63026799e+00 4.06681247e-12 2.14464670e-12 1.19012080e-14 1.91026456e-12 1.04207212e-13 2.14464670e-12
3.01995172e+00 4.21063794e-12 2.00150076e-12 8.42840569e-15 2.20070878e-12 8.77284228e-14 2.00150076e-12
3.46736850e+00 4.28911646e-12 1.86790919e-12 5.78716031e-15 2.41542011e-12 7.00885709e-14 1.86790919e-12
3.98107171e+00 4.27272105e-12 1.74323429e-12 3.94529246e-15 2.52554147e-12 5.35670418e-14 1.74323429e-12
4.57088190e+00 4.16350220e-12 1.62688090e-12 2.65611665e-15 2.53396519e-12 3.82690616e-14 1.62688090e-12
5.24807460e+00 3.84418768e-12 1.34518114e-12 1.53099334e-15 2.49747554e-12 2.58447607e-14 1.34518114e-12
6.02559586e+00 3.29857062e-12 8.88752369e-13 6.63410661e-16 2.40915484e-12 1.65566884e-14 8.88752369e-13
6.70000000e+00 2.97005999e-12 6.46481889e-13 3.39515145e-16 2.32323859e-12 1.13736868e-14 6.46481889e-13
6.92422916e+00 2.87608194e-12 5.85688198e-13 2.72014961e-16 2.29012173e-12 1.00515395e-14 5.85688198e-13
7.15596261e+00 2.80726342e-12 5.30611407e-13 2.15577656e-16 2.27643644e-12 8.78815563e-15 5.30611407e-13
7.39545150e+00 2.77604377e-12 4.80713913e-13 1.66675487e-16 2.29516318e-12 7.50205886e-15 4.80713913e-13
7.64295536e+00 2.86012392e-12 4.35508666e-13 1.16086352e-16 2.42449916e-12 6.17228110e-15 4.35508666e-13
7.89874245e+00 3.10272485e-12 3.94554418e-13 7.02861601e-17 2.70810014e-12 4.81406320e-15 3.94554418e-13
8.16308998e+00 3.48020912e-12 3.57451415e-13 4.07005764e-17 3.12271700e-12 3.70432091e-15 3.57451415e-13
8.43628443e+00 4.01178906e-12 3.23837494e-13 2.26117349e-17 3.68792895e-12 2.78711409e-15 3.23837494e-13
8.71862190e+00 4.37356179e-12 2.93384550e-13 1.42417944e-17 4.08016300e-12 2.16982520e-15 2.93384550e-13
9.01040836e+00 4.76893720e-12 2.65795332e-13 8.90861631e-18 4.50313296e-12 1.65855635e-15 2.65795332e-13
9.31196005e+00 5.05456522e-12 2.40800541e-13 0.00000000e+00 4.81376468e-12 0.00000000e+00 2.40800541e-13
9.62360379e+00 5.04091543e-12 2.18156204e-13 0.00000000e+00 4.82275923e-12 0.00000000e+00 2.18156204e-13
9.94567731e+00 4.77606724e-12 1.97641289e-13 0.00000000e+00 4.57842595e-12 0.00000000e+00 1.97641289e-13
1.02785297e+01 4.46281906e-12 1.79055550e-13 0.00000000e+00 4.28376351e-12 0.00000000e+00 1.79055550e-13
1.06225216e+01 4.13418053e-12 1.62217572e-13 0.00000000e+00 3.97196296e-12 0.00000000e+00 1.62217572e-13
1.09780260e+01 3.78047393e-12 1.46962999e-13 0.00000000e+00 3.63351093e-12 0.00000000e+00 1.46962999e-13
1.13454280e+01 3.48999957e-12 1.33142932e-13 0.00000000e+00 3.35685664e-12 0.00000000e+00 1.33142932e-13
1.17251259e+01 3.23270260e-12 1.20622472e-13 0.00000000e+00 3.11208013e-12 0.00000000e+00 1.20622472e-13
1.21175312e+01 3.00539911e-12 1.09279408e-13 0.00000000e+00 2.89611970e-12 0.00000000e+00 1.09279408e-13
1.25230691e+01 2.78762132e-12 9.90030204e-14 0.00000000e+00 2.68861830e-12 0.00000000e+00 9.90030204e-14
1.29421791e+01 2.62541947e-12 8.96930008e-14 0.00000000e+00 2.53572647e-12 0.00000000e+00 8.96930008e-14
1.33753155e+01 2.47928482e-12 8.12584743e-14 0.00000000e+00 2.39802635e-12 0.00000000e+00 8.12584743e-14
1.38229477e+01 2.39139090e-12 7.36171115e-14 0.00000000e+00 2.31777379e-12 0.00000000e+00 7.36171115e-14
1.42855609e+01 2.34743157e-12 6.66943252e-14 0.00000000e+00 2.28073725e-12 0.00000000e+00 6.66943252e-14
1.47636563e+01 2.38961097e-12 6.04225420e-14 0.00000000e+00 2.32918842e-12 0.00000000e+00 6.04225420e-14
1.52577522e+01 2.46252015e-12 5.47405431e-14 0.00000000e+00 2.40777961e-12 0.00000000e+00 5.47405431e-14
1.57683840e+01 2.54111010e-12 4.95928665e-14 0.00000000e+00 2.49151723e-12 0.00000000e+00 4.95928665e-14
1.62961051e+01 2.62950499e-12 4.49292657e-14 0.00000000e+00 2.58457572e-12 0.00000000e+00 4.49292657e-14
1.68414875e+01 2.70367888e-12 4.07042194e-14 0.00000000e+00 2.66297466e-12 0.00000000e+00 4.07042194e-14
1.74051222e+01 2.77393403e-12 3.68764869e-14 0.00000000e+00 2.73705754e-12 0.00000000e+00 3.68764869e-14
1.79876201e+01 2.82134210e-12 3.34087056e-14 0.00000000e+00 2.78793339e-12 0.00000000e+00 3.34087056e-14
1.85896125e+01 2.83515061e-12 3.02670267e-14 0.00000000e+00 2.80488358e-12 0.00000000e+00 3.02670267e-14
1.92117518e+01 2.82085571e-12 2.74207841e-14 0.00000000e+00 2.79343492e-12 0.00000000e+00 2.74207841e-14
1.98547123e+01 2.77739042e-12 2.48421957e-14 0.00000000e+00 2.75254822e-12 0.00000000e+00 2.48421957e-14
2.05191907e+01 2.73101351e-12 2.25060919e-14 0.00000000e+00 2.70850742e-12 0.00000000e+00 2.25060919e-14
2.12059073e+01 2.68137295e-12 2.03896700e-14 0.00000000e+00 2.66098328e-12 0.00000000e+00 2.03896700e-14
2.19156062e+01 2.64204754e-12 1.84722717e-14 0.00000000e+00 2.62357527e-12 0.00000000e+00 1.84722717e-14
2.26490567e+01 2.60289252e-12 1.67351811e-14 0.00000000e+00 2.58615734e-12 0.00000000e+00 1.67351811e-14
2.34070535e+01 2.55432247e-12 1.51614426e-14 0.00000000e+00 2.53916103e-12 0.00000000e+00 1.51614426e-14
2.41904183e+01 2.51061082e-12 1.37356949e-14 0.00000000e+00 2.49687512e-12 0.00000000e+00 1.37356949e-14
2.50000000e+01 2.46002501e-12 1.24440213e-14 0.00000000e+00 2.44758098e-12 0.00000000e+00 1.24440213e-14
2.75422870e+01 2.30308439e-12 9.30637977e-15 0.00000000e+00 2.29377801e-12 0.00000000e+00 9.30637977e-15
3.16227766e+01 2.01725820e-12 6.14866414e-15 0.00000000e+00 2.01110954e-12 0.00000000e+00 6.14866414e-15
3.63078055e+01 1.66355672e-12 4.06238211e-15 0.00000000e+00 1.65949433e-12 0.00000000e+00 4.06238211e-15
4.16869383e+01 1.27575882e-12 2.68398924e-15 0.00000000e+00 1.27307483e-12 0.00000000e+00 2.68398924e-15
4.78630092e+01 9.09719659e-13 1.77329411e-15 0.00000000e+00 9.07946365e-13 0.00000000e+00 1.77329411e-15
5.49540874e+01 6.09727813e-13 1.17160380e-15 0.00000000e+00 6.08556209e-13 0.00000000e+00 1.17160380e-15
6.30957344e+01 3.88115691e-13 7.74070953e-16 0.00000000e+00 3.87341620e-13 0.00000000e+00 7.74070953e-16
7.24435960e+01 2.36276058e-13 5.11423607e-16 0.00000000e+00 2.35764634e-13 0.00000000e+00 5.11423607e-16
8.31763771e+01 1.39040087e-13 3.37894226e-16 0.00000000e+00 1.38702192e-13 0.00000000e+00 3.37894226e-16
9.54992586e+01 7.98170485e-14 2.23244502e-16 0.00000000e+00 7.95938040e-14 0.00000000e+00 2.23244502e-16
1.09647820e+02 4.49152996e-14 1.47496179e-16 0.00000000e+00 4.47678034e-14 0.00000000e+00 1.47496179e-16
1.25892541e+02 2.51844384e-14 9.74497594e-17 0.00000000e+00 2.50869887e-14 0.00000000e+00 9.74497594e-17
1.44543977e+02 1.39998086e-14 6.43844175e-17 0.00000000e+00 1.39354242e-14 0.00000000e+00 6.43844175e-17
1.65958691e+02 7.40666786e-15 4.25383628e-17 0.00000000e+00 7.36412950e-15 0.00000000e+00 4.25383628e-17
1.90546072e+02 3.91547917e-15 2.81048176e-17 0.00000000e+00 3.88737435e-15 0.00000000e+00 2.81048176e-17
2.18776162e+02 2.06373411e-15 1.85686688e-17 0.00000000e+00 2.04516544e-15 0.00000000e+00 1.85686688e-17
2.51188643e+02 1.08317279e-15 1.22681978e-17 0.00000000e+00 1.07090459e-15 0.00000000e+00 1.22681978e-17
2.88403150e+02 5.65653998e-16 8.10551794e-18 0.00000000e+00 5.57548481e-16 0.00000000e+00 8.10551794e-18
3.31131121e+02 2.94590273e-16 5.35526259e-18 0.00000000e+00 2.89235011e-16 0.00000000e+00 5.35526259e-18
3.80189396e+02 1.52894636e-16 3.53818691e-18 0.00000000e+00 1.49356449e-16 0.00000000e+00 3.53818691e-18
4.36515832e+02 7.92245556e-17 2.33765691e-18 0.00000000e+00 7.68868987e-17 0.00000000e+00 2.33765691e-18
5.01187234e+02 4.09975437e-17 1.54447460e-18 0.00000000e+00 3.94530691e-17 0.00000000e+00 1.54447460e-18
5.75439937e+02 2.12101379e-17 1.02042425e-18 0.00000000e+00 2.01897137e-17 0.00000000e+00 1.02042425e-18
6.60693448e+02 1.09825561e-17 6.74187617e-19 0.00000000e+00 1.03083685e-17 0.00000000e+00 6.74187617e-19
7.58577575e+02 5.69798376e-18 4.45431341e-19 0.00000000e+00 5.25255242e-18 0.00000000e+00 4.45431341e-19
8.70963590e+02 2.96542949e-18 2.94293569e-19 0.00000000e+00 2.67113592e-18 0.00000000e+00 2.94293569e-19
1.00000000e+03 1.35586749e-18 0.00000000e+00 0.00000000e+00 1.35586749e-18 0.00000000e+00 0.00000000e+00
