# column 1: lambda (micron)
# column 2: total flux; lambda*F_lambda (W/m2)
# column 3: direct stellar flux; lambda*F_lambda (W/m2)
# column 4: scattered stellar flux; lambda*F_lambda (W/m2)
# column 5: total dust emission flux; lambda*F_lambda (W/m2)
# column 6: dust emission scattered flux; lambda*F_lambda (W/m2)
# column 7: transparent flux; lambda*F_lambda (W/m2)
1.00000000e-03 6.93994136e-13 6.93993746e-13 3.90546961e-19 0.00000000e+00 0.00000000e+00 6.93993746e-13
1.14815362e-03 8.19135729e-13 8.19135139e-13 5.89563998e-19 0.00000000e+00 0.00000000e+00 8.19135139e-13
1.31825674e-03 9.66843107e-13 9.66842108e-13 9.98816055e-19 0.00000000e+00 0.00000000e+00 9.66842108e-13
1.51356125e-03 1.14118521e-12 1.14118369e-12 1.51455701e-18 0.00000000e+00 0.00000000e+00 1.14118369e-12
1.73780083e-03 1.34696531e-12 1.34696266e-12 2.64656492e-18 0.00000000e+00 0.00000000e+00 1.34696266e-12
1.99526231e-03 1.58985270e-12 1.58984782e-12 4.87601640e-18 0.00000000e+00 0.00000000e+00 1.58984782e-12
2.29086765e-03 1.87653816e-12 1.87653019e-12 7.96212403e-18 0.00000000e+00 0.00000000e+00 1.87653019e-12
2.63026799e-03 2.21492354e-12 2.21490731e-12 1.62251339e-17 0.00000000e+00 0.00000000e+00 2.21490731e-12
3.01995172e-03 2.61432682e-12 2.61430080e-12 2.60150277e-17 0.00000000e+00 0.00000000e+00 2.61430080e-12
3.46736850e-03 3.08575809e-12 3.08571319e-12 4.49009455e-17 0.00000000e+00 0.00000000e+00 3.08571319e-12
3.98107171e-03 3.64220765e-12 3.64213095e-12 7.66949109e-17 0.00000000e+00 0.00000000e+00 3.64213095e-12
4.57088190e-03 4.29904381e-12 4.29888232e-12 1.61494318e-16 0.00000000e+00 0.00000000e+00 4.29888232e-12
5.24807460e-03 5.07435362e-12 5.07405951e-12 2.94105426e-16 0.00000000e+00 0.00000000e+00 5.07405951e-12
6.02559586e-03 5.99424738e-12 5.98901715e-12 5.23023458e-15 0.00000000e+00 0.00000000e+00 5.98901715e-12
6.91830971e-03 7.06978152e-12 7.06896053e-12 8.20997860e-16 0.00000000e+00 0.00000000e+00 7.06896053e-12
7.94328235e-03 8.34499867e-12 8.34363998e-12 1.35868494e-15 3.09523547e-303 3.49716817e-304 8.34363998e-12
9.12010839e-03 9.85040894e-12 9.84817045e-12 2.23849475e-15 1.39245790e-264 9.13884950e-266 9.84817045e-12
1.04712855e-02 1.10021495e-11 1.09990604e-11 3.08906496e-15 6.29937347e-231 3.86406135e-232 1.09990604e-11
1.20226443e-02 1.10048515e-11 1.09990604e-11 5.79104523e-15 1.03799521e-201 5.11336107e-203 1.09990604e-11
1.38038426e-02 1.10057809e-11 1.09990604e-11 6.72043627e-15 2.99791642e-176 1.69158875e-177 1.09990604e-11
1.58489319e-02 1.10098140e-11 1.09990604e-11 1.07535265e-14 4.31381657e-154 3.11642718e-155 1.09990604e-11
1.81970086e-02 1.10117654e-11 1.09990604e-11 1.27049404e-14 7.98607139e-135 5.65698013e-136 1.09990604e-11
2.08929613e-02 1.10165313e-11 1.09990604e-11 1.74708374e-14 4.31951296e-118 3.03572877e-119 1.09990604e-11
2.39883292e-02 1.10273347e-11 1.09990604e-11 2.82742329e-14 1.57193636e-103 1.26254936e-104 1.09990604e-11
2.75422870e-02 1.10315660e-11 1.09990604e-11 3.25055789e-14 7.17504346e-91 5.76462877e-92 1.09990604e-11
3.16227766e-02 1.10409255e-11 1.09990604e-11 4.18650518e-14 7.08339815e-80 5.19181919e-81 1.09990604e-11
3.63078055e-02 1.10449551e-11 1.09990604e-11 4.58946500e-14 2.47996454e-70 1.75850539e-71 1.09990604e-11
4.16869383e-02 1.10635958e-11 1.09990604e-11 6.45353077e-14 4.83016311e-62 3.80783997e-63 1.09990604e-11
4.78630092e-02 1.10816854e-11 1.09990604e-11 8.26249410e-14 7.29646239e-55 5.75307949e-56 1.09990604e-11
5.49540874e-02 1.10979502e-11 1.09990604e-11 9.88897529e-14 1.21382633e-48 9.70710076e-50 1.09990604e-11
6.30957344e-02 1.11131134e-11 1.09990604e-11 1.14052982e-13 3.85081957e-43 2.91821308e-44 1.09990604e-11
7.24435960e-02 1.11064486e-11 1.09990604e-11 1.07388205e-13 2.19774164e-38 1.44200711e-39 1.09990604e-11
8.31763771e-02 1.11061381e-11 1.09990604e-11 1.07077614e-13 2.27567713e-34 1.45483911e-35 1.09990604e-11
9.54992586e-02 1.11115442e-11 1.09990604e-11 1.12483742e-13 6.50106444e-31 4.37743708e-32 1.09990604e-11
1.09647820e-01 1.06191085e-11 1.05040253e-11 1.15083192e-13 5.65307786e-28 4.31747848e-29 1.05040253e-11
1.25892541e-01 9.90542696e-12 9.80292679e-12 1.02500162e-13 1.88993802e-25 1.55431640e-26 9.80292679e-12
1.44543977e-01 9.24388683e-12 9.14862359e-12 9.52632387e-14 2.64648722e-23 2.27038492e-24 9.14862359e-12
1.65958691e-01 8.63579531e-12 8.53799231e-12 9.78029982e-14 1.37530842e-21 1.33117507e-22 8.53799231e-12
1.90546072e-01 8.07666200e-12 7.96811805e-12 1.08543922e-13 2.88952770e-20 3.10630560e-21 7.96811805e-12
2.18776162e-01 7.54102351e-12 7.43628044e-12 1.04742739e-13 3.35891116e-19 3.51225480e-20 7.43628044e-12
2.51188643e-01 7.06097129e-12 6.93994070e-12 1.21026355e-13 4.23734872e-18 5.61873214e-19 6.93994070e-12
2.88403150e-01 6.58869578e-12 6.47672950e-12 1.11930022e-13 3.62570343e-17 4.95014174e-18 6.47672950e-12
3.31131121e-01 6.14704615e-12 6.04443567e-12 1.02399476e-13 2.11013204e-16 2.85808876e-17 6.04443567e-12
3.80189396e-01 5.73397044e-12 5.64099558e-12 9.20778911e-14 8.96971897e-16 1.20786646e-16 5.64099558e-12
4.36515832e-01 5.35253026e-12 5.26448339e-12 8.51677842e-14 2.87908511e-15 3.82592474e-16 5.26448339e-12
5.01187234e-01 4.99957884e-12 4.91310176e-12 7.91859026e-14 7.29117185e-15 9.50723948e-16 4.91310176e-12
5.75439937e-01 4.67326402e-12 4.58517335e-12 7.27965589e-14 1.52941128e-14 1.98179548e-15 4.58517335e-12
6.60693448e-01 4.37191009e-12 4.27913275e-12 6.53404160e-14 2.74369224e-14 3.41616490e-15 4.27913275e-12
7.58577575e-01 4.09687660e-12 3.99351904e-12 5.88472404e-14 4.45103236e-14 5.43758267e-15 3.99351904e-12
8.70963590e-01 3.84729281e-12 3.72696882e-12 5.22309309e-14 6.80930630e-14 8.14977530e-15 3.72696882e-12
1.00000000e+00 3.62409706e-12 3.47820968e-12 4.42467897e-14 1.01640587e-13 1.19110661e-14 3.47820968e-12
1.14815362e+00 3.43793968e-12 3.24605414e-12 3.64576035e-14 1.55427935e-13 1.74004725e-14 3.24605414e-12
1.31825674e+00 3.30153256e-12 3.02939399e-12 2.76587781e-14 2.44479794e-13 2.52338877e-14 3.02939399e-12
1.51356125e+00 3.23219419e-12 2.82719497e-12 2.24003475e-14 3.82598874e-13 3.51475218e-14 2.82719497e-12
1.73780083e+00 3.22579630e-12 2.63849186e-12 1.68884377e-14 5.70415993e-13 4.41949207e-14 2.63849186e-12
1.99526231e+00 3.26386078e-12 2.46238388e-12 1.23791369e-14 7.89097768e-13 4.94448800e-14 2.46238388e-12
2.29086765e+00 3.31224030e-12 2.29803035e-12 8.70076989e-15 1.00550919e-12 4.95956563e-14 2.29803035e-12
2.63026799e+00 3.33513980e-12 2.14464670e-12 6.09856061e-15 1.18439454e-12 4.60349635e-14 2.14464670e-12
3.01995172e+00 3.30827334e-12 2.00150076e-12 4.37950082e-15 1.30239308e-12 3.97347605e-14 2.00150076e-12
3.46736850e+00 3.22896703e-12 1.86790919e-12 2.94950483e-15 1.35810833e-12 3.25931515e-14 1.86790919e-12
3.98107171e+00 3.09959754e-12 1.74323429e-12 2.06709285e-15 1.35429616e-12 2.50531075e-14 1.74323429e-12
4.57088190e+00 2.93020341e-12 1.62688090e-12 1.37565417e-15 1.30194686e-12 1.80130887e-14 1.62688090e-12
5.24807460e+00 2.57351739e-12 1.34518114e-12 7.81258643e-16 1.22755499e-12 1.20765469e-14 1.34518114e-12
6.02559586e+00 2.03503687e-12 8.88752369e-13 3.51352588e-16 1.14593315e-12 7.67561286e-15 8.88752369e-13
6.70000000e+00 1.72230757e-12 6.46481889e-13 1.76247480e-16 1.07564944e-12 5.14507027e-15 6.46481889e-13
6.92422916e+00 1.63553644e-12 5.85688198e-13 1.41394869e-16 1.04970685e-12 4.48335171e-15 5.85688198e-13
7.15596261e+00 1.56701128e-12 5.30611407e-13 1.12210715e-16 1.03628766e-12 3.88871321e-15 5.30611407e-13
7.39545150e+00 1.52395924e-12 4.80713913e-13 8.60834221e-17 1.04315925e-12 3.29587983e-15 4.80713913e-13
7.64295536e+00 1.54044756e-12 4.35508666e-13 6.03564528e-17 1.10487854e-12 2.76092577e-15 4.35508666e-13
7.89874245e+00 1.65183881e-12 3.94554418e-13 3.65733039e-17 1.25724782e-12 2.20398525e-15 3.94554418e-13
8.16308998e+00 1.83184409e-12 3.57451415e-13 2.22465502e-17 1.47437043e-12 1.70880911e-15 3.57451415e-13
8.43628443e+00 2.08408781e-12 3.23837494e-13 1.18523083e-17 1.76023847e-12 1.28848213e-15 3.23837494e-13
8.71862190e+00 2.25234576e-12 2.93384550e-13 7.67261962e-18 1.95895354e-12 1.00610265e-15 2.93384550e-13
9.01040836e+00 2.40499801e-12 2.65795332e-13 4.77226672e-18 2.13919790e-12 7.58083333e-16 2.65795332e-13
9.31196005e+00 2.52726662e-12 2.40800541e-13 0.00000000e+00 2.28646607e-12 0.00000000e+00 2.40800541e-13
9.62360379e+00 2.48216691e-12 2.18156204e-13 0.00000000e+00 2.26401071e-12 0.00000000e+00 2.18156204e-13
9.94567731e+00 2.31857842e-12 1.97641289e-13 0.00000000e+00 2.12093713e-12 0.00000000e+00 1.97641289e-13
1.02785297e+01 2.11773274e-12 1.79055550e-13 0.00000000e+00 1.93867719e-12 0.00000000e+00 1.79055550e-13
1.06225216e+01 1.93534368e-12 1.62217572e-13 0.00000000e+00 1.77312611e-12 0.00000000e+00 1.62217572e-13
1.09780260e+01 1.73941112e-12 1.46962999e-13 0.00000000e+00 1.59244812e-12 0.00000000e+00 1.46962999e-13
1.13454280e+01 1.57623459e-12 1.33142932e-13 0.00000000e+00 1.44309166e-12 0.00000000e+00 1.33142932e-13
1.17251259e+01 1.42873002e-12 1.20622472e-13 0.00000000e+00 1.30810755e-12 0.00000000e+00 1.20622472e-13
1.21175312e+01 1.30305671e-12 1.09279408e-13 0.00000000e+00 1.19377730e-12 0.00000000e+00 1.09279408e-13
1.25230691e+01 1.18503359e-12 9.90030204e-14 0.00000000e+00 1.08603057e-12 0.00000000e+00 9.90030204e-14
1.29421791e+01 1.08587926e-12 8.96930008e-14 0.00000000e+00 9.96186254e-13 0.00000000e+00 8.96930008e-14
1.33753155e+01 9.97492927e-13 8.12584743e-14 0.00000000e+00 9.16234453e-13 0.00000000e+00 8.12584743e-14
1.38229477e+01 9.36040985e-13 7.36171115e-14 0.00000000e+00 8.62423873e-13 0.00000000e+00 7.36171115e-14
1.42855609e+01 8.98585519e-13 6.66943252e-14 0.00000000e+00 8.31891194e-13 0.00000000e+00 6.66943252e-14
1.47636563e+01 8.97345135e-13 6.04225420e-14 0.00000000e+00 8.36922593e-13 0.00000000e+00 6.04225420e-14
1.52577522e+01 9.05478335e-13 5.47405431e-14 0.00000000e+00 8.50737792e-13 0.00000000e+00 5.47405431e-14
1.57683840e+01 9.18760332e-13 4.95928665e-14 0.00000000e+00 8.69167465e-13 0.00000000e+00 4.95928665e-14
1.62961051e+01 9.30752677e-13 4.49292657e-14 0.00000000e+00 8.85823411e-13 0.00000000e+00 4.49292657e-14
1.68414875e+01 9.46673589e-13 4.07042194e-14 0.00000000e+00 9.05969370e-13 0.00000000e+00 4.07042194e-14
1.74051222e+01 9.49963698e-13 3.68764869e-14 0.00000000e+00 9.13087211e-13 0.00000000e+00 3.68764869e-14
1.79876201e+01 9.43903483e-13 3.34087056e-14 0.00000000e+00 9.10494778e-13 0.00000000e+00 3.34087056e-14
1.85896125e+01 9.29381961e-13 3.02670267e-14 0.00000000e+00 8.99114935e-13 0.00000000e+00 3.02670267e-14
1.92117518e+01 8.99452997e-13 2.74207841e-14 0.00000000e+00 8.72032213e-13 0.00000000e+00 2.74207841e-14
1.98547123e+01 8.64782542e-13 2.48421957e-14 0.00000000e+00 8.39940346e-13 0.00000000e+00 2.48421957e-14
2.05191907e+01 8.26289353e-13 2.25060919e-14 0.00000000e+00 8.03783261e-13 0.00000000e+00 2.25060919e-14
2.12059073e+01 7.90897033e-13 2.03896700e-14 0.00000000e+00 7.70507363e-13 0.00000000e+00 2.03896700e-14
2.19156062e+01 7.57381070e-13 1.84722717e-14 0.00000000e+00 7.38908799e-13 0.00000000e+00 1.84722717e-14
2.26490567e+01 7.25168104e-13 1.67351811e-14 0.00000000e+00 7.08432922e-13 0.00000000e+00 1.67351811e-14
2.34070535e+01 6.95741705e-13 1.51614426e-14 0.00000000e+00 6.80580262e-13 0.00000000e+00 1.51614426e-14
2.41904183e+01 6.65676264e-13 1.37356949e-14 0.00000000e+00 6.51940569e-13 0.00000000e+00 1.37356949e-14
2.50000000e+01 6.37944110e-13 1.24440213e-14 0.00000000e+00 6.25500088e-13 0.00000000e+00 1.24440213e-14
2.75422870e+01 5.58615872e-13 9.30637977e-15 0.00000000e+00 5.49309492e-13 0.00000000e+00 9.30637977e-15
3.16227766e+01 4.48905576e-13 6.14866414e-15 0.00000000e+00 4.42756912e-13 0.00000000e+00 6.14866414e-15
3.63078055e+01 3.42174901e-13 4.06238211e-15 0.00000000e+00 3.38112519e-13 0.00000000e+00 4.06238211e-15
4.16869383e+01 2.44197060e-13 2.68398924e-15 0.00000000e+00 2.41513071e-13 0.00000000e+00 2.68398924e-15
4.78630092e+01 1.63498665e-13 1.77329411e-15 0.00000000e+00 1.61725371e-13 0.00000000e+00 1.77329411e-15
5.49540874e+01 1.03727489e-13 1.17160380e-15 0.00000000e+00 1.02555885e-13 0.00000000e+00 1.17160380e-15
6.30957344e+01 6.29017690e-14 7.74070953e-16 0.00000000e+00 6.21276981e-14 0.00000000e+00 7.74070953e-16
7.24435960e+01 3.68159071e-14 5.11423607e-16 0.00000000e+00 3.63044835e-14 0.00000000e+00 5.11423607e-16
8.31763771e+01 2.10128675e-14 3.37894226e-16 0.00000000e+00 2.06749733e-14 0.00000000e+00 3.37894226e-16
9.54992586e+01 1.17699342e-14 2.23244502e-16 0.00000000e+00 1.15466897e-14 0.00000000e+00 2.23244502e-16
1.09647820e+02 6.50820405e-15 1.47496179e-16 0.00000000e+00 6.36070787e-15 0.00000000e+00 1.47496179e-16
1.25892541e+02 3.60289630e-15 9.74497594e-17 0.00000000e+00 3.50544655e-15 0.00000000e+00 9.74497594e-17
1.44543977e+02 1.98621797e-15 6.43844175e-17 0.00000000e+00 1.92183355e-15 0.00000000e+00 6.43844175e-17
1.65958691e+02 1.04614509e-15 4.25383628e-17 0.00000000e+00 1.00360672e-15 0.00000000e+00 4.25383628e-17
1.90546072e+02 5.52827174e-16 2.81048176e-17 0.00000000e+00 5.24722356e-16 0.00000000e+00 2.81048176e-17
2.18776162e+02 2.92534155e-16 1.85686688e-17 0.00000000e+00 2.73965486e-16 0.00000000e+00 1.85686688e-17
2.51188643e+02 1.54828520e-16 1.22681978e-17 0.00000000e+00 1.42560322e-16 0.00000000e+00 1.22681978e-17
2.88403150e+02 8.19549932e-17 8.10551794e-18 0.00000000e+00 7.38494753e-17 0.00000000e+00 8.10551794e-18
3.31131121e+02 4.35034984e-17 5.35526259e-18 0.00000000e+00 3.81482358e-17 0.00000000e+00 5.35526259e-18
3.80189396e+02 2.31697286e-17 3.53818691e-18 0.00000000e+00 1.96315417e-17 0.00000000e+00 3.53818691e-18
4.36515832e+02 1.24147572e-17 2.33765691e-18 0.00000000e+00 1.00771003e-17 0.00000000e+00 2.33765691e-18
5.01187234e+02 6.70273686e-18 1.54447460e-18 0.00000000e+00 5.15826225e-18 0.00000000e+00 1.54447460e-18
5.75439937e+02 3.65481807e-18 1.02042425e-18 0.00000000e+00 2.63439382e-18 0.00000000e+00 1.02042425e-18
6.60693448e+02 2.01695244e-18 6.74187617e-19 0.00000000e+00 1.34276482e-18 0.00000000e+00 6.74187617e-19
7.58577575e+02 1.12865503e-18 4.45431341e-19 0.00000000e+00 6.83223688e-19 0.00000000e+00 4.45431341e-19
8.70963590e+02 6.41318321e-19 2.94293569e-19 0.00000000e+00 3.47024752e-19 0.00000000e+00 2.94293569e-19
1.00000000e+03 1.75969154e-19 0.00000000e+00 0.00000000e+00 1.75969154e-19 0.00000000e+00 0.00000000e+00
