# column 1: lambda (micron)
# column 2: total flux; lambda*F_lambda (W/m2)
# column 3: direct stellar flux; lambda*F_lambda (W/m2)
# column 4: scattered stellar flux; lambda*F_lambda (W/m2)
# column 5: total dust emission flux; lambda*F_lambda (W/m2)
# column 6: dust emission scattered flux; lambda*F_lambda (W/m2)
# column 7: transparent flux; lambda*F_lambda (W/m2)
1.00000000e-03 1.07335673e-12 1.07335627e-12 4.62250925e-19 0.00000000e+00 0.00000000e+00 1.07335627e-12
1.14815362e-03 1.26691312e-12 1.26690456e-12 8.56386658e-18 0.00000000e+00 0.00000000e+00 1.26690456e-12
1.31825674e-03 1.49535965e-12 1.49535359e-12 6.06429339e-18 0.00000000e+00 0.00000000e+00 1.49535359e-12
1.51356125e-03 1.76500847e-12 1.76499670e-12 1.17689419e-17 0.00000000e+00 0.00000000e+00 1.76499670e-12
1.73780083e-03 2.11432811e-12 2.08326203e-12 3.10660818e-14 0.00000000e+00 0.00000000e+00 2.08326203e-12
1.99526231e-03 2.45893216e-12 2.45891716e-12 1.50046129e-17 0.00000000e+00 0.00000000e+00 2.45891716e-12
2.29086765e-03 2.90243896e-12 2.90231066e-12 1.28300291e-16 0.00000000e+00 0.00000000e+00 2.90231066e-12
2.63026799e-03 3.42574141e-12 3.42565717e-12 8.42368106e-17 0.00000000e+00 0.00000000e+00 3.42565717e-12
3.01995172e-03 4.04382081e-12 4.04337385e-12 4.46958519e-16 0.00000000e+00 0.00000000e+00 4.04337385e-12
3.46736850e-03 4.91542987e-12 4.77247759e-12 1.42952283e-13 0.00000000e+00 0.00000000e+00 4.77247759e-12
3.98107171e-03 5.63645684e-12 5.63305378e-12 3.40305753e-15 0.00000000e+00 0.00000000e+00 5.63305378e-12
4.57088190e-03 6.72356596e-12 6.64880962e-12 7.47563370e-14 0.00000000e+00 0.00000000e+00 6.64880962e-12
5.24807460e-03 7.84969065e-12 7.84772720e-12 1.96345477e-15 0.00000000e+00 0.00000000e+00 7.84772720e-12
6.02559586e-03 9.26977602e-12 9.26283435e-12 6.94166844e-15 0.00000000e+00 0.00000000e+00 9.26283435e-12
6.91830971e-03 1.09531524e-11 1.09331145e-11 2.00378971e-14 0.00000000e+00 0.00000000e+00 1.09331145e-11
7.94328235e-03 1.29199757e-11 1.29045807e-11 1.53950233e-14 1.39503801e-303 5.18463663e-306 1.29045807e-11
9.12010839e-03 1.52605986e-11 1.52315429e-11 2.90557299e-14 7.89187799e-265 6.06486026e-267 1.52315429e-11
1.04712855e-02 1.70615295e-11 1.70115517e-11 4.99777785e-14 4.14420114e-231 2.45705394e-233 1.70115517e-11
1.20226443e-02 1.70538033e-11 1.70115517e-11 4.22516211e-14 7.86801230e-202 6.61960477e-204 1.70115517e-11
1.38038426e-02 1.70665147e-11 1.70115517e-11 5.49630136e-14 2.52811026e-176 2.14669645e-178 1.70115517e-11
1.58489319e-02 1.70502152e-11 1.70115517e-11 3.86635325e-14 3.96415825e-154 5.05051468e-156 1.70115517e-11
1.81970086e-02 1.70628004e-11 1.70115517e-11 5.12486801e-14 8.00776722e-135 9.98815956e-137 1.70115517e-11
2.08929613e-02 1.70580648e-11 1.70115517e-11 4.65130944e-14 4.67683435e-118 7.45941440e-120 1.70115517e-11
2.39883292e-02 1.70637545e-11 1.70115517e-11 5.22027397e-14 1.80618026e-103 3.38029433e-105 1.70115517e-11
2.75422870e-02 1.70698231e-11 1.70115517e-11 5.82713726e-14 8.78367031e-91 1.87409465e-92 1.70115517e-11
3.16227766e-02 1.70692492e-11 1.70115517e-11 5.76974988e-14 9.22377846e-80 2.37702593e-81 1.70115517e-11
3.63078055e-02 1.70697779e-11 1.70115517e-11 5.82261437e-14 3.40313762e-70 9.27967142e-72 1.70115517e-11
4.16869383e-02 1.70757018e-11 1.70115517e-11 6.41500538e-14 6.86043934e-62 2.45092736e-63 1.70115517e-11
4.78630092e-02 1.70816098e-11 1.70115517e-11 7.00580714e-14 1.08896496e-54 4.84989080e-56 1.70115517e-11
5.49540874e-02 1.70867495e-11 1.70115517e-11 7.51977448e-14 1.88854537e-48 9.91041664e-50 1.70115517e-11
6.30957344e-02 1.70996744e-11 1.70115517e-11 8.81226675e-14 6.28980258e-43 3.64447888e-44 1.70115517e-11
7.24435960e-02 1.71010165e-11 1.70115517e-11 8.94647697e-14 3.72430930e-38 1.97192731e-39 1.70115517e-11
8.31763771e-02 1.70981121e-11 1.70115517e-11 8.65603496e-14 3.92128133e-34 2.06585951e-35 1.70115517e-11
9.54992586e-02 1.70959752e-11 1.70115517e-11 8.44235051e-14 1.13431599e-30 6.22310008e-32 1.70115517e-11
1.09647820e-01 1.63247391e-11 1.62459122e-11 7.88269777e-14 9.89793471e-28 6.02828863e-29 1.62459122e-11
1.25892541e-01 1.52305854e-11 1.51615674e-11 6.90179615e-14 3.28134890e-25 2.00149607e-26 1.51615674e-11
1.44543977e-01 1.42072586e-11 1.41495980e-11 5.76606395e-14 4.55757923e-23 2.76262231e-24 1.41495980e-11
1.65958691e-01 1.32602299e-11 1.32051732e-11 5.50566901e-14 2.35081227e-21 1.60376822e-22 1.32051732e-11
1.90546072e-01 1.23836125e-11 1.23237846e-11 5.98277829e-14 5.01933352e-20 4.07157394e-21 1.23237846e-11
2.18776162e-01 1.15611312e-11 1.15012250e-11 5.99055915e-14 5.99623233e-19 5.08759370e-20 1.15012250e-11
2.51188643e-01 1.07931645e-11 1.07335677e-11 5.95893617e-14 7.42470846e-18 7.98374230e-19 1.07335677e-11
2.88403150e-01 1.00701864e-11 1.00171482e-11 5.29758343e-14 6.23582600e-17 6.60223570e-18 1.00171482e-11
3.31131121e-01 9.39449743e-12 9.34854667e-12 4.55915835e-14 3.59177896e-16 3.62322108e-17 9.34854667e-12
3.80189396e-01 8.76590450e-12 8.72457139e-12 3.98255396e-14 1.50757106e-15 1.49721284e-16 8.72457139e-12
4.36515832e-01 8.18170907e-12 8.14224377e-12 3.46775474e-14 4.78774726e-15 4.62819051e-16 8.14224377e-12
5.01187234e-01 7.64056697e-12 7.59878402e-12 2.97971697e-14 1.19857870e-14 1.13742276e-15 7.59878402e-12
5.75439937e-01 7.14308341e-12 7.09159786e-12 2.68422798e-14 2.46432610e-14 2.28436828e-15 7.09159786e-12
6.60693448e-01 6.68518652e-12 6.61826421e-12 2.37846200e-14 4.31376961e-14 3.97396982e-15 6.61826421e-12
7.58577575e-01 6.26432716e-12 6.17652353e-12 2.12082273e-14 6.65953982e-14 5.92171049e-15 6.17652353e-12
8.70963590e-01 5.87501864e-12 5.76426715e-12 1.80424183e-14 9.27090672e-14 7.79819241e-15 5.76426715e-12
1.00000000e+00 5.51335770e-12 5.37952711e-12 1.56250775e-14 1.18205515e-13 9.43622107e-15 5.37952711e-12
1.14815362e+00 5.17613412e-12 5.02046681e-12 1.24981968e-14 1.43169112e-13 1.05103763e-14 5.02046681e-12
1.31825674e+00 4.86419142e-12 4.68537225e-12 1.00524501e-14 1.68766728e-13 1.09731878e-14 4.68537225e-12
1.51356125e+00 4.57655915e-12 4.37264380e-12 7.43065175e-15 1.96484697e-13 1.08503120e-14 4.37264380e-12
1.73780083e+00 4.31358420e-12 4.08078863e-12 5.19115042e-15 2.27604415e-13 1.05025273e-14 4.08078863e-12
1.99526231e+00 4.07311068e-12 3.80841354e-12 3.66758057e-15 2.61029558e-13 9.55069892e-15 3.80841354e-12
2.29086765e+00 3.84971246e-12 3.55421832e-12 2.71256182e-15 2.92781585e-13 8.21347499e-15 3.55421832e-12
2.63026799e+00 3.63690707e-12 3.31698953e-12 1.87793917e-15 3.18039601e-13 6.84332977e-15 3.31698953e-12
3.01995172e+00 3.42881542e-12 3.09559474e-12 1.27948340e-15 3.31941197e-13 5.56833130e-15 3.09559474e-12
3.46736850e+00 3.22339769e-12 2.88897711e-12 8.39635856e-16 3.33580946e-13 4.40593167e-15 2.88897711e-12
3.98107171e+00 3.01964553e-12 2.69615031e-12 5.60811020e-16 3.22934412e-13 3.29967538e-15 2.69615031e-12
4.57088190e+00 2.81965019e-12 2.51619387e-12 3.65056312e-16 3.03091260e-13 2.33158060e-15 2.51619387e-12
5.24807460e+00 2.36107267e-12 2.08050667e-12 2.15985799e-16 2.80350011e-13 1.57718562e-15 2.08050667e-12
6.02559586e+00 1.63098453e-12 1.37457712e-12 9.25833023e-17 2.56314826e-13 1.00363404e-15 1.37457712e-12
6.70000000e+00 1.23675552e-12 9.99872685e-13 4.51246793e-17 2.36837708e-13 6.80518706e-16 9.99872685e-13
6.92422916e+00 1.13666378e-12 9.05846924e-13 3.57579347e-17 2.30781101e-13 5.90394983e-16 9.05846924e-13
7.15596261e+00 1.04751614e-12 8.20663132e-13 2.97802730e-17 2.26823229e-13 5.12579788e-16 8.20663132e-13
7.39545150e+00 9.71970581e-13 7.43489831e-13 2.21353463e-17 2.28458615e-13 4.41549147e-16 7.43489831e-13
7.64295536e+00 9.19724951e-13 6.73573732e-13 1.58581296e-17 2.46135360e-13 3.68170278e-16 6.73573732e-13
7.89874245e+00 8.98194271e-13 6.10232385e-13 9.86491895e-18 2.87952021e-13 2.97099359e-16 6.10232385e-13
8.16308998e+00 9.03174640e-13 5.52847515e-13 5.82715861e-18 3.50321298e-13 2.36710741e-16 5.52847515e-13
8.43628443e+00 9.39425879e-13 5.00858987e-13 3.25939535e-18 4.38563632e-13 1.83695113e-16 5.00858987e-13
8.71862190e+00 9.55354049e-13 4.53759343e-13 2.16185911e-18 5.01592544e-13 1.44511466e-16 4.53759343e-13
9.01040836e+00 9.81460126e-13 4.11088843e-13 1.39338630e-18 5.70369889e-13 1.10695554e-16 4.11088843e-13
9.31196005e+00 9.95584295e-13 3.72430980e-13 0.00000000e+00 6.23153315e-13 0.00000000e+00 3.72430980e-13
9.62360379e+00 9.57139355e-13 3.37408415e-13 0.00000000e+00 6.19730941e-13 0.00000000e+00 3.37408415e-13
9.94567731e+00 8.79732415e-13 3.05679292e-13 0.00000000e+00 5.74053123e-13 0.00000000e+00 3.05679292e-13
1.02785297e+01 7.95606162e-13 2.76933904e-13 0.00000000e+00 5.18672258e-13 0.00000000e+00 2.76933904e-13
1.06225216e+01 7.15562638e-13 2.50891667e-13 0.00000000e+00 4.64670971e-13 0.00000000e+00 2.50891667e-13
1.09780260e+01 6.35688783e-13 2.27298384e-13 0.00000000e+00 4.08390399e-13 0.00000000e+00 2.27298384e-13
1.13454280e+01 5.66291965e-13 2.05923759e-13 0.00000000e+00 3.60368206e-13 0.00000000e+00 2.05923759e-13
1.17251259e+01 5.06921765e-13 1.86559155e-13 0.00000000e+00 3.20362610e-13 0.00000000e+00 1.86559155e-13
1.21175312e+01 4.53037566e-13 1.69015555e-13 0.00000000e+00 2.84022011e-13 0.00000000e+00 1.69015555e-13
1.25230691e+01 4.05900041e-13 1.53121715e-13 0.00000000e+00 2.52778326e-13 0.00000000e+00 1.53121715e-13
1.29421791e+01 3.65031063e-13 1.38722496e-13 0.00000000e+00 2.26308567e-13 0.00000000e+00 1.38722496e-13
1.33753155e+01 3.30142021e-13 1.25677347e-13 0.00000000e+00 2.04464673e-13 0.00000000e+00 1.25677347e-13
1.38229477e+01 3.04052814e-13 1.13858934e-13 0.00000000e+00 1.90193880e-13 0.00000000e+00 1.13858934e-13
1.42855609e+01 2.85179639e-13 1.03151898e-13 0.00000000e+00 1.82027741e-13 0.00000000e+00 1.03151898e-13
1.47636563e+01 2.76869137e-13 9.34517274e-14 0.00000000e+00 1.83417410e-13 0.00000000e+00 9.34517274e-14
1.52577522e+01 2.72382947e-13 8.46637387e-14 0.00000000e+00 1.87719208e-13 0.00000000e+00 8.46637387e-14
1.57683840e+01 2.70080463e-13 7.67021526e-14 0.00000000e+00 1.93378310e-13 0.00000000e+00 7.67021526e-14
1.62961051e+01 2.68568529e-13 6.94892560e-14 0.00000000e+00 1.99079273e-13 0.00000000e+00 6.94892560e-14
1.68414875e+01 2.67448167e-13 6.29546439e-14 0.00000000e+00 2.04493523e-13 0.00000000e+00 6.29546439e-14
1.74051222e+01 2.63860899e-13 5.70345319e-14 0.00000000e+00 2.06826368e-13 0.00000000e+00 5.70345319e-14
1.79876201e+01 2.58646490e-13 5.16711337e-14 0.00000000e+00 2.06975356e-13 0.00000000e+00 5.16711337e-14
1.85896125e+01 2.50017709e-13 4.68120974e-14 0.00000000e+00 2.03205611e-13 0.00000000e+00 4.68120974e-14
1.92117518e+01 2.38317463e-13 4.24099939e-14 0.00000000e+00 1.95907469e-13 0.00000000e+00 4.24099939e-14
1.98547123e+01 2.25665085e-13 3.84218542e-14 0.00000000e+00 1.87243231e-13 0.00000000e+00 3.84218542e-14
2.05191907e+01 2.12483330e-13 3.48087501e-14 0.00000000e+00 1.77674580e-13 0.00000000e+00 3.48087501e-14
2.12059073e+01 2.00201493e-13 3.15354141e-14 0.00000000e+00 1.68666079e-13 0.00000000e+00 3.15354141e-14
2.19156062e+01 1.89293620e-13 2.85698952e-14 0.00000000e+00 1.60723725e-13 0.00000000e+00 2.85698952e-14
2.26490567e+01 1.79236805e-13 2.58832470e-14 0.00000000e+00 1.53353558e-13 0.00000000e+00 2.58832470e-14
2.34070535e+01 1.70106185e-13 2.34492452e-14 0.00000000e+00 1.46656940e-13 0.00000000e+00 2.34492452e-14
2.41904183e+01 1.61504631e-13 2.12441313e-14 0.00000000e+00 1.40260500e-13 0.00000000e+00 2.12441313e-14
2.50000000e+01 1.53532882e-13 1.92463813e-14 0.00000000e+00 1.34286500e-13 0.00000000e+00 1.92463813e-14
2.75422870e+01 1.31879864e-13 1.43935895e-14 0.00000000e+00 1.17486275e-13 0.00000000e+00 1.43935895e-14
3.16227766e+01 1.05082932e-13 9.50975027e-15 0.00000000e+00 9.55731814e-14 0.00000000e+00 9.50975027e-15
3.63078055e+01 8.05271612e-14 6.28302969e-15 0.00000000e+00 7.42441315e-14 0.00000000e+00 6.28302969e-15
4.16869383e+01 5.84612545e-14 4.15115655e-15 0.00000000e+00 5.43100979e-14 0.00000000e+00 4.15115655e-15
4.78630092e+01 4.00873613e-14 2.74264194e-15 0.00000000e+00 3.73447194e-14 0.00000000e+00 2.74264194e-15
5.49540874e+01 2.61746920e-14 1.81204556e-15 0.00000000e+00 2.43626464e-14 0.00000000e+00 1.81204556e-15
6.30957344e+01 1.64492602e-14 1.19720663e-15 0.00000000e+00 1.52520535e-14 0.00000000e+00 1.19720663e-15
7.24435960e+01 1.00125873e-14 7.90986575e-16 0.00000000e+00 9.22160077e-15 0.00000000e+00 7.90986575e-16
8.31763771e+01 5.95158474e-15 5.22599647e-16 0.00000000e+00 5.42898509e-15 0.00000000e+00 5.22599647e-16
9.54992586e+01 3.47641413e-15 3.45278163e-16 0.00000000e+00 3.13113596e-15 0.00000000e+00 3.45278163e-16
1.09647820e+02 2.00498222e-15 2.28123020e-16 0.00000000e+00 1.77685920e-15 0.00000000e+00 2.28123020e-16
1.25892541e+02 1.15685157e-15 1.50719385e-16 0.00000000e+00 1.00613219e-15 0.00000000e+00 1.50719385e-16
1.44543977e+02 6.64776085e-16 9.95793099e-17 0.00000000e+00 5.65196775e-16 0.00000000e+00 9.95793099e-17
1.65958691e+02 3.67234051e-16 6.57913976e-17 0.00000000e+00 3.01442653e-16 0.00000000e+00 6.57913976e-17
1.90546072e+02 2.04067477e-16 4.34679453e-17 0.00000000e+00 1.60599531e-16 0.00000000e+00 4.34679453e-17
2.18776162e+02 1.13959494e-16 2.87189867e-17 0.00000000e+00 8.52405074e-17 0.00000000e+00 2.87189867e-17
2.51188643e+02 6.39758959e-17 1.89744463e-17 0.00000000e+00 4.50014496e-17 0.00000000e+00 1.89744463e-17
2.88403150e+02 3.61408935e-17 1.25362924e-17 0.00000000e+00 2.36046011e-17 0.00000000e+00 1.25362924e-17
3.31131121e+02 2.06104459e-17 8.28264623e-18 0.00000000e+00 1.23277997e-17 0.00000000e+00 8.28264623e-18
3.80189396e+02 1.18764435e-17 5.47229010e-18 0.00000000e+00 6.40415335e-18 0.00000000e+00 5.47229010e-18
4.36515832e+02 6.92994667e-18 3.61550621e-18 0.00000000e+00 3.31444045e-18 0.00000000e+00 3.61550621e-18
5.01187234e+02 4.09749114e-18 2.38874127e-18 0.00000000e+00 1.70874988e-18 0.00000000e+00 2.38874127e-18
5.75439937e+02 2.45633800e-18 1.57822570e-18 0.00000000e+00 8.78112296e-19 0.00000000e+00 1.57822570e-18
6.60693448e+02 1.49270454e-18 1.04272338e-18 0.00000000e+00 4.49981162e-19 0.00000000e+00 1.04272338e-18
7.58577575e+02 9.18948879e-19 6.88920507e-19 0.00000000e+00 2.30028373e-19 0.00000000e+00 6.88920507e-19
8.70963590e+02 5.72474374e-19 4.55165265e-19 0.00000000e+00 1.17309109e-19 0.00000000e+00 4.55165265e-19
1.00000000e+03 5.96941207e-20 0.00000000e+00 0.00000000e+00 5.96941207e-20 0.00000000e+00 0.00000000e+00
