# column 1: lambda (micron)
# column 2: total flux; lambda*F_lambda (W/m2)
# column 3: direct stellar flux; lambda*F_lambda (W/m2)
# column 4: scattered stellar flux; lambda*F_lambda (W/m2)
# column 5: total dust emission flux; lambda*F_lambda (W/m2)
# column 6: dust emission scattered flux; lambda*F_lambda (W/m2)
# column 7: transparent flux; lambda*F_lambda (W/m2)
1.00000000e-03 6.93994106e-13 6.93993746e-13 3.60303376e-19 0.00000000e+00 0.00000000e+00 6.93993746e-13
1.14815362e-03 8.19135695e-13 8.19135139e-13 5.55557809e-19 0.00000000e+00 0.00000000e+00 8.19135139e-13
1.31825674e-03 9.66843041e-13 9.66842108e-13 9.32873157e-19 0.00000000e+00 0.00000000e+00 9.66842108e-13
1.51356125e-03 1.14118513e-12 1.14118369e-12 1.43614029e-18 0.00000000e+00 0.00000000e+00 1.14118369e-12
1.73780083e-03 1.34696523e-12 1.34696266e-12 2.57138256e-18 0.00000000e+00 0.00000000e+00 1.34696266e-12
1.99526231e-03 1.58985251e-12 1.58984782e-12 4.68668759e-18 0.00000000e+00 0.00000000e+00 1.58984782e-12
2.29086765e-03 1.87653770e-12 1.87653019e-12 7.50380484e-18 0.00000000e+00 0.00000000e+00 1.87653019e-12
2.63026799e-03 2.21492209e-12 2.21490731e-12 1.47766230e-17 0.00000000e+00 0.00000000e+00 2.21490731e-12
3.01995172e-03 2.61432712e-12 2.61430080e-12 2.63202453e-17 0.00000000e+00 0.00000000e+00 2.61430080e-12
3.46736850e-03 3.08575445e-12 3.08571319e-12 4.12617494e-17 0.00000000e+00 0.00000000e+00 3.08571319e-12
3.98107171e-03 3.64220250e-12 3.64213095e-12 7.15493743e-17 0.00000000e+00 0.00000000e+00 3.64213095e-12
4.57088190e-03 4.29903056e-12 4.29888232e-12 1.48243624e-16 0.00000000e+00 0.00000000e+00 4.29888232e-12
5.24807460e-03 5.07433128e-12 5.07405951e-12 2.71773266e-16 0.00000000e+00 0.00000000e+00 5.07405951e-12
6.02559586e-03 5.98951920e-12 5.98901715e-12 5.02052606e-16 0.00000000e+00 0.00000000e+00 5.98901715e-12
6.91830971e-03 7.06977353e-12 7.06896053e-12 8.12999773e-16 0.00000000e+00 0.00000000e+00 7.06896053e-12
7.94328235e-03 8.34515005e-12 8.34363998e-12 1.51006951e-15 0.00000000e+00 0.00000000e+00 8.34363998e-12
9.12010839e-03 9.85038059e-12 9.84817045e-12 2.21014601e-15 0.00000000e+00 0.00000000e+00 9.84817045e-12
1.04712855e-02 1.10020615e-11 1.09990604e-11 3.00102521e-15 0.00000000e+00 0.00000000e+00 1.09990604e-11
1.20226443e-02 1.10036056e-11 1.09990604e-11 4.54519000e-15 0.00000000e+00 0.00000000e+00 1.09990604e-11
1.38038426e-02 1.10052558e-11 1.09990604e-11 6.19532463e-15 9.10160168e-291 1.43395091e-292 1.09990604e-11
1.58489319e-02 1.10083416e-11 1.09990604e-11 9.28116621e-15 6.89882663e-254 1.23431896e-255 1.09990604e-11
1.81970086e-02 1.10114216e-11 1.09990604e-11 1.23611681e-14 8.65384289e-222 1.52900757e-223 1.09990604e-11
2.08929613e-02 1.10176432e-11 1.09990604e-11 1.85827898e-14 7.07137929e-194 1.59212791e-195 1.09990604e-11
2.39883292e-02 1.10226173e-11 1.09990604e-11 2.35568646e-14 1.40745928e-169 3.99983440e-171 1.09990604e-11
2.75422870e-02 1.10341275e-11 1.09990604e-11 3.50670282e-14 1.99148663e-148 6.84512328e-150 1.09990604e-11
3.16227766e-02 1.10387948e-11 1.09990604e-11 3.97343583e-14 4.98052798e-130 2.02784143e-131 1.09990604e-11
3.63078055e-02 1.10456026e-11 1.09990604e-11 4.65421840e-14 4.98902179e-114 2.36181376e-115 1.09990604e-11
4.16869383e-02 1.10593804e-11 1.09990604e-11 6.03199232e-14 4.12814601e-100 2.58538415e-101 1.09990604e-11
4.78630092e-02 1.10854271e-11 1.09990604e-11 8.63666077e-14 5.20880335e-88 4.35910949e-89 1.09990604e-11
5.49540874e-02 1.10975417e-11 1.09990604e-11 9.84813010e-14 1.70984710e-77 1.77171736e-78 1.09990604e-11
6.30957344e-02 1.11244348e-11 1.09990604e-11 1.25374364e-13 3.09239750e-68 3.99975730e-69 1.09990604e-11
7.24435960e-02 1.11221417e-11 1.09990604e-11 1.23081267e-13 3.27922534e-60 4.37352310e-61 1.09990604e-11
8.31763771e-02 1.11183429e-11 1.09990604e-11 1.19282444e-13 2.42425348e-53 3.32860449e-54 1.09990604e-11
9.54992586e-02 1.11186246e-11 1.09990604e-11 1.19564129e-13 2.17762942e-47 3.18183688e-48 1.09990604e-11
1.09647820e-01 1.06283300e-11 1.05040253e-11 1.24304720e-13 2.91366053e-42 4.59073638e-43 1.05040253e-11
1.25892541e-01 9.91283807e-12 9.80292679e-12 1.09911278e-13 7.88934221e-38 1.22711515e-38 9.80292679e-12
1.44543977e-01 9.24772305e-12 9.14862359e-12 9.90994626e-14 5.18555090e-34 7.86359053e-35 9.14862359e-12
1.65958691e-01 8.63783658e-12 8.53799231e-12 9.98442638e-14 7.94907390e-31 1.32551935e-31 8.53799231e-12
1.90546072e-01 8.07833239e-12 7.96811805e-12 1.10214342e-13 3.31489922e-28 6.72131070e-29 7.96811805e-12
2.18776162e-01 7.55067050e-12 7.43628044e-12 1.14390065e-13 5.24063991e-26 1.15816621e-26 7.43628044e-12
2.51188643e-01 7.06508645e-12 6.93994070e-12 1.25145753e-13 6.76635576e-24 1.74284114e-24 6.93994070e-12
2.88403150e-01 6.59376172e-12 6.47672950e-12 1.17032212e-13 4.40169357e-22 1.11593742e-22 6.47672950e-12
3.31131121e-01 6.15191168e-12 6.04443567e-12 1.07476003e-13 1.53890098e-20 3.78123763e-21 6.04443567e-12
3.80189396e-01 5.73369128e-12 5.64099558e-12 9.26953850e-14 3.18853793e-19 7.70246392e-20 5.64099558e-12
4.36515832e-01 5.34934560e-12 5.26448339e-12 8.48580042e-14 4.21014450e-18 1.00564706e-18 5.26448339e-12
5.01187234e-01 4.99331981e-12 4.91310176e-12 8.01807008e-14 3.73439501e-17 8.78273383e-18 4.91310176e-12
5.75439937e-01 4.65647962e-12 4.58517335e-12 7.10709415e-14 2.35327349e-16 5.43889244e-17 4.58517335e-12
6.60693448e-01 4.34623439e-12 4.27913275e-12 6.59896818e-14 1.11195594e-15 2.52056184e-16 4.27913275e-12
7.58577575e-01 4.05778855e-12 3.99351904e-12 6.01310656e-14 4.13844133e-15 9.14008860e-16 3.99351904e-12
8.70963590e-01 3.79213474e-12 3.72696882e-12 5.25674189e-14 1.25985018e-14 2.64448680e-15 3.72696882e-12
1.00000000e+00 3.55439722e-12 3.47820968e-12 4.42664378e-14 3.19211041e-14 6.20225845e-15 3.47820968e-12
1.14815362e+00 3.35451434e-12 3.24605414e-12 3.73940344e-14 7.10661572e-14 1.25395267e-14 3.24605414e-12
1.31825674e+00 3.20014631e-12 3.02939399e-12 2.95382436e-14 1.41214074e-13 2.16312461e-14 3.02939399e-12
1.51356125e+00 3.10161689e-12 2.82719497e-12 2.35777517e-14 2.50844173e-13 3.21849250e-14 2.82719497e-12
1.73780083e+00 3.05329536e-12 2.63849186e-12 1.78786557e-14 3.96924841e-13 4.15430248e-14 2.63849186e-12
1.99526231e+00 3.03898925e-12 2.46238388e-12 1.30661095e-14 5.63539264e-13 4.54618862e-14 2.46238388e-12
2.29086765e+00 3.03737891e-12 2.29803035e-12 9.07485581e-15 7.30273710e-13 4.40816462e-14 2.29803035e-12
2.63026799e+00 3.02080113e-12 2.14464670e-12 6.23331386e-15 8.69921108e-13 3.82122687e-14 2.14464670e-12
3.01995172e+00 2.97842872e-12 2.00150076e-12 4.09777507e-15 9.72830187e-13 3.07836526e-14 2.00150076e-12
3.46736850e+00 2.90043203e-12 1.86790919e-12 2.92905833e-15 1.02959378e-12 2.36730022e-14 1.86790919e-12
3.98107171e+00 2.79059321e-12 1.74323429e-12 1.98110401e-15 1.04537781e-12 1.70828407e-14 1.74323429e-12
4.57088190e+00 2.65173578e-12 1.62688090e-12 1.29992552e-15 1.02355496e-12 1.18085987e-14 1.62688090e-12
5.24807460e+00 2.32656065e-12 1.34518114e-12 7.46168959e-16 9.80633335e-13 7.87423897e-15 1.34518114e-12
6.02559586e+00 1.81560206e-12 8.88752369e-13 3.25566439e-16 9.26524125e-13 4.92600805e-15 8.88752369e-13
6.70000000e+00 1.52699520e-12 6.46481889e-13 1.69394614e-16 8.80343916e-13 3.30258604e-15 6.46481889e-13
6.92422916e+00 1.45206383e-12 5.85688198e-13 1.34422756e-16 8.66241207e-13 2.90375696e-15 5.85688198e-13
7.15596261e+00 1.38713387e-12 5.30611407e-13 1.06007619e-16 8.56416459e-13 2.51570297e-15 5.30611407e-13
7.39545150e+00 1.34625963e-12 4.80713913e-13 8.23492615e-17 8.65463370e-13 2.15308071e-15 4.80713913e-13
7.64295536e+00 1.35848123e-12 4.35508666e-13 5.67481234e-17 9.22915814e-13 1.77669384e-15 4.35508666e-13
7.89874245e+00 1.44951525e-12 3.94554418e-13 3.44037952e-17 1.05492642e-12 1.40758569e-15 3.94554418e-13
8.16308998e+00 1.60687856e-12 3.57451415e-13 1.96532126e-17 1.24940749e-12 1.08633302e-15 3.57451415e-13
8.43628443e+00 1.85096587e-12 3.23837494e-13 1.07882873e-17 1.52711759e-12 8.29658857e-16 3.23837494e-13
8.71862190e+00 2.02424938e-12 2.93384550e-13 7.08348989e-18 1.73085775e-12 6.52197433e-16 2.93384550e-13
9.01040836e+00 2.20685720e-12 2.65795332e-13 4.77249237e-18 1.94105709e-12 5.05528045e-16 2.65795332e-13
9.31196005e+00 2.36449063e-12 2.40800541e-13 0.00000000e+00 2.12369008e-12 0.00000000e+00 2.40800541e-13
9.62360379e+00 2.35768815e-12 2.18156204e-13 0.00000000e+00 2.13953195e-12 0.00000000e+00 2.18156204e-13
9.94567731e+00 2.22199958e-12 1.97641289e-13 0.00000000e+00 2.02435829e-12 0.00000000e+00 1.97641289e-13
1.02785297e+01 2.02978867e-12 1.79055550e-13 0.00000000e+00 1.85073312e-12 0.00000000e+00 1.79055550e-13
1.06225216e+01 1.86031053e-12 1.62217572e-13 0.00000000e+00 1.69809295e-12 0.00000000e+00 1.62217572e-13
1.09780260e+01 1.67565979e-12 1.46962999e-13 0.00000000e+00 1.52869679e-12 0.00000000e+00 1.46962999e-13
1.13454280e+01 1.51752904e-12 1.33142932e-13 0.00000000e+00 1.38438611e-12 0.00000000e+00 1.33142932e-13
1.17251259e+01 1.38629500e-12 1.20622472e-13 0.00000000e+00 1.26567252e-12 0.00000000e+00 1.20622472e-13
1.21175312e+01 1.26088651e-12 1.09279408e-13 0.00000000e+00 1.15160710e-12 0.00000000e+00 1.09279408e-13
1.25230691e+01 1.15457359e-12 9.90030204e-14 0.00000000e+00 1.05557057e-12 0.00000000e+00 9.90030204e-14
1.29421791e+01 1.06273399e-12 8.96930008e-14 0.00000000e+00 9.73040988e-13 0.00000000e+00 8.96930008e-14
1.33753155e+01 9.85412651e-13 8.12584743e-14 0.00000000e+00 9.04154177e-13 0.00000000e+00 8.12584743e-14
1.38229477e+01 9.38592189e-13 7.36171115e-14 0.00000000e+00 8.64975078e-13 0.00000000e+00 7.36171115e-14
1.42855609e+01 9.13997271e-13 6.66943252e-14 0.00000000e+00 8.47302946e-13 0.00000000e+00 6.66943252e-14
1.47636563e+01 9.31498233e-13 6.04225420e-14 0.00000000e+00 8.71075691e-13 0.00000000e+00 6.04225420e-14
1.52577522e+01 9.55752784e-13 5.47405431e-14 0.00000000e+00 9.01012241e-13 0.00000000e+00 5.47405431e-14
1.57683840e+01 9.92072366e-13 4.95928665e-14 0.00000000e+00 9.42479499e-13 0.00000000e+00 4.95928665e-14
1.62961051e+01 1.03006999e-12 4.49292657e-14 0.00000000e+00 9.85140723e-13 0.00000000e+00 4.49292657e-14
1.68414875e+01 1.06884607e-12 4.07042194e-14 0.00000000e+00 1.02814185e-12 0.00000000e+00 4.07042194e-14
1.74051222e+01 1.09504755e-12 3.68764869e-14 0.00000000e+00 1.05817107e-12 0.00000000e+00 3.68764869e-14
1.79876201e+01 1.11786078e-12 3.34087056e-14 0.00000000e+00 1.08445208e-12 0.00000000e+00 3.34087056e-14
1.85896125e+01 1.11691838e-12 3.02670267e-14 0.00000000e+00 1.08665135e-12 0.00000000e+00 3.02670267e-14
1.92117518e+01 1.11538622e-12 2.74207841e-14 0.00000000e+00 1.08796543e-12 0.00000000e+00 2.74207841e-14
1.98547123e+01 1.09268396e-12 2.48421957e-14 0.00000000e+00 1.06784176e-12 0.00000000e+00 2.48421957e-14
2.05191907e+01 1.07011908e-12 2.25060919e-14 0.00000000e+00 1.04761299e-12 0.00000000e+00 2.25060919e-14
2.12059073e+01 1.04909631e-12 2.03896700e-14 0.00000000e+00 1.02870664e-12 0.00000000e+00 2.03896700e-14
2.19156062e+01 1.02931709e-12 1.84722717e-14 0.00000000e+00 1.01084482e-12 0.00000000e+00 1.84722717e-14
2.26490567e+01 1.01565131e-12 1.67351811e-14 0.00000000e+00 9.98916124e-13 0.00000000e+00 1.67351811e-14
2.34070535e+01 1.00333298e-12 1.51614426e-14 0.00000000e+00 9.88171533e-13 0.00000000e+00 1.51614426e-14
2.41904183e+01 9.90333606e-13 1.37356949e-14 0.00000000e+00 9.76597911e-13 0.00000000e+00 1.37356949e-14
2.50000000e+01 9.79961040e-13 1.24440213e-14 0.00000000e+00 9.67517018e-13 0.00000000e+00 1.24440213e-14
2.75422870e+01 9.39040461e-13 9.30637977e-15 0.00000000e+00 9.29734081e-13 0.00000000e+00 9.30637977e-15
3.16227766e+01 8.69811278e-13 6.14866414e-15 0.00000000e+00 8.63662614e-13 0.00000000e+00 6.14866414e-15
3.63078055e+01 7.69492509e-13 4.06238211e-15 0.00000000e+00 7.65430127e-13 0.00000000e+00 4.06238211e-15
4.16869383e+01 6.39265984e-13 2.68398924e-15 0.00000000e+00 6.36581995e-13 0.00000000e+00 2.68398924e-15
4.78630092e+01 4.97781261e-13 1.77329411e-15 0.00000000e+00 4.96007967e-13 0.00000000e+00 1.77329411e-15
5.49540874e+01 3.63189936e-13 1.17160380e-15 0.00000000e+00 3.62018332e-13 0.00000000e+00 1.17160380e-15
6.30957344e+01 2.50717172e-13 7.74070953e-16 0.00000000e+00 2.49943101e-13 0.00000000e+00 7.74070953e-16
7.24435960e+01 1.64713291e-13 5.11423607e-16 0.00000000e+00 1.64201867e-13 0.00000000e+00 5.11423607e-16
8.31763771e+01 1.04034420e-13 3.37894226e-16 0.00000000e+00 1.03696526e-13 0.00000000e+00 3.37894226e-16
9.54992586e+01 6.35113123e-14 2.23244502e-16 0.00000000e+00 6.32880678e-14 0.00000000e+00 2.23244502e-16
1.09647820e+02 3.77545432e-14 1.47496179e-16 0.00000000e+00 3.76070470e-14 0.00000000e+00 1.47496179e-16
1.25892541e+02 2.21822551e-14 9.74497594e-17 0.00000000e+00 2.20848053e-14 0.00000000e+00 9.74497594e-17
1.44543977e+02 1.28394148e-14 6.43844175e-17 0.00000000e+00 1.27750304e-14 0.00000000e+00 6.43844175e-17
1.65958691e+02 7.04310198e-15 4.25383628e-17 0.00000000e+00 7.00056362e-15 0.00000000e+00 4.25383628e-17
1.90546072e+02 3.83907239e-15 2.81048176e-17 0.00000000e+00 3.81096758e-15 0.00000000e+00 2.81048176e-17
2.18776162e+02 2.07692014e-15 1.85686688e-17 0.00000000e+00 2.05835147e-15 0.00000000e+00 1.85686688e-17
2.51188643e+02 1.11470508e-15 1.22681978e-17 0.00000000e+00 1.10243688e-15 0.00000000e+00 1.22681978e-17
2.88403150e+02 5.93228317e-16 8.10551794e-18 0.00000000e+00 5.85122799e-16 0.00000000e+00 8.10551794e-18
3.31131121e+02 3.13975968e-16 5.35526259e-18 0.00000000e+00 3.08620705e-16 0.00000000e+00 5.35526259e-18
3.80189396e+02 1.65198357e-16 3.53818691e-18 0.00000000e+00 1.61660170e-16 0.00000000e+00 3.53818691e-18
4.36515832e+02 8.65827063e-17 2.33765691e-18 0.00000000e+00 8.42450494e-17 0.00000000e+00 2.33765691e-18
5.01187234e+02 4.52304318e-17 1.54447460e-18 0.00000000e+00 4.36859572e-17 0.00000000e+00 1.54447460e-18
5.75439937e+02 2.35797081e-17 1.02042425e-18 0.00000000e+00 2.25592838e-17 0.00000000e+00 1.02042425e-18
6.60693448e+02 1.22826179e-17 6.74187617e-19 0.00000000e+00 1.16084303e-17 0.00000000e+00 6.74187617e-19
7.58577575e+02 6.40051011e-18 4.45431341e-19 0.00000000e+00 5.95507877e-18 0.00000000e+00 4.45431341e-19
8.70963590e+02 3.34032586e-18 2.94293569e-19 0.00000000e+00 3.04603229e-18 0.00000000e+00 2.94293569e-19
1.00000000e+03 1.55396077e-18 0.00000000e+00 0.00000000e+00 1.55396077e-18 0.00000000e+00 0.00000000e+00
