# column 1: lambda (micron)
# column 2: total flux; lambda*F_lambda (W/m2)
# column 3: direct stellar flux; lambda*F_lambda (W/m2)
# column 4: scattered stellar flux; lambda*F_lambda (W/m2)
# column 5: total dust emission flux; lambda*F_lambda (W/m2)
# column 6: dust emission scattered flux; lambda*F_lambda (W/m2)
# column 7: transparent flux; lambda*F_lambda (W/m2)
1.00000000e-03 1.07335697e-12 1.07335627e-12 6.98445706e-19 0.00000000e+00 0.00000000e+00 1.07335627e-12
1.14815362e-03 1.26690563e-12 1.26690456e-12 1.07226011e-18 0.00000000e+00 0.00000000e+00 1.26690456e-12
1.31825674e-03 1.49535526e-12 1.49535359e-12 1.66906889e-18 0.00000000e+00 0.00000000e+00 1.49535359e-12
1.51356125e-03 1.76499932e-12 1.76499670e-12 2.62030272e-18 0.00000000e+00 0.00000000e+00 1.76499670e-12
1.73780083e-03 2.08326661e-12 2.08326203e-12 4.58075828e-18 0.00000000e+00 0.00000000e+00 2.08326203e-12
1.99526231e-03 2.45892531e-12 2.45891716e-12 8.15286213e-18 0.00000000e+00 0.00000000e+00 2.45891716e-12
2.29086765e-03 2.90232374e-12 2.90231066e-12 1.30734563e-17 0.00000000e+00 0.00000000e+00 2.90231066e-12
2.63026799e-03 3.42568281e-12 3.42565717e-12 2.56413712e-17 0.00000000e+00 0.00000000e+00 3.42565717e-12
3.01995172e-03 4.04341674e-12 4.04337385e-12 4.28930335e-17 0.00000000e+00 0.00000000e+00 4.04337385e-12
3.46736850e-03 4.77306963e-12 4.77247759e-12 5.92043902e-16 0.00000000e+00 0.00000000e+00 4.77247759e-12
3.98107171e-03 5.63316544e-12 5.63305378e-12 1.11653682e-16 0.00000000e+00 0.00000000e+00 5.63305378e-12
4.57088190e-03 6.64906721e-12 6.64880962e-12 2.57586013e-16 0.00000000e+00 0.00000000e+00 6.64880962e-12
5.24807460e-03 7.84818869e-12 7.84772720e-12 4.61494576e-16 0.00000000e+00 0.00000000e+00 7.84772720e-12
6.02559586e-03 9.26370824e-12 9.26283435e-12 8.73891228e-16 0.00000000e+00 0.00000000e+00 9.26283435e-12
6.91830971e-03 1.09344248e-11 1.09331145e-11 1.31027005e-15 0.00000000e+00 0.00000000e+00 1.09331145e-11
7.94328235e-03 1.29067212e-11 1.29045807e-11 2.14054855e-15 0.00000000e+00 0.00000000e+00 1.29045807e-11
9.12010839e-03 1.52350368e-11 1.52315429e-11 3.49387462e-15 0.00000000e+00 0.00000000e+00 1.52315429e-11
1.04712855e-02 1.70169428e-11 1.70115517e-11 5.39112738e-15 0.00000000e+00 0.00000000e+00 1.70115517e-11
1.20226443e-02 1.70188158e-11 1.70115517e-11 7.26404320e-15 0.00000000e+00 0.00000000e+00 1.70115517e-11
1.38038426e-02 1.70218578e-11 1.70115517e-11 1.03060449e-14 3.17598550e-290 3.77423689e-291 1.70115517e-11
1.58489319e-02 1.70264191e-11 1.70115517e-11 1.48673700e-14 1.95282812e-253 2.35568722e-254 1.70115517e-11
1.81970086e-02 1.70335565e-11 1.70115517e-11 2.20047417e-14 2.05063837e-221 2.18613705e-222 1.70115517e-11
2.08929613e-02 1.70439673e-11 1.70115517e-11 3.24156053e-14 1.41307387e-193 1.25902894e-194 1.70115517e-11
2.39883292e-02 1.70499245e-11 1.70115517e-11 3.83728222e-14 2.51700024e-169 2.27519916e-170 1.70115517e-11
2.75422870e-02 1.70631620e-11 1.70115517e-11 5.16103064e-14 3.18755758e-148 2.60303864e-149 1.70115517e-11
3.16227766e-02 1.70732974e-11 1.70115517e-11 6.17456734e-14 7.41060508e-130 6.17098314e-131 1.70115517e-11
3.63078055e-02 1.70845509e-11 1.70115517e-11 7.29991876e-14 7.02582459e-114 5.73744253e-115 1.70115517e-11
4.16869383e-02 1.71152254e-11 1.70115517e-11 1.03673678e-13 5.65817953e-100 5.33708612e-101 1.70115517e-11
4.78630092e-02 1.71518539e-11 1.70115517e-11 1.40302195e-13 7.02182989e-88 7.71647487e-89 1.70115517e-11
5.49540874e-02 1.71885668e-11 1.70115517e-11 1.77015114e-13 2.29714629e-77 2.92493595e-78 1.70115517e-11
6.30957344e-02 1.72236395e-11 1.70115517e-11 2.12087812e-13 4.13027089e-68 5.89993625e-69 1.70115517e-11
7.24435960e-02 1.72192526e-11 1.70115517e-11 2.07700843e-13 4.38451787e-60 6.25342575e-61 1.70115517e-11
8.31763771e-02 1.72164991e-11 1.70115517e-11 2.04947342e-13 3.28231390e-53 4.70364882e-54 1.70115517e-11
9.54992586e-02 1.72280703e-11 1.70115517e-11 2.16518570e-13 2.99993684e-47 4.55719839e-48 1.70115517e-11
1.09647820e-01 1.64727447e-11 1.62459122e-11 2.26832506e-13 4.10139713e-42 6.69667108e-43 1.62459122e-11
1.25892541e-01 1.53635418e-11 1.51615674e-11 2.01974431e-13 1.13245419e-37 1.86317525e-38 1.51615674e-11
1.44543977e-01 1.43319228e-11 1.41495980e-11 1.82324830e-13 7.56760961e-34 1.21852413e-34 1.41495980e-11
1.65958691e-01 1.33990725e-11 1.32051732e-11 1.93899357e-13 1.17852032e-30 2.14121008e-31 1.32051732e-11
1.90546072e-01 1.25412596e-11 1.23237846e-11 2.17474938e-13 4.93043554e-28 1.04924098e-28 1.23237846e-11
2.18776162e-01 1.17249105e-11 1.15012250e-11 2.23685521e-13 7.89158619e-26 1.80997151e-26 1.15012250e-11
2.51188643e-01 1.09941047e-11 1.07335677e-11 2.60537014e-13 1.08550624e-23 3.03363589e-24 1.07335677e-11
2.88403150e-01 1.02645783e-11 1.00171482e-11 2.47430079e-13 7.59787152e-22 2.17455769e-22 1.00171482e-11
3.31131121e-01 9.57048463e-12 9.34854667e-12 2.21937924e-13 2.87448828e-20 8.28515273e-21 9.34854667e-12
3.80189396e-01 8.92683699e-12 8.72457139e-12 2.02264950e-13 6.48650969e-19 1.86934833e-19 8.72457139e-12
4.36515832e-01 8.33004314e-12 8.14224377e-12 1.87790019e-13 9.34862120e-18 2.71789834e-18 8.14224377e-12
5.01187234e-01 7.77305467e-12 7.59878402e-12 1.74179764e-13 9.08891717e-17 2.64142695e-17 7.59878402e-12
5.75439937e-01 7.25399416e-12 7.09159786e-12 1.61774966e-13 6.21324622e-16 1.77820563e-16 7.09159786e-12
6.60693448e-01 6.77355137e-12 6.61826421e-12 1.52138131e-13 3.14903255e-15 8.84775630e-16 6.61826421e-12
7.58577575e-01 6.33014489e-12 6.17652353e-12 1.41259633e-13 1.23617212e-14 3.36837762e-15 6.17652353e-12
8.70963590e-01 5.92973682e-12 5.76426715e-12 1.25973791e-13 3.94958786e-14 1.02170880e-14 5.76426715e-12
1.00000000e+00 5.59362275e-12 5.37952711e-12 1.09679367e-13 1.04416271e-13 2.51696021e-14 5.37952711e-12
1.14815362e+00 5.35195628e-12 5.02046681e-12 9.21519591e-14 2.39337508e-13 5.21055834e-14 5.02046681e-12
1.31825674e+00 5.24517298e-12 4.68537225e-12 7.31121866e-14 4.86688548e-13 9.23674114e-14 4.68537225e-12
1.51356125e+00 5.31476267e-12 4.37264380e-12 5.83460543e-14 8.83772814e-13 1.41935475e-13 4.37264380e-12
1.73780083e+00 5.54570361e-12 4.08078863e-12 4.29672356e-14 1.42194774e-12 1.89604718e-13 4.08078863e-12
1.99526231e+00 5.87646548e-12 3.80841354e-12 3.16349634e-14 2.03641697e-12 2.14869887e-13 3.80841354e-12
2.29086765e+00 6.21106822e-12 3.55421832e-12 2.22945343e-14 2.63455537e-12 2.12266481e-13 3.55421832e-12
2.63026799e+00 6.45349784e-12 3.31698953e-12 1.58716241e-14 3.12063668e-12 1.89873226e-13 3.31698953e-12
3.01995172e+00 6.54556335e-12 3.09559474e-12 1.09338111e-14 3.43903479e-12 1.55898782e-13 3.09559474e-12
3.46736850e+00 6.46711090e-12 2.88897711e-12 7.77226456e-15 3.57036152e-12 1.19178487e-13 2.88897711e-12
3.98107171e+00 6.22583660e-12 2.69615031e-12 5.23676211e-15 3.52444953e-12 8.57619523e-14 2.69615031e-12
4.57088190e+00 5.87181499e-12 2.51619387e-12 3.46991122e-15 3.35215121e-12 5.78931475e-14 2.51619387e-12
5.24807460e+00 5.19378217e-12 2.08050667e-12 1.93882255e-15 3.11133668e-12 3.67345943e-14 2.08050667e-12
6.02559586e+00 4.23519411e-12 1.37457712e-12 8.41359261e-16 2.85977563e-12 2.21539074e-14 1.37457712e-12
6.70000000e+00 3.66132622e-12 9.99872685e-13 4.32911276e-16 2.66102062e-12 1.45518070e-14 9.99872685e-13
6.92422916e+00 3.50990847e-12 9.05846924e-13 3.44080108e-16 2.60371747e-12 1.25868833e-14 9.05846924e-13
7.15596261e+00 3.37985038e-12 8.20663132e-13 2.72170402e-16 2.55891508e-12 1.08449847e-14 8.20663132e-13
7.39545150e+00 3.32068419e-12 7.43489831e-13 2.11550140e-16 2.57698281e-12 9.25511332e-15 7.43489831e-13
7.64295536e+00 3.41757871e-12 6.73573732e-13 1.47749215e-16 2.74385723e-12 7.76765397e-15 6.73573732e-13
7.89874245e+00 3.74366941e-12 6.10232385e-13 9.07076620e-17 3.13334632e-12 6.20197660e-15 6.10232385e-13
8.16308998e+00 4.23379381e-12 5.52847515e-13 5.33225765e-17 3.68089297e-12 4.92462944e-15 5.52847515e-13
8.43628443e+00 4.89668031e-12 5.00858987e-13 2.95498396e-17 4.39579178e-12 3.75626066e-15 5.00858987e-13
8.71862190e+00 5.30515668e-12 4.53759343e-13 1.91626364e-17 4.85137817e-12 2.98592811e-15 4.53759343e-13
9.01040836e+00 5.74837438e-12 4.11088843e-13 1.22686570e-17 5.33727327e-12 2.31546949e-15 4.11088843e-13
9.31196005e+00 6.05725512e-12 3.72430980e-13 0.00000000e+00 5.68482414e-12 0.00000000e+00 3.72430980e-13
9.62360379e+00 5.98887546e-12 3.37408415e-13 0.00000000e+00 5.65146705e-12 0.00000000e+00 3.37408415e-13
9.94567731e+00 5.62807949e-12 3.05679292e-13 0.00000000e+00 5.32240020e-12 0.00000000e+00 3.05679292e-13
1.02785297e+01 5.20956320e-12 2.76933904e-13 0.00000000e+00 4.93262930e-12 0.00000000e+00 2.76933904e-13
1.06225216e+01 4.76818490e-12 2.50891667e-13 0.00000000e+00 4.51729323e-12 0.00000000e+00 2.50891667e-13
1.09780260e+01 4.32124857e-12 2.27298384e-13 0.00000000e+00 4.09395018e-12 0.00000000e+00 2.27298384e-13
1.13454280e+01 3.91789068e-12 2.05923759e-13 0.00000000e+00 3.71196692e-12 0.00000000e+00 2.05923759e-13
1.17251259e+01 3.58872557e-12 1.86559155e-13 0.00000000e+00 3.40216641e-12 0.00000000e+00 1.86559155e-13
1.21175312e+01 3.29947894e-12 1.69015555e-13 0.00000000e+00 3.13046339e-12 0.00000000e+00 1.69015555e-13
1.25230691e+01 3.03623473e-12 1.53121715e-13 0.00000000e+00 2.88311301e-12 0.00000000e+00 1.53121715e-13
1.29421791e+01 2.80161658e-12 1.38722496e-13 0.00000000e+00 2.66289408e-12 0.00000000e+00 1.38722496e-13
1.33753155e+01 2.61044315e-12 1.25677347e-13 0.00000000e+00 2.48476580e-12 0.00000000e+00 1.25677347e-13
1.38229477e+01 2.48426130e-12 1.13858934e-13 0.00000000e+00 2.37040236e-12 0.00000000e+00 1.13858934e-13
1.42855609e+01 2.43044363e-12 1.03151898e-13 0.00000000e+00 2.32729173e-12 0.00000000e+00 1.03151898e-13
1.47636563e+01 2.46475676e-12 9.34517274e-14 0.00000000e+00 2.37130503e-12 0.00000000e+00 9.34517274e-14
1.52577522e+01 2.53772094e-12 8.46637387e-14 0.00000000e+00 2.45305720e-12 0.00000000e+00 8.46637387e-14
1.57683840e+01 2.62674679e-12 7.67021526e-14 0.00000000e+00 2.55004464e-12 0.00000000e+00 7.67021526e-14
1.62961051e+01 2.73304837e-12 6.94892560e-14 0.00000000e+00 2.66355911e-12 0.00000000e+00 6.94892560e-14
1.68414875e+01 2.82756640e-12 6.29546439e-14 0.00000000e+00 2.76461175e-12 0.00000000e+00 6.29546439e-14
1.74051222e+01 2.89917688e-12 5.70345319e-14 0.00000000e+00 2.84214235e-12 0.00000000e+00 5.70345319e-14
1.79876201e+01 2.95554634e-12 5.16711337e-14 0.00000000e+00 2.90387521e-12 0.00000000e+00 5.16711337e-14
1.85896125e+01 2.96900401e-12 4.68120974e-14 0.00000000e+00 2.92219192e-12 0.00000000e+00 4.68120974e-14
1.92117518e+01 2.94711111e-12 4.24099939e-14 0.00000000e+00 2.90470112e-12 0.00000000e+00 4.24099939e-14
1.98547123e+01 2.89919733e-12 3.84218542e-14 0.00000000e+00 2.86077547e-12 0.00000000e+00 3.84218542e-14
2.05191907e+01 2.85063798e-12 3.48087501e-14 0.00000000e+00 2.81582923e-12 0.00000000e+00 3.48087501e-14
2.12059073e+01 2.80114610e-12 3.15354141e-14 0.00000000e+00 2.76961069e-12 0.00000000e+00 3.15354141e-14
2.19156062e+01 2.75373520e-12 2.85698952e-14 0.00000000e+00 2.72516531e-12 0.00000000e+00 2.85698952e-14
2.26490567e+01 2.71238678e-12 2.58832470e-14 0.00000000e+00 2.68650354e-12 0.00000000e+00 2.58832470e-14
2.34070535e+01 2.67671239e-12 2.34492452e-14 0.00000000e+00 2.65326315e-12 0.00000000e+00 2.34492452e-14
2.41904183e+01 2.63059822e-12 2.12441313e-14 0.00000000e+00 2.60935409e-12 0.00000000e+00 2.12441313e-14
2.50000000e+01 2.58960059e-12 1.92463813e-14 0.00000000e+00 2.57035421e-12 0.00000000e+00 1.92463813e-14
2.75422870e+01 2.44976396e-12 1.43935895e-14 0.00000000e+00 2.43537037e-12 0.00000000e+00 1.43935895e-14
3.16227766e+01 2.20295329e-12 9.50975027e-15 0.00000000e+00 2.19344354e-12 0.00000000e+00 9.50975027e-15
3.63078055e+01 1.86294592e-12 6.28302969e-15 0.00000000e+00 1.85666289e-12 0.00000000e+00 6.28302969e-15
4.16869383e+01 1.46983538e-12 4.15115655e-15 0.00000000e+00 1.46568422e-12 0.00000000e+00 4.15115655e-15
4.78630092e+01 1.07904622e-12 2.74264194e-15 0.00000000e+00 1.07630357e-12 0.00000000e+00 2.74264194e-15
5.49540874e+01 7.43343091e-13 1.81204556e-15 0.00000000e+00 7.41531045e-13 0.00000000e+00 1.81204556e-15
6.30957344e+01 4.85292835e-13 1.19720663e-15 0.00000000e+00 4.84095628e-13 0.00000000e+00 1.19720663e-15
7.24435960e+01 3.02861040e-13 7.90986575e-16 0.00000000e+00 3.02070053e-13 0.00000000e+00 7.90986575e-16
8.31763771e+01 1.82345245e-13 5.22599647e-16 0.00000000e+00 1.81822645e-13 0.00000000e+00 5.22599647e-16
9.54992586e+01 1.06958559e-13 3.45278163e-16 0.00000000e+00 1.06613280e-13 0.00000000e+00 3.45278163e-16
1.09647820e+02 6.14074786e-14 2.28123020e-16 0.00000000e+00 6.11793556e-14 0.00000000e+00 2.28123020e-16
1.25892541e+02 3.50294524e-14 1.50719385e-16 0.00000000e+00 3.48787330e-14 0.00000000e+00 1.50719385e-16
1.44543977e+02 1.97727956e-14 9.95793099e-17 0.00000000e+00 1.96732163e-14 0.00000000e+00 9.95793099e-17
1.65958691e+02 1.06084136e-14 6.57913976e-17 0.00000000e+00 1.05426222e-14 0.00000000e+00 6.57913976e-17
1.90546072e+02 5.67476051e-15 4.34679453e-17 0.00000000e+00 5.63129256e-15 0.00000000e+00 4.34679453e-17
2.18776162e+02 3.02231845e-15 2.87189867e-17 0.00000000e+00 2.99359946e-15 0.00000000e+00 2.87189867e-17
2.51188643e+02 1.60082484e-15 1.89744463e-17 0.00000000e+00 1.58185039e-15 0.00000000e+00 1.89744463e-17
2.88403150e+02 8.42585712e-16 1.25362924e-17 0.00000000e+00 8.30049420e-16 0.00000000e+00 1.25362924e-17
3.31131121e+02 4.41829656e-16 8.28264623e-18 0.00000000e+00 4.33547010e-16 0.00000000e+00 8.28264623e-18
3.80189396e+02 2.30681114e-16 5.47229010e-18 0.00000000e+00 2.25208824e-16 0.00000000e+00 5.47229010e-18
4.36515832e+02 1.20151048e-16 3.61550621e-18 0.00000000e+00 1.16535542e-16 0.00000000e+00 3.61550621e-18
5.01187234e+02 6.24522179e-17 2.38874127e-18 0.00000000e+00 6.00634767e-17 0.00000000e+00 2.38874127e-18
5.75439937e+02 3.24343065e-17 1.57822570e-18 0.00000000e+00 3.08560808e-17 0.00000000e+00 1.57822570e-18
6.60693448e+02 1.68498225e-17 1.04272338e-18 0.00000000e+00 1.58070991e-17 0.00000000e+00 1.04272338e-18
7.58577575e+02 8.76685333e-18 6.88920507e-19 0.00000000e+00 8.07793283e-18 0.00000000e+00 6.88920507e-19
8.70963590e+02 4.57345197e-18 4.55165265e-19 0.00000000e+00 4.11828671e-18 0.00000000e+00 4.55165265e-19
1.00000000e+03 2.09503481e-18 0.00000000e+00 0.00000000e+00 2.09503481e-18 0.00000000e+00 0.00000000e+00
