# column 1: lambda (micron)
# column 2: total flux; lambda*F_lambda (W/m2)
# column 3: direct stellar flux; lambda*F_lambda (W/m2)
# column 4: scattered stellar flux; lambda*F_lambda (W/m2)
# column 5: total dust emission flux; lambda*F_lambda (W/m2)
# column 6: dust emission scattered flux; lambda*F_lambda (W/m2)
# column 7: transparent flux; lambda*F_lambda (W/m2)
1.00000000e-03 9.68080207e-13 9.68073281e-13 6.92571742e-18 0.00000000e+00 0.00000000e+00 9.68073281e-13
1.14815362e-03 1.14264773e-12 1.14263687e-12 1.08603722e-17 0.00000000e+00 0.00000000e+00 1.14263687e-12
1.31825674e-03 1.34869450e-12 1.34867788e-12 1.66260242e-17 0.00000000e+00 0.00000000e+00 1.34867788e-12
1.51356125e-03 1.59190129e-12 1.59187233e-12 2.89579158e-17 0.00000000e+00 0.00000000e+00 1.59187233e-12
1.73780083e-03 1.87896776e-12 1.87891976e-12 4.79999162e-17 0.00000000e+00 0.00000000e+00 1.87891976e-12
1.99526231e-03 2.21781635e-12 2.21772777e-12 8.85875187e-17 0.00000000e+00 0.00000000e+00 2.21772777e-12
2.29086765e-03 2.61776932e-12 2.61762985e-12 1.39472597e-16 0.00000000e+00 0.00000000e+00 2.61762985e-12
2.63026799e-03 3.08991582e-12 3.08964252e-12 2.73293165e-16 0.00000000e+00 0.00000000e+00 3.08964252e-12
3.01995172e-03 3.64727449e-12 3.64676883e-12 5.05660731e-16 0.00000000e+00 0.00000000e+00 3.64676883e-12
3.46736850e-03 4.30522719e-12 4.30435650e-12 8.70691708e-16 0.00000000e+00 0.00000000e+00 4.30435650e-12
3.98107171e-03 5.08202249e-12 5.08052080e-12 1.50168609e-15 0.00000000e+00 0.00000000e+00 5.08052080e-12
4.57088190e-03 5.99957518e-12 5.99664354e-12 2.93163982e-15 0.00000000e+00 0.00000000e+00 5.99664354e-12
5.24807460e-03 7.08372084e-12 7.07796211e-12 5.75872889e-15 0.00000000e+00 0.00000000e+00 7.07796211e-12
6.02559586e-03 8.36528215e-12 8.35426474e-12 1.10174108e-14 0.00000000e+00 0.00000000e+00 8.35426474e-12
6.91830971e-03 9.87812203e-12 9.86071107e-12 1.74109598e-14 0.00000000e+00 0.00000000e+00 9.86071107e-12
7.94328235e-03 1.16731053e-11 1.16388008e-11 3.43044968e-14 0.00000000e+00 0.00000000e+00 1.16388008e-11
9.12010839e-03 1.37843092e-11 1.37375167e-11 4.67925129e-14 0.00000000e+00 0.00000000e+00 1.37375167e-11
1.04712855e-02 1.54101760e-11 1.53429287e-11 6.72473150e-14 0.00000000e+00 0.00000000e+00 1.53429287e-11
1.20226443e-02 1.54542335e-11 1.53429287e-11 1.11304816e-13 2.53482412e-312 1.38388709e-313 1.53429287e-11
1.38038426e-02 1.54976780e-11 1.53429287e-11 1.54749299e-13 6.06448718e-273 2.99993105e-274 1.53429287e-11
1.58489319e-02 1.55678697e-11 1.53429287e-11 2.24941016e-13 1.16151690e-238 7.09730701e-240 1.53429287e-11
1.81970086e-02 1.56371348e-11 1.53429287e-11 2.94206132e-13 7.91183055e-209 5.45318618e-210 1.53429287e-11
2.08929613e-02 1.57531849e-11 1.53429287e-11 4.10256281e-13 6.82244939e-183 5.39392709e-184 1.53429287e-11
2.39883292e-02 1.58617757e-11 1.53429287e-11 5.18847083e-13 2.56328294e-160 2.36644735e-161 1.53429287e-11
2.75422870e-02 1.59893161e-11 1.53429287e-11 6.46387444e-13 1.12399929e-140 1.12900065e-141 1.53429287e-11
3.16227766e-02 1.60928334e-11 1.53429287e-11 7.49904762e-13 1.34866095e-123 1.49625198e-124 1.53429287e-11
3.63078055e-02 1.61710656e-11 1.53429287e-11 8.28136977e-13 9.34705347e-109 1.05005433e-109 1.53429287e-11
4.16869383e-02 1.63404595e-11 1.53429287e-11 9.97530844e-13 7.46902549e-96 9.68082651e-97 1.53429287e-11
4.78630092e-02 1.64294041e-11 1.53429287e-11 1.08647545e-12 1.18568181e-84 1.67496469e-85 1.53429287e-11
5.49540874e-02 1.64514214e-11 1.53429287e-11 1.10849271e-12 6.19099750e-75 8.93079577e-76 1.53429287e-11
6.30957344e-02 1.64274803e-11 1.53429287e-11 1.08455160e-12 2.18285160e-66 3.18355244e-67 1.53429287e-11
7.24435960e-02 1.62547859e-11 1.53429287e-11 9.11857246e-13 5.65499734e-59 7.69730769e-60 1.53429287e-11
8.31763771e-02 1.62245181e-11 1.53429287e-11 8.81589442e-13 1.35350254e-52 1.88807128e-53 1.53429287e-11
9.54992586e-02 1.62391334e-11 1.53429287e-11 8.96204702e-13 5.39095496e-47 8.56318862e-48 1.53429287e-11
1.09647820e-01 1.56276548e-11 1.46523889e-11 9.75265944e-13 4.53232833e-42 8.61141583e-43 1.46523889e-11
1.25892541e-01 1.46452975e-11 1.36744049e-11 9.70892511e-13 9.79477584e-38 1.99914077e-38 1.36744049e-11
1.44543977e-01 1.36635354e-11 1.27616972e-11 9.01838172e-13 5.89466956e-34 1.24294262e-34 1.27616972e-11
1.65958691e-01 1.28069706e-11 1.19099088e-11 8.97061732e-13 8.96941344e-31 2.12205375e-31 1.19099088e-11
1.90546072e-01 1.20226464e-11 1.11149736e-11 9.07672796e-13 3.87485212e-28 1.08312833e-28 1.11149736e-11
2.18776162e-01 1.11706860e-11 1.03730969e-11 7.97589041e-13 6.51171862e-26 1.94794499e-26 1.03730969e-11
2.51188643e-01 1.05360328e-11 9.68073733e-12 8.55295458e-13 9.85379954e-24 3.53495094e-24 9.68073733e-12
2.88403150e-01 9.84063696e-12 9.03458975e-12 8.06047211e-13 7.68225063e-22 2.84138440e-22 9.03458975e-12
3.31131121e-01 9.17553738e-12 8.43156974e-12 7.43967605e-13 3.22964819e-20 1.21395501e-20 8.43156974e-12
3.80189396e-01 8.54413693e-12 7.86879872e-12 6.75337409e-13 7.99122811e-19 2.97876353e-19 7.86879872e-12
4.36515832e-01 7.94603719e-12 7.34359025e-12 6.02434446e-13 1.24920176e-17 4.61284999e-18 7.34359025e-12
5.01187234e-01 7.38936755e-12 6.85343719e-12 5.35800978e-13 1.29387874e-16 4.68630628e-17 6.85343719e-12
5.75439937e-01 6.87184555e-12 6.39599973e-12 4.74913231e-13 9.32590784e-16 3.26154818e-16 6.39599973e-12
6.60693448e-01 6.38526784e-12 5.96909425e-12 4.11289844e-13 4.88374221e-15 1.63889608e-15 5.96909425e-12
7.58577575e-01 5.94578199e-12 5.57068288e-12 3.55401495e-13 1.96976054e-14 6.23215625e-15 5.57068288e-12
8.70963590e-01 5.56412854e-12 5.19886376e-12 3.00994239e-13 6.42705372e-14 1.88059682e-14 5.19886376e-12
1.00000000e+00 5.27189197e-12 4.85186196e-12 2.47149730e-13 1.72880279e-13 4.61250967e-14 4.85186196e-12
1.14815362e+00 5.12761751e-12 4.52802104e-12 1.97197792e-13 4.02398676e-13 9.40341389e-14 4.52802104e-12
1.31825674e+00 5.21686467e-12 4.22579511e-12 1.53066759e-13 8.38002795e-13 1.67023661e-13 4.22579511e-12
1.51356125e+00 5.61575384e-12 3.94374146e-12 1.17692765e-13 1.55431961e-12 2.60551174e-13 3.94374146e-12
1.73780083e+00 6.34835578e-12 3.68051368e-12 8.96448579e-14 2.57819724e-12 3.52892011e-13 3.68051368e-12
1.99526231e+00 7.32637942e-12 3.43485522e-12 6.57476265e-14 3.82577657e-12 4.12919289e-13 3.43485522e-12
2.29086765e+00 8.42899064e-12 3.20559341e-12 4.77961154e-14 5.17560112e-12 4.29345676e-13 3.20559341e-12
2.63026799e+00 9.50395025e-12 2.99163384e-12 3.41206193e-14 6.47819579e-12 4.07882730e-13 2.99163384e-12
3.01995172e+00 1.04042711e-11 2.79195514e-12 2.41913413e-14 7.58812464e-12 3.59830302e-13 2.79195514e-12
3.46736850e+00 1.10756810e-11 2.60560415e-12 1.71132636e-14 8.45296361e-12 3.01464564e-13 2.60560415e-12
3.98107171e+00 1.14764118e-11 2.43169128e-12 1.18856728e-14 9.03283484e-12 2.41423750e-13 2.43169128e-12
4.57088190e+00 1.16948466e-11 2.26938634e-12 7.90097057e-15 9.41755926e-12 1.82107457e-13 2.26938634e-12
5.24807460e+00 1.14514215e-11 1.87643467e-12 4.58899780e-15 9.57039781e-12 1.29585212e-13 1.87643467e-12
6.02559586e+00 1.08594350e-11 1.23974809e-12 2.03803456e-15 9.61764885e-12 8.80907798e-14 1.23974809e-12
6.70000000e+00 1.04858736e-11 9.01797527e-13 1.06211247e-15 9.58301396e-12 6.20791112e-14 9.01797527e-13
6.92422916e+00 1.03326195e-11 8.16994532e-13 8.58386049e-16 9.51476654e-12 5.55964460e-14 8.16994532e-13
7.15596261e+00 1.02785644e-11 7.40166218e-13 6.75928545e-16 9.53772226e-12 4.93906932e-14 7.40166218e-13
7.39545150e+00 1.03020140e-11 6.70562664e-13 5.16468863e-16 9.63093490e-12 4.22597431e-14 6.70562664e-13
7.64295536e+00 1.06052851e-11 6.07504471e-13 3.52915739e-16 9.99742773e-12 3.44113136e-14 6.07504471e-13
7.89874245e+00 1.13730679e-11 5.50376127e-13 2.11731875e-16 1.08224801e-11 2.57669765e-14 5.50376127e-13
8.16308998e+00 1.24646419e-11 4.98620004e-13 1.20950361e-16 1.19659009e-11 1.90392861e-14 4.98620004e-13
8.43628443e+00 1.39492722e-11 4.51730909e-13 6.44986812e-17 1.34974768e-11 1.37905343e-14 4.51730909e-13
8.71862190e+00 1.50132671e-11 4.09251158e-13 3.97771167e-17 1.46039762e-11 1.07771482e-14 4.09251158e-13
9.01040836e+00 1.61723740e-11 3.70766106e-13 2.45292170e-17 1.58015834e-11 8.32108703e-15 3.70766106e-13
9.31196005e+00 1.69171695e-11 3.35900102e-13 0.00000000e+00 1.65812694e-11 0.00000000e+00 3.35900102e-13
9.62360379e+00 1.68568270e-11 3.04312818e-13 0.00000000e+00 1.65525142e-11 0.00000000e+00 3.04312818e-13
9.94567731e+00 1.62937826e-11 2.75695930e-13 0.00000000e+00 1.60180867e-11 0.00000000e+00 2.75695930e-13
1.02785297e+01 1.56364249e-11 2.49770110e-13 0.00000000e+00 1.53866548e-11 0.00000000e+00 2.49770110e-13
1.06225216e+01 1.48319970e-11 2.26282295e-13 0.00000000e+00 1.46057147e-11 0.00000000e+00 2.26282295e-13
1.09780260e+01 1.39349381e-11 2.05003220e-13 0.00000000e+00 1.37299349e-11 0.00000000e+00 2.05003220e-13
1.13454280e+01 1.33127443e-11 1.85725182e-13 0.00000000e+00 1.31270191e-11 0.00000000e+00 1.85725182e-13
1.17251259e+01 1.28707514e-11 1.68260007e-13 0.00000000e+00 1.27024914e-11 0.00000000e+00 1.68260007e-13
1.21175312e+01 1.23951274e-11 1.52437217e-13 0.00000000e+00 1.22426902e-11 0.00000000e+00 1.52437217e-13
1.25230691e+01 1.21672792e-11 1.38102367e-13 0.00000000e+00 1.20291768e-11 0.00000000e+00 1.38102367e-13
1.29421791e+01 1.18695016e-11 1.25115533e-13 0.00000000e+00 1.17443861e-11 0.00000000e+00 1.25115533e-13
1.33753155e+01 1.16195873e-11 1.13349952e-13 0.00000000e+00 1.15062373e-11 0.00000000e+00 1.13349952e-13
1.38229477e+01 1.15556492e-11 1.02690779e-13 0.00000000e+00 1.14529584e-11 0.00000000e+00 1.02690779e-13
1.42855609e+01 1.16168003e-11 9.30339713e-14 0.00000000e+00 1.15237663e-11 0.00000000e+00 9.30339713e-14
1.47636563e+01 1.19469697e-11 8.42852675e-14 0.00000000e+00 1.18626845e-11 0.00000000e+00 8.42852675e-14
1.52577522e+01 1.23789982e-11 7.63592720e-14 0.00000000e+00 1.23026389e-11 0.00000000e+00 7.63592720e-14
1.57683840e+01 1.28140594e-11 6.91786191e-14 0.00000000e+00 1.27448808e-11 0.00000000e+00 6.91786191e-14
1.62961051e+01 1.32129069e-11 6.26732185e-14 0.00000000e+00 1.31502336e-11 0.00000000e+00 6.26732185e-14
1.68414875e+01 1.36038257e-11 5.67795711e-14 0.00000000e+00 1.35470461e-11 0.00000000e+00 5.67795711e-14
1.74051222e+01 1.39720442e-11 5.14401489e-14 0.00000000e+00 1.39206040e-11 0.00000000e+00 5.14401489e-14
1.79876201e+01 1.43397915e-11 4.66028339e-14 0.00000000e+00 1.42931887e-11 0.00000000e+00 4.66028339e-14
1.85896125e+01 1.44446679e-11 4.22204090e-14 0.00000000e+00 1.44024474e-11 0.00000000e+00 4.22204090e-14
1.92117518e+01 1.45827312e-11 3.82500974e-14 0.00000000e+00 1.45444811e-11 0.00000000e+00 3.82500974e-14
1.98547123e+01 1.46416236e-11 3.46531450e-14 0.00000000e+00 1.46069705e-11 0.00000000e+00 3.46531450e-14
2.05191907e+01 1.46204400e-11 3.13944418e-14 0.00000000e+00 1.45890455e-11 0.00000000e+00 3.13944418e-14
2.12059073e+01 1.45349352e-11 2.84421796e-14 0.00000000e+00 1.45064931e-11 0.00000000e+00 2.84421796e-14
2.19156062e+01 1.44660107e-11 2.57675415e-14 0.00000000e+00 1.44402432e-11 0.00000000e+00 2.57675415e-14
2.26490567e+01 1.44110754e-11 2.33444203e-14 0.00000000e+00 1.43877310e-11 0.00000000e+00 2.33444203e-14
2.34070535e+01 1.42732148e-11 2.11491639e-14 0.00000000e+00 1.42520656e-11 0.00000000e+00 2.11491639e-14
2.41904183e+01 1.40420723e-11 1.91603445e-14 0.00000000e+00 1.40229119e-11 0.00000000e+00 1.91603445e-14
2.50000000e+01 1.39210415e-11 1.73585491e-14 0.00000000e+00 1.39036829e-11 0.00000000e+00 1.73585491e-14
2.75422870e+01 1.31450464e-11 1.29817562e-14 0.00000000e+00 1.31320646e-11 0.00000000e+00 1.29817562e-14
3.16227766e+01 1.15125844e-11 8.57696126e-15 0.00000000e+00 1.15040075e-11 0.00000000e+00 8.57696126e-15
3.63078055e+01 9.42015521e-12 5.66674211e-15 0.00000000e+00 9.41448847e-12 0.00000000e+00 5.66674211e-15
4.16869383e+01 7.19232394e-12 3.74397938e-15 0.00000000e+00 7.18857996e-12 0.00000000e+00 3.74397938e-15
4.78630092e+01 5.09598623e-12 2.47362265e-15 0.00000000e+00 5.09351260e-12 0.00000000e+00 2.47362265e-15
5.49540874e+01 3.39413123e-12 1.63430628e-15 0.00000000e+00 3.39249692e-12 0.00000000e+00 1.63430628e-15
6.30957344e+01 2.13767169e-12 1.07977545e-15 0.00000000e+00 2.13659191e-12 0.00000000e+00 1.07977545e-15
7.24435960e+01 1.28692285e-12 7.13400564e-16 0.00000000e+00 1.28620945e-12 0.00000000e+00 7.13400564e-16
8.31763771e+01 7.49087136e-13 4.71339078e-16 0.00000000e+00 7.48615796e-13 0.00000000e+00 4.71339078e-16
9.54992586e+01 4.25233466e-13 3.11410641e-16 0.00000000e+00 4.24922055e-13 0.00000000e+00 3.11410641e-16
1.09647820e+02 2.36876081e-13 2.05746970e-16 0.00000000e+00 2.36670334e-13 0.00000000e+00 2.05746970e-16
1.25892541e+02 1.31446177e-13 1.35935675e-16 0.00000000e+00 1.31310241e-13 0.00000000e+00 1.35935675e-16
1.44543977e+02 7.23886538e-14 8.98118099e-17 0.00000000e+00 7.22988420e-14 0.00000000e+00 8.98118099e-17
1.65958691e+02 3.79767268e-14 5.93380743e-17 0.00000000e+00 3.79173887e-14 0.00000000e+00 5.93380743e-17
1.90546072e+02 1.99116263e-14 3.92042769e-17 0.00000000e+00 1.98724220e-14 0.00000000e+00 3.92042769e-17
2.18776162e+02 1.04151081e-14 2.59020089e-17 0.00000000e+00 1.03892061e-14 0.00000000e+00 2.59020089e-17
2.51188643e+02 5.42691050e-15 1.71132876e-17 0.00000000e+00 5.40979722e-15 0.00000000e+00 1.71132876e-17
2.88403150e+02 2.81357462e-15 1.13066370e-17 0.00000000e+00 2.80226798e-15 0.00000000e+00 1.13066370e-17
3.31131121e+02 1.45482424e-15 7.47022097e-18 0.00000000e+00 1.44735402e-15 0.00000000e+00 7.47022097e-18
3.80189396e+02 7.49440531e-16 4.93552605e-18 0.00000000e+00 7.44505005e-16 0.00000000e+00 4.93552605e-18
4.36515832e+02 3.85246945e-16 3.26086972e-18 0.00000000e+00 3.81986075e-16 0.00000000e+00 3.26086972e-18
5.01187234e+02 1.97579158e-16 2.15443526e-18 0.00000000e+00 1.95424723e-16 0.00000000e+00 2.15443526e-18
5.75439937e+02 1.01173356e-16 1.42342126e-18 0.00000000e+00 9.97499350e-17 0.00000000e+00 1.42342126e-18
6.60693448e+02 5.17549115e-17 9.40445101e-19 0.00000000e+00 5.08144664e-17 0.00000000e+00 9.40445101e-19
7.58577575e+02 2.64626354e-17 6.21345916e-19 0.00000000e+00 2.58412895e-17 0.00000000e+00 6.21345916e-19
8.70963590e+02 1.35291058e-17 4.10519176e-19 0.00000000e+00 1.31185866e-17 0.00000000e+00 4.10519176e-19
1.00000000e+03 6.64899969e-18 0.00000000e+00 0.00000000e+00 6.64899969e-18 0.00000000e+00 0.00000000e+00
