# column 1: lambda (micron)
# column 2: total flux; lambda*F_lambda (W/m2)
# column 3: direct stellar flux; lambda*F_lambda (W/m2)
# column 4: scattered stellar flux; lambda*F_lambda (W/m2)
# column 5: total dust emission flux; lambda*F_lambda (W/m2)
# column 6: dust emission scattered flux; lambda*F_lambda (W/m2)
# column 7: transparent flux; lambda*F_lambda (W/m2)
1.00000000e-03 1.04528454e-12 1.04527909e-12 5.44783233e-18 0.00000000e+00 0.00000000e+00 1.04634360e-12
1.14815362e-03 1.23336980e-12 1.23336123e-12 8.56727221e-18 0.00000000e+00 0.00000000e+00 1.23502095e-12
1.31825674e-03 1.45524335e-12 1.45523046e-12 1.28878033e-17 0.00000000e+00 0.00000000e+00 1.45772071e-12
1.51356125e-03 1.71713296e-12 1.71711303e-12 1.99315722e-17 0.00000000e+00 0.00000000e+00 1.72057784e-12
1.73780083e-03 2.02673731e-12 2.02670172e-12 3.55887807e-17 0.00000000e+00 0.00000000e+00 2.03083353e-12
1.99526231e-03 2.39066022e-12 2.39057098e-12 8.92423761e-17 0.00000000e+00 0.00000000e+00 2.39703472e-12
2.29086765e-03 2.82132763e-12 2.82117992e-12 1.47709576e-16 0.00000000e+00 0.00000000e+00 2.82926954e-12
2.63026799e-03 3.32829618e-12 3.32800616e-12 2.90025383e-16 0.00000000e+00 0.00000000e+00 3.33944522e-12
3.01995172e-03 3.92767537e-12 3.92492413e-12 2.75124371e-15 0.00000000e+00 0.00000000e+00 3.94161611e-12
3.46736850e-03 4.63245754e-12 4.62915760e-12 3.29994249e-15 0.00000000e+00 0.00000000e+00 4.65237083e-12
3.98107171e-03 5.47837418e-12 5.45993797e-12 1.84362109e-14 0.00000000e+00 0.00000000e+00 5.49128930e-12
4.57088190e-03 6.46159078e-12 6.45677475e-12 4.81602950e-15 0.00000000e+00 0.00000000e+00 6.48148207e-12
5.24807460e-03 7.61832212e-12 7.61299922e-12 5.32290043e-15 0.00000000e+00 0.00000000e+00 7.65022704e-12
6.02559586e-03 8.98982960e-12 8.97676589e-12 1.30637029e-14 0.00000000e+00 0.00000000e+00 9.02972084e-12
6.91830971e-03 1.06220062e-11 1.05858608e-11 3.61453840e-14 0.00000000e+00 0.00000000e+00 1.06579658e-11
7.94328235e-03 1.25372243e-11 1.24849035e-11 5.23207663e-14 1.96841354e-303 7.36632454e-306 1.25798170e-11
9.12010839e-03 1.48713683e-11 1.47239516e-11 1.47416695e-13 9.03147613e-265 4.13280302e-267 1.48482176e-11
1.04712855e-02 1.65219799e-11 1.64358181e-11 8.61618933e-14 3.97616502e-231 2.57253088e-233 1.65834298e-11
1.20226443e-02 1.65717823e-11 1.64271475e-11 1.44634868e-13 6.45352196e-202 5.54170996e-204 1.65834298e-11
1.38038426e-02 1.65442801e-11 1.64168691e-11 1.27410985e-13 1.81542621e-176 2.10222905e-178 1.65834298e-11
1.58489319e-02 1.65760060e-11 1.64042467e-11 1.71759380e-13 2.52709904e-154 3.86138917e-156 1.65834298e-11
1.81970086e-02 1.66221590e-11 1.63926133e-11 2.29545711e-13 4.62488079e-135 8.95113639e-137 1.65834298e-11
2.08929613e-02 1.66581176e-11 1.63829497e-11 2.75167835e-13 2.47494961e-118 6.26013614e-120 1.65834298e-11
2.39883292e-02 1.67052515e-11 1.63704375e-11 3.34814040e-13 8.87623518e-104 2.82061139e-105 1.65834298e-11
2.75422870e-02 1.67571850e-11 1.63558956e-11 4.01289383e-13 4.06036274e-91 1.65061090e-92 1.65834298e-11
3.16227766e-02 1.67956227e-11 1.63416539e-11 4.53968838e-13 4.03184125e-80 1.93597738e-81 1.65834298e-11
3.63078055e-02 1.68126756e-11 1.63304921e-11 4.82183522e-13 1.41526022e-70 7.20045162e-72 1.65834298e-11
4.16869383e-02 1.69165791e-11 1.63208442e-11 5.95734901e-13 2.73935460e-62 1.72396677e-63 1.65834298e-11
4.78630092e-02 1.69674580e-11 1.62942793e-11 6.73178693e-13 4.19660336e-55 3.09219660e-56 1.65834298e-11
5.49540874e-02 1.69381339e-11 1.62574077e-11 6.80726248e-13 7.03931913e-49 5.67692920e-50 1.65834298e-11
6.30957344e-02 1.68094931e-11 1.61653186e-11 6.44174530e-13 2.27894958e-43 1.88239194e-44 1.65834298e-11
7.24435960e-02 1.65838961e-11 1.60569125e-11 5.26983564e-13 1.31680679e-38 9.82373865e-40 1.65834298e-11
8.31763771e-02 1.65725171e-11 1.60665295e-11 5.05987563e-13 1.35513319e-34 1.00701404e-35 1.65834298e-11
9.54992586e-02 1.66097115e-11 1.60947689e-11 5.14942553e-13 3.83181972e-31 2.88509507e-32 1.65834298e-11
1.09647820e-01 1.60247454e-11 1.54483966e-11 5.76348745e-13 3.28300373e-28 2.76108574e-29 1.58370587e-11
1.25892541e-01 1.50869468e-11 1.44807743e-11 6.06172537e-13 1.06966081e-25 9.14169357e-27 1.47800032e-11
1.44543977e-01 1.41386910e-11 1.35616346e-11 5.77056376e-13 1.46172354e-23 1.24165376e-24 1.37935015e-11
1.65958691e-01 1.32851019e-11 1.26833993e-11 6.01702636e-13 7.45865282e-22 7.06436737e-23 1.28728446e-11
1.90546072e-01 1.24242605e-11 1.18251111e-11 5.99149414e-13 1.57465992e-20 1.65287058e-21 1.20136376e-11
2.18776162e-01 1.15107182e-11 1.10056738e-11 5.05044236e-13 1.86149157e-19 1.95622262e-20 1.12117790e-11
2.51188643e-01 1.08913115e-11 1.03093269e-11 5.81982307e-13 2.27797307e-18 2.87877563e-19 1.04634409e-11
2.88403150e-01 1.02066529e-11 9.64548975e-12 5.61144170e-13 1.90175542e-17 2.41235495e-18 9.76505125e-12
3.31131121e-01 9.56033261e-12 9.01593148e-12 5.44291739e-13 1.09391376e-16 1.39006435e-17 9.11327608e-12
3.80189396e-01 8.92954874e-12 8.42517419e-12 5.03917587e-13 4.56967042e-16 5.77841856e-17 8.50500410e-12
4.36515832e-01 8.34160629e-12 7.87245221e-12 4.67699839e-13 1.45423950e-15 1.84661051e-16 7.93733165e-12
5.01187234e-01 7.79078071e-12 7.35553502e-12 4.31528682e-13 3.71700983e-15 4.89357626e-16 7.40754890e-12
5.75439937e-01 7.26885486e-12 6.87185925e-12 3.88701424e-13 8.29418606e-15 1.23826097e-15 6.91312687e-12
6.60693448e-01 6.78279048e-12 6.41924873e-12 3.45296520e-13 1.82452304e-14 3.52487186e-15 6.45170538e-12
7.58577575e-01 6.34218931e-12 5.99586625e-12 3.03086732e-13 4.32363276e-14 1.03706450e-14 6.02108180e-12
8.70963590e-01 5.96596499e-12 5.60004510e-12 2.58555160e-13 1.07364732e-13 2.88391829e-14 5.61920048e-12
1.00000000e+00 5.70130585e-12 5.22982703e-12 2.13041274e-13 2.58437541e-13 7.00312275e-14 5.24414302e-12
1.14815362e+00 5.63911252e-12 4.88361038e-12 1.69717586e-13 5.85784553e-13 1.47761499e-13 4.89411902e-12
1.31825674e+00 5.89092614e-12 4.55987813e-12 1.29891998e-13 1.20115601e-12 2.68016692e-13 4.56745763e-12
1.51356125e+00 6.56846258e-12 4.25718812e-12 9.94868791e-14 2.21178758e-12 4.24030223e-13 4.26259947e-12
1.73780083e+00 7.70578828e-12 3.97428884e-12 7.64972591e-14 3.65500218e-12 5.83660512e-13 3.97808929e-12
1.99526231e+00 9.18733218e-12 3.70994179e-12 5.76445982e-14 5.41974579e-12 7.05628362e-13 3.71256894e-12
2.29086765e+00 1.08787682e-11 3.46296055e-12 4.27885634e-14 7.37301906e-12 7.52439144e-13 3.46477093e-12
2.63026799e+00 1.25112958e-11 3.23225316e-12 3.16082981e-14 9.24743431e-12 7.31913646e-13 3.23351237e-12
3.01995172e+00 1.39072773e-11 3.01680224e-12 2.31853303e-14 1.08672897e-11 6.57447917e-13 3.01768933e-12
3.46736850e+00 1.49879018e-11 2.81563641e-12 1.70441642e-14 1.21552213e-11 5.57866783e-13 2.81627154e-12
3.98107171e+00 1.55732197e-11 2.62783699e-12 1.23764344e-14 1.29330063e-11 4.47485463e-13 2.62829753e-12
4.57088190e+00 1.59574651e-11 2.45253147e-12 8.75675424e-15 1.34961769e-11 3.41249997e-13 2.45286997e-12
5.24807460e+00 1.55863667e-11 2.02792266e-12 5.26406883e-15 1.35531800e-11 2.40412692e-13 2.02814751e-12
6.02559586e+00 1.49499605e-11 1.33986032e-12 2.42629507e-15 1.36076738e-11 1.63351961e-13 1.33998377e-12
6.70000000e+00 1.44378275e-11 9.74629864e-13 1.29410318e-15 1.34619035e-11 1.14810194e-13 9.74709347e-13
6.92422916e+00 1.42856562e-11 8.82980405e-13 1.04718620e-15 1.34016286e-11 1.02483430e-13 8.83049889e-13
7.15596261e+00 1.41490517e-11 7.99948028e-13 8.41027647e-16 1.33482626e-11 8.98859034e-14 8.00009879e-13
7.39545150e+00 1.41288161e-11 7.24721391e-13 6.34049176e-16 1.34034607e-11 7.66034353e-14 7.24778763e-13
7.64295536e+00 1.43960612e-11 6.56562990e-13 4.30108619e-16 1.37390681e-11 6.12673108e-14 6.56622211e-13
7.89874245e+00 1.50442187e-11 5.94805627e-13 2.45161623e-16 1.44491679e-11 4.44036494e-14 5.94874946e-13
8.16308998e+00 1.57687439e-11 5.38849458e-13 1.33934528e-16 1.52297605e-11 3.15884861e-14 5.38934254e-13
8.43628443e+00 1.66868999e-11 4.88147372e-13 6.92255058e-17 1.61986833e-11 2.18193893e-14 4.88254098e-13
8.71862190e+00 1.72291078e-11 4.42220985e-13 4.26955171e-17 1.67868441e-11 1.66395754e-14 4.42339790e-13
9.01040836e+00 1.77002841e-11 4.00612775e-13 2.72290185e-17 1.72996441e-11 1.27891819e-14 4.00743158e-13
9.31196005e+00 1.79078063e-11 3.62921181e-13 0.00000000e+00 1.75448851e-11 0.00000000e+00 3.63058180e-13
9.62360379e+00 1.78929244e-11 3.28789626e-13 0.00000000e+00 1.75641347e-11 0.00000000e+00 3.28917012e-13
9.94567731e+00 1.72089362e-11 2.97878114e-13 0.00000000e+00 1.69110581e-11 0.00000000e+00 2.97986401e-13
1.02785297e+01 1.68555173e-11 2.69875684e-13 0.00000000e+00 1.65856416e-11 0.00000000e+00 2.69964435e-13
1.06225216e+01 1.63884130e-11 2.44505631e-13 0.00000000e+00 1.61439074e-11 0.00000000e+00 2.44577592e-13
1.09780260e+01 1.60144420e-11 2.21521827e-13 0.00000000e+00 1.57929202e-11 0.00000000e+00 2.21578069e-13
1.13454280e+01 1.55716918e-11 2.00697236e-13 0.00000000e+00 1.53709946e-11 0.00000000e+00 2.00741370e-13
1.17251259e+01 1.53104061e-11 1.81829252e-13 0.00000000e+00 1.51285768e-11 0.00000000e+00 1.81864106e-13
1.21175312e+01 1.50964571e-11 1.64734633e-13 0.00000000e+00 1.49317224e-11 0.00000000e+00 1.64762018e-13
1.25230691e+01 1.49558455e-11 1.49246713e-13 0.00000000e+00 1.48065988e-11 0.00000000e+00 1.49268171e-13
1.29421791e+01 1.47616751e-11 1.35214400e-13 0.00000000e+00 1.46264607e-11 0.00000000e+00 1.35231331e-13
1.33753155e+01 1.46687496e-11 1.22501028e-13 0.00000000e+00 1.45462485e-11 0.00000000e+00 1.22514483e-13
1.38229477e+01 1.45993034e-11 1.10982313e-13 0.00000000e+00 1.44883211e-11 0.00000000e+00 1.10993499e-13
1.42855609e+01 1.46508389e-11 1.00546200e-13 0.00000000e+00 1.45502927e-11 0.00000000e+00 1.00555922e-13
1.47636563e+01 1.47772975e-11 9.10906441e-14 0.00000000e+00 1.46862069e-11 0.00000000e+00 9.10998706e-14
1.52577522e+01 1.50839890e-11 8.25241303e-14 0.00000000e+00 1.50014649e-11 0.00000000e+00 8.25330452e-14
1.57683840e+01 1.53693788e-11 7.47631004e-14 0.00000000e+00 1.52946157e-11 0.00000000e+00 7.47718247e-14
1.62961051e+01 1.55520107e-11 6.77319242e-14 0.00000000e+00 1.54842787e-11 0.00000000e+00 6.77404517e-14
1.68414875e+01 1.57493096e-11 6.13619767e-14 0.00000000e+00 1.56879476e-11 0.00000000e+00 6.13702932e-14
1.74051222e+01 1.58465043e-11 5.55912723e-14 0.00000000e+00 1.57909131e-11 0.00000000e+00 5.55991699e-14
1.79876201e+01 1.60120445e-11 5.03633761e-14 0.00000000e+00 1.59616811e-11 0.00000000e+00 5.03707500e-14
1.85896125e+01 1.60534924e-11 4.56273269e-14 0.00000000e+00 1.60078650e-11 0.00000000e+00 4.56339988e-14
1.92117518e+01 1.59136553e-11 4.13368206e-14 0.00000000e+00 1.58723185e-11 0.00000000e+00 4.13426810e-14
1.98547123e+01 1.58329506e-11 3.74498619e-14 0.00000000e+00 1.57955007e-11 0.00000000e+00 3.74549090e-14
2.05191907e+01 1.56820165e-11 3.39284314e-14 0.00000000e+00 1.56480881e-11 0.00000000e+00 3.39327342e-14
2.12059073e+01 1.55223794e-11 3.07381090e-14 0.00000000e+00 1.54916412e-11 0.00000000e+00 3.07417768e-14
2.19156062e+01 1.52432773e-11 2.78477481e-14 0.00000000e+00 1.52154296e-11 0.00000000e+00 2.78508898e-14
2.26490567e+01 1.50273912e-11 2.52291599e-14 0.00000000e+00 1.50021620e-11 0.00000000e+00 2.52318552e-14
2.34070535e+01 1.47298085e-11 2.28567920e-14 0.00000000e+00 1.47069517e-11 0.00000000e+00 2.28591087e-14
2.41904183e+01 1.44618429e-11 2.07074937e-14 0.00000000e+00 1.44411354e-11 0.00000000e+00 2.07094900e-14
2.50000000e+01 1.40952697e-11 1.87602926e-14 0.00000000e+00 1.40765094e-11 0.00000000e+00 1.87620165e-14
2.75422870e+01 1.29376781e-11 1.40302284e-14 0.00000000e+00 1.29236478e-11 0.00000000e+00 1.40313526e-14
3.16227766e+01 1.08757753e-11 9.26980506e-15 0.00000000e+00 1.08665055e-11 0.00000000e+00 9.27042274e-15
3.63078055e+01 8.61215958e-12 6.12456999e-15 0.00000000e+00 8.60603501e-12 0.00000000e+00 6.12490756e-15
4.16869383e+01 6.36410030e-12 4.04650669e-15 0.00000000e+00 6.36005379e-12 0.00000000e+00 4.04668630e-15
4.78630092e+01 4.39533716e-12 2.67352653e-15 0.00000000e+00 4.39266363e-12 0.00000000e+00 2.67361912e-15
5.49540874e+01 2.87227765e-12 1.76639592e-15 0.00000000e+00 2.87051125e-12 0.00000000e+00 1.76644264e-15
6.30957344e+01 1.77982635e-12 1.16705380e-15 0.00000000e+00 1.77865930e-12 0.00000000e+00 1.16707708e-15
7.24435960e+01 1.05344682e-12 7.71068667e-16 0.00000000e+00 1.05267575e-12 0.00000000e+00 7.71080178e-16
8.31763771e+01 6.05916294e-13 5.09441938e-16 0.00000000e+00 6.05406852e-13 0.00000000e+00 5.09447621e-16
9.54992586e+01 3.39374373e-13 3.36585892e-16 0.00000000e+00 3.39037787e-13 0.00000000e+00 3.36588705e-16
1.09647820e+02 1.86892554e-13 2.22380555e-16 0.00000000e+00 1.86670174e-13 0.00000000e+00 2.22381952e-16
1.25892541e+02 1.02621382e-13 1.46925595e-16 0.00000000e+00 1.02474456e-13 0.00000000e+00 1.46926299e-16
1.44543977e+02 5.59853484e-14 9.70728853e-17 0.00000000e+00 5.58882755e-14 0.00000000e+00 9.70732430e-17
1.65958691e+02 2.91527363e-14 6.41354803e-17 0.00000000e+00 2.90886008e-14 0.00000000e+00 6.41356556e-17
1.90546072e+02 1.51881241e-14 4.23739206e-17 0.00000000e+00 1.51457502e-14 0.00000000e+00 4.23740075e-17
2.18776162e+02 7.89605720e-15 2.79961858e-17 0.00000000e+00 7.86806101e-15 0.00000000e+00 2.79962291e-17
2.51188643e+02 4.09357252e-15 1.84969035e-17 0.00000000e+00 4.07507562e-15 0.00000000e+00 1.84969251e-17
2.88403150e+02 2.11324485e-15 1.22207864e-17 0.00000000e+00 2.10102406e-15 0.00000000e+00 1.22207972e-17
3.31131121e+02 1.08865308e-15 8.07419525e-18 0.00000000e+00 1.08057889e-15 0.00000000e+00 8.07420067e-18
3.80189396e+02 5.59189691e-16 5.33456876e-18 0.00000000e+00 5.53855122e-16 0.00000000e+00 5.33457148e-18
4.36515832e+02 2.86780516e-16 3.52451506e-18 0.00000000e+00 2.83256001e-16 0.00000000e+00 3.52451642e-18
5.01187234e+02 1.46840383e-16 2.32862422e-18 0.00000000e+00 1.44511758e-16 0.00000000e+00 2.32862491e-18
5.75439937e+02 7.51221641e-17 1.53850688e-18 0.00000000e+00 7.35836572e-17 0.00000000e+00 1.53850722e-18
6.60693448e+02 3.84229736e-17 1.01648147e-18 0.00000000e+00 3.74064921e-17 0.00000000e+00 1.01648164e-18
7.58577575e+02 1.96592430e-17 6.71582673e-19 0.00000000e+00 1.89876603e-17 0.00000000e+00 6.71582760e-19
8.70963590e+02 1.00675451e-17 4.43710285e-19 0.00000000e+00 9.62383486e-18 0.00000000e+00 4.43710329e-19
1.00000000e+03 4.87087775e-18 0.00000000e+00 0.00000000e+00 4.87087775e-18 0.00000000e+00 0.00000000e+00
