# column 1: lambda (micron)
# column 2: total flux; lambda*F_lambda (W/m2)
# column 3: direct stellar flux; lambda*F_lambda (W/m2)
# column 4: scattered stellar flux; lambda*F_lambda (W/m2)
# column 5: total dust emission flux; lambda*F_lambda (W/m2)
# column 6: dust emission scattered flux; lambda*F_lambda (W/m2)
# column 7: transparent flux; lambda*F_lambda (W/m2)
1.00000000e-03 1.04599133e-12 1.04598589e-12 5.43532797e-18 0.00000000e+00 0.00000000e+00 1.04634360e-12
1.14815362e-03 1.23447165e-12 1.23446316e-12 8.49115622e-18 0.00000000e+00 0.00000000e+00 1.23502095e-12
1.31825674e-03 1.45689631e-12 1.45688370e-12 1.26083622e-17 0.00000000e+00 0.00000000e+00 1.45772071e-12
1.51356125e-03 1.71943268e-12 1.71941315e-12 1.95329556e-17 0.00000000e+00 0.00000000e+00 1.72057784e-12
1.73780083e-03 2.02947942e-12 2.02944462e-12 3.48029210e-17 0.00000000e+00 0.00000000e+00 2.03083353e-12
1.99526231e-03 2.39492449e-12 2.39486145e-12 6.30399558e-17 0.00000000e+00 0.00000000e+00 2.39703472e-12
2.29086765e-03 2.82664518e-12 2.82654947e-12 9.57105847e-17 0.00000000e+00 0.00000000e+00 2.82926954e-12
2.63026799e-03 3.33578992e-12 3.33559820e-12 1.91721880e-16 0.00000000e+00 0.00000000e+00 3.33944522e-12
3.01995172e-03 3.93632449e-12 3.93600099e-12 3.23495353e-16 0.00000000e+00 0.00000000e+00 3.94161611e-12
3.46736850e-03 4.64509711e-12 4.64456003e-12 5.37079974e-16 0.00000000e+00 0.00000000e+00 4.65237083e-12
3.98107171e-03 5.48160676e-12 5.48073765e-12 8.69110096e-16 0.00000000e+00 0.00000000e+00 5.49128930e-12
4.57088190e-03 6.47515405e-12 6.47317180e-12 1.98225495e-15 0.00000000e+00 0.00000000e+00 6.48148207e-12
5.24807460e-03 7.64114714e-12 7.63770111e-12 3.44602770e-15 0.00000000e+00 0.00000000e+00 7.65022704e-12
6.02559586e-03 9.02437444e-12 9.01189733e-12 1.24771163e-14 0.00000000e+00 0.00000000e+00 9.02972084e-12
6.91830971e-03 1.06496550e-11 1.06336895e-11 1.59654713e-14 0.00000000e+00 0.00000000e+00 1.06579658e-11
7.94328235e-03 1.25717991e-11 1.25478532e-11 2.39459028e-14 1.59092328e-303 8.18580486e-306 1.25798170e-11
9.12010839e-03 1.48520591e-11 1.48063573e-11 4.57018114e-14 6.62745000e-265 2.35867809e-267 1.48482176e-11
1.04712855e-02 1.65857065e-11 1.65336964e-11 5.20101181e-14 2.68807578e-231 1.48226664e-233 1.65834298e-11
1.20226443e-02 1.66012611e-11 1.65307659e-11 7.04952465e-14 4.05891696e-202 2.77269374e-204 1.65834298e-11
1.38038426e-02 1.66225722e-11 1.65272907e-11 9.52815600e-14 1.07290021e-176 1.05354324e-178 1.65834298e-11
1.58489319e-02 1.66599936e-11 1.65230209e-11 1.36972686e-13 1.41345353e-154 1.78053874e-156 1.65834298e-11
1.81970086e-02 1.67239256e-11 1.65190837e-11 2.04841824e-13 2.47253589e-135 4.60866464e-137 1.65834298e-11
2.08929613e-02 1.67356345e-11 1.65158118e-11 2.19822630e-13 1.26951411e-118 3.07463154e-120 1.65834298e-11
2.39883292e-02 1.68248918e-11 1.65115735e-11 3.13318282e-13 4.39083778e-104 1.32724519e-105 1.65834298e-11
2.75422870e-02 1.68723837e-11 1.65066450e-11 3.65738707e-13 1.94619265e-91 7.51529151e-93 1.65834298e-11
3.16227766e-02 1.69448182e-11 1.65018154e-11 4.43002787e-13 1.88294738e-80 8.85802733e-82 1.65834298e-11
3.63078055e-02 1.70018417e-11 1.64980283e-11 5.03813426e-13 6.47198183e-71 3.38436303e-72 1.65834298e-11
4.16869383e-02 1.71168993e-11 1.64947535e-11 6.22145802e-13 1.22881938e-62 8.05375124e-64 1.65834298e-11
4.78630092e-02 1.72273858e-11 1.64857298e-11 7.41656032e-13 1.85921097e-55 1.50701315e-56 1.65834298e-11
5.49540874e-02 1.72434149e-11 1.64731888e-11 7.70226138e-13 3.08481662e-49 2.83718495e-50 1.65834298e-11
6.30957344e-02 1.71765694e-11 1.64417842e-11 7.34785138e-13 9.88837207e-44 9.52243204e-45 1.65834298e-11
7.24435960e-02 1.70034053e-11 1.64046626e-11 5.98742649e-13 5.64898750e-39 4.95786338e-40 1.65834298e-11
8.31763771e-02 1.69890254e-11 1.64079625e-11 5.81062921e-13 5.74497729e-35 4.95501207e-36 1.65834298e-11
9.54992586e-02 1.70058964e-11 1.64176447e-11 5.88251697e-13 1.61040306e-31 1.41288035e-32 1.65834298e-11
1.09647820e-01 1.63631568e-11 1.57054197e-11 6.57737101e-13 1.37033591e-28 1.34596656e-29 1.58370587e-11
1.25892541e-01 1.53624045e-11 1.46788020e-11 6.83602518e-13 4.42598146e-26 4.36005761e-27 1.47800032e-11
1.44543977e-01 1.43633259e-11 1.37151733e-11 6.48152579e-13 6.00703924e-24 5.87190091e-25 1.37935015e-11
1.65958691e-01 1.34852100e-11 1.28088921e-11 6.76317877e-13 3.04634939e-22 3.25423624e-23 1.28728446e-11
1.90546072e-01 1.26286497e-11 1.19499744e-11 6.78675313e-13 6.43739852e-21 7.82830961e-22 1.20136376e-11
2.18776162e-01 1.17255932e-11 1.11421166e-11 5.83476511e-13 7.57574639e-20 9.14746643e-21 1.12117790e-11
2.51188643e-01 1.10715322e-11 1.04114153e-11 6.60116037e-13 9.23783440e-19 1.31290263e-19 1.04634409e-11
2.88403150e-01 1.03783277e-11 9.72472344e-12 6.53596574e-13 7.69556426e-18 1.10608723e-18 9.76505125e-12
3.31131121e-01 9.68603538e-12 9.08045916e-12 6.05532188e-13 4.40308664e-17 6.23157332e-18 9.11327608e-12
3.80189396e-01 9.05632130e-12 8.47810341e-12 5.78034640e-13 1.83252281e-16 2.53068408e-17 8.50500410e-12
4.36515832e-01 8.43312473e-12 7.91547776e-12 5.17059778e-13 5.87190454e-16 8.25059842e-17 7.93733165e-12
5.01187234e-01 7.86387887e-12 7.39003536e-12 4.72278075e-13 1.56542593e-15 2.42222916e-16 7.40754890e-12
5.75439937e-01 7.32519394e-12 6.89923658e-12 4.22006106e-13 3.95126203e-15 7.64981012e-16 6.91312687e-12
6.60693448e-01 6.82390950e-12 6.44078420e-12 3.72251577e-13 1.08737257e-14 2.71589729e-15 6.45170538e-12
7.58577575e-01 6.37507931e-12 6.01259952e-12 3.29902786e-13 3.25770042e-14 9.35553399e-15 6.02108180e-12
8.70963590e-01 5.99058248e-12 5.61275846e-12 2.82392476e-13 9.54315427e-14 2.78645687e-14 5.61920048e-12
1.00000000e+00 5.72135253e-12 5.23932959e-12 2.30728735e-13 2.51294211e-13 7.04380976e-14 5.24414302e-12
1.14815362e+00 5.66216870e-12 4.89058641e-12 1.85487265e-13 5.86095019e-13 1.48872395e-13 4.89411902e-12
1.31825674e+00 5.92414414e-12 4.56491010e-12 1.42707654e-13 1.21652638e-12 2.67303364e-13 4.56745763e-12
1.51356125e+00 6.63008243e-12 4.26078091e-12 1.10104741e-13 2.25919677e-12 4.27354630e-13 4.26259947e-12
1.73780083e+00 7.80434078e-12 3.97681223e-12 8.38676562e-14 3.74366090e-12 5.93633456e-13 3.97808929e-12
1.99526231e+00 9.29410059e-12 3.71168621e-12 6.37983185e-14 5.51861606e-12 7.12932507e-13 3.71256894e-12
2.29086765e+00 1.09752359e-11 3.46416268e-12 4.70905499e-14 7.46398268e-12 7.56943783e-13 3.46477093e-12
2.63026799e+00 1.25298313e-11 3.23308932e-12 3.45123646e-14 9.26222965e-12 7.32223546e-13 3.23351237e-12
3.01995172e+00 1.39062388e-11 3.01739131e-12 2.53041921e-14 1.08635433e-11 6.61502750e-13 3.01768933e-12
3.46736850e+00 1.49087798e-11 2.81605817e-12 1.82540511e-14 1.20744676e-11 5.51760168e-13 2.81627154e-12
3.98107171e+00 1.54467486e-11 2.62814282e-12 1.30005960e-14 1.28056052e-11 4.38648753e-13 2.62829753e-12
4.57088190e+00 1.56259105e-11 2.45275626e-12 9.04278426e-15 1.31641115e-11 3.25481780e-13 2.45286997e-12
5.24807460e+00 1.52561675e-11 2.02807198e-12 5.32129235e-15 1.32227743e-11 2.25121800e-13 2.02814751e-12
6.02559586e+00 1.44467994e-11 1.33994230e-12 2.41167303e-15 1.31044454e-11 1.49018857e-13 1.33998377e-12
6.70000000e+00 1.38776426e-11 9.74682646e-13 1.26203937e-15 1.29016979e-11 1.03944879e-13 9.74709347e-13
6.92422916e+00 1.36871866e-11 8.83026547e-13 1.03308763e-15 1.28031269e-11 9.13907193e-14 8.83049889e-13
7.15596261e+00 1.35527691e-11 7.99989101e-13 8.10584695e-16 1.27519694e-11 8.04068855e-14 8.00009879e-13
7.39545150e+00 1.35508136e-11 7.24759490e-13 6.19733773e-16 1.28254343e-11 6.85003629e-14 7.24778763e-13
7.64295536e+00 1.38984946e-11 6.56602316e-13 4.24325125e-16 1.32414679e-11 5.54198258e-14 6.56622211e-13
7.89874245e+00 1.46598129e-11 5.94851659e-13 2.49168598e-16 1.40647121e-11 4.16789131e-14 5.94874946e-13
8.16308998e+00 1.55691212e-11 5.38905768e-13 1.38839851e-16 1.50300766e-11 3.02716467e-14 5.38934254e-13
8.43628443e+00 1.67412007e-11 4.88218244e-13 7.29827448e-17 1.62529094e-11 2.13340998e-14 4.88254098e-13
8.71862190e+00 1.73739805e-11 4.42299877e-13 4.45690947e-17 1.69316360e-11 1.61742544e-14 4.42339790e-13
9.01040836e+00 1.80257448e-11 4.00699355e-13 2.78557606e-17 1.76250175e-11 1.24435109e-14 4.00743158e-13
9.31196005e+00 1.84292053e-11 3.63012153e-13 0.00000000e+00 1.80661931e-11 0.00000000e+00 3.63058180e-13
9.62360379e+00 1.81146066e-11 3.28874214e-13 0.00000000e+00 1.77857324e-11 0.00000000e+00 3.28917012e-13
9.94567731e+00 1.76407721e-11 2.97950021e-13 0.00000000e+00 1.73428221e-11 0.00000000e+00 2.97986401e-13
1.02785297e+01 1.71317157e-11 2.69934618e-13 0.00000000e+00 1.68617811e-11 0.00000000e+00 2.69964435e-13
1.06225216e+01 1.64722016e-11 2.44553416e-13 0.00000000e+00 1.62276482e-11 0.00000000e+00 2.44577592e-13
1.09780260e+01 1.58966238e-11 2.21559175e-13 0.00000000e+00 1.56750646e-11 0.00000000e+00 2.21578069e-13
1.13454280e+01 1.54684766e-11 2.00726543e-13 0.00000000e+00 1.52677501e-11 0.00000000e+00 2.00741370e-13
1.17251259e+01 1.51576906e-11 1.81852397e-13 0.00000000e+00 1.49758383e-11 0.00000000e+00 1.81864106e-13
1.21175312e+01 1.47826068e-11 1.64752818e-13 0.00000000e+00 1.46178540e-11 0.00000000e+00 1.64762018e-13
1.25230691e+01 1.45093992e-11 1.49260963e-13 0.00000000e+00 1.43601383e-11 0.00000000e+00 1.49268171e-13
1.29421791e+01 1.41836083e-11 1.35225643e-13 0.00000000e+00 1.40483827e-11 0.00000000e+00 1.35231331e-13
1.33753155e+01 1.40055075e-11 1.22509963e-13 0.00000000e+00 1.38829975e-11 0.00000000e+00 1.22514483e-13
1.38229477e+01 1.37639253e-11 1.10989741e-13 0.00000000e+00 1.36529356e-11 0.00000000e+00 1.10993499e-13
1.42855609e+01 1.37316006e-11 1.00552656e-13 0.00000000e+00 1.36310480e-11 0.00000000e+00 1.00555922e-13
1.47636563e+01 1.39839220e-11 9.10967711e-14 0.00000000e+00 1.38928253e-11 0.00000000e+00 9.10998706e-14
1.52577522e+01 1.41964568e-11 8.25300504e-14 0.00000000e+00 1.41139267e-11 0.00000000e+00 8.25330452e-14
1.57683840e+01 1.45025861e-11 7.47688939e-14 0.00000000e+00 1.44278172e-11 0.00000000e+00 7.47718247e-14
1.62961051e+01 1.47645442e-11 6.77375870e-14 0.00000000e+00 1.46968066e-11 0.00000000e+00 6.77404517e-14
1.68414875e+01 1.50191748e-11 6.13674994e-14 0.00000000e+00 1.49578073e-11 0.00000000e+00 6.13702932e-14
1.74051222e+01 1.51849437e-11 5.55965168e-14 0.00000000e+00 1.51293472e-11 0.00000000e+00 5.55991699e-14
1.79876201e+01 1.53186427e-11 5.03682728e-14 0.00000000e+00 1.52682744e-11 0.00000000e+00 5.03707500e-14
1.85896125e+01 1.53012654e-11 4.56317575e-14 0.00000000e+00 1.52556337e-11 0.00000000e+00 4.56339988e-14
1.92117518e+01 1.51516962e-11 4.13407123e-14 0.00000000e+00 1.51103554e-11 0.00000000e+00 4.13426810e-14
1.98547123e+01 1.49596301e-11 3.74532135e-14 0.00000000e+00 1.49221769e-11 0.00000000e+00 3.74549090e-14
2.05191907e+01 1.48978709e-11 3.39312887e-14 0.00000000e+00 1.48639396e-11 0.00000000e+00 3.39327342e-14
2.12059073e+01 1.45634239e-11 3.07405447e-14 0.00000000e+00 1.45326834e-11 0.00000000e+00 3.07417768e-14
2.19156062e+01 1.43931120e-11 2.78498344e-14 0.00000000e+00 1.43652622e-11 0.00000000e+00 2.78508898e-14
2.26490567e+01 1.39633759e-11 2.52309498e-14 0.00000000e+00 1.39381450e-11 0.00000000e+00 2.52318552e-14
2.34070535e+01 1.37178776e-11 2.28583305e-14 0.00000000e+00 1.36950193e-11 0.00000000e+00 2.28591087e-14
2.41904183e+01 1.33784091e-11 2.07088193e-14 0.00000000e+00 1.33577002e-11 0.00000000e+00 2.07094900e-14
2.50000000e+01 1.30058883e-11 1.87614373e-14 0.00000000e+00 1.29871268e-11 0.00000000e+00 1.87620165e-14
2.75422870e+01 1.18197492e-11 1.40309749e-14 0.00000000e+00 1.18057182e-11 0.00000000e+00 1.40313526e-14
3.16227766e+01 9.77366879e-12 9.27021524e-15 0.00000000e+00 9.76439858e-12 0.00000000e+00 9.27042274e-15
3.63078055e+01 7.62303560e-12 6.12479416e-15 0.00000000e+00 7.61691080e-12 0.00000000e+00 6.12490756e-15
4.16869383e+01 5.54273171e-12 4.04662596e-15 0.00000000e+00 5.53868508e-12 0.00000000e+00 4.04668630e-15
4.78630092e+01 3.76372796e-12 2.67358802e-15 0.00000000e+00 3.76105437e-12 0.00000000e+00 2.67361912e-15
5.49540874e+01 2.41149306e-12 1.76642694e-15 0.00000000e+00 2.40972663e-12 0.00000000e+00 1.76644264e-15
6.30957344e+01 1.46892920e-12 1.16706926e-15 0.00000000e+00 1.46776213e-12 0.00000000e+00 1.16707708e-15
7.24435960e+01 8.60712122e-13 7.71076311e-16 0.00000000e+00 8.59941046e-13 0.00000000e+00 7.71080178e-16
8.31763771e+01 4.88943331e-13 5.09445712e-16 0.00000000e+00 4.88433886e-13 0.00000000e+00 5.09447621e-16
9.54992586e+01 2.71668913e-13 3.36587760e-16 0.00000000e+00 2.71332325e-13 0.00000000e+00 3.36588705e-16
1.09647820e+02 1.48595821e-13 2.22381483e-16 0.00000000e+00 1.48373439e-13 0.00000000e+00 2.22381952e-16
1.25892541e+02 8.12240382e-14 1.46926062e-16 0.00000000e+00 8.10771121e-14 0.00000000e+00 1.46926299e-16
1.44543977e+02 4.41688257e-14 9.70731229e-17 0.00000000e+00 4.40717526e-14 0.00000000e+00 9.70732430e-17
1.65958691e+02 2.29231572e-14 6.41355967e-17 0.00000000e+00 2.28590216e-14 0.00000000e+00 6.41356556e-17
1.90546072e+02 1.19110649e-14 4.23739783e-17 0.00000000e+00 1.18686910e-14 0.00000000e+00 4.23740075e-17
2.18776162e+02 6.18285440e-15 2.79962146e-17 0.00000000e+00 6.15485819e-15 0.00000000e+00 2.79962291e-17
2.51188643e+02 3.20134435e-15 1.84969179e-17 0.00000000e+00 3.18284743e-15 0.00000000e+00 1.84969251e-17
2.88403150e+02 1.65138384e-15 1.22207936e-17 0.00000000e+00 1.63916305e-15 0.00000000e+00 1.22207972e-17
3.31131121e+02 8.50442037e-16 8.07419885e-18 0.00000000e+00 8.42367838e-16 0.00000000e+00 8.07420067e-18
3.80189396e+02 4.36800986e-16 5.33457057e-18 0.00000000e+00 4.31466416e-16 0.00000000e+00 5.33457148e-18
4.36515832e+02 2.24077818e-16 3.52451597e-18 0.00000000e+00 2.20553302e-16 0.00000000e+00 3.52451642e-18
5.01187234e+02 1.14806251e-16 2.32862468e-18 0.00000000e+00 1.12477626e-16 0.00000000e+00 2.32862491e-18
5.75439937e+02 5.87940872e-17 1.53850710e-18 0.00000000e+00 5.72555801e-17 0.00000000e+00 1.53850722e-18
6.60693448e+02 3.01151907e-17 1.01648158e-18 0.00000000e+00 2.90987091e-17 0.00000000e+00 1.01648164e-18
7.58577575e+02 1.54396919e-17 6.71582730e-19 0.00000000e+00 1.47681092e-17 0.00000000e+00 6.71582760e-19
8.70963590e+02 7.92779491e-18 4.43710314e-19 0.00000000e+00 7.48408460e-18 0.00000000e+00 4.43710329e-19
1.00000000e+03 3.78748870e-18 0.00000000e+00 0.00000000e+00 3.78748870e-18 0.00000000e+00 0.00000000e+00
