# column 1: lambda (micron)
# column 2: total flux; lambda*F_lambda (W/m2)
# column 3: direct stellar flux; lambda*F_lambda (W/m2)
# column 4: scattered stellar flux; lambda*F_lambda (W/m2)
# column 5: total dust emission flux; lambda*F_lambda (W/m2)
# column 6: dust emission scattered flux; lambda*F_lambda (W/m2)
# column 7: transparent flux; lambda*F_lambda (W/m2)
1.00000000e-03 1.07335909e-12 1.07335627e-12 2.82362911e-18 0.00000000e+00 0.00000000e+00 1.07335627e-12
1.14815362e-03 1.26691751e-12 1.26690456e-12 1.29514665e-17 0.00000000e+00 0.00000000e+00 1.26690456e-12
1.31825674e-03 1.49537215e-12 1.49535359e-12 1.85553797e-17 0.00000000e+00 0.00000000e+00 1.49535359e-12
1.51356125e-03 1.76511374e-12 1.76499670e-12 1.17039679e-16 0.00000000e+00 0.00000000e+00 1.76499670e-12
1.73780083e-03 2.08335021e-12 2.08326203e-12 8.81858340e-17 0.00000000e+00 0.00000000e+00 2.08326203e-12
1.99526231e-03 2.45897530e-12 2.45891716e-12 5.81449939e-17 0.00000000e+00 0.00000000e+00 2.45891716e-12
2.29086765e-03 2.90649906e-12 2.90231066e-12 4.18840033e-15 0.00000000e+00 0.00000000e+00 2.90231066e-12
2.63026799e-03 3.42605078e-12 3.42565717e-12 3.93608474e-16 0.00000000e+00 0.00000000e+00 3.42565717e-12
3.01995172e-03 4.04374927e-12 4.04337385e-12 3.75423889e-16 0.00000000e+00 0.00000000e+00 4.04337385e-12
3.46736850e-03 4.77316185e-12 4.77247759e-12 6.84258558e-16 0.00000000e+00 0.00000000e+00 4.77247759e-12
3.98107171e-03 5.63375444e-12 5.63305378e-12 7.00658136e-16 0.00000000e+00 0.00000000e+00 5.63305378e-12
4.57088190e-03 6.65139653e-12 6.64880962e-12 2.58691338e-15 0.00000000e+00 0.00000000e+00 6.64880962e-12
5.24807460e-03 7.85437262e-12 7.84772720e-12 6.64542508e-15 0.00000000e+00 0.00000000e+00 7.84772720e-12
6.02559586e-03 9.26985816e-12 9.26283435e-12 7.02380309e-15 0.00000000e+00 0.00000000e+00 9.26283435e-12
6.91830971e-03 1.09619991e-11 1.09331145e-11 2.88845522e-14 0.00000000e+00 0.00000000e+00 1.09331145e-11
7.94328235e-03 1.29338176e-11 1.29045807e-11 2.92368612e-14 1.33085937e-303 4.88775072e-306 1.29045807e-11
9.12010839e-03 1.54381963e-11 1.52315429e-11 2.06653396e-13 6.72391339e-265 5.08472897e-267 1.52315429e-11
1.04712855e-02 1.70686642e-11 1.70115517e-11 5.71124870e-14 3.20364523e-231 2.30549761e-233 1.70115517e-11
1.20226443e-02 1.70574880e-11 1.70115517e-11 4.59363047e-14 5.57431148e-202 4.50348945e-204 1.70115517e-11
1.38038426e-02 1.70711019e-11 1.70115517e-11 5.95502128e-14 1.66673652e-176 1.75427974e-178 1.70115517e-11
1.58489319e-02 1.70930228e-11 1.70115517e-11 8.14710776e-14 2.44386156e-154 3.09496007e-156 1.70115517e-11
1.81970086e-02 1.71094719e-11 1.70115517e-11 9.79201914e-14 4.67821159e-135 7.08537667e-137 1.70115517e-11
2.08929613e-02 1.71230583e-11 1.70115517e-11 1.11506632e-13 2.59967305e-118 4.73019864e-120 1.70115517e-11
2.39883292e-02 1.71594432e-11 1.70115517e-11 1.47891454e-13 9.64594940e-104 2.26673978e-105 1.70115517e-11
2.75422870e-02 1.71912886e-11 1.70115517e-11 1.79736898e-13 4.53618801e-91 1.33812272e-92 1.70115517e-11
3.16227766e-02 1.72197331e-11 1.70115517e-11 2.08181350e-13 4.60972984e-80 1.54858052e-81 1.70115517e-11
3.63078055e-02 1.72372115e-11 1.70115517e-11 2.25659750e-13 1.66097351e-70 6.52496245e-72 1.70115517e-11
4.16869383e-02 1.73017429e-11 1.70115517e-11 2.90191224e-13 3.28129639e-62 1.69707324e-63 1.70115517e-11
4.78630092e-02 1.73701179e-11 1.70115517e-11 3.58566201e-13 5.13839766e-55 3.43969141e-56 1.70115517e-11
5.49540874e-02 1.74274878e-11 1.70115517e-11 4.15936093e-13 8.79702102e-49 6.98409630e-50 1.70115517e-11
6.30957344e-02 1.74466756e-11 1.70115517e-11 4.35123863e-13 2.91495475e-43 2.68602622e-44 1.70115517e-11
7.24435960e-02 1.74085467e-11 1.70115517e-11 3.96994950e-13 1.70672954e-38 1.49914952e-39 1.70115517e-11
8.31763771e-02 1.73916482e-11 1.70115517e-11 3.80096448e-13 1.77194550e-34 1.52663605e-35 1.70115517e-11
9.54992586e-02 1.74090419e-11 1.70115517e-11 3.97490203e-13 5.08056470e-31 4.62241349e-32 1.70115517e-11
1.09647820e-01 1.66667418e-11 1.62459122e-11 4.20829672e-13 4.38699247e-28 4.29823894e-29 1.62459122e-11
1.25892541e-01 1.55716014e-11 1.51615674e-11 4.10033980e-13 1.43561820e-25 1.37094382e-26 1.51615674e-11
1.44543977e-01 1.45367229e-11 1.41495980e-11 3.87124923e-13 1.97353181e-23 1.85328240e-24 1.41495980e-11
1.65958691e-01 1.36085931e-11 1.32051732e-11 4.03419942e-13 1.01418134e-21 1.05964108e-22 1.32051732e-11
1.90546072e-01 1.27526007e-11 1.23237846e-11 4.28816059e-13 2.17434589e-20 2.71025318e-21 1.23237846e-11
2.18776162e-01 1.18979482e-11 1.15012250e-11 3.96722950e-13 2.59799873e-19 3.41722974e-20 1.15012250e-11
2.51188643e-01 1.11912071e-11 1.07335677e-11 4.57636139e-13 3.23341833e-18 5.24969678e-19 1.07335677e-11
2.88403150e-01 1.04632932e-11 1.00171482e-11 4.46117956e-13 2.69862650e-17 4.29863690e-18 1.00171482e-11
3.31131121e-01 9.76309788e-12 9.34854667e-12 4.14396393e-13 1.54814778e-16 2.39194657e-17 9.34854667e-12
3.80189396e-01 9.10379622e-12 8.72457139e-12 3.78577092e-13 6.47744993e-16 9.88801196e-17 8.72457139e-12
4.36515832e-01 8.50098153e-12 8.14224377e-12 3.56676005e-13 2.06175259e-15 3.12723224e-16 8.14224377e-12
5.01187234e-01 7.93356939e-12 7.59878402e-12 3.29525515e-13 5.25986211e-15 8.12566582e-16 7.59878402e-12
5.75439937e-01 7.40871252e-12 7.09159786e-12 3.05582735e-13 1.15319190e-14 1.90851206e-15 7.09159786e-12
6.60693448e-01 6.92862786e-12 6.61826421e-12 2.86249055e-13 2.41146020e-14 4.61990966e-15 6.61826421e-12
7.58577575e-01 6.48492394e-12 6.17652353e-12 2.55719501e-13 5.26809030e-14 1.19378443e-14 6.17652353e-12
8.70963590e-01 6.11428901e-12 5.76426715e-12 2.26692035e-13 1.23329817e-13 3.17014186e-14 5.76426715e-12
1.00000000e+00 5.85515835e-12 5.37952711e-12 1.91492517e-13 2.84138720e-13 7.45114738e-14 5.37952711e-12
1.14815362e+00 5.80119791e-12 5.02046681e-12 1.57399373e-13 6.23331724e-13 1.55002851e-13 5.02046681e-12
1.31825674e+00 6.05426598e-12 4.68537225e-12 1.23253110e-13 1.24564063e-12 2.76184335e-13 4.68537225e-12
1.51356125e+00 6.71561522e-12 4.37264380e-12 9.49385530e-14 2.24803287e-12 4.34813516e-13 4.37264380e-12
1.73780083e+00 7.79035614e-12 4.08078863e-12 7.37275422e-14 3.63583997e-12 5.89773683e-13 4.08078863e-12
1.99526231e+00 9.12286905e-12 3.80841354e-12 5.64917156e-14 5.25796380e-12 6.92311483e-13 3.80841354e-12
2.29086765e+00 1.05288031e-11 3.55421832e-12 4.21354220e-14 6.93244936e-12 7.32211176e-13 3.55421832e-12
2.63026799e+00 1.18116018e-11 3.31698953e-12 3.16262862e-14 8.46298599e-12 7.07382187e-13 3.31698953e-12
3.01995172e+00 1.28144367e-11 3.09559474e-12 2.33696753e-14 9.69547227e-12 6.30466694e-13 3.09559474e-12
3.46736850e+00 1.35107304e-11 2.88897711e-12 1.69974376e-14 1.06047558e-11 5.28766150e-13 2.88897711e-12
3.98107171e+00 1.39577894e-11 2.69615031e-12 1.21587733e-14 1.12494804e-11 4.18139647e-13 2.69615031e-12
4.57088190e+00 1.39827854e-11 2.51619387e-12 8.39089183e-15 1.14582006e-11 3.08961819e-13 2.51619387e-12
5.24807460e+00 1.34739787e-11 2.08050667e-12 4.81520338e-15 1.13886568e-11 2.09471955e-13 2.08050667e-12
6.02559586e+00 1.25519400e-11 1.37457712e-12 2.15809313e-15 1.11752048e-11 1.34290696e-13 1.37457712e-12
6.70000000e+00 1.18158926e-11 9.99872685e-13 1.12150968e-15 1.08148984e-11 9.06392936e-14 9.99872685e-13
6.92422916e+00 1.16364724e-11 9.05846924e-13 9.06639702e-16 1.07297189e-11 7.96218229e-14 9.05846924e-13
7.15596261e+00 1.14579593e-11 8.20663132e-13 7.22676696e-16 1.06365735e-11 6.88218748e-14 8.20663132e-13
7.39545150e+00 1.14381124e-11 7.43489831e-13 5.46692483e-16 1.06940759e-11 5.88562147e-14 7.43489831e-13
7.64295536e+00 1.17164057e-11 6.73573732e-13 3.79255547e-16 1.10424527e-11 4.80750171e-14 6.73573732e-13
7.89874245e+00 1.24905017e-11 6.10232385e-13 2.27675324e-16 1.18800417e-11 3.68449510e-14 6.10232385e-13
8.16308998e+00 1.33990656e-11 5.52847515e-13 1.26663910e-16 1.28460914e-11 2.75148502e-14 5.52847515e-13
8.43628443e+00 1.44523228e-11 5.00858987e-13 6.82182452e-17 1.39513956e-11 1.96244252e-14 5.00858987e-13
8.71862190e+00 1.50179235e-11 4.53759343e-13 4.24529347e-17 1.45641217e-11 1.50163188e-14 4.53759343e-13
9.01040836e+00 1.54433577e-11 4.11088843e-13 2.62248344e-17 1.50322426e-11 1.14052076e-14 4.11088843e-13
9.31196005e+00 1.57467379e-11 3.72430980e-13 0.00000000e+00 1.53743069e-11 0.00000000e+00 3.72430980e-13
9.62360379e+00 1.55344169e-11 3.37408415e-13 0.00000000e+00 1.51970085e-11 0.00000000e+00 3.37408415e-13
9.94567731e+00 1.51177312e-11 3.05679292e-13 0.00000000e+00 1.48120519e-11 0.00000000e+00 3.05679292e-13
1.02785297e+01 1.45782434e-11 2.76933904e-13 0.00000000e+00 1.43013095e-11 0.00000000e+00 2.76933904e-13
1.06225216e+01 1.40918856e-11 2.50891667e-13 0.00000000e+00 1.38409939e-11 0.00000000e+00 2.50891667e-13
1.09780260e+01 1.35566515e-11 2.27298384e-13 0.00000000e+00 1.33293531e-11 0.00000000e+00 2.27298384e-13
1.13454280e+01 1.29920534e-11 2.05923759e-13 0.00000000e+00 1.27861296e-11 0.00000000e+00 2.05923759e-13
1.17251259e+01 1.24651985e-11 1.86559155e-13 0.00000000e+00 1.22786394e-11 0.00000000e+00 1.86559155e-13
1.21175312e+01 1.20036256e-11 1.69015555e-13 0.00000000e+00 1.18346100e-11 0.00000000e+00 1.69015555e-13
1.25230691e+01 1.15680082e-11 1.53121715e-13 0.00000000e+00 1.14148865e-11 0.00000000e+00 1.53121715e-13
1.29421791e+01 1.10965756e-11 1.38722496e-13 0.00000000e+00 1.09578531e-11 0.00000000e+00 1.38722496e-13
1.33753155e+01 1.06380416e-11 1.25677347e-13 0.00000000e+00 1.05123642e-11 0.00000000e+00 1.25677347e-13
1.38229477e+01 1.03376466e-11 1.13858934e-13 0.00000000e+00 1.02237877e-11 0.00000000e+00 1.13858934e-13
1.42855609e+01 1.01709828e-11 1.03151898e-13 0.00000000e+00 1.00678309e-11 0.00000000e+00 1.03151898e-13
1.47636563e+01 1.02720807e-11 9.34517274e-14 0.00000000e+00 1.01786290e-11 0.00000000e+00 9.34517274e-14
1.52577522e+01 1.04632359e-11 8.46637387e-14 0.00000000e+00 1.03785721e-11 0.00000000e+00 8.46637387e-14
1.57683840e+01 1.07133106e-11 7.67021526e-14 0.00000000e+00 1.06366085e-11 0.00000000e+00 7.67021526e-14
1.62961051e+01 1.08966184e-11 6.94892560e-14 0.00000000e+00 1.08271291e-11 0.00000000e+00 6.94892560e-14
1.68414875e+01 1.10994383e-11 6.29546439e-14 0.00000000e+00 1.10364836e-11 0.00000000e+00 6.29546439e-14
1.74051222e+01 1.12270580e-11 5.70345319e-14 0.00000000e+00 1.11700235e-11 0.00000000e+00 5.70345319e-14
1.79876201e+01 1.12165134e-11 5.16711337e-14 0.00000000e+00 1.11648423e-11 0.00000000e+00 5.16711337e-14
1.85896125e+01 1.11919583e-11 4.68120974e-14 0.00000000e+00 1.11451463e-11 0.00000000e+00 4.68120974e-14
1.92117518e+01 1.10323474e-11 4.24099939e-14 0.00000000e+00 1.09899374e-11 0.00000000e+00 4.24099939e-14
1.98547123e+01 1.08328993e-11 3.84218542e-14 0.00000000e+00 1.07944775e-11 0.00000000e+00 3.84218542e-14
2.05191907e+01 1.05625644e-11 3.48087501e-14 0.00000000e+00 1.05277556e-11 0.00000000e+00 3.48087501e-14
2.12059073e+01 1.02876116e-11 3.15354141e-14 0.00000000e+00 1.02560761e-11 0.00000000e+00 3.15354141e-14
2.19156062e+01 9.98590492e-12 2.85698952e-14 0.00000000e+00 9.95733502e-12 0.00000000e+00 2.85698952e-14
2.26490567e+01 9.67858116e-12 2.58832470e-14 0.00000000e+00 9.65269791e-12 0.00000000e+00 2.58832470e-14
2.34070535e+01 9.36061432e-12 2.34492452e-14 0.00000000e+00 9.33716507e-12 0.00000000e+00 2.34492452e-14
2.41904183e+01 9.08536376e-12 2.12441313e-14 0.00000000e+00 9.06411963e-12 0.00000000e+00 2.12441313e-14
2.50000000e+01 8.77636807e-12 1.92463813e-14 0.00000000e+00 8.75712168e-12 0.00000000e+00 1.92463813e-14
2.75422870e+01 7.79003384e-12 1.43935895e-14 0.00000000e+00 7.77564025e-12 0.00000000e+00 1.43935895e-14
3.16227766e+01 6.28860151e-12 9.50975027e-15 0.00000000e+00 6.27909176e-12 0.00000000e+00 9.50975027e-15
3.63078055e+01 4.78633848e-12 6.28302969e-15 0.00000000e+00 4.78005545e-12 0.00000000e+00 6.28302969e-15
4.16869383e+01 3.39960671e-12 4.15115655e-15 0.00000000e+00 3.39545556e-12 0.00000000e+00 4.15115655e-15
4.78630092e+01 2.25887998e-12 2.74264194e-15 0.00000000e+00 2.25613734e-12 0.00000000e+00 2.74264194e-15
5.49540874e+01 1.41482414e-12 1.81204556e-15 0.00000000e+00 1.41301210e-12 0.00000000e+00 1.81204556e-15
6.30957344e+01 8.47131187e-13 1.19720663e-15 0.00000000e+00 8.45933980e-13 0.00000000e+00 1.19720663e-15
7.24435960e+01 4.88469863e-13 7.90986575e-16 0.00000000e+00 4.87678876e-13 0.00000000e+00 7.90986575e-16
8.31763771e+01 2.74556566e-13 5.22599647e-16 0.00000000e+00 2.74033967e-13 0.00000000e+00 5.22599647e-16
9.54992586e+01 1.51374578e-13 3.45278163e-16 0.00000000e+00 1.51029300e-13 0.00000000e+00 3.45278163e-16
1.09647820e+02 8.23958524e-14 2.28123020e-16 0.00000000e+00 8.21677294e-14 0.00000000e+00 2.28123020e-16
1.25892541e+02 4.49030384e-14 1.50719385e-16 0.00000000e+00 4.47523190e-14 0.00000000e+00 1.50719385e-16
1.44543977e+02 2.43709466e-14 9.95793099e-17 0.00000000e+00 2.42713673e-14 0.00000000e+00 9.95793099e-17
1.65958691e+02 1.26264714e-14 6.57913976e-17 0.00000000e+00 1.25606800e-14 0.00000000e+00 6.57913976e-17
1.90546072e+02 6.55749393e-15 4.34679453e-17 0.00000000e+00 6.51402599e-15 0.00000000e+00 4.34679453e-17
2.18776162e+02 3.40504076e-15 2.87189867e-17 0.00000000e+00 3.37632177e-15 0.00000000e+00 2.87189867e-17
2.51188643e+02 1.76464426e-15 1.89744463e-17 0.00000000e+00 1.74566982e-15 0.00000000e+00 1.89744463e-17
2.88403150e+02 9.11649240e-16 1.25362924e-17 0.00000000e+00 8.99112947e-16 0.00000000e+00 1.25362924e-17
3.31131121e+02 4.70432844e-16 8.28264623e-18 0.00000000e+00 4.62150198e-16 0.00000000e+00 8.28264623e-18
3.80189396e+02 2.42253296e-16 5.47229010e-18 0.00000000e+00 2.36781006e-16 0.00000000e+00 5.47229010e-18
4.36515832e+02 1.24693638e-16 3.61550621e-18 0.00000000e+00 1.21078132e-16 0.00000000e+00 3.61550621e-18
5.01187234e+02 6.41599454e-17 2.38874127e-18 0.00000000e+00 6.17712041e-17 0.00000000e+00 2.38874127e-18
5.75439937e+02 3.30340058e-17 1.57822570e-18 0.00000000e+00 3.14557801e-17 0.00000000e+00 1.57822570e-18
6.60693448e+02 1.70350475e-17 1.04272338e-18 0.00000000e+00 1.59923242e-17 0.00000000e+00 1.04272338e-18
7.58577575e+02 8.80809210e-18 6.88920507e-19 0.00000000e+00 8.11917159e-18 0.00000000e+00 6.88920507e-19
8.70963590e+02 4.57108997e-18 4.55165265e-19 0.00000000e+00 4.11592470e-18 0.00000000e+00 4.55165265e-19
1.00000000e+03 2.08358374e-18 0.00000000e+00 0.00000000e+00 2.08358374e-18 0.00000000e+00 0.00000000e+00
