# column 1: lambda (micron)
# column 2: total flux; lambda*F_lambda (W/m2)
# column 3: direct stellar flux; lambda*F_lambda (W/m2)
# column 4: scattered stellar flux; lambda*F_lambda (W/m2)
# column 5: total dust emission flux; lambda*F_lambda (W/m2)
# column 6: dust emission scattered flux; lambda*F_lambda (W/m2)
# column 7: transparent flux; lambda*F_lambda (W/m2)
1.00000000e-03 5.25638545e-13 5.25636674e-13 1.87137411e-18 0.00000000e+00 0.00000000e+00 5.25636674e-13
1.14815362e-03 6.20423098e-13 6.20419813e-13 3.28472936e-18 0.00000000e+00 0.00000000e+00 6.20419813e-13
1.31825674e-03 7.32299648e-13 7.32294308e-13 5.34021040e-18 0.00000000e+00 0.00000000e+00 7.32294308e-13
1.51356125e-03 8.64349173e-13 8.64342083e-13 7.09028342e-18 0.00000000e+00 0.00000000e+00 8.64342083e-13
1.73780083e-03 1.02021464e-12 1.02020080e-12 1.38393350e-17 0.00000000e+00 0.00000000e+00 1.02020080e-12
1.99526231e-03 1.20419009e-12 1.20416405e-12 2.60322460e-17 0.00000000e+00 0.00000000e+00 1.20416405e-12
2.29086765e-03 1.42133999e-12 1.42129968e-12 4.03071384e-17 0.00000000e+00 0.00000000e+00 1.42129968e-12
2.63026799e-03 1.67767032e-12 1.67758934e-12 8.09787014e-17 0.00000000e+00 0.00000000e+00 1.67758934e-12
3.01995172e-03 1.98022362e-12 1.98009332e-12 1.30300621e-16 0.00000000e+00 0.00000000e+00 1.98009332e-12
3.46736850e-03 2.33739212e-12 2.33714500e-12 2.47119215e-16 0.00000000e+00 0.00000000e+00 2.33714500e-12
3.98107171e-03 2.75898226e-12 2.75858048e-12 4.01779613e-16 0.00000000e+00 0.00000000e+00 2.75858048e-12
4.57088190e-03 3.25681826e-12 3.25600946e-12 8.08796644e-16 0.00000000e+00 0.00000000e+00 3.25600946e-12
5.24807460e-03 3.84453795e-12 3.84313516e-12 1.40278749e-15 0.00000000e+00 0.00000000e+00 3.84313516e-12
6.02559586e-03 4.53897875e-12 4.53613173e-12 2.84701455e-15 0.00000000e+00 0.00000000e+00 4.53613173e-12
6.91830971e-03 5.35852004e-12 5.35408989e-12 4.43014781e-15 0.00000000e+00 0.00000000e+00 5.35408989e-12
7.94328235e-03 6.32726544e-12 6.31954278e-12 7.72266114e-15 1.41126778e-303 3.09674699e-304 6.31954278e-12
9.12010839e-03 7.47156734e-12 7.45908676e-12 1.24805797e-14 5.23187574e-265 5.40529644e-266 7.45908676e-12
1.04712855e-02 8.36062471e-12 8.33078048e-12 2.98442306e-14 2.14205914e-231 2.02841086e-232 8.33078048e-12
1.20226443e-02 8.35978617e-12 8.33078048e-12 2.90056954e-14 3.31581255e-202 3.44962764e-203 8.33078048e-12
1.38038426e-02 8.36508989e-12 8.33078048e-12 3.43094100e-14 9.24613231e-177 1.30968835e-177 8.33078048e-12
1.58489319e-02 8.38643570e-12 8.33078048e-12 5.56552249e-14 1.20318889e-154 1.54531096e-155 8.33078048e-12
1.81970086e-02 8.41566978e-12 8.33078048e-12 8.48893065e-14 2.09721320e-135 2.68637847e-136 8.33078048e-12
2.08929613e-02 8.43615256e-12 8.33078048e-12 1.05372081e-13 1.07302276e-118 1.33548882e-119 8.33078048e-12
2.39883292e-02 8.46662472e-12 8.33078048e-12 1.35844245e-13 3.72184956e-104 4.86113537e-105 8.33078048e-12
2.75422870e-02 8.50398882e-12 8.33078048e-12 1.73208341e-13 1.63586712e-91 2.19262663e-92 8.33078048e-12
3.16227766e-02 8.52439617e-12 8.33078048e-12 1.93615698e-13 1.53333461e-80 1.81635803e-81 8.33078048e-12
3.63078055e-02 8.52411943e-12 8.33078048e-12 1.93338959e-13 5.22003931e-71 6.15206546e-72 8.33078048e-12
4.16869383e-02 8.54946144e-12 8.33078048e-12 2.18680963e-13 9.72247003e-63 1.11576798e-63 8.33078048e-12
4.78630092e-02 8.58729391e-12 8.33078048e-12 2.56513432e-13 1.41783314e-55 1.56557885e-56 8.33078048e-12
5.49540874e-02 8.56888609e-12 8.33078048e-12 2.38105614e-13 2.24837237e-49 2.33770568e-50 8.33078048e-12
6.30957344e-02 8.55265073e-12 8.33078048e-12 2.21870255e-13 6.66484937e-44 6.37001505e-45 8.33078048e-12
7.24435960e-02 8.52450743e-12 8.33078048e-12 1.93726956e-13 3.55478498e-39 2.90392892e-40 8.33078048e-12
8.31763771e-02 8.51384133e-12 8.33078048e-12 1.83060853e-13 3.65930909e-35 2.93158756e-36 8.33078048e-12
9.54992586e-02 8.51818517e-12 8.33078048e-12 1.87404699e-13 1.04375169e-31 8.50577784e-33 8.33078048e-12
1.09647820e-01 8.15896938e-12 7.95583672e-12 2.03132665e-13 9.40430387e-29 8.57099436e-30 7.95583672e-12
1.25892541e-01 7.62903722e-12 7.42481883e-12 2.04218385e-13 3.21646493e-26 3.12957457e-27 7.42481883e-12
1.44543977e-01 7.12382674e-12 6.92924411e-12 1.94582632e-13 4.60041110e-24 4.45624195e-25 6.92924411e-12
1.65958691e-01 6.65850810e-12 6.46674687e-12 1.91761238e-13 2.41229011e-22 2.45910660e-23 6.46674687e-12
1.90546072e-01 6.23114855e-12 6.03511933e-12 1.96029216e-13 4.99254796e-21 5.58902949e-22 6.03511933e-12
2.18776162e-01 5.80443082e-12 5.63230107e-12 1.72129697e-13 5.65129346e-20 6.15713019e-21 5.63230107e-12
2.51188643e-01 5.45286431e-12 5.25636919e-12 1.96494389e-13 7.26181627e-19 9.08471962e-20 5.25636919e-12
2.88403150e-01 5.08579229e-12 4.90552916e-12 1.80256840e-13 6.29824867e-18 7.74741072e-19 4.90552916e-12
3.31131121e-01 4.74500025e-12 4.57810618e-12 1.66856917e-13 3.71506588e-17 4.43486943e-18 4.57810618e-12
3.80189396e-01 4.42669495e-12 4.27253728e-12 1.53999374e-13 1.58296125e-16 1.81963458e-17 4.27253728e-12
4.36515832e-01 4.12350104e-12 3.98736380e-12 1.35624667e-13 5.12577035e-16 5.63044455e-17 3.98736380e-12
5.01187234e-01 3.84710557e-12 3.72122441e-12 1.24558135e-13 1.32302544e-15 1.42974805e-16 3.72122441e-12
5.75439937e-01 3.58797365e-12 3.47284869e-12 1.12241062e-13 2.88389787e-15 3.14914307e-16 3.47284869e-12
6.60693448e-01 3.34284516e-12 3.24105097e-12 9.60514314e-14 5.74275357e-15 6.88451447e-16 3.24105097e-12
7.58577575e-01 3.12307431e-12 3.02472476e-12 8.68712107e-14 1.14783426e-14 1.60902716e-15 3.02472476e-12
8.70963590e-01 2.92205247e-12 2.82283739e-12 7.50423050e-14 2.41727734e-14 3.86868056e-15 2.82283739e-12
1.00000000e+00 2.74961173e-12 2.63442513e-12 6.31546749e-14 5.20319191e-14 8.67004346e-15 2.63442513e-12
1.14815362e+00 2.62173978e-12 2.45858859e-12 5.20513067e-14 1.11099885e-13 1.79454369e-14 2.45858859e-12
1.31825674e+00 2.56019148e-12 2.29448837e-12 4.17509888e-14 2.23952120e-13 3.25920924e-14 2.29448837e-12
1.51356125e+00 2.59062767e-12 2.14134114e-12 3.33302411e-14 4.15956283e-13 5.26637570e-14 2.14134114e-12
1.73780083e+00 2.72339251e-12 1.99841583e-12 2.55307641e-14 6.99445918e-13 7.41491354e-14 1.99841583e-12
1.99526231e+00 2.94058752e-12 1.86503017e-12 1.88370479e-14 1.05672030e-12 8.88180054e-14 1.86503017e-12
2.29086765e+00 3.19755122e-12 1.74054743e-12 1.35356574e-14 1.44346813e-12 9.46005205e-14 1.74054743e-12
2.63026799e+00 3.45778543e-12 1.62437337e-12 9.63057838e-15 1.82378149e-12 9.21012042e-14 1.62437337e-12
3.01995172e+00 3.64492654e-12 1.51595343e-12 6.78945858e-15 2.12218364e-12 8.18214834e-14 1.51595343e-12
3.46736850e+00 3.76971350e-12 1.41477006e-12 4.73606851e-15 2.35020737e-12 6.84020947e-14 1.41477006e-12
3.98107171e+00 3.79444258e-12 1.32034025e-12 3.27489933e-15 2.47082744e-12 5.36456511e-14 1.32034025e-12
4.57088190e+00 3.73657177e-12 1.23221321e-12 2.21231770e-15 2.50214624e-12 3.97021150e-14 1.23221321e-12
5.24807460e+00 3.50129815e-12 1.01885146e-12 1.29256145e-15 2.48115413e-12 2.77947292e-14 1.01885146e-12
6.02559586e+00 3.10192440e-12 6.73148485e-13 5.71236101e-16 2.42820468e-12 1.83931977e-14 6.73148485e-13
6.70000000e+00 2.84495912e-12 4.89650796e-13 2.92883725e-16 2.35501544e-12 1.27112293e-14 4.89650796e-13
6.92422916e+00 2.77260262e-12 4.43605145e-13 2.39128980e-16 2.32875835e-12 1.13438111e-14 4.43605145e-13
7.15596261e+00 2.71423877e-12 4.01889522e-13 1.85852355e-16 2.31216339e-12 9.83910472e-15 4.01889522e-13
7.39545150e+00 2.68710767e-12 3.64096743e-13 1.41525298e-16 2.32286941e-12 8.43763031e-15 3.64096743e-13
7.64295536e+00 2.75442085e-12 3.29857910e-13 9.85281357e-17 2.42446441e-12 6.84409705e-15 3.29857910e-13
7.89874245e+00 2.94926887e-12 2.98838820e-13 5.94151475e-17 2.65037063e-12 5.19793691e-15 2.98838820e-13
8.16308998e+00 3.24648043e-12 2.70736695e-13 3.41112500e-17 2.97570963e-12 3.90525605e-15 2.70736695e-13
8.43628443e+00 3.69412340e-12 2.45277229e-13 1.81613941e-17 3.44882801e-12 2.80031841e-15 2.45277229e-13
8.71862190e+00 3.97022792e-12 2.22211915e-13 1.13661827e-17 3.74800464e-12 2.17372122e-15 2.22211915e-13
9.01040836e+00 4.26480307e-12 2.01315610e-13 6.85705087e-18 4.06348061e-12 1.61530929e-15 2.01315610e-13
9.31196005e+00 4.49135634e-12 1.82384346e-13 0.00000000e+00 4.30897200e-12 0.00000000e+00 1.82384346e-13
9.62360379e+00 4.44133459e-12 1.65233336e-13 0.00000000e+00 4.27610125e-12 0.00000000e+00 1.65233336e-13
9.94567731e+00 4.20075648e-12 1.49695167e-13 0.00000000e+00 4.05106131e-12 0.00000000e+00 1.49695167e-13
1.02785297e+01 3.92507491e-12 1.35618173e-13 0.00000000e+00 3.78945674e-12 0.00000000e+00 1.35618173e-13
1.06225216e+01 3.67546287e-12 1.22864947e-13 0.00000000e+00 3.55259793e-12 0.00000000e+00 1.22864947e-13
1.09780260e+01 3.38977316e-12 1.11311006e-13 0.00000000e+00 3.27846215e-12 0.00000000e+00 1.11311006e-13
1.13454280e+01 3.14526172e-12 1.00843571e-13 0.00000000e+00 3.04441815e-12 0.00000000e+00 1.00843571e-13
1.17251259e+01 2.94155449e-12 9.13604705e-14 0.00000000e+00 2.85019402e-12 0.00000000e+00 9.13604705e-14
1.21175312e+01 2.76678176e-12 8.27691389e-14 0.00000000e+00 2.68401262e-12 0.00000000e+00 8.27691389e-14
1.25230691e+01 2.60924895e-12 7.49857166e-14 0.00000000e+00 2.53426323e-12 0.00000000e+00 7.49857166e-14
1.29421791e+01 2.46018065e-12 6.79342298e-14 0.00000000e+00 2.39224642e-12 0.00000000e+00 6.79342298e-14
1.33753155e+01 2.34004332e-12 6.15458488e-14 0.00000000e+00 2.27849747e-12 0.00000000e+00 6.15458488e-14
1.38229477e+01 2.25936894e-12 5.57582167e-14 0.00000000e+00 2.20361072e-12 0.00000000e+00 5.57582167e-14
1.42855609e+01 2.22154617e-12 5.05148403e-14 0.00000000e+00 2.17103133e-12 0.00000000e+00 5.05148403e-14
1.47636563e+01 2.23586352e-12 4.57645392e-14 0.00000000e+00 2.19009898e-12 0.00000000e+00 4.57645392e-14
1.52577522e+01 2.28050087e-12 4.14609457e-14 0.00000000e+00 2.23903992e-12 0.00000000e+00 4.14609457e-14
1.57683840e+01 2.32682442e-12 3.75620523e-14 0.00000000e+00 2.28926236e-12 0.00000000e+00 3.75620523e-14
1.62961051e+01 2.36199097e-12 3.40298020e-14 0.00000000e+00 2.32796117e-12 0.00000000e+00 3.40298020e-14
1.68414875e+01 2.41157478e-12 3.08297166e-14 0.00000000e+00 2.38074507e-12 0.00000000e+00 3.08297166e-14
1.74051222e+01 2.43192196e-12 2.79305599e-14 0.00000000e+00 2.40399140e-12 0.00000000e+00 2.79305599e-14
1.79876201e+01 2.43785234e-12 2.53040334e-14 0.00000000e+00 2.41254830e-12 0.00000000e+00 2.53040334e-14
1.85896125e+01 2.42331117e-12 2.29244994e-14 0.00000000e+00 2.40038667e-12 0.00000000e+00 2.29244994e-14
1.92117518e+01 2.37852543e-12 2.07687314e-14 0.00000000e+00 2.35775670e-12 0.00000000e+00 2.07687314e-14
1.98547123e+01 2.32164682e-12 1.88156870e-14 0.00000000e+00 2.30283113e-12 0.00000000e+00 1.88156870e-14
2.05191907e+01 2.25403738e-12 1.70463024e-14 0.00000000e+00 2.23699108e-12 0.00000000e+00 1.70463024e-14
2.12059073e+01 2.19633101e-12 1.54433068e-14 0.00000000e+00 2.18088770e-12 0.00000000e+00 1.54433068e-14
2.19156062e+01 2.12961821e-12 1.39910532e-14 0.00000000e+00 2.11562715e-12 0.00000000e+00 1.39910532e-14
2.26490567e+01 2.07393645e-12 1.26753663e-14 0.00000000e+00 2.06126109e-12 0.00000000e+00 1.26753663e-14
2.34070535e+01 2.00448461e-12 1.14834036e-14 0.00000000e+00 1.99300121e-12 0.00000000e+00 1.14834036e-14
2.41904183e+01 1.95838360e-12 1.04035303e-14 0.00000000e+00 1.94798007e-12 0.00000000e+00 1.04035303e-14
2.50000000e+01 1.88374197e-12 9.42520591e-15 0.00000000e+00 1.87431676e-12 0.00000000e+00 9.42520591e-15
2.75422870e+01 1.68288475e-12 7.04872996e-15 0.00000000e+00 1.67583602e-12 0.00000000e+00 7.04872996e-15
3.16227766e+01 1.37498700e-12 4.65704970e-15 0.00000000e+00 1.37032995e-12 0.00000000e+00 4.65704970e-15
3.63078055e+01 1.05597467e-12 3.07688223e-15 0.00000000e+00 1.05289779e-12 0.00000000e+00 3.07688223e-15
4.16869383e+01 7.61835226e-13 2.03287593e-15 0.00000000e+00 7.59802350e-13 0.00000000e+00 2.03287593e-15
4.78630092e+01 5.12137907e-13 1.34310781e-15 0.00000000e+00 5.10794800e-13 0.00000000e+00 1.34310781e-15
5.49540874e+01 3.25929210e-13 8.87382527e-16 0.00000000e+00 3.25041827e-13 0.00000000e+00 8.87382527e-16
6.30957344e+01 1.97333062e-13 5.86287821e-16 0.00000000e+00 1.96746775e-13 0.00000000e+00 5.86287821e-16
7.24435960e+01 1.15366998e-13 3.87356522e-16 0.00000000e+00 1.14979642e-13 0.00000000e+00 3.87356522e-16
8.31763771e+01 6.53881702e-14 2.55923916e-16 0.00000000e+00 6.51322462e-14 0.00000000e+00 2.55923916e-16
9.54992586e+01 3.63313344e-14 1.69087255e-16 0.00000000e+00 3.61622472e-14 0.00000000e+00 1.69087255e-16
1.09647820e+02 1.98807143e-14 1.11714841e-16 0.00000000e+00 1.97689994e-14 0.00000000e+00 1.11714841e-16
1.25892541e+02 1.08812198e-14 7.38092637e-17 0.00000000e+00 1.08074105e-14 0.00000000e+00 7.38092637e-17
1.44543977e+02 5.92704012e-15 4.87652969e-17 0.00000000e+00 5.87827483e-15 0.00000000e+00 4.87652969e-17
1.65958691e+02 3.08119935e-15 3.22189122e-17 0.00000000e+00 3.04898044e-15 0.00000000e+00 3.22189122e-17
1.90546072e+02 1.60448166e-15 2.12868242e-17 0.00000000e+00 1.58319484e-15 0.00000000e+00 2.12868242e-17
2.18776162e+02 8.35494225e-16 1.40640653e-17 0.00000000e+00 8.21430160e-16 0.00000000e+00 1.40640653e-17
2.51188643e+02 4.34261483e-16 9.29203577e-18 0.00000000e+00 4.24969447e-16 0.00000000e+00 9.29203577e-18
2.88403150e+02 2.25120614e-16 6.13918715e-18 0.00000000e+00 2.18981427e-16 0.00000000e+00 6.13918715e-18
3.31131121e+02 1.16634633e-16 4.05612073e-18 0.00000000e+00 1.12578512e-16 0.00000000e+00 4.05612073e-18
3.80189396e+02 6.03697316e-17 2.67985239e-18 0.00000000e+00 5.76898792e-17 0.00000000e+00 2.67985239e-18
4.36515832e+02 3.12721144e-17 1.77056092e-18 0.00000000e+00 2.95015535e-17 0.00000000e+00 1.77056092e-18
5.01187234e+02 1.62206348e-17 1.16979800e-18 0.00000000e+00 1.50508368e-17 0.00000000e+00 1.16979800e-18
5.75439937e+02 8.43703320e-18 7.72877871e-19 0.00000000e+00 7.66415533e-18 0.00000000e+00 7.72877871e-19
6.60693448e+02 4.40690043e-18 5.10635346e-19 0.00000000e+00 3.89626508e-18 0.00000000e+00 5.10635346e-19
7.58577575e+02 2.31533547e-18 3.37373427e-19 0.00000000e+00 1.97796204e-18 0.00000000e+00 3.37373427e-19
8.70963590e+02 1.22552583e-18 2.22900413e-19 0.00000000e+00 1.00262541e-18 0.00000000e+00 2.22900413e-19
1.00000000e+03 5.07514992e-19 0.00000000e+00 0.00000000e+00 5.07514992e-19 0.00000000e+00 0.00000000e+00
