# column 1: lambda (micron)
# column 2: total flux; lambda*F_lambda (W/m2)
# column 3: direct stellar flux; lambda*F_lambda (W/m2)
# column 4: scattered stellar flux; lambda*F_lambda (W/m2)
# column 5: total dust emission flux; lambda*F_lambda (W/m2)
# column 6: dust emission scattered flux; lambda*F_lambda (W/m2)
# column 7: transparent flux; lambda*F_lambda (W/m2)
1.00000000e-03 1.07335636e-12 1.07335627e-12 9.18645603e-20 0.00000000e+00 0.00000000e+00 1.07335627e-12
1.14815362e-03 1.26690470e-12 1.26690456e-12 1.45630550e-19 0.00000000e+00 0.00000000e+00 1.26690456e-12
1.31825674e-03 1.49535383e-12 1.49535359e-12 2.35742809e-19 0.00000000e+00 0.00000000e+00 1.49535359e-12
1.51356125e-03 1.76499707e-12 1.76499670e-12 3.67033370e-19 0.00000000e+00 0.00000000e+00 1.76499670e-12
1.73780083e-03 2.08326271e-12 2.08326203e-12 6.83656233e-19 0.00000000e+00 0.00000000e+00 2.08326203e-12
1.99526231e-03 2.45891841e-12 2.45891716e-12 1.25455952e-18 0.00000000e+00 0.00000000e+00 2.45891716e-12
2.29086765e-03 2.90231254e-12 2.90231066e-12 1.87643709e-18 0.00000000e+00 0.00000000e+00 2.90231066e-12
2.63026799e-03 3.42566125e-12 3.42565717e-12 4.08277628e-18 0.00000000e+00 0.00000000e+00 3.42565717e-12
3.01995172e-03 4.04338054e-12 4.04337385e-12 6.69011488e-18 0.00000000e+00 0.00000000e+00 4.04337385e-12
3.46736850e-03 4.77248912e-12 4.77247759e-12 1.15262145e-17 0.00000000e+00 0.00000000e+00 4.77247759e-12
3.98107171e-03 5.63307197e-12 5.63305378e-12 1.81895246e-17 0.00000000e+00 0.00000000e+00 5.63305378e-12
4.57088190e-03 6.64884862e-12 6.64880962e-12 3.89972523e-17 0.00000000e+00 0.00000000e+00 6.64880962e-12
5.24807460e-03 7.84779884e-12 7.84772720e-12 7.16438831e-17 0.00000000e+00 0.00000000e+00 7.84772720e-12
6.02559586e-03 9.26298003e-12 9.26283435e-12 1.45680601e-16 0.00000000e+00 0.00000000e+00 9.26283435e-12
6.91830971e-03 1.09333158e-11 1.09331145e-11 2.01298977e-16 0.00000000e+00 0.00000000e+00 1.09331145e-11
7.94328235e-03 1.29049441e-11 1.29045807e-11 3.63388133e-16 0.00000000e+00 0.00000000e+00 1.29045807e-11
9.12010839e-03 1.52321185e-11 1.52315429e-11 5.75591981e-16 0.00000000e+00 0.00000000e+00 1.52315429e-11
1.04712855e-02 1.70123153e-11 1.70115517e-11 7.63577880e-16 0.00000000e+00 0.00000000e+00 1.70115517e-11
1.20226443e-02 1.70126686e-11 1.70115517e-11 1.11686031e-15 0.00000000e+00 0.00000000e+00 1.70115517e-11
1.38038426e-02 1.70132259e-11 1.70115517e-11 1.67421189e-15 7.10325924e-289 1.26680532e-290 1.70115517e-11
1.58489319e-02 1.70138270e-11 1.70115517e-11 2.27524219e-15 3.47317225e-252 5.81361522e-254 1.70115517e-11
1.81970086e-02 1.70150690e-11 1.70115517e-11 3.51729228e-15 2.99032877e-220 6.38718832e-222 1.70115517e-11
2.08929613e-02 1.70158015e-11 1.70115517e-11 4.24980416e-15 1.75022645e-192 4.75012377e-194 1.70115517e-11
2.39883292e-02 1.70183167e-11 1.70115517e-11 6.76495455e-15 2.58072731e-168 7.49389019e-170 1.70115517e-11
2.75422870e-02 1.70202207e-11 1.70115517e-11 8.66901037e-15 2.80108519e-147 9.67348351e-149 1.70115517e-11
3.16227766e-02 1.70223259e-11 1.70115517e-11 1.07741702e-14 5.50076734e-129 2.16809025e-130 1.70115517e-11
3.63078055e-02 1.70245296e-11 1.70115517e-11 1.29778959e-14 4.39747977e-113 1.90034410e-114 1.70115517e-11
4.16869383e-02 1.70296196e-11 1.70115517e-11 1.80679313e-14 2.92899821e-99 1.54510921e-100 1.70115517e-11
4.78630092e-02 1.70375104e-11 1.70115517e-11 2.59586679e-14 2.99588036e-87 1.96813311e-88 1.70115517e-11
5.49540874e-02 1.70459620e-11 1.70115517e-11 3.44103230e-14 8.02078014e-77 6.10190776e-78 1.70115517e-11
6.30957344e-02 1.70537695e-11 1.70115517e-11 4.22178105e-14 1.19221690e-67 1.03142560e-68 1.70115517e-11
7.24435960e-02 1.70557576e-11 1.70115517e-11 4.42058419e-14 1.05807174e-59 8.46670088e-61 1.70115517e-11
8.31763771e-02 1.70527273e-11 1.70115517e-11 4.11756220e-14 6.53333887e-53 5.17725251e-54 1.70115517e-11
9.54992586e-02 1.70567059e-11 1.70115517e-11 4.51542073e-14 4.87945704e-47 3.99945225e-48 1.70115517e-11
1.09647820e-01 1.62915132e-11 1.62459122e-11 4.56010084e-14 5.38022366e-42 4.76677239e-43 1.62459122e-11
1.25892541e-01 1.52008248e-11 1.51615674e-11 3.92573692e-14 1.20440637e-37 1.04559957e-38 1.51615674e-11
1.44543977e-01 1.41847748e-11 1.41495980e-11 3.51768599e-14 6.55230831e-34 5.47049859e-35 1.41495980e-11
1.65958691e-01 1.32431991e-11 1.32051732e-11 3.80259583e-14 8.26236254e-31 7.42827791e-32 1.32051732e-11
1.90546072e-01 1.23676277e-11 1.23237846e-11 4.38430878e-14 2.87668466e-28 3.08929156e-29 1.23237846e-11
2.18776162e-01 1.15488253e-11 1.15012250e-11 4.76002997e-14 3.91504130e-26 4.48331903e-27 1.15012250e-11
2.51188643e-01 1.07910061e-11 1.07335677e-11 5.74384056e-14 4.08814624e-24 5.68497615e-25 1.07335677e-11
2.88403150e-01 1.00686674e-11 1.00171482e-11 5.15191697e-14 2.23805077e-22 3.07306261e-23 1.00171482e-11
3.31131121e-01 9.39197595e-12 9.34854667e-12 4.34292725e-14 6.85859700e-21 9.37978911e-22 9.34854667e-12
3.80189396e-01 8.76549379e-12 8.72457139e-12 4.09222728e-14 1.29849873e-19 1.79593841e-20 8.72457139e-12
4.36515832e-01 8.17926055e-12 8.14224377e-12 3.70151401e-14 1.63971047e-18 2.34431918e-19 8.14224377e-12
5.01187234e-01 7.63328181e-12 7.59878402e-12 3.44832555e-14 1.45370565e-17 2.11768195e-18 7.59878402e-12
5.75439937e-01 7.12510635e-12 7.09159786e-12 3.34133742e-14 9.51129332e-17 1.40838343e-17 7.09159786e-12
6.60693448e-01 6.64812113e-12 6.61826421e-12 2.93849009e-14 4.72018864e-16 6.91573228e-17 6.61826421e-12
7.58577575e-01 6.20607620e-12 6.17652353e-12 2.76923252e-14 1.86034266e-15 2.66447619e-16 6.17652353e-12
8.70963590e-01 5.79435636e-12 5.76426715e-12 2.41030077e-14 5.98620145e-15 8.16347436e-16 5.76426715e-12
1.00000000e+00 5.41778238e-12 5.37952711e-12 2.22257931e-14 1.60294738e-14 2.03911277e-15 5.37952711e-12
1.14815362e+00 5.07609274e-12 5.02046681e-12 1.82153012e-14 3.74106266e-14 4.30884738e-15 5.02046681e-12
1.31825674e+00 4.77828182e-12 4.68537225e-12 1.54988356e-14 7.74107413e-14 7.79923362e-15 4.68537225e-12
1.51356125e+00 4.52639377e-12 4.37264380e-12 1.16818140e-14 1.42068160e-13 1.22454671e-14 4.37264380e-12
1.73780083e+00 4.31958472e-12 4.08078863e-12 8.23355878e-15 2.30562528e-13 1.63509363e-14 4.08078863e-12
1.99526231e+00 4.14746485e-12 3.80841354e-12 5.97576062e-15 3.33075546e-13 1.87412899e-14 3.80841354e-12
2.29086765e+00 3.99125961e-12 3.55421832e-12 3.96084812e-15 4.33080447e-13 1.85594702e-14 3.55421832e-12
2.63026799e+00 3.83316495e-12 3.31698953e-12 2.86797721e-15 5.13307442e-13 1.63997160e-14 3.31698953e-12
3.01995172e+00 3.65998317e-12 3.09559474e-12 1.80801169e-15 5.62580418e-13 1.31732093e-14 3.09559474e-12
3.46736850e+00 3.46692010e-12 2.88897711e-12 1.18345644e-15 5.76759535e-13 9.70042059e-15 2.88897711e-12
3.98107171e+00 3.25544143e-12 2.69615031e-12 7.82568835e-16 5.58508554e-13 6.63815828e-15 2.69615031e-12
4.57088190e+00 3.03114013e-12 2.51619387e-12 4.70759310e-16 5.14475496e-13 4.24265612e-15 2.51619387e-12
5.24807460e+00 2.53963880e-12 2.08050667e-12 2.56534665e-16 4.58875595e-13 2.55667053e-15 2.08050667e-12
6.02559586e+00 1.77796691e-12 1.37457712e-12 1.13785574e-16 4.03276003e-13 1.44460880e-15 1.37457712e-12
6.70000000e+00 1.36059594e-12 9.99872685e-13 5.58205915e-17 3.60667434e-13 8.99610435e-16 9.99872685e-13
6.92422916e+00 1.25339039e-12 9.05846924e-13 4.31908746e-17 3.47500274e-13 7.65371826e-16 9.05846924e-13
7.15596261e+00 1.15959545e-12 8.20663132e-13 3.43077485e-17 3.38898012e-13 6.48267074e-16 8.20663132e-13
7.39545150e+00 1.08389520e-12 7.43489831e-13 2.71992249e-17 3.40378165e-13 5.47510855e-16 7.43489831e-13
7.64295536e+00 1.04374362e-12 6.73573732e-13 1.85094559e-17 3.70151374e-13 4.66804620e-16 6.73573732e-13
7.89874245e+00 1.05404498e-12 6.10232385e-13 1.20594128e-17 4.43800537e-13 3.97573126e-16 6.10232385e-13
8.16308998e+00 1.10570388e-12 5.52847515e-13 7.21758949e-18 5.52849151e-13 3.34434780e-16 5.52847515e-13
8.43628443e+00 1.20607980e-12 5.00858987e-13 4.25837877e-18 7.05216550e-13 2.73093708e-16 5.00858987e-13
8.71862190e+00 1.26727323e-12 4.53759343e-13 2.79953935e-18 8.13511085e-13 2.18898520e-16 4.53759343e-13
9.01040836e+00 1.33664654e-12 4.11088843e-13 1.84348864e-18 9.25555854e-13 1.69571378e-16 4.11088843e-13
9.31196005e+00 1.38553994e-12 3.72430980e-13 0.00000000e+00 1.01310896e-12 0.00000000e+00 3.72430980e-13
9.62360379e+00 1.33956724e-12 3.37408415e-13 0.00000000e+00 1.00215883e-12 0.00000000e+00 3.37408415e-13
9.94567731e+00 1.22634394e-12 3.05679292e-13 0.00000000e+00 9.20664648e-13 0.00000000e+00 3.05679292e-13
1.02785297e+01 1.10245497e-12 2.76933904e-13 0.00000000e+00 8.25521069e-13 0.00000000e+00 2.76933904e-13
1.06225216e+01 9.81730721e-13 2.50891667e-13 0.00000000e+00 7.30839054e-13 0.00000000e+00 2.50891667e-13
1.09780260e+01 8.56702612e-13 2.27298384e-13 0.00000000e+00 6.29404228e-13 0.00000000e+00 2.27298384e-13
1.13454280e+01 7.51483240e-13 2.05923759e-13 0.00000000e+00 5.45559481e-13 0.00000000e+00 2.05923759e-13
1.17251259e+01 6.61304603e-13 1.86559155e-13 0.00000000e+00 4.74745448e-13 0.00000000e+00 1.86559155e-13
1.21175312e+01 5.81882263e-13 1.69015555e-13 0.00000000e+00 4.12866708e-13 0.00000000e+00 1.69015555e-13
1.25230691e+01 5.12277409e-13 1.53121715e-13 0.00000000e+00 3.59155693e-13 0.00000000e+00 1.53121715e-13
1.29421791e+01 4.52714246e-13 1.38722496e-13 0.00000000e+00 3.13991749e-13 0.00000000e+00 1.38722496e-13
1.33753155e+01 4.03009220e-13 1.25677347e-13 0.00000000e+00 2.77331873e-13 0.00000000e+00 1.25677347e-13
1.38229477e+01 3.67477612e-13 1.13858934e-13 0.00000000e+00 2.53618677e-13 0.00000000e+00 1.13858934e-13
1.42855609e+01 3.43288701e-13 1.03151898e-13 0.00000000e+00 2.40136803e-13 0.00000000e+00 1.03151898e-13
1.47636563e+01 3.36060637e-13 9.34517274e-14 0.00000000e+00 2.42608910e-13 0.00000000e+00 9.34517274e-14
1.52577522e+01 3.33181669e-13 8.46637387e-14 0.00000000e+00 2.48517931e-13 0.00000000e+00 8.46637387e-14
1.57683840e+01 3.33834940e-13 7.67021526e-14 0.00000000e+00 2.57132787e-13 0.00000000e+00 7.67021526e-14
1.62961051e+01 3.35241610e-13 6.94892560e-14 0.00000000e+00 2.65752353e-13 0.00000000e+00 6.94892560e-14
1.68414875e+01 3.37587243e-13 6.29546439e-14 0.00000000e+00 2.74632599e-13 0.00000000e+00 6.29546439e-14
1.74051222e+01 3.35367235e-13 5.70345319e-14 0.00000000e+00 2.78332703e-13 0.00000000e+00 5.70345319e-14
1.79876201e+01 3.30487239e-13 5.16711337e-14 0.00000000e+00 2.78816105e-13 0.00000000e+00 5.16711337e-14
1.85896125e+01 3.20501464e-13 4.68120974e-14 0.00000000e+00 2.73689367e-13 0.00000000e+00 4.68120974e-14
1.92117518e+01 3.05737160e-13 4.24099939e-14 0.00000000e+00 2.63327166e-13 0.00000000e+00 4.24099939e-14
1.98547123e+01 2.88791006e-13 3.84218542e-14 0.00000000e+00 2.50369152e-13 0.00000000e+00 3.84218542e-14
2.05191907e+01 2.71282189e-13 3.48087501e-14 0.00000000e+00 2.36473439e-13 0.00000000e+00 3.48087501e-14
2.12059073e+01 2.55677940e-13 3.15354141e-14 0.00000000e+00 2.24142526e-13 0.00000000e+00 3.15354141e-14
2.19156062e+01 2.42221333e-13 2.85698952e-14 0.00000000e+00 2.13651437e-13 0.00000000e+00 2.85698952e-14
2.26490567e+01 2.29870730e-13 2.58832470e-14 0.00000000e+00 2.03987483e-13 0.00000000e+00 2.58832470e-14
2.34070535e+01 2.18543284e-13 2.34492452e-14 0.00000000e+00 1.95094039e-13 0.00000000e+00 2.34492452e-14
2.41904183e+01 2.08516493e-13 2.12441313e-14 0.00000000e+00 1.87272361e-13 0.00000000e+00 2.12441313e-14
2.50000000e+01 1.99517202e-13 1.92463813e-14 0.00000000e+00 1.80270821e-13 0.00000000e+00 1.92463813e-14
2.75422870e+01 1.76373204e-13 1.43935895e-14 0.00000000e+00 1.61979614e-13 0.00000000e+00 1.43935895e-14
3.16227766e+01 1.48761284e-13 9.50975027e-15 0.00000000e+00 1.39251534e-13 0.00000000e+00 9.50975027e-15
3.63078055e+01 1.22891016e-13 6.28302969e-15 0.00000000e+00 1.16607986e-13 0.00000000e+00 6.28302969e-15
4.16869383e+01 9.73145345e-14 4.15115655e-15 0.00000000e+00 9.31633779e-14 0.00000000e+00 4.15115655e-15
4.78630092e+01 7.33677806e-14 2.74264194e-15 0.00000000e+00 7.06251386e-14 0.00000000e+00 2.74264194e-15
5.49540874e+01 5.28067161e-14 1.81204556e-15 0.00000000e+00 5.09946705e-14 0.00000000e+00 1.81204556e-15
6.30957344e+01 3.65393928e-14 1.19720663e-15 0.00000000e+00 3.53421861e-14 0.00000000e+00 1.19720663e-15
7.24435960e+01 2.43761307e-14 7.90986575e-16 0.00000000e+00 2.35851441e-14 0.00000000e+00 7.90986575e-16
8.31763771e+01 1.57526596e-14 5.22599647e-16 0.00000000e+00 1.52300600e-14 0.00000000e+00 5.22599647e-16
9.54992586e+01 9.90810418e-15 3.45278163e-16 0.00000000e+00 9.56282602e-15 0.00000000e+00 3.45278163e-16
1.09647820e+02 6.08430767e-15 2.28123020e-16 0.00000000e+00 5.85618465e-15 0.00000000e+00 2.28123020e-16
1.25892541e+02 3.69678508e-15 1.50719385e-16 0.00000000e+00 3.54606570e-15 0.00000000e+00 1.50719385e-16
1.44543977e+02 2.21142692e-15 9.95793099e-17 0.00000000e+00 2.11184761e-15 0.00000000e+00 9.95793099e-17
1.65958691e+02 1.25334199e-15 6.57913976e-17 0.00000000e+00 1.18755059e-15 0.00000000e+00 6.57913976e-17
1.90546072e+02 7.05543778e-16 4.34679453e-17 0.00000000e+00 6.62075833e-16 0.00000000e+00 4.34679453e-17
2.18776162e+02 3.94103534e-16 2.87189867e-17 0.00000000e+00 3.65384548e-16 0.00000000e+00 2.87189867e-17
2.51188643e+02 2.18436727e-16 1.89744463e-17 0.00000000e+00 1.99462280e-16 0.00000000e+00 1.89744463e-17
2.88403150e+02 1.20203330e-16 1.25362924e-17 0.00000000e+00 1.07667037e-16 0.00000000e+00 1.25362924e-17
3.31131121e+02 6.59134955e-17 8.28264623e-18 0.00000000e+00 5.76308493e-17 0.00000000e+00 8.28264623e-18
3.80189396e+02 3.60511968e-17 5.47229010e-18 0.00000000e+00 3.05789067e-17 0.00000000e+00 5.47229010e-18
4.36515832e+02 1.97309506e-17 3.61550621e-18 0.00000000e+00 1.61154443e-17 0.00000000e+00 3.61550621e-18
5.01187234e+02 1.08274871e-17 2.38874127e-18 0.00000000e+00 8.43874583e-18 0.00000000e+00 2.38874127e-18
5.75439937e+02 5.97323318e-18 1.57822570e-18 0.00000000e+00 4.39500747e-18 0.00000000e+00 1.57822570e-18
6.60693448e+02 3.32103995e-18 1.04272338e-18 0.00000000e+00 2.27831657e-18 0.00000000e+00 1.04272338e-18
7.58577575e+02 1.86519981e-18 6.88920507e-19 0.00000000e+00 1.17627930e-18 0.00000000e+00 6.88920507e-19
8.70963590e+02 1.06019794e-18 4.55165265e-19 0.00000000e+00 6.05032675e-19 0.00000000e+00 4.55165265e-19
1.00000000e+03 3.10161242e-19 0.00000000e+00 0.00000000e+00 3.10161242e-19 0.00000000e+00 0.00000000e+00
