# column 1: lambda (micron)
# column 2: total flux; lambda*F_lambda (W/m2)
# column 3: direct stellar flux; lambda*F_lambda (W/m2)
# column 4: scattered stellar flux; lambda*F_lambda (W/m2)
# column 5: total dust emission flux; lambda*F_lambda (W/m2)
# column 6: dust emission scattered flux; lambda*F_lambda (W/m2)
# column 7: transparent flux; lambda*F_lambda (W/m2)
1.00000000e-03 9.65224673e-13 9.65212299e-13 1.23735500e-17 0.00000000e+00 0.00000000e+00 9.68073281e-13
1.14815362e-03 1.13819435e-12 1.13817760e-12 1.67470380e-17 0.00000000e+00 0.00000000e+00 1.14263687e-12
1.31825674e-03 1.34202000e-12 1.34198949e-12 3.05146210e-17 0.00000000e+00 0.00000000e+00 1.34867788e-12
1.51356125e-03 1.58452014e-12 1.58256916e-12 1.95097801e-15 0.00000000e+00 0.00000000e+00 1.59187233e-12
1.73780083e-03 1.86794151e-12 1.86782589e-12 1.15626745e-16 0.00000000e+00 0.00000000e+00 1.87891976e-12
1.99526231e-03 2.20053519e-12 2.20038364e-12 1.51548947e-16 0.00000000e+00 0.00000000e+00 2.21772777e-12
2.29086765e-03 2.59777319e-12 2.59592637e-12 1.84682011e-15 0.00000000e+00 0.00000000e+00 2.61762985e-12
2.63026799e-03 3.05961728e-12 3.05896947e-12 6.47810818e-16 0.00000000e+00 0.00000000e+00 3.08964252e-12
3.01995172e-03 3.60448400e-12 3.60204505e-12 2.43895365e-15 0.00000000e+00 0.00000000e+00 3.64676883e-12
3.46736850e-03 4.28871762e-12 4.24220479e-12 4.65128273e-14 0.00000000e+00 0.00000000e+00 4.30435650e-12
3.98107171e-03 5.00747982e-12 4.99663768e-12 1.08421468e-14 0.00000000e+00 0.00000000e+00 5.08052080e-12
4.57088190e-03 5.98311448e-12 5.93041707e-12 5.26974048e-14 0.00000000e+00 0.00000000e+00 5.99664354e-12
5.24807460e-03 6.99809503e-12 6.97827566e-12 1.98193680e-14 0.00000000e+00 0.00000000e+00 7.07796211e-12
6.02559586e-03 8.24923087e-12 8.21260031e-12 3.66305586e-14 0.00000000e+00 0.00000000e+00 8.35426474e-12
6.91830971e-03 9.73652277e-12 9.66798253e-12 6.85402345e-14 0.00000000e+00 0.00000000e+00 9.86071107e-12
7.94328235e-03 1.14487505e-11 1.13852970e-11 6.34535438e-14 2.12932363e-303 1.64611737e-304 1.16388008e-11
9.12010839e-03 1.36858103e-11 1.34058770e-11 2.79933372e-13 1.26987867e-264 7.19353130e-266 1.37375167e-11
1.04712855e-02 1.51152025e-11 1.49491847e-11 1.66017828e-13 7.02614503e-231 2.70678348e-232 1.53429287e-11
1.20226443e-02 1.50740218e-11 1.49262650e-11 1.47756809e-13 1.46058543e-201 1.02939894e-202 1.53429287e-11
1.38038426e-02 1.51398966e-11 1.48991253e-11 2.40771301e-13 4.94116643e-176 3.42727828e-177 1.53429287e-11
1.58489319e-02 1.51550626e-11 1.48658403e-11 2.89222256e-13 7.95378013e-154 4.60013050e-155 1.53429287e-11
1.81970086e-02 1.51675772e-11 1.48352068e-11 3.32370433e-13 1.66109081e-134 9.16142078e-136 1.53429287e-11
2.08929613e-02 1.52071265e-11 1.48097917e-11 3.97334726e-13 1.02477502e-117 7.74536377e-119 1.53429287e-11
2.39883292e-02 1.52301505e-11 1.47769272e-11 4.53223285e-13 4.00387226e-103 2.52520718e-104 1.53429287e-11
2.75422870e-02 1.52331141e-11 1.47387917e-11 4.94322389e-13 1.98627328e-90 1.26110763e-91 1.53429287e-11
3.16227766e-02 1.52141563e-11 1.47015062e-11 5.12650146e-13 2.12355899e-79 1.37987469e-80 1.53429287e-11
3.63078055e-02 1.51725946e-11 1.46723273e-11 5.00267320e-13 7.95406315e-70 5.07258870e-71 1.53429287e-11
4.16869383e-02 1.51740532e-11 1.46471365e-11 5.26916784e-13 1.62459481e-61 1.13854260e-62 1.53429287e-11
4.78630092e-02 1.51356170e-11 1.45779222e-11 5.57694784e-13 2.58872426e-54 1.83841166e-55 1.53429287e-11
5.49540874e-02 1.50053951e-11 1.44822100e-11 5.23185066e-13 4.45978694e-48 3.18069089e-49 1.53429287e-11
6.30957344e-02 1.47189128e-11 1.42449661e-11 4.73946758e-13 1.47034650e-42 1.06982801e-43 1.53429287e-11
7.24435960e-02 1.43863172e-11 1.39689708e-11 4.17346374e-13 8.66545161e-38 6.05407975e-39 1.53429287e-11
8.31763771e-02 1.43971856e-11 1.39933121e-11 4.03873590e-13 9.17384730e-34 6.12596066e-35 1.53429287e-11
9.54992586e-02 1.44698617e-11 1.40649485e-11 4.04913210e-13 2.69315031e-30 1.83910488e-31 1.53429287e-11
1.09647820e-01 1.40547638e-11 1.36311004e-11 4.23663414e-13 2.39822728e-27 1.76987523e-28 1.46523889e-11
1.25892541e-01 1.33101503e-11 1.28848666e-11 4.25283788e-13 8.10640643e-25 6.04289151e-26 1.36744049e-11
1.44543977e-01 1.25467186e-11 1.21478773e-11 3.98841276e-13 1.14701231e-22 8.43201766e-24 1.27616972e-11
1.65958691e-01 1.18021252e-11 1.14073834e-11 3.94741754e-13 6.00529642e-21 4.81478475e-22 1.19099088e-11
1.90546072e-01 1.10148307e-11 1.06153534e-11 3.99477182e-13 1.28007725e-19 1.16609958e-20 1.11149736e-11
2.18776162e-01 1.01825923e-11 9.82829906e-12 3.54291736e-13 1.50772551e-18 1.37882393e-19 1.03730969e-11
2.51188643e-01 9.66312311e-12 9.27193708e-12 3.91166980e-13 1.90476645e-17 2.17280838e-18 9.68073733e-12
2.88403150e-01 9.09138471e-12 8.71668676e-12 3.74534635e-13 1.63316909e-16 1.87747352e-17 9.03458975e-12
3.31131121e-01 8.51811536e-12 8.17235194e-12 3.44806766e-13 9.56662621e-16 1.10849703e-16 8.43156974e-12
3.80189396e-01 7.98167159e-12 7.65595683e-12 3.21658672e-13 4.05609424e-15 4.60257797e-16 7.86879872e-12
4.36515832e-01 7.48723762e-12 7.17040843e-12 3.03748875e-13 1.30803147e-14 1.48789660e-15 7.34359025e-12
5.01187234e-01 7.02377863e-12 6.71444414e-12 2.76196614e-13 3.31378689e-14 3.77354886e-15 6.85343719e-12
5.75439937e-01 6.60809343e-12 6.28561218e-12 2.53013556e-13 6.94676879e-14 8.04671752e-15 6.39599973e-12
6.60693448e-01 6.23648943e-12 5.88219739e-12 2.29817810e-13 1.24474228e-13 1.47803281e-14 5.96909425e-12
7.58577575e-01 5.91109549e-12 5.50311841e-12 2.06357445e-13 2.01619631e-13 2.56840633e-14 5.57068288e-12
8.70963590e-01 5.64201439e-12 5.14749915e-12 1.83834987e-13 3.10680252e-13 4.52762671e-14 5.19886376e-12
1.00000000e+00 5.44642782e-12 4.81344917e-12 1.58355674e-13 4.74622978e-13 8.07017813e-14 4.85186196e-12
1.14815362e+00 5.40036408e-12 4.49980846e-12 1.35306541e-13 7.65249077e-13 1.49012422e-13 4.52802104e-12
1.31825674e+00 5.61849032e-12 4.20543694e-12 1.06432381e-13 1.30662100e-12 2.60852550e-13 4.22579511e-12
1.51356125e+00 6.21140676e-12 3.92920142e-12 8.37455502e-14 2.19845979e-12 4.13954803e-13 3.94374146e-12
1.73780083e+00 7.30571689e-12 3.67029898e-12 6.57595265e-14 3.56965838e-12 5.79341459e-13 3.68051368e-12
1.99526231e+00 8.74839298e-12 3.42779241e-12 5.12394245e-14 5.26936115e-12 6.95862189e-13 3.43485522e-12
2.29086765e+00 1.05561092e-11 3.20072552e-12 3.85649259e-14 7.31681875e-12 7.56009176e-13 3.20559341e-12
2.63026799e+00 1.22446783e-11 2.98824756e-12 2.86257596e-14 9.22780497e-12 7.47883970e-13 2.99163384e-12
3.01995172e+00 1.38277054e-11 2.78956935e-12 2.17397944e-14 1.10163963e-11 6.97528977e-13 2.79195514e-12
3.46736850e+00 1.52179519e-11 2.60389588e-12 1.61232875e-14 1.25979328e-11 6.34150886e-13 2.60560415e-12
3.98107171e+00 1.65195628e-11 2.43045253e-12 1.18879459e-14 1.40772223e-11 5.58151508e-13 2.43169128e-12
4.57088190e+00 1.75751984e-11 2.26847582e-12 8.65588505e-15 1.52980667e-11 4.66492398e-13 2.26938634e-12
5.24807460e+00 1.81362896e-11 1.87582985e-12 5.23966865e-15 1.62552200e-11 3.49807887e-13 1.87643467e-12
6.02559586e+00 1.81257683e-11 1.23941602e-12 2.46035269e-15 1.68838919e-11 2.45022409e-13 1.23974809e-12
6.70000000e+00 1.79582665e-11 9.01583719e-13 1.31387810e-15 1.70553689e-11 1.73129029e-13 9.01797527e-13
6.92422916e+00 1.79304696e-11 8.16807618e-13 1.07402584e-15 1.71125879e-11 1.54623382e-13 8.16994532e-13
7.15596261e+00 1.77862446e-11 7.39999839e-13 8.53869533e-16 1.70453909e-11 1.35689124e-13 7.40166218e-13
7.39545150e+00 1.77885809e-11 6.70408333e-13 6.52183628e-16 1.71175204e-11 1.14227476e-13 6.70562664e-13
7.64295536e+00 1.79234607e-11 6.07345168e-13 4.35425513e-16 1.73156801e-11 9.08057005e-14 6.07504471e-13
7.89874245e+00 1.82791196e-11 5.50189666e-13 2.42949458e-16 1.77286870e-11 6.51215604e-14 5.50376127e-13
8.16308998e+00 1.86585179e-11 4.98391919e-13 1.29715518e-16 1.81599963e-11 4.48272187e-14 4.98620004e-13
8.43628443e+00 1.89475967e-11 4.51443851e-13 6.59152712e-17 1.84960869e-11 2.92158250e-14 4.51730909e-13
8.71862190e+00 1.91394471e-11 4.08931631e-13 4.06107471e-17 1.87304748e-11 2.14951369e-14 4.09251158e-13
9.01040836e+00 1.92328537e-11 3.70415457e-13 2.55638248e-17 1.88624126e-11 1.58074650e-14 3.70766106e-13
9.31196005e+00 1.90401938e-11 3.35531678e-13 0.00000000e+00 1.87046622e-11 0.00000000e+00 3.35900102e-13
9.62360379e+00 1.88545393e-11 3.03970251e-13 0.00000000e+00 1.85505691e-11 0.00000000e+00 3.04312818e-13
9.94567731e+00 1.87914711e-11 2.75404716e-13 0.00000000e+00 1.85160663e-11 0.00000000e+00 2.75695930e-13
1.02785297e+01 1.84663061e-11 2.49531424e-13 0.00000000e+00 1.82167746e-11 0.00000000e+00 2.49770110e-13
1.06225216e+01 1.82283079e-11 2.26088759e-13 0.00000000e+00 1.80022191e-11 0.00000000e+00 2.26282295e-13
1.09780260e+01 1.80153067e-11 2.04851952e-13 0.00000000e+00 1.78104547e-11 0.00000000e+00 2.05003220e-13
1.13454280e+01 1.79012290e-11 1.85606478e-13 0.00000000e+00 1.77156226e-11 0.00000000e+00 1.85725182e-13
1.17251259e+01 1.77748091e-11 1.68166258e-13 0.00000000e+00 1.76066429e-11 0.00000000e+00 1.68260007e-13
1.21175312e+01 1.75760579e-11 1.52363557e-13 0.00000000e+00 1.74236944e-11 0.00000000e+00 1.52437217e-13
1.25230691e+01 1.73532167e-11 1.38044649e-13 0.00000000e+00 1.72151720e-11 0.00000000e+00 1.38102367e-13
1.29421791e+01 1.68931712e-11 1.25069991e-13 0.00000000e+00 1.67681012e-11 0.00000000e+00 1.25115533e-13
1.33753155e+01 1.65937828e-11 1.13313760e-13 0.00000000e+00 1.64804690e-11 0.00000000e+00 1.13349952e-13
1.38229477e+01 1.63077290e-11 1.02660691e-13 0.00000000e+00 1.62050684e-11 0.00000000e+00 1.02690779e-13
1.42855609e+01 1.60267850e-11 9.30078208e-14 0.00000000e+00 1.59337771e-11 0.00000000e+00 9.30339713e-14
1.47636563e+01 1.60425316e-11 8.42604487e-14 0.00000000e+00 1.59582711e-11 0.00000000e+00 8.42852675e-14
1.52577522e+01 1.61071934e-11 7.63352915e-14 0.00000000e+00 1.60308581e-11 0.00000000e+00 7.63592720e-14
1.57683840e+01 1.62055723e-11 6.91551514e-14 0.00000000e+00 1.61364171e-11 0.00000000e+00 6.91786191e-14
1.62961051e+01 1.62704830e-11 6.26502804e-14 0.00000000e+00 1.62078328e-11 0.00000000e+00 6.26732185e-14
1.68414875e+01 1.62447998e-11 5.67572008e-14 0.00000000e+00 1.61880426e-11 0.00000000e+00 5.67795711e-14
1.74051222e+01 1.62894089e-11 5.14189057e-14 0.00000000e+00 1.62379900e-11 0.00000000e+00 5.14401489e-14
1.79876201e+01 1.61847119e-11 4.65829994e-14 0.00000000e+00 1.61381289e-11 0.00000000e+00 4.66028339e-14
1.85896125e+01 1.59493249e-11 4.22024628e-14 0.00000000e+00 1.59071225e-11 0.00000000e+00 4.22204090e-14
1.92117518e+01 1.58773014e-11 3.82343340e-14 0.00000000e+00 1.58390670e-11 0.00000000e+00 3.82500974e-14
1.98547123e+01 1.53063222e-11 3.46395690e-14 0.00000000e+00 1.52716826e-11 0.00000000e+00 3.46531450e-14
2.05191907e+01 1.50263675e-11 3.13828676e-14 0.00000000e+00 1.49949846e-11 0.00000000e+00 3.13944418e-14
2.12059073e+01 1.45415368e-11 2.84323136e-14 0.00000000e+00 1.45131045e-11 0.00000000e+00 2.84421796e-14
2.19156062e+01 1.40071609e-11 2.57590906e-14 0.00000000e+00 1.39814018e-11 0.00000000e+00 2.57675415e-14
2.26490567e+01 1.35156290e-11 2.33371699e-14 0.00000000e+00 1.34922918e-11 0.00000000e+00 2.33444203e-14
2.34070535e+01 1.30242350e-11 2.11429321e-14 0.00000000e+00 1.30030921e-11 0.00000000e+00 2.11491639e-14
2.41904183e+01 1.25007720e-11 1.91549745e-14 0.00000000e+00 1.24816171e-11 0.00000000e+00 1.91603445e-14
2.50000000e+01 1.19944656e-11 1.73539118e-14 0.00000000e+00 1.19771117e-11 0.00000000e+00 1.73585491e-14
2.75422870e+01 1.03708185e-11 1.29787320e-14 0.00000000e+00 1.03578398e-11 0.00000000e+00 1.29817562e-14
3.16227766e+01 8.13174865e-12 8.57529968e-15 0.00000000e+00 8.12317335e-12 0.00000000e+00 8.57696126e-15
3.63078055e+01 6.01034666e-12 5.66583400e-15 0.00000000e+00 6.00468083e-12 0.00000000e+00 5.66674211e-15
4.16869383e+01 4.16728972e-12 3.74349622e-15 0.00000000e+00 4.16354622e-12 0.00000000e+00 3.74397938e-15
4.78630092e+01 2.71068280e-12 2.47337356e-15 0.00000000e+00 2.70820942e-12 0.00000000e+00 2.47362265e-15
5.49540874e+01 1.66631271e-12 1.63418059e-15 0.00000000e+00 1.66467853e-12 0.00000000e+00 1.63430628e-15
6.30957344e+01 9.80150154e-13 1.07971284e-15 0.00000000e+00 9.79070441e-13 0.00000000e+00 1.07977545e-15
7.24435960e+01 5.57356457e-13 7.13369600e-16 0.00000000e+00 5.56643087e-13 0.00000000e+00 7.13400564e-16
8.31763771e+01 3.08752131e-13 4.71323789e-16 0.00000000e+00 3.08280807e-13 0.00000000e+00 4.71339078e-16
9.54992586e+01 1.68164839e-13 3.11403073e-16 0.00000000e+00 1.67853436e-13 0.00000000e+00 3.11410641e-16
1.09647820e+02 9.05619810e-14 2.05743211e-16 0.00000000e+00 9.03562378e-14 0.00000000e+00 2.05746970e-16
1.25892541e+02 4.88564981e-14 1.35933780e-16 0.00000000e+00 4.87205644e-14 0.00000000e+00 1.35935675e-16
1.44543977e+02 2.62889601e-14 8.98108477e-17 0.00000000e+00 2.61991492e-14 0.00000000e+00 8.98118099e-17
1.65958691e+02 1.35299176e-14 5.93376025e-17 0.00000000e+00 1.34705800e-14 0.00000000e+00 5.93380743e-17
1.90546072e+02 6.97990868e-15 3.92040433e-17 0.00000000e+00 6.94070464e-15 0.00000000e+00 3.92042769e-17
2.18776162e+02 3.60401543e-15 2.59018925e-17 0.00000000e+00 3.57811354e-15 0.00000000e+00 2.59020089e-17
2.51188643e+02 1.85833867e-15 1.71132294e-17 0.00000000e+00 1.84122544e-15 0.00000000e+00 1.71132876e-17
2.88403150e+02 9.55693091e-16 1.13066079e-17 0.00000000e+00 9.44386483e-16 0.00000000e+00 1.13066370e-17
3.31131121e+02 4.91161647e-16 7.47020638e-18 0.00000000e+00 4.83691441e-16 0.00000000e+00 7.47022097e-18
3.80189396e+02 2.51990471e-16 4.93551873e-18 0.00000000e+00 2.47054953e-16 0.00000000e+00 4.93552605e-18
4.36515832e+02 1.29248585e-16 3.26086605e-18 0.00000000e+00 1.25987719e-16 0.00000000e+00 3.26086972e-18
5.01187234e+02 6.62798235e-17 2.15443342e-18 0.00000000e+00 6.41253901e-17 0.00000000e+00 2.15443526e-18
5.75439937e+02 3.40119864e-17 1.42342034e-18 0.00000000e+00 3.25885661e-17 0.00000000e+00 1.42342126e-18
6.60693448e+02 1.74794199e-17 9.40444636e-19 0.00000000e+00 1.65389753e-17 0.00000000e+00 9.40445101e-19
7.58577575e+02 9.00502669e-18 6.21345683e-19 0.00000000e+00 8.38368101e-18 0.00000000e+00 6.21345916e-19
8.70963590e+02 4.65484643e-18 4.10519058e-19 0.00000000e+00 4.24432737e-18 0.00000000e+00 4.10519176e-19
1.00000000e+03 2.14607897e-18 0.00000000e+00 0.00000000e+00 2.14607897e-18 0.00000000e+00 0.00000000e+00
