# column 1: lambda (micron)
# column 2: total flux; lambda*F_lambda (W/m2)
# column 3: direct stellar flux; lambda*F_lambda (W/m2)
# column 4: scattered stellar flux; lambda*F_lambda (W/m2)
# column 5: total dust emission flux; lambda*F_lambda (W/m2)
# column 6: dust emission scattered flux; lambda*F_lambda (W/m2)
# column 7: transparent flux; lambda*F_lambda (W/m2)
1.00000000e-03 1.04124037e-12 1.04100977e-12 2.30600464e-16 0.00000000e+00 0.00000000e+00 1.04634360e-12
1.14815362e-03 1.22703265e-12 1.22671023e-12 3.22423047e-16 0.00000000e+00 0.00000000e+00 1.23502095e-12
1.31825674e-03 1.44676572e-12 1.44526040e-12 1.50532474e-15 0.00000000e+00 0.00000000e+00 1.45772071e-12
1.51356125e-03 1.70386272e-12 1.70325183e-12 6.10884020e-16 0.00000000e+00 0.00000000e+00 1.72057784e-12
1.73780083e-03 2.01132840e-12 2.01017301e-12 1.15539000e-15 0.00000000e+00 0.00000000e+00 2.03083353e-12
1.99526231e-03 2.37556421e-12 2.36475671e-12 1.08075059e-14 0.00000000e+00 0.00000000e+00 2.39703472e-12
2.29086765e-03 2.79112268e-12 2.78888557e-12 2.23710640e-15 0.00000000e+00 0.00000000e+00 2.82926954e-12
2.63026799e-03 3.28707167e-12 3.28240553e-12 4.66614005e-15 0.00000000e+00 0.00000000e+00 3.33944522e-12
3.01995172e-03 3.97742226e-12 3.85851864e-12 1.18903623e-13 0.00000000e+00 0.00000000e+00 3.94161611e-12
3.46736850e-03 4.85737756e-12 4.53698390e-12 3.20393652e-13 0.00000000e+00 0.00000000e+00 4.65237083e-12
3.98107171e-03 5.48410181e-12 5.33567537e-12 1.48426438e-13 0.00000000e+00 0.00000000e+00 5.49128930e-12
4.57088190e-03 6.42671533e-12 6.35837735e-12 6.83379728e-14 0.00000000e+00 0.00000000e+00 6.48148207e-12
5.24807460e-03 7.54305292e-12 7.46513140e-12 7.79215251e-14 0.00000000e+00 0.00000000e+00 7.65022704e-12
6.02559586e-03 9.27664969e-12 8.76695823e-12 5.09691461e-13 0.00000000e+00 0.00000000e+00 9.02972084e-12
6.91830971e-03 1.07104289e-11 1.03008277e-11 4.09601182e-13 0.00000000e+00 0.00000000e+00 1.06579658e-11
7.94328235e-03 1.27571251e-11 1.21104443e-11 6.46680839e-13 5.18839190e-303 4.06696986e-304 1.25798170e-11
9.12010839e-03 1.52775521e-11 1.42347060e-11 1.04284605e-12 2.72672074e-264 1.82869335e-265 1.48482176e-11
1.04712855e-02 1.70577288e-11 1.58554376e-11 1.20229120e-12 1.40715171e-230 1.30127240e-231 1.65834298e-11
1.20226443e-02 1.71066097e-11 1.58134857e-11 1.29312398e-12 2.51881831e-201 1.99754774e-202 1.65834298e-11
1.38038426e-02 1.70582977e-11 1.57638700e-11 1.29442768e-12 7.90444011e-176 7.39717730e-177 1.65834298e-11
1.58489319e-02 1.68129524e-11 1.57031092e-11 1.10984313e-12 1.17803418e-153 1.00951628e-154 1.65834298e-11
1.81970086e-02 1.67843246e-11 1.56472759e-11 1.13704866e-12 2.31511868e-134 2.07911459e-135 1.65834298e-11
2.08929613e-02 1.67771134e-11 1.56010176e-11 1.17609584e-12 1.31830055e-117 1.25347991e-118 1.65834298e-11
2.39883292e-02 1.67205898e-11 1.55412857e-11 1.17930410e-12 4.94182929e-103 4.66954772e-104 1.65834298e-11
2.75422870e-02 1.66165067e-11 1.54720947e-11 1.14441205e-12 2.36019370e-90 2.50927414e-91 1.65834298e-11
3.16227766e-02 1.65355867e-11 1.54045715e-11 1.13101517e-12 2.41050533e-79 2.60995110e-80 1.65834298e-11
3.63078055e-02 1.64242784e-11 1.53518159e-11 1.07246253e-12 8.63912327e-70 8.75713948e-71 1.65834298e-11
4.16869383e-02 1.63937888e-11 1.53063320e-11 1.08745673e-12 1.72395970e-61 2.00088425e-62 1.65834298e-11
4.78630092e-02 1.61965623e-11 1.51816533e-11 1.01490904e-12 2.64212149e-54 3.15682272e-55 1.65834298e-11
5.49540874e-02 1.59740967e-11 1.50099503e-11 9.64146352e-13 4.40061250e-48 5.46315705e-49 1.65834298e-11
6.30957344e-02 1.54325613e-11 1.45878965e-11 8.44664814e-13 1.35071245e-42 1.71873360e-43 1.65834298e-11
7.24435960e-02 1.48036287e-11 1.41032956e-11 7.00333116e-13 7.30263434e-38 8.58563965e-39 1.65834298e-11
8.31763771e-02 1.48003334e-11 1.41457575e-11 6.54575917e-13 7.64772976e-34 8.61726978e-35 1.65834298e-11
9.54992586e-02 1.49278599e-11 1.42710345e-11 6.56825371e-13 2.25294217e-30 2.55620808e-31 1.65834298e-11
1.09647820e-01 1.46884461e-11 1.39795740e-11 7.08872069e-13 2.08333494e-27 2.54268178e-28 1.58370587e-11
1.25892541e-01 1.40801750e-11 1.33375356e-11 7.42639423e-13 7.29307927e-25 9.07350998e-26 1.47800032e-11
1.44543977e-01 1.33389298e-11 1.26680150e-11 6.70914801e-13 1.05264565e-22 1.25618601e-23 1.37935015e-11
1.65958691e-01 1.26161851e-11 1.19493960e-11 6.66789108e-13 5.58447929e-21 7.14412552e-22 1.28728446e-11
1.90546072e-01 1.17435383e-11 1.10964689e-11 6.47069252e-13 1.17797413e-19 1.67119522e-20 1.20136376e-11
2.18776162e-01 1.07506746e-11 1.02144986e-11 5.36174655e-13 1.35057070e-18 1.94980967e-19 1.12117790e-11
2.51188643e-01 1.02970886e-11 9.71223268e-12 5.84838328e-13 1.76313179e-17 2.98458007e-18 1.04634409e-11
2.88403150e-01 9.75025697e-12 9.17934626e-12 5.70756961e-13 1.53751364e-16 2.64388040e-17 9.76505125e-12
3.31131121e-01 9.16152571e-12 8.63490684e-12 5.25715024e-13 9.03838772e-16 1.50864342e-16 9.11327608e-12
3.80189396e-01 8.60277531e-12 8.11168234e-12 4.87240738e-13 3.85223468e-15 6.32565590e-16 8.50500410e-12
4.36515832e-01 8.07571099e-12 7.61689086e-12 4.46344429e-13 1.24757008e-14 2.03560740e-15 7.93733165e-12
5.01187234e-01 7.58795897e-12 7.15005559e-12 4.06132469e-13 3.17709048e-14 5.14475347e-15 7.40754890e-12
5.75439937e-01 7.14279889e-12 6.70840003e-12 3.67765018e-13 6.66338472e-14 1.06364418e-14 6.91312687e-12
6.60693448e-01 6.73345088e-12 6.29038517e-12 3.23239107e-13 1.19826598e-13 1.92800906e-14 6.45170538e-12
7.58577575e-01 6.38177176e-12 5.89553974e-12 2.91112665e-13 1.95119361e-13 3.23042565e-14 6.02108180e-12
8.70963590e-01 6.07809447e-12 5.52368103e-12 2.49501095e-13 3.04912352e-13 5.52376150e-14 5.61920048e-12
1.00000000e+00 5.85905709e-12 5.17265800e-12 2.10578457e-13 4.75820636e-13 9.47549095e-14 5.24414302e-12
1.14815362e+00 5.80973844e-12 4.84158397e-12 1.74572253e-13 7.93582210e-13 1.72742908e-13 4.89411902e-12
1.31825674e+00 6.03728177e-12 4.52952885e-12 1.39226213e-13 1.36852671e-12 2.89594016e-13 4.56745763e-12
1.51356125e+00 6.70271919e-12 4.23549915e-12 1.07381036e-13 2.35983900e-12 4.52230604e-13 4.26259947e-12
1.73780083e+00 7.90990214e-12 3.95904439e-12 8.43471693e-14 3.86651059e-12 6.29017213e-13 3.97808929e-12
1.99526231e+00 9.58024126e-12 3.69939716e-12 6.52878187e-14 5.81555627e-12 7.68887144e-13 3.71256894e-12
2.29086765e+00 1.15666406e-11 3.45569080e-12 5.00075105e-14 8.06094229e-12 8.43046652e-13 3.46477093e-12
2.63026799e+00 1.35419311e-11 3.22719502e-12 3.74930693e-14 1.02772430e-11 8.48121239e-13 3.23351237e-12
3.01995172e+00 1.53331916e-11 3.01323801e-12 2.74544667e-14 1.22924991e-11 8.03607216e-13 3.01768933e-12
3.46736850e+00 1.68181415e-11 2.81308409e-12 2.00106361e-14 1.39850467e-11 7.19428927e-13 2.81627154e-12
3.98107171e+00 1.79882335e-11 2.62598603e-12 1.40724426e-14 1.53481751e-11 6.01468116e-13 2.62829753e-12
4.57088190e+00 1.86798249e-11 2.45117088e-12 9.49250877e-15 1.62191615e-11 4.60357107e-13 2.45286997e-12
5.24807460e+00 1.87181667e-11 2.02701884e-12 5.53137730e-15 1.66856165e-11 3.19005621e-13 2.02814751e-12
6.02559586e+00 1.79537158e-11 1.33936407e-12 2.43491221e-15 1.66119168e-11 2.05300463e-13 1.33998377e-12
6.70000000e+00 1.72641221e-11 9.74310342e-13 1.24490313e-15 1.62885668e-11 1.37780975e-13 9.74709347e-13
6.92422916e+00 1.70156359e-11 8.82701074e-13 9.99848911e-16 1.61319349e-11 1.20233667e-13 8.83049889e-13
7.15596261e+00 1.68177366e-11 7.99699384e-13 7.98572949e-16 1.60172386e-11 1.04032383e-13 8.00009879e-13
7.39545150e+00 1.67691634e-11 7.24490752e-13 6.10243611e-16 1.60440624e-11 8.81954898e-14 7.24778763e-13
7.64295536e+00 1.72478042e-11 6.56324925e-13 4.25128990e-16 1.65910542e-11 7.25945012e-14 6.56622211e-13
7.89874245e+00 1.80911073e-11 5.94526989e-13 2.58941439e-16 1.74963214e-11 5.57850788e-14 5.94874946e-13
8.16308998e+00 1.92142516e-11 5.38508641e-13 1.46455063e-16 1.86755966e-11 4.15581620e-14 5.38934254e-13
8.43628443e+00 2.01258655e-11 4.87718474e-13 7.83746085e-17 1.96380687e-11 2.90863511e-14 4.88254098e-13
8.71862190e+00 2.07171600e-11 4.41743613e-13 4.75107806e-17 2.02753689e-11 2.16892168e-14 4.42339790e-13
9.01040836e+00 2.11682974e-11 4.00088951e-13 2.77791404e-17 2.07681806e-11 1.56626946e-14 4.00743158e-13
9.31196005e+00 2.14363635e-11 3.62370850e-13 0.00000000e+00 2.10739927e-11 0.00000000e+00 3.63058180e-13
9.62360379e+00 2.13288648e-11 3.28277927e-13 0.00000000e+00 2.10005869e-11 0.00000000e+00 3.28917012e-13
9.94567731e+00 2.09586556e-11 2.97443105e-13 0.00000000e+00 2.06612125e-11 0.00000000e+00 2.97986401e-13
1.02785297e+01 2.03401073e-11 2.69519121e-13 0.00000000e+00 2.00705882e-11 0.00000000e+00 2.69964435e-13
1.06225216e+01 1.98511101e-11 2.44216501e-13 0.00000000e+00 1.96068936e-11 0.00000000e+00 2.44577592e-13
1.09780260e+01 1.91653318e-11 2.21295827e-13 0.00000000e+00 1.89440360e-11 0.00000000e+00 2.21578069e-13
1.13454280e+01 1.85899547e-11 2.00519879e-13 0.00000000e+00 1.83894349e-11 0.00000000e+00 2.00741370e-13
1.17251259e+01 1.80318276e-11 1.81689174e-13 0.00000000e+00 1.78501384e-11 0.00000000e+00 1.81864106e-13
1.21175312e+01 1.72652041e-11 1.64624566e-13 0.00000000e+00 1.71005795e-11 0.00000000e+00 1.64762018e-13
1.25230691e+01 1.65297339e-11 1.49160466e-13 0.00000000e+00 1.63805735e-11 0.00000000e+00 1.49268171e-13
1.29421791e+01 1.57797037e-11 1.35146344e-13 0.00000000e+00 1.56445573e-11 0.00000000e+00 1.35231331e-13
1.33753155e+01 1.50047254e-11 1.22446944e-13 0.00000000e+00 1.48822784e-11 0.00000000e+00 1.22514483e-13
1.38229477e+01 1.43897484e-11 1.10937350e-13 0.00000000e+00 1.42788110e-11 0.00000000e+00 1.10993499e-13
1.42855609e+01 1.40045236e-11 1.00507121e-13 0.00000000e+00 1.39040164e-11 0.00000000e+00 1.00555922e-13
1.47636563e+01 1.40366748e-11 9.10535552e-14 0.00000000e+00 1.39456212e-11 0.00000000e+00 9.10998706e-14
1.52577522e+01 1.42118978e-11 8.24882946e-14 0.00000000e+00 1.41294095e-11 0.00000000e+00 8.25330452e-14
1.57683840e+01 1.44188300e-11 7.47280314e-14 0.00000000e+00 1.43441019e-11 0.00000000e+00 7.47718247e-14
1.62961051e+01 1.46408568e-11 6.76976471e-14 0.00000000e+00 1.45731592e-11 0.00000000e+00 6.77404517e-14
1.68414875e+01 1.47842162e-11 6.13285485e-14 0.00000000e+00 1.47228876e-11 0.00000000e+00 6.13702932e-14
1.74051222e+01 1.48052249e-11 5.55595287e-14 0.00000000e+00 1.47496654e-11 0.00000000e+00 5.55991699e-14
1.79876201e+01 1.47534573e-11 5.03337378e-14 0.00000000e+00 1.47031236e-11 0.00000000e+00 5.03707500e-14
1.85896125e+01 1.44903900e-11 4.56005102e-14 0.00000000e+00 1.44447895e-11 0.00000000e+00 4.56339988e-14
1.92117518e+01 1.41491559e-11 4.13132654e-14 0.00000000e+00 1.41078426e-11 0.00000000e+00 4.13426810e-14
1.98547123e+01 1.36464457e-11 3.74295751e-14 0.00000000e+00 1.36090161e-11 0.00000000e+00 3.74549090e-14
2.05191907e+01 1.31440244e-11 3.39111358e-14 0.00000000e+00 1.31101133e-11 0.00000000e+00 3.39327342e-14
2.12059073e+01 1.25097938e-11 3.07233658e-14 0.00000000e+00 1.24790704e-11 0.00000000e+00 3.07417768e-14
2.19156062e+01 1.20159148e-11 2.78351193e-14 0.00000000e+00 1.19880797e-11 0.00000000e+00 2.78508898e-14
2.26490567e+01 1.14311670e-11 2.52183251e-14 0.00000000e+00 1.14059487e-11 0.00000000e+00 2.52318552e-14
2.34070535e+01 1.08862046e-11 2.28474792e-14 0.00000000e+00 1.08633572e-11 0.00000000e+00 2.28591087e-14
2.41904183e+01 1.03539861e-11 2.06994688e-14 0.00000000e+00 1.03332866e-11 0.00000000e+00 2.07094900e-14
2.50000000e+01 9.85015393e-12 1.87533626e-14 0.00000000e+00 9.83140057e-12 0.00000000e+00 1.87620165e-14
2.75422870e+01 8.34158296e-12 1.40257089e-14 0.00000000e+00 8.32755725e-12 0.00000000e+00 1.40313526e-14
3.16227766e+01 6.32978401e-12 9.26732189e-15 0.00000000e+00 6.32051669e-12 0.00000000e+00 9.27042274e-15
3.63078055e+01 4.55681745e-12 6.12321283e-15 0.00000000e+00 4.55069424e-12 0.00000000e+00 6.12490756e-15
4.16869383e+01 3.06916109e-12 4.04578459e-15 0.00000000e+00 3.06511531e-12 0.00000000e+00 4.04668630e-15
4.78630092e+01 1.94075937e-12 2.67315426e-15 0.00000000e+00 1.93808621e-12 0.00000000e+00 2.67361912e-15
5.49540874e+01 1.16301825e-12 1.76620808e-15 0.00000000e+00 1.16125204e-12 0.00000000e+00 1.76644264e-15
6.30957344e+01 6.69971501e-13 1.16696023e-15 0.00000000e+00 6.68804540e-13 0.00000000e+00 1.16707708e-15
7.24435960e+01 3.73870863e-13 7.71022388e-16 0.00000000e+00 3.73099840e-13 0.00000000e+00 7.71080178e-16
8.31763771e+01 2.04592272e-13 5.09419086e-16 0.00000000e+00 2.04082853e-13 0.00000000e+00 5.09447621e-16
9.54992586e+01 1.10315078e-13 3.36574581e-16 0.00000000e+00 1.09978503e-13 0.00000000e+00 3.36588705e-16
1.09647820e+02 5.89453412e-14 2.22374937e-16 0.00000000e+00 5.87229663e-14 0.00000000e+00 2.22381952e-16
1.25892541e+02 3.16516637e-14 1.46922763e-16 0.00000000e+00 3.15047409e-14 0.00000000e+00 1.46926299e-16
1.44543977e+02 1.69713640e-14 9.70714472e-17 0.00000000e+00 1.68742926e-14 0.00000000e+00 9.70732430e-17
1.65958691e+02 8.70003941e-15 6.41347751e-17 0.00000000e+00 8.63590463e-15 0.00000000e+00 6.41356556e-17
1.90546072e+02 4.47990105e-15 4.23735715e-17 0.00000000e+00 4.43752747e-15 0.00000000e+00 4.23740075e-17
2.18776162e+02 2.31050776e-15 2.79960119e-17 0.00000000e+00 2.28251174e-15 0.00000000e+00 2.79962291e-17
2.51188643e+02 1.19113294e-15 1.84968166e-17 0.00000000e+00 1.17263612e-15 0.00000000e+00 1.84969251e-17
2.88403150e+02 6.12937385e-16 1.22207429e-17 0.00000000e+00 6.00716642e-16 0.00000000e+00 1.22207972e-17
3.31131121e+02 3.15446993e-16 8.07417345e-18 0.00000000e+00 3.07372819e-16 0.00000000e+00 8.07420067e-18
3.80189396e+02 1.62215856e-16 5.33455783e-18 0.00000000e+00 1.56881298e-16 0.00000000e+00 5.33457148e-18
4.36515832e+02 8.34828254e-17 3.52450957e-18 0.00000000e+00 7.99583159e-17 0.00000000e+00 3.52451642e-18
5.01187234e+02 4.30079395e-17 2.32862147e-18 0.00000000e+00 4.06793180e-17 0.00000000e+00 2.32862491e-18
5.75439937e+02 2.22045424e-17 1.53850549e-18 0.00000000e+00 2.06660369e-17 0.00000000e+00 1.53850722e-18
6.60693448e+02 1.15019589e-17 1.01648077e-18 0.00000000e+00 1.04854781e-17 0.00000000e+00 1.01648164e-18
7.58577575e+02 5.98569565e-18 6.71582324e-19 0.00000000e+00 5.31411333e-18 0.00000000e+00 6.71582760e-19
8.70963590e+02 3.13363688e-18 4.43710110e-19 0.00000000e+00 2.68992677e-18 0.00000000e+00 4.43710329e-19
1.00000000e+03 1.35996228e-18 0.00000000e+00 0.00000000e+00 1.35996228e-18 0.00000000e+00 0.00000000e+00
