# column 1: lambda (micron)
# column 2: total flux; lambda*F_lambda (W/m2)
# column 3: direct stellar flux; lambda*F_lambda (W/m2)
# column 4: scattered stellar flux; lambda*F_lambda (W/m2)
# column 5: total dust emission flux; lambda*F_lambda (W/m2)
# column 6: dust emission scattered flux; lambda*F_lambda (W/m2)
# column 7: transparent flux; lambda*F_lambda (W/m2)
1.00000000e-03 1.07310259e-12 1.07310157e-12 1.01944983e-18 0.00000000e+00 0.00000000e+00 1.07335627e-12
1.14815362e-03 1.26650898e-12 1.26650739e-12 1.59264574e-18 0.00000000e+00 0.00000000e+00 1.26690456e-12
1.31825674e-03 1.49476011e-12 1.49475760e-12 2.50555058e-18 0.00000000e+00 0.00000000e+00 1.49535359e-12
1.51356125e-03 1.76417131e-12 1.76416737e-12 3.93942499e-18 0.00000000e+00 0.00000000e+00 1.76499670e-12
1.73780083e-03 2.08228014e-12 2.08227304e-12 7.10112811e-18 0.00000000e+00 0.00000000e+00 2.08326203e-12
1.99526231e-03 2.45738229e-12 2.45736961e-12 1.26782379e-17 0.00000000e+00 0.00000000e+00 2.45891716e-12
2.29086765e-03 2.90039433e-12 2.90037373e-12 2.06048935e-17 0.00000000e+00 0.00000000e+00 2.90231066e-12
2.63026799e-03 3.42295838e-12 3.42291766e-12 4.07187049e-17 0.00000000e+00 0.00000000e+00 3.42565717e-12
3.01995172e-03 4.03944313e-12 4.03937509e-12 6.80375902e-17 0.00000000e+00 0.00000000e+00 4.04337385e-12
3.46736850e-03 4.76703219e-12 4.76691497e-12 1.17211337e-16 0.00000000e+00 0.00000000e+00 4.77247759e-12
3.98107171e-03 5.62572679e-12 5.62553894e-12 1.87841785e-16 0.00000000e+00 0.00000000e+00 5.63305378e-12
4.57088190e-03 6.64330082e-12 6.64289166e-12 4.09164392e-16 0.00000000e+00 0.00000000e+00 6.64880962e-12
5.24807460e-03 7.83954682e-12 7.83880667e-12 7.40144002e-16 0.00000000e+00 0.00000000e+00 7.84772720e-12
6.02559586e-03 9.25150880e-12 9.25014042e-12 1.36837998e-15 0.00000000e+00 0.00000000e+00 9.26283435e-12
6.91830971e-03 1.09180765e-11 1.09158241e-11 2.25237772e-15 0.00000000e+00 0.00000000e+00 1.09331145e-11
7.94328235e-03 1.28886825e-11 1.28818141e-11 6.86843401e-15 1.45473166e-303 1.54646012e-306 1.29045807e-11
9.12010839e-03 1.52130820e-11 1.52017261e-11 1.13558981e-14 6.13167237e-265 1.12196641e-267 1.52315429e-11
1.04712855e-02 1.69951818e-11 1.69761260e-11 1.90558652e-14 2.50621985e-231 8.38937391e-234 1.70115517e-11
1.20226443e-02 1.69936114e-11 1.69740375e-11 1.95739172e-14 3.81113633e-202 1.76840746e-204 1.70115517e-11
1.38038426e-02 1.69948293e-11 1.69715607e-11 2.32685551e-14 1.01010614e-176 4.16003231e-179 1.70115517e-11
1.58489319e-02 1.69990865e-11 1.69685174e-11 3.05690766e-14 1.33871188e-154 9.94731384e-157 1.70115517e-11
1.81970086e-02 1.70081438e-11 1.69657110e-11 4.24327814e-14 2.34223967e-135 2.10719216e-137 1.70115517e-11
2.08929613e-02 1.70185437e-11 1.69633786e-11 5.51651276e-14 1.20501608e-118 1.50815170e-120 1.70115517e-11
2.39883292e-02 1.70333086e-11 1.69603571e-11 7.29515101e-14 4.17170854e-104 6.65173903e-106 1.70115517e-11
2.75422870e-02 1.70464190e-11 1.69568432e-11 8.95758213e-14 1.84849405e-91 3.88285079e-93 1.70115517e-11
3.16227766e-02 1.70693560e-11 1.69533996e-11 1.15956452e-13 1.78817708e-80 4.77987075e-82 1.70115517e-11
3.63078055e-02 1.70829512e-11 1.69506990e-11 1.32252168e-13 6.15147220e-71 1.87924898e-72 1.70115517e-11
4.16869383e-02 1.71344275e-11 1.69483636e-11 1.86063835e-13 1.16841175e-62 4.95826281e-64 1.70115517e-11
4.78630092e-02 1.71923602e-11 1.69419278e-11 2.50432451e-13 1.77011967e-55 1.02021382e-56 1.70115517e-11
5.49540874e-02 1.72413472e-11 1.69329816e-11 3.08365570e-13 2.95409464e-49 2.13974624e-50 1.70115517e-11
6.30957344e-02 1.72758705e-11 1.69105698e-11 3.65300729e-13 9.59648559e-44 8.34692072e-45 1.70115517e-11
7.24435960e-02 1.72270957e-11 1.68840611e-11 3.43034622e-13 5.53789915e-39 4.73348684e-40 1.70115517e-11
8.31763771e-02 1.72289466e-11 1.68864183e-11 3.42528332e-13 5.63283088e-35 4.69052378e-36 1.70115517e-11
9.54992586e-02 1.72528537e-11 1.68933337e-11 3.59519981e-13 1.58546659e-31 1.39514263e-32 1.70115517e-11
1.09647820e-01 1.65257831e-11 1.61520674e-11 3.73715711e-13 1.34362473e-28 1.27483159e-29 1.62459122e-11
1.25892541e-01 1.54217371e-11 1.50894379e-11 3.32299264e-13 4.31095057e-26 3.84588832e-27 1.51615674e-11
1.44543977e-01 1.44042446e-11 1.40937808e-11 3.10463799e-13 5.84103603e-24 5.07749812e-25 1.41495980e-11
1.65958691e-01 1.34756423e-11 1.31596052e-11 3.16037099e-13 2.96161669e-22 2.83798449e-23 1.32051732e-11
1.90546072e-01 1.26342408e-11 1.22784205e-11 3.55820327e-13 6.29610839e-21 7.27649200e-22 1.23237846e-11
2.18776162e-01 1.17989494e-11 1.14515791e-11 3.47370231e-13 7.49599711e-20 9.30865656e-21 1.15012250e-11
2.51188643e-01 1.11063663e-11 1.06964979e-11 4.09867444e-13 9.19142062e-19 1.38318995e-19 1.07335677e-11
2.88403150e-01 1.03613277e-11 9.98841722e-12 3.72902854e-13 7.60191332e-18 1.10999774e-18 1.00171482e-11
3.31131121e-01 9.66083270e-12 9.32516859e-12 3.35620822e-13 4.32953449e-17 6.06934987e-18 9.34854667e-12
3.80189396e-01 9.00926891e-12 8.70540919e-12 3.03679901e-13 1.79815343e-16 2.44960444e-17 8.72457139e-12
4.36515832e-01 8.40513843e-12 8.12667754e-12 2.77891557e-13 5.69336490e-16 7.59553617e-17 8.14224377e-12
5.01187234e-01 7.84592992e-12 7.58631011e-12 2.58164741e-13 1.45507537e-15 1.97811640e-16 7.59878402e-12
5.75439937e-01 7.31994801e-12 7.08170512e-12 2.34976881e-13 3.26600313e-15 4.79731454e-16 7.09159786e-12
6.60693448e-01 6.83026666e-12 6.61048646e-12 2.12574017e-13 7.20618696e-15 1.21938762e-15 6.61826421e-12
7.58577575e-01 6.37909727e-12 6.17048297e-12 1.91407759e-13 1.72065455e-14 3.31512317e-15 6.17652353e-12
8.70963590e-01 5.97008536e-12 5.75967972e-12 1.66894447e-13 4.35111927e-14 8.87833174e-15 5.76426715e-12
1.00000000e+00 5.62271170e-12 5.37609954e-12 1.40607276e-13 1.06004889e-13 2.12175882e-14 5.37952711e-12
1.14815362e+00 5.37487563e-12 5.01795137e-12 1.14082018e-13 2.42842250e-13 4.52815322e-14 5.02046681e-12
1.31825674e+00 5.27265658e-12 4.68355829e-12 8.84382767e-14 5.00660020e-13 8.27234547e-14 4.68537225e-12
1.51356125e+00 5.37363248e-12 4.37134892e-12 6.84591346e-14 9.33824418e-13 1.31169723e-13 4.37264380e-12
1.73780083e+00 5.69027628e-12 4.07987933e-12 5.14776396e-14 1.55891931e-12 1.86368542e-13 4.08078863e-12
1.99526231e+00 6.17506566e-12 3.80778503e-12 3.76571615e-14 2.32962347e-12 2.25081322e-13 3.80841354e-12
2.29086765e+00 6.73478792e-12 3.55378524e-12 2.68828564e-14 3.15411983e-12 2.41768054e-13 3.55421832e-12
2.63026799e+00 7.29626084e-12 3.31668832e-12 1.85887767e-14 3.96098374e-12 2.33709853e-13 3.31698953e-12
3.01995172e+00 7.74406226e-12 3.09538255e-12 1.30628414e-14 4.63561686e-12 2.11942257e-13 3.09559474e-12
3.46736850e+00 8.05659934e-12 2.88882519e-12 9.15541950e-15 5.15861873e-12 1.79575814e-13 2.88897711e-12
3.98107171e+00 8.23576264e-12 2.69604015e-12 6.40396375e-15 5.53331852e-12 1.45895174e-13 2.69615031e-12
4.57088190e+00 8.23953777e-12 2.51611291e-12 4.30547917e-15 5.71911938e-12 1.11440412e-13 2.51619387e-12
5.24807460e+00 7.86462232e-12 2.08045289e-12 2.52743360e-15 5.78164199e-12 8.02275097e-14 2.08050667e-12
6.02559586e+00 7.14517015e-12 1.37454760e-12 1.11239489e-15 5.76951015e-12 5.44906286e-14 1.37457712e-12
6.70000000e+00 6.69996730e-12 9.99853674e-13 5.87645276e-16 5.69952598e-12 3.86727614e-14 9.99872685e-13
6.92422916e+00 6.58782744e-12 9.05830304e-13 4.79758692e-16 5.68151737e-12 3.44179506e-14 9.05846924e-13
7.15596261e+00 6.48206345e-12 8.20648338e-13 3.79047655e-16 5.66103606e-12 3.03028111e-14 8.20663132e-13
7.39545150e+00 6.44234772e-12 7.43476109e-13 2.88557309e-16 5.69858305e-12 2.59032913e-14 7.43489831e-13
7.64295536e+00 6.60882198e-12 6.73559568e-13 1.97243601e-16 5.93506517e-12 2.09658729e-14 6.73573732e-13
7.89874245e+00 7.03239334e-12 6.10215805e-13 1.16696543e-16 6.42206084e-12 1.56753300e-14 6.10232385e-13
8.16308998e+00 7.66206064e-12 5.52827232e-13 6.57347036e-17 7.10916767e-12 1.15592498e-14 5.52847515e-13
8.43628443e+00 8.54149187e-12 5.00833459e-13 3.58666268e-17 8.04062255e-12 8.27935805e-15 5.00858987e-13
8.71862190e+00 9.16270942e-12 4.53730926e-13 2.28111624e-17 8.70895569e-12 6.38720835e-15 4.53759343e-13
9.01040836e+00 9.79703058e-12 4.11057655e-13 1.43247934e-17 9.38595860e-12 4.92556298e-15 4.11088843e-13
9.31196005e+00 1.01694136e-11 3.72398209e-13 0.00000000e+00 9.79701540e-12 0.00000000e+00 3.72430980e-13
9.62360379e+00 1.01803738e-11 3.37377943e-13 0.00000000e+00 9.84299584e-12 0.00000000e+00 3.37408415e-13
9.94567731e+00 9.85120956e-12 3.05653389e-13 0.00000000e+00 9.54555617e-12 0.00000000e+00 3.05679292e-13
1.02785297e+01 9.27070468e-12 2.76912675e-13 0.00000000e+00 8.99379201e-12 0.00000000e+00 2.76933904e-13
1.06225216e+01 8.76924316e-12 2.50874455e-13 0.00000000e+00 8.51836870e-12 0.00000000e+00 2.50891667e-13
1.09780260e+01 8.17828177e-12 2.27284931e-13 0.00000000e+00 7.95099684e-12 0.00000000e+00 2.27298384e-13
1.13454280e+01 7.70803868e-12 2.05913202e-13 0.00000000e+00 7.50212548e-12 0.00000000e+00 2.05923759e-13
1.17251259e+01 7.33682477e-12 1.86550818e-13 0.00000000e+00 7.15027395e-12 0.00000000e+00 1.86559155e-13
1.21175312e+01 6.95345491e-12 1.69009005e-13 0.00000000e+00 6.78444590e-12 0.00000000e+00 1.69015555e-13
1.25230691e+01 6.63772227e-12 1.53116583e-13 0.00000000e+00 6.48460568e-12 0.00000000e+00 1.53121715e-13
1.29421791e+01 6.35261732e-12 1.38718447e-13 0.00000000e+00 6.21389888e-12 0.00000000e+00 1.38722496e-13
1.33753155e+01 6.07677075e-12 1.25674129e-13 0.00000000e+00 5.95109662e-12 0.00000000e+00 1.25677347e-13
1.38229477e+01 5.90114790e-12 1.13856259e-13 0.00000000e+00 5.78729164e-12 0.00000000e+00 1.13858934e-13
1.42855609e+01 5.81414524e-12 1.03149573e-13 0.00000000e+00 5.71099567e-12 0.00000000e+00 1.03151898e-13
1.47636563e+01 5.85711383e-12 9.34495206e-14 0.00000000e+00 5.76366431e-12 0.00000000e+00 9.34517274e-14
1.52577522e+01 5.92299197e-12 8.46616065e-14 0.00000000e+00 5.83833037e-12 0.00000000e+00 8.46637387e-14
1.57683840e+01 6.00531147e-12 7.67000659e-14 0.00000000e+00 5.92861140e-12 0.00000000e+00 7.67021526e-14
1.62961051e+01 6.10361549e-12 6.94872164e-14 0.00000000e+00 6.03412827e-12 0.00000000e+00 6.94892560e-14
1.68414875e+01 6.14636743e-12 6.29526547e-14 0.00000000e+00 6.08341477e-12 0.00000000e+00 6.29546439e-14
1.74051222e+01 6.16732829e-12 5.70326429e-14 0.00000000e+00 6.11029565e-12 0.00000000e+00 5.70345319e-14
1.79876201e+01 6.12223785e-12 5.16693700e-14 0.00000000e+00 6.07056848e-12 0.00000000e+00 5.16711337e-14
1.85896125e+01 6.06116586e-12 4.68105016e-14 0.00000000e+00 6.01435536e-12 0.00000000e+00 4.68120974e-14
1.92117518e+01 5.92016723e-12 4.24085922e-14 0.00000000e+00 5.87775864e-12 0.00000000e+00 4.24099939e-14
1.98547123e+01 5.75700450e-12 3.84206470e-14 0.00000000e+00 5.71858386e-12 0.00000000e+00 3.84218542e-14
2.05191907e+01 5.54279931e-12 3.48077209e-14 0.00000000e+00 5.50799159e-12 0.00000000e+00 3.48087501e-14
2.12059073e+01 5.40331690e-12 3.15345368e-14 0.00000000e+00 5.37178237e-12 0.00000000e+00 3.15354141e-14
2.19156062e+01 5.22292405e-12 2.85691438e-14 0.00000000e+00 5.19435490e-12 0.00000000e+00 2.85698952e-14
2.26490567e+01 5.02354031e-12 2.58826024e-14 0.00000000e+00 4.99765771e-12 0.00000000e+00 2.58832470e-14
2.34070535e+01 4.84989125e-12 2.34486910e-14 0.00000000e+00 4.82644256e-12 0.00000000e+00 2.34492452e-14
2.41904183e+01 4.68077212e-12 2.12436538e-14 0.00000000e+00 4.65952847e-12 0.00000000e+00 2.12441313e-14
2.50000000e+01 4.46750493e-12 1.92459690e-14 0.00000000e+00 4.44825896e-12 0.00000000e+00 1.92463813e-14
2.75422870e+01 3.94271329e-12 1.43933206e-14 0.00000000e+00 3.92831997e-12 0.00000000e+00 1.43935895e-14
3.16227766e+01 3.13771636e-12 9.50960253e-15 0.00000000e+00 3.12820676e-12 0.00000000e+00 9.50975027e-15
3.63078055e+01 2.36626651e-12 6.28294895e-15 0.00000000e+00 2.35998356e-12 0.00000000e+00 6.28302969e-15
4.16869383e+01 1.68139182e-12 4.15111359e-15 0.00000000e+00 1.67724070e-12 0.00000000e+00 4.15115655e-15
4.78630092e+01 1.12478616e-12 2.74261979e-15 0.00000000e+00 1.12204354e-12 0.00000000e+00 2.74264194e-15
5.49540874e+01 7.10364881e-13 1.81203438e-15 0.00000000e+00 7.08552847e-13 0.00000000e+00 1.81204556e-15
6.30957344e+01 4.29261768e-13 1.19720106e-15 0.00000000e+00 4.28064567e-13 0.00000000e+00 1.19720663e-15
7.24435960e+01 2.49468772e-13 7.90983822e-16 0.00000000e+00 2.48677789e-13 0.00000000e+00 7.90986575e-16
8.31763771e+01 1.40977507e-13 5.22598288e-16 0.00000000e+00 1.40454908e-13 0.00000000e+00 5.22599647e-16
9.54992586e+01 7.80061673e-14 3.45277490e-16 0.00000000e+00 7.76608898e-14 0.00000000e+00 3.45278163e-16
1.09647820e+02 4.24963991e-14 2.28122686e-16 0.00000000e+00 4.22682764e-14 0.00000000e+00 2.28123020e-16
1.25892541e+02 2.31650823e-14 1.50719216e-16 0.00000000e+00 2.30143631e-14 0.00000000e+00 1.50719385e-16
1.44543977e+02 1.25685389e-14 9.95792244e-17 0.00000000e+00 1.24689597e-14 0.00000000e+00 9.95793099e-17
1.65958691e+02 6.50885087e-15 6.57913557e-17 0.00000000e+00 6.44305951e-15 0.00000000e+00 6.57913976e-17
1.90546072e+02 3.37860245e-15 4.34679246e-17 0.00000000e+00 3.33513452e-15 0.00000000e+00 4.34679453e-17
2.18776162e+02 1.75341711e-15 2.87189763e-17 0.00000000e+00 1.72469813e-15 0.00000000e+00 2.87189867e-17
2.51188643e+02 9.08530295e-16 1.89744412e-17 0.00000000e+00 8.89555854e-16 0.00000000e+00 1.89744463e-17
2.88403150e+02 4.69674226e-16 1.25362898e-17 0.00000000e+00 4.57137936e-16 0.00000000e+00 1.25362924e-17
3.31131121e+02 2.42749701e-16 8.28264494e-18 0.00000000e+00 2.34467057e-16 0.00000000e+00 8.28264623e-18
3.80189396e+02 1.25353652e-16 5.47228945e-18 0.00000000e+00 1.19881362e-16 0.00000000e+00 5.47229010e-18
4.36515832e+02 6.47993106e-17 3.61550589e-18 0.00000000e+00 6.11838047e-17 0.00000000e+00 3.61550621e-18
5.01187234e+02 3.35487492e-17 2.38874110e-18 0.00000000e+00 3.11600081e-17 0.00000000e+00 2.38874127e-18
5.75439937e+02 1.74209490e-17 1.57822562e-18 0.00000000e+00 1.58427234e-17 0.00000000e+00 1.57822570e-18
6.60693448e+02 9.08585631e-18 1.04272334e-18 0.00000000e+00 8.04313297e-18 0.00000000e+00 1.04272338e-18
7.58577575e+02 4.76711600e-18 6.88920486e-19 0.00000000e+00 4.07819551e-18 0.00000000e+00 6.88920507e-19
8.70963590e+02 2.52024028e-18 4.55165254e-19 0.00000000e+00 2.06507503e-18 0.00000000e+00 4.55165265e-19
1.00000000e+03 1.04433769e-18 0.00000000e+00 0.00000000e+00 1.04433769e-18 0.00000000e+00 0.00000000e+00
