# column 1: lambda (micron)
# column 2: total flux; lambda*F_lambda (W/m2)
# column 3: direct stellar flux; lambda*F_lambda (W/m2)
# column 4: scattered stellar flux; lambda*F_lambda (W/m2)
# column 5: total dust emission flux; lambda*F_lambda (W/m2)
# column 6: dust emission scattered flux; lambda*F_lambda (W/m2)
# column 7: transparent flux; lambda*F_lambda (W/m2)
1.00000000e-03 8.46529703e-13 8.46529401e-13 3.02154249e-19 0.00000000e+00 0.00000000e+00 8.46529401e-13
1.14815362e-03 9.99176579e-13 9.99176121e-13 4.58839983e-19 0.00000000e+00 0.00000000e+00 9.99176121e-13
1.31825674e-03 1.17934895e-12 1.17934819e-12 7.58747322e-19 0.00000000e+00 0.00000000e+00 1.17934819e-12
1.51356125e-03 1.39201017e-12 1.39200901e-12 1.16463802e-18 0.00000000e+00 0.00000000e+00 1.39200901e-12
1.73780083e-03 1.64301902e-12 1.64301696e-12 2.06225100e-18 0.00000000e+00 0.00000000e+00 1.64301696e-12
1.99526231e-03 1.93929061e-12 1.93928682e-12 3.78450974e-18 0.00000000e+00 0.00000000e+00 1.93928682e-12
2.29086765e-03 2.28898640e-12 2.28898025e-12 6.15032498e-18 0.00000000e+00 0.00000000e+00 2.28898025e-12
2.63026799e-03 2.70174317e-12 2.70173063e-12 1.25411480e-17 0.00000000e+00 0.00000000e+00 2.70173063e-12
3.01995172e-03 3.18892861e-12 3.18890841e-12 2.01966323e-17 0.00000000e+00 0.00000000e+00 3.18890841e-12
3.46736850e-03 3.76396931e-12 3.76393440e-12 3.49048208e-17 0.00000000e+00 0.00000000e+00 3.76393440e-12
3.98107171e-03 4.44270802e-12 4.44264945e-12 5.85756489e-17 0.00000000e+00 0.00000000e+00 4.44264945e-12
4.57088190e-03 5.24387463e-12 5.24375082e-12 1.23811212e-16 0.00000000e+00 0.00000000e+00 5.24375082e-12
5.24807460e-03 6.18953654e-12 6.18930730e-12 2.29239918e-16 0.00000000e+00 0.00000000e+00 6.18930730e-12
6.02559586e-03 7.30579474e-12 7.30536713e-12 4.27607732e-16 0.00000000e+00 0.00000000e+00 7.30536713e-12
6.91830971e-03 8.62342801e-12 8.62267558e-12 7.52434371e-16 0.00000000e+00 0.00000000e+00 8.62267558e-12
7.94328235e-03 1.01785765e-11 1.01775219e-11 1.05458424e-15 3.03864730e-303 5.01780266e-305 1.01775219e-11
9.12010839e-03 1.20144770e-11 1.20127391e-11 1.73788564e-15 1.49158370e-264 6.55810142e-266 1.20127391e-11
1.04712855e-02 1.34189719e-11 1.34165878e-11 2.38405212e-15 6.67358646e-231 1.75508578e-232 1.34165878e-11
1.20226443e-02 1.34204257e-11 1.34165878e-11 3.83786989e-15 1.12987906e-201 4.19892759e-203 1.34165878e-11
1.38038426e-02 1.34217466e-11 1.34165878e-11 5.15872666e-15 3.24746952e-176 1.16126993e-177 1.34165878e-11
1.58489319e-02 1.34232689e-11 1.34165878e-11 6.68107671e-15 4.61171965e-154 1.75781527e-155 1.34165878e-11
1.81970086e-02 1.34260961e-11 1.34165878e-11 9.50828923e-15 8.66385771e-135 4.09755748e-136 1.34165878e-11
2.08929613e-02 1.34308784e-11 1.34165878e-11 1.42905105e-14 4.70861305e-118 2.37268984e-119 1.34165878e-11
2.39883292e-02 1.34368657e-11 1.34165878e-11 2.02778935e-14 1.70817653e-103 9.36167065e-105 1.34165878e-11
2.75422870e-02 1.34429231e-11 1.34165878e-11 2.63352843e-14 7.82823773e-91 4.38254141e-92 1.34165878e-11
3.16227766e-02 1.34500097e-11 1.34165878e-11 3.34218718e-14 7.81113604e-80 4.48228845e-81 1.34165878e-11
3.63078055e-02 1.34536733e-11 1.34165878e-11 3.70854164e-14 2.75388514e-70 1.56814634e-71 1.34165878e-11
4.16869383e-02 1.34710786e-11 1.34165878e-11 5.44907713e-14 5.35669958e-62 3.48953143e-63 1.34165878e-11
4.78630092e-02 1.34870555e-11 1.34165878e-11 7.04676719e-14 8.17876799e-55 5.73877672e-56 1.34165878e-11
5.49540874e-02 1.35052517e-11 1.34165878e-11 8.86638927e-14 1.36640777e-48 1.00540316e-49 1.34165878e-11
6.30957344e-02 1.35246720e-11 1.34165878e-11 1.08084150e-13 4.37849299e-43 3.12146798e-44 1.34165878e-11
7.24435960e-02 1.35214702e-11 1.34165878e-11 1.04882392e-13 2.50859615e-38 1.54952988e-39 1.34165878e-11
8.31763771e-02 1.35220742e-11 1.34165878e-11 1.05486369e-13 2.59449311e-34 1.56684590e-35 1.34165878e-11
9.54992586e-02 1.35274157e-11 1.34165878e-11 1.10827901e-13 7.40252347e-31 4.70724105e-32 1.34165878e-11
1.09647820e-01 1.29244451e-11 1.28127470e-11 1.11698186e-13 6.42168185e-28 4.66795068e-29 1.28127470e-11
1.25892541e-01 1.20550073e-11 1.19575512e-11 9.74560617e-14 2.13290591e-25 1.65871482e-26 1.19575512e-11
1.44543977e-01 1.12483528e-11 1.11594361e-11 8.89167280e-14 2.96997165e-23 2.40419195e-24 1.11594361e-11
1.65958691e-01 1.05072395e-11 1.04145917e-11 9.26477747e-14 1.53465155e-21 1.40547753e-22 1.04145917e-11
1.90546072e-01 9.82472436e-12 9.71946251e-12 1.05261809e-13 3.23796899e-20 3.35140900e-21 9.71946251e-12
2.18776162e-01 9.17568480e-12 9.07073019e-12 1.04954231e-13 3.79024912e-19 3.85867358e-20 9.07073019e-12
2.51188643e-01 8.58811778e-12 8.46529796e-12 1.22815070e-13 4.74860756e-18 6.19584801e-19 8.46529796e-12
2.88403150e-01 8.01265606e-12 7.90027573e-12 1.12340044e-13 4.02866969e-17 5.37415568e-18 7.90027573e-12
3.31131121e-01 7.47509851e-12 7.37296631e-12 1.01898842e-13 2.33360856e-16 3.08101985e-17 7.37296631e-12
3.80189396e-01 6.97340469e-12 6.88085251e-12 9.15680615e-14 9.84118896e-16 1.28718957e-16 6.88085251e-12
4.36515832e-01 6.50935930e-12 6.42158520e-12 8.46361705e-14 3.13792896e-15 4.05485151e-16 6.42158520e-12
5.01187234e-01 6.08045935e-12 5.99297201e-12 7.95867020e-14 7.90064461e-15 1.00749659e-15 5.99297201e-12
5.75439937e-01 5.68314638e-12 5.59296690e-12 7.37279926e-14 1.64514892e-14 2.09906268e-15 5.59296690e-12
6.60693448e-01 5.31567857e-12 5.21966041e-12 6.67293604e-14 2.92887948e-14 3.62184620e-15 5.21966041e-12
7.58577575e-01 4.97910684e-12 4.87127053e-12 6.06447652e-14 4.71915398e-14 5.77201995e-15 4.87127053e-12
8.70963590e-01 4.67228033e-12 4.54613417e-12 5.44763867e-14 7.16697698e-14 8.65979420e-15 4.54613417e-12
1.00000000e+00 4.39537592e-12 4.24269927e-12 4.63599886e-14 1.06316659e-13 1.26626835e-14 4.24269927e-12
1.14815362e+00 4.15966283e-12 3.95951734e-12 3.83523070e-14 1.61793186e-13 1.84606758e-14 3.95951734e-12
1.31825674e+00 3.97809636e-12 3.69523659e-12 2.93474063e-14 2.53512364e-13 2.66636712e-14 3.69523659e-12
1.51356125e+00 3.86813692e-12 3.44859544e-12 2.38031997e-14 3.95738284e-13 3.69358408e-14 3.44859544e-12
1.73780083e+00 3.82452241e-12 3.21841652e-12 1.79306008e-14 5.88175291e-13 4.62197334e-14 3.21841652e-12
1.99526231e+00 3.82854594e-12 3.00360106e-12 1.30788384e-14 8.11866041e-13 5.16457194e-14 3.00360106e-12
2.29086765e+00 3.84376176e-12 2.80312361e-12 9.19723688e-15 1.03144092e-12 5.16244449e-14 2.80312361e-12
2.63026799e+00 3.83494166e-12 2.61602716e-12 6.42992639e-15 1.21248457e-12 4.79763175e-14 2.61602716e-12
3.01995172e+00 3.77709705e-12 2.44141860e-12 4.58851471e-15 1.33108993e-12 4.12017592e-14 2.44141860e-12
3.46736850e+00 3.66846290e-12 2.27846441e-12 3.07758008e-15 1.38692091e-12 3.38154304e-14 2.27846441e-12
3.98107171e+00 3.51150492e-12 2.12638671e-12 2.14719179e-15 1.38297102e-12 2.59246018e-14 2.12638671e-12
4.57088190e+00 3.31426743e-12 1.98445954e-12 1.41720516e-15 1.32839068e-12 1.85483243e-14 1.98445954e-12
5.24807460e+00 2.89610871e-12 1.64084388e-12 8.01203953e-16 1.25446363e-12 1.24333970e-14 1.64084388e-12
6.02559586e+00 2.25423475e-12 1.08409480e-12 3.59568684e-16 1.16978038e-12 7.88692014e-15 1.08409480e-12
6.70000000e+00 1.88589223e-12 7.88574724e-13 1.81017360e-16 1.09713649e-12 5.27775525e-15 7.88574724e-13
6.92422916e+00 1.78545122e-12 7.14418944e-13 1.44587658e-16 1.07088769e-12 4.59297882e-15 7.14418944e-13
7.15596261e+00 1.70384544e-12 6.47236606e-13 1.14388329e-16 1.05649445e-12 3.98767406e-15 6.47236606e-13
7.39545150e+00 1.65176110e-12 5.86371942e-13 8.83266247e-17 1.06530083e-12 3.38540485e-15 5.86371942e-13
7.64295536e+00 1.66186057e-12 5.31230854e-13 6.21457093e-17 1.13056757e-12 2.83941325e-15 5.31230854e-13
7.89874245e+00 1.77081982e-12 4.81275108e-13 3.77221857e-17 1.28950699e-12 2.27631689e-15 4.81275108e-13
8.16308998e+00 1.95291296e-12 4.36017088e-13 2.30205088e-17 1.51687285e-12 1.77518031e-15 4.36017088e-13
8.43628443e+00 2.21563078e-12 3.95015029e-13 1.24040844e-17 1.82060335e-12 1.35091529e-15 3.95015029e-13
8.71862190e+00 2.38990258e-12 3.57868711e-13 8.06581670e-18 2.03202580e-12 1.06104901e-15 3.57868711e-13
9.01040836e+00 2.54786648e-12 3.24215549e-13 5.03832302e-18 2.22364589e-12 8.02158266e-16 3.24215549e-13
9.31196005e+00 2.67742789e-12 2.93727053e-13 0.00000000e+00 2.38370084e-12 0.00000000e+00 2.93727053e-13
9.62360379e+00 2.62841175e-12 2.66105627e-13 0.00000000e+00 2.36230612e-12 0.00000000e+00 2.66105627e-13
9.94567731e+00 2.45181000e-12 2.41081657e-13 0.00000000e+00 2.21072834e-12 0.00000000e+00 2.41081657e-13
1.02785297e+01 2.24129709e-12 2.18410884e-13 0.00000000e+00 2.02288621e-12 0.00000000e+00 2.18410884e-13
1.06225216e+01 2.04878028e-12 1.97872020e-13 0.00000000e+00 1.85090826e-12 0.00000000e+00 1.97872020e-13
1.09780260e+01 1.83711057e-12 1.79264583e-13 0.00000000e+00 1.65784599e-12 0.00000000e+00 1.79264583e-13
1.13454280e+01 1.66347384e-12 1.62406948e-13 0.00000000e+00 1.50106689e-12 0.00000000e+00 1.62406948e-13
1.17251259e+01 1.50742391e-12 1.47134567e-13 0.00000000e+00 1.36028935e-12 0.00000000e+00 1.47134567e-13
1.21175312e+01 1.37254081e-12 1.33298366e-13 0.00000000e+00 1.23924244e-12 0.00000000e+00 1.33298366e-13
1.25230691e+01 1.24544729e-12 1.20763289e-13 0.00000000e+00 1.12468400e-12 0.00000000e+00 1.20763289e-13
1.29421791e+01 1.13940911e-12 1.09406983e-13 0.00000000e+00 1.03000213e-12 0.00000000e+00 1.09406983e-13
1.33753155e+01 1.04449678e-12 9.91185987e-14 0.00000000e+00 9.45378184e-13 0.00000000e+00 9.91185987e-14
1.38229477e+01 9.79639240e-13 8.97977103e-14 0.00000000e+00 8.89841530e-13 0.00000000e+00 8.97977103e-14
1.42855609e+01 9.38057237e-13 8.13533371e-14 0.00000000e+00 8.56703900e-13 0.00000000e+00 8.13533371e-14
1.47636563e+01 9.36916158e-13 7.37030537e-14 0.00000000e+00 8.63213105e-13 0.00000000e+00 7.37030537e-14
1.52577522e+01 9.44974263e-13 6.67721855e-14 0.00000000e+00 8.78202077e-13 0.00000000e+00 6.67721855e-14
1.57683840e+01 9.59890227e-13 6.04930805e-14 0.00000000e+00 8.99397146e-13 0.00000000e+00 6.04930805e-14
1.62961051e+01 9.73202005e-13 5.48044484e-14 0.00000000e+00 9.18397557e-13 0.00000000e+00 5.48044484e-14
1.68414875e+01 9.90889942e-13 4.96507622e-14 0.00000000e+00 9.41239180e-13 0.00000000e+00 4.96507622e-14
1.74051222e+01 9.94019186e-13 4.49817171e-14 0.00000000e+00 9.49037469e-13 0.00000000e+00 4.49817171e-14
1.79876201e+01 9.88224857e-13 4.07517384e-14 0.00000000e+00 9.47473118e-13 0.00000000e+00 4.07517384e-14
1.85896125e+01 9.69417534e-13 3.69195372e-14 0.00000000e+00 9.32497997e-13 0.00000000e+00 3.69195372e-14
1.92117518e+01 9.39842487e-13 3.34477076e-14 0.00000000e+00 9.06394779e-13 0.00000000e+00 3.34477076e-14
1.98547123e+01 9.03044874e-13 3.03023610e-14 0.00000000e+00 8.72742513e-13 0.00000000e+00 3.03023610e-14
2.05191907e+01 8.60824223e-13 2.74527957e-14 0.00000000e+00 8.33371428e-13 0.00000000e+00 2.74527957e-14
2.12059073e+01 8.21499639e-13 2.48711970e-14 0.00000000e+00 7.96628442e-13 0.00000000e+00 2.48711970e-14
2.19156062e+01 7.85423126e-13 2.25323660e-14 0.00000000e+00 7.62890760e-13 0.00000000e+00 2.25323660e-14
2.26490567e+01 7.51775507e-13 2.04134733e-14 0.00000000e+00 7.31362034e-13 0.00000000e+00 2.04134733e-14
2.34070535e+01 7.20777674e-13 1.84938366e-14 0.00000000e+00 7.02283837e-13 0.00000000e+00 1.84938366e-14
2.41904183e+01 6.88173040e-13 1.67547181e-14 0.00000000e+00 6.71418322e-13 0.00000000e+00 1.67547181e-14
2.50000000e+01 6.58672826e-13 1.51791424e-14 0.00000000e+00 6.43493683e-13 0.00000000e+00 1.51791424e-14
2.75422870e+01 5.75255489e-13 1.13518661e-14 0.00000000e+00 5.63903623e-13 0.00000000e+00 1.13518661e-14
3.16227766e+01 4.59749499e-13 7.50010357e-15 0.00000000e+00 4.52249395e-13 0.00000000e+00 7.50010357e-15
3.63078055e+01 3.49637685e-13 4.95526929e-15 0.00000000e+00 3.44682416e-13 0.00000000e+00 4.95526929e-15
4.16869383e+01 2.48551524e-13 3.27391395e-15 0.00000000e+00 2.45277610e-13 0.00000000e+00 3.27391395e-15
4.78630092e+01 1.65834619e-13 2.16305350e-15 0.00000000e+00 1.63671565e-13 0.00000000e+00 2.16305350e-15
5.49540874e+01 1.04989332e-13 1.42911527e-15 0.00000000e+00 1.03560217e-13 0.00000000e+00 1.42911527e-15
6.30957344e+01 6.34622128e-14 9.44207098e-16 0.00000000e+00 6.25180057e-14 0.00000000e+00 9.44207098e-16
7.24435960e+01 3.71184905e-14 6.23831443e-16 0.00000000e+00 3.64946590e-14 0.00000000e+00 6.23831443e-16
8.31763771e+01 2.11675158e-14 4.12161347e-16 0.00000000e+00 2.07553545e-14 0.00000000e+00 4.12161347e-16
9.54992586e+01 1.18549096e-14 2.72312302e-16 0.00000000e+00 1.15825973e-14 0.00000000e+00 2.72312302e-16
1.09647820e+02 6.55468798e-15 1.79914953e-16 0.00000000e+00 6.37477303e-15 0.00000000e+00 1.79914953e-16
1.25892541e+02 3.62985596e-15 1.18868631e-16 0.00000000e+00 3.51098733e-15 0.00000000e+00 1.18868631e-16
1.44543977e+02 2.00282156e-15 7.85357256e-17 0.00000000e+00 1.92428583e-15 0.00000000e+00 7.85357256e-17
1.65958691e+02 1.05641711e-15 5.18880394e-17 0.00000000e+00 1.00452907e-15 0.00000000e+00 5.18880394e-17
1.90546072e+02 5.59348161e-16 3.42820876e-17 0.00000000e+00 5.25066074e-16 0.00000000e+00 3.42820876e-17
2.18776162e+02 2.96756805e-16 2.26499507e-17 0.00000000e+00 2.74106854e-16 0.00000000e+00 2.26499507e-17
2.51188643e+02 1.57581149e-16 1.49646740e-17 0.00000000e+00 1.42616475e-16 0.00000000e+00 1.49646740e-17
2.88403150e+02 8.37581998e-17 9.88706207e-18 0.00000000e+00 7.38711377e-17 0.00000000e+00 9.88706207e-18
3.31131121e+02 4.46899242e-17 6.53231713e-18 0.00000000e+00 3.81576070e-17 0.00000000e+00 6.53231713e-18
3.80189396e+02 2.39507016e-17 4.31585913e-18 0.00000000e+00 1.96348425e-17 0.00000000e+00 4.31585913e-18
4.36515832e+02 1.29297287e-17 2.85145985e-18 0.00000000e+00 1.00782688e-17 0.00000000e+00 2.85145985e-18
5.01187234e+02 7.04268839e-18 1.88394084e-18 0.00000000e+00 5.15874755e-18 0.00000000e+00 1.88394084e-18
5.75439937e+02 3.87930680e-18 1.24470737e-18 0.00000000e+00 2.63459943e-18 0.00000000e+00 1.24470737e-18
6.60693448e+02 2.16521209e-18 8.22370004e-19 0.00000000e+00 1.34284209e-18 0.00000000e+00 8.22370004e-19
7.58577575e+02 1.22658981e-18 5.43334473e-19 0.00000000e+00 6.83255337e-19 0.00000000e+00 5.43334473e-19
8.70963590e+02 7.06013381e-19 3.58977527e-19 0.00000000e+00 3.47035855e-19 0.00000000e+00 3.58977527e-19
1.00000000e+03 1.75973338e-19 0.00000000e+00 0.00000000e+00 1.75973338e-19 0.00000000e+00 0.00000000e+00
