# column 1: lambda (micron)
# column 2: total flux; lambda*F_lambda (W/m2)
# column 3: direct stellar flux; lambda*F_lambda (W/m2)
# column 4: scattered stellar flux; lambda*F_lambda (W/m2)
# column 5: total dust emission flux; lambda*F_lambda (W/m2)
# column 6: dust emission scattered flux; lambda*F_lambda (W/m2)
# column 7: transparent flux; lambda*F_lambda (W/m2)
1.00000000e-03 5.25637692e-13 5.25636674e-13 1.01782913e-18 0.00000000e+00 0.00000000e+00 5.25636674e-13
1.14815362e-03 6.20421612e-13 6.20419813e-13 1.79899072e-18 0.00000000e+00 0.00000000e+00 6.20419813e-13
1.31825674e-03 7.32297095e-13 7.32294308e-13 2.78691719e-18 0.00000000e+00 0.00000000e+00 7.32294308e-13
1.51356125e-03 8.64346263e-13 8.64342083e-13 4.17958899e-18 0.00000000e+00 0.00000000e+00 8.64342083e-13
1.73780083e-03 1.02020880e-12 1.02020080e-12 8.00129395e-18 0.00000000e+00 0.00000000e+00 1.02020080e-12
1.99526231e-03 1.20417741e-12 1.20416405e-12 1.33559015e-17 0.00000000e+00 0.00000000e+00 1.20416405e-12
2.29086765e-03 1.42132215e-12 1.42129968e-12 2.24653011e-17 0.00000000e+00 0.00000000e+00 1.42129968e-12
2.63026799e-03 1.67763571e-12 1.67758934e-12 4.63636414e-17 0.00000000e+00 0.00000000e+00 1.67758934e-12
3.01995172e-03 1.98017009e-12 1.98009332e-12 7.67757361e-17 0.00000000e+00 0.00000000e+00 1.98009332e-12
3.46736850e-03 2.33726616e-12 2.33714500e-12 1.21154303e-16 0.00000000e+00 0.00000000e+00 2.33714500e-12
3.98107171e-03 2.75876221e-12 2.75858048e-12 1.81732062e-16 0.00000000e+00 0.00000000e+00 2.75858048e-12
4.57088190e-03 3.25644325e-12 3.25600946e-12 4.33787958e-16 0.00000000e+00 0.00000000e+00 3.25600946e-12
5.24807460e-03 3.84391591e-12 3.84313516e-12 7.80748832e-16 0.00000000e+00 0.00000000e+00 3.84313516e-12
6.02559586e-03 4.53753563e-12 4.53613173e-12 1.40390078e-15 0.00000000e+00 0.00000000e+00 4.53613173e-12
6.91830971e-03 5.35635368e-12 5.35408989e-12 2.26378665e-15 0.00000000e+00 0.00000000e+00 5.35408989e-12
7.94328235e-03 6.32430846e-12 6.31954278e-12 4.76567180e-15 0.00000000e+00 0.00000000e+00 6.31954278e-12
9.12010839e-03 7.46533575e-12 7.45908676e-12 6.24899070e-15 0.00000000e+00 0.00000000e+00 7.45908676e-12
1.04712855e-02 8.33974514e-12 8.33078048e-12 8.96466789e-15 0.00000000e+00 0.00000000e+00 8.33078048e-12
1.20226443e-02 8.34303794e-12 8.33078048e-12 1.22574598e-14 0.00000000e+00 0.00000000e+00 8.33078048e-12
1.38038426e-02 8.34900149e-12 8.33078048e-12 1.82210161e-14 4.12441993e-290 5.53252643e-291 8.33078048e-12
1.58489319e-02 8.35798850e-12 8.33078048e-12 2.72080263e-14 3.21447626e-253 4.69509603e-254 8.33078048e-12
1.81970086e-02 8.36597126e-12 8.33078048e-12 3.51907840e-14 3.96614784e-221 4.57008883e-222 8.33078048e-12
2.08929613e-02 8.37457159e-12 8.33078048e-12 4.37911104e-14 3.35050972e-193 4.51337982e-194 8.33078048e-12
2.39883292e-02 8.39495885e-12 8.33078048e-12 6.41783722e-14 6.63185191e-169 8.46965957e-170 8.33078048e-12
2.75422870e-02 8.41431657e-12 8.33078048e-12 8.35360913e-14 9.46398154e-148 1.25974816e-148 8.33078048e-12
3.16227766e-02 8.43070735e-12 8.33078048e-12 9.99268720e-14 2.32292658e-129 2.89529752e-130 8.33078048e-12
3.63078055e-02 8.43303175e-12 8.33078048e-12 1.02251273e-13 2.30685817e-113 2.93526527e-114 8.33078048e-12
4.16869383e-02 8.45550016e-12 8.33078048e-12 1.24719683e-13 1.87590784e-99 2.61050983e-100 8.33078048e-12
4.78630092e-02 8.47708389e-12 8.33078048e-12 1.46303417e-13 2.24381963e-87 3.40382164e-88 8.33078048e-12
5.49540874e-02 8.48286874e-12 8.33078048e-12 1.52088260e-13 6.87346449e-77 1.09268596e-77 8.33078048e-12
6.30957344e-02 8.48090854e-12 8.33078048e-12 1.50128063e-13 1.11353065e-67 1.85037545e-68 8.33078048e-12
7.24435960e-02 8.45977530e-12 8.33078048e-12 1.28994820e-13 1.05564213e-59 1.66440366e-60 8.33078048e-12
8.31763771e-02 8.45480790e-12 8.33078048e-12 1.24027419e-13 7.39544992e-53 1.14030291e-53 8.33078048e-12
9.54992586e-02 8.45959342e-12 8.33078048e-12 1.28812940e-13 6.25928716e-47 9.77955198e-48 8.33078048e-12
1.09647820e-01 8.09987674e-12 7.95583672e-12 1.44040018e-13 8.02584634e-42 1.35225162e-42 7.95583672e-12
1.25892541e-01 7.56641743e-12 7.42481883e-12 1.41598597e-13 2.08010298e-37 3.51800752e-38 7.42481883e-12
1.44543977e-01 7.05612266e-12 6.92924411e-12 1.26878550e-13 1.29833408e-33 2.13825539e-34 6.92924411e-12
1.65958691e-01 6.59762305e-12 6.46674687e-12 1.30876188e-13 1.86956337e-30 3.26499370e-31 6.46674687e-12
1.90546072e-01 6.16837534e-12 6.03511933e-12 1.33256015e-13 7.16432001e-28 1.44413982e-28 6.03511933e-12
2.18776162e-01 5.75271377e-12 5.63230107e-12 1.20412703e-13 1.04045205e-25 2.16197449e-26 5.63230107e-12
2.51188643e-01 5.39776017e-12 5.25636919e-12 1.41390976e-13 1.29144466e-23 3.15348551e-24 5.25636919e-12
2.88403150e-01 5.03981290e-12 4.90552916e-12 1.34283741e-13 8.12825454e-22 1.98458641e-22 4.90552916e-12
3.31131121e-01 4.69973061e-12 4.57810618e-12 1.21624401e-13 2.79111080e-20 6.69512920e-21 4.57810618e-12
3.80189396e-01 4.38401406e-12 4.27253728e-12 1.11476205e-13 5.72980802e-19 1.35142645e-19 4.27253728e-12
4.36515832e-01 4.09032230e-12 3.98736380e-12 1.02950946e-13 7.56290913e-18 1.77923634e-18 3.98736380e-12
5.01187234e-01 3.81412540e-12 3.72122441e-12 9.28332032e-14 6.77830269e-17 1.58609044e-17 3.72122441e-12
5.75439937e-01 3.55774253e-12 3.47284869e-12 8.44592222e-14 4.34619531e-16 9.99220570e-17 3.47284869e-12
6.60693448e-01 3.32007937e-12 3.24105097e-12 7.69426134e-14 2.08578443e-15 4.68044524e-16 3.24105097e-12
7.58577575e-01 3.10160137e-12 3.02472476e-12 6.90016150e-14 7.87499278e-15 1.70999480e-15 3.02472476e-12
8.70963590e-01 2.90801628e-12 2.82283739e-12 6.08738226e-14 2.43050680e-14 5.01798562e-15 2.82283739e-12
1.00000000e+00 2.75079298e-12 2.63442513e-12 5.38116515e-14 6.25561946e-14 1.20176331e-14 2.63442513e-12
1.14815362e+00 2.64197921e-12 2.45858859e-12 4.35202790e-14 1.39870339e-13 2.44822255e-14 2.45858859e-12
1.31825674e+00 2.60924656e-12 2.29448837e-12 3.59282118e-14 2.78829974e-13 4.21776323e-14 2.29448837e-12
1.51356125e+00 2.66756887e-12 2.14134114e-12 2.84586517e-14 4.97769081e-13 6.47302582e-14 2.14134114e-12
1.73780083e+00 2.80443206e-12 1.99841583e-12 2.21247955e-14 7.83891438e-13 8.39807873e-14 1.99841583e-12
1.99526231e+00 2.98685773e-12 1.86503017e-12 1.64757205e-14 1.10535184e-12 9.44622553e-14 1.86503017e-12
2.29086765e+00 3.16197986e-12 1.74054743e-12 1.15180001e-14 1.40991444e-12 9.15880617e-14 1.74054743e-12
2.63026799e+00 3.28068551e-12 1.62437337e-12 8.01519129e-15 1.64829695e-12 8.10036421e-14 1.62437337e-12
3.01995172e+00 3.31896124e-12 1.51595343e-12 5.51507625e-15 1.79749273e-12 6.56761365e-14 1.51595343e-12
3.46736850e+00 3.25871456e-12 1.41477006e-12 3.78639417e-15 1.84015810e-12 4.99405001e-14 1.41477006e-12
3.98107171e+00 3.11703642e-12 1.32034025e-12 2.60142983e-15 1.79409474e-12 3.57729228e-14 1.32034025e-12
4.57088190e+00 2.90935915e-12 1.23221321e-12 1.77927165e-15 1.67536666e-12 2.37179517e-14 1.23221321e-12
5.24807460e+00 2.54925657e-12 1.01885146e-12 9.88058099e-16 1.52941705e-12 1.50552089e-14 1.01885146e-12
6.02559586e+00 2.05631881e-12 6.73148485e-13 4.20134244e-16 1.38275019e-12 9.03399835e-15 6.73148485e-13
6.70000000e+00 1.75430291e-12 4.89650796e-13 2.19115637e-16 1.26443300e-12 5.80338787e-15 4.89650796e-13
6.92422916e+00 1.67438735e-12 4.43605145e-13 1.77949555e-16 1.23060426e-12 5.05753715e-15 4.43605145e-13
7.15596261e+00 1.60795843e-12 4.01889522e-13 1.40235636e-16 1.20592867e-12 4.32820847e-15 4.01889522e-13
7.39545150e+00 1.57362213e-12 3.64096743e-13 1.06033668e-16 1.20941935e-12 3.68196701e-15 3.64096743e-13
7.64295536e+00 1.62531696e-12 3.29857910e-13 7.56636952e-17 1.29538339e-12 3.09155060e-15 3.29857910e-13
7.89874245e+00 1.79173321e-12 2.98838820e-13 4.58888237e-17 1.49284850e-12 2.49172298e-15 2.98838820e-13
8.16308998e+00 2.03835605e-12 2.70736695e-13 2.63399185e-17 1.76759302e-12 1.97228900e-15 2.70736695e-13
8.43628443e+00 2.36720827e-12 2.45277229e-13 1.50219351e-17 2.12191602e-12 1.51348923e-15 2.45277229e-13
8.71862190e+00 2.58334689e-12 2.22211915e-13 9.46737465e-18 2.36112550e-12 1.18175867e-15 2.22211915e-13
9.01040836e+00 2.79672502e-12 2.01315610e-13 6.23384810e-18 2.59540317e-12 9.11295898e-16 2.01315610e-13
9.31196005e+00 2.93473944e-12 1.82384346e-13 0.00000000e+00 2.75235509e-12 0.00000000e+00 1.82384346e-13
9.62360379e+00 2.87365199e-12 1.65233336e-13 0.00000000e+00 2.70841865e-12 0.00000000e+00 1.65233336e-13
9.94567731e+00 2.66990849e-12 1.49695167e-13 0.00000000e+00 2.52021332e-12 0.00000000e+00 1.49695167e-13
1.02785297e+01 2.44391556e-12 1.35618173e-13 0.00000000e+00 2.30829738e-12 0.00000000e+00 1.35618173e-13
1.06225216e+01 2.22506705e-12 1.22864947e-13 0.00000000e+00 2.10220211e-12 0.00000000e+00 1.22864947e-13
1.09780260e+01 1.99320515e-12 1.11311006e-13 0.00000000e+00 1.88189415e-12 0.00000000e+00 1.11311006e-13
1.13454280e+01 1.79050678e-12 1.00843571e-13 0.00000000e+00 1.68966320e-12 0.00000000e+00 1.00843571e-13
1.17251259e+01 1.61709050e-12 9.13604705e-14 0.00000000e+00 1.52573003e-12 0.00000000e+00 9.13604705e-14
1.21175312e+01 1.46533603e-12 8.27691389e-14 0.00000000e+00 1.38256689e-12 0.00000000e+00 8.27691389e-14
1.25230691e+01 1.32651131e-12 7.49857166e-14 0.00000000e+00 1.25152560e-12 0.00000000e+00 7.49857166e-14
1.29421791e+01 1.20719076e-12 6.79342298e-14 0.00000000e+00 1.13925653e-12 0.00000000e+00 6.79342298e-14
1.33753155e+01 1.11045637e-12 6.15458488e-14 0.00000000e+00 1.04891052e-12 0.00000000e+00 6.15458488e-14
1.38229477e+01 1.04339770e-12 5.57582167e-14 0.00000000e+00 9.87639482e-13 0.00000000e+00 5.57582167e-14
1.42855609e+01 1.00504599e-12 5.05148403e-14 0.00000000e+00 9.54531147e-13 0.00000000e+00 5.05148403e-14
1.47636563e+01 1.01065724e-12 4.57645392e-14 0.00000000e+00 9.64892700e-13 0.00000000e+00 4.57645392e-14
1.52577522e+01 1.02993032e-12 4.14609457e-14 0.00000000e+00 9.88469378e-13 0.00000000e+00 4.14609457e-14
1.57683840e+01 1.05283230e-12 3.75620523e-14 0.00000000e+00 1.01527024e-12 0.00000000e+00 3.75620523e-14
1.62961051e+01 1.08330625e-12 3.40298020e-14 0.00000000e+00 1.04927645e-12 0.00000000e+00 3.40298020e-14
1.68414875e+01 1.10781359e-12 3.08297166e-14 0.00000000e+00 1.07698387e-12 0.00000000e+00 3.08297166e-14
1.74051222e+01 1.12289756e-12 2.79305599e-14 0.00000000e+00 1.09496700e-12 0.00000000e+00 2.79305599e-14
1.79876201e+01 1.12843500e-12 2.53040334e-14 0.00000000e+00 1.10313097e-12 0.00000000e+00 2.53040334e-14
1.85896125e+01 1.11531175e-12 2.29244994e-14 0.00000000e+00 1.09238725e-12 0.00000000e+00 2.29244994e-14
1.92117518e+01 1.09657523e-12 2.07687314e-14 0.00000000e+00 1.07580650e-12 0.00000000e+00 2.07687314e-14
1.98547123e+01 1.06513770e-12 1.88156870e-14 0.00000000e+00 1.04632202e-12 0.00000000e+00 1.88156870e-14
2.05191907e+01 1.03649760e-12 1.70463024e-14 0.00000000e+00 1.01945129e-12 0.00000000e+00 1.70463024e-14
2.12059073e+01 1.00078829e-12 1.54433068e-14 0.00000000e+00 9.85344978e-13 0.00000000e+00 1.54433068e-14
2.19156062e+01 9.75640139e-13 1.39910532e-14 0.00000000e+00 9.61649085e-13 0.00000000e+00 1.39910532e-14
2.26490567e+01 9.51701867e-13 1.26753663e-14 0.00000000e+00 9.39026501e-13 0.00000000e+00 1.26753663e-14
2.34070535e+01 9.28943143e-13 1.14834036e-14 0.00000000e+00 9.17459739e-13 0.00000000e+00 1.14834036e-14
2.41904183e+01 9.08618687e-13 1.04035303e-14 0.00000000e+00 8.98215157e-13 0.00000000e+00 1.04035303e-14
2.50000000e+01 8.88526466e-13 9.42520591e-15 0.00000000e+00 8.79101260e-13 0.00000000e+00 9.42520591e-15
2.75422870e+01 8.26913333e-13 7.04872996e-15 0.00000000e+00 8.19864603e-13 0.00000000e+00 7.04872996e-15
3.16227766e+01 7.31683222e-13 4.65704970e-15 0.00000000e+00 7.27026172e-13 0.00000000e+00 4.65704970e-15
3.63078055e+01 6.16984724e-13 3.07688223e-15 0.00000000e+00 6.13907842e-13 0.00000000e+00 3.07688223e-15
4.16869383e+01 4.90341340e-13 2.03287593e-15 0.00000000e+00 4.88308464e-13 0.00000000e+00 2.03287593e-15
4.78630092e+01 3.63860447e-13 1.34310781e-15 0.00000000e+00 3.62517339e-13 0.00000000e+00 1.34310781e-15
5.49540874e+01 2.54613409e-13 8.87382527e-16 0.00000000e+00 2.53726027e-13 0.00000000e+00 8.87382527e-16
6.30957344e+01 1.69495991e-13 5.86287821e-16 0.00000000e+00 1.68909703e-13 0.00000000e+00 5.86287821e-16
7.24435960e+01 1.08083500e-13 3.87356522e-16 0.00000000e+00 1.07696144e-13 0.00000000e+00 3.87356522e-16
8.31763771e+01 6.66282434e-14 2.55923916e-16 0.00000000e+00 6.63723194e-14 0.00000000e+00 2.55923916e-16
9.54992586e+01 3.99556775e-14 1.69087255e-16 0.00000000e+00 3.97865902e-14 0.00000000e+00 1.69087255e-16
1.09647820e+02 2.34205748e-14 1.11714841e-16 0.00000000e+00 2.33088599e-14 0.00000000e+00 1.11714841e-16
1.25892541e+02 1.36292451e-14 7.38092637e-17 0.00000000e+00 1.35554358e-14 0.00000000e+00 7.38092637e-17
1.44543977e+02 7.83109067e-15 4.87652969e-17 0.00000000e+00 7.78232537e-15 0.00000000e+00 4.87652969e-17
1.65958691e+02 4.26838056e-15 3.22189122e-17 0.00000000e+00 4.23616165e-15 0.00000000e+00 3.22189122e-17
1.90546072e+02 2.31598850e-15 2.12868242e-17 0.00000000e+00 2.29470167e-15 0.00000000e+00 2.12868242e-17
2.18776162e+02 1.24925038e-15 1.40640653e-17 0.00000000e+00 1.23518631e-15 0.00000000e+00 1.40640653e-17
2.51188643e+02 6.69046966e-16 9.29203577e-18 0.00000000e+00 6.59754930e-16 0.00000000e+00 9.29203577e-18
2.88403150e+02 3.55637494e-16 6.13918715e-18 0.00000000e+00 3.49498306e-16 0.00000000e+00 6.13918715e-18
3.31131121e+02 1.88111168e-16 4.05612073e-18 0.00000000e+00 1.84055047e-16 0.00000000e+00 4.05612073e-18
3.80189396e+02 9.89764811e-17 2.67985239e-18 0.00000000e+00 9.62966287e-17 0.00000000e+00 2.67985239e-18
4.36515832e+02 5.19091916e-17 1.77056092e-18 0.00000000e+00 5.01386307e-17 0.00000000e+00 1.77056092e-18
5.01187234e+02 2.71518765e-17 1.16979800e-18 0.00000000e+00 2.59820785e-17 0.00000000e+00 1.16979800e-18
5.75439937e+02 1.41833614e-17 7.72877871e-19 0.00000000e+00 1.34104835e-17 0.00000000e+00 7.72877871e-19
6.60693448e+02 7.40861228e-18 5.10635346e-19 0.00000000e+00 6.89797693e-18 0.00000000e+00 5.10635346e-19
7.58577575e+02 3.87489747e-18 3.37373427e-19 0.00000000e+00 3.53752404e-18 0.00000000e+00 3.37373427e-19
8.70963590e+02 2.03194531e-18 2.22900413e-19 0.00000000e+00 1.80904490e-18 0.00000000e+00 2.22900413e-19
1.00000000e+03 9.22735525e-19 0.00000000e+00 0.00000000e+00 9.22735525e-19 0.00000000e+00 0.00000000e+00
