# column 1: lambda (micron)
# column 2: total flux; lambda*F_lambda (W/m2)
# column 3: direct stellar flux; lambda*F_lambda (W/m2)
# column 4: scattered stellar flux; lambda*F_lambda (W/m2)
# column 5: total dust emission flux; lambda*F_lambda (W/m2)
# column 6: dust emission scattered flux; lambda*F_lambda (W/m2)
# column 7: transparent flux; lambda*F_lambda (W/m2)
1.00000000e-03 1.07331461e-12 1.07329097e-12 2.36437094e-17 0.00000000e+00 0.00000000e+00 1.07335627e-12
1.14815362e-03 1.26683852e-12 1.26680273e-12 3.57972505e-17 0.00000000e+00 0.00000000e+00 1.26690456e-12
1.31825674e-03 1.49525435e-12 1.49520078e-12 5.35743600e-17 0.00000000e+00 0.00000000e+00 1.49535359e-12
1.51356125e-03 1.76486585e-12 1.76478406e-12 8.17897965e-17 0.00000000e+00 0.00000000e+00 1.76499670e-12
1.73780083e-03 2.08315546e-12 2.08300844e-12 1.47016771e-16 0.00000000e+00 0.00000000e+00 2.08326203e-12
1.99526231e-03 2.45877827e-12 2.45852034e-12 2.57934870e-16 0.00000000e+00 0.00000000e+00 2.45891716e-12
2.29086765e-03 2.90221497e-12 2.90181399e-12 4.00980196e-16 0.00000000e+00 0.00000000e+00 2.90231066e-12
2.63026799e-03 3.42577285e-12 3.42495466e-12 8.18191177e-16 0.00000000e+00 0.00000000e+00 3.42565717e-12
3.01995172e-03 4.04375989e-12 4.04234834e-12 1.41155106e-15 0.00000000e+00 0.00000000e+00 4.04337385e-12
3.46736850e-03 4.77337420e-12 4.77105093e-12 2.32327114e-15 0.00000000e+00 0.00000000e+00 4.77247759e-12
3.98107171e-03 5.63501757e-12 5.63112631e-12 3.89125627e-15 0.00000000e+00 0.00000000e+00 5.63305378e-12
4.57088190e-03 6.66048612e-12 6.64729198e-12 1.31941432e-14 0.00000000e+00 0.00000000e+00 6.64880962e-12
5.24807460e-03 7.86007197e-12 7.84543935e-12 1.46326205e-14 0.00000000e+00 0.00000000e+00 7.84772720e-12
6.02559586e-03 9.33197959e-12 9.25957846e-12 7.24011288e-14 0.00000000e+00 0.00000000e+00 9.26283435e-12
6.91830971e-03 1.09714668e-11 1.09286793e-11 4.27875281e-14 0.00000000e+00 0.00000000e+00 1.09331145e-11
7.94328235e-03 1.29848536e-11 1.28987404e-11 8.61132711e-14 0.00000000e+00 0.00000000e+00 1.29045807e-11
9.12010839e-03 1.53521644e-11 1.52238934e-11 1.28271001e-13 0.00000000e+00 0.00000000e+00 1.52315429e-11
1.04712855e-02 1.71803374e-11 1.70024629e-11 1.77874560e-13 0.00000000e+00 0.00000000e+00 1.70115517e-11
1.20226443e-02 1.72759271e-11 1.70019266e-11 2.74000515e-13 8.64834793e-311 8.71070158e-312 1.70115517e-11
1.38038426e-02 1.74231862e-11 1.70012906e-11 4.21895625e-13 1.38719533e-271 1.65530217e-272 1.70115517e-11
1.58489319e-02 1.75465155e-11 1.70005090e-11 5.46006472e-13 1.85553672e-237 2.66656362e-238 1.70115517e-11
1.81970086e-02 1.77309023e-11 1.69997881e-11 7.31114179e-13 9.08822469e-208 1.34948390e-208 1.70115517e-11
2.08929613e-02 1.79482561e-11 1.69991890e-11 9.49067114e-13 5.89706010e-182 9.28285429e-183 1.70115517e-11
2.39883292e-02 1.81905681e-11 1.69984127e-11 1.19215541e-12 1.72964681e-159 2.99177596e-160 1.70115517e-11
2.75422870e-02 1.83890909e-11 1.69975098e-11 1.39158109e-12 5.85301807e-140 8.77124816e-141 1.70115517e-11
3.16227766e-02 1.85391644e-11 1.69966248e-11 1.54253967e-12 5.68470192e-123 8.30349730e-124 1.70115517e-11
3.63078055e-02 1.84972926e-11 1.69959307e-11 1.50136198e-12 3.26492504e-108 4.27600572e-109 1.70115517e-11
4.16869383e-02 1.85783557e-11 1.69953303e-11 1.58302539e-12 2.21055725e-95 2.91804326e-96 1.70115517e-11
4.78630092e-02 1.84735416e-11 1.69936756e-11 1.47986603e-12 2.97166097e-84 3.73563153e-85 1.70115517e-11
5.49540874e-02 1.82353210e-11 1.69913747e-11 1.24394628e-12 1.32135144e-74 1.47729136e-75 1.70115517e-11
6.30957344e-02 1.78877436e-11 1.69856065e-11 9.02137071e-13 3.80431653e-66 3.78366930e-67 1.70115517e-11
7.24435960e-02 1.75826009e-11 1.69787766e-11 6.03824301e-13 7.94406522e-59 7.09310554e-60 1.70115517e-11
8.31763771e-02 1.75427809e-11 1.69793842e-11 5.63396680e-13 1.61325464e-52 1.37843118e-53 1.70115517e-11
9.54992586e-02 1.75583505e-11 1.69811666e-11 5.77183978e-13 4.96076887e-47 4.73717329e-48 1.70115517e-11
1.09647820e-01 1.69107198e-11 1.62218021e-11 6.88917622e-13 3.20379346e-42 4.15359192e-43 1.62459122e-11
1.25892541e-01 1.59842767e-11 1.51430434e-11 8.41233377e-13 5.83964050e-38 1.05733058e-38 1.51615674e-11
1.44543977e-01 1.49456764e-11 1.41352676e-11 8.10408802e-13 3.38330865e-34 7.16346448e-35 1.41495980e-11
1.65958691e-01 1.40049733e-11 1.31934763e-11 8.11497023e-13 5.17680323e-31 1.26167558e-31 1.32051732e-11
1.90546072e-01 1.30237217e-11 1.23121391e-11 7.11582591e-13 2.04323504e-28 5.57923144e-29 1.23237846e-11
2.18776162e-01 1.20137791e-11 1.14884773e-11 5.25301812e-13 2.91475336e-26 8.14553011e-27 1.15012250e-11
2.51188643e-01 1.13068122e-11 1.07240522e-11 5.82759939e-13 4.76879285e-24 1.55333991e-24 1.07335677e-11
2.88403150e-01 1.06038318e-11 1.00097748e-11 5.94056938e-13 3.91620656e-22 1.33255200e-22 1.00171482e-11
3.31131121e-01 9.92187849e-12 9.34254785e-12 5.79330617e-13 1.73477914e-20 6.14474286e-21 9.34854667e-12
3.80189396e-01 9.25536002e-12 8.71965492e-12 5.35704640e-13 4.56849218e-19 1.63741594e-19 8.72457139e-12
4.36515832e-01 8.62458145e-12 8.13825035e-12 4.86323283e-13 7.81311527e-18 2.81468758e-18 8.14224377e-12
5.01187234e-01 8.02889349e-12 7.59558423e-12 4.33219980e-13 8.92763699e-17 3.15790942e-17 7.59878402e-12
5.75439937e-01 7.46376089e-12 7.08906043e-12 3.73985674e-13 7.14782161e-16 2.44884933e-16 7.09159786e-12
6.60693448e-01 6.95021158e-12 6.61626942e-12 3.29748451e-13 4.19370541e-15 1.37245669e-15 6.61826421e-12
7.58577575e-01 6.47663872e-12 6.17497440e-12 2.82616083e-13 1.90482294e-14 5.85538813e-15 6.17652353e-12
8.70963590e-01 6.06447553e-12 5.76309076e-12 2.33040942e-13 6.83438284e-14 1.94150023e-14 5.76426715e-12
1.00000000e+00 5.77751032e-12 5.37864821e-12 1.94959826e-13 2.03902293e-13 5.26685516e-14 5.37952711e-12
1.14815362e+00 5.69189643e-12 5.01982183e-12 1.55792455e-13 5.16282142e-13 1.16962193e-13 5.02046681e-12
1.31825674e+00 5.96374602e-12 4.68490715e-12 1.24079596e-13 1.15475928e-12 2.24995986e-13 4.68537225e-12
1.51356125e+00 6.74933382e-12 4.37231181e-12 9.98082202e-14 2.27721379e-12 3.74369523e-13 4.37264380e-12
1.73780083e+00 8.10987900e-12 4.08055550e-12 8.02770444e-14 3.94904645e-12 5.43170386e-13 4.08078863e-12
1.99526231e+00 9.95684301e-12 3.80825240e-12 6.34580909e-14 6.08513252e-12 6.75121303e-13 3.80841354e-12
2.29086765e+00 1.19897904e-11 3.55410729e-12 5.01100063e-14 8.38557311e-12 7.36186328e-13 3.55421832e-12
2.63026799e+00 1.39676156e-11 3.31691231e-12 3.82054127e-14 1.06124978e-11 7.34218349e-13 3.31698953e-12
3.01995172e+00 1.55776208e-11 3.09554034e-12 2.88702861e-14 1.24532102e-11 6.74239678e-13 3.09559474e-12
3.46736850e+00 1.67018297e-11 2.88893816e-12 2.13840564e-14 1.37915075e-11 5.85156002e-13 2.88897711e-12
3.98107171e+00 1.74283598e-11 2.69612207e-12 1.54168295e-14 1.47168209e-11 4.76232783e-13 2.69615031e-12
4.57088190e+00 1.77337043e-11 2.51617312e-12 1.06249232e-14 1.52069063e-11 3.59467004e-13 2.51619387e-12
5.24807460e+00 1.74736642e-11 2.08049288e-12 6.21515303e-15 1.53869561e-11 2.52407128e-13 2.08050667e-12
6.02559586e+00 1.66229462e-11 1.37456956e-12 2.78540080e-15 1.52455912e-11 1.68234180e-13 1.37457712e-12
6.70000000e+00 1.60776413e-11 9.99867811e-13 1.44256122e-15 1.50763309e-11 1.17066051e-13 9.99872685e-13
6.92422916e+00 1.59063261e-11 9.05842663e-13 1.17074818e-15 1.49993127e-11 1.03737351e-13 9.05846924e-13
7.15596261e+00 1.58103350e-11 8.20659339e-13 9.26012737e-16 1.49887497e-11 9.06442772e-14 8.20663132e-13
7.39545150e+00 1.58330139e-11 7.43486313e-13 7.05717100e-16 1.50888219e-11 7.71415781e-14 7.43489831e-13
7.64295536e+00 1.61620700e-11 6.73570101e-13 4.85861097e-16 1.54880141e-11 6.30179350e-14 6.73573732e-13
7.89874245e+00 1.68876791e-11 6.10228135e-13 2.86776992e-16 1.62771642e-11 4.71467945e-14 6.10232385e-13
8.16308998e+00 1.77152989e-11 5.52842315e-13 1.59615293e-16 1.71622970e-11 3.37625997e-14 5.52847515e-13
8.43628443e+00 1.87216149e-11 5.00852443e-13 8.27102408e-17 1.82206797e-11 2.31931101e-14 5.00858987e-13
8.71862190e+00 1.92040766e-11 4.53752058e-13 4.86209657e-17 1.87502759e-11 1.74778692e-14 4.53759343e-13
9.01040836e+00 1.94305760e-11 4.11080847e-13 2.78879072e-17 1.90194673e-11 1.29034109e-14 4.11088843e-13
9.31196005e+00 1.95811049e-11 3.72422578e-13 0.00000000e+00 1.92086824e-11 0.00000000e+00 3.72430980e-13
9.62360379e+00 1.96035478e-11 3.37400603e-13 0.00000000e+00 1.92661472e-11 0.00000000e+00 3.37408415e-13
9.94567731e+00 1.89514633e-11 3.05672651e-13 0.00000000e+00 1.86457907e-11 0.00000000e+00 3.05679292e-13
1.02785297e+01 1.86686938e-11 2.76928462e-13 0.00000000e+00 1.83917653e-11 0.00000000e+00 2.76933904e-13
1.06225216e+01 1.82068267e-11 2.50887255e-13 0.00000000e+00 1.79559394e-11 0.00000000e+00 2.50891667e-13
1.09780260e+01 1.80141475e-11 2.27294935e-13 0.00000000e+00 1.77868526e-11 0.00000000e+00 2.27298384e-13
1.13454280e+01 1.79089285e-11 2.05921052e-13 0.00000000e+00 1.77030075e-11 0.00000000e+00 2.05923759e-13
1.17251259e+01 1.78242422e-11 1.86557018e-13 0.00000000e+00 1.76376852e-11 0.00000000e+00 1.86559155e-13
1.21175312e+01 1.76232177e-11 1.69013876e-13 0.00000000e+00 1.74542038e-11 0.00000000e+00 1.69015555e-13
1.25230691e+01 1.75348256e-11 1.53120400e-13 0.00000000e+00 1.73817052e-11 0.00000000e+00 1.53121715e-13
1.29421791e+01 1.74367847e-11 1.38721458e-13 0.00000000e+00 1.72980632e-11 0.00000000e+00 1.38722496e-13
1.33753155e+01 1.73102498e-11 1.25676522e-13 0.00000000e+00 1.71845733e-11 0.00000000e+00 1.25677347e-13
1.38229477e+01 1.73050771e-11 1.13858248e-13 0.00000000e+00 1.71912189e-11 0.00000000e+00 1.13858934e-13
1.42855609e+01 1.75482324e-11 1.03151302e-13 0.00000000e+00 1.74450811e-11 0.00000000e+00 1.03151898e-13
1.47636563e+01 1.78946213e-11 9.34511616e-14 0.00000000e+00 1.78011701e-11 0.00000000e+00 9.34517274e-14
1.52577522e+01 1.83727638e-11 8.46631921e-14 0.00000000e+00 1.82881006e-11 0.00000000e+00 8.46637387e-14
1.57683840e+01 1.88554909e-11 7.67016177e-14 0.00000000e+00 1.87787893e-11 0.00000000e+00 7.67021526e-14
1.62961051e+01 1.94442188e-11 6.94887331e-14 0.00000000e+00 1.93747300e-11 0.00000000e+00 6.94892560e-14
1.68414875e+01 2.00587561e-11 6.29541339e-14 0.00000000e+00 1.99958020e-11 0.00000000e+00 6.29546439e-14
1.74051222e+01 2.04647143e-11 5.70340476e-14 0.00000000e+00 2.04076803e-11 0.00000000e+00 5.70345319e-14
1.79876201e+01 2.08298962e-11 5.16706816e-14 0.00000000e+00 2.07782255e-11 0.00000000e+00 5.16711337e-14
1.85896125e+01 2.10776076e-11 4.68116883e-14 0.00000000e+00 2.10307959e-11 0.00000000e+00 4.68120974e-14
1.92117518e+01 2.12849783e-11 4.24096345e-14 0.00000000e+00 2.12425686e-11 0.00000000e+00 4.24099939e-14
1.98547123e+01 2.12724951e-11 3.84215447e-14 0.00000000e+00 2.12340736e-11 0.00000000e+00 3.84218542e-14
2.05191907e+01 2.11443141e-11 3.48084862e-14 0.00000000e+00 2.11095056e-11 0.00000000e+00 3.48087501e-14
2.12059073e+01 2.11759551e-11 3.15351892e-14 0.00000000e+00 2.11444199e-11 0.00000000e+00 3.15354141e-14
2.19156062e+01 2.09345386e-11 2.85697026e-14 0.00000000e+00 2.09059689e-11 0.00000000e+00 2.85698952e-14
2.26490567e+01 2.07194061e-11 2.58830818e-14 0.00000000e+00 2.06935230e-11 0.00000000e+00 2.58832470e-14
2.34070535e+01 2.03741405e-11 2.34491031e-14 0.00000000e+00 2.03506914e-11 0.00000000e+00 2.34492452e-14
2.41904183e+01 2.01606931e-11 2.12440089e-14 0.00000000e+00 2.01394491e-11 0.00000000e+00 2.12441313e-14
2.50000000e+01 1.96185599e-11 1.92462756e-14 0.00000000e+00 1.95993136e-11 0.00000000e+00 1.92463813e-14
2.75422870e+01 1.82523921e-11 1.43935206e-14 0.00000000e+00 1.82379985e-11 0.00000000e+00 1.43935895e-14
3.16227766e+01 1.55099959e-11 9.50971239e-15 0.00000000e+00 1.55004862e-11 0.00000000e+00 9.50975027e-15
3.63078055e+01 1.23382602e-11 6.28300900e-15 0.00000000e+00 1.23319772e-11 0.00000000e+00 6.28302969e-15
4.16869383e+01 9.11711784e-12 4.15114554e-15 0.00000000e+00 9.11296670e-12 0.00000000e+00 4.15115655e-15
4.78630092e+01 6.27489761e-12 2.74263626e-15 0.00000000e+00 6.27215498e-12 0.00000000e+00 2.74264194e-15
5.49540874e+01 4.04947008e-12 1.81204269e-15 0.00000000e+00 4.04765804e-12 0.00000000e+00 1.81204556e-15
6.30957344e+01 2.48893303e-12 1.19720520e-15 0.00000000e+00 2.48773583e-12 0.00000000e+00 1.19720663e-15
7.24435960e+01 1.46648458e-12 7.90985869e-16 0.00000000e+00 1.46569359e-12 0.00000000e+00 7.90986575e-16
8.31763771e+01 8.37382100e-13 5.22599299e-16 0.00000000e+00 8.36859501e-13 0.00000000e+00 5.22599647e-16
9.54992586e+01 4.67829806e-13 3.45277990e-16 0.00000000e+00 4.67484528e-13 0.00000000e+00 3.45278163e-16
1.09647820e+02 2.57157571e-13 2.28122934e-16 0.00000000e+00 2.56929449e-13 0.00000000e+00 2.28123020e-16
1.25892541e+02 1.41132462e-13 1.50719341e-16 0.00000000e+00 1.40981742e-13 0.00000000e+00 1.50719385e-16
1.44543977e+02 7.70410498e-14 9.95792880e-17 0.00000000e+00 7.69414705e-14 0.00000000e+00 9.95793099e-17
1.65958691e+02 4.01129690e-14 6.57913869e-17 0.00000000e+00 4.00471776e-14 0.00000000e+00 6.57913976e-17
1.90546072e+02 2.09046906e-14 4.34679400e-17 0.00000000e+00 2.08612227e-14 0.00000000e+00 4.34679453e-17
2.18776162e+02 1.08770570e-14 2.87189840e-17 0.00000000e+00 1.08483380e-14 0.00000000e+00 2.87189867e-17
2.51188643e+02 5.64341517e-15 1.89744450e-17 0.00000000e+00 5.62444072e-15 0.00000000e+00 1.89744463e-17
2.88403150e+02 2.91591713e-15 1.25362917e-17 0.00000000e+00 2.90338084e-15 0.00000000e+00 1.25362924e-17
3.31131121e+02 1.50333656e-15 8.28264590e-18 0.00000000e+00 1.49505392e-15 0.00000000e+00 8.28264623e-18
3.80189396e+02 7.72598395e-16 5.47228993e-18 0.00000000e+00 7.67126105e-16 0.00000000e+00 5.47229010e-18
4.36515832e+02 3.96357141e-16 3.61550613e-18 0.00000000e+00 3.92741635e-16 0.00000000e+00 3.61550621e-18
5.01187234e+02 2.02954063e-16 2.38874122e-18 0.00000000e+00 2.00565322e-16 0.00000000e+00 2.38874127e-18
5.75439937e+02 1.03794155e-16 1.57822568e-18 0.00000000e+00 1.02215929e-16 0.00000000e+00 1.57822570e-18
6.60693448e+02 5.30450625e-17 1.04272337e-18 0.00000000e+00 5.20023391e-17 0.00000000e+00 1.04272338e-18
7.58577575e+02 2.71050106e-17 6.88920501e-19 0.00000000e+00 2.64160901e-17 0.00000000e+00 6.88920507e-19
8.70963590e+02 1.38527500e-17 4.55165262e-19 0.00000000e+00 1.33975847e-17 0.00000000e+00 4.55165265e-19
1.00000000e+03 6.78488170e-18 0.00000000e+00 0.00000000e+00 6.78488170e-18 0.00000000e+00 0.00000000e+00
