# column 1: lambda (micron)
# column 2: total flux; lambda*F_lambda (W/m2)
# column 3: direct stellar flux; lambda*F_lambda (W/m2)
# column 4: scattered stellar flux; lambda*F_lambda (W/m2)
# column 5: total dust emission flux; lambda*F_lambda (W/m2)
# column 6: dust emission scattered flux; lambda*F_lambda (W/m2)
# column 7: transparent flux; lambda*F_lambda (W/m2)
1.00000000e-03 6.93995166e-13 6.93993746e-13 1.42058063e-18 0.00000000e+00 0.00000000e+00 6.93993746e-13
1.14815362e-03 8.19137327e-13 8.19135139e-13 2.18761838e-18 0.00000000e+00 0.00000000e+00 8.19135139e-13
1.31825674e-03 9.66845534e-13 9.66842108e-13 3.42629746e-18 0.00000000e+00 0.00000000e+00 9.66842108e-13
1.51356125e-03 1.14118915e-12 1.14118369e-12 5.46210197e-18 0.00000000e+00 0.00000000e+00 1.14118369e-12
1.73780083e-03 1.34697223e-12 1.34696266e-12 9.56690009e-18 0.00000000e+00 0.00000000e+00 1.34696266e-12
1.99526231e-03 1.58986618e-12 1.58984782e-12 1.83591836e-17 0.00000000e+00 0.00000000e+00 1.58984782e-12
2.29086765e-03 1.87655783e-12 1.87653019e-12 2.76375781e-17 0.00000000e+00 0.00000000e+00 1.87653019e-12
2.63026799e-03 2.21496149e-12 2.21490731e-12 5.41816023e-17 0.00000000e+00 0.00000000e+00 2.21490731e-12
3.01995172e-03 2.61439293e-12 2.61430080e-12 9.21256777e-17 0.00000000e+00 0.00000000e+00 2.61430080e-12
3.46736850e-03 3.08595906e-12 3.08571319e-12 2.45870954e-16 0.00000000e+00 0.00000000e+00 3.08571319e-12
3.98107171e-03 3.64237985e-12 3.64213095e-12 2.48897235e-16 0.00000000e+00 0.00000000e+00 3.64213095e-12
4.57088190e-03 4.29944769e-12 4.29888232e-12 5.65375389e-16 0.00000000e+00 0.00000000e+00 4.29888232e-12
5.24807460e-03 5.07505859e-12 5.07405951e-12 9.99076668e-16 0.00000000e+00 0.00000000e+00 5.07405951e-12
6.02559586e-03 5.99080786e-12 5.98901715e-12 1.79071142e-15 0.00000000e+00 0.00000000e+00 5.98901715e-12
6.91830971e-03 7.07196404e-12 7.06896053e-12 3.00351040e-15 0.00000000e+00 0.00000000e+00 7.06896053e-12
7.94328235e-03 8.34859150e-12 8.34363998e-12 4.95151496e-15 0.00000000e+00 0.00000000e+00 8.34363998e-12
9.12010839e-03 9.85707162e-12 9.84817045e-12 8.90116943e-15 0.00000000e+00 0.00000000e+00 9.84817045e-12
1.04712855e-02 1.10098183e-11 1.09990604e-11 1.07578390e-14 0.00000000e+00 0.00000000e+00 1.09990604e-11
1.20226443e-02 1.10157226e-11 1.09990604e-11 1.66621976e-14 9.10104160e-311 8.38820256e-312 1.09990604e-11
1.38038426e-02 1.10230936e-11 1.09990604e-11 2.40331467e-14 1.51869980e-271 1.00083457e-272 1.09990604e-11
1.58489319e-02 1.10474387e-11 1.09990604e-11 4.83782235e-14 2.29517795e-237 1.60880137e-238 1.09990604e-11
1.81970086e-02 1.10432644e-11 1.09990604e-11 4.42039239e-14 1.36007743e-207 8.72692561e-209 1.09990604e-11
2.08929613e-02 1.10694298e-11 1.09990604e-11 7.03693870e-14 1.11086102e-181 6.51300014e-183 1.09990604e-11
2.39883292e-02 1.10876427e-11 1.09990604e-11 8.85822245e-14 4.21527631e-159 2.55446676e-160 1.09990604e-11
2.75422870e-02 1.11106109e-11 1.09990604e-11 1.11550464e-13 1.94012323e-139 1.13840131e-140 1.09990604e-11
3.16227766e-02 1.11306490e-11 1.09990604e-11 1.31588534e-13 2.49391887e-122 1.52367540e-123 1.09990604e-11
3.63078055e-02 1.11471335e-11 1.09990604e-11 1.48073010e-13 1.88308984e-107 1.18744783e-108 1.09990604e-11
4.16869383e-02 1.11928424e-11 1.09990604e-11 1.93781975e-13 1.62885753e-94 1.24111613e-95 1.09990604e-11
4.78630092e-02 1.12387327e-11 1.09990604e-11 2.39672242e-13 2.82794508e-83 2.62096862e-84 1.09990604e-11
5.49540874e-02 1.12536065e-11 1.09990604e-11 2.54546097e-13 1.62060692e-73 1.72503717e-74 1.09990604e-11
6.30957344e-02 1.12755527e-11 1.09990604e-11 2.76492301e-13 6.31415719e-65 7.61390112e-66 1.09990604e-11
7.24435960e-02 1.12450058e-11 1.09990604e-11 2.45945396e-13 1.75348800e-57 2.07983801e-58 1.09990604e-11
8.31763771e-02 1.12419251e-11 1.09990604e-11 2.42864650e-13 3.92948975e-51 4.56909136e-52 1.09990604e-11
9.54992586e-02 1.12471671e-11 1.09990604e-11 2.48106612e-13 1.23440462e-45 1.51087415e-46 1.09990604e-11
1.09647820e-01 1.07614801e-11 1.05040253e-11 2.57454795e-13 6.58353850e-41 8.78335940e-42 1.05040253e-11
1.25892541e-01 1.00546005e-11 9.80292679e-12 2.51673673e-13 8.25382227e-37 1.12349679e-37 9.80292679e-12
1.44543977e-01 9.37717662e-12 9.14862359e-12 2.28553031e-13 2.95109345e-33 4.16281799e-34 9.14862359e-12
1.65958691e-01 8.77700594e-12 8.53799231e-12 2.39013623e-13 2.88815459e-30 4.76345171e-31 8.53799231e-12
1.90546072e-01 8.22080013e-12 7.96811805e-12 2.52682080e-13 8.91110122e-28 1.86060660e-28 7.96811805e-12
2.18776162e-01 7.66597854e-12 7.43628044e-12 2.29698104e-13 1.16075041e-25 2.70163144e-26 7.43628044e-12
2.51188643e-01 7.20188830e-12 6.93994070e-12 2.61947599e-13 1.36698330e-23 3.86253821e-24 6.93994070e-12
2.88403150e-01 6.72186768e-12 6.47672950e-12 2.45138172e-13 8.64235558e-22 2.50682586e-22 6.47672950e-12
3.31131121e-01 6.26745072e-12 6.04443567e-12 2.23015024e-13 3.08458554e-20 8.99448901e-21 6.04443567e-12
3.80189396e-01 5.84923095e-12 5.64099558e-12 2.08234710e-13 6.62268737e-19 1.93351827e-19 5.64099558e-12
4.36515832e-01 5.45091944e-12 5.26448339e-12 1.86426790e-13 9.26043670e-18 2.72649713e-18 5.26448339e-12
5.01187234e-01 5.08538371e-12 4.91310176e-12 1.72194209e-13 8.77387925e-17 2.57541827e-17 4.91310176e-12
5.75439937e-01 4.74623983e-12 4.58517335e-12 1.60477182e-13 5.89298720e-16 1.72163429e-16 4.58517335e-12
6.60693448e-01 4.42727211e-12 4.27913275e-12 1.45203346e-13 2.93601290e-15 8.40790457e-16 4.27913275e-12
7.58577575e-01 4.13405840e-12 3.99351904e-12 1.29040227e-13 1.14991289e-14 3.18667796e-15 3.99351904e-12
8.70963590e-01 3.87778265e-12 3.72696882e-12 1.14622099e-13 3.61917264e-14 9.54066708e-15 3.72696882e-12
1.00000000e+00 3.67004706e-12 3.47820968e-12 9.65660681e-14 9.52713067e-14 2.34427977e-14 3.47820968e-12
1.14815362e+00 3.54129339e-12 3.24605414e-12 7.89114254e-14 2.16327821e-13 4.79756785e-14 3.24605414e-12
1.31825674e+00 3.53279152e-12 3.02939399e-12 6.45691361e-14 4.38828393e-13 8.46934840e-14 3.02939399e-12
1.51356125e+00 3.66971113e-12 2.82719497e-12 5.05971410e-14 7.91919018e-13 1.29503432e-13 2.82719497e-12
1.73780083e+00 3.94437071e-12 2.63849186e-12 3.80049128e-14 1.26787393e-12 1.72844982e-13 2.63849186e-12
1.99526231e+00 4.30212065e-12 2.46238388e-12 2.86177213e-14 1.81111905e-12 1.94047192e-13 2.46238388e-12
2.29086765e+00 4.67225090e-12 2.29803035e-12 2.04716386e-14 2.35374891e-12 1.93760689e-13 2.29803035e-12
2.63026799e+00 4.97526638e-12 2.14464670e-12 1.45819172e-14 2.81603776e-12 1.73392273e-13 2.14464670e-12
3.01995172e+00 5.13183306e-12 2.00150076e-12 1.00188555e-14 3.12031344e-12 1.41911276e-13 2.00150076e-12
3.46736850e+00 5.15420525e-12 1.86790919e-12 6.94117463e-15 3.27935488e-12 1.08732005e-13 1.86790919e-12
3.98107171e+00 4.99772042e-12 1.74323429e-12 4.78799752e-15 3.24969813e-12 7.77868835e-14 1.74323429e-12
4.57088190e+00 4.74081817e-12 1.62688090e-12 3.15019429e-15 3.11078708e-12 5.20541546e-14 1.62688090e-12
5.24807460e+00 4.25145261e-12 1.34518114e-12 1.79083859e-15 2.90448062e-12 3.28194936e-14 1.34518114e-12
6.02559586e+00 3.57276109e-12 8.88752369e-13 7.69196183e-16 2.68323952e-12 1.98346987e-14 8.88752369e-13
6.70000000e+00 3.14153411e-12 6.46481889e-13 3.94550210e-16 2.49465767e-12 1.28994725e-14 6.46481889e-13
6.92422916e+00 3.02313712e-12 5.85688198e-13 3.13078702e-16 2.43713584e-12 1.11704225e-14 5.85688198e-13
7.15596261e+00 2.93333191e-12 5.30611407e-13 2.54455349e-16 2.40246605e-12 9.56639294e-15 5.30611407e-13
7.39545150e+00 2.89168228e-12 4.80713913e-13 1.90294242e-16 2.41077808e-12 8.20202921e-15 4.80713913e-13
7.64295536e+00 3.00622563e-12 4.35508666e-13 1.32721096e-16 2.57058424e-12 6.86192243e-15 4.35508666e-13
7.89874245e+00 3.31828758e-12 3.94554418e-13 8.29400232e-17 2.92365022e-12 5.53939000e-15 3.94554418e-13
8.16308998e+00 3.76631512e-12 3.57451415e-13 4.86570517e-17 3.40881504e-12 4.41803578e-15 3.57451415e-13
8.43628443e+00 4.36767460e-12 3.23837494e-13 2.69180554e-17 4.04381019e-12 3.36959843e-15 3.23837494e-13
8.71862190e+00 4.74876337e-12 2.93384550e-13 1.70731401e-17 4.45536174e-12 2.66645785e-15 2.93384550e-13
9.01040836e+00 5.11370597e-12 2.65795332e-13 1.09771075e-17 4.84789966e-12 2.01352117e-15 2.65795332e-13
9.31196005e+00 5.42246919e-12 2.40800541e-13 0.00000000e+00 5.18166865e-12 0.00000000e+00 2.40800541e-13
9.62360379e+00 5.33346685e-12 2.18156204e-13 0.00000000e+00 5.11531065e-12 0.00000000e+00 2.18156204e-13
9.94567731e+00 5.00278924e-12 1.97641289e-13 0.00000000e+00 4.80514795e-12 0.00000000e+00 1.97641289e-13
1.02785297e+01 4.64134887e-12 1.79055550e-13 0.00000000e+00 4.46229332e-12 0.00000000e+00 1.79055550e-13
1.06225216e+01 4.25123597e-12 1.62217572e-13 0.00000000e+00 4.08901840e-12 0.00000000e+00 1.62217572e-13
1.09780260e+01 3.87507379e-12 1.46962999e-13 0.00000000e+00 3.72811079e-12 0.00000000e+00 1.46962999e-13
1.13454280e+01 3.53147722e-12 1.33142932e-13 0.00000000e+00 3.39833429e-12 0.00000000e+00 1.33142932e-13
1.17251259e+01 3.24176216e-12 1.20622472e-13 0.00000000e+00 3.12113969e-12 0.00000000e+00 1.20622472e-13
1.21175312e+01 2.98110706e-12 1.09279408e-13 0.00000000e+00 2.87182765e-12 0.00000000e+00 1.09279408e-13
1.25230691e+01 2.73371821e-12 9.90030204e-14 0.00000000e+00 2.63471519e-12 0.00000000e+00 9.90030204e-14
1.29421791e+01 2.53647207e-12 8.96930008e-14 0.00000000e+00 2.44677907e-12 0.00000000e+00 8.96930008e-14
1.33753155e+01 2.36124474e-12 8.12584743e-14 0.00000000e+00 2.27998627e-12 0.00000000e+00 8.12584743e-14
1.38229477e+01 2.25193992e-12 7.36171115e-14 0.00000000e+00 2.17832281e-12 0.00000000e+00 7.36171115e-14
1.42855609e+01 2.19445074e-12 6.66943252e-14 0.00000000e+00 2.12775641e-12 0.00000000e+00 6.66943252e-14
1.47636563e+01 2.23723665e-12 6.04225420e-14 0.00000000e+00 2.17681411e-12 0.00000000e+00 6.04225420e-14
1.52577522e+01 2.29106901e-12 5.47405431e-14 0.00000000e+00 2.23632846e-12 0.00000000e+00 5.47405431e-14
1.57683840e+01 2.36575433e-12 4.95928665e-14 0.00000000e+00 2.31616147e-12 0.00000000e+00 4.95928665e-14
1.62961051e+01 2.44781991e-12 4.49292657e-14 0.00000000e+00 2.40289064e-12 0.00000000e+00 4.49292657e-14
1.68414875e+01 2.52941734e-12 4.07042194e-14 0.00000000e+00 2.48871312e-12 0.00000000e+00 4.07042194e-14
1.74051222e+01 2.58589281e-12 3.68764869e-14 0.00000000e+00 2.54901632e-12 0.00000000e+00 3.68764869e-14
1.79876201e+01 2.62820616e-12 3.34087056e-14 0.00000000e+00 2.59479746e-12 0.00000000e+00 3.34087056e-14
1.85896125e+01 2.64955898e-12 3.02670267e-14 0.00000000e+00 2.61929196e-12 0.00000000e+00 3.02670267e-14
1.92117518e+01 2.61082011e-12 2.74207841e-14 0.00000000e+00 2.58339932e-12 0.00000000e+00 2.74207841e-14
1.98547123e+01 2.57871060e-12 2.48421957e-14 0.00000000e+00 2.55386840e-12 0.00000000e+00 2.48421957e-14
2.05191907e+01 2.53302079e-12 2.25060919e-14 0.00000000e+00 2.51051470e-12 0.00000000e+00 2.25060919e-14
2.12059073e+01 2.48846156e-12 2.03896700e-14 0.00000000e+00 2.46807189e-12 0.00000000e+00 2.03896700e-14
2.19156062e+01 2.45024121e-12 1.84722717e-14 0.00000000e+00 2.43176893e-12 0.00000000e+00 1.84722717e-14
2.26490567e+01 2.40573302e-12 1.67351811e-14 0.00000000e+00 2.38899784e-12 0.00000000e+00 1.67351811e-14
2.34070535e+01 2.37159545e-12 1.51614426e-14 0.00000000e+00 2.35643400e-12 0.00000000e+00 1.51614426e-14
2.41904183e+01 2.33678497e-12 1.37356949e-14 0.00000000e+00 2.32304927e-12 0.00000000e+00 1.37356949e-14
2.50000000e+01 2.30000258e-12 1.24440213e-14 0.00000000e+00 2.28755856e-12 0.00000000e+00 1.24440213e-14
2.75422870e+01 2.18081094e-12 9.30637977e-15 0.00000000e+00 2.17150456e-12 0.00000000e+00 9.30637977e-15
3.16227766e+01 1.96061790e-12 6.14866414e-15 0.00000000e+00 1.95446923e-12 0.00000000e+00 6.14866414e-15
3.63078055e+01 1.65848633e-12 4.06238211e-15 0.00000000e+00 1.65442395e-12 0.00000000e+00 4.06238211e-15
4.16869383e+01 1.31027009e-12 2.68398924e-15 0.00000000e+00 1.30758610e-12 0.00000000e+00 2.68398924e-15
4.78630092e+01 9.60988664e-13 1.77329411e-15 0.00000000e+00 9.59215370e-13 0.00000000e+00 1.77329411e-15
5.49540874e+01 6.61356754e-13 1.17160380e-15 0.00000000e+00 6.60185150e-13 0.00000000e+00 1.17160380e-15
6.30957344e+01 4.30666857e-13 7.74070953e-16 0.00000000e+00 4.29892786e-13 0.00000000e+00 7.74070953e-16
7.24435960e+01 2.68317570e-13 5.11423607e-16 0.00000000e+00 2.67806146e-13 0.00000000e+00 5.11423607e-16
8.31763771e+01 1.61374349e-13 3.37894226e-16 0.00000000e+00 1.61036455e-13 0.00000000e+00 3.37894226e-16
9.54992586e+01 9.44556999e-14 2.23244502e-16 0.00000000e+00 9.42324554e-14 0.00000000e+00 2.23244502e-16
1.09647820e+02 5.41374937e-14 1.47496179e-16 0.00000000e+00 5.39899975e-14 0.00000000e+00 1.47496179e-16
1.25892541e+02 3.08396088e-14 9.74497594e-17 0.00000000e+00 3.07421591e-14 0.00000000e+00 9.74497594e-17
1.44543977e+02 1.73891733e-14 6.43844175e-17 0.00000000e+00 1.73247889e-14 0.00000000e+00 6.43844175e-17
1.65958691e+02 9.31500213e-15 4.25383628e-17 0.00000000e+00 9.27246377e-15 0.00000000e+00 4.25383628e-17
1.90546072e+02 4.97696077e-15 2.81048176e-17 0.00000000e+00 4.94885595e-15 0.00000000e+00 2.81048176e-17
2.18776162e+02 2.64804056e-15 1.85686688e-17 0.00000000e+00 2.62947189e-15 0.00000000e+00 1.85686688e-17
2.51188643e+02 1.40075675e-15 1.22681978e-17 0.00000000e+00 1.38848855e-15 0.00000000e+00 1.22681978e-17
2.88403150e+02 7.36367664e-16 8.10551794e-18 0.00000000e+00 7.28262146e-16 0.00000000e+00 8.10551794e-18
3.31131121e+02 3.85576150e-16 5.35526259e-18 0.00000000e+00 3.80220887e-16 0.00000000e+00 5.35526259e-18
3.80189396e+02 2.00989853e-16 3.53818691e-18 0.00000000e+00 1.97451666e-16 0.00000000e+00 3.53818691e-18
4.36515832e+02 1.04476192e-16 2.33765691e-18 0.00000000e+00 1.02138535e-16 0.00000000e+00 2.33765691e-18
5.01187234e+02 5.41760494e-17 1.54447460e-18 0.00000000e+00 5.26315748e-17 0.00000000e+00 1.54447460e-18
5.75439937e+02 2.80532159e-17 1.02042425e-18 0.00000000e+00 2.70327917e-17 0.00000000e+00 1.02042425e-18
6.60693448e+02 1.45203515e-17 6.74187617e-19 0.00000000e+00 1.38461638e-17 0.00000000e+00 6.74187617e-19
7.58577575e+02 7.52024977e-18 4.45431341e-19 0.00000000e+00 7.07481843e-18 0.00000000e+00 4.45431341e-19
8.70963590e+02 3.90074480e-18 2.94293569e-19 0.00000000e+00 3.60645124e-18 0.00000000e+00 2.94293569e-19
1.00000000e+03 1.83445662e-18 0.00000000e+00 0.00000000e+00 1.83445662e-18 0.00000000e+00 0.00000000e+00
