# column 1: lambda (micron)
# column 2: total flux; lambda*F_lambda (W/m2)
# column 3: direct stellar flux; lambda*F_lambda (W/m2)
# column 4: scattered stellar flux; lambda*F_lambda (W/m2)
# column 5: total dust emission flux; lambda*F_lambda (W/m2)
# column 6: dust emission scattered flux; lambda*F_lambda (W/m2)
# column 7: transparent flux; lambda*F_lambda (W/m2)
1.00000000e-03 1.04526624e-12 1.04526618e-12 5.52552653e-20 0.00000000e+00 0.00000000e+00 1.04634360e-12
1.14815362e-03 1.23334119e-12 1.23334110e-12 9.31372802e-20 0.00000000e+00 0.00000000e+00 1.23502095e-12
1.31825674e-03 1.45520043e-12 1.45520026e-12 1.62866569e-19 0.00000000e+00 0.00000000e+00 1.45772071e-12
1.51356125e-03 1.71707134e-12 1.71707102e-12 3.23617294e-19 0.00000000e+00 0.00000000e+00 1.72057784e-12
1.73780083e-03 2.02665234e-12 2.02665162e-12 7.16204440e-19 0.00000000e+00 0.00000000e+00 2.03083353e-12
1.99526231e-03 2.39056130e-12 2.39049264e-12 6.86566331e-17 0.00000000e+00 0.00000000e+00 2.39703472e-12
2.29086765e-03 2.82111001e-12 2.82108189e-12 2.81232329e-17 0.00000000e+00 0.00000000e+00 2.82926954e-12
2.63026799e-03 3.32802805e-12 3.32786757e-12 1.60479973e-16 0.00000000e+00 0.00000000e+00 3.33944522e-12
3.01995172e-03 3.92507446e-12 3.92472198e-12 3.52472490e-16 0.00000000e+00 0.00000000e+00 3.94161611e-12
3.46736850e-03 4.63042078e-12 4.62887659e-12 1.54419164e-15 0.00000000e+00 0.00000000e+00 4.65237083e-12
3.98107171e-03 5.48670486e-12 5.45955859e-12 2.71462698e-14 0.00000000e+00 0.00000000e+00 5.49128930e-12
4.57088190e-03 6.45778921e-12 6.45647548e-12 1.31373075e-15 0.00000000e+00 0.00000000e+00 6.48148207e-12
5.24807460e-03 7.61761624e-12 7.61254853e-12 5.06771136e-15 0.00000000e+00 0.00000000e+00 7.65022704e-12
6.02559586e-03 9.01073832e-12 8.97612513e-12 3.46131919e-14 0.00000000e+00 0.00000000e+00 9.02972084e-12
6.91830971e-03 1.05942997e-11 1.05849887e-11 9.31099715e-15 0.00000000e+00 0.00000000e+00 1.06579658e-11
7.94328235e-03 1.25400215e-11 1.24837560e-11 5.62654661e-14 2.71550719e-303 5.15457650e-306 1.25798170e-11
9.12010839e-03 1.47582255e-11 1.47224499e-11 3.57756214e-14 1.28569985e-264 5.43070663e-267 1.48482176e-11
1.04712855e-02 1.64851777e-11 1.64340347e-11 5.11430044e-14 5.78531900e-231 1.12675795e-233 1.65834298e-11
1.20226443e-02 1.64780045e-11 1.64252599e-11 5.27446002e-14 9.59864185e-202 3.24895368e-204 1.65834298e-11
1.38038426e-02 1.64585553e-11 1.64148580e-11 4.36972853e-14 2.74787870e-176 1.15456728e-178 1.65834298e-11
1.58489319e-02 1.64511647e-11 1.64020840e-11 4.90807054e-14 3.87971083e-154 1.90787412e-156 1.65834298e-11
1.81970086e-02 1.64364150e-11 1.63903110e-11 4.61039310e-14 7.18893563e-135 4.67765245e-137 1.65834298e-11
2.08929613e-02 1.64337175e-11 1.63805316e-11 5.31859515e-14 3.88050229e-118 3.16390788e-120 1.65834298e-11
2.39883292e-02 1.64163265e-11 1.63678694e-11 4.84570766e-14 1.39989131e-103 1.31099073e-105 1.65834298e-11
2.75422870e-02 1.64065080e-11 1.63531534e-11 5.33546132e-14 6.42648459e-91 7.82781521e-93 1.65834298e-11
3.16227766e-02 1.63941680e-11 1.63387414e-11 5.54266073e-14 6.40386630e-80 9.49125056e-82 1.65834298e-11
3.63078055e-02 1.63824103e-11 1.63274462e-11 5.49640683e-14 2.26259339e-70 3.81202833e-72 1.65834298e-11
4.16869383e-02 1.63780727e-11 1.63176830e-11 6.03896745e-14 4.37764776e-62 9.87746234e-64 1.65834298e-11
4.78630092e-02 1.63576986e-11 1.62908012e-11 6.68973418e-14 6.72533926e-55 2.09314935e-56 1.65834298e-11
5.49540874e-02 1.63256356e-11 1.62534906e-11 7.21449758e-14 1.13454743e-48 4.45135237e-50 1.65834298e-11
6.30957344e-02 1.62447905e-11 1.61603096e-11 8.44809544e-14 3.71666156e-43 1.81025670e-44 1.65834298e-11
7.24435960e-02 1.61374735e-11 1.60506263e-11 8.68471882e-14 2.17386799e-38 1.05905731e-39 1.65834298e-11
8.31763771e-02 1.61420333e-11 1.60603563e-11 8.16770056e-14 2.24459609e-34 1.08799702e-35 1.65834298e-11
9.54992586e-02 1.61687797e-11 1.60889277e-11 7.98519554e-14 6.37567860e-31 3.25068432e-32 1.65834298e-11
1.09647820e-01 1.55197466e-11 1.54437388e-11 7.60078194e-14 5.45358806e-28 3.04921565e-29 1.58370587e-11
1.25892541e-01 1.45437917e-11 1.44771802e-11 6.66115132e-14 1.76995085e-25 9.08492683e-27 1.47800032e-11
1.44543977e-01 1.36142952e-11 1.35588447e-11 5.54504765e-14 2.41964298e-23 1.18967472e-24 1.37935015e-11
1.65958691e-01 1.27330017e-11 1.26811173e-11 5.18843717e-14 1.23244983e-21 6.89630833e-23 1.28728446e-11
1.90546072e-01 1.18784106e-11 1.18228413e-11 5.55692895e-14 2.61684935e-20 1.85037982e-21 1.20136376e-11
2.18776162e-01 1.10579194e-11 1.10031958e-11 5.47232245e-14 3.12477215e-19 2.47073739e-20 1.12117790e-11
2.51188643e-01 1.03646193e-11 1.03074705e-11 5.71449425e-14 3.83141564e-18 3.89384552e-19 1.04634409e-11
2.88403150e-01 9.69411779e-12 9.64404775e-12 5.00381873e-14 3.18544562e-17 3.10330328e-18 9.76505125e-12
3.31131121e-01 9.05743992e-12 9.01475649e-12 4.25010605e-14 1.82362625e-16 1.69031739e-17 9.11327608e-12
3.80189396e-01 8.46173946e-12 8.42420997e-12 3.67695827e-14 7.59911552e-16 6.79755983e-17 8.50500410e-12
4.36515832e-01 7.90725978e-12 7.87166808e-12 3.31870758e-14 2.40461723e-15 2.11228898e-16 7.93733165e-12
5.01187234e-01 7.38963369e-12 7.35490601e-12 2.87185770e-14 6.00910185e-15 5.29394529e-16 7.40754890e-12
5.75439937e-01 6.91019547e-12 6.87135993e-12 2.64813756e-14 1.23541608e-14 1.09009043e-15 6.91312687e-12
6.60693448e-01 6.46362812e-12 6.41885583e-12 2.31514801e-14 2.16208135e-14 1.90304982e-15 6.45170538e-12
7.58577575e-01 6.04968708e-12 5.99556088e-12 2.05044760e-14 3.36217304e-14 2.95475701e-15 6.02108180e-12
8.70963590e-01 5.66490693e-12 5.59981302e-12 1.74524043e-14 4.76414979e-14 4.14993597e-15 5.61920048e-12
1.00000000e+00 5.30764014e-12 5.22965353e-12 1.53332525e-14 6.26533595e-14 5.26934099e-15 5.24414302e-12
1.14815362e+00 4.97600690e-12 4.88348299e-12 1.23143822e-14 8.02095355e-14 6.31957305e-15 4.89411902e-12
1.31825674e+00 4.67197509e-12 4.55978622e-12 9.18563994e-15 1.03003230e-13 7.41812337e-15 4.56745763e-12
1.51356125e+00 4.39764246e-12 4.25712249e-12 7.21000629e-15 1.33309964e-13 8.21919956e-15 4.26259947e-12
1.73780083e+00 4.15126071e-12 3.97424274e-12 5.30630823e-15 1.71711660e-13 8.67738316e-15 3.97808929e-12
1.99526231e+00 3.92885221e-12 3.70990992e-12 3.84620432e-15 2.15096087e-13 8.32769843e-15 3.71256894e-12
2.29086765e+00 3.72287802e-12 3.46293858e-12 2.80126324e-15 2.57138175e-13 7.46502797e-15 3.46477093e-12
2.63026799e+00 3.52499516e-12 3.23223788e-12 1.87853344e-15 2.90878743e-13 6.45704299e-15 3.23351237e-12
3.01995172e+00 3.32903716e-12 3.01679147e-12 1.29099976e-15 3.10954689e-13 5.20978998e-15 3.01768933e-12
3.46736850e+00 3.13273268e-12 2.81562871e-12 8.68513700e-16 3.16235460e-13 4.07207287e-15 2.81627154e-12
3.98107171e+00 2.93589939e-12 2.62783140e-12 5.67198180e-16 3.07500787e-13 3.08439929e-15 2.62829753e-12
4.57088190e+00 2.74203555e-12 2.45252737e-12 3.62163454e-16 2.89146025e-13 2.17570034e-15 2.45286997e-12
5.24807460e+00 2.29456153e-12 2.02791994e-12 2.12948249e-16 2.66428648e-13 1.47531182e-15 2.02814751e-12
6.02559586e+00 1.58265549e-12 1.33985882e-12 9.04222593e-17 2.42706247e-13 9.41093728e-16 1.33998377e-12
6.70000000e+00 1.19897540e-12 9.74628900e-13 4.67020294e-17 2.24299796e-13 6.29219730e-16 9.74709347e-13
6.92422916e+00 1.10112400e-12 8.82979561e-13 3.61724871e-17 2.18108270e-13 5.56782248e-16 8.83049889e-13
7.15596261e+00 1.01442483e-12 7.99947277e-13 3.06793422e-17 2.14446877e-13 4.82400096e-16 8.00009879e-13
7.39545150e+00 9.41011037e-13 7.24720694e-13 2.34315793e-17 2.16266911e-13 4.10316038e-16 7.24778763e-13
7.64295536e+00 8.89967975e-13 6.56562271e-13 1.61070172e-17 2.33389597e-13 3.46301780e-16 6.56622211e-13
7.89874245e+00 8.69167910e-13 5.94804786e-13 1.00073110e-17 2.74353116e-13 2.78859983e-16 5.94874946e-13
8.16308998e+00 8.74660506e-13 5.38848429e-13 5.97292821e-18 3.35806104e-13 2.21289514e-16 5.38934254e-13
8.43628443e+00 9.11140465e-13 4.88146076e-13 3.48384585e-18 4.22990905e-13 1.71996929e-16 4.88254098e-13
8.71862190e+00 9.28123854e-13 4.42219544e-13 2.26019987e-18 4.85902050e-13 1.37477013e-16 4.42339790e-13
9.01040836e+00 9.51365941e-13 4.00611193e-13 1.38970151e-18 5.50753358e-13 1.05075381e-16 4.00743158e-13
9.31196005e+00 9.67265355e-13 3.62919519e-13 0.00000000e+00 6.04345837e-13 0.00000000e+00 3.63058180e-13
9.62360379e+00 9.27982521e-13 3.28788081e-13 0.00000000e+00 5.99194441e-13 0.00000000e+00 3.28917012e-13
9.94567731e+00 8.53189373e-13 2.97876800e-13 0.00000000e+00 5.55312573e-13 0.00000000e+00 2.97986401e-13
1.02785297e+01 7.71410125e-13 2.69874607e-13 0.00000000e+00 5.01535518e-13 0.00000000e+00 2.69964435e-13
1.06225216e+01 6.93177163e-13 2.44504758e-13 0.00000000e+00 4.48672405e-13 0.00000000e+00 2.44577592e-13
1.09780260e+01 6.13797242e-13 2.21521144e-13 0.00000000e+00 3.92276098e-13 0.00000000e+00 2.21578069e-13
1.13454280e+01 5.46446285e-13 2.00696701e-13 0.00000000e+00 3.45749585e-13 0.00000000e+00 2.00741370e-13
1.17251259e+01 4.88803719e-13 1.81828829e-13 0.00000000e+00 3.06974890e-13 0.00000000e+00 1.81864106e-13
1.21175312e+01 4.36276869e-13 1.64734300e-13 0.00000000e+00 2.71542569e-13 0.00000000e+00 1.64762018e-13
1.25230691e+01 3.90752780e-13 1.49246453e-13 0.00000000e+00 2.41506327e-13 0.00000000e+00 1.49268171e-13
1.29421791e+01 3.51400360e-13 1.35214194e-13 0.00000000e+00 2.16186166e-13 0.00000000e+00 1.35231331e-13
1.33753155e+01 3.17185376e-13 1.22500865e-13 0.00000000e+00 1.94684511e-13 0.00000000e+00 1.22514483e-13
1.38229477e+01 2.91558001e-13 1.10982177e-13 0.00000000e+00 1.80575823e-13 0.00000000e+00 1.10993499e-13
1.42855609e+01 2.73390004e-13 1.00546082e-13 0.00000000e+00 1.72843922e-13 0.00000000e+00 1.00555922e-13
1.47636563e+01 2.65765556e-13 9.10905321e-14 0.00000000e+00 1.74675023e-13 0.00000000e+00 9.10998706e-14
1.52577522e+01 2.61137352e-13 8.25240221e-14 0.00000000e+00 1.78613330e-13 0.00000000e+00 8.25330452e-14
1.57683840e+01 2.59117457e-13 7.47629945e-14 0.00000000e+00 1.84354462e-13 0.00000000e+00 7.47718247e-14
1.62961051e+01 2.57860643e-13 6.77318207e-14 0.00000000e+00 1.90128822e-13 0.00000000e+00 6.77404517e-14
1.68414875e+01 2.57046981e-13 6.13618757e-14 0.00000000e+00 1.95685105e-13 0.00000000e+00 6.13702932e-14
1.74051222e+01 2.53716191e-13 5.55911765e-14 0.00000000e+00 1.98125015e-13 0.00000000e+00 5.55991699e-14
1.79876201e+01 2.48504079e-13 5.03632866e-14 0.00000000e+00 1.98140792e-13 0.00000000e+00 5.03707500e-14
1.85896125e+01 2.40245002e-13 4.56272460e-14 0.00000000e+00 1.94617756e-13 0.00000000e+00 4.56339988e-14
1.92117518e+01 2.28966232e-13 4.13367495e-14 0.00000000e+00 1.87629482e-13 0.00000000e+00 4.13426810e-14
1.98547123e+01 2.16737492e-13 3.74498006e-14 0.00000000e+00 1.79287691e-13 0.00000000e+00 3.74549090e-14
2.05191907e+01 2.04207407e-13 3.39283792e-14 0.00000000e+00 1.70279028e-13 0.00000000e+00 3.39327342e-14
2.12059073e+01 1.92740401e-13 3.07380645e-14 0.00000000e+00 1.62002337e-13 0.00000000e+00 3.07417768e-14
2.19156062e+01 1.82065926e-13 2.78477099e-14 0.00000000e+00 1.54218216e-13 0.00000000e+00 2.78508898e-14
2.26490567e+01 1.72751176e-13 2.52291271e-14 0.00000000e+00 1.47522049e-13 0.00000000e+00 2.52318552e-14
2.34070535e+01 1.63755726e-13 2.28567639e-14 0.00000000e+00 1.40898962e-13 0.00000000e+00 2.28591087e-14
2.41904183e+01 1.55429598e-13 2.07074694e-14 0.00000000e+00 1.34722128e-13 0.00000000e+00 2.07094900e-14
2.50000000e+01 1.48071064e-13 1.87602716e-14 0.00000000e+00 1.29310792e-13 0.00000000e+00 1.87620165e-14
2.75422870e+01 1.27485087e-13 1.40302147e-14 0.00000000e+00 1.13454872e-13 0.00000000e+00 1.40313526e-14
3.16227766e+01 1.02270121e-13 9.26979756e-15 0.00000000e+00 9.30003237e-14 0.00000000e+00 9.27042274e-15
3.63078055e+01 7.90941785e-14 6.12456589e-15 0.00000000e+00 7.29696126e-14 0.00000000e+00 6.12490756e-15
4.16869383e+01 5.79636639e-14 4.04650451e-15 0.00000000e+00 5.39171594e-14 0.00000000e+00 4.04668630e-15
4.78630092e+01 4.01853135e-14 2.67352541e-15 0.00000000e+00 3.75117881e-14 0.00000000e+00 2.67361912e-15
5.49540874e+01 2.65337079e-14 1.76639535e-15 0.00000000e+00 2.47673125e-14 0.00000000e+00 1.76644264e-15
6.30957344e+01 1.68426080e-14 1.16705352e-15 0.00000000e+00 1.56755545e-14 0.00000000e+00 1.16707708e-15
7.24435960e+01 1.03389760e-14 7.71068528e-16 0.00000000e+00 9.56790751e-15 0.00000000e+00 7.71080178e-16
8.31763771e+01 6.18969045e-15 5.09441869e-16 0.00000000e+00 5.68024858e-15 0.00000000e+00 5.09447621e-16
9.54992586e+01 3.63728085e-15 3.36585858e-16 0.00000000e+00 3.30069500e-15 0.00000000e+00 3.36588705e-16
1.09647820e+02 2.10618271e-15 2.22380538e-16 0.00000000e+00 1.88380217e-15 0.00000000e+00 2.22381952e-16
1.25892541e+02 1.21906530e-15 1.46925586e-16 0.00000000e+00 1.07213971e-15 0.00000000e+00 1.46926299e-16
1.44543977e+02 7.01830951e-16 9.70728810e-17 0.00000000e+00 6.04758070e-16 0.00000000e+00 9.70732430e-17
1.65958691e+02 3.88057515e-16 6.41354781e-17 0.00000000e+00 3.23922037e-16 0.00000000e+00 6.41356556e-17
1.90546072e+02 2.15500096e-16 4.23739196e-17 0.00000000e+00 1.73126176e-16 0.00000000e+00 4.23740075e-17
2.18776162e+02 1.20147278e-16 2.79961853e-17 0.00000000e+00 9.21510925e-17 0.00000000e+00 2.79962291e-17
2.51188643e+02 6.72607162e-17 1.84969032e-17 0.00000000e+00 4.87638130e-17 0.00000000e+00 1.84969251e-17
2.88403150e+02 3.78492875e-17 1.22207863e-17 0.00000000e+00 2.56285012e-17 0.00000000e+00 1.22207972e-17
3.31131121e+02 2.14810235e-17 8.07419518e-18 0.00000000e+00 1.34068283e-17 0.00000000e+00 8.07420067e-18
3.80189396e+02 1.23092716e-17 5.33456873e-18 0.00000000e+00 6.97470283e-18 0.00000000e+00 5.33457148e-18
4.36515832e+02 7.13859176e-18 3.52451504e-18 0.00000000e+00 3.61407671e-18 0.00000000e+00 3.52451642e-18
5.01187234e+02 4.19376701e-18 2.32862422e-18 0.00000000e+00 1.86514279e-18 0.00000000e+00 2.32862491e-18
5.75439937e+02 2.49781810e-18 1.53850687e-18 0.00000000e+00 9.59311230e-19 0.00000000e+00 1.53850722e-18
6.60693448e+02 1.50844690e-18 1.01648147e-18 0.00000000e+00 4.91965433e-19 0.00000000e+00 1.01648164e-18
7.58577575e+02 9.23233072e-19 6.71582672e-19 0.00000000e+00 2.51650400e-19 0.00000000e+00 6.71582760e-19
8.70963590e+02 5.72117431e-19 4.43710285e-19 0.00000000e+00 1.28407146e-19 0.00000000e+00 4.43710329e-19
1.00000000e+03 6.53724087e-20 0.00000000e+00 0.00000000e+00 6.53724087e-20 0.00000000e+00 0.00000000e+00
