# column 1: lambda (micron)
# column 2: total flux; lambda*F_lambda (W/m2)
# column 3: direct stellar flux; lambda*F_lambda (W/m2)
# column 4: scattered stellar flux; lambda*F_lambda (W/m2)
# column 5: total dust emission flux; lambda*F_lambda (W/m2)
# column 6: dust emission scattered flux; lambda*F_lambda (W/m2)
# column 7: transparent flux; lambda*F_lambda (W/m2)
1.00000000e-03 1.04634441e-12 1.04634360e-12 8.08645837e-19 0.00000000e+00 0.00000000e+00 1.04634360e-12
1.14815362e-03 1.23502216e-12 1.23502095e-12 1.21205005e-18 0.00000000e+00 0.00000000e+00 1.23502095e-12
1.31825674e-03 1.45772258e-12 1.45772071e-12 1.86647550e-18 0.00000000e+00 0.00000000e+00 1.45772071e-12
1.51356125e-03 1.72058064e-12 1.72057784e-12 2.80002193e-18 0.00000000e+00 0.00000000e+00 1.72057784e-12
1.73780083e-03 2.03083869e-12 2.03083353e-12 5.16965390e-18 0.00000000e+00 0.00000000e+00 2.03083353e-12
1.99526231e-03 2.39704542e-12 2.39703472e-12 1.07029352e-17 0.00000000e+00 0.00000000e+00 2.39703472e-12
2.29086765e-03 2.82928312e-12 2.82926954e-12 1.35771063e-17 0.00000000e+00 0.00000000e+00 2.82926954e-12
2.63026799e-03 3.33947318e-12 3.33944522e-12 2.79587539e-17 0.00000000e+00 0.00000000e+00 3.33944522e-12
3.01995172e-03 3.94166039e-12 3.94161611e-12 4.42828649e-17 0.00000000e+00 0.00000000e+00 3.94161611e-12
3.46736850e-03 4.65244399e-12 4.65237083e-12 7.31593855e-17 0.00000000e+00 0.00000000e+00 4.65237083e-12
3.98107171e-03 5.49140454e-12 5.49128930e-12 1.15244326e-16 0.00000000e+00 0.00000000e+00 5.49128930e-12
4.57088190e-03 6.48175998e-12 6.48148207e-12 2.77910561e-16 0.00000000e+00 0.00000000e+00 6.48148207e-12
5.24807460e-03 7.65074587e-12 7.65022704e-12 5.18827292e-16 0.00000000e+00 0.00000000e+00 7.65022704e-12
6.02559586e-03 9.03057735e-12 9.02972084e-12 8.56507220e-16 0.00000000e+00 0.00000000e+00 9.02972084e-12
6.91830971e-03 1.06592519e-11 1.06579658e-11 1.28603819e-15 0.00000000e+00 0.00000000e+00 1.06579658e-11
7.94328235e-03 1.25824862e-11 1.25798170e-11 2.66920374e-15 0.00000000e+00 0.00000000e+00 1.25798170e-11
9.12010839e-03 1.48516661e-11 1.48482176e-11 3.44849820e-15 0.00000000e+00 0.00000000e+00 1.48482176e-11
1.04712855e-02 1.65879775e-11 1.65834298e-11 4.54771450e-15 0.00000000e+00 0.00000000e+00 1.65834298e-11
1.20226443e-02 1.65988352e-11 1.65834298e-11 1.54054529e-14 0.00000000e+00 0.00000000e+00 1.65834298e-11
1.38038426e-02 1.66043228e-11 1.65834298e-11 2.08930193e-14 1.77220867e-277 1.67919518e-278 1.65834298e-11
1.58489319e-02 1.66014840e-11 1.65834298e-11 1.80542196e-14 1.85265530e-242 1.59481051e-243 1.65834298e-11
1.81970086e-02 1.66020405e-11 1.65834298e-11 1.86106907e-14 5.56526100e-212 4.71402161e-213 1.65834298e-11
2.08929613e-02 1.66109600e-11 1.65834298e-11 2.75302552e-14 1.77891961e-185 1.80483444e-186 1.65834298e-11
2.39883292e-02 1.66265565e-11 1.65834298e-11 4.31267520e-14 2.00902329e-162 1.67530424e-163 1.65834298e-11
2.75422870e-02 1.66367110e-11 1.65834298e-11 5.32811726e-14 2.37203352e-142 2.23386833e-143 1.65834298e-11
3.16227766e-02 1.66486391e-11 1.65834298e-11 6.52093552e-14 6.62811170e-125 6.03582033e-126 1.65834298e-11
3.63078055e-02 1.66566227e-11 1.65834298e-11 7.31929421e-14 9.69895297e-110 8.70235577e-111 1.65834298e-11
4.16869383e-02 1.66861935e-11 1.65834298e-11 1.02763692e-13 1.48150251e-96 1.54579364e-97 1.65834298e-11
4.78630092e-02 1.67222714e-11 1.65834298e-11 1.38841588e-13 4.13741383e-85 4.64644557e-86 1.65834298e-11
5.49540874e-02 1.67584059e-11 1.65834298e-11 1.74976134e-13 3.59337725e-75 4.39741254e-76 1.65834298e-11
6.30957344e-02 1.67907617e-11 1.65834298e-11 2.07331902e-13 2.00127431e-66 2.58525121e-67 1.65834298e-11
7.24435960e-02 1.67732830e-11 1.65834298e-11 1.89853250e-13 7.65895437e-59 9.21230429e-60 1.65834298e-11
8.31763771e-02 1.67715138e-11 1.65834298e-11 1.88083980e-13 2.39933698e-52 2.89805382e-53 1.65834298e-11
9.54992586e-02 1.67845110e-11 1.65834298e-11 2.01081196e-13 1.06302391e-46 1.36331262e-47 1.65834298e-11
1.09647820e-01 1.60452260e-11 1.58370587e-11 2.08167274e-13 8.18137645e-42 1.17473021e-42 1.58370587e-11
1.25892541e-01 1.49699269e-11 1.47800032e-11 1.89923753e-13 1.48585438e-37 2.22314292e-38 1.47800032e-11
1.44543977e-01 1.39662089e-11 1.37935015e-11 1.72707361e-13 7.57304545e-34 1.20303152e-34 1.37935015e-11
1.65958691e-01 1.30598025e-11 1.28728446e-11 1.86957838e-13 9.99525518e-31 1.83512307e-31 1.28728446e-11
1.90546072e-01 1.22236836e-11 1.20136376e-11 2.10046036e-13 3.80743033e-28 8.15547237e-29 1.20136376e-11
2.18776162e-01 1.14179369e-11 1.12117790e-11 2.06157961e-13 5.86355444e-26 1.29890763e-26 1.12117790e-11
2.51188643e-01 1.07112586e-11 1.04634409e-11 2.47817696e-13 7.97481274e-24 2.23228603e-24 1.04634409e-11
2.88403150e-01 9.99746542e-12 9.76505125e-12 2.32414164e-13 5.59367229e-22 1.61039785e-22 9.76505125e-12
3.31131121e-01 9.32528341e-12 9.11327608e-12 2.12007305e-13 2.19398981e-20 6.37885923e-21 9.11327608e-12
3.80189396e-01 8.70177517e-12 8.50500410e-12 1.96770557e-13 5.15604652e-19 1.49634688e-19 8.50500410e-12
4.36515832e-01 8.11873293e-12 7.93733165e-12 1.81393587e-13 7.69276140e-18 2.27312537e-18 7.93733165e-12
5.01187234e-01 7.57972617e-12 7.40754890e-12 1.72098711e-13 7.85573285e-17 2.31696415e-17 7.40754890e-12
5.75439937e-01 7.07654854e-12 6.91312687e-12 1.62859637e-13 5.62031899e-16 1.65420215e-16 6.91312687e-12
6.60693448e-01 6.60467860e-12 6.45170538e-12 1.49999485e-13 2.97373487e-15 8.67541480e-16 6.45170538e-12
7.58577575e-01 6.17197145e-12 6.02108180e-12 1.38643410e-13 1.22462425e-14 3.49801192e-15 6.02108180e-12
8.70963590e-01 5.78367794e-12 5.61920048e-12 1.23936217e-13 4.05412423e-14 1.10069417e-14 5.61920048e-12
1.00000000e+00 5.46544777e-12 5.24414302e-12 1.10081208e-13 1.11223550e-13 2.80392566e-14 5.24414302e-12
1.14815362e+00 5.24763642e-12 4.89411902e-12 9.06489994e-14 2.62868392e-13 5.95209598e-14 4.89411902e-12
1.31825674e+00 5.19111290e-12 4.56745763e-12 7.33742029e-14 5.50281072e-13 1.07307484e-13 4.56745763e-12
1.51356125e+00 5.33089119e-12 4.26259947e-12 5.70331283e-14 1.01125859e-12 1.65703095e-13 4.26259947e-12
1.73780083e+00 5.66251016e-12 3.97808929e-12 4.24787433e-14 1.64194212e-12 2.19446241e-13 3.97808929e-12
1.99526231e+00 6.12281347e-12 3.71256894e-12 3.15353362e-14 2.37870919e-12 2.47365636e-13 3.71256894e-12
2.29086765e+00 6.57245812e-12 3.46477093e-12 2.30753252e-14 3.08461187e-12 2.47077755e-13 3.46477093e-12
2.63026799e+00 6.93840033e-12 3.23351237e-12 1.61988599e-14 3.68868910e-12 2.24901308e-13 3.23351237e-12
3.01995172e+00 7.15762575e-12 3.01768933e-12 1.14916286e-14 4.12844479e-12 1.94661200e-13 3.01768933e-12
3.46736850e+00 7.17733514e-12 2.81627154e-12 8.07124314e-15 4.35299236e-12 1.59814754e-13 2.81627154e-12
3.98107171e+00 7.04947357e-12 2.62829753e-12 5.64098279e-15 4.41553505e-12 1.23440771e-13 2.62829753e-12
4.57088190e+00 6.79110166e-12 2.45286997e-12 3.74837407e-15 4.33448331e-12 8.99141387e-14 2.45286997e-12
5.24807460e+00 6.21413877e-12 2.02814751e-12 2.21277290e-15 4.18377848e-12 6.09263159e-14 2.02814751e-12
6.02559586e+00 5.29827344e-12 1.33998377e-12 9.66251891e-16 3.95732341e-12 3.87538978e-14 1.33998377e-12
6.70000000e+00 4.73944740e-12 9.74709347e-13 4.93421430e-16 3.76424463e-12 2.60010486e-14 9.74709347e-13
6.92422916e+00 4.58472444e-12 8.83049889e-13 4.05416675e-16 3.70126914e-12 2.27024017e-14 8.83049889e-13
7.15596261e+00 4.45794993e-12 8.00009879e-13 3.20198262e-16 3.65761985e-12 1.96917333e-14 8.00009879e-13
7.39545150e+00 4.39846372e-12 7.24778763e-13 2.45008897e-16 3.67343995e-12 1.68433886e-14 7.24778763e-13
7.64295536e+00 4.52049775e-12 6.56622211e-13 1.70109183e-16 3.86370543e-12 1.38949346e-14 6.56622211e-13
7.89874245e+00 4.89242847e-12 5.94874946e-13 1.04100460e-16 4.29744943e-12 1.09838759e-14 5.94874946e-13
8.16308998e+00 5.43555390e-12 5.38934254e-13 5.95334199e-17 4.89656011e-12 8.46273932e-15 5.38934254e-13
8.43628443e+00 6.13539239e-12 4.88254098e-13 3.24937564e-17 5.64710580e-12 6.23175653e-15 4.88254098e-13
8.71862190e+00 6.51620833e-12 4.42339790e-13 2.09747449e-17 6.07384756e-12 4.81090704e-15 4.42339790e-13
9.01040836e+00 6.93581853e-12 4.00743158e-13 1.34726402e-17 6.53506190e-12 3.67786763e-15 4.00743158e-13
9.31196005e+00 7.17578306e-12 3.63058180e-13 0.00000000e+00 6.81272488e-12 0.00000000e+00 3.63058180e-13
9.62360379e+00 7.09824828e-12 3.28917012e-13 0.00000000e+00 6.76933127e-12 0.00000000e+00 3.28917012e-13
9.94567731e+00 6.70101349e-12 2.97986401e-13 0.00000000e+00 6.40302709e-12 0.00000000e+00 2.97986401e-13
1.02785297e+01 6.29017003e-12 2.69964435e-13 0.00000000e+00 6.02020560e-12 0.00000000e+00 2.69964435e-13
1.06225216e+01 5.90714936e-12 2.44577592e-13 0.00000000e+00 5.66257177e-12 0.00000000e+00 2.44577592e-13
1.09780260e+01 5.47192233e-12 2.21578069e-13 0.00000000e+00 5.25034426e-12 0.00000000e+00 2.21578069e-13
1.13454280e+01 5.06892084e-12 2.00741370e-13 0.00000000e+00 4.86817947e-12 0.00000000e+00 2.00741370e-13
1.17251259e+01 4.74115140e-12 1.81864106e-13 0.00000000e+00 4.55928729e-12 0.00000000e+00 1.81864106e-13
1.21175312e+01 4.38625795e-12 1.64762018e-13 0.00000000e+00 4.22149593e-12 0.00000000e+00 1.64762018e-13
1.25230691e+01 4.07018014e-12 1.49268171e-13 0.00000000e+00 3.92091197e-12 0.00000000e+00 1.49268171e-13
1.29421791e+01 3.79007405e-12 1.35231331e-13 0.00000000e+00 3.65484272e-12 0.00000000e+00 1.35231331e-13
1.33753155e+01 3.51868520e-12 1.22514483e-13 0.00000000e+00 3.39617072e-12 0.00000000e+00 1.22514483e-13
1.38229477e+01 3.34350778e-12 1.10993499e-13 0.00000000e+00 3.23251428e-12 0.00000000e+00 1.10993499e-13
1.42855609e+01 3.23020153e-12 1.00555922e-13 0.00000000e+00 3.12964561e-12 0.00000000e+00 1.00555922e-13
1.47636563e+01 3.25195405e-12 9.10998706e-14 0.00000000e+00 3.16085418e-12 0.00000000e+00 9.10998706e-14
1.52577522e+01 3.29152295e-12 8.25330452e-14 0.00000000e+00 3.20898991e-12 0.00000000e+00 8.25330452e-14
1.57683840e+01 3.37286949e-12 7.47718247e-14 0.00000000e+00 3.29809766e-12 0.00000000e+00 7.47718247e-14
1.62961051e+01 3.43073409e-12 6.77404517e-14 0.00000000e+00 3.36299364e-12 0.00000000e+00 6.77404517e-14
1.68414875e+01 3.49514460e-12 6.13702932e-14 0.00000000e+00 3.43377431e-12 0.00000000e+00 6.13702932e-14
1.74051222e+01 3.52115949e-12 5.55991699e-14 0.00000000e+00 3.46556032e-12 0.00000000e+00 5.55991699e-14
1.79876201e+01 3.50729879e-12 5.03707500e-14 0.00000000e+00 3.45692804e-12 0.00000000e+00 5.03707500e-14
1.85896125e+01 3.47402199e-12 4.56339988e-14 0.00000000e+00 3.42838799e-12 0.00000000e+00 4.56339988e-14
1.92117518e+01 3.37805297e-12 4.13426810e-14 0.00000000e+00 3.33671029e-12 0.00000000e+00 4.13426810e-14
1.98547123e+01 3.26196331e-12 3.74549090e-14 0.00000000e+00 3.22450841e-12 0.00000000e+00 3.74549090e-14
2.05191907e+01 3.12359320e-12 3.39327342e-14 0.00000000e+00 3.08966046e-12 0.00000000e+00 3.39327342e-14
2.12059073e+01 2.99570426e-12 3.07417768e-14 0.00000000e+00 2.96496248e-12 0.00000000e+00 3.07417768e-14
2.19156062e+01 2.87666300e-12 2.78508898e-14 0.00000000e+00 2.84881211e-12 0.00000000e+00 2.78508898e-14
2.26490567e+01 2.75823927e-12 2.52318552e-14 0.00000000e+00 2.73300741e-12 0.00000000e+00 2.52318552e-14
2.34070535e+01 2.64798533e-12 2.28591087e-14 0.00000000e+00 2.62512622e-12 0.00000000e+00 2.28591087e-14
2.41904183e+01 2.53507839e-12 2.07094900e-14 0.00000000e+00 2.51436890e-12 0.00000000e+00 2.07094900e-14
2.50000000e+01 2.42520480e-12 1.87620165e-14 0.00000000e+00 2.40644278e-12 0.00000000e+00 1.87620165e-14
2.75422870e+01 2.11736104e-12 1.40313526e-14 0.00000000e+00 2.10332968e-12 0.00000000e+00 1.40313526e-14
3.16227766e+01 1.68185071e-12 9.27042274e-15 0.00000000e+00 1.67258029e-12 0.00000000e+00 9.27042274e-15
3.63078055e+01 1.26729748e-12 6.12490756e-15 0.00000000e+00 1.26117257e-12 0.00000000e+00 6.12490756e-15
4.16869383e+01 8.95674469e-13 4.04668630e-15 0.00000000e+00 8.91627782e-13 0.00000000e+00 4.04668630e-15
4.78630092e+01 5.91143366e-13 2.67361912e-15 0.00000000e+00 5.88469747e-13 0.00000000e+00 2.67361912e-15
5.49540874e+01 3.69813644e-13 1.76644264e-15 0.00000000e+00 3.68047201e-13 0.00000000e+00 1.76644264e-15
6.30957344e+01 2.21808638e-13 1.16707708e-15 0.00000000e+00 2.20641561e-13 0.00000000e+00 1.16707708e-15
7.24435960e+01 1.28629222e-13 7.71080178e-16 0.00000000e+00 1.27858142e-13 0.00000000e+00 7.71080178e-16
8.31763771e+01 7.28442309e-14 5.09447621e-16 0.00000000e+00 7.23347833e-14 0.00000000e+00 5.09447621e-16
9.54992586e+01 4.05469816e-14 3.36588705e-16 0.00000000e+00 4.02103929e-14 0.00000000e+00 3.36588705e-16
1.09647820e+02 2.22910302e-14 2.22381952e-16 0.00000000e+00 2.20686483e-14 0.00000000e+00 2.22381952e-16
1.25892541e+02 1.22760860e-14 1.46926299e-16 0.00000000e+00 1.21291597e-14 0.00000000e+00 1.46926299e-16
1.44543977e+02 6.73471802e-15 9.70732430e-17 0.00000000e+00 6.63764477e-15 0.00000000e+00 9.70732430e-17
1.65958691e+02 3.52543774e-15 6.41356556e-17 0.00000000e+00 3.46130209e-15 0.00000000e+00 6.41356556e-17
1.90546072e+02 1.85018462e-15 4.23740075e-17 0.00000000e+00 1.80781062e-15 0.00000000e+00 4.23740075e-17
2.18776162e+02 9.71271226e-16 2.79962291e-17 0.00000000e+00 9.43274997e-16 0.00000000e+00 2.79962291e-17
2.51188643e+02 5.09157597e-16 1.84969251e-17 0.00000000e+00 4.90660672e-16 0.00000000e+00 1.84969251e-17
2.88403150e+02 2.66304295e-16 1.22207972e-17 0.00000000e+00 2.54083497e-16 0.00000000e+00 1.22207972e-17
3.31131121e+02 1.39306608e-16 8.07420067e-18 0.00000000e+00 1.31232407e-16 0.00000000e+00 8.07420067e-18
3.80189396e+02 7.28583719e-17 5.33457148e-18 0.00000000e+00 6.75238004e-17 0.00000000e+00 5.33457148e-18
4.36515832e+02 3.81832020e-17 3.52451642e-18 0.00000000e+00 3.46586856e-17 0.00000000e+00 3.52451642e-18
5.01187234e+02 2.00694479e-17 2.32862491e-18 0.00000000e+00 1.77408230e-17 0.00000000e+00 2.32862491e-18
5.75439937e+02 1.05991070e-17 1.53850722e-18 0.00000000e+00 9.06059974e-18 0.00000000e+00 1.53850722e-18
6.60693448e+02 5.63479328e-18 1.01648164e-18 0.00000000e+00 4.61831164e-18 0.00000000e+00 1.01648164e-18
7.58577575e+02 3.02152822e-18 6.71582760e-19 0.00000000e+00 2.34994546e-18 0.00000000e+00 6.71582760e-19
8.70963590e+02 1.63734284e-18 4.43710329e-19 0.00000000e+00 1.19363251e-18 0.00000000e+00 4.43710329e-19
1.00000000e+03 6.05286150e-19 0.00000000e+00 0.00000000e+00 6.05286150e-19 0.00000000e+00 0.00000000e+00
