# column 1: lambda (micron)
# column 2: total flux; lambda*F_lambda (W/m2)
# column 3: direct stellar flux; lambda*F_lambda (W/m2)
# column 4: scattered stellar flux; lambda*F_lambda (W/m2)
# column 5: total dust emission flux; lambda*F_lambda (W/m2)
# column 6: dust emission scattered flux; lambda*F_lambda (W/m2)
# column 7: transparent flux; lambda*F_lambda (W/m2)
1.00000000e-03 1.04634686e-12 1.04634360e-12 3.25968793e-18 0.00000000e+00 0.00000000e+00 1.04634360e-12
1.14815362e-03 1.23502563e-12 1.23502095e-12 4.68135505e-18 0.00000000e+00 0.00000000e+00 1.23502095e-12
1.31825674e-03 1.45772776e-12 1.45772071e-12 7.05334776e-18 0.00000000e+00 0.00000000e+00 1.45772071e-12
1.51356125e-03 1.72058858e-12 1.72057784e-12 1.07404838e-17 0.00000000e+00 0.00000000e+00 1.72057784e-12
1.73780083e-03 2.03085262e-12 2.03083353e-12 1.90997324e-17 0.00000000e+00 0.00000000e+00 2.03083353e-12
1.99526231e-03 2.39706706e-12 2.39703472e-12 3.23393777e-17 0.00000000e+00 0.00000000e+00 2.39703472e-12
2.29086765e-03 2.82931930e-12 2.82926954e-12 4.97563084e-17 0.00000000e+00 0.00000000e+00 2.82926954e-12
2.63026799e-03 3.33954584e-12 3.33944522e-12 1.00621255e-16 0.00000000e+00 0.00000000e+00 3.33944522e-12
3.01995172e-03 3.94177946e-12 3.94161611e-12 1.63349180e-16 0.00000000e+00 0.00000000e+00 3.94161611e-12
3.46736850e-03 4.65262602e-12 4.65237083e-12 2.55190880e-16 0.00000000e+00 0.00000000e+00 4.65237083e-12
3.98107171e-03 5.49198111e-12 5.49128930e-12 6.91812097e-16 0.00000000e+00 0.00000000e+00 5.49128930e-12
4.57088190e-03 6.48245249e-12 6.48148207e-12 9.70417404e-16 0.00000000e+00 0.00000000e+00 6.48148207e-12
5.24807460e-03 7.65195191e-12 7.65022704e-12 1.72486609e-15 0.00000000e+00 0.00000000e+00 7.65022704e-12
6.02559586e-03 9.03267994e-12 9.02972084e-12 2.95909794e-15 0.00000000e+00 0.00000000e+00 9.02972084e-12
6.91830971e-03 1.06627364e-11 1.06579658e-11 4.77056946e-15 0.00000000e+00 0.00000000e+00 1.06579658e-11
7.94328235e-03 1.25881023e-11 1.25798170e-11 8.28528497e-15 0.00000000e+00 0.00000000e+00 1.25798170e-11
9.12010839e-03 1.48825186e-11 1.48482176e-11 3.43009409e-14 0.00000000e+00 0.00000000e+00 1.48482176e-11
1.04712855e-02 1.66000111e-11 1.65834298e-11 1.65812756e-14 0.00000000e+00 0.00000000e+00 1.65834298e-11
1.20226443e-02 1.66167809e-11 1.65834298e-11 3.33511357e-14 0.00000000e+00 0.00000000e+00 1.65834298e-11
1.38038426e-02 1.66289098e-11 1.65834298e-11 4.54800642e-14 9.32505451e-277 6.59652019e-279 1.65834298e-11
1.58489319e-02 1.66355401e-11 1.65834298e-11 5.21102854e-14 7.09378565e-242 9.73410911e-244 1.65834298e-11
1.81970086e-02 1.66632898e-11 1.65834298e-11 7.98599974e-14 1.60151049e-211 2.24103485e-213 1.65834298e-11
2.08929613e-02 1.66876023e-11 1.65834298e-11 1.04172563e-13 3.92637955e-185 7.38646701e-187 1.65834298e-11
2.39883292e-02 1.67192771e-11 1.65834298e-11 1.35847299e-13 3.65991150e-162 9.29744091e-164 1.65834298e-11
2.75422870e-02 1.67497292e-11 1.65834298e-11 1.66299435e-13 3.56440930e-142 1.15247909e-143 1.65834298e-11
3.16227766e-02 1.67871756e-11 1.65834298e-11 2.03745836e-13 8.56566249e-125 3.50226570e-126 1.65834298e-11
3.63078055e-02 1.68174272e-11 1.65834298e-11 2.33997397e-13 1.09318698e-109 5.01065521e-111 1.65834298e-11
4.16869383e-02 1.68927592e-11 1.65834298e-11 3.09329371e-13 1.47742564e-96 9.11577516e-98 1.65834298e-11
4.78630092e-02 1.69739882e-11 1.65834298e-11 3.90558373e-13 3.76736684e-85 3.01805187e-86 1.65834298e-11
5.49540874e-02 1.70218691e-11 1.65834298e-11 4.38439300e-13 3.00960265e-75 2.87622945e-76 1.65834298e-11
6.30957344e-02 1.70437082e-11 1.65834298e-11 4.60278431e-13 1.57078866e-66 1.74677722e-67 1.65834298e-11
7.24435960e-02 1.69878537e-11 1.65834298e-11 4.04423917e-13 5.61192225e-59 5.97826117e-60 1.65834298e-11
8.31763771e-02 1.69768650e-11 1.65834298e-11 3.93435229e-13 1.56277286e-52 1.64965258e-53 1.65834298e-11
9.54992586e-02 1.69904365e-11 1.65834298e-11 4.07006675e-13 5.99528798e-47 6.78241038e-48 1.65834298e-11
1.09647820e-01 1.62856684e-11 1.58370587e-11 4.48609712e-13 3.91333965e-42 5.01720505e-43 1.58370587e-11
1.25892541e-01 1.52210983e-11 1.47800032e-11 4.41095169e-13 6.22005772e-38 8.51931462e-39 1.47800032e-11
1.44543977e-01 1.42099155e-11 1.37935015e-11 4.16414025e-13 3.01229706e-34 4.53768702e-35 1.37935015e-11
1.65958691e-01 1.33184682e-11 1.28728446e-11 4.45623534e-13 4.27841590e-31 7.91950050e-32 1.28728446e-11
1.90546072e-01 1.24869977e-11 1.20136376e-11 4.73360097e-13 1.90483367e-28 4.51567848e-29 1.20136376e-11
2.18776162e-01 1.16325587e-11 1.12117790e-11 4.20779698e-13 3.45944333e-26 9.14313496e-27 1.12117790e-11
2.51188643e-01 1.09673012e-11 1.04634409e-11 5.03860219e-13 5.94092919e-24 1.93502730e-24 1.04634409e-11
2.88403150e-01 1.02445842e-11 9.76505125e-12 4.79532956e-13 5.24395550e-22 1.80262410e-22 9.76505125e-12
3.31131121e-01 9.56529699e-12 9.11327608e-12 4.52020884e-13 2.47313855e-20 8.63060552e-21 9.11327608e-12
3.80189396e-01 8.92366112e-12 8.50500410e-12 4.18656342e-13 6.86067827e-19 2.43837574e-19 8.50500410e-12
4.36515832e-01 8.32273631e-12 7.93733165e-12 3.85392701e-13 1.19571995e-17 4.31204475e-18 7.93733165e-12
5.01187234e-01 7.76607600e-12 7.40754890e-12 3.58390789e-13 1.36306180e-16 4.89400044e-17 7.40754890e-12
5.75439937e-01 7.25400600e-12 6.91312687e-12 3.39820502e-13 1.05862706e-15 3.78874541e-16 6.91312687e-12
6.60693448e-01 6.76269787e-12 6.45170538e-12 3.05002631e-13 5.98985223e-15 2.09491635e-15 6.45170538e-12
7.58577575e-01 6.32339817e-12 6.02108180e-12 2.76382327e-13 2.59340461e-14 8.82811361e-15 6.02108180e-12
8.70963590e-01 5.94923362e-12 5.61920048e-12 2.41524807e-13 8.85083332e-14 2.83722711e-14 5.61920048e-12
1.00000000e+00 5.70153793e-12 5.24414302e-12 2.09698762e-13 2.47696148e-13 7.36460986e-14 5.24414302e-12
1.14815362e+00 5.65766500e-12 4.89411902e-12 1.70000413e-13 5.93545567e-13 1.58618136e-13 4.89411902e-12
1.31825674e+00 5.93400651e-12 4.56745763e-12 1.33783111e-13 1.23276577e-12 2.88176336e-13 4.56745763e-12
1.51356125e+00 6.64438244e-12 4.26259947e-12 1.02785909e-13 2.27899706e-12 4.53087092e-13 4.26259947e-12
1.73780083e+00 7.76078019e-12 3.97808929e-12 7.95933170e-14 3.70309758e-12 6.15778204e-13 3.97808929e-12
1.99526231e+00 9.13079377e-12 3.71256894e-12 6.06567982e-14 5.35756803e-12 7.23908642e-13 3.71256894e-12
2.29086765e+00 1.05890158e-11 3.46477093e-12 4.50311481e-14 7.07921376e-12 7.53277346e-13 3.46477093e-12
2.63026799e+00 1.18837180e-11 3.23351237e-12 3.33923839e-14 8.61681329e-12 7.14472458e-13 3.23351237e-12
3.01995172e+00 1.28182742e-11 3.01768933e-12 2.44530745e-14 9.77613184e-12 6.27820614e-13 3.01768933e-12
3.46736850e+00 1.35202505e-11 2.81627154e-12 1.74525441e-14 1.06865264e-11 5.18056540e-13 2.81627154e-12
3.98107171e+00 1.37001220e-11 2.62829753e-12 1.20995756e-14 1.10597249e-11 3.98379442e-13 2.62829753e-12
4.57088190e+00 1.35891018e-11 2.45286997e-12 8.17056273e-15 1.11280612e-11 2.85021724e-13 2.45286997e-12
5.24807460e+00 1.29475535e-11 2.02814751e-12 4.62395675e-15 1.09147821e-11 1.88322108e-13 2.02814751e-12
6.02559586e+00 1.18797789e-11 1.33998377e-12 2.03738998e-15 1.05377578e-11 1.17526373e-13 1.33998377e-12
6.70000000e+00 1.11310548e-11 9.74709347e-13 1.03585944e-15 1.01553096e-11 7.79084699e-14 9.74709347e-13
6.92422916e+00 1.08574857e-11 8.83049889e-13 8.33472717e-16 9.97360232e-12 6.77735443e-14 8.83049889e-13
7.15596261e+00 1.06949278e-11 8.00009879e-13 6.64454474e-16 9.89425347e-12 5.85094331e-14 8.00009879e-13
7.39545150e+00 1.06537826e-11 7.24778763e-13 5.11533348e-16 9.92849226e-12 5.00252832e-14 7.24778763e-13
7.64295536e+00 1.09838807e-11 6.56622211e-13 3.54313558e-16 1.03269042e-11 4.13865691e-14 6.56622211e-13
7.89874245e+00 1.18408874e-11 5.94874946e-13 2.18127702e-16 1.12457944e-11 3.25933729e-14 5.94874946e-13
8.16308998e+00 1.28558404e-11 5.38934254e-13 1.25789362e-16 1.23167803e-11 2.50665898e-14 5.38934254e-13
8.43628443e+00 1.40952847e-11 4.88254098e-13 6.84715548e-17 1.36069622e-11 1.83121681e-14 4.88254098e-13
8.71862190e+00 1.47429249e-11 4.42339790e-13 4.23715584e-17 1.43005427e-11 1.41112759e-14 4.42339790e-13
9.01040836e+00 1.52407879e-11 4.00743158e-13 2.63973956e-17 1.48400183e-11 1.06344561e-14 4.00743158e-13
9.31196005e+00 1.55858736e-11 3.63058180e-13 0.00000000e+00 1.52228154e-11 0.00000000e+00 3.63058180e-13
9.62360379e+00 1.54296429e-11 3.28917012e-13 0.00000000e+00 1.51007258e-11 0.00000000e+00 3.28917012e-13
9.94567731e+00 1.49237113e-11 2.97986401e-13 0.00000000e+00 1.46257249e-11 0.00000000e+00 2.97986401e-13
1.02785297e+01 1.43242818e-11 2.69964435e-13 0.00000000e+00 1.40543174e-11 0.00000000e+00 2.69964435e-13
1.06225216e+01 1.35985059e-11 2.44577592e-13 0.00000000e+00 1.33539284e-11 0.00000000e+00 2.44577592e-13
1.09780260e+01 1.30182741e-11 2.21578069e-13 0.00000000e+00 1.27966961e-11 0.00000000e+00 2.21578069e-13
1.13454280e+01 1.23775069e-11 2.00741370e-13 0.00000000e+00 1.21767655e-11 0.00000000e+00 2.00741370e-13
1.17251259e+01 1.18436638e-11 1.81864106e-13 0.00000000e+00 1.16617997e-11 0.00000000e+00 1.81864106e-13
1.21175312e+01 1.12691577e-11 1.64762018e-13 0.00000000e+00 1.11043957e-11 0.00000000e+00 1.64762018e-13
1.25230691e+01 1.07423313e-11 1.49268171e-13 0.00000000e+00 1.05930631e-11 0.00000000e+00 1.49268171e-13
1.29421791e+01 1.01816317e-11 1.35231331e-13 0.00000000e+00 1.00464004e-11 0.00000000e+00 1.35231331e-13
1.33753155e+01 9.71329878e-12 1.22514483e-13 0.00000000e+00 9.59078430e-12 0.00000000e+00 1.22514483e-13
1.38229477e+01 9.35335922e-12 1.10993499e-13 0.00000000e+00 9.24236572e-12 0.00000000e+00 1.10993499e-13
1.42855609e+01 9.14469518e-12 1.00555922e-13 0.00000000e+00 9.04413926e-12 0.00000000e+00 1.00555922e-13
1.47636563e+01 9.27790659e-12 9.10998706e-14 0.00000000e+00 9.18680672e-12 0.00000000e+00 9.10998706e-14
1.52577522e+01 9.44062033e-12 8.25330452e-14 0.00000000e+00 9.35808728e-12 0.00000000e+00 8.25330452e-14
1.57683840e+01 9.67460972e-12 7.47718247e-14 0.00000000e+00 9.59983789e-12 0.00000000e+00 7.47718247e-14
1.62961051e+01 9.91365676e-12 6.77404517e-14 0.00000000e+00 9.84591631e-12 0.00000000e+00 6.77404517e-14
1.68414875e+01 1.00944198e-11 6.13702932e-14 0.00000000e+00 1.00330495e-11 0.00000000e+00 6.13702932e-14
1.74051222e+01 1.01836830e-11 5.55991699e-14 0.00000000e+00 1.01280838e-11 0.00000000e+00 5.55991699e-14
1.79876201e+01 1.02417578e-11 5.03707500e-14 0.00000000e+00 1.01913871e-11 0.00000000e+00 5.03707500e-14
1.85896125e+01 1.01936172e-11 4.56339988e-14 0.00000000e+00 1.01479832e-11 0.00000000e+00 4.56339988e-14
1.92117518e+01 1.00030928e-11 4.13426810e-14 0.00000000e+00 9.96175011e-12 0.00000000e+00 4.13426810e-14
1.98547123e+01 9.78050715e-12 3.74549090e-14 0.00000000e+00 9.74305224e-12 0.00000000e+00 3.74549090e-14
2.05191907e+01 9.52413265e-12 3.39327342e-14 0.00000000e+00 9.49019992e-12 0.00000000e+00 3.39327342e-14
2.12059073e+01 9.22021985e-12 3.07417768e-14 0.00000000e+00 9.18947807e-12 0.00000000e+00 3.07417768e-14
2.19156062e+01 8.89385274e-12 2.78508898e-14 0.00000000e+00 8.86600185e-12 0.00000000e+00 2.78508898e-14
2.26490567e+01 8.62269299e-12 2.52318552e-14 0.00000000e+00 8.59746113e-12 0.00000000e+00 2.52318552e-14
2.34070535e+01 8.33736076e-12 2.28591087e-14 0.00000000e+00 8.31450165e-12 0.00000000e+00 2.28591087e-14
2.41904183e+01 8.03703111e-12 2.07094900e-14 0.00000000e+00 8.01632162e-12 0.00000000e+00 2.07094900e-14
2.50000000e+01 7.71698063e-12 1.87620165e-14 0.00000000e+00 7.69821861e-12 0.00000000e+00 1.87620165e-14
2.75422870e+01 6.80192019e-12 1.40313526e-14 0.00000000e+00 6.78788883e-12 0.00000000e+00 1.40313526e-14
3.16227766e+01 5.45838427e-12 9.27042274e-15 0.00000000e+00 5.44911385e-12 0.00000000e+00 9.27042274e-15
3.63078055e+01 4.11234980e-12 6.12490756e-15 0.00000000e+00 4.10622489e-12 0.00000000e+00 6.12490756e-15
4.16869383e+01 2.89516355e-12 4.04668630e-15 0.00000000e+00 2.89111686e-12 0.00000000e+00 4.04668630e-15
4.78630092e+01 1.90129425e-12 2.67361912e-15 0.00000000e+00 1.89862063e-12 0.00000000e+00 2.67361912e-15
5.49540874e+01 1.18078879e-12 1.76644264e-15 0.00000000e+00 1.17902235e-12 0.00000000e+00 1.76644264e-15
6.30957344e+01 7.00987012e-13 1.16707708e-15 0.00000000e+00 6.99819935e-13 0.00000000e+00 1.16707708e-15
7.24435960e+01 4.01916306e-13 7.71080178e-16 0.00000000e+00 4.01145226e-13 0.00000000e+00 7.71080178e-16
8.31763771e+01 2.24509255e-13 5.09447621e-16 0.00000000e+00 2.23999808e-13 0.00000000e+00 5.09447621e-16
9.54992586e+01 1.23418362e-13 3.36588705e-16 0.00000000e+00 1.23081773e-13 0.00000000e+00 3.36588705e-16
1.09647820e+02 6.69789800e-14 2.22381952e-16 0.00000000e+00 6.67565980e-14 0.00000000e+00 2.22381952e-16
1.25892541e+02 3.64293083e-14 1.46926299e-16 0.00000000e+00 3.62823820e-14 0.00000000e+00 1.46926299e-16
1.44543977e+02 1.97470694e-14 9.70732430e-17 0.00000000e+00 1.96499962e-14 0.00000000e+00 9.70732430e-17
1.65958691e+02 1.02169333e-14 6.41356556e-17 0.00000000e+00 1.01527976e-14 0.00000000e+00 6.41356556e-17
1.90546072e+02 5.30166872e-15 4.23740075e-17 0.00000000e+00 5.25929471e-15 0.00000000e+00 4.23740075e-17
2.18776162e+02 2.75155895e-15 2.79962291e-17 0.00000000e+00 2.72356272e-15 0.00000000e+00 2.79962291e-17
2.51188643e+02 1.42581138e-15 1.84969251e-17 0.00000000e+00 1.40731445e-15 0.00000000e+00 1.84969251e-17
2.88403150e+02 7.36710180e-16 1.22207972e-17 0.00000000e+00 7.24489382e-16 0.00000000e+00 1.22207972e-17
3.31131121e+02 3.80322161e-16 8.07420067e-18 0.00000000e+00 3.72247961e-16 0.00000000e+00 8.07420067e-18
3.80189396e+02 1.96001681e-16 5.33457148e-18 0.00000000e+00 1.90667110e-16 0.00000000e+00 5.33457148e-18
4.36515832e+02 1.01001283e-16 3.52451642e-18 0.00000000e+00 9.74767670e-17 0.00000000e+00 3.52451642e-18
5.01187234e+02 5.20499796e-17 2.32862491e-18 0.00000000e+00 4.97213547e-17 0.00000000e+00 2.32862491e-18
5.75439937e+02 2.68547543e-17 1.53850722e-18 0.00000000e+00 2.53162471e-17 0.00000000e+00 1.53850722e-18
6.60693448e+02 1.38860471e-17 1.01648164e-18 0.00000000e+00 1.28695655e-17 0.00000000e+00 1.01648164e-18
7.58577575e+02 7.20485286e-18 6.71582760e-19 0.00000000e+00 6.53327010e-18 0.00000000e+00 6.71582760e-19
8.70963590e+02 3.75546448e-18 4.43710329e-19 0.00000000e+00 3.31175415e-18 0.00000000e+00 4.43710329e-19
1.00000000e+03 1.67640911e-18 0.00000000e+00 0.00000000e+00 1.67640911e-18 0.00000000e+00 0.00000000e+00
