# column 1: lambda (micron)
# column 2: total flux; lambda*F_lambda (W/m2)
# column 3: direct stellar flux; lambda*F_lambda (W/m2)
# column 4: scattered stellar flux; lambda*F_lambda (W/m2)
# column 5: total dust emission flux; lambda*F_lambda (W/m2)
# column 6: dust emission scattered flux; lambda*F_lambda (W/m2)
# column 7: transparent flux; lambda*F_lambda (W/m2)
1.00000000e-03 6.93993821e-13 6.93993746e-13 7.56723738e-20 0.00000000e+00 0.00000000e+00 6.93993746e-13
1.14815362e-03 8.19135264e-13 8.19135139e-13 1.25075953e-19 0.00000000e+00 0.00000000e+00 8.19135139e-13
1.31825674e-03 9.66842308e-13 9.66842108e-13 2.00510564e-19 0.00000000e+00 0.00000000e+00 9.66842108e-13
1.51356125e-03 1.14118401e-12 1.14118369e-12 3.16834982e-19 0.00000000e+00 0.00000000e+00 1.14118369e-12
1.73780083e-03 1.34696323e-12 1.34696266e-12 5.74348422e-19 0.00000000e+00 0.00000000e+00 1.34696266e-12
1.99526231e-03 1.58984883e-12 1.58984782e-12 1.00776633e-18 0.00000000e+00 0.00000000e+00 1.58984782e-12
2.29086765e-03 1.87653182e-12 1.87653019e-12 1.63122133e-18 0.00000000e+00 0.00000000e+00 1.87653019e-12
2.63026799e-03 2.21491056e-12 2.21490731e-12 3.24522934e-18 0.00000000e+00 0.00000000e+00 2.21490731e-12
3.01995172e-03 2.61430651e-12 2.61430080e-12 5.70957763e-18 0.00000000e+00 0.00000000e+00 2.61430080e-12
3.46736850e-03 3.08572270e-12 3.08571319e-12 9.51235141e-18 0.00000000e+00 0.00000000e+00 3.08571319e-12
3.98107171e-03 3.64214605e-12 3.64213095e-12 1.50954948e-17 0.00000000e+00 0.00000000e+00 3.64213095e-12
4.57088190e-03 4.29891411e-12 4.29888232e-12 3.17883841e-17 0.00000000e+00 0.00000000e+00 4.29888232e-12
5.24807460e-03 5.07411764e-12 5.07405951e-12 5.81297808e-17 0.00000000e+00 0.00000000e+00 5.07405951e-12
6.02559586e-03 5.98913121e-12 5.98901715e-12 1.14065056e-16 0.00000000e+00 0.00000000e+00 5.98901715e-12
6.91830971e-03 7.06914801e-12 7.06896053e-12 1.87482591e-16 0.00000000e+00 0.00000000e+00 7.06896053e-12
7.94328235e-03 8.34394548e-12 8.34363998e-12 3.05502574e-16 1.50824449e-303 2.38835244e-305 8.34363998e-12
9.12010839e-03 9.84866928e-12 9.84817045e-12 4.98828712e-16 6.69853719e-265 2.84153069e-266 9.84817045e-12
1.04712855e-02 1.09997679e-11 1.09990604e-11 7.07503561e-16 2.85472314e-231 1.74025364e-232 1.09990604e-11
1.20226443e-02 1.10000859e-11 1.09990604e-11 1.02542536e-15 4.23580520e-202 8.48119512e-204 1.09990604e-11
1.38038426e-02 1.10004020e-11 1.09990604e-11 1.34154016e-15 1.15508932e-176 3.51133055e-178 1.09990604e-11
1.58489319e-02 1.10012707e-11 1.09990604e-11 2.21026942e-15 1.58121321e-154 8.25319708e-156 1.09990604e-11
1.81970086e-02 1.10019665e-11 1.09990604e-11 2.90600677e-15 2.74952694e-135 1.02906851e-136 1.09990604e-11
2.08929613e-02 1.10031252e-11 1.09990604e-11 4.06472310e-15 1.43517970e-118 6.32797349e-120 1.09990604e-11
2.39883292e-02 1.10041499e-11 1.09990604e-11 5.08950517e-15 4.99097452e-104 2.22103547e-105 1.09990604e-11
2.75422870e-02 1.10072632e-11 1.09990604e-11 8.20273441e-15 2.22021568e-91 1.06100025e-92 1.09990604e-11
3.16227766e-02 1.10081150e-11 1.09990604e-11 9.05454748e-15 2.16194318e-80 1.18120553e-81 1.09990604e-11
3.63078055e-02 1.10093979e-11 1.09990604e-11 1.03374785e-14 7.45810097e-71 4.15365817e-72 1.09990604e-11
4.16869383e-02 1.10130301e-11 1.09990604e-11 1.39696325e-14 1.41803948e-62 9.33299160e-64 1.09990604e-11
4.78630092e-02 1.10200030e-11 1.09990604e-11 2.09425520e-14 2.12746694e-55 1.55749550e-56 1.09990604e-11
5.49540874e-02 1.10253863e-11 1.09990604e-11 2.63258278e-14 3.50298260e-49 2.79579163e-50 1.09990604e-11
6.30957344e-02 1.10292540e-11 1.09990604e-11 3.01935486e-14 1.10169258e-43 8.85265563e-45 1.09990604e-11
7.24435960e-02 1.10290137e-11 1.09990604e-11 2.99532324e-14 6.18697875e-39 4.23417689e-40 1.09990604e-11
8.31763771e-02 1.10285793e-11 1.09990604e-11 2.95188350e-14 6.33388874e-35 4.29732218e-36 1.09990604e-11
9.54992586e-02 1.10294274e-11 1.09990604e-11 3.03669778e-14 1.79193393e-31 1.26321590e-32 1.09990604e-11
1.09647820e-01 1.05354711e-11 1.05040253e-11 3.14458368e-14 1.55120974e-28 1.22483629e-29 1.05040253e-11
1.25892541e-01 9.83083656e-12 9.80292679e-12 2.79097611e-14 5.10955431e-26 4.17295810e-27 9.80292679e-12
1.44543977e-01 9.17458217e-12 9.14862359e-12 2.59585808e-14 7.04273641e-24 5.54217235e-25 9.14862359e-12
1.65958691e-01 8.56510986e-12 8.53799231e-12 2.71175477e-14 3.60217956e-22 3.08658747e-23 8.53799231e-12
1.90546072e-01 7.99693540e-12 7.96811805e-12 2.88173475e-14 7.55153051e-21 7.23886448e-22 7.96811805e-12
2.18776162e-01 7.46647832e-12 7.43628044e-12 3.01978003e-14 8.80633604e-20 8.39001981e-21 7.43628044e-12
2.51188643e-01 6.97410891e-12 6.93994070e-12 3.41671288e-14 1.08592666e-18 1.21816166e-19 6.93994070e-12
2.88403150e-01 6.50758769e-12 6.47672950e-12 3.08490616e-14 9.12283589e-18 9.94086219e-19 6.47672950e-12
3.31131121e-01 6.07188103e-12 6.04443567e-12 2.73927794e-14 5.25809784e-17 5.52380815e-18 6.04443567e-12
3.80189396e-01 5.66535345e-12 5.64099558e-12 2.41384909e-14 2.19382670e-16 2.18909297e-17 5.64099558e-12
4.36515832e-01 5.28825970e-12 5.26448339e-12 2.30810547e-14 6.95255120e-16 6.62642096e-17 5.26448339e-12
5.01187234e-01 4.93516458e-12 4.91310176e-12 2.03243492e-14 1.73847145e-15 1.59257766e-16 4.91310176e-12
5.75439937e-01 4.60650191e-12 4.58517335e-12 1.77498363e-14 3.57872816e-15 3.13338833e-16 4.58517335e-12
6.60693448e-01 4.30198043e-12 4.27913275e-12 1.65773467e-14 6.27033575e-15 5.05183860e-16 4.27913275e-12
7.58577575e-01 4.01918821e-12 3.99351904e-12 1.58262276e-14 9.84293724e-15 7.47840742e-16 3.99351904e-12
8.70963590e-01 3.75482125e-12 3.72696882e-12 1.36094485e-14 1.42429850e-14 1.01256506e-15 3.72696882e-12
1.00000000e+00 3.50892343e-12 3.47820968e-12 1.11679880e-14 1.95457616e-14 1.27484308e-15 3.47820968e-12
1.14815362e+00 3.28243435e-12 3.24605414e-12 9.41243991e-15 2.69677716e-14 1.60969363e-15 3.24605414e-12
1.31825674e+00 3.07566554e-12 3.02939399e-12 7.76121782e-15 3.85103279e-14 2.03896267e-15 3.02939399e-12
1.51356125e+00 2.88947143e-12 2.82719497e-12 5.61045152e-15 5.66660114e-14 2.64454509e-15 2.82719497e-12
1.73780083e+00 2.72617326e-12 2.63849186e-12 4.52389880e-15 8.31574915e-14 3.35345684e-15 2.63849186e-12
1.99526231e+00 2.58286355e-12 2.46238388e-12 3.16609161e-15 1.17313579e-13 3.94212135e-15 2.46238388e-12
2.29086765e+00 2.45560242e-12 2.29803035e-12 2.19044326e-15 1.55381629e-13 4.19344964e-15 2.29803035e-12
2.63026799e+00 2.33877730e-12 2.14464670e-12 1.54211095e-15 1.92588488e-13 4.17214981e-15 2.14464670e-12
3.01995172e+00 2.22593516e-12 2.00150076e-12 1.09453061e-15 2.23339867e-13 3.87036539e-15 2.00150076e-12
3.46736850e+00 2.11251686e-12 1.86790919e-12 7.26437033e-16 2.43881234e-13 3.26538991e-15 1.86790919e-12
3.98107171e+00 1.99669533e-12 1.74323429e-12 4.73113787e-16 2.52987929e-13 2.62489149e-15 1.74323429e-12
4.57088190e+00 1.87657624e-12 1.62688090e-12 3.13674186e-16 2.49381669e-13 1.93645799e-15 1.62688090e-12
5.24807460e+00 1.58376384e-12 1.34518114e-12 1.80982584e-16 2.38401715e-13 1.33660745e-15 1.34518114e-12
6.02559586e+00 1.11068581e-12 8.88752369e-13 7.81280787e-17 2.21855312e-13 8.56102354e-16 8.88752369e-13
6.70000000e+00 8.54192505e-13 6.46481889e-13 4.26786329e-17 2.07667937e-13 5.80127305e-16 6.46481889e-13
6.92422916e+00 7.88279966e-13 5.85688198e-13 3.18737360e-17 2.02559895e-13 5.02490313e-16 5.85688198e-13
7.15596261e+00 7.30064741e-13 5.30611407e-13 2.68285018e-17 1.99426505e-13 4.40532871e-16 5.30611407e-13
7.39545150e+00 6.81610109e-13 4.80713913e-13 2.07503096e-17 2.00875446e-13 3.75486532e-16 4.80713913e-13
7.64295536e+00 6.51535715e-13 4.35508666e-13 1.47611019e-17 2.16012288e-13 3.11008289e-16 4.35508666e-13
7.89874245e+00 6.46555721e-13 3.94554418e-13 8.48674900e-18 2.51992816e-13 2.50194080e-16 3.94554418e-13
8.16308998e+00 6.62921122e-13 3.57451415e-13 4.67247406e-18 3.05465034e-13 1.97732537e-16 3.57451415e-13
8.43628443e+00 7.04832981e-13 3.23837494e-13 2.78886118e-18 3.80992698e-13 1.52045495e-16 3.23837494e-13
8.71862190e+00 7.30484992e-13 2.93384550e-13 1.88194720e-18 4.37098560e-13 1.18607101e-16 2.93384550e-13
9.01040836e+00 7.61148895e-13 2.65795332e-13 1.16195712e-18 4.95352401e-13 8.93342783e-17 2.65795332e-13
9.31196005e+00 7.84706824e-13 2.40800541e-13 0.00000000e+00 5.43906283e-13 0.00000000e+00 2.40800541e-13
9.62360379e+00 7.59332776e-13 2.18156204e-13 0.00000000e+00 5.41176572e-13 0.00000000e+00 2.18156204e-13
9.94567731e+00 7.02562658e-13 1.97641289e-13 0.00000000e+00 5.04921369e-13 0.00000000e+00 1.97641289e-13
1.02785297e+01 6.36535464e-13 1.79055550e-13 0.00000000e+00 4.57479913e-13 0.00000000e+00 1.79055550e-13
1.06225216e+01 5.74207740e-13 1.62217572e-13 0.00000000e+00 4.11990168e-13 0.00000000e+00 1.62217572e-13
1.09780260e+01 5.09553204e-13 1.46962999e-13 0.00000000e+00 3.62590205e-13 0.00000000e+00 1.46962999e-13
1.13454280e+01 4.53419006e-13 1.33142932e-13 0.00000000e+00 3.20276074e-13 0.00000000e+00 1.33142932e-13
1.17251259e+01 4.04561288e-13 1.20622472e-13 0.00000000e+00 2.83938815e-13 0.00000000e+00 1.20622472e-13
1.21175312e+01 3.62011558e-13 1.09279408e-13 0.00000000e+00 2.52732149e-13 0.00000000e+00 1.09279408e-13
1.25230691e+01 3.24157977e-13 9.90030204e-14 0.00000000e+00 2.25154957e-13 0.00000000e+00 9.90030204e-14
1.29421791e+01 2.91602612e-13 8.96930008e-14 0.00000000e+00 2.01909611e-13 0.00000000e+00 8.96930008e-14
1.33753155e+01 2.63778243e-13 8.12584743e-14 0.00000000e+00 1.82519769e-13 0.00000000e+00 8.12584743e-14
1.38229477e+01 2.43467350e-13 7.36171115e-14 0.00000000e+00 1.69850238e-13 0.00000000e+00 7.36171115e-14
1.42855609e+01 2.29551505e-13 6.66943252e-14 0.00000000e+00 1.62857180e-13 0.00000000e+00 6.66943252e-14
1.47636563e+01 2.24910783e-13 6.04225420e-14 0.00000000e+00 1.64488241e-13 0.00000000e+00 6.04225420e-14
1.52577522e+01 2.23210880e-13 5.47405431e-14 0.00000000e+00 1.68470337e-13 0.00000000e+00 5.47405431e-14
1.57683840e+01 2.23222404e-13 4.95928665e-14 0.00000000e+00 1.73629538e-13 0.00000000e+00 4.95928665e-14
1.62961051e+01 2.24257425e-13 4.49292657e-14 0.00000000e+00 1.79328160e-13 0.00000000e+00 4.49292657e-14
1.68414875e+01 2.25209224e-13 4.07042194e-14 0.00000000e+00 1.84505005e-13 0.00000000e+00 4.07042194e-14
1.74051222e+01 2.23560718e-13 3.68764869e-14 0.00000000e+00 1.86684231e-13 0.00000000e+00 3.68764869e-14
1.79876201e+01 2.21029045e-13 3.34087056e-14 0.00000000e+00 1.87620340e-13 0.00000000e+00 3.34087056e-14
1.85896125e+01 2.14267360e-13 3.02670267e-14 0.00000000e+00 1.84000333e-13 0.00000000e+00 3.02670267e-14
1.92117518e+01 2.05350867e-13 2.74207841e-14 0.00000000e+00 1.77930082e-13 0.00000000e+00 2.74207841e-14
1.98547123e+01 1.95333683e-13 2.48421957e-14 0.00000000e+00 1.70491488e-13 0.00000000e+00 2.48421957e-14
2.05191907e+01 1.85203401e-13 2.25060919e-14 0.00000000e+00 1.62697309e-13 0.00000000e+00 2.25060919e-14
2.12059073e+01 1.75519183e-13 2.03896700e-14 0.00000000e+00 1.55129513e-13 0.00000000e+00 2.03896700e-14
2.19156062e+01 1.66945946e-13 1.84722717e-14 0.00000000e+00 1.48473674e-13 0.00000000e+00 1.84722717e-14
2.26490567e+01 1.58944566e-13 1.67351811e-14 0.00000000e+00 1.42209385e-13 0.00000000e+00 1.67351811e-14
2.34070535e+01 1.51591797e-13 1.51614426e-14 0.00000000e+00 1.36430355e-13 0.00000000e+00 1.51614426e-14
2.41904183e+01 1.45007101e-13 1.37356949e-14 0.00000000e+00 1.31271406e-13 0.00000000e+00 1.37356949e-14
2.50000000e+01 1.38865370e-13 1.24440213e-14 0.00000000e+00 1.26421349e-13 0.00000000e+00 1.24440213e-14
2.75422870e+01 1.22064871e-13 9.30637977e-15 0.00000000e+00 1.12758492e-13 0.00000000e+00 9.30637977e-15
3.16227766e+01 1.00512415e-13 6.14866414e-15 0.00000000e+00 9.43637510e-14 0.00000000e+00 6.14866414e-15
3.63078055e+01 8.03924583e-14 4.06238211e-15 0.00000000e+00 7.63300762e-14 0.00000000e+00 4.06238211e-15
4.16869383e+01 6.07776345e-14 2.68398924e-15 0.00000000e+00 5.80936452e-14 0.00000000e+00 2.68398924e-15
4.78630092e+01 4.33959078e-14 1.77329411e-15 0.00000000e+00 4.16226137e-14 0.00000000e+00 1.77329411e-15
5.49540874e+01 2.94516716e-14 1.17160380e-15 0.00000000e+00 2.82800678e-14 0.00000000e+00 1.17160380e-15
6.30957344e+01 1.91064257e-14 7.74070953e-16 0.00000000e+00 1.83323548e-14 0.00000000e+00 7.74070953e-16
7.24435960e+01 1.19287961e-14 5.11423607e-16 0.00000000e+00 1.14173725e-14 0.00000000e+00 5.11423607e-16
8.31763771e+01 7.22378422e-15 3.37894226e-16 0.00000000e+00 6.88589000e-15 0.00000000e+00 3.37894226e-16
9.54992586e+01 4.27554809e-15 2.23244502e-16 0.00000000e+00 4.05230359e-15 0.00000000e+00 2.23244502e-16
1.09647820e+02 2.48430936e-15 1.47496179e-16 0.00000000e+00 2.33681318e-15 0.00000000e+00 1.47496179e-16
1.25892541e+02 1.43639348e-15 9.74497594e-17 0.00000000e+00 1.33894372e-15 0.00000000e+00 9.74497594e-17
1.44543977e+02 8.23925578e-16 6.43844175e-17 0.00000000e+00 7.59541161e-16 0.00000000e+00 6.43844175e-17
1.65958691e+02 4.51442003e-16 4.25383628e-17 0.00000000e+00 4.08903640e-16 0.00000000e+00 4.25383628e-17
1.90546072e+02 2.47545654e-16 2.81048176e-17 0.00000000e+00 2.19440836e-16 0.00000000e+00 2.81048176e-17
2.18776162e+02 1.35725211e-16 1.85686688e-17 0.00000000e+00 1.17156542e-16 0.00000000e+00 1.85686688e-17
2.51188643e+02 7.44141680e-17 1.22681978e-17 0.00000000e+00 6.21459701e-17 0.00000000e+00 1.22681978e-17
2.88403150e+02 4.08280375e-17 8.10551794e-18 0.00000000e+00 3.27225196e-17 0.00000000e+00 8.10551794e-18
3.31131121e+02 2.24984013e-17 5.35526259e-18 0.00000000e+00 1.71431387e-17 0.00000000e+00 5.35526259e-18
3.80189396e+02 1.24674032e-17 3.53818691e-18 0.00000000e+00 8.92921632e-18 0.00000000e+00 3.53818691e-18
4.36515832e+02 6.96903149e-18 2.33765691e-18 0.00000000e+00 4.63137458e-18 0.00000000e+00 2.33765691e-18
5.01187234e+02 3.93648934e-18 1.54447460e-18 0.00000000e+00 2.39201474e-18 0.00000000e+00 1.54447460e-18
5.75439937e+02 2.25149720e-18 1.02042425e-18 0.00000000e+00 1.23107295e-18 0.00000000e+00 1.02042425e-18
6.60693448e+02 1.30584864e-18 6.74187617e-19 0.00000000e+00 6.31661026e-19 0.00000000e+00 6.74187617e-19
7.58577575e+02 7.68678084e-19 4.45431341e-19 0.00000000e+00 3.23246743e-19 0.00000000e+00 4.45431341e-19
8.70963590e+02 4.59290247e-19 2.94293569e-19 0.00000000e+00 1.64996679e-19 0.00000000e+00 2.94293569e-19
1.00000000e+03 8.40246595e-20 0.00000000e+00 0.00000000e+00 8.40246595e-20 0.00000000e+00 0.00000000e+00
