# column 1: lambda (micron)
# column 2: total flux; lambda*F_lambda (W/m2)
# column 3: direct stellar flux; lambda*F_lambda (W/m2)
# column 4: scattered stellar flux; lambda*F_lambda (W/m2)
# column 5: total dust emission flux; lambda*F_lambda (W/m2)
# column 6: dust emission scattered flux; lambda*F_lambda (W/m2)
# column 7: transparent flux; lambda*F_lambda (W/m2)
1.00000000e-03 1.04609845e-12 1.04609746e-12 9.89905357e-19 0.00000000e+00 0.00000000e+00 1.04634360e-12
1.14815362e-03 1.23463868e-12 1.23463713e-12 1.55154964e-18 0.00000000e+00 0.00000000e+00 1.23502095e-12
1.31825674e-03 1.45714718e-12 1.45714474e-12 2.43203286e-18 0.00000000e+00 0.00000000e+00 1.45772071e-12
1.51356125e-03 1.71978015e-12 1.71977637e-12 3.77937433e-18 0.00000000e+00 0.00000000e+00 1.72057784e-12
1.73780083e-03 2.02988460e-12 2.02987777e-12 6.83944144e-18 0.00000000e+00 0.00000000e+00 2.03083353e-12
1.99526231e-03 2.39555177e-12 2.39553916e-12 1.26110284e-17 0.00000000e+00 0.00000000e+00 2.39703472e-12
2.29086765e-03 2.82741708e-12 2.82739768e-12 1.94065410e-17 0.00000000e+00 0.00000000e+00 2.82926954e-12
2.63026799e-03 3.33683693e-12 3.33679775e-12 3.91788368e-17 0.00000000e+00 0.00000000e+00 3.33944522e-12
3.01995172e-03 3.93782066e-12 3.93775168e-12 6.89718132e-17 0.00000000e+00 0.00000000e+00 3.94161611e-12
3.46736850e-03 4.64711327e-12 4.64699508e-12 1.18187268e-16 0.00000000e+00 0.00000000e+00 4.65237083e-12
3.98107171e-03 5.48421355e-12 5.48402690e-12 1.86647321e-16 0.00000000e+00 0.00000000e+00 5.49128930e-12
4.57088190e-03 6.47626916e-12 6.47576292e-12 5.06242079e-16 0.00000000e+00 0.00000000e+00 6.48148207e-12
5.24807460e-03 7.64231488e-12 7.64160619e-12 7.08690268e-16 0.00000000e+00 0.00000000e+00 7.65022704e-12
6.02559586e-03 9.01882252e-12 9.01745333e-12 1.36919780e-15 0.00000000e+00 0.00000000e+00 9.02972084e-12
6.91830971e-03 1.06434865e-11 1.06412562e-11 2.23032926e-15 0.00000000e+00 0.00000000e+00 1.06579658e-11
7.94328235e-03 1.25615003e-11 1.25578151e-11 3.68513625e-15 4.13412218e-304 4.23249860e-307 1.25798170e-11
9.12010839e-03 1.48331184e-11 1.48194023e-11 1.37160911e-14 1.87385719e-265 1.03695126e-267 1.48482176e-11
1.04712855e-02 1.65849293e-11 1.65491939e-11 3.57353276e-14 8.09034577e-232 1.48981325e-234 1.65834298e-11
1.20226443e-02 1.65700941e-11 1.65471756e-11 2.29184252e-14 1.29716505e-202 4.94701685e-205 1.65834298e-11
1.38038426e-02 1.65716978e-11 1.65447820e-11 2.69158389e-14 3.60065832e-177 1.43372694e-179 1.65834298e-11
1.58489319e-02 1.65828374e-11 1.65418409e-11 4.09965599e-14 4.96016733e-155 3.13533153e-157 1.65834298e-11
1.81970086e-02 1.65844513e-11 1.65391287e-11 4.53226026e-14 8.98434142e-136 7.18219055e-138 1.65834298e-11
2.08929613e-02 1.65957735e-11 1.65368746e-11 5.88988462e-14 4.76322111e-119 5.47829746e-121 1.65834298e-11
2.39883292e-02 1.66144642e-11 1.65339545e-11 8.05096465e-14 1.69556141e-104 2.80683933e-106 1.65834298e-11
2.75422870e-02 1.66292952e-11 1.65305586e-11 9.87365764e-14 7.67975869e-92 1.59376179e-93 1.65834298e-11
3.16227766e-02 1.66525510e-11 1.65272306e-11 1.25320385e-13 7.57708401e-81 1.99410912e-82 1.65834298e-11
3.63078055e-02 1.66654422e-11 1.65246207e-11 1.40821500e-13 2.65575714e-71 8.36141101e-73 1.65834298e-11
4.16869383e-02 1.67155664e-11 1.65223637e-11 1.93202670e-13 5.12167352e-63 2.22728126e-64 1.65834298e-11
4.78630092e-02 1.67791128e-11 1.65161439e-11 2.62968914e-13 7.86775224e-56 4.67163400e-57 1.65834298e-11
5.49540874e-02 1.68292645e-11 1.65074979e-11 3.21766600e-13 1.32903240e-49 9.93684390e-51 1.65834298e-11
6.30957344e-02 1.68719736e-11 1.64858381e-11 3.86135431e-13 4.37320413e-44 4.01684458e-45 1.65834298e-11
7.24435960e-02 1.68241500e-11 1.64602186e-11 3.63931396e-13 2.54315475e-39 2.27435154e-40 1.65834298e-11
8.31763771e-02 1.68277414e-11 1.64624967e-11 3.65244675e-13 2.60954525e-35 2.30582517e-36 1.65834298e-11
9.54992586e-02 1.68475070e-11 1.64691802e-11 3.78326733e-13 7.39689807e-32 6.91353737e-33 1.65834298e-11
1.09647820e-01 1.61313235e-11 1.57463647e-11 3.84958818e-13 6.29402713e-29 6.22053470e-30 1.58370587e-11
1.25892541e-01 1.50608716e-11 1.47102956e-11 3.50575960e-13 2.02948494e-26 1.89147421e-27 1.47800032e-11
1.44543977e-01 1.40523779e-11 1.37395588e-11 3.12819129e-13 2.75587998e-24 2.45268350e-25 1.37935015e-11
1.65958691e-01 1.31538979e-11 1.28288070e-11 3.25090943e-13 1.40415121e-22 1.38825819e-23 1.28728446e-11
1.90546072e-01 1.23341016e-11 1.19697969e-11 3.64304756e-13 2.99580069e-21 3.55891655e-22 1.20136376e-11
2.18776162e-01 1.15211608e-11 1.11638002e-11 3.57360587e-13 3.58166857e-20 4.60212666e-21 1.12117790e-11
2.51188643e-01 1.08409526e-11 1.04276161e-11 4.13336084e-13 4.40728114e-19 6.85515648e-20 1.04634409e-11
2.88403150e-01 1.01069459e-11 9.73728519e-12 3.69657098e-13 3.64112760e-18 5.40166319e-19 9.76505125e-12
3.31131121e-01 9.42607250e-12 9.09068320e-12 3.35368490e-13 2.08030378e-17 2.98414188e-18 9.11327608e-12
3.80189396e-01 8.78700746e-12 8.48648553e-12 3.00435603e-13 8.63259945e-17 1.18401193e-17 8.50500410e-12
4.36515832e-01 8.19170198e-12 7.92228829e-12 2.69138311e-13 2.75381501e-16 3.75717412e-17 7.93733165e-12
5.01187234e-01 7.64697396e-12 7.39549400e-12 2.50764434e-13 7.15529908e-16 1.00544323e-16 7.40754890e-12
5.75439937e-01 7.13184518e-12 6.90356645e-12 2.26594159e-13 1.68457702e-15 2.60998459e-16 6.91312687e-12
6.60693448e-01 6.65268139e-12 6.44418891e-12 2.04393227e-13 4.09925165e-15 7.39246324e-16 6.45170538e-12
7.58577575e-01 6.20933551e-12 6.01524415e-12 1.82979864e-13 1.11114875e-14 2.27483596e-15 6.02108180e-12
8.70963590e-01 5.80661653e-12 5.61476716e-12 1.60729706e-13 3.11196628e-14 6.60957724e-15 5.61920048e-12
1.00000000e+00 5.45528129e-12 5.24083059e-12 1.33765899e-13 8.06848030e-14 1.65237602e-14 5.24414302e-12
1.14815362e+00 5.19305217e-12 4.89168808e-12 1.09481964e-13 1.91882117e-13 3.62119581e-14 4.89411902e-12
1.31825674e+00 5.06248177e-12 4.56570461e-12 8.69132068e-14 4.09863952e-13 6.87273374e-14 4.56745763e-12
1.51356125e+00 5.11315003e-12 4.26134810e-12 6.66795627e-14 7.85122365e-13 1.13750511e-13 4.26259947e-12
1.73780083e+00 5.36650156e-12 3.97721055e-12 5.00330400e-14 1.33925798e-12 1.63359341e-13 3.97808929e-12
1.99526231e+00 5.78575777e-12 3.71196155e-12 3.65546445e-14 2.03724158e-12 2.00275475e-13 3.71256894e-12
2.29086765e+00 6.31742038e-12 3.46435240e-12 2.65151123e-14 2.82655287e-12 2.16816314e-13 3.46477093e-12
2.63026799e+00 6.85367452e-12 3.23322128e-12 1.85279599e-14 3.60192528e-12 2.15419470e-13 3.23351237e-12
3.01995172e+00 7.31647612e-12 3.01748427e-12 1.28246637e-14 4.28616719e-12 1.95007543e-13 3.01768933e-12
3.46736850e+00 7.66193435e-12 2.81612473e-12 8.84051229e-15 4.83696911e-12 1.67381840e-13 2.81627154e-12
3.98107171e+00 7.87273068e-12 2.62819108e-12 6.05707753e-15 5.23848252e-12 1.35200010e-13 2.62829753e-12
4.57088190e+00 7.90271999e-12 2.45279173e-12 4.07888961e-15 5.44584937e-12 1.01200813e-13 2.45286997e-12
5.24807460e+00 7.57399008e-12 2.02809554e-12 2.31710145e-15 5.54357744e-12 7.18930222e-14 2.02814751e-12
6.02559586e+00 6.85497028e-12 1.33995524e-12 1.01053948e-15 5.51400450e-12 4.76902324e-14 1.33998377e-12
6.70000000e+00 6.39288737e-12 9.74690975e-13 5.24045216e-16 5.41767235e-12 3.31979357e-14 9.74709347e-13
6.92422916e+00 6.25945908e-12 8.83033828e-13 4.20522731e-16 5.37600473e-12 2.94464087e-14 8.83049889e-13
7.15596261e+00 6.14372337e-12 7.99995582e-13 3.29154015e-16 5.34339863e-12 2.56306603e-14 8.00009879e-13
7.39545150e+00 6.12263906e-12 7.24765502e-13 2.51999515e-16 5.39762156e-12 2.20444339e-14 7.24778763e-13
7.64295536e+00 6.27664204e-12 6.56608522e-13 1.75255886e-16 5.61985827e-12 1.79784661e-14 6.56622211e-13
7.89874245e+00 6.74520961e-12 5.94858923e-13 1.06506191e-16 6.15024418e-12 1.38287505e-14 5.94874946e-13
8.16308998e+00 7.39333741e-12 5.38914654e-13 6.12954951e-17 6.85436146e-12 1.03615202e-14 5.38934254e-13
8.43628443e+00 8.28455792e-12 4.88229428e-13 3.30765568e-17 7.79629541e-12 7.63896142e-15 4.88254098e-13
8.71862190e+00 8.89085980e-12 4.42312327e-13 2.09383639e-17 8.44852654e-12 5.91186752e-15 4.42339790e-13
9.01040836e+00 9.49934877e-12 4.00713018e-13 1.27088673e-17 9.09862305e-12 4.47977752e-15 4.00743158e-13
9.31196005e+00 1.00155985e-11 3.63026510e-13 0.00000000e+00 9.65257199e-12 0.00000000e+00 3.63058180e-13
9.62360379e+00 9.92306482e-12 3.28887564e-13 0.00000000e+00 9.59417726e-12 0.00000000e+00 3.28917012e-13
9.94567731e+00 9.58252207e-12 2.97961369e-13 0.00000000e+00 9.28456071e-12 0.00000000e+00 2.97986401e-13
1.02785297e+01 8.97599625e-12 2.69943919e-13 0.00000000e+00 8.70605233e-12 0.00000000e+00 2.69964435e-13
1.06225216e+01 8.46947493e-12 2.44560957e-13 0.00000000e+00 8.22491397e-12 0.00000000e+00 2.44577592e-13
1.09780260e+01 7.89497679e-12 2.21565068e-13 0.00000000e+00 7.67341172e-12 0.00000000e+00 2.21578069e-13
1.13454280e+01 7.42711937e-12 2.00731168e-13 0.00000000e+00 7.22638820e-12 0.00000000e+00 2.00741370e-13
1.17251259e+01 6.96301845e-12 1.81856050e-13 0.00000000e+00 6.78116240e-12 0.00000000e+00 1.81864106e-13
1.21175312e+01 6.54800787e-12 1.64755688e-13 0.00000000e+00 6.38325218e-12 0.00000000e+00 1.64762018e-13
1.25230691e+01 6.19236293e-12 1.49263211e-13 0.00000000e+00 6.04309972e-12 0.00000000e+00 1.49268171e-13
1.29421791e+01 5.86573321e-12 1.35227417e-13 0.00000000e+00 5.73050579e-12 0.00000000e+00 1.35231331e-13
1.33753155e+01 5.54974226e-12 1.22511373e-13 0.00000000e+00 5.42723089e-12 0.00000000e+00 1.22514483e-13
1.38229477e+01 5.33991300e-12 1.10990913e-13 0.00000000e+00 5.22892208e-12 0.00000000e+00 1.10993499e-13
1.42855609e+01 5.21831295e-12 1.00553674e-13 0.00000000e+00 5.11775927e-12 0.00000000e+00 1.00555922e-13
1.47636563e+01 5.25634455e-12 9.10977379e-14 0.00000000e+00 5.16524681e-12 0.00000000e+00 9.10998706e-14
1.52577522e+01 5.32843574e-12 8.25309846e-14 0.00000000e+00 5.24590475e-12 0.00000000e+00 8.25330452e-14
1.57683840e+01 5.42309404e-12 7.47698081e-14 0.00000000e+00 5.34832423e-12 0.00000000e+00 7.47718247e-14
1.62961051e+01 5.50989664e-12 6.77384806e-14 0.00000000e+00 5.44215816e-12 0.00000000e+00 6.77404517e-14
1.68414875e+01 5.56574000e-12 6.13683708e-14 0.00000000e+00 5.50437163e-12 0.00000000e+00 6.13702932e-14
1.74051222e+01 5.55937668e-12 5.55973444e-14 0.00000000e+00 5.50377934e-12 0.00000000e+00 5.55991699e-14
1.79876201e+01 5.52723147e-12 5.03690455e-14 0.00000000e+00 5.47686243e-12 0.00000000e+00 5.03707500e-14
1.85896125e+01 5.41880633e-12 4.56324566e-14 0.00000000e+00 5.37317388e-12 0.00000000e+00 4.56339988e-14
1.92117518e+01 5.32246307e-12 4.13413264e-14 0.00000000e+00 5.28112174e-12 0.00000000e+00 4.13426810e-14
1.98547123e+01 5.13193110e-12 3.74537423e-14 0.00000000e+00 5.09447736e-12 0.00000000e+00 3.74549090e-14
2.05191907e+01 4.94718858e-12 3.39317396e-14 0.00000000e+00 4.91325684e-12 0.00000000e+00 3.39327342e-14
2.12059073e+01 4.74640180e-12 3.07409290e-14 0.00000000e+00 4.71566087e-12 0.00000000e+00 3.07417768e-14
2.19156062e+01 4.56935340e-12 2.78501636e-14 0.00000000e+00 4.54150324e-12 0.00000000e+00 2.78508898e-14
2.26490567e+01 4.37322384e-12 2.52312322e-14 0.00000000e+00 4.34799260e-12 0.00000000e+00 2.52318552e-14
2.34070535e+01 4.18857207e-12 2.28585732e-14 0.00000000e+00 4.16571350e-12 0.00000000e+00 2.28591087e-14
2.41904183e+01 4.01230905e-12 2.07090285e-14 0.00000000e+00 3.99160002e-12 0.00000000e+00 2.07094900e-14
2.50000000e+01 3.83910432e-12 1.87616180e-14 0.00000000e+00 3.82034270e-12 0.00000000e+00 1.87620165e-14
2.75422870e+01 3.31267262e-12 1.40310928e-14 0.00000000e+00 3.29864153e-12 0.00000000e+00 1.40313526e-14
3.16227766e+01 2.58693896e-12 9.27027997e-15 0.00000000e+00 2.57766868e-12 0.00000000e+00 9.27042274e-15
3.63078055e+01 1.91833270e-12 6.12482954e-15 0.00000000e+00 1.91220787e-12 0.00000000e+00 6.12490756e-15
4.16869383e+01 1.33722685e-12 4.04664478e-15 0.00000000e+00 1.33318021e-12 0.00000000e+00 4.04668630e-15
4.78630092e+01 8.71331528e-13 2.67359772e-15 0.00000000e+00 8.68657930e-13 0.00000000e+00 2.67361912e-15
5.49540874e+01 5.39707075e-13 1.76643184e-15 0.00000000e+00 5.37940643e-13 0.00000000e+00 1.76644264e-15
6.30957344e+01 3.19881175e-13 1.16707170e-15 0.00000000e+00 3.18714103e-13 0.00000000e+00 1.16707708e-15
7.24435960e+01 1.83075819e-13 7.71077517e-16 0.00000000e+00 1.82304742e-13 0.00000000e+00 7.71080178e-16
8.31763771e+01 1.02000683e-13 5.09446308e-16 0.00000000e+00 1.01491237e-13 0.00000000e+00 5.09447621e-16
9.54992586e+01 5.58866339e-14 3.36588055e-16 0.00000000e+00 5.55500458e-14 0.00000000e+00 3.36588705e-16
1.09647820e+02 3.02248890e-14 2.22381629e-16 0.00000000e+00 3.00025073e-14 0.00000000e+00 2.22381952e-16
1.25892541e+02 1.63740022e-14 1.46926136e-16 0.00000000e+00 1.62270761e-14 0.00000000e+00 1.46926299e-16
1.44543977e+02 8.84513541e-15 9.70731603e-17 0.00000000e+00 8.74806225e-15 0.00000000e+00 9.70732430e-17
1.65958691e+02 4.56470721e-15 6.41356151e-17 0.00000000e+00 4.50057159e-15 0.00000000e+00 6.41356556e-17
1.90546072e+02 2.36328344e-15 4.23739874e-17 0.00000000e+00 2.32090945e-15 0.00000000e+00 4.23740075e-17
2.18776162e+02 1.22509908e-15 2.79962191e-17 0.00000000e+00 1.19710286e-15 0.00000000e+00 2.79962291e-17
2.51188643e+02 6.34740367e-16 1.84969201e-17 0.00000000e+00 6.16243447e-16 0.00000000e+00 1.84969251e-17
2.88403150e+02 3.28386201e-16 1.22207947e-17 0.00000000e+00 3.16165406e-16 0.00000000e+00 1.22207972e-17
3.31131121e+02 1.70024864e-16 8.07419942e-18 0.00000000e+00 1.61950665e-16 0.00000000e+00 8.07420067e-18
3.80189396e+02 8.80529085e-17 5.33457085e-18 0.00000000e+00 8.27183376e-17 0.00000000e+00 5.33457148e-18
4.36515832e+02 4.57089840e-17 3.52451611e-18 0.00000000e+00 4.21844679e-17 0.00000000e+00 3.52451642e-18
5.01187234e+02 2.37990577e-17 2.32862475e-18 0.00000000e+00 2.14704329e-17 0.00000000e+00 2.32862491e-18
5.75439937e+02 1.24490644e-17 1.53850714e-18 0.00000000e+00 1.09105573e-17 0.00000000e+00 1.53850722e-18
6.60693448e+02 6.55336920e-18 1.01648160e-18 0.00000000e+00 5.53688760e-18 0.00000000e+00 1.01648164e-18
7.58577575e+02 3.47808620e-18 6.71582740e-19 0.00000000e+00 2.80650346e-18 0.00000000e+00 6.71582760e-19
8.70963590e+02 1.86444066e-18 4.43710319e-19 0.00000000e+00 1.42073034e-18 0.00000000e+00 4.43710329e-19
1.00000000e+03 7.18329011e-19 0.00000000e+00 0.00000000e+00 7.18329011e-19 0.00000000e+00 0.00000000e+00
