# column 1: lambda (micron)
# column 2: total flux; lambda*F_lambda (W/m2)
# column 3: direct stellar flux; lambda*F_lambda (W/m2)
# column 4: scattered stellar flux; lambda*F_lambda (W/m2)
# column 5: total dust emission flux; lambda*F_lambda (W/m2)
# column 6: dust emission scattered flux; lambda*F_lambda (W/m2)
# column 7: transparent flux; lambda*F_lambda (W/m2)
1.00000000e-03 1.07224162e-12 1.07223050e-12 1.11216459e-17 0.00000000e+00 0.00000000e+00 1.07335627e-12
1.14815362e-03 1.26516552e-12 1.26514934e-12 1.61815760e-17 0.00000000e+00 0.00000000e+00 1.26690456e-12
1.31825674e-03 1.49274395e-12 1.49272006e-12 2.38862325e-17 0.00000000e+00 0.00000000e+00 1.49535359e-12
1.51356125e-03 1.76136821e-12 1.76133256e-12 3.56473434e-17 0.00000000e+00 0.00000000e+00 1.76499670e-12
1.73780083e-03 2.07895681e-12 2.07889252e-12 6.42889171e-17 0.00000000e+00 0.00000000e+00 2.08326203e-12
1.99526231e-03 2.45222707e-12 2.45208164e-12 1.45433763e-16 0.00000000e+00 0.00000000e+00 2.45891716e-12
2.29086765e-03 2.89405309e-12 2.89375577e-12 2.97320564e-16 0.00000000e+00 0.00000000e+00 2.90231066e-12
2.63026799e-03 3.41395156e-12 3.41356028e-12 3.91274713e-16 0.00000000e+00 0.00000000e+00 3.42565717e-12
3.01995172e-03 4.02647163e-12 4.02572219e-12 7.49436249e-16 0.00000000e+00 0.00000000e+00 4.04337385e-12
3.46736850e-03 4.74888830e-12 4.74793005e-12 9.58257834e-16 0.00000000e+00 0.00000000e+00 4.77247759e-12
3.98107171e-03 5.68784123e-12 5.59990074e-12 8.79404902e-14 0.00000000e+00 0.00000000e+00 5.63305378e-12
4.57088190e-03 6.62736627e-12 6.62268163e-12 4.68463271e-15 0.00000000e+00 0.00000000e+00 6.64880962e-12
5.24807460e-03 7.81739550e-12 7.80835943e-12 9.03607335e-15 0.00000000e+00 0.00000000e+00 7.84772720e-12
6.02559586e-03 9.21861371e-12 9.20683629e-12 1.17774230e-14 0.00000000e+00 0.00000000e+00 9.26283435e-12
6.91830971e-03 1.08739064e-11 1.08568669e-11 1.70394318e-14 0.00000000e+00 0.00000000e+00 1.09331145e-11
7.94328235e-03 1.28403668e-11 1.28042155e-11 3.61512737e-14 0.00000000e+00 0.00000000e+00 1.29045807e-11
9.12010839e-03 1.51772658e-11 1.51001409e-11 7.71249329e-14 0.00000000e+00 0.00000000e+00 1.52315429e-11
1.04712855e-02 1.69557229e-11 1.68554647e-11 1.00258186e-13 0.00000000e+00 0.00000000e+00 1.70115517e-11
1.20226443e-02 1.69646248e-11 1.68462976e-11 1.18327157e-13 0.00000000e+00 0.00000000e+00 1.70115517e-11
1.38038426e-02 1.69901929e-11 1.68354309e-11 1.54761936e-13 1.24327596e-295 2.22598285e-296 1.70115517e-11
1.58489319e-02 1.70096491e-11 1.68220862e-11 1.87562907e-13 4.80209636e-258 6.31739574e-259 1.70115517e-11
1.81970086e-02 1.70460172e-11 1.68097874e-11 2.36229798e-13 2.71103323e-225 4.34161477e-226 1.70115517e-11
2.08929613e-02 1.71080502e-11 1.67995714e-11 3.08478851e-13 7.98383332e-197 1.31420714e-197 1.70115517e-11
2.39883292e-02 1.71588970e-11 1.67863440e-11 3.72552935e-13 4.78080498e-172 7.35226771e-173 1.70115517e-11
2.75422870e-02 1.72224360e-11 1.67709714e-11 4.51464540e-13 1.73774454e-150 2.63530255e-151 1.70115517e-11
3.16227766e-02 1.72656176e-11 1.67559166e-11 5.09700947e-13 9.76585692e-132 1.44957345e-132 1.70115517e-11
3.63078055e-02 1.72607316e-11 1.67441178e-11 5.16613725e-13 2.00252811e-115 3.10830906e-116 1.70115517e-11
4.16869383e-02 1.73461798e-11 1.67339195e-11 6.12260366e-13 3.02533536e-101 5.18915497e-102 1.70115517e-11
4.78630092e-02 1.73080268e-11 1.67058400e-11 6.02186760e-13 6.15580510e-89 1.07695990e-89 1.70115517e-11
5.49540874e-02 1.72210048e-11 1.66668686e-11 5.54136244e-13 2.96592413e-78 5.28092339e-79 1.70115517e-11
6.30957344e-02 1.70139070e-11 1.65695470e-11 4.44359972e-13 7.02330261e-69 1.22007727e-69 1.70115517e-11
7.24435960e-02 1.67731191e-11 1.64550033e-11 3.18115721e-13 9.36391129e-61 1.46959716e-61 1.70115517e-11
8.31763771e-02 1.67695160e-11 1.64651639e-11 3.04352130e-13 8.85984554e-54 1.33662828e-54 1.70115517e-11
9.54992586e-02 1.68045281e-11 1.64950003e-11 3.09527722e-13 9.61140957e-48 1.50008680e-48 1.70115517e-11
1.09647820e-01 1.61985455e-11 1.58350351e-11 3.63510421e-13 1.56774685e-42 2.70440402e-43 1.62459122e-11
1.25892541e-01 1.52709179e-11 1.48452140e-11 4.25703942e-13 5.00704296e-38 9.31499541e-39 1.51615674e-11
1.44543977e-01 1.43280338e-11 1.39044484e-11 4.23585419e-13 3.70717970e-34 6.99627465e-35 1.41495980e-11
1.65958691e-01 1.34403513e-11 1.30048687e-11 4.35482520e-13 6.17597517e-31 1.27466473e-31 1.32051732e-11
1.90546072e-01 1.25316706e-11 1.21244548e-11 4.07215889e-13 2.64718785e-28 6.37887825e-29 1.23237846e-11
2.18776162e-01 1.15839653e-11 1.12833183e-11 3.00647010e-13 4.17065306e-26 1.00136286e-26 1.15012250e-11
2.51188643e-01 1.09242243e-11 1.05706199e-11 3.53604469e-13 5.88928171e-24 1.77190507e-24 1.07335677e-11
2.88403150e-01 1.02643752e-11 9.89072855e-12 3.73646603e-13 4.19257586e-22 1.35836139e-22 1.00171482e-11
3.31131121e-01 9.61112633e-12 9.24561577e-12 3.65510537e-13 1.65097016e-20 5.75710992e-21 9.34854667e-12
3.80189396e-01 8.98363639e-12 8.64015859e-12 3.43477405e-13 3.94738539e-19 1.45179315e-19 8.72457139e-12
4.36515832e-01 8.40023101e-12 8.07363843e-12 3.26586373e-13 6.21107106e-18 2.40260130e-18 8.14224377e-12
5.01187234e-01 7.85383318e-12 7.54378209e-12 3.09983650e-13 6.74386454e-17 2.68304581e-17 7.59878402e-12
5.75439937e-01 7.33616507e-12 7.04795883e-12 2.87688512e-13 5.17731185e-16 2.05618134e-16 7.09159786e-12
6.60693448e-01 6.84012619e-12 6.58394195e-12 2.53130938e-13 3.05330232e-15 1.22053704e-15 6.61826421e-12
7.58577575e-01 6.39102127e-12 6.14985826e-12 2.27235209e-13 1.39278068e-14 5.37900528e-15 6.17652353e-12
8.70963590e-01 5.99167098e-12 5.74401021e-12 1.95930963e-13 5.17298097e-14 1.88543997e-14 5.76426715e-12
1.00000000e+00 5.68397160e-12 5.36438771e-12 1.64123556e-13 1.55460340e-13 5.16050812e-14 5.37952711e-12
1.14815362e+00 5.54342596e-12 5.00935364e-12 1.35450290e-13 3.98622027e-13 1.17481877e-13 5.02046681e-12
1.31825674e+00 5.68536713e-12 4.67735666e-12 1.03522423e-13 9.04488043e-13 2.28221376e-13 4.68537225e-12
1.51356125e+00 6.25323407e-12 4.36692107e-12 8.18473261e-14 1.80446568e-12 3.84510930e-13 4.37264380e-12
1.73780083e+00 7.32819614e-12 4.07676947e-12 6.42799619e-14 3.18714671e-12 5.52767160e-13 4.08078863e-12
1.99526231e+00 8.90988173e-12 3.80563520e-12 4.99734389e-14 5.05427309e-12 6.97221996e-13 3.80841354e-12
2.29086765e+00 1.08114314e-11 3.55230374e-12 3.94994376e-14 7.21962825e-12 7.81473802e-13 3.55421832e-12
2.63026799e+00 1.27638812e-11 3.31565785e-12 3.03925894e-14 9.41783077e-12 8.02743078e-13 3.31698953e-12
3.01995172e+00 1.47541348e-11 3.09465659e-12 2.34629492e-14 1.16360152e-11 7.77664399e-13 3.09559474e-12
3.46736850e+00 1.66071392e-11 2.88830542e-12 1.79383601e-14 1.37008954e-11 7.16752538e-13 2.88897711e-12
3.98107171e+00 1.81013080e-11 2.69566326e-12 1.37567442e-14 1.53918880e-11 6.22108044e-13 2.69615031e-12
4.57088190e+00 1.92883583e-11 2.51583589e-12 1.00388664e-14 1.67624835e-11 5.06877664e-13 2.51619387e-12
5.24807460e+00 1.98638147e-11 2.08026888e-12 6.19015282e-15 1.77773557e-11 3.74616400e-13 2.08050667e-12
6.02559586e+00 1.98108539e-11 1.37444657e-12 2.91454692e-15 1.84334928e-11 2.61497252e-13 1.37457712e-12
6.70000000e+00 1.94928644e-11 9.99788627e-13 1.56936495e-15 1.84915064e-11 1.86363773e-13 9.99872685e-13
6.92422916e+00 1.93648956e-11 9.05773440e-13 1.28257364e-15 1.84578396e-11 1.65930942e-13 9.05846924e-13
7.15596261e+00 1.93111590e-11 8.20597721e-13 1.02502629e-15 1.84895362e-11 1.46162381e-13 8.20663132e-13
7.39545150e+00 1.92300532e-11 7.43429156e-13 7.76988750e-16 1.84858471e-11 1.23498392e-13 7.43489831e-13
7.64295536e+00 1.93971907e-11 6.73511102e-13 5.16738404e-16 1.87231628e-11 9.75170239e-14 6.73573732e-13
7.89874245e+00 1.96204356e-11 6.10159076e-13 2.87249430e-16 1.90099893e-11 6.94105653e-14 6.10232385e-13
8.16308998e+00 1.97167423e-11 5.52757838e-13 1.48225737e-16 1.91638362e-11 4.69722971e-14 5.52847515e-13
8.43628443e+00 1.96225507e-11 5.00746117e-13 7.34947427e-17 1.91217311e-11 3.03894583e-14 5.00858987e-13
8.71862190e+00 1.96141697e-11 4.53633701e-13 4.41070693e-17 1.91604919e-11 2.24504369e-14 4.53759343e-13
9.01040836e+00 1.93425400e-11 4.10950955e-13 2.71236431e-17 1.89315619e-11 1.65763896e-14 4.11088843e-13
9.31196005e+00 1.93110109e-11 3.72286096e-13 0.00000000e+00 1.89387248e-11 0.00000000e+00 3.72430980e-13
9.62360379e+00 1.91167343e-11 3.37273698e-13 0.00000000e+00 1.87794606e-11 0.00000000e+00 3.37408415e-13
9.94567731e+00 1.89816118e-11 3.05564772e-13 0.00000000e+00 1.86760470e-11 0.00000000e+00 3.05679292e-13
1.02785297e+01 1.87855406e-11 2.76840044e-13 0.00000000e+00 1.85087006e-11 0.00000000e+00 2.76933904e-13
1.06225216e+01 1.89584210e-11 2.50815565e-13 0.00000000e+00 1.87076054e-11 0.00000000e+00 2.50891667e-13
1.09780260e+01 1.89946425e-11 2.27238904e-13 0.00000000e+00 1.87674036e-11 0.00000000e+00 2.27298384e-13
1.13454280e+01 1.91248439e-11 2.05877085e-13 0.00000000e+00 1.89189668e-11 0.00000000e+00 2.05923759e-13
1.17251259e+01 1.92133168e-11 1.86522294e-13 0.00000000e+00 1.90267945e-11 0.00000000e+00 1.86559155e-13
1.21175312e+01 1.94425281e-11 1.68986593e-13 0.00000000e+00 1.92735415e-11 0.00000000e+00 1.69015555e-13
1.25230691e+01 1.95115703e-11 1.53099022e-13 0.00000000e+00 1.93584712e-11 0.00000000e+00 1.53121715e-13
1.29421791e+01 1.96203547e-11 1.38704591e-13 0.00000000e+00 1.94816502e-11 0.00000000e+00 1.38722496e-13
1.33753155e+01 1.95461845e-11 1.25663118e-13 0.00000000e+00 1.94205214e-11 0.00000000e+00 1.25677347e-13
1.38229477e+01 1.95630919e-11 1.13847105e-13 0.00000000e+00 1.94492448e-11 0.00000000e+00 1.13858934e-13
1.42855609e+01 1.95724702e-11 1.03141617e-13 0.00000000e+00 1.94693286e-11 0.00000000e+00 1.03151898e-13
1.47636563e+01 1.97138500e-11 9.34419698e-14 0.00000000e+00 1.96204080e-11 0.00000000e+00 9.34517274e-14
1.52577522e+01 2.00636441e-11 8.46543107e-14 0.00000000e+00 1.99789898e-11 0.00000000e+00 8.46637387e-14
1.57683840e+01 2.02813327e-11 7.66929261e-14 0.00000000e+00 2.02046398e-11 0.00000000e+00 7.67021526e-14
1.62961051e+01 2.06572104e-11 6.94802376e-14 0.00000000e+00 2.05877302e-11 0.00000000e+00 6.94892560e-14
1.68414875e+01 2.08422340e-11 6.29458487e-14 0.00000000e+00 2.07792882e-11 0.00000000e+00 6.29546439e-14
1.74051222e+01 2.11102218e-11 5.70261797e-14 0.00000000e+00 2.10531956e-11 0.00000000e+00 5.70345319e-14
1.79876201e+01 2.12227431e-11 5.16633354e-14 0.00000000e+00 2.11710798e-11 0.00000000e+00 5.16711337e-14
1.85896125e+01 2.15065204e-11 4.68050415e-14 0.00000000e+00 2.14597153e-11 0.00000000e+00 4.68120974e-14
1.92117518e+01 2.15667809e-11 4.24037962e-14 0.00000000e+00 2.15243771e-11 0.00000000e+00 4.24099939e-14
1.98547123e+01 2.13366006e-11 3.84165166e-14 0.00000000e+00 2.12981841e-11 0.00000000e+00 3.84218542e-14
2.05191907e+01 2.13681425e-11 3.48041996e-14 0.00000000e+00 2.13333383e-11 0.00000000e+00 3.48087501e-14
2.12059073e+01 2.12193363e-11 3.15315352e-14 0.00000000e+00 2.11878048e-11 0.00000000e+00 3.15354141e-14
2.19156062e+01 2.09288710e-11 2.85665727e-14 0.00000000e+00 2.09003044e-11 0.00000000e+00 2.85698952e-14
2.26490567e+01 2.06132125e-11 2.58803965e-14 0.00000000e+00 2.05873321e-11 0.00000000e+00 2.58832470e-14
2.34070535e+01 2.01988357e-11 2.34467951e-14 0.00000000e+00 2.01753889e-11 0.00000000e+00 2.34492452e-14
2.41904183e+01 1.98169292e-11 2.12420201e-14 0.00000000e+00 1.97956871e-11 0.00000000e+00 2.12441313e-14
2.50000000e+01 1.94229552e-11 1.92445582e-14 0.00000000e+00 1.94037107e-11 0.00000000e+00 1.92463813e-14
2.75422870e+01 1.77319584e-11 1.43924005e-14 0.00000000e+00 1.77175660e-11 0.00000000e+00 1.43935895e-14
3.16227766e+01 1.49929471e-11 9.50909704e-15 0.00000000e+00 1.49834380e-11 0.00000000e+00 9.50975027e-15
3.63078055e+01 1.18995459e-11 6.28267269e-15 0.00000000e+00 1.18932632e-11 0.00000000e+00 6.28302969e-15
4.16869383e+01 8.80101002e-12 4.15096661e-15 0.00000000e+00 8.79685906e-12 0.00000000e+00 4.15115655e-15
4.78630092e+01 6.05768892e-12 2.74254401e-15 0.00000000e+00 6.05494638e-12 0.00000000e+00 2.74264194e-15
5.49540874e+01 3.93210739e-12 1.81199615e-15 0.00000000e+00 3.93029539e-12 0.00000000e+00 1.81204556e-15
6.30957344e+01 2.41997644e-12 1.19718201e-15 0.00000000e+00 2.41877926e-12 0.00000000e+00 1.19720663e-15
7.24435960e+01 1.42961971e-12 7.90974402e-16 0.00000000e+00 1.42882873e-12 0.00000000e+00 7.90986575e-16
8.31763771e+01 8.18241624e-13 5.22593637e-16 0.00000000e+00 8.17719030e-13 0.00000000e+00 5.22599647e-16
9.54992586e+01 4.57796335e-13 3.45275188e-16 0.00000000e+00 4.57451060e-13 0.00000000e+00 3.45278163e-16
1.09647820e+02 2.51918938e-13 2.28121542e-16 0.00000000e+00 2.51690817e-13 0.00000000e+00 2.28123020e-16
1.25892541e+02 1.38307135e-13 1.50718640e-16 0.00000000e+00 1.38156416e-13 0.00000000e+00 1.50719385e-16
1.44543977e+02 7.54888541e-14 9.95789317e-17 0.00000000e+00 7.53892751e-14 0.00000000e+00 9.95793099e-17
1.65958691e+02 3.93440025e-14 6.57912121e-17 0.00000000e+00 3.92782113e-14 0.00000000e+00 6.57913976e-17
1.90546072e+02 2.05136877e-14 4.34678535e-17 0.00000000e+00 2.04702198e-14 0.00000000e+00 4.34679453e-17
2.18776162e+02 1.06794801e-14 2.87189409e-17 0.00000000e+00 1.06507612e-14 0.00000000e+00 2.87189867e-17
2.51188643e+02 5.54212376e-15 1.89744235e-17 0.00000000e+00 5.52314934e-15 0.00000000e+00 1.89744463e-17
2.88403150e+02 2.86395627e-15 1.25362809e-17 0.00000000e+00 2.85141999e-15 0.00000000e+00 1.25362924e-17
3.31131121e+02 1.47678938e-15 8.28264050e-18 0.00000000e+00 1.46850674e-15 0.00000000e+00 8.28264623e-18
3.80189396e+02 7.59026129e-16 5.47228722e-18 0.00000000e+00 7.53553841e-16 0.00000000e+00 5.47229010e-18
4.36515832e+02 3.89431780e-16 3.61550477e-18 0.00000000e+00 3.85816276e-16 0.00000000e+00 3.61550621e-18
5.01187234e+02 1.99421840e-16 2.38874054e-18 0.00000000e+00 1.97033100e-16 0.00000000e+00 2.38874127e-18
5.75439937e+02 1.01998939e-16 1.57822534e-18 0.00000000e+00 1.00420713e-16 0.00000000e+00 1.57822570e-18
6.60693448e+02 5.21313290e-17 1.04272320e-18 0.00000000e+00 5.10886058e-17 0.00000000e+00 1.04272338e-18
7.58577575e+02 2.66407538e-17 6.88920415e-19 0.00000000e+00 2.59518334e-17 0.00000000e+00 6.88920507e-19
8.70963590e+02 1.36173407e-17 4.55165219e-19 0.00000000e+00 1.31621755e-17 0.00000000e+00 4.55165265e-19
1.00000000e+03 6.66555753e-18 0.00000000e+00 0.00000000e+00 6.66555753e-18 0.00000000e+00 0.00000000e+00
