# column 1: lambda (micron)
# column 2: total flux; lambda*F_lambda (W/m2)
# column 3: direct stellar flux; lambda*F_lambda (W/m2)
# column 4: scattered stellar flux; lambda*F_lambda (W/m2)
# column 5: total dust emission flux; lambda*F_lambda (W/m2)
# column 6: dust emission scattered flux; lambda*F_lambda (W/m2)
# column 7: transparent flux; lambda*F_lambda (W/m2)
1.00000000e-03 9.67931416e-13 9.67928669e-13 2.74712904e-18 0.00000000e+00 0.00000000e+00 9.68073281e-13
1.14815362e-03 1.14241559e-12 1.14241137e-12 4.21967624e-18 0.00000000e+00 0.00000000e+00 1.14263687e-12
1.31825674e-03 1.34834605e-12 1.34833948e-12 6.56823588e-18 0.00000000e+00 0.00000000e+00 1.34867788e-12
1.51356125e-03 1.59141173e-12 1.59140144e-12 1.02934622e-17 0.00000000e+00 0.00000000e+00 1.59187233e-12
1.73780083e-03 1.87837643e-12 1.87835822e-12 1.82156309e-17 0.00000000e+00 0.00000000e+00 1.87891976e-12
1.99526231e-03 2.21688565e-12 2.21684905e-12 3.66060126e-17 0.00000000e+00 0.00000000e+00 2.21772777e-12
2.29086765e-03 2.61658170e-12 2.61653002e-12 5.16808453e-17 0.00000000e+00 0.00000000e+00 2.61762985e-12
2.63026799e-03 3.08819431e-12 3.08808694e-12 1.07369465e-16 0.00000000e+00 0.00000000e+00 3.08964252e-12
3.01995172e-03 3.64467988e-12 3.64449813e-12 1.81753860e-16 0.00000000e+00 0.00000000e+00 3.64676883e-12
3.46736850e-03 4.30150604e-12 4.30119766e-12 3.08378054e-16 0.00000000e+00 0.00000000e+00 4.30435650e-12
3.98107171e-03 5.07676234e-12 5.07625322e-12 5.09122673e-16 0.00000000e+00 0.00000000e+00 5.08052080e-12
4.57088190e-03 5.99441892e-12 5.99328308e-12 1.13583598e-15 0.00000000e+00 0.00000000e+00 5.99664354e-12
5.24807460e-03 7.07497759e-12 7.07289645e-12 2.08113861e-15 0.00000000e+00 0.00000000e+00 7.07796211e-12
6.02559586e-03 8.35063987e-12 8.34705597e-12 3.58389986e-15 0.00000000e+00 0.00000000e+00 8.35426474e-12
6.91830971e-03 9.85680426e-12 9.85089159e-12 5.91266504e-15 0.00000000e+00 0.00000000e+00 9.86071107e-12
7.94328235e-03 1.16385243e-11 1.16258708e-11 1.26534692e-14 6.08005310e-304 3.54083670e-306 1.16388008e-11
9.12010839e-03 1.37367056e-11 1.37205821e-11 1.61234886e-14 2.57339715e-265 1.07112240e-267 1.37375167e-11
1.04712855e-02 1.53521964e-11 1.53228080e-11 2.93883579e-14 1.05530672e-231 3.43133056e-234 1.53429287e-11
1.20226443e-02 1.53580771e-11 1.53216214e-11 3.64557540e-14 1.61498158e-202 9.50831124e-205 1.53429287e-11
1.38038426e-02 1.53723539e-11 1.53202140e-11 5.21399439e-14 4.30677804e-177 3.07910820e-179 1.53429287e-11
1.58489319e-02 1.54094259e-11 1.53184846e-11 9.09413321e-14 5.72813539e-155 5.84622723e-157 1.53429287e-11
1.81970086e-02 1.54124174e-11 1.53168897e-11 9.55276986e-14 1.00837066e-135 1.46806027e-137 1.53429287e-11
2.08929613e-02 1.54609586e-11 1.53155641e-11 1.45394470e-13 5.21777521e-119 1.08977685e-120 1.53429287e-11
2.39883292e-02 1.55132427e-11 1.53138468e-11 1.99395874e-13 1.81833937e-104 5.14084598e-106 1.53429287e-11
2.75422870e-02 1.55768848e-11 1.53118495e-11 2.65035225e-13 8.09603192e-92 2.89793629e-93 1.53429287e-11
3.16227766e-02 1.56232020e-11 1.53098920e-11 3.13309937e-13 7.86519673e-81 3.43479743e-82 1.53429287e-11
3.63078055e-02 1.56629620e-11 1.53083568e-11 3.54605195e-13 2.71951315e-71 1.37845853e-72 1.53429287e-11
4.16869383e-02 1.57907134e-11 1.53070291e-11 4.83684334e-13 5.19100155e-63 3.40444346e-64 1.53429287e-11
4.78630092e-02 1.59097305e-11 1.53033699e-11 6.06360667e-13 7.91864797e-56 6.77482063e-57 1.53429287e-11
5.49540874e-02 1.59938513e-11 1.52982825e-11 6.95568855e-13 1.32315611e-49 1.32325800e-50 1.53429287e-11
6.30957344e-02 1.60409766e-11 1.52855333e-11 7.55443335e-13 4.28636207e-44 4.74358481e-45 1.53429287e-11
7.24435960e-02 1.59499901e-11 1.52704454e-11 6.79544674e-13 2.46152781e-39 2.55922892e-40 1.53429287e-11
8.31763771e-02 1.59327101e-11 1.52717874e-11 6.60922727e-13 2.50717561e-35 2.56778358e-36 1.53429287e-11
9.54992586e-02 1.59548925e-11 1.52757241e-11 6.79168391e-13 7.04807602e-32 7.42780553e-33 1.53429287e-11
1.09647820e-01 1.53090116e-11 1.45990516e-11 7.09959937e-13 5.99208638e-29 6.86768789e-30 1.46523889e-11
1.25892541e-01 1.42995045e-11 1.36334174e-11 6.66087025e-13 1.93330771e-26 2.19810450e-27 1.36744049e-11
1.44543977e-01 1.33385059e-11 1.27299840e-11 6.08521887e-13 2.61483940e-24 2.86575966e-25 1.27616972e-11
1.65958691e-01 1.24874480e-11 1.18840212e-11 6.03426858e-13 1.32620252e-22 1.56836946e-23 1.19099088e-11
1.90546072e-01 1.17355152e-11 1.10892007e-11 6.46314511e-13 2.81711682e-21 3.84627858e-22 1.11149736e-11
2.18776162e-01 1.09493273e-11 1.03448880e-11 6.04439190e-13 3.33697792e-20 4.68125386e-21 1.03730969e-11
2.51188643e-01 1.03204228e-11 9.65967758e-12 6.60744795e-13 4.10735386e-19 6.94741589e-20 9.68073733e-12
2.88403150e-01 9.62358659e-12 9.01826912e-12 6.05314076e-13 3.39599766e-18 5.57987925e-19 9.03458975e-12
3.31131121e-01 8.96491619e-12 8.41829075e-12 5.46606121e-13 1.93243307e-17 3.04216239e-18 8.43156974e-12
3.80189396e-01 8.34923399e-12 7.85791501e-12 4.91238371e-13 8.06046756e-17 1.24854889e-17 7.86879872e-12
4.36515832e-01 7.78417570e-12 7.33474944e-12 4.49166895e-13 2.59370232e-16 4.04895346e-17 7.34359025e-12
5.01187234e-01 7.25172684e-12 6.84635300e-12 4.04673106e-13 7.00727007e-16 1.16910175e-16 6.85343719e-12
5.75439937e-01 6.75169042e-12 6.39038170e-12 3.59482770e-13 1.82594633e-15 3.57755979e-16 6.39599973e-12
6.60693448e-01 6.28516767e-12 5.96467750e-12 3.15322113e-13 5.16805545e-15 1.22574812e-15 5.96909425e-12
7.58577575e-01 5.86168596e-12 5.56725275e-12 2.78782801e-13 1.56504102e-14 4.07621779e-15 5.57068288e-12
8.70963590e-01 5.48086294e-12 5.19625887e-12 2.39067966e-13 4.55361005e-14 1.19515789e-14 5.19886376e-12
1.00000000e+00 5.16480443e-12 4.84991574e-12 1.96017269e-13 1.18871427e-13 2.92111814e-14 4.85186196e-12
1.14815362e+00 4.96428990e-12 4.52659277e-12 1.59869849e-13 2.77827273e-13 6.18459374e-14 4.52802104e-12
1.31825674e+00 4.93377848e-12 4.22476517e-12 1.26163180e-13 5.82850134e-13 1.13585657e-13 4.22579511e-12
1.51356125e+00 5.14198421e-12 3.94300626e-12 9.74066367e-14 1.10157131e-12 1.82918376e-13 3.94374146e-12
1.73780083e+00 5.61466294e-12 3.67999741e-12 7.34122132e-14 1.86125332e-12 2.56429681e-13 3.68051368e-12
1.99526231e+00 6.30841121e-12 3.43449838e-12 5.42418989e-14 2.81967094e-12 3.15269891e-13 3.43485522e-12
2.29086765e+00 7.15111568e-12 3.20534752e-12 3.90914036e-14 3.90667675e-12 3.35124582e-13 3.20559341e-12
2.63026799e+00 7.98788161e-12 2.99146282e-12 2.76967481e-14 4.96872204e-12 3.24782666e-13 2.99163384e-12
3.01995172e+00 8.75373285e-12 2.79183467e-12 1.94930775e-14 5.94240510e-12 2.89023961e-13 2.79195514e-12
3.46736850e+00 9.33979675e-12 2.60551789e-12 1.35223147e-14 6.72075654e-12 2.41883307e-13 2.60560415e-12
3.98107171e+00 9.69072441e-12 2.43162873e-12 9.25307533e-15 7.24984260e-12 1.90621410e-13 2.43169128e-12
4.57088190e+00 9.81116046e-12 2.26934037e-12 6.13138668e-15 7.53568870e-12 1.40694036e-13 2.26938634e-12
5.24807460e+00 9.52579475e-12 1.87640414e-12 3.46562814e-15 7.64592499e-12 9.83091302e-14 1.87643467e-12
6.02559586e+00 8.89408187e-12 1.23973133e-12 1.49929765e-15 7.65285125e-12 6.56076237e-14 1.23974809e-12
6.70000000e+00 8.46451942e-12 9.01786734e-13 7.65356912e-16 7.56196733e-12 4.54800619e-14 9.01797527e-13
6.92422916e+00 8.33323804e-12 8.16985096e-13 6.21189681e-16 7.51563175e-12 4.03555892e-14 8.16994532e-13
7.15596261e+00 8.26608593e-12 7.40157819e-13 4.90347392e-16 7.52543777e-12 3.55632800e-14 7.40166218e-13
7.39545150e+00 8.28600584e-12 6.70554873e-13 3.69314418e-16 7.61508165e-12 3.04282658e-14 6.70562664e-13
7.64295536e+00 8.52183478e-12 6.07496429e-13 2.60702062e-16 7.91407765e-12 2.49975630e-14 6.07504471e-13
7.89874245e+00 9.18566327e-12 5.50366714e-13 1.60635116e-16 8.63513592e-12 1.92634107e-14 5.50376127e-13
8.16308998e+00 1.01672686e-11 4.98608488e-13 9.22006302e-17 9.66856794e-12 1.46488409e-14 4.98620004e-13
8.43628443e+00 1.14650352e-11 4.51716415e-13 5.03331056e-17 1.10132684e-11 1.08004977e-14 4.51730909e-13
8.71862190e+00 1.24226044e-11 4.09235023e-13 3.15050102e-17 1.20133379e-11 8.49372424e-15 4.09251158e-13
9.01040836e+00 1.32913165e-11 3.70748399e-13 1.89637649e-17 1.29205491e-11 6.47902274e-15 3.70766106e-13
9.31196005e+00 1.39962438e-11 3.35881496e-13 0.00000000e+00 1.36603624e-11 0.00000000e+00 3.35900102e-13
9.62360379e+00 1.39249272e-11 3.04295517e-13 0.00000000e+00 1.36206317e-11 0.00000000e+00 3.04312818e-13
9.94567731e+00 1.34599845e-11 2.75681223e-13 0.00000000e+00 1.31843033e-11 0.00000000e+00 2.75695930e-13
1.02785297e+01 1.27608661e-11 2.49758056e-13 0.00000000e+00 1.25111080e-11 0.00000000e+00 2.49770110e-13
1.06225216e+01 1.21081872e-11 2.26272522e-13 0.00000000e+00 1.18819147e-11 0.00000000e+00 2.26282295e-13
1.09780260e+01 1.14459613e-11 2.04995582e-13 0.00000000e+00 1.12409657e-11 0.00000000e+00 2.05003220e-13
1.13454280e+01 1.07483922e-11 1.85719189e-13 0.00000000e+00 1.05626730e-11 0.00000000e+00 1.85725182e-13
1.17251259e+01 1.02885673e-11 1.68255274e-13 0.00000000e+00 1.01203120e-11 0.00000000e+00 1.68260007e-13
1.21175312e+01 9.77322259e-12 1.52433498e-13 0.00000000e+00 9.62078909e-12 0.00000000e+00 1.52437217e-13
1.25230691e+01 9.32667632e-12 1.38099453e-13 0.00000000e+00 9.18857687e-12 0.00000000e+00 1.38102367e-13
1.29421791e+01 8.97212330e-12 1.25113234e-13 0.00000000e+00 8.84701006e-12 0.00000000e+00 1.25115533e-13
1.33753155e+01 8.58054938e-12 1.13348125e-13 0.00000000e+00 8.46720125e-12 0.00000000e+00 1.13349952e-13
1.38229477e+01 8.42616859e-12 1.02689261e-13 0.00000000e+00 8.32347933e-12 0.00000000e+00 1.02690779e-13
1.42855609e+01 8.37838311e-12 9.30326512e-14 0.00000000e+00 8.28535046e-12 0.00000000e+00 9.30339713e-14
1.47636563e+01 8.49288392e-12 8.42840146e-14 0.00000000e+00 8.40859990e-12 0.00000000e+00 8.42852675e-14
1.52577522e+01 8.73437612e-12 7.63580614e-14 0.00000000e+00 8.65801806e-12 0.00000000e+00 7.63592720e-14
1.57683840e+01 8.99069227e-12 6.91774344e-14 0.00000000e+00 8.92151483e-12 0.00000000e+00 6.91786191e-14
1.62961051e+01 9.22680886e-12 6.26720605e-14 0.00000000e+00 9.16413680e-12 0.00000000e+00 6.26732185e-14
1.68414875e+01 9.45897272e-12 5.67784417e-14 0.00000000e+00 9.40219428e-12 0.00000000e+00 5.67795711e-14
1.74051222e+01 9.60656026e-12 5.14390764e-14 0.00000000e+00 9.55512118e-12 0.00000000e+00 5.14401489e-14
1.79876201e+01 9.70678728e-12 4.66018325e-14 0.00000000e+00 9.66018544e-12 0.00000000e+00 4.66028339e-14
1.85896125e+01 9.70809408e-12 4.22195030e-14 0.00000000e+00 9.66587458e-12 0.00000000e+00 4.22204090e-14
1.92117518e+01 9.65157745e-12 3.82493016e-14 0.00000000e+00 9.61332814e-12 0.00000000e+00 3.82500974e-14
1.98547123e+01 9.46924564e-12 3.46524596e-14 0.00000000e+00 9.43459318e-12 0.00000000e+00 3.46531450e-14
2.05191907e+01 9.31718289e-12 3.13938574e-14 0.00000000e+00 9.28578903e-12 0.00000000e+00 3.13944418e-14
2.12059073e+01 9.11857501e-12 2.84416815e-14 0.00000000e+00 9.09013333e-12 0.00000000e+00 2.84421796e-14
2.19156062e+01 8.92099077e-12 2.57671149e-14 0.00000000e+00 8.89522365e-12 0.00000000e+00 2.57675415e-14
2.26490567e+01 8.73665516e-12 2.33440543e-14 0.00000000e+00 8.71331111e-12 0.00000000e+00 2.33444203e-14
2.34070535e+01 8.50331059e-12 2.11488493e-14 0.00000000e+00 8.48216174e-12 0.00000000e+00 2.11491639e-14
2.41904183e+01 8.28557876e-12 1.91600734e-14 0.00000000e+00 8.26641869e-12 0.00000000e+00 1.91603445e-14
2.50000000e+01 8.07368743e-12 1.73583150e-14 0.00000000e+00 8.05632912e-12 0.00000000e+00 1.73585491e-14
2.75422870e+01 7.27788702e-12 1.29816035e-14 0.00000000e+00 7.26490542e-12 0.00000000e+00 1.29817562e-14
3.16227766e+01 6.05837861e-12 8.57687738e-15 0.00000000e+00 6.04980174e-12 0.00000000e+00 8.57696126e-15
3.63078055e+01 4.72423196e-12 5.66669627e-15 0.00000000e+00 4.71856527e-12 0.00000000e+00 5.66674211e-15
4.16869383e+01 3.44198417e-12 3.74395499e-15 0.00000000e+00 3.43824022e-12 0.00000000e+00 3.74397938e-15
4.78630092e+01 2.33441918e-12 2.47361007e-15 0.00000000e+00 2.33194557e-12 0.00000000e+00 2.47362265e-15
5.49540874e+01 1.49506039e-12 1.63429993e-15 0.00000000e+00 1.49342609e-12 0.00000000e+00 1.63430628e-15
6.30957344e+01 9.10917473e-13 1.07977229e-15 0.00000000e+00 9.09837701e-13 0.00000000e+00 1.07977545e-15
7.24435960e+01 5.33904317e-13 7.13399001e-16 0.00000000e+00 5.33190918e-13 0.00000000e+00 7.13400564e-16
8.31763771e+01 3.03949677e-13 4.71338307e-16 0.00000000e+00 3.03478338e-13 0.00000000e+00 4.71339078e-16
9.54992586e+01 1.69326451e-13 3.11410259e-16 0.00000000e+00 1.69015041e-13 0.00000000e+00 3.11410641e-16
1.09647820e+02 9.28695976e-14 2.05746780e-16 0.00000000e+00 9.26638508e-14 0.00000000e+00 2.05746970e-16
1.25892541e+02 5.09288136e-14 1.35935579e-16 0.00000000e+00 5.07928781e-14 0.00000000e+00 1.35935675e-16
1.44543977e+02 2.77666149e-14 8.98117613e-17 0.00000000e+00 2.76768031e-14 0.00000000e+00 8.98118099e-17
1.65958691e+02 1.44409708e-14 5.93380505e-17 0.00000000e+00 1.43816328e-14 0.00000000e+00 5.93380743e-17
1.90546072e+02 7.52029676e-15 3.92042651e-17 0.00000000e+00 7.48109249e-15 0.00000000e+00 3.92042769e-17
2.18776162e+02 3.91260067e-15 2.59020030e-17 0.00000000e+00 3.88669867e-15 0.00000000e+00 2.59020089e-17
2.51188643e+02 2.03048855e-15 1.71132846e-17 0.00000000e+00 2.01337527e-15 0.00000000e+00 1.71132876e-17
2.88403150e+02 1.04977470e-15 1.13066355e-17 0.00000000e+00 1.03846807e-15 0.00000000e+00 1.13066370e-17
3.31131121e+02 5.41855938e-16 7.47022023e-18 0.00000000e+00 5.34385718e-16 0.00000000e+00 7.47022097e-18
3.80189396e+02 2.78986978e-16 4.93552568e-18 0.00000000e+00 2.74051452e-16 0.00000000e+00 4.93552605e-18
4.36515832e+02 1.43499635e-16 3.26086954e-18 0.00000000e+00 1.40238765e-16 0.00000000e+00 3.26086972e-18
5.01187234e+02 7.37422769e-17 2.15443517e-18 0.00000000e+00 7.15878417e-17 0.00000000e+00 2.15443526e-18
5.75439937e+02 3.78958709e-17 1.42342121e-18 0.00000000e+00 3.64724496e-17 0.00000000e+00 1.42342126e-18
6.60693448e+02 1.94899401e-17 9.40445077e-19 0.00000000e+00 1.85494950e-17 0.00000000e+00 9.40445101e-19
7.58577575e+02 1.00418117e-17 6.21345904e-19 0.00000000e+00 9.42046579e-18 0.00000000e+00 6.21345916e-19
8.70963590e+02 5.18733919e-18 4.10519170e-19 0.00000000e+00 4.77682002e-18 0.00000000e+00 4.10519176e-19
1.00000000e+03 2.41865983e-18 0.00000000e+00 0.00000000e+00 2.41865983e-18 0.00000000e+00 0.00000000e+00
