# column 1: lambda (micron)
# column 2: total flux; lambda*F_lambda (W/m2)
# column 3: direct stellar flux; lambda*F_lambda (W/m2)
# column 4: scattered stellar flux; lambda*F_lambda (W/m2)
# column 5: total dust emission flux; lambda*F_lambda (W/m2)
# column 6: dust emission scattered flux; lambda*F_lambda (W/m2)
# column 7: transparent flux; lambda*F_lambda (W/m2)
1.00000000e-03 1.04634365e-12 1.04634360e-12 4.48824051e-20 0.00000000e+00 0.00000000e+00 1.04634360e-12
1.14815362e-03 1.23502102e-12 1.23502095e-12 7.36768247e-20 0.00000000e+00 0.00000000e+00 1.23502095e-12
1.31825674e-03 1.45772082e-12 1.45772071e-12 1.13355681e-19 0.00000000e+00 0.00000000e+00 1.45772071e-12
1.51356125e-03 1.72057801e-12 1.72057784e-12 1.76240786e-19 0.00000000e+00 0.00000000e+00 1.72057784e-12
1.73780083e-03 2.03083384e-12 2.03083353e-12 3.15760002e-19 0.00000000e+00 0.00000000e+00 2.03083353e-12
1.99526231e-03 2.39703530e-12 2.39703472e-12 5.85635986e-19 0.00000000e+00 0.00000000e+00 2.39703472e-12
2.29086765e-03 2.82927044e-12 2.82926954e-12 9.02216366e-19 0.00000000e+00 0.00000000e+00 2.82926954e-12
2.63026799e-03 3.33944722e-12 3.33944522e-12 1.99711209e-18 0.00000000e+00 0.00000000e+00 3.33944522e-12
3.01995172e-03 3.94161928e-12 3.94161611e-12 3.16792585e-18 0.00000000e+00 0.00000000e+00 3.94161611e-12
3.46736850e-03 4.65237638e-12 4.65237083e-12 5.54565035e-18 0.00000000e+00 0.00000000e+00 4.65237083e-12
3.98107171e-03 5.49129803e-12 5.49128930e-12 8.73671224e-18 0.00000000e+00 0.00000000e+00 5.49128930e-12
4.57088190e-03 6.48150157e-12 6.48148207e-12 1.94947908e-17 0.00000000e+00 0.00000000e+00 6.48148207e-12
5.24807460e-03 7.65026122e-12 7.65022704e-12 3.41836097e-17 0.00000000e+00 0.00000000e+00 7.65022704e-12
6.02559586e-03 9.02978466e-12 9.02972084e-12 6.38171663e-17 0.00000000e+00 0.00000000e+00 9.02972084e-12
6.91830971e-03 1.06580649e-11 1.06579658e-11 9.90287522e-17 0.00000000e+00 0.00000000e+00 1.06579658e-11
7.94328235e-03 1.25799869e-11 1.25798170e-11 1.69884416e-16 1.21158985e-303 2.11858987e-306 1.25798170e-11
9.12010839e-03 1.48484909e-11 1.48482176e-11 2.73257026e-16 5.25271610e-265 5.90762984e-268 1.48482176e-11
1.04712855e-02 1.65838096e-11 1.65834298e-11 3.79845221e-16 2.19882183e-231 1.72642146e-234 1.65834298e-11
1.20226443e-02 1.65840037e-11 1.65834298e-11 5.73890843e-16 3.42274599e-202 1.03766136e-204 1.65834298e-11
1.38038426e-02 1.65842127e-11 1.65834298e-11 7.82925273e-16 9.24255537e-177 1.51620449e-179 1.65834298e-11
1.58489319e-02 1.65845481e-11 1.65834298e-11 1.11827028e-15 1.24276647e-154 3.00391538e-157 1.65834298e-11
1.81970086e-02 1.65850270e-11 1.65834298e-11 1.59725675e-15 2.20576237e-135 7.73445584e-138 1.65834298e-11
2.08929613e-02 1.65855667e-11 1.65834298e-11 2.13695475e-15 1.14704286e-118 5.61085758e-121 1.65834298e-11
2.39883292e-02 1.65863709e-11 1.65834298e-11 2.94114929e-15 4.00786435e-104 2.54800530e-106 1.65834298e-11
2.75422870e-02 1.65878908e-11 1.65834298e-11 4.46099317e-15 1.78814552e-91 1.53253713e-93 1.65834298e-11
3.16227766e-02 1.65886050e-11 1.65834298e-11 5.17522212e-15 1.73901675e-80 1.94583404e-82 1.65834298e-11
3.63078055e-02 1.65897408e-11 1.65834298e-11 6.31099319e-15 6.01512637e-71 7.89753680e-73 1.65834298e-11
4.16869383e-02 1.65933089e-11 1.65834298e-11 9.87912000e-15 1.14193717e-62 2.10167797e-64 1.65834298e-11
4.78630092e-02 1.65989906e-11 1.65834298e-11 1.55608165e-14 1.72554665e-55 4.48514206e-57 1.65834298e-11
5.49540874e-02 1.66059800e-11 1.65834298e-11 2.25502174e-14 2.87182513e-49 9.73697225e-51 1.65834298e-11
6.30957344e-02 1.66125093e-11 1.65834298e-11 2.90794808e-14 9.32543302e-44 4.14740701e-45 1.65834298e-11
7.24435960e-02 1.66136811e-11 1.65834298e-11 3.02512783e-14 5.41789790e-39 2.47501757e-40 1.65834298e-11
8.31763771e-02 1.66129138e-11 1.65834298e-11 2.94840435e-14 5.54354623e-35 2.54892489e-36 1.65834298e-11
9.54992586e-02 1.66144649e-11 1.65834298e-11 3.10351081e-14 1.55898459e-31 7.39055377e-33 1.65834298e-11
1.09647820e-01 1.58677393e-11 1.58370587e-11 3.06805291e-14 1.31737826e-28 6.53747127e-30 1.58370587e-11
1.25892541e-01 1.48051354e-11 1.47800032e-11 2.51322464e-14 4.24046183e-26 1.89953325e-27 1.47800032e-11
1.44543977e-01 1.38129485e-11 1.37935015e-11 1.94470252e-14 5.74986153e-24 2.38024761e-25 1.37935015e-11
1.65958691e-01 1.28921425e-11 1.28728446e-11 1.92978501e-14 2.90396104e-22 1.32119340e-23 1.28728446e-11
1.90546072e-01 1.20377500e-11 1.20136376e-11 2.41124013e-14 6.12149043e-21 3.49277981e-22 1.20136376e-11
2.18776162e-01 1.12379350e-11 1.12117790e-11 2.61559736e-14 7.29303117e-20 4.78923436e-21 1.12117790e-11
2.51188643e-01 1.04944949e-11 1.04634409e-11 3.10530890e-14 8.80271162e-19 6.90132538e-20 1.04634409e-11
2.88403150e-01 9.79036166e-12 9.76505125e-12 2.53031192e-14 7.28918003e-18 5.38411032e-19 9.76505125e-12
3.31131121e-01 9.13358217e-12 9.11327608e-12 2.02644839e-14 4.16073098e-17 2.87262997e-18 9.11327608e-12
3.80189396e-01 8.52274406e-12 8.50500410e-12 1.75669679e-14 1.72997581e-16 1.14371882e-17 8.50500410e-12
4.36515832e-01 7.95542221e-12 7.93733165e-12 1.75445814e-14 5.45979727e-16 3.50013147e-17 7.93733165e-12
5.01187234e-01 7.42497901e-12 7.40754890e-12 1.60685513e-14 1.36155594e-15 8.74985156e-17 7.40754890e-12
5.75439937e-01 6.93174382e-12 6.91312687e-12 1.58261736e-14 2.79077641e-15 1.76276981e-16 6.91312687e-12
6.60693448e-01 6.47095309e-12 6.45170538e-12 1.43750919e-14 4.87261097e-15 3.01198957e-16 6.45170538e-12
7.58577575e-01 6.04095894e-12 6.02108180e-12 1.23002394e-14 7.57690167e-15 4.68139312e-16 6.02108180e-12
8.70963590e-01 5.64223123e-12 5.61920048e-12 1.22857784e-14 1.07449704e-14 6.43768950e-16 5.61920048e-12
1.00000000e+00 5.26926365e-12 5.24414302e-12 1.08685789e-14 1.42520514e-14 8.07774114e-16 5.24414302e-12
1.14815362e+00 4.92170025e-12 4.89411902e-12 8.84519455e-15 1.87360279e-14 9.81661034e-16 4.89411902e-12
1.31825674e+00 4.60012365e-12 4.56745763e-12 7.16228753e-15 2.55037351e-14 1.24232309e-15 4.56745763e-12
1.51356125e+00 4.30473535e-12 4.26259947e-12 5.60990315e-15 3.65259728e-14 1.63255605e-15 4.26259947e-12
1.73780083e+00 4.03609903e-12 3.97808929e-12 4.29166276e-15 5.37180723e-14 2.17061913e-15 3.97808929e-12
1.99526231e+00 3.79374707e-12 3.71256894e-12 3.14226705e-15 7.80358650e-14 2.71386578e-15 3.71256894e-12
2.29086765e+00 3.57512942e-12 3.46477093e-12 2.26612262e-15 1.08092370e-13 3.06843017e-15 3.46477093e-12
2.63026799e+00 3.37568124e-12 3.23351237e-12 1.44013277e-15 1.40728734e-13 3.21731733e-15 3.23351237e-12
3.01995172e+00 3.19059465e-12 3.01768933e-12 9.65607503e-16 1.71939717e-13 3.06352590e-15 3.01768933e-12
3.46736850e+00 3.01404742e-12 2.81627154e-12 6.83779314e-16 1.97092100e-13 2.75410134e-15 2.81627154e-12
3.98107171e+00 2.84234982e-12 2.62829753e-12 4.47075259e-16 2.13605209e-13 2.27222029e-15 2.62829753e-12
4.57088190e+00 2.67238476e-12 2.45286997e-12 2.97116884e-16 2.19217671e-13 1.74568743e-15 2.45286997e-12
5.24807460e+00 2.24508248e-12 2.02814751e-12 1.78923513e-16 2.16756047e-13 1.25577436e-15 2.02814751e-12
6.02559586e+00 1.54867520e-12 1.33998377e-12 7.87881510e-17 2.08612638e-13 8.28702258e-16 1.33998377e-12
6.70000000e+00 1.17377012e-12 9.74709347e-13 4.12446603e-17 1.99019533e-13 5.73364185e-16 9.74709347e-13
6.92422916e+00 1.07847810e-12 8.83049889e-13 3.34850362e-17 1.95394724e-13 5.04612708e-16 8.83049889e-13
7.15596261e+00 9.93283103e-13 8.00009879e-13 2.48502099e-17 1.93248374e-13 4.39634930e-16 8.00009879e-13
7.39545150e+00 9.19741607e-13 7.24778763e-13 1.85632423e-17 1.94944281e-13 3.73785993e-16 7.24778763e-13
7.64295536e+00 8.65052955e-13 6.56622211e-13 1.36048699e-17 2.08417140e-13 3.08101061e-16 6.56622211e-13
7.89874245e+00 8.35348036e-13 5.94874946e-13 7.96112999e-18 2.40465129e-13 2.40829799e-16 5.94874946e-13
8.16308998e+00 8.27812494e-13 5.38934254e-13 4.84792876e-18 2.88873392e-13 1.86369140e-16 5.38934254e-13
8.43628443e+00 8.45934615e-13 4.88254098e-13 2.83331435e-18 3.57677683e-13 1.39603344e-16 4.88254098e-13
8.71862190e+00 8.53553086e-13 4.42339790e-13 1.66699769e-18 4.11211630e-13 1.09288421e-16 4.42339790e-13
9.01040836e+00 8.68922580e-13 4.00743158e-13 1.15419826e-18 4.68178267e-13 8.19558996e-17 4.00743158e-13
9.31196005e+00 8.77198825e-13 3.63058180e-13 0.00000000e+00 5.14140645e-13 0.00000000e+00 3.63058180e-13
9.62360379e+00 8.46798238e-13 3.28917012e-13 0.00000000e+00 5.17881227e-13 0.00000000e+00 3.28917012e-13
9.94567731e+00 7.83926726e-13 2.97986401e-13 0.00000000e+00 4.85940325e-13 0.00000000e+00 2.97986401e-13
1.02785297e+01 7.16421325e-13 2.69964435e-13 0.00000000e+00 4.46456890e-13 0.00000000e+00 2.69964435e-13
1.06225216e+01 6.48797913e-13 2.44577592e-13 0.00000000e+00 4.04220322e-13 0.00000000e+00 2.44577592e-13
1.09780260e+01 5.80056950e-13 2.21578069e-13 0.00000000e+00 3.58478881e-13 0.00000000e+00 2.21578069e-13
1.13454280e+01 5.20991286e-13 2.00741370e-13 0.00000000e+00 3.20249916e-13 0.00000000e+00 2.00741370e-13
1.17251259e+01 4.69227939e-13 1.81864106e-13 0.00000000e+00 2.87363832e-13 0.00000000e+00 1.81864106e-13
1.21175312e+01 4.22231339e-13 1.64762018e-13 0.00000000e+00 2.57469321e-13 0.00000000e+00 1.64762018e-13
1.25230691e+01 3.80944343e-13 1.49268171e-13 0.00000000e+00 2.31676172e-13 0.00000000e+00 1.49268171e-13
1.29421791e+01 3.44536867e-13 1.35231331e-13 0.00000000e+00 2.09305536e-13 0.00000000e+00 1.35231331e-13
1.33753155e+01 3.13460680e-13 1.22514483e-13 0.00000000e+00 1.90946197e-13 0.00000000e+00 1.22514483e-13
1.38229477e+01 2.90265336e-13 1.10993499e-13 0.00000000e+00 1.79271837e-13 0.00000000e+00 1.10993499e-13
1.42855609e+01 2.73629817e-13 1.00555922e-13 0.00000000e+00 1.73073896e-13 0.00000000e+00 1.00555922e-13
1.47636563e+01 2.66575191e-13 9.10998706e-14 0.00000000e+00 1.75475321e-13 0.00000000e+00 9.10998706e-14
1.52577522e+01 2.63366938e-13 8.25330452e-14 0.00000000e+00 1.80833893e-13 0.00000000e+00 8.25330452e-14
1.57683840e+01 2.62387540e-13 7.47718247e-14 0.00000000e+00 1.87615715e-13 0.00000000e+00 7.47718247e-14
1.62961051e+01 2.61991425e-13 6.77404517e-14 0.00000000e+00 1.94250973e-13 0.00000000e+00 6.77404517e-14
1.68414875e+01 2.62314258e-13 6.13702932e-14 0.00000000e+00 2.00943965e-13 0.00000000e+00 6.13702932e-14
1.74051222e+01 2.60596081e-13 5.55991699e-14 0.00000000e+00 2.04996911e-13 0.00000000e+00 5.55991699e-14
1.79876201e+01 2.57767018e-13 5.03707500e-14 0.00000000e+00 2.07396268e-13 0.00000000e+00 5.03707500e-14
1.85896125e+01 2.50300762e-13 4.56339988e-14 0.00000000e+00 2.04666763e-13 0.00000000e+00 4.56339988e-14
1.92117518e+01 2.40898744e-13 4.13426810e-14 0.00000000e+00 1.99556063e-13 0.00000000e+00 4.13426810e-14
1.98547123e+01 2.30614074e-13 3.74549090e-14 0.00000000e+00 1.93159165e-13 0.00000000e+00 3.74549090e-14
2.05191907e+01 2.18769020e-13 3.39327342e-14 0.00000000e+00 1.84836286e-13 0.00000000e+00 3.39327342e-14
2.12059073e+01 2.07896197e-13 3.07417768e-14 0.00000000e+00 1.77154420e-13 0.00000000e+00 3.07417768e-14
2.19156062e+01 1.99117670e-13 2.78508898e-14 0.00000000e+00 1.71266780e-13 0.00000000e+00 2.78508898e-14
2.26490567e+01 1.90470295e-13 2.52318552e-14 0.00000000e+00 1.65238440e-13 0.00000000e+00 2.52318552e-14
2.34070535e+01 1.82556475e-13 2.28591087e-14 0.00000000e+00 1.59697367e-13 0.00000000e+00 2.28591087e-14
2.41904183e+01 1.74690022e-13 2.07094900e-14 0.00000000e+00 1.53980532e-13 0.00000000e+00 2.07094900e-14
2.50000000e+01 1.68264012e-13 1.87620165e-14 0.00000000e+00 1.49501995e-13 0.00000000e+00 1.87620165e-14
2.75422870e+01 1.49714325e-13 1.40313526e-14 0.00000000e+00 1.35682972e-13 0.00000000e+00 1.40313526e-14
3.16227766e+01 1.25681723e-13 9.27042274e-15 0.00000000e+00 1.16411300e-13 0.00000000e+00 9.27042274e-15
3.63078055e+01 1.01723781e-13 6.12490756e-15 0.00000000e+00 9.55988730e-14 0.00000000e+00 6.12490756e-15
4.16869383e+01 7.84386823e-14 4.04668630e-15 0.00000000e+00 7.43919960e-14 0.00000000e+00 4.04668630e-15
4.78630092e+01 5.68499303e-14 2.67361912e-15 0.00000000e+00 5.41763112e-14 0.00000000e+00 2.67361912e-15
5.49540874e+01 3.91584714e-14 1.76644264e-15 0.00000000e+00 3.73920287e-14 0.00000000e+00 1.76644264e-15
6.30957344e+01 2.57333078e-14 1.16707708e-15 0.00000000e+00 2.45662308e-14 0.00000000e+00 1.16707708e-15
7.24435960e+01 1.62403333e-14 7.71080178e-16 0.00000000e+00 1.54692531e-14 0.00000000e+00 7.71080178e-16
8.31763771e+01 9.93468177e-15 5.09447621e-16 0.00000000e+00 9.42523415e-15 0.00000000e+00 5.09447621e-16
9.54992586e+01 5.91985846e-15 3.36588705e-16 0.00000000e+00 5.58326975e-15 0.00000000e+00 3.36588705e-16
1.09647820e+02 3.45890396e-15 2.22381952e-16 0.00000000e+00 3.23652200e-15 0.00000000e+00 2.22381952e-16
1.25892541e+02 2.00897758e-15 1.46926299e-16 0.00000000e+00 1.86205128e-15 0.00000000e+00 1.46926299e-16
1.44543977e+02 1.15628965e-15 9.70732430e-17 0.00000000e+00 1.05921641e-15 0.00000000e+00 9.70732430e-17
1.65958691e+02 6.35987128e-16 6.41356556e-17 0.00000000e+00 5.71851472e-16 0.00000000e+00 6.41356556e-17
1.90546072e+02 3.49820298e-16 4.23740075e-17 0.00000000e+00 3.07446290e-16 0.00000000e+00 4.23740075e-17
2.18776162e+02 1.92398404e-16 2.79962291e-17 0.00000000e+00 1.64402175e-16 0.00000000e+00 2.79962291e-17
2.51188643e+02 1.05787289e-16 1.84969251e-17 0.00000000e+00 8.72903637e-17 0.00000000e+00 1.84969251e-17
2.88403150e+02 5.82229326e-17 1.22207972e-17 0.00000000e+00 4.60021354e-17 0.00000000e+00 1.22207972e-17
3.31131121e+02 3.21885539e-17 8.07420067e-18 0.00000000e+00 2.41143532e-17 0.00000000e+00 8.07420067e-18
3.80189396e+02 1.79011392e-17 5.33457148e-18 0.00000000e+00 1.25665677e-17 0.00000000e+00 5.33457148e-18
4.36515832e+02 1.00446970e-17 3.52451642e-18 0.00000000e+00 6.52018061e-18 0.00000000e+00 3.52451642e-18
5.01187234e+02 5.69704334e-18 2.32862491e-18 0.00000000e+00 3.36841843e-18 0.00000000e+00 2.32862491e-18
5.75439937e+02 3.27245982e-18 1.53850722e-18 0.00000000e+00 1.73395260e-18 0.00000000e+00 1.53850722e-18
6.60693448e+02 1.90631440e-18 1.01648164e-18 0.00000000e+00 8.89832760e-19 0.00000000e+00 1.01648164e-18
7.58577575e+02 1.12699352e-18 6.71582760e-19 0.00000000e+00 4.55410763e-19 0.00000000e+00 6.71582760e-19
8.70963590e+02 6.76190833e-19 4.43710329e-19 0.00000000e+00 2.32480504e-19 0.00000000e+00 4.43710329e-19
1.00000000e+03 1.18398606e-19 0.00000000e+00 0.00000000e+00 1.18398606e-19 0.00000000e+00 0.00000000e+00
