# column 1: lambda (micron)
# column 2: total flux; lambda*F_lambda (W/m2)
# column 3: direct stellar flux; lambda*F_lambda (W/m2)
# column 4: scattered stellar flux; lambda*F_lambda (W/m2)
# column 5: total dust emission flux; lambda*F_lambda (W/m2)
# column 6: dust emission scattered flux; lambda*F_lambda (W/m2)
# column 7: transparent flux; lambda*F_lambda (W/m2)
1.00000000e-03 1.04634678e-12 1.04634360e-12 3.17220052e-18 0.00000000e+00 0.00000000e+00 1.04634360e-12
1.14815362e-03 1.23502576e-12 1.23502095e-12 4.81003441e-18 0.00000000e+00 0.00000000e+00 1.23502095e-12
1.31825674e-03 1.45772795e-12 1.45772071e-12 7.23820004e-18 0.00000000e+00 0.00000000e+00 1.45772071e-12
1.51356125e-03 1.72060601e-12 1.72057784e-12 2.81786951e-17 0.00000000e+00 0.00000000e+00 1.72057784e-12
1.73780083e-03 2.03094209e-12 2.03083353e-12 1.08560196e-16 0.00000000e+00 0.00000000e+00 2.03083353e-12
1.99526231e-03 2.39710722e-12 2.39703472e-12 7.25010308e-17 0.00000000e+00 0.00000000e+00 2.39703472e-12
2.29086765e-03 2.83020934e-12 2.82926954e-12 9.39796747e-16 0.00000000e+00 0.00000000e+00 2.82926954e-12
2.63026799e-03 3.33976608e-12 3.33944522e-12 3.20859724e-16 0.00000000e+00 0.00000000e+00 3.33944522e-12
3.01995172e-03 3.94272163e-12 3.94161611e-12 1.10552384e-15 0.00000000e+00 0.00000000e+00 3.94161611e-12
3.46736850e-03 4.65462649e-12 4.65237083e-12 2.25565664e-15 0.00000000e+00 0.00000000e+00 4.65237083e-12
3.98107171e-03 5.49364862e-12 5.49128930e-12 2.35932365e-15 0.00000000e+00 0.00000000e+00 5.49128930e-12
4.57088190e-03 6.49006418e-12 6.48148207e-12 8.58210933e-15 0.00000000e+00 0.00000000e+00 6.48148207e-12
5.24807460e-03 7.67064858e-12 7.65022704e-12 2.04215389e-14 0.00000000e+00 0.00000000e+00 7.65022704e-12
6.02559586e-03 9.05054495e-12 9.02972084e-12 2.08241095e-14 0.00000000e+00 0.00000000e+00 9.02972084e-12
6.91830971e-03 1.06718807e-11 1.06579658e-11 1.39148198e-14 0.00000000e+00 0.00000000e+00 1.06579658e-11
7.94328235e-03 1.26143578e-11 1.25798170e-11 3.45407967e-14 2.51228340e-303 3.49960050e-305 1.25798170e-11
9.12010839e-03 1.49125494e-11 1.48482176e-11 6.43317984e-14 1.24977588e-264 1.07268064e-266 1.48482176e-11
1.04712855e-02 1.66816691e-11 1.65834298e-11 9.82392654e-14 5.94980697e-231 7.46014197e-233 1.65834298e-11
1.20226443e-02 1.66674488e-11 1.65834298e-11 8.40190287e-14 1.03616242e-201 1.96627828e-203 1.65834298e-11
1.38038426e-02 1.66782232e-11 1.65834298e-11 9.47934427e-14 3.08900998e-176 7.07291450e-178 1.65834298e-11
1.58489319e-02 1.66869909e-11 1.65834298e-11 1.03561144e-13 4.51318067e-154 1.17123349e-155 1.65834298e-11
1.81970086e-02 1.67249501e-11 1.65834298e-11 1.41520277e-13 8.63541342e-135 2.72579639e-136 1.65834298e-11
2.08929613e-02 1.67398493e-11 1.65834298e-11 1.56419478e-13 4.79990462e-118 1.79908911e-119 1.65834298e-11
2.39883292e-02 1.67774887e-11 1.65834298e-11 1.94058887e-13 1.78194897e-103 8.28903090e-105 1.65834298e-11
2.75422870e-02 1.68132523e-11 1.65834298e-11 2.29822529e-13 8.33140222e-91 4.18090171e-92 1.65834298e-11
3.16227766e-02 1.68488942e-11 1.65834298e-11 2.65464411e-13 8.47024643e-80 4.85784449e-81 1.65834298e-11
3.63078055e-02 1.68711249e-11 1.65834298e-11 2.87695074e-13 3.04337919e-70 1.91232558e-71 1.65834298e-11
4.16869383e-02 1.69591264e-11 1.65834298e-11 3.75696655e-13 6.02593237e-62 4.74674703e-63 1.65834298e-11
4.78630092e-02 1.70518195e-11 1.65834298e-11 4.68389764e-13 9.38819348e-55 8.67387707e-56 1.65834298e-11
5.49540874e-02 1.71147597e-11 1.65834298e-11 5.31329898e-13 1.59969828e-48 1.65429776e-49 1.65834298e-11
6.30957344e-02 1.71388247e-11 1.65834298e-11 5.55394929e-13 5.20621216e-43 5.67869818e-44 1.65834298e-11
7.24435960e-02 1.70852545e-11 1.65834298e-11 5.01824734e-13 3.00289941e-38 2.96256909e-39 1.65834298e-11
8.31763771e-02 1.70693098e-11 1.65834298e-11 4.85880018e-13 3.10918864e-34 2.92913099e-35 1.65834298e-11
9.54992586e-02 1.70795784e-11 1.65834298e-11 4.96148639e-13 8.93262950e-31 8.85143784e-32 1.65834298e-11
1.09647820e-01 1.63762208e-11 1.58370587e-11 5.39162096e-13 7.79924548e-28 8.62658086e-29 1.58370587e-11
1.25892541e-01 1.52976355e-11 1.47800032e-11 5.17632339e-13 2.58147735e-25 2.91208705e-26 1.47800032e-11
1.44543977e-01 1.42787458e-11 1.37935015e-11 4.85244232e-13 3.56386974e-23 3.94692903e-24 1.37935015e-11
1.65958691e-01 1.33711366e-11 1.28728446e-11 4.98292018e-13 1.84058495e-21 2.25497839e-22 1.28728446e-11
1.90546072e-01 1.25425008e-11 1.20136376e-11 5.28863201e-13 3.92920397e-20 5.50909037e-21 1.20136376e-11
2.18776162e-01 1.16994148e-11 1.12117790e-11 4.87635421e-13 4.63030333e-19 6.43519641e-20 1.12117790e-11
2.51188643e-01 1.10260712e-11 1.04634409e-11 5.62624498e-13 5.80048445e-18 9.85168064e-19 1.04634409e-11
2.88403150e-01 1.02944511e-11 9.76505125e-12 5.29351200e-13 4.86388493e-17 8.13523937e-18 9.76505125e-12
3.31131121e-01 9.60774847e-12 9.11327608e-12 4.94191890e-13 2.80501430e-16 4.60545379e-17 9.11327608e-12
3.80189396e-01 8.96100010e-12 8.50500410e-12 4.54820629e-13 1.17537330e-15 1.90419103e-16 8.50500410e-12
4.36515832e-01 8.36348695e-12 7.93733165e-12 4.22412688e-13 3.74261623e-15 5.99657247e-16 7.93733165e-12
5.01187234e-01 7.80968002e-12 7.40754890e-12 3.92678684e-13 9.45243394e-15 1.50423814e-15 7.40754890e-12
5.75439937e-01 7.28903938e-12 6.91312687e-12 3.55709440e-13 2.02030707e-14 3.31720575e-15 6.91312687e-12
6.60693448e-01 6.81891649e-12 6.45170538e-12 3.27809225e-13 3.94018838e-14 7.02549390e-15 6.45170538e-12
7.58577575e-01 6.39190951e-12 6.02108180e-12 2.93337418e-13 7.74902929e-14 1.59925360e-14 6.02108180e-12
8.70963590e-01 6.03836753e-12 5.61920048e-12 2.58571307e-13 1.60595747e-13 3.79818395e-14 5.61920048e-12
1.00000000e+00 5.80107839e-12 5.24414302e-12 2.19550710e-13 3.37384666e-13 8.46303624e-14 5.24414302e-12
1.14815362e+00 5.76579173e-12 4.89411902e-12 1.78113322e-13 6.93559385e-13 1.67922577e-13 4.89411902e-12
1.31825674e+00 6.05445473e-12 4.56745763e-12 1.39174935e-13 1.34782217e-12 2.97188109e-13 4.56745763e-12
1.51356125e+00 6.74974838e-12 4.26259947e-12 1.08392043e-13 2.37875686e-12 4.59412448e-13 4.26259947e-12
1.73780083e+00 7.85509808e-12 3.97808929e-12 8.44555552e-14 3.79255324e-12 6.24804556e-13 3.97808929e-12
1.99526231e+00 9.19900975e-12 3.71256894e-12 6.40634259e-14 5.42237739e-12 7.30483922e-13 3.71256894e-12
2.29086765e+00 1.05889708e-11 3.46477093e-12 4.76287040e-14 7.07657119e-12 7.59527954e-13 3.46477093e-12
2.63026799e+00 1.18409728e-11 3.23351237e-12 3.45486694e-14 8.57291173e-12 7.21164552e-13 3.23351237e-12
3.01995172e+00 1.27221373e-11 3.01768933e-12 2.47465309e-14 9.67970145e-12 6.20630204e-13 3.01768933e-12
3.46736850e+00 1.33351724e-11 2.81627154e-12 1.74355996e-14 1.05014652e-11 5.06050441e-13 2.81627154e-12
3.98107171e+00 1.34685684e-11 2.62829753e-12 1.17128524e-14 1.08285580e-11 3.78632887e-13 2.62829753e-12
4.57088190e+00 1.32515749e-11 2.45286997e-12 7.72016209e-15 1.07909847e-11 2.64435434e-13 2.45286997e-12
5.24807460e+00 1.25148122e-11 2.02814751e-12 4.30179892e-15 1.04823629e-11 1.69972456e-13 2.02814751e-12
6.02559586e+00 1.13907890e-11 1.33998377e-12 1.85166094e-15 1.00489535e-11 1.03812942e-13 1.33998377e-12
6.70000000e+00 1.05580122e-11 9.74709347e-13 9.32633987e-16 9.58237018e-12 6.74260068e-14 9.74709347e-13
6.92422916e+00 1.02846302e-11 8.83049889e-13 7.52561861e-16 9.40082773e-12 5.83099043e-14 8.83049889e-13
7.15596261e+00 1.00955999e-11 8.00009879e-13 5.98341867e-16 9.29499168e-12 5.04838114e-14 8.00009879e-13
7.39545150e+00 1.00552635e-11 7.24778763e-13 4.55878833e-16 9.33002889e-12 4.30420131e-14 7.24778763e-13
7.64295536e+00 1.04454598e-11 6.56622211e-13 3.21146403e-16 9.78851646e-12 3.60007513e-14 6.56622211e-13
7.89874245e+00 1.13167630e-11 5.94874946e-13 2.02485881e-16 1.07216856e-11 2.90043201e-14 5.94874946e-13
8.16308998e+00 1.24650576e-11 5.38934254e-13 1.20588978e-16 1.19260028e-11 2.28619721e-14 5.38934254e-13
8.43628443e+00 1.38300760e-11 4.88254098e-13 6.63171866e-17 1.33417556e-11 1.70795185e-14 4.88254098e-13
8.71862190e+00 1.44828053e-11 4.42339790e-13 4.10270195e-17 1.40404245e-11 1.32150799e-14 4.42339790e-13
9.01040836e+00 1.51415225e-11 4.00743158e-13 2.39345212e-17 1.47407554e-11 9.92659269e-15 4.00743158e-13
9.31196005e+00 1.54989795e-11 3.63058180e-13 0.00000000e+00 1.51359213e-11 0.00000000e+00 3.63058180e-13
9.62360379e+00 1.54231196e-11 3.28917012e-13 0.00000000e+00 1.50942026e-11 0.00000000e+00 3.28917012e-13
9.94567731e+00 1.48092229e-11 2.97986401e-13 0.00000000e+00 1.45112365e-11 0.00000000e+00 2.97986401e-13
1.02785297e+01 1.41018910e-11 2.69964435e-13 0.00000000e+00 1.38319266e-11 0.00000000e+00 2.69964435e-13
1.06225216e+01 1.34057519e-11 2.44577592e-13 0.00000000e+00 1.31611743e-11 0.00000000e+00 2.44577592e-13
1.09780260e+01 1.27095915e-11 2.21578069e-13 0.00000000e+00 1.24880134e-11 0.00000000e+00 2.21578069e-13
1.13454280e+01 1.19717100e-11 2.00741370e-13 0.00000000e+00 1.17709686e-11 0.00000000e+00 2.00741370e-13
1.17251259e+01 1.13180227e-11 1.81864106e-13 0.00000000e+00 1.11361586e-11 0.00000000e+00 1.81864106e-13
1.21175312e+01 1.06817540e-11 1.64762018e-13 0.00000000e+00 1.05169920e-11 0.00000000e+00 1.64762018e-13
1.25230691e+01 1.00283318e-11 1.49268171e-13 0.00000000e+00 9.87906362e-12 0.00000000e+00 1.49268171e-13
1.29421791e+01 9.45504729e-12 1.35231331e-13 0.00000000e+00 9.31981596e-12 0.00000000e+00 1.35231331e-13
1.33753155e+01 8.91539548e-12 1.22514483e-13 0.00000000e+00 8.79288100e-12 0.00000000e+00 1.22514483e-13
1.38229477e+01 8.54608408e-12 1.10993499e-13 0.00000000e+00 8.43509058e-12 0.00000000e+00 1.10993499e-13
1.42855609e+01 8.34280129e-12 1.00555922e-13 0.00000000e+00 8.24224537e-12 0.00000000e+00 1.00555922e-13
1.47636563e+01 8.45571872e-12 9.10998706e-14 0.00000000e+00 8.36461885e-12 0.00000000e+00 9.10998706e-14
1.52577522e+01 8.62546636e-12 8.25330452e-14 0.00000000e+00 8.54293331e-12 0.00000000e+00 8.25330452e-14
1.57683840e+01 8.80999920e-12 7.47718247e-14 0.00000000e+00 8.73522737e-12 0.00000000e+00 7.47718247e-14
1.62961051e+01 9.01783989e-12 6.77404517e-14 0.00000000e+00 8.95009944e-12 0.00000000e+00 6.77404517e-14
1.68414875e+01 9.21350392e-12 6.13702932e-14 0.00000000e+00 9.15213362e-12 0.00000000e+00 6.13702932e-14
1.74051222e+01 9.34021996e-12 5.55991699e-14 0.00000000e+00 9.28462079e-12 0.00000000e+00 5.55991699e-14
1.79876201e+01 9.36073163e-12 5.03707500e-14 0.00000000e+00 9.31036088e-12 0.00000000e+00 5.03707500e-14
1.85896125e+01 9.26739805e-12 4.56339988e-14 0.00000000e+00 9.22176405e-12 0.00000000e+00 4.56339988e-14
1.92117518e+01 9.11854538e-12 4.13426810e-14 0.00000000e+00 9.07720270e-12 0.00000000e+00 4.13426810e-14
1.98547123e+01 8.83296465e-12 3.74549090e-14 0.00000000e+00 8.79550974e-12 0.00000000e+00 3.74549090e-14
2.05191907e+01 8.55310182e-12 3.39327342e-14 0.00000000e+00 8.51916909e-12 0.00000000e+00 3.39327342e-14
2.12059073e+01 8.25148629e-12 3.07417768e-14 0.00000000e+00 8.22074451e-12 0.00000000e+00 3.07417768e-14
2.19156062e+01 7.94554374e-12 2.78508898e-14 0.00000000e+00 7.91769285e-12 0.00000000e+00 2.78508898e-14
2.26490567e+01 7.66213660e-12 2.52318552e-14 0.00000000e+00 7.63690475e-12 0.00000000e+00 2.52318552e-14
2.34070535e+01 7.35728856e-12 2.28591087e-14 0.00000000e+00 7.33442945e-12 0.00000000e+00 2.28591087e-14
2.41904183e+01 7.08614953e-12 2.07094900e-14 0.00000000e+00 7.06544004e-12 0.00000000e+00 2.07094900e-14
2.50000000e+01 6.78838600e-12 1.87620165e-14 0.00000000e+00 6.76962398e-12 0.00000000e+00 1.87620165e-14
2.75422870e+01 5.92634321e-12 1.40313526e-14 0.00000000e+00 5.91231186e-12 0.00000000e+00 1.40313526e-14
3.16227766e+01 4.69566265e-12 9.27042274e-15 0.00000000e+00 4.68639222e-12 0.00000000e+00 9.27042274e-15
3.63078055e+01 3.51165378e-12 6.12490756e-15 0.00000000e+00 3.50552887e-12 0.00000000e+00 6.12490756e-15
4.16869383e+01 2.44417525e-12 4.04668630e-15 0.00000000e+00 2.44012857e-12 0.00000000e+00 4.04668630e-15
4.78630092e+01 1.59051189e-12 2.67361912e-15 0.00000000e+00 1.58783827e-12 0.00000000e+00 2.67361912e-15
5.49540874e+01 9.78715285e-13 1.76644264e-15 0.00000000e+00 9.76948842e-13 0.00000000e+00 1.76644264e-15
6.30957344e+01 5.76829367e-13 1.16707708e-15 0.00000000e+00 5.75662290e-13 0.00000000e+00 1.16707708e-15
7.24435960e+01 3.28732466e-13 7.71080178e-16 0.00000000e+00 3.27961386e-13 0.00000000e+00 7.71080178e-16
8.31763771e+01 1.82987776e-13 5.09447621e-16 0.00000000e+00 1.82478328e-13 0.00000000e+00 5.09447621e-16
9.54992586e+01 1.00217307e-13 3.36588705e-16 0.00000000e+00 9.98807187e-14 0.00000000e+00 3.36588705e-16
1.09647820e+02 5.42536746e-14 2.22381952e-16 0.00000000e+00 5.40312927e-14 0.00000000e+00 2.22381952e-16
1.25892541e+02 2.94487637e-14 1.46926299e-16 0.00000000e+00 2.93018374e-14 0.00000000e+00 1.46926299e-16
1.44543977e+02 1.59453225e-14 9.70732430e-17 0.00000000e+00 1.58482492e-14 0.00000000e+00 9.70732430e-17
1.65958691e+02 8.24012744e-15 6.41356556e-17 0.00000000e+00 8.17599179e-15 0.00000000e+00 6.41356556e-17
1.90546072e+02 4.27276327e-15 4.23740075e-17 0.00000000e+00 4.23038926e-15 0.00000000e+00 4.23740075e-17
2.18776162e+02 2.21694683e-15 2.79962291e-17 0.00000000e+00 2.18895060e-15 0.00000000e+00 2.79962291e-17
2.51188643e+02 1.14881033e-15 1.84969251e-17 0.00000000e+00 1.13031341e-15 0.00000000e+00 1.84969251e-17
2.88403150e+02 5.93810612e-16 1.22207972e-17 0.00000000e+00 5.81589815e-16 0.00000000e+00 1.22207972e-17
3.31131121e+02 3.06788562e-16 8.07420067e-18 0.00000000e+00 2.98714361e-16 0.00000000e+00 8.07420067e-18
3.80189396e+02 1.58287827e-16 5.33457148e-18 0.00000000e+00 1.52953256e-16 0.00000000e+00 5.33457148e-18
4.36515832e+02 8.17007264e-17 3.52451642e-18 0.00000000e+00 7.81762099e-17 0.00000000e+00 3.52451642e-18
5.01187234e+02 4.21976439e-17 2.32862491e-18 0.00000000e+00 3.98690189e-17 0.00000000e+00 2.32862491e-18
5.75439937e+02 2.18348844e-17 1.53850722e-18 0.00000000e+00 2.02963771e-17 0.00000000e+00 1.53850722e-18
6.60693448e+02 1.13328802e-17 1.01648164e-18 0.00000000e+00 1.03163985e-17 0.00000000e+00 1.01648164e-18
7.58577575e+02 5.90818341e-18 6.71582760e-19 0.00000000e+00 5.23660065e-18 0.00000000e+00 6.71582760e-19
8.70963590e+02 3.09795489e-18 4.43710329e-19 0.00000000e+00 2.65424456e-18 0.00000000e+00 4.43710329e-19
1.00000000e+03 1.34348723e-18 0.00000000e+00 0.00000000e+00 1.34348723e-18 0.00000000e+00 0.00000000e+00
