Dust emission spectrum from A.P. Jones, M. Kohler, N. Ysard, M. Bocchio, and L. Verstraete (2017), A&A, 602A, 46J 
inside the DustPedia framework.

lambda    nu*dP/dnu     j_nu    j_nu(carb.) j_nu(sil)
 (um)   (erg s-1 H-1) (Jy cm2 sr-1 H-1)
0.9927057738263894 2.228685082060708e-21 5.872711778015484e-14 5.87271159519545e-14 1.8282003263608686e-21
1.0001793341362166 2.2661560551917394e-21 6.016405830215817e-14 6.016405610208998e-14 2.2000681974627348e-21
1.0077091589558085 2.3037758462712563e-21 6.162328693797282e-14 6.162328429392369e-14 2.644049114970333e-21
1.0114953028030835 2.3226398237792296e-21 6.236130165019161e-14 6.236129875305627e-14 2.8971353432432515e-21
1.0152956718711033 2.3415389653974038e-21 6.3104939850474e-14 6.310493667708732e-14 3.173386666453713e-21
1.0229392996569957 2.3794217361391953e-21 6.46086581668681e-14 6.460865436320706e-14 3.803661043511311e-21
1.0267826658714554 2.3983623327135883e-21 6.53676325401204e-14 6.536762837776329e-14 4.162357143518094e-21
1.0306404723013447 2.417334634105805e-21 6.613226544239913e-14 6.613226088904022e-14 4.553358918862781e-21
1.03451277320114 2.4363380566144825e-21 6.690257591016732e-14 6.690257093073918e-14 4.979428158561989e-21
1.0383996230291617 2.455372034378828e-21 6.767858342660422e-14 6.767857798305505e-14 5.443549165059565e-21
1.0403485208654093 2.4649003096393848e-21 6.806872979373999e-14 6.806872410286338e-14 5.690876616624313e-21
1.0423010764483396 2.474436019828306e-21 6.846030794204476e-14 6.846030199309927e-14 5.9489455010371755e-21
1.0462171883269815 2.493529484129153e-21 6.924776989470374e-14 6.924776339560584e-14 6.499097899926696e-21
1.0471985131304309 2.4983073961220993e-21 6.944553430068767e-14 6.944552765662462e-14 6.6440630559731925e-21
1.048180758391296 2.5030871108207446e-21 6.964365893550027e-14 6.964365214337992e-14 6.792120357796312e-21
1.0501480137395462 2.5126519176274715e-21 7.004099023167972e-14 7.00409831339163e-14 7.097763413554726e-21
1.0521189612883777 2.5222238439115458e-21 7.043976648463362e-14 7.043975906809038e-14 7.416543230281708e-21
1.0531058218030118 2.5270061180334878e-21 7.063952009009079e-14 7.06395125090536e-14 7.581037187988823e-21
1.0540936079674168 2.5317693785417494e-21 7.083905444841008e-14 7.083904669935469e-14 7.749055375837738e-21
1.058054026499678 2.550839014774466e-21 7.164078371432867e-14 7.164077525688449e-14 8.457444140911817e-21
1.0590464539527713 2.555610537735621e-21 7.184211572472497e-14 7.184210708073608e-14 8.643988872043796e-21
1.06003981227728 2.560383692686364e-21 7.204380831510873e-14 7.204379948064377e-14 8.834464950038661e-21
1.0620293250338977 2.5699348720758675e-21 7.244827665955195e-14 7.244826743202455e-14 9.227527406338213e-21
1.0660195594769086 2.5890565281330927e-21 7.326155610414737e-14 7.326154603975538e-14 1.0064392008934799e-20
1.070024785945596 2.608203582185448e-21 7.408064549108089e-14 7.408063451756198e-14 1.0973518893290515e-20
1.0740450607676866 2.627375655439474e-21 7.490556890884196e-14 7.490555694803043e-14 1.1960811530900853e-20
1.07808044048254 2.6465723914789365e-21 7.57363511143118e-14 7.573633808168558e-14 1.3032626222253553e-20
1.0861967418109137 2.6850091520122195e-21 7.741474706001084e-14 7.741473160230209e-14 1.5457708748906453e-20
1.0902777775684922 2.7041817606901405e-21 7.826047373503123e-14 7.826045690877207e-14 1.6826259156380388e-20
1.0943741465085532 2.723376685234643e-21 7.911211094584231e-14 7.911209263587786e-14 1.8309964427978358e-20
1.1026131145906286 2.761832574821384e-21 8.083323025745001e-14 8.083320859733277e-14 2.1660117203153843e-20
1.1109141095355224 2.8003752578374566e-21 8.257833985641025e-14 8.257831426659392e-14 2.5589816354797378e-20
1.1192775983109025 2.838973391532745e-21 8.434679147914599e-14 8.43467612859643e-14 3.0193181677719194e-20
1.1277040513999907 2.877487477165304e-21 8.61346743253603e-14 8.613463874680383e-14 3.557855646063365e-20
1.1361939428280308 2.916081684544287e-21 8.794711305086405e-14 8.794707118037899e-14 4.1870485052250233e-20
1.1447477501889525 2.9547561984663203e-21 8.978439986604426e-14 8.978435065410315e-14 4.9211941105542784e-20
1.1533659546722406 2.9935254229249087e-21 9.164726553383048e-14 9.1647207766916e-14 5.776691449944522e-20
1.1707974979042381 3.0714655034939762e-21 9.545459969349784e-14 9.545452039750095e-14 7.929599691872176e-20
1.1884924949847024 3.149796725009132e-21 9.936842443077325e-14 9.936831612783354e-14 1.0830293968876663e-19
1.2064549276569216 3.2290484776987334e-21 1.0340822886709488e-13 1.0340808167734035e-13 1.4718975452828356e-19
1.2246888378427687 3.308707624486399e-21 1.0756069131147719e-13 1.0756049225352684e-13 1.990579503666581e-19
1.2431983285522175 3.3887095442852015e-21 1.1182636201192803e-13 1.1182609411386389e-13 2.678980641179599e-19
1.2619875648066055 3.469171098815356e-21 1.1621180007155748e-13 1.1621144125318454e-13 3.588183728938833e-19
1.3004222497298317 3.6309788393376135e-21 1.253364940979719e-13 1.2533585946742434e-13 6.346305475540452e-19
1.3400274889804893 3.794615691217357e-21 1.3497425491521954e-13 1.3497315305880334e-13 1.101856416152485e-18
1.3808389325824078 3.960677373618565e-21 1.4517168705208893e-13 1.4516980820668697e-13 1.8788454020578474e-18
1.4228933163050095 4.130549099800179e-21 1.5600896707165987e-13 1.5600581907349267e-13 3.1479981671991023e-18
1.466228494730424 4.307171499879033e-21 1.6763444191103755e-13 1.6762925662531077e-13 5.185285726791433e-18
1.5108834753276823 4.4901644104141665e-21 1.800788247396412e-13 1.8007042439319267e-13 8.400346448546941e-18
1.5568984535646726 4.67933455587889e-21 1.9338100687506423e-13 1.9336760805054818e-13 1.3398824516016586e-17
1.6043148490894465 4.875739453293768e-21 2.0763450472918277e-13 2.0761342360257145e-13 2.1081126611306164e-17
1.6531753430134553 5.080480510108159e-21 2.2294264119055353e-13 2.2290996265993998e-13 3.267853061351965e-17
1.7035239163302658 5.294834923803694e-21 2.394253290327708e-13 2.393754090983603e-13 4.9919934410583444e-17
1.755405889504358 5.522650557036538e-21 2.573324462375717e-13 2.572572589089512e-13 7.518732862047167e-17
1.8088679632656115 5.7637381996821436e-21 2.7674548624060275e-13 2.7663379294196205e-13 1.1169329864072208e-16
1.8639582606462262 6.017759938803825e-21 2.9774225613669836e-13 2.975785395110219e-13 1.6371662567641164e-16
1.9207263702978936 6.285175729939984e-21 3.2044415686971466e-13 3.2020729036776006e-13 2.3686650195453323e-16
1.979223391128241 6.5667653008603145e-21 3.449973369034695e-13 3.4465894053781066e-13 3.3839636565877685e-16
2.039501978296691 6.863093534819275e-21 3.715467627990478e-13 3.7106922060016893e-13 4.775421988788324e-16
2.1016163906111602 7.176742647541988e-21 4.003596058059957e-13 3.9969365975175374e-13 6.659460542420575e-16
2.1656225393682647 7.508622354153618e-21 4.3163083056255225e-13 4.307128051343268e-13 9.180254282254098e-16
2.231578038680979 7.857265257634686e-21 4.654284501798636e-13 4.641770634042263e-13 1.2513867756372986e-15
2.299542257339062 8.222256763829716e-21 5.018822803341261e-13 5.001950283408371e-13 1.6872519932890396e-15
2.369576372248914 8.603906199288336e-21 5.411726136805409e-13 5.389217066469294e-13 2.2509070336115242e-15
2.4417434235010123 9.002714842243415e-21 5.835028128665176e-13 5.805307895148675e-13 2.9720233516501818e-15
2.5161083711144245 9.42073837125515e-21 6.291927628595066e-13 6.253076733607917e-13 3.8850894987150295e-15
2.5927381535095444 9.862079825645221e-21 6.78729311744165e-13 6.736996719357052e-13 5.029639808459807e-15
2.6717017477616296 1.0330132607729523e-20 7.325939101919661e-13 7.261437850648778e-13 6.450125127088462e-15
2.753070231689431 1.0830418643236132e-20 7.914654621084359e-13 7.832695531132837e-13 8.195908995152433e-15
2.836916847834745 1.137973849648581e-20 8.569358692689921e-13 8.466144284579566e-13 1.0321440811035293e-14
2.9233170693905177 1.20162690991661e-20 9.324273442505095e-13 9.19544082785741e-13 1.2883261464768488e-14
2.967498994190263 1.2404557165594217e-20 9.771050960573117e-13 9.627868515091654e-13 1.431824454814644e-14
3.0123486681368425 1.2819859032575551e-20 1.025080379851085e-12 1.009188026278e-12 1.5892353573085083e-14
3.0578761833420214 1.349467902241725e-20 1.0953474172362388e-12 1.0777255128834852e-12 1.7621904352753397e-14
3.1040917844459814 1.4283412884036165e-20 1.1768902847178428e-12 1.1573894352666332e-12 1.9500849451209332e-14
3.127460860933648 1.5007895006813432e-20 1.245894013877211e-12 1.2253883904582806e-12 2.0505623418930082e-14
3.1510058709225794 1.592610497773231e-20 1.3320735946261002e-12 1.3105215539413234e-12 2.1552040684776495e-14
3.162844764501044 1.6752219880429534e-20 1.4064350292311574e-12 1.3843418173899295e-12 2.209321184122813e-14
3.1747281389236908 1.7686475449397742e-20 1.490449514710579e-12 1.4678043754819641e-12 2.2645139228615148e-14
3.1986289994194426 2.0212622823700104e-20 1.7161528873034313e-12 1.6923682285640425e-12 2.3784658739388754e-14
3.2227097969389145 2.604571150562006e-20 2.2280598783278987e-12 2.2030686772368093e-12 2.4991201091088892e-14
3.2348180950136065 3.151279371438376e-20 2.70586548756884e-12 2.6802306409953605e-12 2.5634846573479713e-14
3.240889293275058 3.5595165315376204e-20 3.0621371851634863e-12 3.0361628313256673e-12 2.5974353837818693e-14
3.2469718861334385 4.032579395799848e-20 3.47560879995174e-12 3.4492831570527966e-12 2.6325642898944465e-14
3.2714166318528037 6.514436292229014e-20 5.656947283512434e-12 5.629170697383304e-12 2.777658612912953e-14
3.2744851364798273 6.669629913381362e-20 5.797145394673615e-12 5.769198029852787e-12 2.7947364820827318e-14
3.2775565192852394 6.828968624535178e-20 5.941207764692106e-12 5.9130887870355166e-12 2.811897765658758e-14
3.283707930232385 6.67648751722245e-20 5.8194507378354684e-12 5.791025288012143e-12 2.8425449823326046e-14
3.2898708863219004 6.190974859772663e-20 5.406389457211471e-12 5.377685493194315e-12 2.8703964017157554e-14
3.29141343181113 6.076236761138553e-20 5.30868012894998e-12 5.2799062386105196e-12 2.877389033946094e-14
3.292184975758714 6.019822281656355e-20 5.2606248460061065e-12 5.231815947794925e-12 2.8808898211181e-14
3.295272960557952 5.66793899971635e-20 4.9577656643105494e-12 4.9288206662563645e-12 2.8944998054184745e-14
3.3076538914384823 4.439774557486503e-20 3.898076971093011e-12 3.868585527356202e-12 2.949144373681032e-14
3.310756385682612 4.187240649765015e-20 3.679803091026307e-12 3.650173951705898e-12 2.9629139320407904e-14
3.313861789986515 3.953234498940355e-20 3.4774140239777446e-12 3.4476467548526974e-12 2.976726912504729e-14
3.3200813396944477 3.626552074812537e-20 3.196039033964573e-12 3.165974478878578e-12 3.006455508599679e-14
3.345076488085796 3.0570290022151144e-20 2.7144074881417412e-12 2.6830176231880526e-12 3.1389864953688575e-14
3.3482140837626964 3.080464741587137e-20 2.737782191600333e-12 2.7062127724740287e-12 3.156941912630437e-14
3.3513546224236106 3.104111723998654e-20 2.761386276338995e-12 2.72963651545359e-12 3.1749760885405315e-14
3.3576445397418455 3.268932273767618e-20 2.913466797758905e-12 2.881339915188298e-12 3.212688257060715e-14
3.3702598118196083 3.8652591471364206e-20 3.457892051785724e-12 3.4249741779534747e-12 3.291787383224896e-14
3.382922481734668 4.0083725977883575e-20 3.5993954539056362e-12 3.5657093583933183e-12 3.368609551231829e-14
3.389271646505754 4.082135059359957e-20 3.672511640160267e-12 3.638436279852196e-12 3.407536030807127e-14
3.395632727569191 4.163244342217346e-20 3.752511607414105e-12 3.718035086251936e-12 3.4476521162168866e-14
3.421196662673239 4.5563270675310965e-20 4.1377320593732795e-12 4.10159558090953e-12 3.613647846374958e-14
3.4276182099114902 4.4861774992164435e-20 4.081674115340301e-12 4.045167854966609e-12 3.650626037369294e-14
3.4340518103208963 4.1660278699002606e-20 3.797505811788108e-12 3.760650125699469e-12 3.685568608863811e-14
3.4469541582030403 3.7069065827863457e-20 3.3916933687106227e-12 3.354167661022011e-12 3.7525707688611195e-14
3.472904465399547 3.5813713803593894e-20 3.301502484579438e-12 3.2624323549578496e-12 3.907012962158778e-14
3.4990501388274233 3.390491389289658e-20 3.149069491481479e-12 3.1084204189690205e-12 4.064907251245866e-14
3.5253949054701885 2.7081558805873334e-20 2.5342582222575896e-12 2.4920775945840316e-12 4.218062767355971e-14
3.5519380250092896 2.058790857297493e-20 1.9410961290532053e-12 1.897378074887185e-12 4.371805416602071e-14
3.578680990867387 1.807385056631647e-20 1.7168925128192023e-12 1.6714896606004888e-12 4.540285221871328e-14
3.605625307711299 1.7126113197404578e-20 1.6391127807015886e-12 1.5919367071145383e-12 4.7176073587050294e-14
3.660119384959845 1.657205445221935e-20 1.610056201525532e-12 1.5591601889419373e-12 5.089601258359472e-14
3.715437065384467 1.622066996239624e-20 1.599735307994299e-12 1.5449257593567233e-12 5.480954863757519e-14
3.8285932144167436 1.633113863853244e-20 1.6596829174865237e-12 1.5964904621778257e-12 6.319245530869768e-14
3.94519561050918 1.6643547446180875e-20 1.7429457620387967e-12 1.6706547508877929e-12 7.229101115100373e-14
4.06534921144712 1.7024431889079484e-20 1.837130124189693e-12 1.755046145299237e-12 8.208397889045615e-14
4.189162171576248 1.743379754032909e-20 1.93860176771458e-12 1.846023194823496e-12 9.257857289108466e-14
4.316745939156006 1.7854112466447184e-20 2.0458047768590694e-12 1.942082046434139e-12 1.037227304249299e-13
4.448215356677963 1.8276654954258362e-20 2.1580025373903535e-12 2.0426557446387368e-12 1.1534679275161663e-13
4.58368876423945 1.8699234017150337e-20 2.275141282810358e-12 2.1476888278766743e-12 1.2745245493368282e-13
4.723288106065518 1.9123833044893283e-20 2.3976667110567758e-12 2.2575632397654298e-12 1.4010347129134584e-13
4.867139040275056 1.9552868457730443e-20 2.5261181810802108e-12 2.3731783908855784e-12 1.5293979019463233e-13
4.940699165968905 1.977975490378074e-20 2.5940524312518796e-12 2.4345885362961937e-12 1.5946389495568548e-13
5.015371051989984 1.9999337319437416e-20 2.662490749130224e-12 2.496454752694795e-12 1.6603599643542863e-13
5.091171501069577 2.0246213279324646e-20 2.736093708655966e-12 2.5632917337237645e-12 1.7280197493220124e-13
5.129500256944802 2.036652936232229e-20 2.7730743681635616e-12 2.5968797196485562e-12 1.7619464851500495e-13
5.168117569889187 2.0487896756400624e-20 2.8106009899724856e-12 2.630972324927194e-12 1.7962866504529182e-13
5.20702561229733 2.0634403008444656e-20 2.852010075115429e-12 2.66861951320636e-12 1.8339056190907044e-13
5.246226572918644 2.0779637883685e-20 2.893706307816868e-12 2.7065380662110905e-12 1.871682416057779e-13
5.265937586045735 2.0851786104346872e-20 2.914663361545737e-12 2.725600926296293e-12 1.8906243524944363e-13
5.285722656980489 2.0923626062818918e-20 2.9356937945916683e-12 2.7447339011482567e-12 1.909598934434117e-13
5.305582063971359 2.0995161505349613e-20 2.9567982276071463e-12 2.7639378419456543e-12 1.9286038566149263e-13
5.3255160863122235 2.1071315744145778e-20 2.978672725432264e-12 2.783892833928715e-12 1.9477989150354802e-13
5.365609099470188 2.1260839601252627e-20 3.0280906619539496e-12 2.8293385127406454e-12 1.987521492133046e-13
5.406003951863644 2.1451263415395047e-20 3.0782129988555175e-12 2.875473301735668e-12 2.0273969711984973e-13
5.446702915881641 2.1642757288340248e-20 3.1290731066185818e-12 2.922332419539478e-12 2.067406870791031e-13
5.487708281020852 2.1844833633211783e-20 3.1820660600667046e-12 2.971294473633311e-12 2.10771586433393e-13
5.529022354014368 2.2131362419479643e-20 3.2480741041963865e-12 3.0331009486193966e-12 2.1497315557698939e-13
5.570647458961463 2.2425681010413208e-20 3.316047540432812e-12 3.096857630149793e-12 2.1918991028301916e-13
5.612585937458331 2.2728561270911066e-20 3.386135885789835e-12 3.1627159179848437e-12 2.2341996780499008e-13
5.654840148729818 2.305484971521195e-20 3.460605242899904e-12 3.2329213511870267e-12 2.2768389171287687e-13
5.67608639626678 2.3283932803682275e-20 3.508122641476317e-12 3.2782053681993663e-12 2.299172732769505e-13
5.686739436050992 2.3400750177596646e-20 3.532340353641863e-12 3.3013047859923357e-12 2.3103556764952764e-13
5.6974124697621304 2.351913861212027e-20 3.5568742099739665e-12 3.3247193186781886e-12 2.321548912957784e-13
5.718818669136295 2.376079642784862e-20 3.606922016879767e-12 3.372525510437989e-12 2.34396506441778e-13
5.740305295436557 2.4026711860621657e-20 3.660991865987724e-12 3.424332112691405e-12 2.3665975329631906e-13
5.7835210386641895 2.4725812013997082e-20 3.795878613190475e-12 3.5545426981495274e-12 2.4133591504094755e-13
5.827062130521658 2.5514760301598718e-20 3.9464860726656234e-12 3.7004117094426465e-12 2.460743632229763e-13
5.8489554468988025 2.6081961821068794e-20 4.04937503588034e-12 3.800733543523307e-12 2.4864149235703183e-13
5.870931020387893 2.668157292820332e-20 4.158032114206986e-12 3.9068155122936975e-12 2.5121660191328917e-13
5.892989160043636 2.731617273675462e-20 4.272921612078067e-12 4.019122157741814e-12 2.5379945433625235e-13
5.915130176081913 2.8035799424095975e-20 4.401966002156565e-12 4.1454865269732656e-12 2.564794751833e-13
5.95966208400165 3.0072540798785817e-20 4.757307144233918e-12 4.494671476244934e-12 2.6263566798898394e-13
6.004529249263818 3.299769221810118e-20 5.259348690609145e-12 4.9897577635050825e-12 2.695909271040614e-13
6.027089341400364 3.5035488369905445e-20 5.605124169187451e-12 5.331489809797273e-12 2.736343593901786e-13
6.049734195844842 3.7421721013946915e-20 6.009377456386016e-12 5.7314547308814025e-12 2.7792272550461163e-13
6.095279466722835 4.431376922801908e-20 7.169712603869033e-12 6.881164893701114e-12 2.88547710167922e-13
6.141167624020661 5.482835110672222e-20 8.937695817493805e-12 8.6352541258575e-12 3.024416916363064e-13
6.164241091010745 6.152824843698755e-20 1.0067545501927971e-11 9.756333424087729e-12 3.11212077840243e-13
6.187401249150058 6.905841006442584e-20 1.1342121337955609e-11 1.1021913048719733e-11 3.202082892358723e-13
6.1990139391386085 7.271374119665514e-20 1.1964885201379567e-11 1.1640101183351809e-11 3.247840180277609e-13
6.204828454712694 7.463067436379077e-20 1.2291830928912944e-11 1.1964736784039635e-11 3.2709414487331157e-13
6.210648424152782 7.601454815669774e-20 1.2531501099127442e-11 1.2202449917032075e-11 3.29051182095366e-13
6.233982942956859 8.064266543464515e-20 1.3344426578647737e-11 1.3008599647652161e-11 3.3582693099557834e-13
6.239830258556775 8.119191601794858e-20 1.3447916353309501e-11 1.3111184926312162e-11 3.3673142699733895e-13
6.245683058788269 8.117277226882485e-20 1.3457356376120871e-11 1.3119719373419613e-11 3.376370027012617e-13
6.257405133728602 8.089187873019009e-20 1.3435957743671395e-11 1.3096756570814907e-11 3.3920117285649607e-13
6.269149208991335 7.978834878564623e-20 1.3277536895820248e-11 1.2937862031067391e-11 3.396748647528587e-13
6.280915325867298 7.724969761888463e-20 1.287920807950336e-11 1.2540406634667508e-11 3.3880144483585116e-13
6.304513850009849 7.108491923236349e-20 1.1895933027240835e-11 1.156009530426724e-11 3.3583772297359785e-13
6.32820103803542 6.358526723716933e-20 1.0680859483712527e-11 1.034928001501853e-11 3.3157946869399384e-13
6.3519772230701035 5.674674109441667e-20 9.567958670566831e-12 9.240223585416984e-12 3.2773508514984823e-13
6.375842739491607 5.0978301077148026e-20 8.62764739602868e-12 8.303331139105778e-12 3.2431625692290424e-13
6.399797922933955 4.6396781310433967e-20 7.881766187935596e-12 7.55933695549718e-12 3.2242923243841997e-13
6.42384311029221 4.257012845252137e-20 7.258875025243594e-12 6.938026643693202e-12 3.208483815503888e-13
6.447978639727206 3.9785481932598556e-20 6.809537977322354e-12 6.489078694542205e-12 3.204592827801476e-13
6.472204850670314 3.7453063602828154e-20 6.434414520436157e-12 6.114108718637639e-12 3.203058017985168e-13
6.496522083828205 3.592348077797961e-20 6.1948210128783526e-12 5.87370555601506e-12 3.2111545686329197e-13
6.520930681187647 3.4624882260730866e-20 5.993318004908089e-12 5.671249479675619e-12 3.220685252324694e-13
6.57002334288761 3.3226794499380583e-20 5.794617732358628e-12 5.469318319583273e-12 3.252994127753533e-13
