Dust emission spectrum from A.P. Jones, M. Kohler, N. Ysard, M. Bocchio, and L. Verstraete (2017), A&A, 602A, 46J 
inside the DustPedia framework.

lambda    nu*dP/dnu     j_nu    j_nu(carb.) j_nu(sil)
 (um)   (erg s-1 H-1) (Jy cm2 sr-1 H-1)
0.9927057738263894 6.709616496511841e-22 1.7680220566917554e-14 1.768022007284902e-14 4.9406854277633105e-22
1.0001793341362166 6.822511217583771e-22 1.811304926337513e-14 1.8113048668758468e-14 5.946166647450142e-22
1.0077091589558085 6.935832126320638e-22 1.855253296303297e-14 1.8552532248356608e-14 7.146763676862061e-22
1.0114953028030835 6.99264681898408e-22 1.8774781743920022e-14 1.8774780960799336e-14 7.831206840108681e-22
1.0152956718711033 7.049561445473747e-22 1.8998708010538686e-14 1.8998707152704706e-14 8.578339821872669e-22
1.0229392996569957 7.163626660233534e-22 1.945146163441687e-14 1.9451460606107706e-14 1.028309167088053e-21
1.0267826658714554 7.220647452656076e-22 1.9679955065544493e-14 1.967995394020776e-14 1.1253367318802038e-21
1.0306404723013447 7.27775711113247e-22 1.991013400909452e-14 1.9910132777985267e-14 1.2311092519720846e-21
1.03451277320114 7.334953712681673e-22 2.014200353797208e-14 2.0142002191597103e-14 1.346374978396648e-21
1.0383996230291617 7.392235386540268e-22 2.037556884709037e-14 2.037556737514786e-14 1.4719425109989915e-21
1.0403485208654093 7.42090755558251e-22 2.049298907748404e-14 2.0492987538624282e-14 1.538859756464555e-21
1.0423010764483396 7.449600315511764e-22 2.0610835259360503e-14 2.061083365067516e-14 1.6086853461840864e-21
1.0462171883269815 7.507046737306698e-22 2.0847808231766436e-14 2.0847806474219692e-14 1.7575467411739896e-21
1.0471985131304309 7.5214208748265275e-22 2.0907318777642773e-14 2.090731698086956e-14 1.79677321246176e-21
1.048180758391296 7.535799972638734e-22 2.09669364215023e-14 2.096693458466528e-14 1.8368370143418887e-21
1.0501480137395462 7.564572945872916e-22 2.1086493361523642e-14 2.1086491441978727e-14 1.919544914786545e-21
1.0521189612883777 7.59336545275632e-22 2.1206479774417574e-14 2.1206477768607225e-14 2.005810344473103e-21
1.0531058218030118 7.6077497943638895e-22 2.126658066255739e-14 2.1266578612232088e-14 2.050325302821138e-21
1.0540936079674168 7.62207612712144e-22 2.1326613330400487e-14 2.1326611234605826e-14 2.0957946629852364e-21
1.058054026499678 7.679426508465214e-22 2.1567810840139647e-14 2.1567808552632045e-14 2.2875076020709656e-21
1.0590464539527713 7.693775248333181e-22 2.1628377391201614e-14 2.1628375053207003e-14 2.3379946141656687e-21
1.06003981227728 7.708128399639443e-22 2.1689050999587597e-14 2.168904861004116e-14 2.3895464324551177e-21
1.0620293250338977 7.736847845765252e-22 2.1810719769333995e-14 2.1810717273403773e-14 2.4959302256724918e-21
1.0660195594769086 7.794338690253984e-22 2.20553462253882e-14 2.2055343502946615e-14 2.7224415848978154e-21
1.070024785945596 7.851897656545574e-22 2.2301696489482216e-14 2.2301693520954517e-14 2.9685276953996188e-21
1.0740450607676866 7.909523423885275e-22 2.2549777023218926e-14 2.2549773787429668e-14 3.2357892611965547e-21
1.07808044048254 7.967214737384268e-22 2.2799594475345628e-14 2.2799590949395718e-14 3.525949911120968e-21
1.0861967418109137 8.082700547206194e-22 2.3304211754915124e-14 2.3304207572383796e-14 4.182531334177322e-21
1.0902777775684922 8.140291029738748e-22 2.3558439805680568e-14 2.355843525258343e-14 4.5530971438025625e-21
1.0943741465085532 8.197939225902147e-22 2.3814416899547056e-14 2.381441194467657e-14 4.954870487000724e-21
1.1026131145906286 8.313405270222164e-22 2.433164879572132e-14 2.4331642933568575e-14 5.86215274901381e-21
1.1109141095355224 8.429092444154785e-22 2.485597094840906e-14 2.4855964021878046e-14 6.926531013892085e-21
1.1192775983109025 8.544904557719625e-22 2.538717992527788e-14 2.538717175173185e-14 8.173546030605881e-21
1.1277040513999907 8.660418780898656e-22 2.5924086799112974e-14 2.592407716650951e-14 9.632603460556886e-21
1.1361939428280308 8.776129258808023e-22 2.6468230851153407e-14 2.646821951364161e-14 1.1337511792144702e-20
1.1447477501889525 8.89203492997274e-22 2.7019691851053598e-14 2.7019678523964404e-14 1.3327089195662869e-20
1.1533659546722406 9.008178104706567e-22 2.7578683127782815e-14 2.7578667481915074e-14 1.564586774441242e-20
1.1707974979042381 9.241528925249253e-22 2.8720701668700315e-14 2.8720680186196436e-14 2.148250387861402e-20
1.1884924949847024 9.475845454963227e-22 2.9893987301878017e-14 2.989395795315042e-14 2.934872759510432e-20
1.2064549276569216 9.712717793285774e-22 3.1104362521227756e-14 3.110432262387033e-14 3.989735742544678e-20
1.2246888378427687 9.950576661312552e-22 3.234770267151564e-14 3.234764869988055e-14 5.397163509899726e-20
1.2431983285522175 1.0189216520559744e-21 3.3624097915608645e-14 3.362402525868348e-14 7.265692516768537e-20
1.2619875648066055 1.042897101509326e-21 3.493542001926472e-14 3.4935322676140454e-14 9.734312425553602e-20
1.3004222497298317 1.0910273135379974e-21 3.766079189514841e-14 3.7660619627792935e-14 1.7226735547920766e-19
1.3400274889804893 1.1395829584150925e-21 4.053489819329062e-14 4.053459892222445e-14 2.992710661730034e-19
1.3808389325824078 1.1887322498792923e-21 4.3570897068684516e-14 4.357038645269589e-14 5.106159886191811e-19
1.4228933163050095 1.2388832105662794e-21 4.6792057262366634e-14 4.679120119662364e-14 8.560657429947234e-19
1.466228494730424 1.2909152187921944e-21 5.024221864923932e-14 5.024080767178657e-14 1.4109774527580515e-18
1.5108834753276823 1.3447040282829935e-21 5.392958896432188e-14 5.392730165647465e-14 2.2873078472368004e-18
1.5568984535646726 1.4001847569877657e-21 5.786488118855061e-14 5.786123046647772e-14 3.650722072898083e-18
1.6043148490894465 1.4576734098827433e-21 6.207536301256633e-14 6.206961531870554e-14 5.747693860791058e-18
1.6531753430134553 1.517501441972222e-21 6.659129560887898e-14 6.658237992523261e-14 8.915683646350617e-18
1.7035239163302658 1.5800585160947242e-21 7.144812549420224e-14 7.14344965178116e-14 1.3628976390628505e-17
1.755405889504358 1.646514033470956e-21 7.672067599093773e-14 7.670013431804461e-14 2.0541672893122017e-17
1.8088679632656115 1.7168210161904387e-21 8.243304092817934e-14 8.240250401888721e-14 3.053690929213194e-17
1.8639582606462262 1.7908944864623894e-21 8.860854708805102e-14 8.856375487827343e-14 4.4792209777563744e-17
1.9207263702978936 1.868893552166959e-21 9.528389409234637e-14 9.521904108008198e-14 6.485301226437772e-17
1.979223391128241 1.951077587031285e-21 1.0250352202014213e-13 1.0241080186258343e-13 9.272015755868062e-17
2.039501978296691 2.037647080479502e-21 1.1031194207657346e-13 1.101809975002087e-13 1.3094457636478636e-16
2.1016163906111602 2.129412598662298e-21 1.18790770474506e-13 1.1860802459660888e-13 1.8274587789710143e-16
2.1656225393682647 2.226684276217897e-21 1.2800025600073526e-13 1.2774813924246343e-13 2.521167582718109e-16
2.231578038680979 2.329061473738138e-21 1.379629472280151e-13 1.3761900705590076e-13 3.4394017211435824e-16
2.299542257339062 2.4364585358262395e-21 1.487201629702528e-13 1.4825605212421532e-13 4.641108460374581e-16
2.369576372248914 2.5490145985113656e-21 1.6032914128007938e-13 1.5970947754725149e-13 6.196637328279341e-16
2.4417434235010123 2.666927450375871e-21 1.7285448848199511e-13 1.7203562014907e-13 8.188683329251284e-16
2.5161083711144245 2.7908696203753323e-21 1.8639674492846167e-13 1.853253907070968e-13 1.071354221364846e-15
2.5927381535095444 2.9221452402282028e-21 2.0110825127972602e-13 1.9972006957683013e-13 1.388181702895892e-15
2.6717017477616296 3.061867604907893e-21 2.1714199094512873e-13 2.1536017684440837e-13 1.781814100720368e-15
2.753070231689431 3.211824422926697e-21 2.347137432854834e-13 2.32447617706053e-13 2.266125579430371e-15
2.836916847834745 3.377303374793838e-21 2.543232785320856e-13 2.5146682054545325e-13 2.856457986632401e-15
2.9233170693905177 3.570290242562055e-21 2.770440826185119e-13 2.734752704844621e-13 3.568812134049847e-15
2.967498994190263 3.688856640359799e-21 2.9057068090408945e-13 2.8660233514801265e-13 3.968345756076711e-15
3.0123486681368425 3.815986641746604e-21 3.0512761694871796e-13 3.007207774004484e-13 4.406839548269725e-15
3.0578761833420214 4.024135483009939e-21 3.2663440164833827e-13 3.2174554231812135e-13 4.888859330216857e-15
3.1040917844459814 4.268300408454237e-21 3.5168914626708713e-13 3.4627628928234965e-13 5.412856984737558e-15
3.127460860933648 4.493553951260385e-21 3.730364562363971e-13 3.6734325400287056e-13 5.6932022335265544e-15
3.1510058709225794 4.77961490605444e-21 3.997712446162077e-13 3.937859796199649e-13 5.985264996242798e-15
3.162844764501044 5.037212661083889e-21 4.228999133727599e-13 4.16763565754785e-13 6.136347617974827e-15
3.1747281389236908 5.32891692292831e-21 4.4907091095879984e-13 4.427804513366269e-13 6.290459622172739e-15
3.1986289994194426 6.118777373176869e-21 5.195148372051862e-13 5.129061142621524e-13 6.608722943033695e-15
3.2227097969389145 7.94398535547115e-21 6.795619709114292e-13 6.726161649131469e-13 6.945805998282304e-15
3.2348180950136065 9.655566066218201e-21 8.290811414030666e-13 8.219554890752696e-13 7.125652327796904e-15
3.240889293275058 1.0933687329179152e-20 9.40589831371499e-13 9.333693145906854e-13 7.220516780813568e-15
3.2469718861334385 1.2414682518863472e-20 1.069999510886519e-12 1.0626808374178758e-12 7.318673468643291e-15
3.2714166318528037 2.0191881441441495e-20 1.7534043429885775e-12 1.7456801665245416e-12 7.724176464035274e-15
3.2744851364798273 2.0678424988602113e-20 1.797338649199562e-12 1.7895667205983063e-12 7.771928601255588e-15
3.2775565192852394 2.117802115952997e-20 1.842489410505638e-12 1.8346694943692002e-12 7.819916136437978e-15
3.283707930232385 2.0700786902476645e-20 1.8043501062892607e-12 1.7964444440904316e-12 7.905662198829207e-15
3.2898708863219004 1.9180005476931464e-20 1.6749313597365873e-12 1.6669477292563125e-12 7.983630480274805e-15
3.29141343181113 1.882064290185931e-20 1.644319945301844e-12 1.6363167382664876e-12 8.003207035356407e-15
3.292184975758714 1.864395643662079e-20 1.6292650491893985e-12 1.621252041190063e-12 8.013007999335217e-15
3.295272960557952 1.7541012249822654e-20 1.5343183519401605e-12 1.5262672324002208e-12 8.051119539939586e-15
3.3076538914384823 1.3692769351519275e-20 1.2022112426776687e-12 1.194007081873521e-12 8.204160804147975e-15
3.310756385682612 1.2901887042872912e-20 1.133835090732135e-12 1.1255923614500818e-12 8.24272928205313e-15
3.313861789986515 1.2169180892906908e-20 1.0704470050703908e-12 1.0621655838618737e-12 8.281421208516825e-15
3.3200813396944477 1.1146122491480832e-20 9.822950787757446e-13 9.739304048317545e-13 8.364673943989839e-15
3.345076488085796 9.360957090929133e-21 8.311812549171094e-13 8.224454943266511e-13 8.735760590458365e-15
3.3482140837626964 9.434280272399616e-21 8.384775248891247e-13 8.296914916312744e-13 8.78603325785036e-15
3.3513546224236106 9.508272864412278e-21 8.458463011006597e-13 8.37009772268736e-13 8.836528831923975e-15
3.3576445397418455 1.0024490901597698e-20 8.934422300704209e-13 8.845001154837236e-13 8.942114586697335e-15
3.3702598118196083 1.1893661792463318e-20 1.0640165901749543e-12 1.0548530116642893e-12 9.163578510665193e-15
3.382922481734668 1.2341750029241589e-20 1.108251238245728e-12 1.0988724897916748e-12 9.378748454053232e-15
3.389271646505754 1.2572771708196996e-20 1.1311152075078763e-12 1.1216274147983079e-12 9.48779270956863e-15
3.395632727569191 1.2826534866695102e-20 1.1561108840549132e-12 1.1465107146239992e-12 9.600169430914024e-15
3.421196662673239 1.4055730318757458e-20 1.2764414208162158e-12 1.2663761619710482e-12 1.0065258845167563e-14
3.4276182099114902 1.3835876837223797e-20 1.258834282847624e-12 1.2486653290069333e-12 1.0168953840690719e-14
3.4340518103208963 1.2832692704045242e-20 1.1697527392122163e-12 1.1594857553906352e-12 1.0266983821581455e-14
3.4469541582030403 1.1394659671319094e-20 1.042572581283601e-12 1.0321175377567873e-12 1.0455043526813705e-14
3.472904465399547 1.1002320790916237e-20 1.0142536355362523e-12 1.0033652423421546e-12 1.0888393194097264e-14
3.4990501388274233 1.0404607933131532e-20 9.663741815287496e-13 9.550425567664034e-13 1.1331624762346177e-14
3.5253949054701885 8.263942648589783e-21 7.733293624483611e-13 7.615674929895712e-13 1.1761869458789922e-14
3.5519380250092896 6.227395776816067e-21 5.871394752708118e-13 5.749454577638632e-13 1.2194017506948792e-14
3.578680990867387 5.4383137589020206e-21 5.166027095754311e-13 5.03935087693706e-13 1.2667621881725308e-14
3.605625307711299 5.140188853295561e-21 4.919592173391357e-13 4.787929831566962e-13 1.3166234182439477e-14
3.660119384959845 4.964665418753334e-21 4.823415448585298e-13 4.681286096548497e-13 1.4212935203680013e-14
3.715437065384467 4.853030561879669e-21 4.786216820027961e-13 4.633065685998421e-13 1.5315113402954017e-14
3.8285932144167436 4.885240283732668e-21 4.964718031110125e-13 4.787922849444449e-13 1.7679518166567688e-14
3.94519561050918 4.981583692399319e-21 5.216814632208316e-13 5.01430430424165e-13 2.025103279666661e-14
4.06534921144712 5.100256770025839e-21 5.503758019277742e-13 5.273509092338612e-13 2.302489269391299e-14
4.189162171576248 5.228758870506235e-21 5.814270336608108e-13 5.55422677128083e-13 2.600435653272772e-14
4.316745939156006 5.361667483728782e-21 6.143640559426258e-13 5.851879974989208e-13 2.9176058443705063e-14
4.448215356677963 5.4963508240968495e-21 6.489775647936593e-13 6.164842179543124e-13 3.249334683934678e-14
4.58368876423945 5.632184355609623e-21 6.852695210987521e-13 6.49311575424475e-13 3.5957945674277265e-14
4.723288106065518 5.769851412561251e-21 7.233999913702562e-13 6.83810756705483e-13 3.958923466477297e-14
4.867139040275056 5.910294247253445e-21 7.635760341658679e-13 7.202894448555079e-13 4.328658931036009e-14
4.940699165968905 5.984964369530993e-21 7.849091886760537e-13 7.397384509830246e-13 4.517073769302907e-14
5.015371051989984 6.057703758453585e-21 8.064557320196126e-13 7.593834903703055e-13 4.7072241649307374e-14
5.091171501069577 6.139456783503563e-21 8.296923897894266e-13 7.806596083885616e-13 4.903278140086499e-14
5.129500256944802 6.17950321032567e-21 8.413913659850293e-13 7.913740481009662e-13 5.001731788406317e-14
5.168117569889187 6.219981753607918e-21 8.532787470651275e-13 8.022641865791035e-13 5.101456048602401e-14
5.20702561229733 6.268475355168707e-21 8.66405238922465e-13 8.142997997225762e-13 5.2105439199889016e-14
5.246226572918644 6.316686050855762e-21 8.796416170568349e-13 8.26439698284659e-13 5.320191877217589e-14
5.265937586045735 6.340687937321351e-21 8.863015727009071e-13 8.325494683791042e-13 5.3752104321802936e-14
5.285722656980489 6.364622413382286e-21 8.929896982381915e-13 8.386861946815551e-13 5.43035035566366e-14
5.305582063971359 6.388490755728004e-21 8.997062555964679e-13 8.448502023710462e-13 5.485605322542179e-14
5.3255160863122235 6.4138557887379755e-21 9.066722522098559e-13 8.512579721856268e-13 5.541428002422919e-14
5.365609099470188 6.476505133817214e-21 9.22420990215893e-13 8.6585161900712e-13 5.656937120877313e-14
5.406003951863644 6.53959048847915e-21 9.384180343606913e-13 8.806880073535964e-13 5.773002700709486e-14
5.446702915881641 6.603167881808932e-21 9.546748023916148e-13 8.957790612011346e-13 5.889574119048022e-14
5.487708281020852 6.670269532191034e-21 9.716365272570595e-13 9.11565314852795e-13 6.007121240426458e-14
5.529022354014368 6.764460156446834e-21 9.927752050042924e-13 9.314787158177272e-13 6.129648918656518e-14
5.570647458961463 6.861347272584085e-21 1.0145758221006907e-12 9.520484031089158e-13 6.252741899177516e-14
5.612585937458331 6.961183426671316e-21 1.037087773733614e-12 9.733242876527802e-13 6.376348608083385e-14
5.654840148729818 7.068719781788005e-21 1.061037006947193e-12 9.96026435381503e-13 6.501057156569002e-14
5.67608639626678 7.143659257008372e-21 1.0763144265104421e-12 1.0106508789839194e-12 6.566354752652284e-14
5.686739436050992 7.181886367523788e-21 1.084104861542526e-12 1.018114232951284e-12 6.599062859124205e-14
5.6974124697621304 7.220635970586372e-21 1.0919997661034096e-12 1.0256816719278933e-12 6.631809417551638e-14
5.718818669136295 7.299757425781377e-21 1.1081133520454304e-12 1.041139205943249e-12 6.697414610218153e-14
5.740305295436557 7.386725776423687e-21 1.1255282512498274e-12 1.0578914886809624e-12 6.763676256886497e-14
5.7835210386641895 7.614530882918517e-21 1.168974143764684e-12 1.0999681090069351e-12 6.90060347577489e-14
5.827062130521658 7.871602261953063e-21 1.2175371561070273e-12 1.1471424630801146e-12 7.039469302691265e-14
5.8489554468988025 8.055719538127188e-21 1.2506969306041642e-12 1.1795506105226897e-12 7.114632008147458e-14
5.870931020387893 8.250425019230332e-21 1.2857387485411105e-12 1.213838088655548e-12 7.190065988556214e-14
5.892989160043636 8.45655860824684e-21 1.3228138652221663e-12 1.250156216575831e-12 7.265764864633531e-14
5.915130176081913 8.690187074062359e-21 1.364466462102193e-12 1.291023574340527e-12 7.344288776166606e-14
5.95966208400165 9.350090434523588e-21 1.479131820653752e-12 1.403889048368001e-12 7.524277228575101e-14
6.004529249263818 1.0297016289970475e-20 1.641193535108183e-12 1.5639194181171508e-12 7.727411699103206e-14
6.027089341400364 1.0956218340085e-20 1.7528216981743467e-12 1.674368559121545e-12 7.845313905280189e-14
6.049734195844842 1.1728238487225134e-20 1.8833824329453515e-12 1.8036792611650373e-12 7.970317178031372e-14
6.095279466722835 1.3957282682246077e-20 2.2582079409166973e-12 2.175413996317904e-12 8.279394459879378e-14
6.141167624020661 1.735857849344654e-20 2.8296618677539154e-12 2.7428339938660953e-12 8.682787388782086e-14
6.164241091010745 1.952649771544666e-20 3.1950186985231307e-12 3.1056481603099496e-12 8.937053821317988e-14
6.187401249150058 2.1964548980701148e-20 3.607447368686432e-12 3.515467906768364e-12 9.197946191806695e-14
6.1990139391386085 2.31487588522327e-20 3.809077041880003e-12 3.715770462854893e-12 9.330657902510943e-14
6.204828454712694 2.37699012188436e-20 3.914953328101571e-12 3.82097664933243e-12 9.397667876914086e-14
6.210648424152782 2.4218929329240092e-20 3.992650707906897e-12 3.898105540749046e-12 9.454516715784973e-14
6.233982942956859 2.5722779963741123e-20 4.256503015801698e-12 4.159986154565083e-12 9.65168612366154e-14
6.239830258556775 2.590258298741213e-20 4.290276500832567e-12 4.193493813417602e-12 9.678268741496395e-14
6.245683058788269 2.5898622728694874e-20 4.293644112049207e-12 4.196595250445691e-12 9.704886160351637e-14
6.257405133728602 2.5812298833353098e-20 4.2873643415889e-12 4.189854133249848e-12 9.75102083390518e-14
6.269149208991335 2.5460041758307593e-20 4.236792075033732e-12 4.139134328232014e-12 9.765774680171893e-14
6.280915325867298 2.464360253514764e-20 4.1086255954632115e-12 4.011208074463423e-12 9.741752099978985e-14
6.304513850009849 2.265819089350437e-20 3.791807380500618e-12 3.695220757668699e-12 9.658662283191954e-14
6.32820103803542 2.023920102478357e-20 3.3997193312409093e-12 3.3043364349433556e-12 9.538289629755408e-14
6.3519772230701035 1.8032469372490862e-20 3.0404199141090485e-12 2.946121734488194e-12 9.429817962085448e-14
6.375842739491607 1.6171038096032134e-20 2.736811776233433e-12 2.6434760421716036e-12 9.333573406183014e-14
6.399797922933955 1.4692282281645615e-20 2.495887224078574e-12 2.403072495749859e-12 9.281472832871443e-14
6.42384311029221 1.3457342909868992e-20 2.294688174679473e-12 2.2023063193492e-12 9.238185533027315e-14
6.447978639727206 1.2559103462505976e-20 2.1495703416120294e-12 2.0572776716741355e-12 9.229266993789406e-14
6.472204850670314 1.1806995159140633e-20 2.028434893880274e-12 1.9361634033316234e-12 9.227149054865072e-14
6.496522083828205 1.1314646962430529e-20 1.951153152150279e-12 1.8586248644467708e-12 9.252828770350786e-14
