Dust emission spectrum from A.P. Jones, M. Kohler, N. Ysard, M. Bocchio, and L. Verstraete (2017), A&A, 602A, 46J 
inside the DustPedia framework.

lambda    nu*dP/dnu     j_nu    j_nu(carb.) j_nu(sil)
 (um)   (erg s-1 H-1) (Jy cm2 sr-1 H-1)
0.9927057738263894 5.44729470156846e-24 1.4353930938795163e-16 1.4353930938760793e-16 3.436764959171715e-28
1.0001793341362166 5.5372394691713394e-24 1.4700788036773072e-16 1.4700788036731672e-16 4.140027652489685e-28
1.0077091589558085 5.627054671189758e-24 1.5051707620757737e-16 1.5051707620707925e-16 4.980791335766053e-28
1.0114953028030835 5.671902623729556e-24 1.5228673289231108e-16 1.5228673289176502e-16 5.460543902891706e-28
1.0152956718711033 5.7167049463827176e-24 1.540663329184283e-16 1.5406633291782984e-16 5.984573168806592e-28
1.0229392996569957 5.806111217825481e-24 1.5765387415514479e-16 1.576538741544266e-16 7.181444612529247e-28
1.0267826658714554 5.850606684742621e-24 1.594589369123063e-16 1.5945893691152e-16 7.863311220777745e-28
1.0306404723013447 5.895036849517053e-24 1.612735515491409e-16 1.612735515482802e-16 8.607131586403925e-28
1.03451277320114 5.939397424878205e-24 1.6309763991895951e-16 1.6309763991801771e-16 9.418259939022176e-28
1.0383996230291617 5.9836841474178326e-24 1.6493112290085912e-16 1.6493112289982884e-16 1.0302487633822213e-27
1.0403485208654093 6.005798488290886e-24 1.6585136238427953e-16 1.6585136238320212e-16 1.0773951239510606e-27
1.0423010764483396 6.0278927784074666e-24 1.6677392041845443e-16 1.667739204173278e-16 1.126607658555403e-27
1.0462171883269815 6.0720191045978285e-24 1.6862595145863417e-16 1.6862595145740253e-16 1.2315795072743412e-27
1.0471985131304309 6.083037334769784e-24 1.6909039237518752e-16 1.6909039237392825e-16 1.2592526880673584e-27
1.048180758391296 6.0940500939124895e-24 1.6955540398157902e-16 1.6955540398029145e-16 1.2875215815933094e-27
1.0501480137395462 6.11605893900009e-24 1.7048713409033122e-16 1.7048713408898532e-16 1.3458956065593957e-27
1.0521189612883777 6.13804512071544e-24 1.7142113140315838e-16 1.7142113140175157e-16 1.4068021779408031e-27
1.0531058218030118 6.1490126600878915e-24 1.7188850483453595e-16 1.7188850483309773e-16 1.438239709650659e-27
1.0540936079674168 6.1599189996764545e-24 1.7235489184532782e-16 1.7235489184385746e-16 1.4703567860282188e-27
1.058054026499678 6.2034821882685184e-24 1.7422594023038694e-16 1.7422594022878112e-16 1.6058339428601438e-27
1.0590464539527713 6.2143571244310306e-24 1.746950707456853e-16 1.746950707440438e-16 1.641527395933452e-27
1.06003981227728 6.225225589188612e-24 1.7516474595073586e-16 1.7516474594905795e-16 1.6779802682063884e-27
1.0620293250338977 6.246942851408456e-24 1.7610572504885233e-16 1.7610572504709916e-16 1.7532260747941602e-27
1.0660195594769086 6.290296941775838e-24 1.779941601522141e-16 1.7799416015030056e-16 1.9135273494601487e-27
1.070024785945596 6.3335404427255415e-24 1.7989115859116775e-16 1.7989115858907993e-16 2.0878100737462242e-27
1.0740450607676866 6.37666936894823e-24 1.8179663263445997e-16 1.8179663263218272e-16 2.2772304280764665e-27
1.07808044048254 6.419679767112624e-24 1.8371049378769835e-16 1.8371049378521528e-16 2.483034589027712e-27
1.0861967418109137 6.505253273897061e-24 1.8756082689052842e-16 1.8756082688757916e-16 2.9492690583894143e-27
1.0902777775684922 6.5476356907455085e-24 1.8949209644523513e-16 1.8949209644202247e-16 3.2127037461433707e-27
1.0943741465085532 6.589881076222913e-24 1.9143124990700132e-16 1.9143124990350282e-16 3.498544545614301e-27
1.1026131145906286 6.673945739296387e-24 1.953328371851656e-16 1.953328371810209e-16 4.144794228911257e-27
1.1109141095355224 6.757417599323176e-24 1.9926483977705043e-16 1.9926483977214628e-16 4.90413894444958e-27
1.1192775983109025 6.840190034327497e-24 2.0322419513472902e-16 2.0322419512893385e-16 5.795202747699809e-27
1.1277040513999907 6.921878354301696e-24 2.0719942050100068e-16 2.0719942049416126e-16 6.839472656806121e-27
1.1361939428280308 7.002877443726236e-24 2.1120219556572012e-16 2.1120219555765843e-16 8.061702311876078e-27
1.1447477501889525 7.08316030058453e-24 2.1523173284925104e-16 2.1523173283976067e-16 9.490373551522275e-27
1.1533659546722406 7.162744337835136e-24 2.1928857769282568e-16 2.1928857768166746e-16 1.1158229663796869e-26
1.1707974979042381 7.32007329753368e-24 2.2749227219003033e-16 2.274922721746629e-16 1.5367413950688116e-26
1.1884924949847024 7.474268158818976e-24 2.3579497839270396e-16 2.3579497837164414e-16 2.105992172394127e-26
1.2064549276569216 7.626535778458417e-24 2.442349697406728e-16 2.4423496971195214e-16 2.8720565344364127e-26
1.2246888378427687 7.77521209231357e-24 2.527594706626344e-16 2.5275947062365596e-16 3.897838608291311e-26
1.2431983285522175 7.919949259596999e-24 2.6135586465750403e-16 2.6135586460485733e-16 5.264677175959965e-26
1.2619875648066055 8.06069330045634e-24 2.7002060480402746e-16 2.7002060473325535e-16 7.07721017277507e-26
1.3004222497298317 8.327861691852805e-24 2.874665576349239e-16 2.8746655750881157e-16 1.2611240421444391e-25
1.3400274889804893 8.575672860662027e-24 3.050361746628387e-16 3.0503617444218513e-16 2.2065359567899126e-25
1.3808389325824078 8.803209126184603e-24 3.2266620069409383e-16 3.2266620031484723e-16 3.7924662974909537e-25
1.4228933163050095 9.011580770048098e-24 3.403633206263178e-16 3.4036331998569466e-16 6.406231270116968e-25
1.466228494730424 9.205808585578475e-24 3.5828863202373686e-16 3.582886309596683e-16 1.0640685198468219e-24
1.5108834753276823 9.382115142855712e-24 3.762713598145525e-16 3.762713580758971e-16 1.7386555544329874e-24
1.5568984535646726 9.53744471514218e-24 3.9415020234282865e-16 3.9415019954523033e-16 2.7975983671903547e-24
1.6043148490894465 9.672083491122431e-24 4.118879371254853e-16 4.1188793268450357e-16 4.440981590583948e-24
1.6531753430134553 9.786443415403698e-24 4.294506274654624e-16 4.294506205184267e-16 6.947035669794556e-24
1.7035239163302658 9.881886753765029e-24 4.46845656480846e-16 4.468456457692879e-16 1.0711558030135782e-23
1.755405889504358 9.966274171685708e-24 4.643867443697912e-16 4.64386728082198e-16 1.6287593090733197e-23
1.8088679632656115 1.0037667238527565e-23 4.819578898987592e-16 4.81957865466264e-16 2.443249531060828e-23
1.8639582606462262 1.0094753794422753e-23 4.994607296504037e-16 4.99460693479496e-16 3.617090779979872e-23
1.9207263702978936 1.0138488849366556e-23 5.169019373304445e-16 5.16901884461883e-16 5.2868561616946034e-23
1.979223391128241 1.0171092736491197e-23 5.343574418638001e-16 5.343573655414626e-16 7.63223374937593e-23
2.039501978296691 1.0195222049231096e-23 5.519379459410263e-16 5.519378370782601e-16 1.088627659853579e-22
2.1016163906111602 1.0218314323147764e-23 5.700358080721139e-16 5.700356545883081e-16 1.534838058708121e-22
2.1656225393682647 1.0244682675232257e-23 5.889124107452511e-16 5.889121967748519e-16 2.1397039919552734e-22
2.231578038680979 1.0274636933086899e-23 6.086224897754064e-16 6.086221947285143e-16 2.950468918795647e-22
2.299542257339062 1.031075978286432e-23 6.2936341936749e-16 6.293630168258356e-16 4.0254165425182733e-22
2.369576372248914 1.0358760295570571e-23 6.515502672620751e-16 6.515497236898574e-16 5.435722177446411e-22
2.4417434235010123 1.042537950977678e-23 6.757115354372156e-16 6.757108087206067e-16 7.267166091654682e-22
2.5161083711144245 1.052216122039706e-23 7.027546492231821e-16 7.02753686993275e-16 9.6222990693652e-22
2.5927381535095444 1.066799577222739e-23 7.341941614937031e-16 7.341928992601551e-16 1.2622335479801888e-21
2.6717017477616296 1.0885435544603343e-23 7.719749680460616e-16 7.719733272148343e-16 1.6408312271764977e-21
2.753070231689431 1.1208434252381701e-23 8.190900912785604e-16 8.19087976997376e-16 2.1142811844170417e-21
2.836916847834745 1.1713919077949951e-23 8.821008875300202e-16 8.820981862995607e-16 2.701230459451634e-21
2.9233170693905177 1.257131709364204e-23 9.754974455564706e-16 9.754940232778378e-16 3.422278632842442e-21
2.967498994190263 1.329925535639711e-23 1.0475803375348165e-15 1.0475765033848422e-15 3.834149974371803e-21
3.0123486681368425 1.4149361272789205e-23 1.1313878406389188e-15 1.1313835507392946e-15 4.28989962441057e-21
3.0578761833420214 1.605111028728075e-23 1.302849972773763e-15 1.3028451780023795e-15 4.794771383550188e-21
3.1040917844459814 1.8501661576244657e-23 1.5244553901088933e-15 1.5244500409584752e-15 5.349150417490666e-21
3.127460860933648 2.1093822367747715e-23 1.7511227927590738e-15 1.7511171447991681e-15 5.647959905394251e-21
3.1510058709225794 2.4547483616881185e-23 2.0531733770613495e-15 2.053167416172316e-15 5.960889033552379e-21
3.162844764501044 2.7762220681983653e-23 2.3307812298955084e-15 2.330775106497865e-15 6.123397643875469e-21
3.1747281389236908 3.150069949837664e-23 2.6545821644751715e-15 2.654575874866816e-15 6.2896083563800156e-21
3.1986289994194426 4.1928380070271264e-23 3.559929413672182e-15 3.559922779448955e-15 6.6342232274457776e-21
3.2227097969389145 6.650869799941338e-23 5.689434191127587e-15 5.6894271901671095e-15 7.000960475035634e-21
3.2348180950136065 8.981846592627278e-23 7.712318028640769e-15 7.712310831547026e-15 7.1970937436837e-21
3.240889293275058 1.0724550772024675e-22 9.22598488368432e-15 9.225977583114829e-15 7.300569492409429e-21
3.2469718861334385 1.2740589330161607e-22 1.0980888420598074e-14 1.0980881012943999e-14 7.40765407453458e-21
3.2714166318528037 2.3494452733462845e-22 2.0401900426398642e-14 2.0401892574916322e-14 7.851482315307484e-21
3.2744851364798273 2.4166703342004983e-22 2.100534734355612e-14 2.100533943942269e-14 7.904133430322856e-21
3.2775565192852394 2.4858262432603007e-22 2.1626706740271142e-14 2.162669878318941e-14 7.957081728389734e-21
3.283707930232385 2.419317286261542e-22 2.108758195125034e-14 2.1087573898795396e-14 8.052454945648768e-21
3.2898708863219004 2.20840107702139e-22 1.9285292818232066e-14 1.928528467834799e-14 8.139884065981794e-21
3.29141343181113 2.158661806561211e-22 1.8859773718671682e-14 1.8859765556815797e-14 8.161855891810369e-21
3.292184975758714 2.134221695890147e-22 1.8650616504904182e-14 1.865060833204515e-14 8.172859027264528e-21
3.295272960557952 1.979953808611663e-22 1.731872380727289e-14 1.7318715591495284e-14 8.215777603637791e-21
3.3076538914384823 1.445523573887079e-22 1.2691550171257586e-14 1.2691541782753547e-14 8.388504040773706e-21
3.310756385682612 1.3367535589491463e-22 1.1747569078547074e-14 1.17475606464333e-14 8.432113778494679e-21
3.313861789986515 1.2363963394034706e-22 1.0875808078141646e-14 1.0875799602246102e-14 8.475895542265645e-21
3.3200813396944477 1.0956564542680294e-22 9.655895526708674e-15 9.655886956925997e-15 8.569782676215636e-21
3.345076488085796 8.445895665728878e-23 7.49930812645432e-15 7.499299138906561e-15 8.987547758377411e-21
3.3482140837626964 8.54003857177954e-23 7.590012377597147e-15 7.590003333471925e-15 9.044125220713846e-21
3.3513546224236106 8.635222256728798e-23 7.681806053730264e-15 7.681796952733984e-15 9.100996277449665e-21
3.3576445397418455 9.330860666842179e-23 8.316217795490412e-15 8.316208575691138e-15 9.219799273649094e-21
3.3702598118196083 1.189667512224536e-22 1.0642861650910488e-14 1.0642852181803473e-14 9.469107014361917e-21
3.382922481734668 1.2481044338438728e-22 1.1207594392935982e-14 1.120758468023778e-14 9.712698206733102e-21
3.389271646505754 1.2783787426302026e-22 1.1500993339448641e-14 1.1500983503019248e-14 9.836429392588999e-21
3.395632727569191 1.3110007070707514e-22 1.1816614558805699e-14 1.1816604594844334e-14 9.963961363693175e-21
3.421196662673239 1.4676385456776536e-22 1.3328049044804349e-14 1.3328038551400162e-14 1.049340418466889e-20
3.4276182099114902 1.4360699824742065e-22 1.3065844310230597e-14 1.306583369727908e-14 1.0612951517031758e-20
3.4340518103208963 1.2977419842690151e-22 1.1829452133696367e-14 1.1829441407001003e-14 1.072669536102405e-20
3.4469541582030403 1.10073743653465e-22 1.0071372938078925e-14 1.0071361991680816e-14 1.0946398105921533e-20
3.472904465399547 1.0455230412768628e-22 9.638198756461345e-15 9.638187305720444e-15 1.1450740901916195e-20
3.4990501388274233 9.610768107501962e-23 8.926427812983895e-15 8.926415842778549e-15 1.1970205348170021e-20
3.5253949054701885 6.605590166783744e-23 6.181428223180799e-15 6.181415743105872e-15 1.2480074928133322e-20
3.5519380250092896 3.7810936986523074e-23 3.564940224999706e-15 3.5649272281292975e-15 1.2996870408788104e-20
3.578680990867387 2.6611500233119696e-23 2.527910991489473e-15 2.527897427226254e-15 1.35642632197066e-20
3.605625307711299 2.2081331981084254e-23 2.1133688098356733e-15 2.113354645133343e-15 1.4164702330352845e-20
3.660119384959845 1.8775921860170754e-23 1.8241727069801077e-15 1.8241572683499564e-15 1.5438630151370348e-20
3.715437065384467 1.6434795433129755e-23 1.6208530593983669e-15 1.6208362593600293e-15 1.680003833747172e-20
3.8285932144167436 1.524457970152948e-23 1.5492593060959966e-15 1.549239514276445e-15 1.9791819551199172e-20
3.94519561050918 1.5013563894932412e-23 1.5722506063318707e-15 1.5722274498598857e-15 2.3156471985009264e-20
4.06534921144712 1.5176359339611257e-23 1.637702044918867e-15 1.6376751258530416e-15 2.6919065825492225e-20
4.189162171576248 1.5567141679300315e-23 1.7310335460730173e-15 1.731002428575834e-15 3.1117497183217973e-20
4.316745939156006 1.6124072523898774e-23 1.847568993071223e-15 1.8475332194770117e-15 3.577359421107161e-20
4.448215356677963 1.6826330222381157e-23 1.986756515661319e-15 1.986715647422432e-15 4.0868238885886124e-20
4.58368876423945 1.767631163954633e-23 2.1506820173525916e-15 2.1506355694729677e-15 4.6447879624277075e-20
4.723288106065518 1.8693579348829024e-23 2.3437232907214945e-15 2.343670701430902e-15 5.258929059275298e-20
4.867139040275056 1.9917397973726987e-23 2.57321329860171e-15 2.573154086800015e-15 5.921180169587615e-20
4.940699165968905 2.065618577472612e-23 2.7089935739839105e-15 2.7089308380049643e-15 6.27359789451601e-20
5.015371051989984 2.142114073740022e-23 2.8517739432152857e-15 2.8517075411015993e-15 6.640211368712335e-20
5.091171501069577 2.235533216930096e-23 3.0211221653879066e-15 3.0210518847701966e-15 7.028061771006942e-20
5.129500256944802 2.2834740955507047e-23 3.1091421479261303e-15 3.1090698717367576e-15 7.227618937274741e-20
5.168117569889187 2.3334573955923474e-23 3.2011180767306214e-15 3.2010437533239993e-15 7.432340662228293e-20
5.20702561229733 2.394860728408107e-23 3.31008700524214e-15 3.3100104757556438e-15 7.652948649624252e-20
5.246226572918644 2.4578288929549024e-23 3.422694375565744e-15 3.42261559356383e-15 7.878200191402742e-20
5.265937586045735 2.4899154157410594e-23 3.4804046038509376e-15 3.4803246780109717e-15 7.992583996700276e-20
5.285722656980489 2.5224121739840524e-23 3.539075753091443e-15 3.53899467160354e-15 8.108148790377258e-20
5.305582063971359 2.555325800394794e-23 3.598725732898488e-15 3.59864348388513e-15 8.224901335796281e-20
5.3255160863122235 2.5906969945568525e-23 3.6622480395842374e-15 3.662164604745035e-15 8.343483920272486e-20
5.365609099470188 2.6788773099341194e-23 3.815410641757485e-15 3.815324749295825e-15 8.589246165972495e-20
5.406003951863644 2.770416884419762e-23 3.9754923058515176e-15 3.975403903378288e-15 8.840247322848511e-20
5.446702915881641 2.8654784075064534e-23 4.14286003537782e-15 4.142769069823181e-15 9.096555463755872e-20
5.487708281020852 2.968216507118588e-23 4.323704709690263e-15 4.323611119517645e-15 9.359017261739678e-20
5.529022354014368 3.1111727756703606e-23 4.5660630985109005e-15 4.565966760248447e-15 9.633826245210267e-20
5.570647458961463 3.262570159501831e-23 4.8243073411602876e-15 4.824208195046817e-15 9.914611347086578e-20
5.612585937458331 3.4230173005419026e-23 5.099663626258104e-15 5.099561611656238e-15 1.020146018657029e-19
5.654840148729818 3.599421650854437e-23 5.4028447767913706e-15 5.4027398220435765e-15 1.0495474779578062e-19
5.67608639626678 3.719650963945918e-23 5.604290252437178e-15 5.604183759910648e-15 1.0649252653003684e-19
5.686739436050992 3.781626439914212e-23 5.708360447733265e-15 5.708253179887645e-15 1.0726784562045861e-19
5.6974124697621304 3.844882087376753e-23 5.814737589893545e-15 5.814629542419027e-15 1.0804747451814032e-19
5.718818669136295 3.975357345785439e-23 6.034647861665341e-15 6.0345382419331076e-15 1.0961973223254365e-19
5.740305295436557 4.119207156336872e-23 6.27650757255035e-15 6.276396354020133e-15 1.1121853021620507e-19
5.7835210386641895 4.492549280012989e-23 6.896910694399806e-15 6.896796153371668e-15 1.1454102813982334e-19
5.827062130521658 4.922718783864953e-23 7.614196994417852e-15 7.614079032037738e-15 1.1796238011508232e-19
5.8489554468988025 5.2246085186211255e-23 8.111506125456477e-15 8.111386326509945e-15 1.197989465334499e-19
5.870931020387893 5.548596895939625e-23 8.646883054529022e-15 8.646761395968055e-15 1.216585609650296e-19
5.892989160043636 5.896463387439461e-23 9.223519738955387e-15 9.22339619748927e-15 1.2354146611554254e-19
5.915130176081913 6.292135636005361e-23 9.879428345049413e-15 9.879302853050623e-15 1.254919987936087e-19
5.95966208400165 7.398697575896638e-23 1.1704324244282137e-14 1.1704194391345521e-14 1.298529366122932e-19
6.004529249263818 8.993957073714111e-23 1.4335049871483145e-14 1.433491514357968e-14 1.3472790346127164e-19
6.027089341400364 1.0103003491033242e-22 1.6163208130878544e-14 1.6163070626307483e-14 1.3750457106481851e-19
6.049734195844842 1.141369147283357e-22 1.8328708133286666e-14 1.8328567691258814e-14 1.404420278552055e-19
6.095279466722835 1.520006349575905e-22 2.4592827178475805e-14 2.4592679662583913e-14 1.4751589189912258e-19
6.141167624020661 2.1027657568886305e-22 3.427766899998657e-14 3.427751247751426e-14 1.5652247230739695e-19
6.164241091010745 2.4749222313227474e-22 4.049585809856475e-14 4.049569601440653e-14 1.6208415821931864e-19
6.187401249150058 2.898881243386522e-22 4.761109150375704e-14 4.761092366792514e-14 1.67835831900624e-19
6.1990139391386085 3.105890817542359e-22 5.110674608174707e-14 5.110657531154687e-14 1.7077020020035674e-19
6.204828454712694 3.214937465731237e-22 5.2950704402276265e-14 5.295053214562671e-14 1.722566495616634e-19
6.210648424152782 3.2945376038813954e-22 5.4312631733401513e-14 5.431245818668262e-14 1.7354671889754067e-19
6.233982942956859 3.5649709802646866e-22 5.89917176531149e-14 5.899153950092887e-14 1.7815218604144913e-19
6.239830258556775 3.599537850826088e-22 5.961958567128754e-14 5.961940680183992e-14 1.788694475963024e-19
6.245683058788269 3.602528767987776e-22 5.972509270163065e-14 5.972491311241182e-14 1.795892188176289e-19
6.257405133728602 3.5950841991982864e-22 5.971353384742357e-14 5.971335295192316e-14 1.8089550039752332e-19
6.269149208991335 3.5418756279587037e-22 5.894016488167798e-14 5.893998328513902e-14 1.8159653896064927e-19
6.280915325867298 3.4084654805445313e-22 5.682654755791037e-14 5.6826366012623296e-14 1.815452870761385e-19
6.304513850009849 3.0794790818387884e-22 5.153452703040418e-14 5.1534346271986324e-14 1.807584178471537e-19
6.32820103803542 2.67170096737978e-22 4.4878418940419647e-14 4.487823970098602e-14 1.7923943362874398e-19
6.3519772230701035 2.297738020240266e-22 3.87417180078593e-14 3.8741540058825794e-14 1.7794903351197699e-19
6.375842739491607 1.9831340796365062e-22 3.3562871293530446e-14 3.356269439895745e-14 1.7689457299665009e-19
6.399797922933955 1.7309775507188292e-22 2.9405402586112355e-14 2.940522586885931e-14 1.767172530620303e-19
6.42384311029221 1.521335873431917e-22 2.5941164328359025e-14 2.594098760999784e-14 1.7671836118330994e-19
6.447978639727206 1.3685554241662524e-22 2.3423695484494844e-14 2.3423518067533947e-14 1.7741696089029772e-19
6.472204850670314 1.2412829632286503e-22 2.1325169036279683e-14 2.1324990774496488e-14 1.7826178319532175e-19
6.496522083828205 1.1585555323946907e-22 1.9978699171780945e-14 1.9978519489302436e-14 1.7968247850813487e-19
