Dust emission spectrum from A.P. Jones, M. Kohler, N. Ysard, M. Bocchio, and L. Verstraete (2017), A&A, 602A, 46J 
inside the DustPedia framework.

lambda    nu*dP/dnu     j_nu    j_nu(carb.) j_nu(sil)
 (um)   (erg s-1 H-1) (Jy cm2 sr-1 H-1)
0.9927057738263894 5.97709986794437e-23 1.5749997644528382e-15 1.5749997319929411e-15 3.2459896714997105e-23
1.0001793341362166 6.077714600845265e-23 1.6135692630320378e-15 1.613569223959298e-15 3.907273970838644e-23
1.0077091589558085 6.178641316953714e-23 1.6527136847003038e-15 1.652713637729695e-15 4.697060882823581e-23
1.0114953028030835 6.229215607473877e-23 1.6725020795935683e-15 1.672502028119728e-15 5.147384050948584e-23
1.0152956718711033 6.279860688984932e-23 1.6924349195294826e-15 1.692434863139371e-15 5.639011156980037e-23
1.0229392996569957 6.381304697650784e-23 1.7327215583821607e-15 1.7327214907724416e-15 6.760971904445333e-23
1.0267826658714554 6.431987381379793e-23 1.7530453256119206e-15 1.7530452516153302e-15 7.399658980627128e-23
1.0306404723013447 6.482729185882098e-23 1.7735135271022574e-15 1.7735134461423056e-15 8.095995173283686e-23
1.03451277320114 6.533527937622798e-23 1.794126425194921e-15 1.794126336645701e-15 8.854922078423865e-23
1.0383996230291617 6.584381505706441e-23 1.8148842896603197e-15 1.8148841928425124e-15 9.681780718447171e-23
1.0403485208654093 6.609828191920025e-23 1.8253176707364398e-15 1.8253175695117384e-15 1.0122470111080564e-22
1.0423010764483396 6.635287803049776e-23 1.835787398182156e-15 1.8357872923587386e-15 1.058234172180169e-22
1.0462171883269815 6.686244787546386e-23 1.8568360368490954e-15 1.8568359212207192e-15 1.156283760993639e-22
1.0471985131304309 6.698991718604995e-23 1.8621209699675784e-15 1.862120851755293e-15 1.182122853110766e-22
1.048180758391296 6.711741661901929e-23 1.8674150218104815e-15 1.867414900959046e-15 1.2085143546538874e-22
1.0501480137395462 6.737250463222625e-23 1.878030500653364e-15 1.8780303743533906e-15 1.2629997325344987e-22
1.0521189612883777 6.762770949408184e-23 1.8886825117258802e-15 1.8886823797426437e-15 1.319832368513133e-22
1.0531058218030118 6.775518184578863e-23 1.8940173888173843e-15 1.8940172539013113e-15 1.3491607324602716e-22
1.0540936079674168 6.788211524074096e-23 1.8993455321676328e-15 1.89934539425575e-15 1.3791188313618206e-22
1.058054026499678 6.839010294554082e-23 1.9207486418955205e-15 1.920748491351333e-15 1.5054418723733664e-22
1.0590464539527713 6.851716197101711e-23 1.926122077980241e-15 1.926121924109106e-15 1.538711347756279e-22
1.06003981227728 6.864424527038303e-23 1.9315045875042495e-15 1.931504430235888e-15 1.5726836148500963e-22
1.0620293250338977 6.889848357522679e-23 1.9422968471763945e-15 1.9422966828970718e-15 1.6427932215009662e-22
1.0660195594769086 6.940723931447e-23 1.9639904736794667e-15 1.9639902944709825e-15 1.7920848375676407e-22
1.070024785945596 6.991635287189243e-23 1.9858298587229334e-15 1.9858296632929754e-15 1.9542995817150363e-22
1.0740450607676866 7.042580749093198e-23 2.0078153518136567e-15 2.0078151387640215e-15 2.130496351895495e-22
1.07808044048254 7.093558696058817e-23 2.02994731519312e-15 2.0299470830115644e-15 2.3218155593544296e-22
1.0861967418109137 7.195525991243169e-23 2.074629146639455e-15 2.074628871156831e-15 2.7548262402429827e-22
1.0902777775684922 7.246330809901606e-23 2.0971270876367462e-15 2.0971267877106034e-15 2.9992614310476465e-22
1.0943741465085532 7.297159027250954e-23 2.1197715970884625e-15 2.1197712706565933e-15 3.2643186913186746e-22
1.1026131145906286 7.398880452720218e-23 2.165502039242037e-15 2.165501652942371e-15 3.8629966630760625e-22
1.1109141095355224 7.500680475546411e-23 2.2118240751145944e-15 2.2118236185611834e-15 4.565534105218079e-22
1.1192775983109025 7.602468397331824e-23 2.2587172481047485e-15 2.2587167092192347e-15 5.388855135752014e-22
1.1277040513999907 7.703859931165638e-23 2.30607247289516e-15 2.3060718376499554e-15 6.352452044131907e-22
1.1361939428280308 7.805294677447535e-23 2.3540257360796864e-15 2.354024988205335e-15 7.478743509809977e-22
1.1447477501889525 7.906767192990692e-23 2.402581802423076e-15 2.4025809230751e-15 8.793479761707528e-22
1.1533659546722406 8.008312231585377e-23 2.4517577567415846e-15 2.4517567241203523e-15 1.0326212316206886e-21
1.1707974979042381 8.211928372443453e-23 2.5520922654399738e-15 2.552090846833094e-15 1.4186068806993321e-21
1.1884924949847024 8.415788765366051e-23 2.6549766317196306e-15 2.6549746925889356e-15 1.9391306947012055e-21
1.2064549276569216 8.621297853589484e-23 2.76091594081838e-15 2.760913303228994e-15 2.6375893852520577e-21
1.2246888378427687 8.826990036857137e-23 2.8695105712498656e-15 2.8695070011678515e-15 3.570082014239703e-21
1.2431983285522175 9.032651145673839e-23 2.980746811561398e-15 2.9807420026881536e-15 4.808873244154436e-21
1.2619875648066055 9.238525687327929e-23 3.094761456125126e-15 3.0947550095480063e-15 6.446577118622143e-21
1.3004222497298317 9.649353560330563e-23 3.330826752447406e-15 3.330815330157513e-15 1.1422289894376631e-20
1.3400274889804893 1.0060335812743714e-22 3.578455477493575e-15 3.578435609449846e-15 1.9868043729604724e-20
1.3808389325824078 1.047262675947523e-22 3.8385577797033814e-15 3.838523837651419e-15 3.3942051962665815e-20
1.4228933163050095 1.0889558738490728e-22 4.112936971843019e-15 4.112879992598816e-15 5.697924420350385e-20
1.466228494730424 1.131872210255789e-22 4.405228960262451e-15 4.405134921323317e-15 9.403893913348799e-20
1.5108834753276823 1.1758658117791217e-22 4.71583029221812e-15 4.71567764028946e-15 1.526519286595641e-19
1.5568984535646726 1.2208506707247796e-22 5.045361239500264e-15 5.0451172579390606e-15 2.4398156120512273e-19
1.6043148490894465 1.2670893612594407e-22 5.395929673702951e-15 5.39554501124328e-15 3.8466245967133807e-19
1.6531753430134553 1.314862321054864e-22 5.769904600060602e-15 5.769307070579737e-15 5.975294808641601e-19
1.7035239163302658 1.3645143795233978e-22 6.170150892119656e-15 6.1692361524775864e-15 9.14739642069093e-19
1.755405889504358 1.4170965899127391e-22 6.603078146462442e-15 6.601697409860567e-15 1.3807366018753816e-18
1.8088679632656115 1.4725756050994055e-22 7.070561460993477e-15 7.06850579629283e-15 2.0556647006451382e-18
1.8639582606462262 1.5309025100900824e-22 7.574485720847146e-15 7.571465814806546e-15 3.01990604060107e-18
1.9207263702978936 1.592255061568869e-22 8.117972394875963e-15 8.113593175008915e-15 4.3792198670505415e-18
1.979223391128241 1.6569108673593168e-22 8.704892143023486e-15 8.698621261268418e-15 6.27088175506781e-18
2.039501978296691 1.725111781034546e-22 9.339224279226783e-15 9.330353894814728e-15 8.87038441205676e-18
2.1016163906111602 1.7976477059313668e-22 1.0028303399888968e-14 1.001590356095756e-14 1.2399838931406289e-17
2.1656225393682647 1.8748749131933706e-22 1.0777660372476781e-14 1.0760524854118397e-14 1.7135518358386174e-17
2.231578038680979 1.956537021372929e-22 1.158963028125208e-14 1.1566213911939064e-14 2.3416369313019116e-17
2.299542257339062 2.0426537493556198e-22 1.2468252343680789e-14 1.243659940198315e-14 3.1652941697638536e-17
2.369576372248914 2.133466097190092e-22 1.3419177258239806e-14 1.3376840330346466e-14 4.233692789333785e-17
2.4417434235010123 2.229272899840629e-22 1.44488304972232e-14 1.439278198501583e-14 5.604851220736712e-17
2.5161083711144245 2.330814417250818e-22 1.556705541656416e-14 1.5493589417569954e-14 7.346599899420298e-17
2.5927381535095444 2.439434729793983e-22 1.6788708715299404e-14 1.6693336857966375e-14 9.537185733303019e-17
2.6717017477616296 2.5563807821183894e-22 1.8129379982115553e-14 1.8006727888142543e-14 1.22652093973011e-16
2.753070231689431 2.6835966149059425e-22 1.9611190526375837e-14 1.9454892297958205e-14 1.562982284176301e-16
2.836916847834745 2.8264193575657565e-22 2.128397001251194e-14 2.1086557321689393e-14 1.974126908225422e-16
2.9233170693905177 2.996854465030722e-22 2.325471431168098e-14 2.3007558263816865e-14 2.471560478641063e-16
2.967498994190263 3.104270850843659e-22 2.4452294647925922e-14 2.4177161123926218e-14 2.751335239997086e-16
3.0123486681368425 3.2204331036210465e-22 2.575069492383996e-14 2.5444820567264696e-14 3.0587435657526804e-16
3.0578761833420214 3.416367468298126e-22 2.7730257803938117e-14 2.7390555578496436e-14 3.397022254416728e-16
3.1040917844459814 3.649050892377432e-22 3.006657147382298e-14 2.969004215300432e-14 3.7652932081867176e-16
3.127460860933648 3.867316609702558e-22 3.2104879542460046e-14 3.1708626199570114e-14 3.962533428899304e-16
3.1510058709225794 4.1464424775213687e-22 3.468121391680481e-14 3.426439677308016e-14 4.1681714372464617e-16
3.162844764501044 4.3987718912839745e-22 3.692995267287851e-14 3.650249206981801e-14 4.2746060306049966e-16
3.1747281389236908 4.685756473066211e-22 3.948714078910111e-14 3.90488191686437e-14 4.38321620457402e-16
3.1986289994194426 5.466545602861588e-22 4.641370940206085e-14 4.59529455635053e-14 4.607638385555454e-16
3.2227097969389145 7.275860100041764e-22 6.224077221208525e-14 6.175622327233616e-14 4.845489397490871e-16
3.2348180950136065 8.975584378337596e-22 7.706940939679445e-14 7.657216623545083e-14 4.972431613436069e-16
3.240889293275058 1.0245054255939879e-21 8.813489507121107e-14 8.763095600733685e-14 5.039390638742139e-16
3.2469718861334385 1.1715690112846637e-21 1.0097545927087906e-13 1.0046459187576746e-13 5.108673951115996e-16
3.2714166318528037 1.9461130453102336e-21 1.689948049412717e-13 1.6845530237894128e-13 5.395025623303966e-16
3.2744851364798273 1.9946084325825226e-21 1.733684663061119e-13 1.7282558797133193e-13 5.428783347799409e-16
3.2775565192852394 2.0444223150517098e-21 1.7786489293354722e-13 1.7731862184530824e-13 5.462710882389854e-16
3.283707930232385 1.9969766688918535e-21 1.7406319294756359e-13 1.7351085206698586e-13 5.523408805777433e-16
3.2898708863219004 1.8456060242160263e-21 1.6117114311547865e-13 1.6061327612234549e-13 5.578669931330924e-16
3.29141343181113 1.8098486657924497e-21 1.5812266746990126e-13 1.575634127830926e-13 5.59254686808666e-16
3.292184975758714 1.7922697303940984e-21 1.5662353859160138e-13 1.5606358913194487e-13 5.599494596565272e-16
3.295272960557952 1.6822820763936388e-21 1.4714978965805443e-13 1.4658713723669635e-13 5.626524213580361e-16
3.3076538914384823 1.2989780385373352e-21 1.1404895254061217e-13 1.1347544259156284e-13 5.735099490493215e-16
3.310756385682612 1.220331705081056e-21 1.072443825431118e-13 1.0666813563445778e-13 5.762469086540191e-16
3.313861789986515 1.1475206658165158e-21 1.0094024164729513e-13 1.0036124873035216e-13 5.789929169429399e-16
3.3200813396944477 1.045792589575275e-21 9.216450967097297e-14 9.157961142929757e-14 5.848982416753857e-16
3.345076488085796 8.676948369800514e-22 7.70446522167095e-14 7.643344037137954e-14 6.1121184532994195e-16
3.3482140837626964 8.74937987481461e-22 7.776065762230441e-14 7.71458813179982e-14 6.147763043061965e-16
3.3513546224236106 8.82249823910898e-22 7.848404866406493e-14 7.786569171766693e-14 6.18356946398012e-16
3.3576445397418455 9.335162035626436e-22 8.320051431090153e-14 8.257467151107208e-14 6.2584279982945e-16
3.3702598118196083 1.1196687261503176e-21 1.0016646857058929e-13 9.952492367573475e-14 6.415448948545459e-16
3.382922481734668 1.1640411268298627e-21 1.0452731720555051e-13 1.0387050374654038e-13 6.568134590101291e-16
3.389271646505754 1.1869394392654444e-21 1.0678355427934089e-13 1.0611900049690175e-13 6.645537824390968e-16
3.395632727569191 1.2120080179715613e-21 1.0924350775181597e-13 1.0857097705916892e-13 6.7253069264706e-16
3.421196662673239 1.333246303308093e-21 1.2107594319887257e-13 1.2037038481372182e-13 7.055583851507751e-16
3.4276182099114902 1.3112850282366298e-21 1.1930509121677754e-13 1.1859215514773262e-13 7.129360690449352e-16
3.4340518103208963 1.2114065637425538e-21 1.1042469253477999e-13 1.0970477506246131e-13 7.19917472318704e-16
3.4469541582030403 1.0684179731412306e-21 9.775660847084304e-14 9.702328418103082e-14 7.333242898122455e-16
3.472904465399547 1.0294964007635227e-21 9.490456487216587e-14 9.414036745511189e-14 7.641974170539539e-16
3.4990501388274233 9.699634951001672e-22 9.008966841560469e-14 8.929386272450835e-14 7.958056910963183e-16
3.5253949054701885 7.560729957989353e-22 7.075236030412061e-14 6.992582259568877e-14 8.265377084318435e-16
3.5519380250092896 5.528940489294377e-22 5.212868001377598e-14 5.12712339978818e-14 8.574460158941826e-16
3.578680990867387 4.739237804491301e-22 4.5019526266112846e-14 4.4128201093248704e-14 8.913251728641466e-16
3.605625307711299 4.438117035853761e-22 4.2476505158332106e-14 4.154948735603141e-14 9.270178023006967e-16
3.660119384959845 4.25528103273882e-22 4.134213796936674e-14 4.034008238693054e-14 1.0020555824361924e-15
3.715437065384467 4.137219786156113e-22 4.08026091658968e-14 3.9721377049192026e-14 1.0812321167047813e-15
3.8285932144167436 4.156578681208808e-22 4.2242018668031145e-14 4.0990369522249327e-14 1.2516491457818149e-15
3.94519561050918 4.241856261214445e-22 4.442157188885816e-14 4.2983722977860394e-14 1.4378489109977719e-15
4.06534921144712 4.351521758506449e-22 4.695787654298848e-14 4.53181814900334e-14 1.6396950529550876e-15
4.189162171576248 4.473225706968338e-22 4.974133284991349e-14 4.788369985211318e-14 1.8576329978003217e-15
4.316745939156006 4.601774107714375e-22 5.272920437395354e-14 5.0638275236207504e-14 2.090929137746021e-15
4.448215356677963 4.7348224091142225e-22 5.590606595426541e-14 5.3569629884801805e-14 2.3364360694635948e-15
4.58368876423945 4.87193256310653e-22 5.927694627076996e-14 5.668244212151929e-14 2.5945041492506597e-15
4.723288106065518 5.0139684576318755e-22 6.286305278304482e-14 5.999626638121318e-14 2.866786401831635e-15
4.867139040275056 5.162368831107807e-22 6.669483707669202e-14 6.354862345851285e-14 3.146213618179174e-15
4.940699165968905 5.242474357300002e-22 6.875339668506364e-14 6.546393978601551e-14 3.2894568990481145e-15
5.015371051989984 5.32163949603372e-22 7.084642706948639e-14 6.74118054429726e-14 3.434621626513797e-15
5.091171501069577 5.410939227179455e-22 7.312397915181562e-14 6.953917271176006e-14 3.584806440055571e-15
5.129500256944802 5.455179348770592e-22 7.427685766528656e-14 7.061637891671879e-14 3.660478748567758e-15
5.168117569889187 5.500130753254584e-22 7.54527081226432e-14 7.171545476298148e-14 3.737253359661708e-15
5.20702561229733 5.553374706015397e-22 7.675666994564979e-14 7.293568478355659e-14 3.820985162093211e-15
5.246226572918644 5.6066675054593965e-22 7.807666917582781e-14 7.417134349800937e-14 3.905325677818434e-15
5.265937586045735 5.633336027611194e-22 7.87427899019696e-14 7.479507579801298e-14 3.947714103956611e-15
5.285722656980489 5.660021488241993e-22 7.94130515924969e-14 7.542280909158857e-14 3.99024250090835e-15
5.305582063971359 5.686725633356546e-22 8.008750144318915e-14 7.60545947340468e-14 4.032906709142368e-15
5.3255160863122235 5.715041164659232e-22 8.078867712199056e-14 7.671264059550893e-14 4.076036526481651e-15
5.365609099470188 5.784123518835371e-22 8.238080312661633e-14 7.821553291517766e-14 4.165270211438686e-15
5.406003951863644 5.85408848211112e-22 8.400498801927075e-14 7.974985739792548e-14 4.25513062134527e-15
5.446702915881641 5.925001686283988e-22 8.566266851409464e-14 8.131708381307158e-14 4.345584701023046e-15
5.487708281020852 5.999988593516464e-22 8.739988770245908e-14 8.296290640174256e-14 4.436981300716481e-15
5.529022354014368 6.103384051796753e-22 8.95753424974745e-14 8.504307476230242e-14 4.532267735172076e-15
5.570647458961463 6.210214218895481e-22 9.182938781911174e-14 8.72011767160555e-14 4.628211103056234e-15
5.612585937458331 6.320764660629218e-22 9.416772046359658e-14 8.9442942620037e-14 4.724777843559566e-15
5.654840148729818 6.439989043282526e-22 9.666625513805287e-14 9.18438482772585e-14 4.822406860794398e-15
5.67608639626678 6.521874380115714e-22 9.826319020354643e-14 9.338969853419151e-14 4.873491669354928e-15
5.686739436050992 6.563700503136922e-22 9.907897815449936e-14 9.417987547978293e-14 4.899102674716438e-15
5.6974124697621304 6.606135250446406e-22 9.990668658164108e-14 9.498192786721909e-14 4.9247587144219995e-15
5.718818669136295 6.69289186242201e-22 1.0159903136441779e-13 9.662282758296409e-14 4.976203781453717e-15
5.740305295436557 6.788090947966052e-22 1.0343132214782232e-13 9.840311572307738e-14 5.0282064247449214e-15
5.7835210386641895 7.035679870338869e-22 1.0801095929207769e-13 1.0287524413341661e-13 5.1357151586610836e-15
5.827062130521658 7.315472998454326e-22 1.1315180688392534e-13 1.079068519372935e-13 5.2449549466318125e-15
5.8489554468988025 7.5142242951063315e-22 1.166626670315486e-13 1.11358698824543e-13 5.3039682070056335e-15
5.870931020387893 7.724755289226323e-22 1.2038188548112783e-13 1.1501862314046528e-13 5.363262340662536e-15
5.892989160043636 7.947995502529131e-22 1.2432620807731378e-13 1.1890337459425747e-13 5.422833483056323e-15
5.915130176081913 8.200837160243834e-22 1.2876324952442336e-13 1.2327865687489104e-13 5.484592649532292e-15
5.95966208400165 8.91192724700621e-22 1.4098168639873398e-13 1.3535618209912002e-13 5.625504299613967e-15
6.004529249263818 9.931047831179231e-22 1.5828635245781698e-13 1.525021715968688e-13 5.784180860948197e-15
6.027089341400364 1.0639537763455144e-21 1.7021578131661128e-13 1.6433982365484424e-13 5.875957661767019e-15
6.049734195844842 1.1470016966490748e-21 1.8419158583621943e-13 1.7821839034410554e-13 5.973195492113892e-15
6.095279466722835 1.3866569374449452e-21 2.2435310502441512e-13 2.1814057090248164e-13 6.212534121933437e-15
6.141167624020661 1.752716018253939e-21 2.857142757240788e-13 2.7919070370012473e-13 6.5235720239540194e-15
6.164241091010745 1.986211233985487e-21 3.249933564266505e-13 3.1827437011086177e-13 6.718986315788749e-15
6.187401249150058 2.2493397031905802e-21 3.6943051280890684e-13 3.6251087554826695e-13 6.919637260639789e-15
6.1990139391386085 2.3773487093333618e-21 3.9118746914551585e-13 3.841657363161008e-13 7.021732829414946e-15
6.204828454712694 2.4445361848461424e-21 4.02620313160633e-13 3.955470139696336e-13 7.07329919099948e-15
6.210648424152782 2.4932708946817194e-21 4.110321999509702e-13 4.0391501073661634e-13 7.117189214353766e-15
6.233982942956859 2.6571112679423523e-21 4.3968817294475554e-13 4.324181500476504e-13 7.270022897105208e-15
6.239830258556775 2.677076722430102e-21 4.43407491783707e-13 4.361164017756714e-13 7.291090008035677e-15
6.245683058788269 2.6772827528374147e-21 4.4385755367889975e-13 4.3654536333153476e-13 7.312190347364882e-15
6.257405133728602 2.6692724901357405e-21 4.433601116303812e-13 4.360110707749027e-13 7.349040855478559e-15
6.269149208991335 2.6326668504305136e-21 4.381006973198878e-13 4.307385121007325e-13 7.36218521915523e-15
6.280915325867298 2.546081639537807e-21 4.244872955333641e-13 4.1714127791374977e-13 7.34601761961416e-15
6.304513850009849 2.3347268853710347e-21 3.9071233343439764e-13 3.8342516997416e-13 7.287163460237552e-15
6.32820103803542 2.0761326234537598e-21 3.4874243333679864e-13 3.4154233933604784e-13 7.200094000750756e-15
6.3519772230701035 1.839929445118843e-21 3.102269583792567e-13 3.031049547717153e-13 7.122003607541404e-15
6.375842739491607 1.6407087811705039e-21 2.776761199257096e-13 2.706229993456154e-13 7.05312058009425e-15
6.399797922933955 1.4822798991919129e-21 2.5180590680069597e-13 2.4478820203897414e-13 7.017704761721764e-15
6.42384311029221 1.3500389994007363e-21 2.302028378134816e-13 2.2321388151237295e-13 6.988956301108673e-15
6.447978639727206 1.25392897393331e-21 2.146179097020687e-13 2.0763160034423914e-13 6.986309357829605e-15
6.472204850670314 1.1735304677087425e-21 2.0161185108043275e-13 1.9462300962486732e-13 6.9888414555654065e-15
6.496522083828205 1.1211097375705724e-21 1.933296554130666e-13 1.8631712988093318e-13 7.012525532133348e-15
