Dust emission spectrum from A.P. Jones, M. Kohler, N. Ysard, M. Bocchio, and L. Verstraete (2017), A&A, 602A, 46J 
inside the DustPedia framework.

lambda    nu*dP/dnu     j_nu    j_nu(carb.) j_nu(sil)
 (um)   (erg s-1 H-1) (Jy cm2 sr-1 H-1)
0.9927057738263894 3.6301354012886646e-27 9.565612969970152e-20 9.565612969448353e-20 5.217993155013283e-30
1.0001793341362166 3.689832890319046e-27 9.796117995924726e-20 9.79611799529609e-20 6.286354665050275e-30
1.0077091589558085 3.74943749222783e-27 1.0029303103143293e-19 1.0029303102386915e-19 7.563773142390623e-30
1.0114953028030835 3.779197610324897e-27 1.0146888887390206e-19 1.0146888886560933e-19 8.292762359273274e-30
1.0152956718711033 3.808925710498872e-27 1.0265130386807859e-19 1.0265130385898946e-19 9.08908696848875e-30
1.0229392996569957 3.868244934038393e-27 1.0503481196844266e-19 1.0503481195753462e-19 1.090807484841456e-29
1.0267826658714554 3.8977638168670634e-27 1.0623398701432577e-19 1.062339870023813e-19 1.1944477081809227e-29
1.0306404723013447 3.927237618406175e-27 1.0743945706626771e-19 1.0743945705319258e-19 1.3075130674925677e-29
1.03451277320114 3.9566634923225395e-27 1.08651169704231e-19 1.086511696899228e-19 1.430819038989288e-29
1.0383996230291617 3.986038608486702e-27 1.098690718673027e-19 1.0986907185165023e-19 1.5652477690346812e-29
1.0403485208654093 4.0007062525603674e-27 1.1048032726706851e-19 1.1048032725069924e-19 1.636928319122855e-29
1.0423010764483396 4.015360153514046e-27 1.1109310986624813e-19 1.110931098491306e-19 1.7117531823295525e-29
1.0462171883269815 4.044625331293804e-27 1.1232322939607815e-19 1.123232293773645e-19 1.8713664530191347e-29
1.0471985131304309 4.0519324923737565e-27 1.1263170309625916e-19 1.1263170307712471e-19 1.9134465393968264e-29
1.048180758391296 4.0592359135320046e-27 1.1294055259949038e-19 1.1294055257992606e-19 1.9564333328953602e-29
1.0501480137395462 4.073831363505971e-27 1.135593755486255e-19 1.135593755281735e-19 2.0452018622835263e-29
1.0521189612883777 4.088411336788329e-27 1.1417969128778021e-19 1.1417969126640198e-19 2.1378253402348426e-29
1.0531058218030118 4.0956841583128424e-27 1.1449009217633109e-19 1.1449009215447477e-19 2.1856353057139338e-29
1.0540936079674168 4.10291611072943e-27 1.1479983138615415e-19 1.1479983136380932e-19 2.2344796694124685e-29
1.058054026499678 4.131801573229417e-27 1.1604240845611462e-19 1.1604240843170938e-19 2.4405269908359146e-29
1.0590464539527713 4.139012140792931e-27 1.1635395331729884e-19 1.1635395329235066e-19 2.494815955648784e-29
1.06003981227728 4.146218304899039e-27 1.1666585662297137e-19 1.1666585659746879e-19 2.5502611269813265e-29
1.0620293250338977 4.160617254908913e-27 1.1729073496507192e-19 1.1729073493842475e-19 2.664714301381699e-29
1.0660195594769086 4.189360471814234e-27 1.1854475323782438e-19 1.185447532087388e-19 2.9085570833144907e-29
1.070024785945596 4.218028560702321e-27 1.1980440507439854e-19 1.1980440504266167e-19 3.1736901161035836e-29
1.0740450607676866 4.246618879476861e-27 1.2106963176266332e-19 1.2106963172804456e-19 3.461876247730991e-29
1.07808044048254 4.275128807612256e-27 1.2234037409091893e-19 1.2234037405316873e-19 3.7750157614339215e-29
1.0861967418109137 4.331846467978896e-27 1.248967059833178e-19 1.248967059384727e-19 4.4845045175141744e-29
1.0902777775684922 4.359933894084673e-27 1.2617883049303788e-19 1.2617883044418347e-19 4.885436462669938e-29
1.0943741465085532 4.387928668641804e-27 1.2746613479439533e-19 1.2746613474119021e-19 5.320507904632298e-29
1.1026131145906286 4.44363031955148e-27 1.3005603455977811e-19 1.3005603449673525e-19 6.304283714297324e-29
1.1109141095355224 4.498931778295328e-27 1.326659048065478e-19 1.3266590473194344e-19 7.460433306427309e-29
1.1192775983109025 4.5537621638846706e-27 1.3529370469916036e-19 1.3529370461098655e-19 8.81738494865916e-29
1.1277040513999907 4.6078654710137964e-27 1.3793178765519458e-19 1.3793178755111514e-19 1.040794510699329e-28
1.1361939428280308 4.6615047712150334e-27 1.4058792978059471e-19 1.405879296578956e-19 1.2269916750968227e-28
1.1447477501889525 4.714662210313706e-27 1.4326160559163942e-19 1.4326160544717133e-19 1.4446807387634071e-28
1.1533659546722406 4.76734952892924e-27 1.4595317775636596e-19 1.4595317758647949e-19 1.6988646705147682e-28
1.1707974979042381 4.871485793635544e-27 1.5139539279053292e-19 1.5139539255647805e-19 2.3405481197268317e-28
1.1884924949847024 4.973517441952213e-27 1.5690237663966343e-19 1.5690237631879187e-19 3.2087154955402294e-28
1.2064549276569216 5.074248930567494e-27 1.6249960270484695e-19 1.6249960226709373e-19 4.377531748561337e-28
1.2246888378427687 5.172573472941081e-27 1.6815193173658378e-19 1.6815193114225605e-19 5.943277444084655e-28
1.2431983285522175 5.268260968307859e-27 1.738509749851027e-19 1.7385097418205086e-19 8.030518280917913e-28
1.2619875648066055 5.3612764981414454e-27 1.7959436844816007e-19 1.7959436736820108e-19 1.0799590256334275e-27
1.3004222497298317 5.537740084349385e-27 1.9115532150134418e-19 1.9115531957532603e-19 1.9260182141464564e-27
1.3400274889804893 5.701280187488426e-27 2.0279419788154631e-19 2.027941945087921e-19 3.37275421620077e-27
1.3808389325824078 5.851297485211985e-27 2.1446905345784296e-19 2.1446904765581462e-19 5.8020283541925014e-27
1.4228933163050095 5.9885415311453065e-27 2.2618449895315664e-19 2.26184489143398e-19 9.809758666380476e-27
1.466228494730424 6.116360270776732e-27 2.380477862437788e-19 2.3804776993445104e-19 1.630932782213427e-26
1.5108834753276823 6.2322516816554155e-27 2.4994553778725453e-19 2.49945511112277e-19 2.6674977590710717e-26
1.5568984535646726 6.334195742146174e-27 2.6177080004272186e-19 2.617707570779481e-19 4.2964773702981415e-26
1.6043148490894465 6.4223936883669436e-27 2.7349913698917137e-19 2.7349906871546324e-19 6.82737081206608e-26
1.6531753430134553 6.497129933692673e-27 2.851083287680624e-19 2.851082218540192e-19 1.0691404314103788e-25
1.7035239163302658 6.559320004648721e-27 2.9660364731750063e-19 2.96603482287577e-19 1.6502992356915443e-25
1.755405889504358 6.614194484878097e-27 3.0819383357799425e-19 3.0819358235669647e-19 2.512212976522888e-25
1.8088679632656115 6.660474414312928e-27 3.198022128214942e-19 3.198018355342183e-19 3.7728727596692084e-25
1.8639582606462262 6.697298878054247e-27 3.3136397899747716e-19 3.3136341977519854e-19 5.592222786227702e-25
1.9207263702978936 6.725312062694159e-27 3.428841207016386e-19 3.4288330231223257e-19 8.183894060175314e-25
1.979223391128241 6.745998834712928e-27 3.5441370691670086e-19 3.5441252395923197e-19 1.182957468816368e-24
2.039501978296691 6.761133942841535e-27 3.660269842701022e-19 3.660252947232054e-19 1.6895468967592726e-24
2.1016163906111602 6.77566383718036e-27 3.779851439784541e-19 3.779827586603918e-19 2.385318062420696e-24
2.1656225393682647 6.792462751358867e-27 3.9046261759487675e-19 3.904592875445942e-19 3.330050282436016e-24
2.231578038680979 6.811751368068562e-27 4.0349699014808543e-19 4.0349239157469305e-19 4.598573392124198e-24
2.299542257339062 6.835260325905319e-27 4.172207384879703e-19 4.1721445500097934e-19 6.283486990853388e-24
2.369576372248914 6.866797345715729e-27 4.3191110887551963e-19 4.3190261063327594e-19 8.49824224368912e-24
2.4417434235010123 6.910859173854523e-27 4.479210813550126e-19 4.479097012977108e-19 1.1380057301867024e-23
2.5161083711144245 6.97513359255719e-27 4.65855584080985e-19 4.658404904833437e-19 1.509359764111983e-23
2.5927381535095444 7.072190702985118e-27 4.867232078043465e-19 4.867033735039298e-19 1.9834300416634328e-23
2.6717017477616296 7.217046055051931e-27 5.118195661447633e-19 5.117937355347916e-19 2.5830609971716247e-23
2.753070231689431 7.432295073892502e-27 5.431373475907408e-19 5.431040004020061e-19 3.3347188734759336e-23
2.836916847834745 7.769070569516622e-27 5.850393876763343e-19 5.849966984906086e-19 4.2689185725703785e-23
2.9233170693905177 8.339916182518099e-27 6.471531082702584e-19 6.470989120116235e-19 5.419625863506467e-23
2.967498994190263 8.824146313262996e-27 6.950766735115115e-19 6.95015887101241e-19 6.078641027053507e-23
3.0123486681368425 9.389658185850014e-27 7.508003290336696e-19 7.507322410058582e-19 6.808802781152372e-23
3.0578761833420214 1.0653219138432177e-26 8.647094198497752e-19 8.646332331574263e-19 7.618669234865645e-23
3.1040917844459814 1.2281412160290799e-26 1.0119342464864378e-18 1.0118491533477869e-18 8.509313865109266e-23
3.127460860933648 1.4002634690746866e-26 1.1624414171201679e-18 1.1623515179829996e-18 8.989913716831097e-23
3.1510058709225794 1.6295783086982994e-26 1.3629938006986241e-18 1.3628988644339218e-18 9.4936264702576e-23
3.162844764501044 1.8429627851417652e-26 1.5472620566668054e-18 1.5471645029860295e-18 9.755368077569074e-23
3.1747281389236908 2.0911230462852013e-26 1.762201484661556e-18 1.762101252838032e-18 1.0023182352382047e-22
3.1986289994194426 2.7833175268065414e-26 2.3631759478094745e-18 2.3630701598318185e-18 1.0578797765654589e-22
3.2227097969389145 4.414763133289595e-26 3.776574353701664e-18 3.776462648534428e-18 1.1170516723586312e-22
3.2348180950136065 5.961829485620255e-26 5.119161694809325e-18 5.119046823908895e-18 1.1487090043114752e-22
3.240889293275058 7.118427548249806e-26 6.123753465466243e-18 6.123636924327366e-18 1.1654113887538593e-22
3.2469718861334385 8.456411097661143e-26 7.288431036882531e-18 7.28831276720146e-18 1.1826968107344202e-22
3.2714166318528037 1.559344313902425e-25 1.3540893156194483e-17 1.3540767718749155e-17 1.2543744532926042e-22
3.2744851364798273 1.6039562446575386e-25 1.394135458448602e-17 1.394122829579294e-17 1.262886930848352e-22
3.2775565192852394 1.6498494685143124e-25 1.435370260407013e-17 1.4353575459231005e-17 1.2714483912430348e-22
3.283707930232385 1.6057022402959925e-25 1.3995839972635783e-17 1.399571128381197e-17 1.2868882381312193e-22
3.2898708863219004 1.4657188550164696e-25 1.279967556723061e-17 1.2799545461317528e-17 1.3010591308593345e-22
3.29141343181113 1.4327077078226463e-25 1.251726560056952e-17 1.2517135138477465e-17 1.3046209205498403e-22
3.292184975758714 1.4164872625126059e-25 1.2378451951865061e-17 1.2378321311396794e-17 1.3064046826743825e-22
3.295272960557952 1.314101799193502e-25 1.149449346539598e-17 1.1494362128838507e-17 1.31336557470332e-22
3.3076538914384823 9.59420838624444e-26 8.423617524277994e-18 8.423483385341589e-18 1.341389364042676e-22
3.310756385682612 8.872374482878107e-26 7.797161371336517e-18 7.797026524655864e-18 1.3484668065116026e-22
3.313861789986515 8.206382228308018e-26 7.218643026233135e-18 7.218507468934258e-18 1.3555729887735753e-22
3.3200813396944477 7.272404450257422e-26 6.409087203029302e-18 6.408950122595158e-18 1.3708043414375358e-22
3.345076488085796 5.606304759601505e-26 4.977969004952274e-18 4.977825148620498e-18 1.4385633177597937e-22
3.3482140837626964 5.668783270368363e-26 5.0381663766942305e-18 5.0380216027378885e-18 1.447739563421643e-22
3.3513546224236106 5.731952401185758e-26 5.09908666459763e-18 5.0989409681472294e-18 1.4569645039954694e-22
3.3576445397418455 6.19357993062571e-26 5.520086675379888e-18 5.519939052121588e-18 1.4762325830022522e-22
3.3702598118196083 7.896256193458461e-26 7.064054566807583e-18 7.063902899825806e-18 1.5166698177882862e-22
3.382922481734668 8.283995645981117e-26 7.438773602227103e-18 7.43861798081367e-18 1.556214134335117e-22
3.389271646505754 8.484869286908945e-26 7.633451801150641e-18 7.633294170383236e-18 1.5763076740604154e-22
3.395632727569191 8.701303745935615e-26 7.842860188424325e-18 7.842700486504146e-18 1.5970192017806487e-22
3.421196662673239 9.740454597568812e-26 8.845587830697418e-18 8.845419526294994e-18 1.683044024235611e-22
3.4276182099114902 9.530968352037002e-26 8.67159331600939e-18 8.67142306549881e-18 1.702505105813589e-22
3.4340518103208963 8.613136264514476e-26 7.851228086719378e-18 7.851055982806838e-18 1.7210391254248791e-22
3.4469541582030403 7.306036177306835e-26 6.684774461056259e-18 6.6845987735452424e-18 1.7568751101647287e-22
3.472904465399547 6.939818773953138e-26 6.397501540998554e-18 6.397317631335494e-18 1.8390966306101962e-22
3.4990501388274233 6.379673645622387e-26 5.925405298624558e-18 5.9252129110419334e-18 1.9238758262535538e-22
3.5253949054701885 4.3859647553246175e-26 4.104330671431957e-18 4.10412994836569e-18 2.007230662675788e-22
3.5519380250092896 2.5123639278941445e-26 2.3687398250882882e-18 2.3685306415126957e-18 2.0918357559170181e-22
3.578680990867387 1.769713817953117e-26 1.6811074058225057e-18 1.6808889303312107e-18 2.1847549129477435e-22
3.605625307711299 1.469544684514147e-26 1.4064776090375619e-18 1.4062492923521057e-18 2.283166854564905e-22
3.660119384959845 1.2510709807716197e-26 1.2154766911656022e-18 1.2152274601694308e-18 2.492309961714152e-22
3.715437065384467 1.0967322786487599e-26 1.081633097547025e-18 1.0813614640695802e-18 2.7163347744479264e-22
3.8285932144167436 1.0201014893886823e-26 1.0366974731610614e-18 1.0363764220995467e-18 3.2105106151482e-22
3.94519561050918 1.0078032289496983e-26 1.0553918102777775e-18 1.0550148890596278e-18 3.7692121814975024e-22
4.06534921144712 1.0225205115701826e-26 1.103416106127116e-18 1.1029763522839733e-18 4.397538431426435e-22
4.189162171576248 1.0534869704159281e-26 1.1714554435935273e-18 1.1709451583443073e-18 5.102852492205512e-22
4.316745939156006 1.0968841190441913e-26 1.256859322813484e-18 1.2562703146256918e-18 5.890081877920663e-22
4.448215356677963 1.1516703774309145e-26 1.3598262936808118e-18 1.3591505406316554e-18 6.757530491561105e-22
4.58368876423945 1.2184093118471352e-26 1.4824421803596542e-18 1.4816707237073454e-18 7.714566523091123e-22
4.723288106065518 1.298872971157045e-26 1.6284729517999367e-18 1.6275953576446946e-18 8.775941552418627e-22
4.867139040275056 1.3962179668804647e-26 1.8038333344860946e-18 1.8028402941404467e-18 9.930403456481346e-22
4.940699165968905 1.4546977750932175e-26 1.9077902221609297e-18 1.9067353479504756e-18 1.0548742104543956e-21
5.015371051989984 1.515955802926536e-26 2.0181760209921406e-18 2.017056531113271e-18 1.1194898788693554e-21
5.091171501069577 1.589583080792417e-26 2.1481786281405698e-18 2.1469905101371198e-18 1.1881180034498264e-21
5.129500256944802 1.6276711398758658e-26 2.2162112343694196e-18 2.2149876797741057e-18 1.2235545953135038e-21
5.168117569889187 1.6674373573107273e-26 2.2874486058265233e-18 2.2861886252800963e-18 1.2599805464265749e-21
5.20702561229733 1.715125879485166e-26 2.370582898076106e-18 2.369283711725773e-18 1.299186350332709e-21
5.246226572918644 1.7642036561588014e-26 2.45677392295105e-18 2.455434611748073e-18 1.3393112029762604e-21
5.265937586045735 1.789278276662184e-26 2.5010537756810143e-18 2.4996940527457597e-18 1.3597229352541378e-21
5.285722656980489 1.814718151584005e-26 2.5461441532855843e-18 2.544763783228234e-18 1.380370057351502e-21
5.305582063971359 1.84052950109189e-26 2.592061206721612e-18 2.5906599522419405e-18 1.4012544796720004e-21
5.3255160863122235 1.8680710586668605e-26 2.6407332029877143e-18 2.6393107181523514e-18 1.422484835361801e-21
5.365609099470188 1.9350460530908552e-26 2.7560035227724688e-18 2.754537013049558e-18 1.4665097229106817e-21
5.406003951863644 2.0046641363652704e-26 2.8766525697831044e-18 2.8751409882746934e-18 1.5115815084109013e-21
5.446702915881641 2.0770491661606093e-26 3.0029624231192994e-18 3.0014047044536516e-18 1.557718665648961e-21
5.487708281020852 2.1549828700600214e-26 3.1390936484028175e-18 3.137488576303295e-18 1.6050720995216591e-21
5.529022354014368 2.2601457790193035e-26 3.3170669014393073e-18 3.3154121986203732e-18 1.6547028189339873e-21
5.570647458961463 2.371400300223562e-26 3.506549535457376e-18 3.5048439970508305e-18 1.705538406544104e-21
5.612585937458331 2.4891683581236088e-26 3.7084011621986195e-18 3.706643560227701e-18 1.757601970918507e-21
5.654840148729818 2.61807017023399e-26 3.929805428926126e-18 3.9279943383420995e-18 1.8110905840266272e-21
5.67608639626678 2.7040574845559525e-26 4.074125005172677e-18 4.0722859332606366e-18 1.8390719120413547e-21
5.686739436050992 2.748339414879296e-26 4.148614957642209e-18 4.1467617647860544e-18 1.8531928561546686e-21
5.6974124697621304 2.793506900757256e-26 4.224709422634776e-18 4.222842021384773e-18 1.8674012500023862e-21
5.718818669136295 2.8865817012759196e-26 4.381871257333556e-18 4.379975175141304e-18 1.8960821922529867e-21
5.740305295436557 2.988708468991772e-26 4.553947064525376e-18 4.552021788215609e-18 1.925276309766728e-21
5.7835210386641895 3.250479138256011e-26 4.990098701932667e-18 4.988112703692539e-18 1.9859982401282106e-21
5.827062130521658 3.550671717424538e-26 5.4919882906153185e-18 5.489939625653095e-18 2.0486649622221813e-21
5.8489554468988025 3.7589143875803786e-26 5.835931433188365e-18 5.8338491589296985e-18 2.0822742586628973e-21
5.870931020387893 3.9820017196882724e-26 6.205515347181675e-18 6.203398999516303e-18 2.116347665371863e-21
5.892989160043636 4.2211166528962334e-26 6.6028651770071605e-18 6.600714286085523e-18 2.1508909216379426e-21
5.915130176081913 4.492250881950646e-26 7.053387476623465e-18 7.051200802245866e-18 2.1866743775993497e-21
5.95966208400165 5.245272637804956e-26 8.297726873245011e-18 8.295460432580066e-18 2.2664406649473894e-21
6.004529249263818 6.324807283720188e-26 1.0080816163180492e-17 1.0078460674459675e-17 2.3554887208207517e-21
6.027089341400364 7.072603394731918e-26 1.1315047134020034e-17 1.131264106560971e-17 2.406068410324679e-21
6.049734195844842 7.954873187619767e-26 1.2774355189136144e-17 1.2771895635968388e-17 2.4595531677544255e-21
6.095279466722835 1.0497178783757854e-25 1.6983830611138393e-17 1.698124278893049e-17 2.5878222079024003e-21
6.141167624020661 1.4401420041440962e-25 2.3476086563284812e-17 2.34733361200574e-17 2.7504432274160717e-21
6.164241091010745 1.6893708351887451e-25 2.7642291443272325e-17 2.7639440915544762e-17 2.85052772756815e-21
6.187401249150058 1.9730413754622848e-25 3.240514032168243e-17 3.2402186228023415e-17 2.9540936590281463e-21
6.1990139391386085 2.1116077220408537e-25 3.474603777604505e-17 3.474303082133592e-17 3.0069547091267552e-21
6.204828454712694 2.1845755558673716e-25 3.598042442074728e-17 3.597739068232243e-17 3.0337384248451415e-21
6.210648424152782 2.237937202075813e-25 3.6893875169499627e-17 3.689081809579149e-17 3.057073708159743e-21
6.233982942956859 2.4194203798102423e-25 4.003560329665319e-17 4.003246256092562e-17 3.1407357275692194e-21
6.239830258556775 2.4427618167220043e-25 4.0459762736814726e-17 4.0456608708014033e-17 3.154028800701147e-21
6.245683058788269 2.4450528063882567e-25 4.0535694487593975e-17 4.053252711541347e-17 3.167372180504225e-21
6.257405133728602 2.4406862134129175e-25 4.0539244907830874e-17 4.053605317814818e-17 3.1917296826951513e-21
6.269149208991335 2.4058140978237518e-25 4.003502508136364e-17 4.0031819628665656e-17 3.205452697985132e-21
6.280915325867298 2.317459143523211e-25 3.8637094312569323e-17 3.863388836975273e-17 3.205942816598601e-21
6.304513850009849 2.0992472840355506e-25 3.513052468537471e-17 3.512732980194641e-17 3.1948834283066528e-21
6.32820103803542 1.828517116418961e-25 3.071487348034235e-17 3.0711702511842915e-17 3.170968499430192e-21
6.3519772230701035 1.580308572655585e-25 2.6645278333699397e-17 2.6642127224234842e-17 3.1511094645544395e-21
6.375842739491607 1.3715315450045893e-25 2.3212014352778106e-17 2.320887895199726e-17 3.135400780837878e-21
6.399797922933955 1.2045661033390098e-25 2.0462859957692056e-17 2.045972469568803e-17 3.1352620040337923e-21
6.42384311029221 1.0658471450570677e-25 1.8174366635071056e-17 1.8171228340765533e-17 3.1382943055245635e-21
6.447978639727206 9.651495558575107e-26 1.6519147777427116e-17 1.6515994044062597e-17 3.153733364518275e-21
6.472204850670314 8.814206476774589e-26 1.5142755407597208e-17 1.5139583600159167e-17 3.1718074380440343e-21
6.496522083828205 8.274927173994123e-26 1.426968980381191e-17 1.4266489644662002e-17 3.2001591499078962e-21
6.520930681187647 7.822541535362676e-26 1.3540256592064113e-17 1.353702623954113e-17 3.2303525229847292e-21
