Dust emission spectrum from A.P. Jones, M. Kohler, N. Ysard, M. Bocchio, and L. Verstraete (2017), A&A, 602A, 46J 
inside the DustPedia framework.

lambda    nu*dP/dnu     j_nu    j_nu(carb.) j_nu(sil)
 (um)   (erg s-1 H-1) (Jy cm2 sr-1 H-1)
0.9927057738263894 1.128296927077387e-24 2.973126488834978e-17 2.973126488834978e-17 2.0625730412566853e-37
1.0001793341362166 1.1467934037150298e-24 3.0446157952614493e-17 3.0446157952614493e-17 2.743063585613535e-37
1.0077091589558085 1.1652594313708992e-24 3.116931554463962e-17 3.116931554463962e-17 3.641368753944009e-37
1.0114953028030835 1.1744787505267195e-24 3.153395670455819e-17 3.153395670455819e-17 4.192598933657262e-37
1.0152956718711033 1.1836877336025963e-24 3.1900619351025103e-17 3.1900619351025103e-17 4.825103532859621e-37
1.0229392996569957 1.2020619919618622e-24 3.2639700291241355e-17 3.2639700291241355e-17 6.3822255465865635e-37
1.0267826658714554 1.2112048343971853e-24 3.301152268185972e-17 3.301152268185972e-17 7.335266415736077e-37
1.0306404723013447 1.2203332975064566e-24 3.338528494163084e-17 3.338528494163084e-17 8.42693565904436e-37
1.03451277320114 1.2294465007429087e-24 3.376097074054674e-17 3.376097074054674e-17 9.676868406659153e-37
1.0383996230291617 1.2385435687120311e-24 3.413856355326912e-17 3.413856355326912e-17 1.1107406987148958e-36
1.0403485208654093 1.243085779860558e-24 3.4328069873198274e-17 3.4328069873198274e-17 1.1898214135397463e-36
1.0423010764483396 1.247623631338597e-24 3.4518046663069127e-17 3.4518046663069127e-17 1.274396416441358e-36
1.0462171883269815 1.2566858240299905e-24 3.489940316577287e-17 3.489940316577287e-17 1.4615433789692574e-36
1.0471985131304309 1.2589484792409868e-24 3.499503301060382e-17 3.499503301060382e-17 1.512376068455899e-36
1.048180758391296 1.2612099505032772e-24 3.509077860662581e-17 3.509077860662581e-17 1.5649354965034666e-36
1.0501480137395462 1.2657292878356677e-24 3.5282615973707145e-17 3.5282615973707145e-17 1.6754654887720876e-36
1.0521189612883777 1.2702437295654484e-24 3.5474913103033123e-17 3.5474913103033123e-17 1.7936140861015076e-36
1.0531058218030118 1.272495582636159e-24 3.5571135595085066e-17 3.5571135595085066e-17 1.8557033768106233e-36
1.0540936079674168 1.2747347092165625e-24 3.566715129696446e-17 3.566715129696446e-17 1.9198892756351474e-36
1.058054026499678 1.2836778457203266e-24 3.6052328810823174e-17 3.6052328810823174e-17 2.1990437333111094e-36
1.0590464539527713 1.2859102221138615e-24 3.61489004778348e-17 3.61489004778348e-17 2.2748102828303354e-36
1.06003981227728 1.2881412093902526e-24 3.6245582502806377e-17 3.6245582502806377e-17 2.3531266186664285e-36
1.0620293250338977 1.2925989647440137e-24 3.6439276506638344e-17 3.6439276506638344e-17 2.5177464708074753e-36
1.0660195594769086 1.3014972371463208e-24 3.6827976454937576e-17 3.6827976454937576e-17 2.881454911574095e-36
1.070024785945596 1.3103718403283752e-24 3.721841056729271e-17 3.721841056729271e-17 3.296359804162404e-36
1.0740450607676866 1.319221958367901e-24 3.761056060027145e-17 3.761056060027145e-17 3.769481143651358e-36
1.07808044048254 1.3280467821496189e-24 3.800440815938134e-17 3.800440815938134e-17 4.308776301501423e-36
1.0861967418109137 1.3456016069331818e-24 3.8796667775306834e-17 3.8796667775306834e-17 5.6231405484653874e-36
1.0902777775684922 1.3542942394250071e-24 3.91940032636621e-17 3.91940032636621e-17 6.419957248507829e-36
1.0943741465085532 1.3629577918567212e-24 3.9592932049566606e-17 3.9592932049566606e-17 7.32681972632137e-36
1.1026131145906286 1.3801945896338044e-24 4.039549250054423e-17 4.039549250054423e-17 9.531853864991715e-36
1.1109141095355224 1.3973059434286927e-24 4.1204193886837304e-17 4.1204193886837304e-17 1.2381510253865945e-35
1.1192775983109025 1.4142698792646209e-24 4.201840248216151e-17 4.201840248216151e-17 1.6058760956932478e-35
1.1277040513999907 1.4310069161987331e-24 4.2835743217740207e-17 4.2835743217740207e-17 2.0796799296197466e-35
1.1361939428280308 1.4475988384487833e-24 4.3658632531499336e-17 4.3658632531499336e-17 2.689311088341867e-35
1.1447477501889525 1.464040150590694e-24 4.448690770792095e-17 4.448690770792095e-17 3.472591254570939e-35
1.1533659546722406 1.4803345662446653e-24 4.532068244103094e-17 4.532068244103094e-17 4.477576025774239e-35
1.1707974979042381 1.512536459646037e-24 4.700640854116501e-17 4.700640854116501e-17 7.412897925187914e-35
1.1884924949847024 1.54408173780459e-24 4.8712022671090815e-17 4.8712022671090815e-17 1.2204584716781307e-34
1.2064549276569216 1.575220836348977e-24 5.044544790404634e-17 5.044544790404634e-17 1.998574759123889e-34
1.2246888378427687 1.6056102836638102e-24 5.219577299898302e-17 5.219577299898302e-17 3.255371530233446e-34
1.2431983285522175 1.6351792196493039e-24 5.396040616088148e-17 5.396040616088148e-17 5.274751674522617e-34
1.2619875648066055 1.6639171772872383e-24 5.573862021638691e-17 5.573862021638691e-17 8.502735921670032e-34
1.3004222497298317 1.718420609017926e-24 5.931756257750586e-17 5.931756257750586e-17 2.1758330407801343e-33
1.3400274889804893 1.7689124335275737e-24 6.292011027052275e-17 6.292011027052274e-17 5.457154390210272e-33
1.3808389325824078 1.815210938289098e-24 6.65333753317247e-17 6.65333753317247e-17 1.3418267544897566e-32
1.4228933163050095 1.857553329102557e-24 7.015894718884522e-17 7.015894718884519e-17 3.2350810449143514e-32
1.466228494730424 1.8969829744800346e-24 7.383028102099756e-17 7.383028102099747e-17 7.649067728194901e-32
1.5108834753276823 1.9327271421062787e-24 7.751235823028609e-17 7.75123582302859e-17 1.7734597157883457e-31
1.5568984535646726 1.964163282819115e-24 8.11721984745437e-17 8.11721984745433e-17 4.031614935847136e-31
1.6043148490894465 1.991358026526319e-24 8.480244720561416e-17 8.480244720561328e-17 8.98638645267823e-31
1.6531753430134553 2.0144035978417116e-24 8.839645337346721e-17 8.839645337346524e-17 1.963971565255681e-30
1.7035239163302658 2.033587880403359e-24 9.195611466445045e-17 9.195611466444625e-17 4.2088395300882225e-30
1.755405889504358 2.0505374629073144e-24 9.554648007910018e-17 9.55464800790913e-17 8.847031610650332e-30
1.8088679632656115 2.0648586731005045e-24 9.914404466476956e-17 9.91440446647513e-17 1.8241782541814948e-29
1.8639582606462262 2.07628784219956e-24 1.0272902754717998e-16 1.0272902754714306e-16 3.690009382406146e-29
1.9207263702978936 2.0850275861152963e-24 1.0630329772644117e-16 1.0630329772636795e-16 7.324247216135151e-29
1.979223391128241 2.0915412017212795e-24 1.0988304158261749e-16 1.0988304158247476e-16 1.4269323378181787e-28
2.039501978296691 2.096381446105497e-24 1.1349163987650572e-16 1.1349163987623277e-16 2.729516705809536e-28
2.1016163906111602 2.1010842720408334e-24 1.1721045496978355e-16 1.172104549692707e-16 5.128643308289212e-28
2.1656225393682647 2.1065427194564706e-24 1.210939558188748e-16 1.2109395581792786e-16 9.469519536085731e-28
2.231578038680979 2.1128261348972812e-24 1.2515415494077155e-16 1.2515415493905294e-16 1.7185961337919094e-27
2.299542257339062 2.120471326815759e-24 1.2943246792863878e-16 1.29432467925572e-16 3.066789652771057e-27
2.369576372248914 2.130658620517957e-24 1.3401518656979927e-16 1.3401518656441613e-16 5.383129962082694e-27
2.4417434235010123 2.14478133508614e-24 1.390120606879631e-16 1.3901206067866491e-16 9.298213036219007e-27
2.5161083711144245 2.1652219376419853e-24 1.4461095505059302e-16 1.44610955034781e-16 1.5812040987473834e-26
2.5927381535095444 2.195877784027012e-24 1.51124980062656e-16 1.5112498003616902e-16 2.648701627285877e-26
2.6717017477616296 2.2414048890066835e-24 1.5895629168711153e-16 1.5895629164338935e-16 4.372215285042034e-26
2.753070231689431 2.308810616615743e-24 1.687232896340405e-16 1.6872328956289997e-16 7.114052860732314e-26
2.836916847834745 2.413964147418499e-24 1.8178031645376236e-16 1.8178031633959755e-16 1.1416480034891159e-25
2.9233170693905177 2.5918122756317286e-24 2.0111705363945906e-16 2.0111705345866424e-16 1.807947146762169e-25
2.967498994190263 2.7424878805275945e-24 2.1602535650135498e-16 2.160253562748984e-16 2.2645659890211237e-25
3.0123486681368425 2.918413608911604e-24 2.3335736556727643e-16 2.3335736528451357e-16 2.8276284419235623e-25
3.0578761833420214 3.311196648941393e-24 2.6876598482663047e-16 2.6876598447418043e-16 3.524500155458001e-25
3.1040917844459814 3.817345470516316e-24 3.145324464213632e-16 3.1453244598331882e-16 4.38044380198773e-25
3.127460860933648 4.352284500611039e-24 3.6130884468075688e-16 3.613088441921203e-16 4.886366242321112e-25
3.1510058709225794 5.065010948584784e-24 4.236420236169116e-16 4.2364202307184325e-16 5.450684422975988e-25
3.162844764501044 5.728147348715358e-24 4.809074344375366e-16 4.809074338606754e-16 5.768612282802814e-25
3.1747281389236908 6.4994069411643415e-24 5.477087817230891e-16 5.477087811127018e-16 6.10387296476554e-25
3.1986289994194426 8.65083332816397e-24 7.34499066410206e-16 7.344990657257142e-16 6.844918882473316e-25
3.2227097969389145 1.3721479734409136e-23 1.1737931774653019e-15 1.1737931766865035e-15 7.787982423865327e-25
3.2348180950136065 1.852994204447438e-23 1.5910849136142521e-15 1.5910849127746921e-15 8.39560124100946e-25
3.240889293275058 2.2124772305552563e-23 1.903322751554743e-15 1.903322750677849e-15 8.768939301003807e-25
3.2469718861334385 2.6283390750507484e-23 2.265318924165035e-15 2.2653189232458054e-15 9.192294959407273e-25
3.2714166318528037 4.846625468991916e-23 4.208668801277785e-15 4.208668800164119e-15 1.1136659089670774e-24
3.2744851364798273 4.985283569583226e-23 4.3331360303167915e-15 4.333136029182676e-15 1.1341150128789328e-24
3.2775565192852394 5.1279239971856266e-23 4.46129767815472e-15 4.461297676999797e-15 1.1549240567891214e-24
3.283707930232385 4.9907041283879124e-23 4.35006532212436e-15 4.350065320945722e-15 1.1786386943253167e-24
3.2898708863219004 4.5556125055161883e-23 3.978277408457746e-15 3.978277407269635e-15 1.1881118230710271e-24
3.29141343181113 4.4530083227603835e-23 3.890499617835396e-15 3.890499616644907e-15 1.1904887355647007e-24
3.292184975758714 4.402592447094156e-23 3.847353979966624e-15 3.8473539787749445e-15 1.1916784916589845e-24
3.295272960557952 4.0843620510726985e-23 3.572605481187185e-15 3.572605479993843e-15 1.1933404554809176e-24
3.3076538914384823 2.981959491947326e-23 2.6181301491291818e-15 2.6181301479308575e-15 1.1983240959536947e-24
3.310756385682612 2.757602386366178e-23 2.4234178624868973e-15 2.423417861287322e-15 1.1995749620092072e-24
3.313861789986515 2.550601421172372e-23 2.2436051172627874e-15 2.2436051160619597e-15 1.2008279818553504e-24
3.3200813396944477 2.2603047258984994e-23 1.991980808106725e-15 1.9919808068947665e-15 1.2119588825460344e-24
3.345076488085796 1.7424463806662812e-23 1.5471588591207008e-15 1.5471588578114079e-15 1.3092925435218444e-24
3.3482140837626964 1.7618633940597002e-23 1.565867045699059e-15 1.56586704437135e-15 1.3277094724233332e-24
3.3513546224236106 1.7814950296349142e-23 1.584799892403008e-15 1.5847998910566388e-15 1.346369407339478e-24
3.3576445397418455 1.9249699336111967e-23 1.715647654515791e-15 1.7156476531233143e-15 1.3924768250834499e-24
3.3702598118196083 2.4541726986389576e-23 2.1955227179580514e-15 2.1955227164542045e-15 1.503846881748216e-24
3.382922481734668 2.5746693232709058e-23 2.311973957362362e-15 2.3119739557673467e-15 1.5950150609025604e-24
3.389271646505754 2.637093964724374e-23 2.372473752293031e-15 2.3724737506504992e-15 1.6425313763613517e-24
3.395632727569191 2.70435331828631e-23 2.4375502332426975e-15 2.4375502315488557e-15 1.6938416849824325e-24
3.421196662673239 3.027277258060957e-23 2.749157814537195e-15 2.749157812618194e-15 1.9190002988227377e-24
3.4276182099114902 2.962160673655655e-23 2.6950727092833523e-15 2.6950727073244316e-15 1.9589215763787313e-24
3.4340518103208963 2.6768889447379075e-23 2.4400944118976603e-15 2.440094409908723e-15 1.9889378107411546e-24
3.4469541582030403 2.2706235479833963e-23 2.0775432718740697e-15 2.0775432698394246e-15 2.0346451962282953e-24
3.472904465399547 2.1567801944463886e-23 1.9882370227524192e-15 1.9882370205302682e-15 2.22215113790636e-24
3.4990501388274233 1.9826555681475364e-23 1.8414794331854545e-15 1.8414794307669055e-15 2.418549052459775e-24
3.5253949054701885 1.3629541303642655e-23 1.275435338192747e-15 1.2754353356241918e-15 2.568555662690278e-24
3.5519380250092896 7.805841164101688e-24 7.359605281874695e-16 7.359605254773004e-16 2.7101689131831238e-24
3.578680990867387 5.497183498624603e-24 5.221949332684657e-16 5.221949303409236e-16 2.927542067802766e-24
3.605625307711299 4.563705634899918e-24 4.3678493463758933e-16 4.3678493144458434e-16 3.1930049599693712e-24
3.660119384959845 3.883363671275149e-24 3.7728778768755357e-16 3.772877838650551e-16 3.822498490609497e-24
3.715437065384467 3.402102217387186e-24 3.3552640249613804e-16 3.355263979308017e-16 4.565336351604978e-24
3.8285932144167436 3.159650160696927e-24 3.2110543624737e-16 3.2110542974797934e-16 6.499390693918751e-24
3.94519561050918 3.1153788443040824e-24 3.262487382202349e-16 3.2624872904665865e-16 9.173576289753803e-24
4.06534921144712 3.152808711404369e-24 3.4022397324424526e-16 3.4022396041049956e-16 1.2833745685238882e-23
4.189162171576248 3.2378629743546693e-24 3.600435803605795e-16 3.600435625619994e-16 1.7798580179353884e-23
4.316745939156006 3.35792550953392e-24 3.8476625823050065e-16 3.8476623375174094e-16 2.4478759690513703e-23
4.448215356677963 3.508864470529138e-24 4.1430658124869113e-16 4.143065478504944e-16 3.339819685023917e-23
4.58368876423945 3.6913644247040494e-24 4.491293913343706e-16 4.491293461114641e-16 4.522290652059869e-23
4.723288106065518 3.909685543422425e-24 4.901801253000939e-16 4.901800645021557e-16 6.079793821769616e-23
4.867139040275056 4.172189871252418e-24 5.390229424124494e-16 5.390228612160478e-16 8.119640154869918e-23
4.940699165968905 4.3302982154617456e-24 5.679049446521256e-16 5.67904851020606e-16 9.36315194681095e-23
5.015371051989984 4.494322293315383e-24 5.983244013756423e-16 5.983242935877266e-16 1.0778791581108504e-22
5.091171501069577 4.693816462432212e-24 6.343270968878666e-16 6.343269729188818e-16 1.239689846786785e-22
5.129500256944802 4.7963291433582096e-24 6.53060576601155e-16 6.530604437363811e-16 1.3286477376950372e-22
5.168117569889187 4.903214450677502e-24 6.72640025131729e-16 6.72639882781536e-16 1.4235019301998334e-22
5.20702561229733 5.03383194731359e-24 6.957574408283509e-16 6.957572882837788e-16 1.525445723407639e-22
5.246226572918644 5.167849120060278e-24 7.196582385252009e-16 7.196580751236187e-16 1.6340158220145832e-22
5.265937586045735 5.236166860502766e-24 7.319115795104887e-16 7.319114104199071e-16 1.6909058148120716e-22
5.285722656980489 5.30537623535036e-24 7.443719384647538e-16 7.443717635048583e-16 1.7495989547730606e-22
5.305582063971359 5.3754917704723946e-24 7.570432137614035e-16 7.57043032746731e-16 1.8101467277910518e-22
5.3255160863122235 5.4507284740780396e-24 7.705231337527698e-16 7.705229464687115e-16 1.872840583540178e-22
5.365609099470188 5.637352848840606e-24 8.029041110261703e-16 8.029039104132919e-16 2.0061287828339093e-22
5.406003951863644 5.8311067876716435e-24 8.367520534312054e-16 8.367518386281746e-16 2.1480303066346667e-22
5.446702915881641 6.032333117374336e-24 8.721444812352838e-16 8.721442513307761e-16 2.2990450761514853e-22
5.487708281020852 6.2496238924863314e-24 9.103624413155506e-16 9.103621952817463e-16 2.4603380451188763e-22
5.529022354014368 6.550223738604134e-24 9.61333138863882e-16 9.61332875090326e-16 2.637735561017075e-22
5.570647458961463 6.868467043706201e-24 1.015628610620557e-15 1.0156283279446874e-15 2.8267586968870037e-22
5.612585937458331 7.205616683027323e-24 1.0735038148178705e-15 1.0735035120086995e-15 3.0280917080053427e-22
5.654840148729818 7.575956801266438e-24 1.137174874280233e-15 1.1371745499077948e-15 3.2437243809196385e-22
5.67608639626678 7.82740716044545e-24 1.1793327405269741e-15 1.1793324042910524e-15 3.3623592164792027e-22
5.686739436050992 7.956994842342756e-24 1.2011073902338537e-15 1.2011070479182864e-15 3.423155670537896e-22
5.6974124697621304 8.089239374636915e-24 1.2233614242625578e-15 1.2233610757667726e-15 3.48495785514214e-22
5.718818669136295 8.361953964822714e-24 1.2693562672210888e-15 1.269355906057117e-15 3.6116397191203246e-22
5.740305295436557 8.6623661985477e-24 1.3198998005659527e-15 1.3198994261210922e-15 3.7444486086193713e-22
5.7835210386641895 9.440381269463366e-24 1.4492766239925426e-15 1.4492762200660342e-15 4.039265083989459e-22
5.827062130521658 1.033597834604429e-23 1.5987136115670803e-15 1.5987131756144395e-15 4.359526408820872e-22
5.8489554468988025 1.096334196864067e-23 1.7021220866051225e-15 1.7021216318835372e-15 4.547215856480411e-22
5.870931020387893 1.1636356375746836e-23 1.8133992187382884e-15 1.813398744499302e-15 4.74238985780483e-22
5.892989160043636 1.2358689207250354e-23 1.9332031144890897e-15 1.9332026199569044e-15 4.945321850605321e-22
5.915130176081913 1.3179841838573687e-23 2.0693975873339248e-15 2.0693970710074276e-15 5.1632649707718465e-22
5.95966208400165 1.5473834444503227e-23 2.4478737478178184e-15 2.447873178593996e-15 5.6922382236637595e-22
6.004529249263818 1.8777811071165635e-23 2.992907971166109e-15 2.9929073351903948e-15 6.359757142500091e-22
6.027089341400364 2.107349296154635e-23 3.371425666480124e-15 3.371424988092784e-15 6.783873394245819e-22
6.049734195844842 2.3785635689886843e-23 3.819622909575555e-15 3.8196221837423655e-15 7.258331893975638e-22
6.095279466722835 3.161763596868929e-23 5.115551375077375e-15 5.115550520963736e-15 8.5411363928327e-22
6.141167624020661 4.366740132059651e-23 7.118323682290492e-15 7.118322642341105e-15 1.0399493885991974e-21
6.164241091010745 5.136267551724892e-23 8.404205970534571e-15 8.404204808521587e-15 1.1620129827451133e-21
6.187401249150058 6.012722861769527e-23 9.875268226718138e-15 9.875266930056894e-15 1.2966612431150948e-21
6.1990139391386085 6.4407296632675e-23 1.0598078130198123e-14 1.0598076764200894e-14 1.3659972303838171e-21
6.204828454712694 6.666172926676583e-23 1.0979328708486206e-14 1.097932730644118e-14 1.4020450298423613e-21
6.210648424152782 6.830807093165172e-23 1.1261037350306807e-14 1.1261035918248221e-14 1.4320585857410019e-21
6.233982942956859 7.3902630750319e-23 1.222911252624429e-14 1.2229110987451015e-14 1.5387932728039485e-21
6.239830258556775 7.461864428525211e-23 1.2359177316662866e-14 1.235917576300695e-14 1.5536559133373222e-21
6.245683058788269 7.46823192833268e-23 1.2381326367203088e-14 1.2381324798552345e-14 1.5686507426794456e-21
6.257405133728602 7.453229841085425e-23 1.237964586441484e-14 1.2379644269473077e-14 1.5949417639162689e-21
6.269149208991335 7.343680566671763e-23 1.222057996676372e-14 1.2220578363025139e-14 1.603738579749898e-21
6.280915325867298 7.068418524010998e-23 1.178459408512932e-14 1.1784592494349837e-14 1.590779486276768e-21
6.304513850009849 6.389396560383976e-23 1.0692539906861982e-14 1.069253836224138e-14 1.5446206022857038e-21
6.32820103803542 5.547563192554459e-23 9.318627649339043e-15 9.31862617610047e-15 1.473238573793692e-21
6.3519772230701035 4.775542925481113e-23 8.051950906660397e-15 8.051949500814122e-15 1.4058462737914275e-21
6.375842739491607 4.126022934105788e-23 6.9829457379366905e-15 6.982944391161597e-15 1.3467750921035946e-21
6.399797922933955 3.6056440658616024e-23 6.125175643950891e-15 6.125174336452134e-15 1.3074987586331154e-21
6.42384311029221 3.173003143636589e-23 5.410468352251088e-15 5.4104670777558795e-15 1.2744952095650874e-21
6.447978639727206 2.8579224685525393e-23 4.891515859684919e-15 4.8915145997515905e-15 1.2599333291067894e-21
6.472204850670314 2.5954981007154866e-23 4.4590506250994916e-15 4.4590493751139485e-15 1.249985542781088e-21
6.496522083828205 2.4251864856109126e-23 4.182110384587302e-15 4.182109128470287e-15 1.2561170150419252e-21
6.520930681187647 2.281797633515368e-23 3.949627535922098e-15 3.949626270666312e-15 1.2652557851446914e-21
