Dust emission spectrum from A.P. Jones, M. Kohler, N. Ysard, M. Bocchio, and L. Verstraete (2017), A&A, 602A, 46J 
inside the DustPedia framework.

lambda    nu*dP/dnu     j_nu    j_nu(carb.) j_nu(sil)
 (um)   (erg s-1 H-1) (Jy cm2 sr-1 H-1)
0.9927057738263894 3.080633287477477e-25 8.117643688980699e-18 8.117643688980699e-18 4.471935496820547e-39
1.0001793341362166 3.131238713718398e-25 8.313109244993674e-18 8.313109244993674e-18 6.035135108248465e-39
1.0077091589558085 3.181762568519187e-25 8.510839630761241e-18 8.510839630761241e-18 8.133290372160233e-39
1.0114953028030835 3.206987651781154e-25 8.61054401520387e-18 8.61054401520387e-18 9.436903501737972e-39
1.0152956718711033 3.2321848569457784e-25 8.710802339715034e-18 8.710802339715034e-18 1.0945696421890855e-38
1.0229392996569957 3.2824608789915636e-25 8.91289634182265e-18 8.91289634182265e-18 1.471048637479082e-38
1.0267826658714554 3.3074783810813514e-25 9.014569170801639e-18 9.014569170801639e-18 1.704502798168011e-38
1.0306404723013447 3.332456894493434e-25 9.116773524552366e-18 9.116773524552366e-18 1.974345749176103e-38
1.03451277320114 3.357393997446403e-25 9.219504910850758e-18 9.219504910850758e-18 2.2861483215864375e-38
1.0383996230291617 3.382287282004855e-25 9.322758782899408e-18 9.322758782899408e-18 2.6463186924291116e-38
1.0403485208654093 3.3947167438063755e-25 9.374580215548233e-18 9.374580215548233e-18 2.8468033494776677e-38
1.0423010764483396 3.4071343545419374e-25 9.426530540403539e-18 9.426530540403539e-18 3.062225854917737e-38
1.0462171883269815 3.431932836191542e-25 9.530815530648065e-18 9.530815530648065e-18 3.54234092370311e-38
1.0471985131304309 3.438124586945706e-25 9.556966420680872e-18 9.556966420680872e-18 3.673512679767152e-38
1.048180758391296 3.444313116182969e-25 9.583149020006087e-18 9.583149020006087e-18 3.8094643283777716e-38
1.0501480137395462 3.456680363290207e-25 9.635609049575639e-18 9.635609049575639e-18 4.096398793530561e-38
1.0521189612883777 3.469034284501553e-25 9.688195023504305e-18 9.688195023504305e-18 4.4045889680478623e-38
1.0531058218030118 3.4751966070162774e-25 9.714508357794504e-18 9.714508357794504e-18 4.567132543581688e-38
1.0540936079674168 3.4813242016891517e-25 9.740765362209663e-18 9.740765362209663e-18 4.735572285430632e-38
1.058054026499678 3.5057981608849645e-25 9.846098728118181e-18 9.846098728118181e-18 5.472684590574663e-38
1.0590464539527713 3.5119073660913535e-25 9.872508024356484e-18 9.872508024356484e-18 5.673950961901094e-38
1.06003981227728 3.518012785808354e-25 9.898947548949464e-18 9.898947548949464e-18 5.882501149584509e-38
1.0620293250338977 3.5302121260125476e-25 9.95191697467701e-18 9.95191697467701e-18 6.32249923411505e-38
1.0660195594769086 3.5545638140198718e-25 1.0058215162817108e-17 1.0058215162817108e-17 7.301935915553382e-38
1.070024785945596 3.578850959551881e-25 1.0164988308843096e-17 1.0164988308843096e-17 8.430406316171509e-38
1.0740450607676866 3.603071315323628e-25 1.027223138551545e-17 1.027223138551545e-17 9.730173672503768e-38
1.07808044048254 3.6272226524830725e-25 1.0379939323130726e-17 1.0379939323130726e-17 1.1226763078361977e-37
1.0861967418109137 3.6752664708873226e-25 1.0596605378743451e-17 1.0596605378743451e-17 1.4931663572603618e-37
1.0902777775684922 3.6990568627518645e-25 1.0705269396458689e-17 1.0705269396458689e-17 1.7211802792487525e-37
1.0943741465085532 3.722767815138822e-25 1.0814369602767537e-17 1.0814369602767537e-17 1.9833850215286935e-37
1.1026131145906286 3.7699429462429405e-25 1.1033857338394714e-17 1.1033857338394714e-17 2.6312126653423587e-37
1.1109141095355224 3.816775162853231e-25 1.1255025756690716e-17 1.1255025756690716e-17 3.4862189509986625e-37
1.1192775983109025 3.863204294456372e-25 1.1477701342242207e-17 1.1477701342242207e-17 4.6131874761953525e-37
1.1277040513999907 3.9090131171288377e-25 1.1701234999262217e-17 1.1701234999262217e-17 6.096617113699005e-37
1.1361939428280308 3.954424801632668e-25 1.1926286116181912e-17 1.1926286116181912e-17 8.046770496000782e-37
1.1447477501889525 3.999424174822328e-25 1.2152809748992394e-17 1.2152809748992394e-17 1.0607093350107997e-36
1.1533659546722406 4.044021178170006e-25 1.2380836317670304e-17 1.2380836317670304e-17 1.3964032521294389e-36
1.1707974979042381 4.1321539365560666e-25 1.2841853487762746e-17 1.2841853487762746e-17 2.4107421208663037e-36
1.1884924949847024 4.218486826361271e-25 1.3308299741669113e-17 1.3308299741669113e-17 4.139988849652686e-36
1.2064549276569216 4.303702174430631e-25 1.3782333170374228e-17 1.3782333170374228e-17 7.071978669337812e-36
1.2246888378427687 4.386860990817867e-25 1.426096997412898e-17 1.426096997412898e-17 1.2014674984323745e-35
1.2431983285522175 4.467768193255471e-25 1.474349621397694e-17 1.474349621397694e-17 2.0298846912838872e-35
1.2619875648066055 4.546394136425708e-25 1.522970852055188e-17 1.522970852055188e-17 3.4101998485172884e-35
1.3004222497298317 4.695486825009253e-25 1.6208187454962907e-17 1.6208187454962907e-17 9.459676917734526e-35
1.3400274889804893 4.833560743233029e-25 1.7192946875103265e-17 1.7192946875103265e-17 2.562931812130341e-34
1.3808389325824078 4.960110077149917e-25 1.8180414104419985e-17 1.8180414104419985e-17 6.7792375394594635e-34
1.4228933163050095 5.075773469403414e-25 1.9170966302995155e-17 1.9170966302995155e-17 1.7502671220272674e-33
1.466228494730424 5.183392886776173e-25 2.017368414061918e-17 2.0173684140619175e-17 4.410790982751776e-33
1.5108834753276823 5.280850227567896e-25 2.1178941697566428e-17 2.1178941697566415e-17 1.0848907339471228e-32
1.5568984535646726 5.366437207712474e-25 2.2177662617763583e-17 2.2177662617763562e-17 2.6045900366868507e-32
1.6043148490894465 5.44032899645551e-25 2.3167768244461035e-17 2.316776824446097e-17 6.105008884490841e-32
1.6531753430134553 5.502771054540574e-25 2.4147367760300397e-17 2.4147367760300258e-17 1.3974854886590415e-31
1.7035239163302658 5.554543727722708e-25 2.5116901258964143e-17 2.511690125896383e-17 3.125258260642051e-31
1.755405889504358 5.60008231455928e-25 2.609404426831215e-17 2.6094044268311466e-17 6.832214717916831e-31
1.8088679632656115 5.638305518008603e-25 2.7072284480936615e-17 2.707228448093515e-17 1.4605666974798457e-30
1.8639582606462262 5.668486353839479e-25 2.804611571474109e-17 2.8046115714738035e-17 3.0544546195753544e-30
1.9207263702978936 5.6911719156434895e-25 2.901593948155831e-17 2.901593948155205e-17 6.251514793599455e-30
1.979223391128241 5.707620531102624e-25 2.998605543322824e-17 2.998605543321571e-17 1.2528514140256787e-29
2.039501978296691 5.719334896089317e-25 3.096271900163709e-17 3.096271900161249e-17 2.4597953252849042e-29
2.1016163906111602 5.730500872430725e-25 3.1967999732344544e-17 3.19679997322972e-17 4.7342817743934166e-29
2.1656225393682647 5.743547909210273e-25 3.30166072749265e-17 3.3016607274837126e-17 8.937393190924223e-29
2.231578038680979 5.758657521717084e-25 3.4111652815145555e-17 3.411165281498e-17 1.6555663348425341e-28
2.299542257339062 5.777287212635471e-25 3.526426094083877e-17 3.5264260940537696e-17 3.0106828134312524e-28
2.369576372248914 5.802650342293293e-25 3.649778808923893e-17 3.6497788088701156e-17 5.37771516711958e-28
2.4417434235010123 5.838540814307265e-25 3.784197375883235e-17 3.7841973757888354e-17 9.439934559165425e-28
2.5161083711144245 5.891449002282534e-25 3.9347840147036766e-17 3.934784014540735e-17 1.629427443359152e-27
2.5927381535095444 5.97199500727139e-25 4.110053997418046e-17 4.1100539971413055e-17 2.767399896351449e-27
2.6717017477616296 6.0928667334762865e-25 4.320948466059437e-17 4.3209484655967514e-17 4.626846858177876e-27
2.753070231689431 6.273164196544036e-25 4.5843036758330515e-17 4.5843036750712664e-17 7.617851056048227e-27
2.836916847834745 6.556148338059275e-25 4.9370191387668915e-17 4.937019137530944e-17 1.235946625853789e-26
2.9233170693905177 7.037091816451319e-25 5.460577471684664e-17 5.460577469707445e-17 1.9772186765594484e-26
2.967498994190263 7.445846067180597e-25 5.865081711163158e-17 5.865081708674684e-17 2.488472824277825e-26
3.0123486681368425 7.92333460450711e-25 6.335525862988878e-17 6.335525859867318e-17 3.121557840271022e-26
3.0578761833420214 8.992078610327458e-25 7.298765732067862e-17 7.298765728159619e-17 3.908244497654377e-26
3.1040917844459814 1.036968048469847e-24 8.544159800708132e-17 8.544159795829855e-17 4.878278108560349e-26
3.127460860933648 1.1826971958877853e-24 9.818268024376462e-17 9.818268018923242e-17 5.45322004080979e-26
3.1510058709225794 1.3768868453883008e-24 1.151640411823369e-16 1.151640411213797e-16 6.095723799410725e-26
3.162844764501044 1.557620600144262e-24 1.3077026148959417e-16 1.307702614250123e-16 6.458185472321977e-26
3.1747281389236908 1.7678297629070164e-24 1.4897603650621086e-16 1.4897603643780306e-16 6.840777667133769e-26
3.1986289994194426 2.35423819560079e-24 1.9988661105588842e-16 1.9988661097901176e-16 7.687664983827872e-26
3.2227097969389145 3.7365027228544945e-24 3.1963618272661395e-16 3.196361826389386e-16 8.767537223157747e-26
3.2348180950136065 5.047344115506295e-24 4.33393318593595e-16 4.33393318498951e-16 9.464406515628251e-26
3.240889293275058 6.027346771256441e-24 5.185131888730592e-16 5.185131887741297e-16 9.892949327395112e-26
3.2469718861334385 7.161035423013337e-24 6.171969672541225e-16 6.171969671503303e-16 1.0379207754628496e-25
3.2714166318528037 1.3208526296790031e-23 1.1469900633299818e-15 1.146990063203813e-15 1.2616875618825343e-25
3.2744851364798273 1.3586515074031963e-23 1.1809201457050092e-15 1.1809201455764818e-15 1.2852717774212424e-25
3.2775565192852394 1.3975361296310756e-23 1.2158574685744813e-15 1.2158574684435534e-15 1.3092784700386896e-25
3.283707930232385 1.3601193726642592e-23 1.1855257223768753e-15 1.1855257222432068e-15 1.3366863083243962e-25
3.2898708863219004 1.2414953939266438e-23 1.0841600492540329e-15 1.084160049119264e-15 1.3476892934629251e-25
3.29141343181113 1.213521427794996e-23 1.0602281219507939e-15 1.060228121815749e-15 1.3504496077400734e-25
3.292184975758714 1.1997760893249163e-23 1.0484648233519057e-15 1.0484648232167227e-15 1.3518312049216101e-25
3.295272960557952 1.1130133704768602e-23 9.735566089093205e-16 9.73556608773943e-16 1.3537761349500289e-25
3.3076538914384823 8.124593208864448e-24 7.133310323959946e-16 7.133310322600333e-16 1.359613194378327e-25
3.310756385682612 7.51293307416088e-24 6.602466077635749e-16 6.602466076274676e-16 1.3610734673245386e-25
3.313861789986515 6.948597499931666e-24 6.112248185559416e-16 6.112248184196882e-16 1.362534318709347e-25
3.3200813396944477 6.157160988955414e-24 5.426235844172358e-16 5.42623584279696e-16 1.375397209167132e-25
3.345076488085796 4.7451754626377e-24 4.2133521791900464e-16 4.213352177702234e-16 1.4878137655272103e-25
3.3482140837626964 4.798081668590775e-24 4.2643249146048535e-16 4.2643249130957503e-16 1.5091033152113434e-25
3.3513546224236106 4.851572851340988e-24 4.315909954778954e-16 4.3159099532482743e-16 1.5306784733411189e-25
3.3576445397418455 5.242644431510734e-24 4.672556420405042e-16 4.672556418821023e-16 1.584018285836264e-25
3.3702598118196083 6.685218892806776e-24 5.980650816391026e-16 5.980650814678041e-16 1.7129843349296613e-25
3.382922481734668 7.013584748940374e-24 6.297983644246739e-16 6.297983642428105e-16 1.81863383936078e-25
3.389271646505754 7.18370008998899e-24 6.462848929854226e-16 6.462848927980491e-16 1.873735267411802e-25
3.395632727569191 7.366985076879614e-24 6.640181248144966e-16 6.640181246211713e-16 1.9332539805825302e-25
3.421196662673239 8.246970008754002e-24 7.48931138878969e-16 7.489311386594975e-16 2.1947160425304853e-25
3.4276182099114902 8.069387183279165e-24 7.341797955698825e-16 7.341797953457666e-16 2.2411596253233876e-25
3.4340518103208963 7.291665093369183e-24 6.646652743190813e-16 6.646652740914716e-16 2.2760955980201163e-25
3.4469541582030403 6.1840903338530275e-24 5.658232196688102e-16 5.658232194358794e-16 2.3293081333320948e-25
3.472904465399547 5.873535055254475e-24 5.414543346309186e-16 5.414543343761493e-16 2.5476915408160484e-25
3.4990501388274233 5.398654650446994e-24 5.014240327662079e-16 5.014240324885398e-16 2.7766807196765495e-25
3.5253949054701885 3.709165589768272e-24 3.470990521988173e-16 3.4709905190366413e-16 2.9515320983538366e-25
3.5519380250092896 2.121548317596076e-24 2.000265938761171e-16 2.0002659356446641e-16 3.116506507219391e-25
3.578680990867387 1.4920775942911059e-24 1.417371932330732e-16 1.4173719289604984e-16 3.3702335818224836e-25
3.605625307711299 1.2374468686319093e-24 1.1843405181516078e-16 1.1843405144710527e-16 3.6805552726753154e-25
3.660119384959845 1.0516255697796126e-24 1.0217057125827474e-16 1.0217057081649316e-16 4.417815968862607e-25
3.715437065384467 9.200687227862544e-25 9.074017442155977e-17 9.074017389259178e-17 5.289679884156801e-25
3.8285932144167436 8.531751936552904e-25 8.670554612719814e-17 8.67055453704952e-17 7.567029245530652e-25
3.94519561050918 8.402222910270921e-25 8.798976817002093e-17 8.798976709724506e-17 1.0727758416770753e-24
4.06534921144712 8.494406633296731e-25 9.166432345478967e-17 9.166432194796165e-17 1.5068279832326665e-24
4.189162171576248 8.715191732115297e-25 9.691110648019657e-17 9.691110438288557e-17 2.0973109922178696e-24
4.316745939156006 9.029929279008887e-25 1.0346900462519615e-16 1.0346900173140325e-16 2.8937928998227e-24
4.448215356677963 9.42704184218788e-25 1.1130910041493415e-16 1.1130909645543572e-16 3.9594984187920925e-24
4.58368876423945 9.908020386583026e-25 1.2055117440514806e-16 1.2055116903040023e-16 5.3747478246654456e-24
4.723288106065518 1.0484018506833246e-24 1.314442670197318e-16 1.314442597783957e-16 7.241336089226788e-24
4.867139040275056 1.1177278597789708e-24 1.4440401285322525e-16 1.4440400316485526e-16 9.688369989806152e-24
4.940699165968905 1.159566755719411e-24 1.520735204508445e-16 1.5207350926994627e-16 1.1180898213786799e-23
5.015371051989984 1.2029207900874633e-24 1.6014357997909826e-16 1.6014356709874235e-16 1.2880355929383465e-23
5.091171501069577 1.2558126616198233e-24 1.697117913016037e-16 1.6971177647827239e-16 1.4823331311487857e-23
5.129500256944802 1.2829703435058835e-24 1.7468720916544476e-16 1.7468719327390558e-16 1.589153919292006e-23
5.168117569889187 1.3112878461589809e-24 1.798870309809586e-16 1.7988701395039445e-16 1.7030564188615758e-23
5.20702561229733 1.34602133742299e-24 1.8604203931073997e-16 1.8604202105575917e-16 1.8254980839593783e-23
5.246226572918644 1.3816489037383635e-24 1.9240403371393857e-16 1.924040141550042e-16 1.9558934343830864e-23
5.265937586045735 1.3998069351151055e-24 1.9566506037423326e-16 1.9566504013206642e-16 2.0242166799190723e-23
5.285722656980489 1.4181994047277201e-24 1.9898076841236839e-16 1.9898074746534085e-16 2.09470275446981e-23
5.305582063971359 1.4368301174219865e-24 2.0235218211983708e-16 2.0235216044570856e-16 2.167412850732258e-23
5.3255160863122235 1.4568428163147737e-24 2.0594148058382967e-16 2.0594145815678265e-16 2.2427047087341554e-23
5.365609099470188 1.5066559957537685e-24 2.1458658440046364e-16 2.1458656037213971e-16 2.4028323878844566e-23
5.406003951863644 1.5583730386324381e-24 2.236233853313111e-16 2.2362335959837924e-16 2.573293183141375e-23
5.446702915881641 1.612086006880226e-24 2.3307265809438344e-16 2.330726305475719e-16 2.7546811597953124e-23
5.487708281020852 1.6701243815031234e-24 2.4328160148545017e-16 2.432815720013261e-16 2.948412402712818e-23
5.529022354014368 1.750729339722824e-24 2.569429989906715e-16 2.56942967373855e-16 3.1616816482422423e-23
5.570647458961463 1.836092919133677e-24 2.714999560402266e-16 2.714999221511131e-16 3.3889113499596996e-23
5.612585937458331 1.926557629705877e-24 2.870215077950589e-16 2.8702147148589856e-16 3.630916029421447e-23
5.654840148729818 2.025996966221504e-24 3.0410849821238917e-16 3.0410845931110484e-16 3.8901284367982674e-23
5.67608639626678 2.093682148819682e-24 3.1544901852523564e-16 3.1544897819571415e-16 4.0329521523643104e-23
5.686739436050992 2.1285711889056684e-24 3.2130755848029603e-16 3.2130751741884297e-16 4.1061452949578335e-23
5.6974124697621304 2.164180121643115e-24 3.2729584987622824e-16 3.272958080707326e-16 4.1805495618343376e-23
5.718818669136295 2.2376270133868187e-24 3.396748995623041e-16 3.3967485623166743e-16 4.3330636655982103e-23
5.740305295436557 2.3185811862250714e-24 3.5328624710041923e-16 3.5328620217014063e-16 4.493027861497545e-23
5.7835210386641895 2.5285337380001827e-24 3.8817763126938385e-16 3.881775827820017e-16 4.8487382140880274e-23
5.827062130521658 2.7703916729549027e-24 4.285093030037314e-16 4.285092506499648e-16 5.235376644308598e-23
5.8489554468988025 2.9400090825333913e-24 4.564533705610771e-16 4.564533159342385e-16 5.462683845816445e-23
5.870931020387893 3.1220306285349596e-24 4.865344202126967e-16 4.865343632214739e-16 5.699122266418967e-23
5.892989160043636 3.317454870978965e-24 5.189315777106118e-16 5.189315182603381e-16 5.945027374812442e-23
5.915130176081913 3.539699968645255e-24 5.557765157364872e-16 5.557764536423519e-16 6.209413510495004e-23
5.95966208400165 4.160995498953728e-24 6.58246130473185e-16 6.582460619386091e-16 6.853457604594847e-23
6.004529249263818 5.0564128141157885e-24 8.05918121101545e-16 8.059180444086624e-16 7.669288262916923e-23
6.027089341400364 5.67879436901826e-24 9.085173077527661e-16 9.085172258579828e-16 8.18947834251409e-23
6.049734195844842 6.414277666919605e-24 1.0300385595900597e-15 1.0300384718668699e-15 8.772318984982139e-23
6.095279466722835 8.538667735062615e-24 1.3815072548967408e-15 1.3815071513580867e-15 1.0353865393233988e-22
6.141167624020661 1.1807916032066137e-23 1.9248355933172756e-15 1.924835466782096e-15 1.2653517972647837e-22
6.164241091010745 1.3895612880431625e-23 2.2736664622298e-15 2.2736663205618973e-15 1.4166790329688225e-22
6.187401249150058 1.6273803699204664e-23 2.67280199492361e-15 2.672801836538458e-15 1.5838515259446836e-22
6.1990139391386085 1.7435029202552632e-23 2.86889547227476e-15 2.868895305279195e-15 1.6699556426010566e-22
6.204828454712694 1.804671875714141e-23 2.9723329941133434e-15 2.972332822638727e-15 1.7147461673521566e-22
6.210648424152782 1.8493261622829104e-23 3.048736511268924e-15 3.048736336069968e-15 1.7519895612463564e-22
6.233982942956859 2.0010401792875724e-23 3.3112414637469645e-15 3.311241275311432e-15 1.884355329449534e-22
6.239830258556775 2.0204370117932477e-23 3.3464745339572668e-15 3.3464743436886723e-15 1.902685943675382e-22
6.245683058788269 2.0221243405389767e-23 3.352410805601203e-15 3.35241061348314e-15 1.921180629469604e-22
6.257405133728602 2.017968924893833e-23 3.3518006539754673e-15 3.3518004586209817e-15 1.9535448631998435e-22
6.269149208991335 1.9881471216815436e-23 3.3084651035157685e-15 3.3084649071125214e-15 1.9640324651667736e-22
6.280915325867298 1.9133442215932154e-23 3.189961788483464e-15 3.1899615937521285e-15 1.9473133503930836e-22
6.304513850009849 1.7288722653350827e-23 2.8932365546976346e-15 2.893236365844243e-15 1.8885339187121599e-22
6.32820103803542 1.500213584579871e-23 2.5200130767222064e-15 2.5200128969160855e-15 1.7980612099272768e-22
6.3519772230701035 1.2905218974320762e-23 2.175924104178466e-15 2.1759239329322573e-15 1.7124620855562234e-22
6.375842739491607 1.1141178948347039e-23 1.8855505482014665e-15 1.885550384473471e-15 1.6372799607795791e-22
6.399797922933955 9.727456205866111e-24 1.6524753065311871e-15 1.652475147869741e-15 1.5866144591090042e-22
6.42384311029221 8.552149173858261e-24 1.4582756572960377e-15 1.4582755029171158e-15 1.5437892154671303e-22
6.447978639727206 7.6957942964319e-24 1.317184082776574e-15 1.3171839303879448e-15 1.5238862910158708e-22
6.472204850670314 6.982490402658888e-24 1.1995877857180644e-15 1.199587634746352e-15 1.5097171200511034e-22
6.496522083828205 6.519056810553072e-24 1.12417809297914e-15 1.1241779414244972e-15 1.5155464268529057e-22
6.520930681187647 6.128742019506928e-24 1.060841149331674e-15 1.060840996823649e-15 1.5250802499991964e-22
6.57002334288761 5.729982934517642e-24 9.992857035633463e-16 9.992855460115403e-16 1.5755180617115082e-22
