Dust emission spectrum from A.P. Jones, M. Kohler, N. Ysard, M. Bocchio, and L. Verstraete (2017), A&A, 602A, 46J 
inside the DustPedia framework.

lambda    nu*dP/dnu     j_nu    j_nu(carb.) j_nu(sil)
 (um)   (erg s-1 H-1) (Jy cm2 sr-1 H-1)
0.9927057738263894 4.601784205412417e-25 1.2125962757386545e-17 1.2125961469494257e-17 1.2878922888952886e-24
1.0001793341362166 4.678431385704599e-25 1.242074295842625e-17 1.2420741407733526e-17 1.550692728293843e-24
1.0077091589558085 4.755100665693794e-25 1.2719333489638997e-17 1.2719331624965355e-17 1.8646736401970432e-24
1.0114953028030835 4.7934359858035925e-25 1.2870050034929339e-17 1.2870047991180674e-17 2.043748664804924e-24
1.0152956718711033 4.831767741840925e-25 1.3021709961960138e-17 1.3021707722675206e-17 2.2392849340525833e-24
1.0229392996569957 4.908371180006808e-25 1.3327745599219626e-17 1.332774291356599e-17 2.6856536371454895e-24
1.0267826658714554 4.946552007508429e-25 1.3481882597845969e-17 1.3481879658021585e-17 2.9398243846713553e-24
1.0306404723013447 4.984715495398994e-25 1.3636942260520223e-17 1.363693904352931e-17 3.216990912073392e-24
1.03451277320114 5.022858751529386e-25 1.3792921224454574e-17 1.3792917705324496e-17 3.5191300761061345e-24
1.0383996230291617 5.060978909890601e-25 1.3949816100270437e-17 1.3949812251891357e-17 3.8483790818506275e-24
1.0403485208654093 5.080029439143237e-25 1.402860593935642e-17 1.4028601915471947e-17 4.023884474194233e-24
1.0423010764483396 5.099073131489352e-25 1.410762347474192e-17 1.4107619267694265e-17 4.207047649928773e-24
1.0462171883269815 5.137138605217714e-25 1.4266339913584523e-17 1.4266335315953487e-17 4.597631037784889e-24
1.0471985131304309 5.146650155093409e-25 1.43061606603718e-17 1.4306155959797024e-17 4.7005747719423555e-24
1.048180758391296 5.156159690996871e-25 1.434603795386954e-17 1.4346033148144838e-17 4.805724698323321e-24
1.0501480137395462 5.175172548716894e-25 1.442596196428978e-17 1.4425956941465813e-17 5.022823969629028e-24
1.0521189612883777 5.194176835215754e-25 1.450611151090689e-17 1.4506106261607588e-17 5.2492993026525106e-24
1.0531058218030118 5.2036617156245615e-25 1.4546231751466867e-17 1.454622638528649e-17 5.366180379253913e-24
1.0540936079674168 5.213098647481094e-25 1.4586280332790444e-17 1.4586274847213397e-17 5.485577046882834e-24
1.058054026499678 5.250820937732407e-25 1.474702734841208e-17 1.474702135931407e-17 5.9890980101842275e-24
1.0590464539527713 5.26024494224646e-25 1.4787351996760473e-17 1.4787345875033916e-17 6.1217265588712076e-24
1.06003981227728 5.269666236483305e-25 1.482773169155271e-17 1.4827725434388823e-17 6.2571638811151365e-24
1.0620293250338977 5.28850052903753e-25 1.4908655997667913e-17 1.4908649460975773e-17 6.536692139403063e-24
1.0660195594769086 5.326134782152729e-25 1.5071162715875405e-17 1.5071155583859948e-17 7.132015453260141e-24
1.070024785945596 5.363721091413179e-25 1.5234543936676527e-17 1.523453615766723e-17 7.77900929698571e-24
1.0740450607676866 5.401256885555571e-25 1.5398796095173012e-17 1.5398787613251914e-17 8.4819211003119e-24
1.07808044048254 5.438739628535706e-25 1.5563915631112647e-17 1.5563906385786122e-17 9.245326526063366e-24
1.0861967418109137 5.513472686075422e-25 1.5896560095332774e-17 1.5896549121626054e-17 1.0973706720047163e-23
1.0902777775684922 5.550574137273047e-25 1.6063659913656807e-17 1.6063647963958815e-17 1.1949697988628404e-23
1.0943741465085532 5.587610238356983e-25 1.6231601140439952e-17 1.6231588132174867e-17 1.3008265083003159e-23
1.1026131145906286 5.661477103718662e-25 1.6569993651833448e-17 1.6569978251795485e-17 1.5400037969330405e-23
1.1109141095355224 5.735055119087998e-25 1.6911709578701858e-17 1.6911691370691e-17 1.8208010861092947e-23
1.1192775983109025 5.808262098284583e-25 1.7256529191904054e-17 1.7256507691650234e-17 2.1500253821699933e-23
1.1277040513999907 5.88078397766045e-25 1.7603531438913036e-17 1.7603506083700167e-17 2.5355212869518294e-23
1.1361939428280308 5.952957257355615e-25 1.7953729063026347e-17 1.7953699199863838e-17 2.9863162507051185e-23
1.1447477501889525 6.024766761258577e-25 1.830709647967791e-17 1.8307061351822786e-17 3.512785512614014e-23
1.1533659546722406 6.096232618759047e-25 1.86637148723966e-17 1.8663673603965883e-17 4.1268430710512936e-23
1.1707974979042381 6.238363172664871e-25 1.9387502764136197e-17 1.9387446020419065e-17 5.674371713053577e-23
1.1884924949847024 6.378939118389276e-25 2.012400116811761e-17 2.0123923534459917e-17 7.763365769739113e-23
1.2064549276569216 6.519017674474318e-25 2.08767405112204e-17 2.0876634818420877e-17 1.0569279951885614e-22
1.2246888378427687 6.6573082193319775e-25 2.1641823805936297e-17 2.16416806138013e-17 1.4319213499748968e-22
1.2431983285522175 6.793583742143733e-25 2.2418615256904876e-17 2.241842219602624e-17 1.9306087862800826e-22
1.2619875648066055 6.927908178775499e-25 2.320740768481818e-17 2.3207148626864613e-17 2.590579535631686e-22
1.3004222497298317 7.189131304904456e-25 2.4815911996090822e-17 2.4815452084752523e-17 4.599113383071177e-22
1.3400274889804893 7.440976407730665e-25 2.6467508917957617e-17 2.646670732499605e-17 8.0159296156754185e-22
1.3808389325824078 7.683728089840205e-25 2.816335854774553e-17 2.816198628201074e-17 1.372265734790373e-21
1.4228933163050095 7.919556129338094e-25 2.991180449746594e-17 2.990949593917971e-17 2.308558286231892e-21
1.466228494730424 8.154170837183833e-25 3.173590551425593e-17 3.173208714317472e-17 3.818371081207022e-21
1.5108834753276823 8.386302078900068e-25 3.3633410366384235e-17 3.3627198231063954e-17 6.212135320275046e-21
1.5568984535646726 8.61561329692939e-25 3.5605404022954387e-17 3.559545263613833e-17 9.951386816052914e-21
1.6043148490894465 8.845028404696041e-25 3.7666760287692576e-17 3.765103461633841e-17 1.5725671354163036e-20
1.6531753430134553 9.078156224196077e-25 3.983694301623547e-17 3.981245736269633e-17 2.4485653539135948e-20
1.7035239163302658 9.32000356449693e-25 4.2143805276808393e-17 4.210623070710048e-17 3.7574569707921504e-20
1.755405889504358 9.5819148620227e-25 4.464772061203096e-17 4.4590865031426806e-17 5.685558060415613e-20
1.8088679632656115 9.86785307833783e-25 4.7380427488292813e-17 4.7295567602949876e-17 8.485988534292745e-20
1.8639582606462262 1.0183181376241212e-24 5.03835883857797e-17 5.025860446413806e-17 1.249839216416441e-19
1.9207263702978936 1.0536380748271773e-24 5.371881058559489e-17 5.3537095296072344e-17 1.8171528952254217e-19
1.979223391128241 1.0938325087985314e-24 5.746654330778273e-17 5.720563884870078e-17 2.6090445908194596e-19
2.039501978296691 1.1401548997894597e-24 6.172447744694791e-17 6.135441192001007e-17 3.7006552693784838e-19
2.1016163906111602 1.194445161159926e-24 6.663295834394336e-17 6.611420411766015e-17 5.187542262831908e-19
2.1656225393682647 1.2584333464292672e-24 7.23406511750323e-17 7.16217329538795e-17 7.18918221152784e-19
2.231578038680979 1.3336298650400404e-24 7.899813240949714e-17 7.801283623843614e-17 9.852961710610155e-19
2.299542257339062 1.4219340943872987e-24 8.679411824200209e-17 8.54582738472631e-17 1.3358443947389879e-18
2.369576372248914 1.525666440307591e-24 9.596209860751841e-17 9.41698979956701e-17 1.7922006118482865e-18
2.4417434235010123 1.647389523622756e-24 1.0677406068780606e-16 1.0439399346032503e-16 2.3800672274810387e-18
2.5161083711144245 1.790242712178138e-24 1.1956682309545816e-16 1.1643711894215466e-16 3.129704153303483e-18
2.5927381535095444 1.958079808934315e-24 1.347592175843278e-16 1.3068293264889809e-16 4.076284935429686e-18
2.6717017477616296 2.1550334203652738e-24 1.5283098678118152e-16 1.4757100928589162e-16 5.259977495289868e-18
2.753070231689431 2.386103758562025e-24 1.743717187782391e-16 1.6764556685955165e-16 6.7261519186874604e-18
2.836916847834745 2.6596946149580656e-24 2.002847181034068e-16 1.9175897480223355e-16 8.525743301173207e-18
2.9233170693905177 2.9909561257749897e-24 2.3208944923842505e-16 2.2137622400109724e-16 1.0713225237327881e-17
2.967498994190263 3.1895418273488322e-24 2.5123972843098294e-16 2.392901745320118e-16 1.1949553898971189e-17
3.0123486681368425 3.406245781063358e-24 2.7236459544883894e-16 2.590537553627931e-16 1.3310840086045807e-17
3.0578761833420214 3.713010672932014e-24 3.013807622997584e-16 2.8656900806698763e-16 1.4811754232770806e-17
3.1040917844459814 4.0691628977673504e-24 3.3528109284504914e-16 3.1883109676755325e-16 1.6449996077495877e-17
3.127460860933648 4.354204641892843e-24 3.61468246950543e-16 3.441391467276922e-16 1.7329100222850822e-17
3.1510058709225794 4.705701196166259e-24 3.9358903613770257e-16 3.7534216580414396e-16 1.8246870333558565e-17
3.162844764501044 4.995546825289232e-24 4.1940185213657374e-16 4.006794838860623e-16 1.8722368250511475e-17
3.1747281389236908 5.324094221446225e-24 4.486644991157995e-16 4.2945657910789722e-16 1.9207920007902208e-17
3.1986289994194426 6.2017110423380204e-24 5.265563209862368e-16 5.063440762560018e-16 2.021224473023508e-17
3.2227097969389145 8.143135948860159e-24 6.965981515809224e-16 6.753201964861397e-16 2.1277955094782916e-17
3.2348180950136065 9.939289745297487e-24 8.534432502717662e-16 8.315961887905524e-16 2.1847061481213775e-17
3.240889293275058 1.127057521774224e-23 9.695712090855849e-16 9.47423951270403e-16 2.2147257815181853e-17
3.2469718861334385 1.2807767756322388e-23 1.1038788316970728e-15 1.0814209499819295e-15 2.24578817151434e-17
3.2714166318528037 2.094005894537889e-23 1.818373904568794e-15 1.7946311394031513e-15 2.3742765165643293e-17
3.2744851364798273 2.1454948709769952e-23 1.864832962564556e-15 1.8409384289329987e-15 2.3894533631557452e-17
3.2775565192852394 2.198406157359333e-23 1.9126149862695013e-15 1.8885678930206196e-15 2.4047093248881577e-17
3.283707930232385 2.1513642565998392e-23 1.875201335751355e-15 1.850880712647615e-15 2.4320623103739698e-17
3.2898708863219004 1.99643752810047e-23 1.7434279815990163e-15 1.71885778152893e-15 2.4570200070086506e-17
3.29141343181113 1.9599119184069895e-23 1.7123337790724659e-15 1.6877008917510204e-15 2.4632887321445947e-17
3.292184975758714 1.941966113618007e-23 1.6970526220567895e-15 1.6723883470872045e-15 2.4664274969585363e-17
3.295272960557952 1.8283756266580977e-23 1.5992864255881089e-15 1.5744999361925375e-15 2.4786489395571738e-17
3.3076538914384823 1.4346444758974755e-23 1.2596032795790782e-15 1.2343255838256627e-15 2.5277695753415613e-17
3.310756385682612 1.3544912107299288e-23 1.190344993496294e-15 1.1649434159568667e-15 2.540157753942774e-17
3.313861789986515 1.2805353698822963e-23 1.1264071621913185e-15 1.1008812695959719e-15 2.5525892595346837e-17
3.3200813396944477 1.1777634595642015e-23 1.0379495211685116e-15 1.0121565386727552e-15 2.5792982495756355e-17
3.345076488085796 1.0018178841440608e-23 8.895375099498654e-16 8.6255503056536435e-16 2.6982479384500995e-17
3.3482140837626964 1.0104273046977548e-23 8.9802354929177e-16 8.708799634334722e-16 2.7143585858298036e-17
3.3513546224236106 1.0191179764565905e-23 9.065970056427054e-16 8.792915507443306e-16 2.7305454898374632e-17
3.3576445397418455 1.0744376421152364e-23 9.576027076747066e-16 9.299589371981045e-16 2.7643770476602078e-17
3.3702598118196083 1.2726973307684938e-23 1.1385653113721119e-15 1.1102118346112622e-15 2.83534767608497e-17
3.382922481734668 1.3230667670866373e-23 1.1880733116708918e-15 1.15902869319502e-15 2.9044618475872e-17
3.389271646505754 1.349058604989774e-23 1.213686798216845e-15 1.1842916035224835e-15 2.9395194694361417e-17
3.395632727569191 1.3770703412572597e-23 1.2412128655031984e-15 1.2114563713139861e-15 2.975649418921213e-17
3.421196662673239 1.5099387208036703e-23 1.371218913866039e-15 1.3399653279351952e-15 3.125358593084413e-17
3.4276182099114902 1.4893359434710894e-23 1.3550475812813091e-15 1.323458452462268e-15 3.1589128819040474e-17
3.4340518103208963 1.3881628949979776e-23 1.265367593805759e-15 1.2334603997543503e-15 3.1907194051408483e-17
3.4469541582030403 1.2452927647618958e-23 1.139400499586228e-15 1.1068813924433711e-15 3.251910714285659e-17
3.472904465399547 1.2157083220821701e-23 1.120705902741484e-15 1.0867792547320449e-15 3.39266480094389e-17
3.4990501388274233 1.164535685214468e-23 1.0816142490834273e-15 1.0462439560506216e-15 3.537029303280546e-17
3.5253949054701885 9.515076471795787e-24 8.90408892520195e-16 8.53630878355528e-16 3.6778014164667006e-17
3.5519380250092896 7.511850669457045e-24 7.082421317748174e-16 6.700449796943657e-16 3.8197152080451456e-17
3.578680990867387 6.80149642168877e-24 6.460957635738579e-16 6.063424895072274e-16 3.975327406663032e-17
3.605625307711299 6.599338916584243e-24 6.316121257445566e-16 5.902173341970635e-16 4.1394791547493055e-17
3.660119384959845 6.637841326065128e-24 6.448987735701268e-16 6.000436232146307e-16 4.4855150355496045e-17
3.715437065384467 6.757615715666156e-24 6.66458073758337e-16 6.179379809606674e-16 4.852009279766934e-17
3.8285932144167436 7.293902723854406e-24 7.412566888647406e-16 6.847998679803948e-16 5.645682088434546e-17
3.94519561050918 7.94442541453454e-24 8.319562072251391e-16 7.667537517683845e-16 6.520245545675469e-17
4.06534921144712 8.665876232449545e-24 9.351467574870929e-16 8.603769213186841e-16 7.476983616840899e-17
4.189162171576248 9.444867783187008e-24 1.0502495132205832e-15 9.65049668103009e-16 8.519984511757396e-17
4.316745939156006 1.027493896213234e-23 1.1773488741134058e-15 1.080868078006646e-15 9.64807961067595e-17
4.448215356677963 1.1151501986797814e-23 1.3167053623024293e-15 1.2082172313173224e-15 1.0848813098510711e-16
4.58368876423945 1.2073001451987295e-23 1.4689256247423351e-15 1.3476637481185395e-15 1.2126187662379538e-16
4.723288106065518 1.303935220632619e-23 1.6348197898120427e-15 1.4999134222544662e-15 1.3490636755757607e-16
4.867139040275056 1.404858431513681e-23 1.8149963179890697e-15 1.665882096419606e-15 1.4911422156946355e-16
4.940699165968905 1.457308083595586e-23 1.9112135593811456e-15 1.7547354372312249e-15 1.5647812214992051e-16
5.015371051989984 1.5104960433559475e-23 2.010907500482194e-15 1.8469090767659484e-15 1.6399842371624498e-16
5.091171501069577 1.5657569179582372e-23 2.115979711072663e-15 1.944150697790749e-15 1.7182901328191403e-16
5.129500256944802 1.5936452559860683e-23 2.169882129989238e-15 1.9940831163758828e-15 1.7579901361335566e-16
5.168117569889187 1.6218321873833417e-23 2.224885846325244e-15 2.04504635410929e-15 1.7983949221595448e-16
5.20702561229733 1.6513448332865445e-23 2.282427119454633e-15 2.0982015172740657e-15 1.8422560218056728e-16
5.246226572918644 1.6810714686817328e-23 2.3410066816586104e-15 2.152345551025092e-15 1.8866113063351887e-16
5.265937586045735 1.6960140951383454e-23 2.3706890714433197e-15 2.1797919710663312e-15 1.908971003769893e-16
5.285722656980489 1.711009110050748e-23 2.4006349624989777e-15 2.207489933987867e-15 1.931450285111116e-16
5.305582063971359 1.726056160992563e-23 2.4308456956965054e-15 2.235440917400064e-15 1.9540477829644056e-16
5.3255160863122235 1.7413500518395448e-23 2.4615984914399972e-15 2.26390641705415e-15 1.9769207438584732e-16
5.365609099470188 1.7736231301522364e-23 2.5260957417331232e-15 2.3236709680899563e-15 2.0242477364316792e-16
5.406003951863644 1.8062179843287183e-23 2.591886347420009e-15 2.3846760528615632e-15 2.0721029455844503e-16
5.446702915881641 1.839139108668332e-23 2.6589961009103356e-15 2.4469485057226612e-15 2.1204759518767433e-16
5.487708281020852 1.8727661735180468e-23 2.727997740450906e-15 2.5110436623926968e-15 2.1695407805820965e-16
5.529022354014368 1.9101020183046637e-23 2.8033307595052714e-15 2.5812577155205252e-15 2.2207304398474654e-16
5.570647458961463 1.948102019491285e-23 2.880625523589055e-15 2.65337628071074e-15 2.2724924287831534e-16
5.612585937458331 1.9868008561773203e-23 2.9599663598725975e-15 2.7274847016561774e-15 2.3248165821642e-16
5.654840148729818 2.0268147482630515e-23 3.042312498614126e-15 2.804520111402913e-15 2.3779238721121264e-16
5.67608639626678 2.049690602983909e-23 3.0882093987197606e-15 2.8476403579878274e-15 2.405690407319334e-16
5.686739436050992 2.0612653826211977e-23 3.1114775532147875e-15 2.8695141873340264e-15 2.419633658807609e-16
5.6974124697621304 2.072933958933646e-23 3.13496402190115e-15 2.891602351685542e-15 2.433616702156078e-16
5.718818669136295 2.0965604970637062e-23 3.182608057580236e-15 2.936437901164818e-15 2.4617015641541786e-16
5.740305295436557 2.121315744706502e-23 3.232285687535298e-15 2.983272036915783e-15 2.490136506195154e-16
5.7835210386641895 2.178233194008028e-23 3.3439988911167112e-15 3.08910044627944e-15 2.5489844483727076e-16
5.827062130521658 2.2395578541611052e-23 3.4640277925017036e-15 3.203127719335349e-15 2.6090007316635534e-16
5.8489554468988025 2.2778417338670233e-23 3.536480697305743e-15 3.272348065071644e-15 2.641326322340983e-16
5.870931020387893 2.3177132242684813e-23 3.61190325771379e-15 3.344515615210072e-15 2.673876425037183e-16
5.892989160043636 2.3592940073368942e-23 3.690516402260017e-15 3.4198513696124814e-15 2.706650326475359e-16
5.915130176081913 2.4047785556988637e-23 3.775798679670754e-15 3.5017384421267314e-15 2.740602375440223e-16
5.95966208400165 2.522546235686282e-23 3.9905265434622825e-15 3.708778592033424e-15 2.817479514288597e-16
6.004529249263818 2.680482025065945e-23 4.272295630722491e-15 3.981921511197391e-15 2.9037411952510147e-16
6.027089341400364 2.785413556207023e-23 4.456221269200047e-15 4.160887443119213e-15 2.953338260808342e-16
6.049734195844842 2.906179359416154e-23 4.666896191166863e-15 4.3663131062585605e-15 3.0058308490830323e-16
6.095279466722835 3.243626217909216e-23 5.248000380450449e-15 4.9345994180032166e-15 3.1340096244723255e-16
6.141167624020661 3.7454780178172995e-23 6.1055899983569564e-15 5.775657612997495e-15 3.2993238535945944e-16
6.164241091010745 4.063144960818461e-23 6.6483115988360735e-15 6.3080544423058045e-15 3.4025715653027094e-16
6.187401249150058 4.4183121247441774e-23 7.256615404417442e-15 6.9057413387795444e-15 3.508740656378963e-16
6.1990139391386085 4.5916406901155486e-23 7.555443144457952e-15 7.199163762033628e-15 3.562793824243254e-16
6.204828454712694 4.682353085325872e-23 7.711935201569588e-15 7.352924070996097e-15 3.5901113057349166e-16
6.210648424152782 4.749317753593517e-23 7.829564483705822e-15 7.468213918750383e-15 3.6135056495543847e-16
6.233982942956859 4.9768914165765095e-23 8.235561379383069e-15 7.866003163574552e-15 3.6955821580851736e-16
6.239830258556775 5.00641747403331e-23 8.292190494145217e-15 7.921454932560612e-15 3.707355615846061e-16
6.245683058788269 5.0105298820143925e-23 8.306786176054638e-15 7.934870802349327e-15 3.7191537370531215e-16
6.257405133728602 5.007777268016701e-23 8.317804558256484e-15 7.943801478025709e-15 3.7400308023077302e-16
6.269149208991335 4.9678436259202504e-23 8.266962287066125e-15 7.892083030773206e-15 3.748792562929192e-16
6.280915325867298 4.862945330295188e-23 8.107589637064164e-15 7.733334233726538e-15 3.7425540333762654e-16
6.304513850009849 4.602643314327111e-23 7.702440574847742e-15 7.330792399016943e-15 3.7164817583079697e-16
6.32820103803542 4.2813490572067833e-23 7.191679718854709e-15 6.8240853638973666e-15 3.675943549573414e-16
6.3519772230701035 3.9887199236292574e-23 6.725303804539744e-15 6.361304585762614e-15 3.6399921877712946e-16
6.375842739491607 3.7419469460611095e-23 6.3329295294490684e-15 5.972056944319777e-15 3.60872585129292e-16
6.399797922933955 3.550358884502175e-23 6.031258596081315e-15 5.671788650286112e-15 3.594699457952047e-16
6.42384311029221 3.391337920080255e-23 5.7827634130086984e-15 5.424353349324399e-15 3.584100636842994e-16
6.447978639727206 3.280375521819546e-23 5.61457109745506e-15 5.255871383844482e-15 3.5869971361057677e-16
6.472204850670314 3.1891481935346046e-23 5.478938028116948e-15 5.1196785675720296e-15 3.592594605449196e-16
6.496522083828205 3.135277494805339e-23 5.406626107882708e-15 5.045708714030915e-15 3.609173938517943e-16
