Dust emission spectrum from A.P. Jones, M. Kohler, N. Ysard, M. Bocchio, and L. Verstraete (2017), A&A, 602A, 46J 
inside the DustPedia framework.

lambda    nu*dP/dnu     j_nu    j_nu(carb.) j_nu(sil)
 (um)   (erg s-1 H-1) (Jy cm2 sr-1 H-1)
0.9927057738263894 4.278587692008963e-21 1.1274321587372964e-13 1.1274313070088138e-13 8.517284828068732e-20
1.0001793341362166 4.350376747906256e-21 1.1549792420418276e-13 1.1549782173226895e-13 1.0247191377755671e-19
1.0077091589558085 4.422483269807801e-21 1.182962118275728e-13 1.1829608870844524e-13 1.2311912758553476e-19
1.0114953028030835 4.458653065949303e-21 1.1971180634748512e-13 1.1971167146144234e-13 1.3488604277195551e-19
1.0152956718711033 4.494899286506034e-21 1.2113842788892514e-13 1.211382801610274e-13 1.4772789773344567e-19
1.0229392996569957 4.567582038285095e-21 1.240239769514423e-13 1.2402379993186777e-13 1.770195745332398e-19
1.0267826658714554 4.60393661843821e-21 1.2548080538421826e-13 1.2548061169848982e-13 1.9368572844654405e-19
1.0306404723013447 4.640362441632274e-21 1.2694877920883383e-13 1.2694856735899774e-13 2.1184983607481664e-19
1.03451277320114 4.676858778533433e-21 1.2842794890572802e-13 1.284277172660895e-13 2.3163963853814345e-19
1.0383996230291617 4.713424946736494e-21 1.2991836634786996e-13 1.299181131547318e-13 2.5319313817139133e-19
1.0403485208654093 4.731734017507516e-21 1.3066780957996947e-13 1.3066754490257522e-13 2.6467739424814315e-19
1.0423010764483396 4.7500603121922144e-21 1.3142008486383434e-13 1.314198082044663e-13 2.7665936802004e-19
1.0462171883269815 4.7867642906539654e-21 1.3293315930256788e-13 1.3293285710335333e-13 3.021992145693185e-19
1.0471985131304309 4.795950942445625e-21 1.3331320885292115e-13 1.3331289992468928e-13 3.089282318900078e-19
1.048180758391296 4.805141841163425e-21 1.336939725653251e-13 1.3369365676484758e-13 3.1580047748268555e-19
1.0501480137395462 4.823536349144259e-21 1.3445764609989018e-13 1.3445731611359316e-13 3.2998629704666e-19
1.0521189612883777 4.841947756229035e-21 1.3522418721989137e-13 1.3522384243937208e-13 3.4478051926495823e-19
1.0531058218030118 4.851147720326578e-21 1.3560819833577714e-13 1.356078459217777e-13 3.524139994164796e-19
1.0540936079674168 4.860312382124583e-21 1.3599182310669826e-13 1.359914628960084e-13 3.602106899150455e-19
1.058054026499678 4.8970113691480114e-21 1.3753346656208315e-13 1.375330734831471e-13 3.93078936017164e-19
1.0590464539527713 4.906196172822701e-21 1.3792066827539221e-13 1.3792026654200441e-13 4.0173338775826555e-19
1.06003981227728 4.9153849888325526e-21 1.3830858825649992e-13 1.3830817768667034e-13 4.1056982959427494e-19
1.0620293250338977 4.9337746388053586e-21 1.3908658693725042e-13 1.39086158133965e-13 4.288032854371809e-19
1.0660195594769086 4.970601890087567e-21 1.4065124700255737e-13 1.4065077938396143e-13 4.676185959247077e-19
1.070024785945596 5.00749288131643e-21 1.4222751148477557e-13 1.4222700170691307e-13 5.097778625176521e-19
1.0740450607676866 5.044447431739213e-21 1.4381544714509785e-13 1.4381489159157753e-13 5.555535203338143e-19
1.07808044048254 5.081465423147706e-21 1.454151228592277e-13 1.4541451762039447e-13 6.052388332643702e-19
1.0861967418109137 5.1556355639713575e-21 1.4864836599135083e-13 1.4864764836667532e-13 7.176246755145194e-19
1.0902777775684922 5.1926604630452215e-21 1.5027838501483437e-13 1.5027760398495585e-13 7.810298785535673e-19
1.0943741465085532 5.229746814049262e-21 1.5192033934008777e-13 1.5191948958289463e-13 8.49757193147811e-19
1.1026131145906286 5.304104866753211e-21 1.5524037695574352e-13 1.552393720598339e-13 1.0048959096511365e-18
1.1109141095355224 5.3787124546765254e-21 1.586091520517089e-13 1.5860796524965453e-13 1.1868020544167707e-18
1.1192775983109025 5.453515969331563e-21 1.6202567296520455e-13 1.6202427315599247e-13 1.3998092121003204e-18
1.1277040513999907 5.528256074052281e-21 1.6548274851044064e-13 1.6548109960705732e-13 1.6489033833102627e-18
1.1361939428280308 5.603253035567577e-21 1.6899044041993968e-13 1.6898850060650748e-13 1.9398134322113014e-18
1.1447477501889525 5.678514959144613e-21 1.725496194920548e-13 1.7254734037942206e-13 2.279112632776278e-18
1.1533659546722406 5.7540771502928446e-21 1.7616200365513427e-13 1.7615932931841535e-13 2.6743367189209706e-18
1.1707974979042381 5.906358892207114e-21 1.835570424152306e-13 1.835533741009447e-13 3.6683142859028004e-18
1.1884924949847024 6.0599852350111874e-21 1.911777925526496e-13 1.9117278612667983e-13 5.006425969700813e-18
1.2064549276569216 6.216055163668739e-21 1.990652229145987e-13 1.9905842412370267e-13 6.7987908960625885e-18
1.2246888378427687 6.373708356006803e-21 2.071988688019082e-13 2.071896813548631e-13 9.187447045045342e-18
1.2431983285522175 6.5329478851617736e-21 2.1558525027416001e-13 2.1557289532337933e-13 1.2354950780727127e-17
1.2619875648066055 6.6941549724275236e-21 2.2424371042679868e-13 2.2422717568269927e-13 1.6534744099468262e-17
1.3004222497298317 7.02227429175905e-21 2.423994408306604e-13 2.423702441843179e-13 2.919664634249915e-17
1.3400274889804893 7.360805070999195e-21 2.6182339949043784e-13 2.6177279262411793e-13 5.0606866319866115e-17
1.3808389325824078 7.713332058722955e-21 2.8271866706849133e-13 2.8263252162688683e-13 8.614544160452141e-17
1.4228933163050095 8.085763706668173e-21 3.053956298265143e-13 3.0525154516566536e-13 1.4408466084897885e-16
1.466228494730424 8.488028684016173e-21 3.3035275038616205e-13 3.301158401526688e-13 2.369102334932659e-16
1.5108834753276823 8.925090549822212e-21 3.5794230901193527e-13 3.575591999032754e-13 3.8310910865994817e-16
1.5568984535646726 9.403923672195045e-21 3.8863223105529025e-13 3.880222807227086e-13 6.099503325816761e-16
1.6043148490894465 9.93597024094869e-21 4.231256160723687e-13 4.2216772356300235e-13 9.578925093663189e-16
1.6531753430134553 1.0535174884527898e-20 4.623066084965715e-13 4.608245366721517e-13 1.4820718244198805e-15
1.7035239163302658 1.1218760788899532e-20 5.072973061250064e-13 5.050375966927414e-13 2.2597094322652254e-15
1.755405889504358 1.2012349744948043e-20 5.597253190300482e-13 5.563284156055265e-13 3.396903424521686e-15
1.8088679632656115 1.2937745037032152e-20 6.212049224109212e-13 6.161685989690751e-13 5.0363234418461396e-15
1.8639582606462262 1.402082342278914e-20 6.937118863577176e-13 6.863444703179053e-13 7.367416039812309e-15
1.9207263702978936 1.5293838711008688e-20 7.797429159705259e-13 7.691051683553521e-13 1.0637747615173799e-14
1.979223391128241 1.679502367780105e-20 8.823580829534091e-13 8.671916695666371e-13 1.5166413386772e-14
2.039501978296691 1.8567621318552154e-20 1.005193876316346e-12 9.838355453295303e-13 2.1358330986816037e-14
2.1016163906111602 2.0664738405508032e-20 1.152796878531907e-12 1.1230747563463907e-12 2.972212218551627e-14
2.1656225393682647 2.3142164739882497e-20 1.3303201728031047e-12 1.2894348801013415e-12 4.0885292701763144e-14
2.231578038680979 2.6056034845411748e-20 1.5434403088464942e-12 1.4878291918293469e-12 5.561111701714742e-14
2.299542257339062 2.9469713819622646e-20 1.7988160182068262e-12 1.724000233706635e-12 7.481578450019132e-14
2.369576372248914 3.3452474527538344e-20 2.104109767682854e-12 2.004523581239146e-12 9.958618644370775e-14
2.4417434235010123 3.807704952536457e-20 2.4679294960509207e-12 2.3367377598742007e-12 1.311917361767193e-13
2.5161083711144245 4.3422371150175437e-20 2.9000955760806e-12 2.7289948473490073e-12 1.7110072873159235e-13
2.5927381535095444 4.957164726859985e-20 3.4116262114558625e-12 3.1906388577425515e-12 2.2098735371331074e-13
2.6717017477616296 5.66049669061825e-20 4.014319623647261e-12 3.731596759048747e-12 2.827228645985136e-13
2.753070231689431 6.460160828763056e-20 4.720957096912373e-12 4.362585152428632e-12 3.583719444837412e-13
2.836916847834745 7.365855695947674e-20 5.546758350963963e-12 5.096561489130783e-12 4.501968618331799e-13
2.9233170693905177 8.389440195272203e-20 6.509960268423916e-12 5.949441577369075e-12 5.60518691054842e-13
2.967498994190263 8.943236893530308e-20 7.04457420548122e-12 6.4224745946548276e-12 6.220996108263916e-13
3.0123486681368425 9.531017210248972e-20 7.621034457105421e-12 6.931473559485153e-12 6.895608976202685e-13
3.0578761833420214 1.0199988190174181e-19 8.279211903734583e-12 7.515617405089116e-12 7.635944986454666e-13
3.1040917844459814 1.0916847392100894e-19 8.995001222621194e-12 8.151117134963678e-12 8.438840876575152e-13
3.127460860933648 1.1346042494900192e-19 9.419020068553932e-12 8.532255547689394e-12 8.867645208645398e-13
3.1510058709225794 1.1817009634263209e-19 9.88385202989262e-12 8.952469617521267e-12 9.31382412371357e-13
3.162844764501044 1.2122161023696083e-19 1.0177177720562282e-11 9.222735670589722e-12 9.54442049972559e-13
3.1747281389236908 1.244798302228881e-19 1.0489987283095259e-11 9.512037924233044e-12 9.779493588622133e-13
3.1986289994194426 1.322239128446919e-19 1.1226472278150199e-11 1.0200021749582858e-11 1.026450528567345e-12
3.2227097969389145 1.4600568019931845e-19 1.2489940925203032e-11 1.1412176700346683e-11 1.0777642248563521e-12
3.2348180950136065 1.5751966963573286e-19 1.352552368233944e-11 1.2420395379950407e-11 1.105128302389033e-12
3.240889293275058 1.6571769899193485e-19 1.4256158774004282e-11 1.3136596457885625e-11 1.1195623161186598e-12
3.2469718861334385 1.7508090042314724e-19 1.508991289416308e-11 1.3955415680326336e-11 1.1344972138367405e-12
3.2714166318528037 2.228997223428355e-19 1.9355964541508028e-11 1.8159814083243173e-11 1.1961504582648613e-12
3.2744851364798273 2.260967209883631e-19 1.9651998414466582e-11 1.8448600831884606e-11 1.203397582581981e-12
3.2775565192852394 2.293673174477813e-19 1.9954973617705153e-11 1.8744294374738465e-11 1.2106792429666941e-12
3.283707930232385 2.2748279086830727e-19 1.982816401211785e-11 1.8604500507547143e-11 1.223663504570703e-12
3.2898708863219004 2.1963520313808534e-19 1.9180072178840146e-11 1.794462690081167e-11 1.2354452780284749e-12
3.29141343181113 2.177905127718282e-19 1.9027898564126854e-11 1.7789495692758073e-11 1.2384028713687824e-12
3.292184975758714 2.168850205946846e-19 1.895322942578649e-11 1.771334593386016e-11 1.2398834919263222e-12
3.295272960557952 2.1103982751900834e-19 1.8459726026129098e-11 1.721408974583606e-11 1.2456362802930373e-12
3.3076538914384823 1.9080776042547318e-19 1.6752727580867275e-11 1.548400244687979e-11 1.2687251339874811e-12
3.310756385682612 1.8670799673102674e-19 1.6408148491028776e-11 1.5133607126801177e-11 1.2745413642275981e-12
3.313861789986515 1.8293416248822228e-19 1.609157823224707e-11 1.4811203018359298e-11 1.2803752138877737e-12
3.3200813396944477 1.7795414427620944e-19 1.568289602988614e-11 1.4389956557172661e-11 1.292939472713474e-12
3.345076488085796 1.7149870481282554e-19 1.522777076086721e-11 1.3878795697137641e-11 1.3489750637295712e-12
3.3482140837626964 1.724110449661155e-19 1.532313881639288e-11 1.396657090458329e-11 1.3565679118095826e-12
3.3513546224236106 1.7332852840762935e-19 1.5419129921854217e-11 1.4054936805249452e-11 1.3641931166047608e-12
3.3576445397418455 1.7729669769793593e-19 1.5801735821827994e-11 1.4421593938103994e-11 1.3801418837240062e-12
3.3702598118196083 1.9003248420718302e-19 1.7000459521787456e-11 1.5586867312455093e-11 1.4135922093323618e-12
3.382922481734668 1.9461371026640167e-19 1.747571332034091e-11 1.602966613381228e-11 1.4460471865286277e-12
3.389271646505754 1.969509029927736e-19 1.7718778856240104e-11 1.6256292656203962e-11 1.4624862000361387e-12
3.395632727569191 1.9945922900374414e-19 1.797812019949281e-11 1.6498692526384883e-11 1.4794276731079253e-12
3.421196662673239 2.1090092021671098e-19 1.9152521010851583e-11 1.7603025807981483e-11 1.5494952028700973e-12
3.4276182099114902 2.105422281790428e-19 1.915583507550843e-11 1.7590766824939186e-11 1.5650682505692407e-12
3.4340518103208963 2.0556446376563399e-19 1.8738046653197024e-11 1.715827999039562e-11 1.5797666628014037e-12
3.4469541582030403 1.9888621194623926e-19 1.8197411537654458e-11 1.6589495851239875e-11 1.6079156864145811e-12
3.472904465399547 2.0037327530700508e-19 1.8471495860421278e-11 1.679864052698388e-11 1.6728553334373983e-12
3.4990501388274233 2.0071297667051976e-19 1.8642109322978996e-11 1.690293958131899e-11 1.7391697416600092e-12
3.5253949054701885 1.9203266683758805e-19 1.7970175511819698e-11 1.6166806314974446e-11 1.8033691968452519e-12
3.5519380250092896 1.839248636850941e-19 1.734104460733897e-11 1.5473329593185016e-11 1.8677150141539565e-12
3.578680990867387 1.8337207114325594e-19 1.7419095883903283e-11 1.5480877913810582e-11 1.938217970092698e-12
3.605625307711299 1.8580975255157932e-19 1.7783552909859846e-11 1.5771190050870108e-11 2.0123628589897405e-12
3.660119384959845 1.93320001164679e-19 1.8781984312900367e-11 1.6614345230311247e-11 2.1676390825891193e-12
3.715437065384467 2.013854121154919e-19 1.986128532440364e-11 1.753067612501618e-11 2.3306091993874597e-12
3.8285932144167436 2.1953671565135e-19 2.2310834828623088e-11 1.9632485463705894e-11 2.6783493649171977e-12
3.94519561050918 2.386504814299534e-19 2.499195838879308e-11 2.193818433796334e-11 3.053774050829745e-12
4.06534921144712 2.5834653287301416e-19 2.7878533692829137e-11 2.442297697423672e-11 3.455556718592414e-12
4.189162171576248 2.784113491840478e-19 3.0958758837909975e-11 2.7075197605884238e-11 3.883561232025736e-12
4.316745939156006 2.986433799883886e-19 3.421990617039955e-11 2.98847402227689e-11 4.335165947630654e-12
4.448215356677963 3.1881366191302725e-19 3.7643687703516156e-11 3.2840761097661796e-11 4.802926605854349e-12
4.58368876423945 3.3876663408633213e-19 4.121783564725832e-11 3.5931337427001336e-11 5.286498220256994e-12
4.723288106065518 3.583698472118449e-19 4.493092210590035e-11 3.914285715388629e-11 5.7880649520140655e-12
4.867139040275056 3.77365355376261e-19 4.875343416678497e-11 4.2461018096769754e-11 6.292416070015228e-12
4.940699165968905 3.866312124648975e-19 5.070546331697593e-11 4.4158443813460425e-11 6.547019503515496e-12
5.015371051989984 3.956680218436772e-19 5.267486772482118e-11 4.5872583953522574e-11 6.802283771298608e-12
5.091171501069577 4.0459740079240903e-19 5.467770133475515e-11 4.761362626714618e-11 7.064075067608962e-12
5.129500256944802 4.0896010541203605e-19 5.5683359974802925e-11 4.848851608837424e-11 7.1948438864286814e-12
5.168117569889187 4.1327081247747023e-19 5.669392854164178e-11 4.9366958303902766e-11 7.326970237739012e-12
5.20702561229733 4.176756205854664e-19 5.7729563465070115e-11 5.025725629111505e-11 7.472307173955071e-12
5.246226572918644 4.2200832322227315e-19 5.876753741788272e-11 5.1149632019057485e-11 7.617905398825245e-12
5.265937586045735 4.241468589070093e-19 5.928726217430626e-11 5.1596484297954626e-11 7.690777876351644e-12
5.285722656980489 4.26266444944775e-19 5.980740400875025e-11 5.2043717978735063e-11 7.763686030015185e-12
5.305582063971359 4.2836678208862097e-19 6.032790658565215e-11 5.249128671146986e-11 7.836619874182284e-12
5.3255160863122235 4.304661970977443e-19 6.085134578612337e-11 5.2941110131387586e-11 7.91023565473579e-12
5.365609099470188 4.347481238901564e-19 6.191932016533438e-11 5.385668463680754e-11 8.062635528526825e-12
5.406003951863644 4.389535463115011e-19 6.298894782952842e-11 5.477370178849452e-11 8.215246041033904e-12
5.446702915881641 4.430804103032348e-19 6.405981351998527e-11 5.5691826534963007e-11 8.367986985022273e-12
5.487708281020852 4.471586090284455e-19 6.51361441861826e-11 5.661462003279782e-11 8.521524153384789e-12
5.529022354014368 4.514333934510664e-19 6.625390191736704e-11 5.7572326538072e-11 8.68157537929505e-12
5.570647458961463 4.55636098493135e-19 6.737413963210221e-11 5.853234120890106e-11 8.841798423201149e-12
5.612585937458331 4.597658148959672e-19 6.849661561601501e-11 5.949450380685531e-11 9.002111809159691e-12
5.654840148729818 4.63867658636251e-19 6.962799026311307e-11 6.046464838696788e-11 9.163341876145186e-12
5.67608639626678 4.660912322369919e-19 7.022461448375257e-11 6.097673141861835e-11 9.247883065134234e-12
5.686739436050992 4.671983519230213e-19 7.052353361015856e-11 6.123336007595262e-11 9.290173534205947e-12
5.6974124697621304 4.683024039807547e-19 7.082286348402078e-11 6.149038795846693e-11 9.332475525553851e-12
5.718818669136295 4.7050144834248445e-19 7.142277566972883e-11 6.200566679397631e-11 9.41710887575249e-12
5.740305295436557 4.727440272164795e-19 7.203282947636062e-11 6.253034487052419e-11 9.502484605836426e-12
5.7835210386641895 4.776381192505802e-19 7.332646226871914e-11 6.364763551367357e-11 9.678826755045565e-12
5.827062130521658 4.8264040850534505e-19 7.465222591774234e-11 6.479507614888037e-11 9.857149768861962e-12
5.8489554468988025 4.856205059674302e-19 7.539538502765548e-11 6.544137171931702e-11 9.954013308338435e-12
5.870931020387893 4.886313058386087e-19 7.614785931665252e-11 6.609680343165864e-11 1.0051055884993875e-11
5.892989160043636 4.916767094361824e-19 7.691033653036179e-11 6.676206965826362e-11 1.0148266872098169e-11
5.915130176081913 4.949214571047912e-19 7.77087678135053e-11 6.745954580976e-11 1.0249222003745306e-11
5.95966208400165 5.030419002211524e-19 7.957840482396876e-11 6.909592484113764e-11 1.0482479982831108e-11
6.004529249263818 5.133782318538846e-19 8.182496865665161e-11 7.107817662412325e-11 1.0746792032528365e-11
6.027089341400364 5.200553017947335e-19 8.320062533815341e-11 7.229951221316067e-11 1.0901113124992752e-11
6.049734195844842 5.275112456211758e-19 8.471053980239306e-11 7.364560812438285e-11 1.1064931678010239e-11
6.095279466722835 5.478555541134568e-19 8.863987288500157e-11 7.716686345922379e-11 1.1473009425777761e-11
6.141167624020661 5.76968201026177e-19 9.405291556372088e-11 8.204357970095351e-11 1.2009335862767376e-11
6.164241091010745 5.952558726647171e-19 9.739860528419244e-11 8.50494468805235e-11 1.2349158403668939e-11
6.187401249150058 6.149045612924994e-19 1.0099164082890723e-10 8.82941653101362e-11 1.2697475518771071e-11
6.1990139391386085 6.243990943342315e-19 1.0274348920308494e-10 8.986889361443834e-11 1.2874595588646618e-11
6.204828454712694 6.29300430643566e-19 1.0364712047564992e-10 9.06831305046187e-11 1.2963989971031225e-11
6.210648424152782 6.328768465774009e-19 1.0433393463246164e-10 9.129448610465651e-11 1.3039448527805152e-11
6.233982942956859 6.446502197993158e-19 1.0667414675166915e-10 9.337459818310303e-11 1.329954856856614e-11
6.239830258556775 6.459495489285061e-19 1.0698941382942908e-10 9.365602800812647e-11 1.3333385821302612e-11
6.245683058788269 6.459094633006713e-19 1.0708312148757832e-10 9.371586773134031e-11 1.3367253756238019e-11
6.257405133728602 6.451985594434445e-19 1.0716601860458986e-10 9.374080074268137e-11 1.3425217861908471e-11
6.269149208991335 6.423765937631201e-19 1.0689754900950582e-10 9.345740978237717e-11 1.3440139227128642e-11
6.280915325867298 6.359718554904051e-19 1.0603036791132272e-10 9.262844547400841e-11 1.3401922437314295e-11
6.304513850009849 6.204040735276428e-19 1.0382350276557885e-10 9.054595392303458e-11 1.3277548842544261e-11
6.32820103803542 6.019690857052696e-19 1.0111693317219304e-10 8.801474891816228e-11 1.310218425403076e-11
6.3519772230701035 5.853844661645356e-19 9.870054686197978e-11 8.575735115622859e-11 1.2943195705751203e-11
6.375842739491607 5.710888713402045e-19 9.665197367528518e-11 8.385089530137403e-11 1.2801078373911123e-11
6.399797922933955 5.604977385603809e-19 9.521591798882173e-11 8.249669230354932e-11 1.2719225685272409e-11
6.42384311029221 5.51476589952896e-19 9.403541382968225e-11 8.138595370209119e-11 1.2649460127591078e-11
6.447978639727206 5.45356154014277e-19 9.334117023435852e-11 8.071466830369944e-11 1.2626501930659108e-11
6.472204850670314 5.402003288461422e-19 9.280610197157632e-11 8.019331451671552e-11 1.2612787454860835e-11
6.496522083828205 5.372327558969804e-19 9.264304830608723e-11 8.000621681846183e-11 1.263683148762542e-11
