Dust emission spectrum from A.P. Jones, M. Kohler, N. Ysard, M. Bocchio, and L. Verstraete (2017), A&A, 602A, 46J 
inside the DustPedia framework.

lambda    nu*dP/dnu     j_nu    j_nu(carb.) j_nu(sil)
 (um)   (erg s-1 H-1) (Jy cm2 sr-1 H-1)
0.9927057738263894 9.063085995759012e-21 2.388174637183277e-13 2.388172714525456e-13 1.9226578211358485e-19
1.0001793341362166 9.215021979751726e-21 2.4464913542705825e-13 2.4464890412965225e-13 2.3129740598928083e-19
1.0077091589558085 9.367641593256885e-21 2.505733649250996e-13 2.5057308704636987e-13 2.778787298373293e-19
1.0114953028030835 9.444202701566436e-21 2.5357042770395547e-13 2.5357012328038124e-13 3.0442357426107056e-19
1.0152956718711033 9.520928809061527e-21 2.565909210545648e-13 2.5659058766270336e-13 3.3339186147700746e-19
1.0229392996569957 9.67479392684669e-21 2.627005730681292e-13 2.6270017360621054e-13 3.994619186744858e-19
1.0267826658714554 9.751759553465457e-21 2.657852929124795e-13 2.6578485586143855e-13 4.370510410046912e-19
1.0306404723013447 9.828879669127655e-21 2.688937104980477e-13 2.6889323248157427e-13 4.780164734734407e-19
1.03451277320114 9.906152848424187e-21 2.720259370903429e-13 2.7202541444443175e-13 5.226459111594823e-19
1.0383996230291617 9.983577767397432e-21 2.7518208701832576e-13 2.7518151576818844e-13 5.7125013733595e-19
1.0403485208654093 1.002234674402177e-20 2.7676916983218465e-13 2.7676857268553237e-13 5.971466522423438e-19
1.0423010764483396 1.0061153206613024e-20 2.7836227781093e-13 2.7836165364617713e-13 6.24164752896839e-19
1.0462171883269815 1.0138878054274325e-20 2.8156663033725926e-13 2.81565948585234e-13 6.817520252564437e-19
1.0471985131304309 1.0158332491474487e-20 2.8237150823373057e-13 2.8237081130963384e-13 6.969240967998893e-19
1.048180758391296 1.0177796189044192e-20 2.8317790597084387e-13 2.8317719355195245e-13 7.124188914454439e-19
1.0501480137395462 1.0216751309380742e-20 2.8479526895055253e-13 2.847945245476883e-13 7.444028642044193e-19
1.0521189612883777 1.0255743307996332e-20 2.864187353891895e-13 2.8641795763156054e-13 7.777576288911482e-19
1.0531058218030118 1.02752276163554e-20 2.872320499962376e-13 2.872312550286738e-13 7.949675637964843e-19
1.0540936079674168 1.0294637605696578e-20 2.8804455889921187e-13 2.880437463539891e-13 8.125452227354082e-19
1.058054026499678 1.0372365837457504e-20 2.9130980562208655e-13 2.913089189779748e-13 8.86644111695989e-19
1.0590464539527713 1.0391819915135359e-20 2.921299305625611e-13 2.921290244083527e-13 9.061542084055841e-19
1.06003981227728 1.0411282782855566e-20 2.9295158505538815e-13 2.929506589810996e-13 9.260742883583951e-19
1.0620293250338977 1.0450234856632372e-20 2.9459949132448096e-13 2.9459852414721555e-13 9.671772654480644e-19
1.0660195594769086 1.0528244162841621e-20 2.979137543089339e-13 2.9791269963561057e-13 1.0546733233446033e-18
1.070024785945596 1.0606393383860163e-20 3.012527371618432e-13 3.0125158746013484e-13 1.1497017082646958e-18
1.0740450607676866 1.0684682279058923e-20 3.046165869224588e-13 3.0461533404690636e-13 1.2528755524714164e-18
1.07808044048254 1.0763110742900271e-20 3.080054552564103e-13 3.0800409040159413e-13 1.3648548160975945e-18
1.0861967418109137 1.0920268205357407e-20 3.1485546345779264e-13 3.1485384533388867e-13 1.6181239039490382e-18
1.0902777775684922 1.099872843930602e-20 3.1830911318748476e-13 3.1830735218826316e-13 1.7609992215851663e-18
1.0943741465085532 1.1077324656630621e-20 3.2178822047269265e-13 3.2178630461475973e-13 1.9158579330070392e-18
1.1026131145906286 1.1234927787807011e-20 3.2882351851337704e-13 3.2882125312373376e-13 2.2653896432121353e-18
1.1109141095355224 1.1393084696075467e-20 3.359628383418588e-13 3.359601631627181e-13 2.675179140633229e-18
1.1192775983109025 1.1551683384383571e-20 3.4320414293480655e-13 3.4320098796237206e-13 3.1549724344831517e-18
1.1277040513999907 1.1710176860795443e-20 3.50532288394401e-13 3.5052857241337195e-13 3.715981029064423e-18
1.1361939428280308 1.1869243933875631e-20 3.579686205683135e-13 3.579642494834027e-13 4.3710849108550355e-18
1.1447477501889525 1.2028903304760015e-20 3.655150515718141e-13 3.655099165116344e-13 5.135060179680983e-18
1.1533659546722406 1.2189231001536462e-20 3.731752807896675e-13 3.7316925594587515e-13 6.024843792284468e-18
1.1707974979042381 1.2512438604602647e-20 3.888599161648233e-13 3.888516539844099e-13 8.262180413493734e-18
1.1884924949847024 1.2838645149089624e-20 4.0502802297095126e-13 4.0501674963273834e-13 1.1273338212969085e-17
1.2064549276569216 1.3170187379474e-20 4.217668951597067e-13 4.2175158952657766e-13 1.530563312903508e-17
1.2246888378427687 1.3505266727790242e-20 4.3903420623709484e-13 4.3901352827468246e-13 2.0677962412391435e-17
1.2431983285522175 1.3843906720862347e-20 4.568446201703216e-13 4.568168201147052e-13 2.78000556162701e-17
1.2619875648066055 1.4186937420642896e-20 4.75240190868199e-13 4.752029951923054e-13 3.719567589375231e-17
1.3004222497298317 1.4885849913673288e-20 5.138394693010019e-13 5.137738238574819e-13 6.564544351989242e-17
1.3400274889804893 1.5608015827964617e-20 5.551761966199611e-13 5.550624724558288e-13 1.137241641324183e-16
1.3808389325824078 1.6361286988147178e-20 5.996942973021515e-13 5.995008143472187e-13 1.9348295493299317e-16
1.4228933163050095 1.715848662464765e-20 6.480682616637263e-13 6.477448237327589e-13 3.234379309673378e-16
1.466228494730424 1.8021010525760986e-20 7.013749144290446e-13 7.008433991953169e-13 5.315152337277768e-16
1.5108834753276823 1.895986648644361e-20 7.603887434902073e-13 7.595297118935799e-13 8.590315966273835e-16
1.5568984535646726 1.9990423378619776e-20 8.26136313754175e-13 8.247694267040271e-13 1.3668870501480208e-15
1.6043148490894465 2.1137631443121495e-20 9.0015097768927e-13 8.980055961245831e-13 2.1453815646868178e-15
1.6531753430134553 2.2431885267537467e-20 9.843603845105199e-13 9.810429414330337e-13 3.3174430774860253e-15
1.7035239163302658 2.3910680980105616e-20 1.0812089032884928e-12 1.076153800269322e-12 5.055103019170898e-15
1.755405889504358 2.5629469756634437e-20 1.19422622889717e-12 1.1866317051755771e-12 7.594523721592744e-15
1.8088679632656115 2.763584981737508e-20 1.32693339468533e-12 1.3156804124409672e-12 1.1252982244362862e-14
1.8639582606462262 2.998623601692026e-20 1.4836367112543959e-12 1.4671853191088403e-12 1.6451392145556036e-14
1.9207263702978936 3.275074842206029e-20 1.669768104488537e-12 1.6460288381103768e-12 2.3739266378160333e-14
1.979223391128241 3.6012367452527523e-20 1.891977297419702e-12 1.8581531124382065e-12 3.3824184981496364e-14
2.039501978296691 3.986482788677282e-20 2.1581590977488664e-12 2.1105559998451342e-12 4.760309790373228e-14
2.1016163906111602 4.442288640618188e-20 2.4781617739121317e-12 2.4119602924329428e-12 6.620148147918955e-14
2.1656225393682647 4.9807059282927366e-20 2.863143377330173e-12 2.772137082818282e-12 9.10062945118917e-14
2.231578038680979 5.613853938536624e-20 3.3253902629930857e-12 3.2016876958409918e-12 1.237025671520936e-13
2.299542257339062 6.35537396891939e-20 3.879287246208243e-12 3.712976870940234e-12 1.6631037526800971e-13
2.369576372248914 7.220133254223404e-20 4.541354001085067e-12 4.320130970054787e-12 2.2122303103028164e-13
2.4417434235010123 8.223693065996486e-20 5.3301122164212205e-12 5.03888040174979e-12 2.9123181467143165e-13
2.5161083711144245 9.382878805152239e-20 6.2666419619538665e-12 5.887081364580727e-12 3.795605973731389e-13
2.5927381535095444 1.0715342857915674e-19 7.37452688645221e-12 6.88464739735043e-12 4.898794891017827e-13
2.6717017477616296 1.223798091279968e-19 8.678949854965223e-12 8.0526665268033e-12 6.262833281619201e-13
2.753070231689431 1.3967391705560097e-19 1.020709216775715e-11 9.413810644054094e-12 7.932815237030565e-13
2.836916847834745 1.5923758191436863e-19 1.1991171477290187e-11 1.0995366250607532e-11 9.95805226682655e-13
2.9233170693905177 1.813146524102057e-19 1.406948682867671e-11 1.2830591724520755e-11 1.2388951041559518e-12
2.967498994190263 1.9323453711914813e-19 1.5221055329333943e-11 1.3846611624238683e-11 1.3744437050952582e-12
3.0123486681368425 2.0587775630391632e-19 1.6462056883671428e-11 1.4939178656554303e-11 1.5228782271171278e-12
3.0578761833420214 2.2023126014228427e-19 1.7875915506460318e-11 1.619019833934183e-11 1.6857171671184884e-12
3.1040917844459814 2.3559085146089566e-19 1.941164807765354e-11 1.7549421744786808e-11 1.8622263328667333e-12
3.127460860933648 2.4474618747448886e-19 2.031782670089984e-11 1.836136723190782e-11 1.9564594689920164e-12
3.1510058709225794 2.547710034962596e-19 2.1309273479502325e-11 1.9254788370433498e-11 2.054485109068835e-12
3.162844764501044 2.6123286785507285e-19 2.193184298918527e-11 1.9826705609655132e-11 2.1051373795301368e-12
3.1747281389236908 2.6812309677382806e-19 2.2594888428313598e-11 2.043812231799665e-11 2.1567661103169545e-12
3.1986289994194426 2.844510901303248e-19 2.415132186859869e-11 2.1888054338397074e-11 2.2632675302016204e-12
3.2227097969389145 3.1331612887995466e-19 2.6802381491471592e-11 2.4426462430560436e-11 2.3759190609111582e-12
3.2348180950136065 3.3734507285779365e-19 2.896634295012234e-11 2.6530356415630318e-11 2.4359865344920312e-12
3.240889293275058 3.544272024798895e-19 3.049022828047701e-11 2.8022557188702968e-11 2.4676710917740414e-12
3.2469718861334385 3.7392706885640936e-19 3.2228112170863303e-11 2.9727656986761054e-11 2.5004551841022313e-12
3.2714166318528037 4.733891026434536e-19 4.110773485401567e-11 3.847196376571724e-11 2.6357710882984312e-12
3.2744851364798273 4.800514445523222e-19 4.172537392831178e-11 3.9073703157588155e-11 2.6516707707236166e-12
3.2775565192852394 4.868660727086185e-19 4.2357384410130926e-11 3.968973874142197e-11 2.667645668708958e-12
3.283707930232385 4.8301545129879995e-19 4.210124885571742e-11 3.9405130419848544e-11 2.6961184358688733e-12
3.2898708863219004 4.6679359660285575e-19 4.076366059512918e-11 3.804171805893046e-11 2.7219425361987292e-12
3.29141343181113 4.629811113979542e-19 4.04496849411272e-11 3.772126003548345e-11 2.7284249056437554e-12
3.292184975758714 4.611098066761291e-19 4.0295636519523276e-11 3.756396647475999e-11 2.731670044763307e-12
3.295272960557952 4.49017713669098e-19 3.927573327107589e-11 3.653145683053009e-11 2.744276440545808e-12
3.3076538914384823 4.0717261275811213e-19 3.5749341875384046e-11 3.295447525494683e-11 2.794866620437228e-12
3.310756385682612 3.9869679808036386e-19 3.5038007907206106e-11 3.22303984462375e-11 2.8076094609686044e-12
3.313861789986515 3.908963350549284e-19 3.4384714537067494e-11 3.156432409624251e-11 2.8203904408249875e-12
3.3200813396944477 3.806269779014412e-19 3.3544221995374505e-11 3.0696299753739463e-11 2.8479222416350342e-12
3.345076488085796 3.675137076626821e-19 3.263240091446546e-11 2.966167297378701e-11 2.9707279406784446e-12
3.3482140837626964 3.694433893700812e-19 3.2834510928397997e-11 2.984714198711197e-11 2.987368941286028e-12
3.3513546224236106 3.713837557620027e-19 3.303792187915695e-11 3.003384163004425e-11 3.0040802491126998e-12
3.3576445397418455 3.796920520075418e-19 3.384041314572551e-11 3.080137756348713e-11 3.0390355822383795e-12
3.3702598118196083 4.062612838689346e-19 3.63444625822671e-11 3.3232113748507745e-11 3.1123488337593543e-12
3.382922481734668 4.159113364312173e-19 3.734756031423665e-11 3.41641007363358e-11 3.1834595779008465e-12
3.389271646505754 4.2083280253312883e-19 3.7860417242209166e-11 3.464094280841597e-11 3.2194744337932033e-12
3.395632727569191 4.2611340311779955e-19 3.8407438042001705e-11 3.515084784744694e-11 3.2565901945547735e-12
3.421196662673239 4.501718141275788e-19 4.0881401179815526e-11 3.747132729549196e-11 3.4100738843235792e-12
3.4276182099114902 4.494874608380049e-19 4.089587035717967e-11 3.7451706658435095e-11 3.4441636987445776e-12
3.4340518103208963 4.39209662579075e-19 4.0035767842269916e-11 3.65594402244164e-11 3.476327617853527e-12
3.4469541582030403 4.2545201302284786e-19 3.8927411280743045e-11 3.538950914117208e-11 3.5379021395709623e-12
3.472904465399547 4.2878163438591707e-19 3.9527417877703596e-11 3.5847426715961983e-11 3.679991161741612e-12
3.4990501388274233 4.29731174047054e-19 3.991319175754095e-11 3.608815263443019e-11 3.825039123110749e-12
3.5253949054701885 4.119604410126462e-19 3.855074009457463e-11 3.4585359348696304e-11 3.965380745878326e-12
3.5519380250092896 3.95371681476908e-19 3.7276950095819604e-11 3.317097179074436e-11 4.105978305075258e-12
3.578680990867387 3.9448289054733365e-19 3.7473183632392254e-11 3.3213159987294916e-11 4.260023645097338e-12
3.605625307711299 3.9980577887964237e-19 3.826476880108958e-11 3.3842779027431104e-11 4.421989773658479e-12
3.660119384959845 4.159163975005411e-19 4.040831370924106e-11 3.564730053820727e-11 4.761013171033796e-12
3.715437065384467 4.331694538207982e-19 4.272058251774997e-11 3.760399264316268e-11 5.116589874587295e-12
3.8285932144167436 4.718317180496286e-19 4.795079263656639e-11 4.2076336114155904e-11 5.874456522410491e-12
3.94519561050918 5.124258906440176e-19 5.366226985833416e-11 4.697087060731289e-11 6.691399251021269e-12
4.06534921144712 5.541438794061042e-19 5.97984367775188e-11 5.223417779045508e-11 7.564258987063723e-12
4.189162171576248 5.965249681187223e-19 6.63323269073027e-11 5.783984392653151e-11 8.49248298077118e-12
4.316745939156006 6.391318934866458e-19 7.323461657336309e-11 6.376452642983119e-11 9.470090143531922e-12
4.448215356677963 6.814681432483107e-19 8.046384778621116e-11 6.998321797962114e-11 1.0480629806590035e-11
4.58368876423945 7.231980589709703e-19 8.799171977333864e-11 7.646859754720283e-11 1.1523122226135794e-11
4.723288106065518 7.6403754175818545e-19 9.579185174702379e-11 8.318977371814604e-11 1.2602078028877809e-11
4.867139040275056 8.034308973473568e-19 1.0379865242883769e-10 9.011443544007316e-11 1.3684216988764559e-11
4.940699165968905 8.225763685810878e-19 1.078782947103279e-10 9.364886389542107e-11 1.4229430814906837e-11
5.015371051989984 8.41198361619768e-19 1.119878534084916e-10 9.721253631228156e-11 1.4775317096209998e-11
5.091171501069577 8.595531989598775e-19 1.1616088734632159e-10 1.0082633318333467e-10 1.5334554162986908e-11
5.129500256944802 8.685003951576412e-19 1.182536377065356e-10 1.0264004290612741e-10 1.5613594800408235e-11
5.168117569889187 8.77328430655359e-19 1.2035496786465464e-10 1.0445957620802999e-10 1.5895391656624627e-11
5.20702561229733 8.86349300766752e-19 1.225078881527978e-10 1.0630212597403411e-10 1.6205762178763706e-11
5.246226572918644 8.952080980722462e-19 1.2466383363852028e-10 1.0814735463855712e-10 1.6516478999963163e-11
5.265937586045735 8.995751059710593e-19 1.257426385064387e-10 1.0907072531562196e-10 1.6671913190816707e-11
5.285722656980489 9.0389967778837e-19 1.2682183609331937e-10 1.0999446723661823e-10 1.682736885670114e-11
5.305582063971359 9.081811935848044e-19 1.279013044435724e-10 1.1091848034465151e-10 1.6982824098920876e-11
5.3255160863122235 9.124581195719877e-19 1.289864452163319e-10 1.1184673974841574e-10 1.7139705467916174e-11
5.365609099470188 9.211782423119563e-19 1.3119948627878473e-10 1.1373495640720281e-10 1.746452987158195e-11
5.406003951863644 9.29726994860114e-19 1.334139470270719e-10 1.1562437119682047e-10 1.778957583025143e-11
5.446702915881641 9.381001402290666e-19 1.356289256954931e-10 1.1751425826034947e-10 1.8114667435143646e-11
5.487708281020852 9.463600688968353e-19 1.378532016495039e-10 1.1941195507759091e-10 1.844124657191297e-11
5.529022354014368 9.550178495838473e-19 1.401616713640871e-10 1.2137996674079826e-10 1.878170462328884e-11
5.570647458961463 9.635129819806123e-19 1.424730358283564e-10 1.2335075250425402e-10 1.9122283324102376e-11
5.612585937458331 9.71843601436703e-19 1.4478674892685552e-10 1.2532394470626156e-10 1.9462804220593967e-11
5.654840148729818 9.8010351068979e-19 1.4711661058626454e-10 1.273115568874943e-10 1.9805053698770255e-11
5.67608639626678 9.845873325924456e-19 1.483449184938416e-10 1.2836034143684855e-10 1.9984577056993045e-11
5.686739436050992 9.868182250223605e-19 1.4896008937751602e-10 1.2888573292925206e-10 2.0074356448263943e-11
5.6974124697621304 9.890418609121463e-19 1.495759494291245e-10 1.2941180556616506e-10 2.016414386295948e-11
5.718818669136295 9.934676547864433e-19 1.5080977474758744e-10 1.3046604337063661e-10 2.034373137695086e-11
5.740305295436557 9.979800220857272e-19 1.5206395134167835e-10 1.3153910041925276e-10 2.0524850922425564e-11
5.7835210386641895 1.0078400357344721e-18 1.5472245906407213e-10 1.3382353159396917e-10 2.089892747010298e-11
5.827062130521658 1.0179076490197649e-18 1.5744448752922836e-10 1.3616749777032508e-10 2.127698975890328e-11
5.8489554468988025 1.0239271134045153e-18 1.589705912471639e-10 1.374880734380709e-10 2.1482517809093005e-11
5.870931020387893 1.030004739957865e-18 1.6051500404622553e-10 1.3882665089171165e-10 2.168835315451389e-11
5.892989160043636 1.0361484590092043e-18 1.6207911651783696e-10 1.4018464414479612e-10 2.1894472373040883e-11
5.915130176081913 1.0426998743456985e-18 1.637167297386845e-10 1.4160813963100282e-10 2.2108590107681692e-11
5.95966208400165 1.0591625368142398e-18 1.675535677881513e-10 1.449493859506441e-10 2.2604181837507185e-11
6.004529249263818 1.0801741574193761e-18 1.721639350686792e-10 1.489976769593259e-10 2.3166258109353333e-11
6.027089341400364 1.093783538727923e-18 1.7498807163908265e-10 1.5149321993125866e-10 2.3494851707823982e-11
6.049734195844842 1.10898737304647e-18 1.7808704512864168e-10 1.5424327947767764e-10 2.3843765650964114e-11
6.095279466722835 1.150563702043164e-18 1.8615457948626064e-10 1.614402867740806e-10 2.4714292712180048e-11
6.141167624020661 1.210138488059537e-18 1.972674626356204e-10 1.7140738445315476e-10 2.5860078182465715e-11
6.164241091010745 1.2475930578299945e-18 2.0413712720029895e-10 1.7755028310804466e-10 2.6586844092254374e-11
6.187401249150058 1.2878047590495043e-18 2.1150845817489212e-10 1.8417682842946228e-10 2.7331629745429833e-11
6.1990139391386085 1.3072257608909164e-18 2.1510110611755117e-10 1.8739077479850878e-10 2.7710331319042387e-11
6.204828454712694 1.317248998733333e-18 2.1695371402895582e-10 1.8905226389142698e-10 2.7901450137528867e-11
6.210648424152782 1.3245471710449787e-18 2.1836036301340267e-10 1.9029775134371547e-10 2.8062611669687204e-11
6.233982942956859 1.34851238416502e-18 2.2314644988354238e-10 1.9452902093849325e-10 2.8617428945049138e-11
6.239830258556775 1.3511136091118362e-18 2.237865995813848e-10 1.9509752750867927e-10 2.8689072072705593e-11
6.245683058788269 1.35097032780678e-18 2.239727515360845e-10 1.9521197705441862e-10 2.8760774481665846e-11
6.257405133728602 1.3493854058147695e-18 2.2412985799138844e-10 1.952466981068561e-10 2.8883159884532314e-11
6.269149208991335 1.3434533087583765e-18 2.2356335412796653e-10 1.9465033882054352e-10 2.891301530742302e-11
6.280915325867298 1.330156354749352e-18 2.2176605215478043e-10 1.9293739403726e-10 2.8828658117520486e-11
6.304513850009849 1.2978960845147844e-18 2.1720056890318052e-10 1.8864362679806062e-10 2.8556942105119804e-11
6.32820103803542 1.2597699464198047e-18 2.1161231782397076e-10 1.8343664293425253e-10 2.8175674889718188e-11
6.3519772230701035 1.2254642753266695e-18 2.0662317011426318e-10 1.787935296852792e-10 2.7829640428984013e-11
6.375842739491607 1.1958553972367031e-18 2.023884375507575e-10 1.7486851439705416e-10 2.7519923153703338e-11
6.399797922933955 1.1738940208035064e-18 1.9941810487849772e-10 1.720784551386696e-10 2.73396497398282e-11
6.42384311029221 1.155150497298538e-18 1.9697128949446335e-10 1.6978592229463742e-10 2.7185367199825927e-11
6.447978639727206 1.142380363718101e-18 1.955256564307665e-10 1.683940777386372e-10 2.7131578692129245e-11
6.472204850670314 1.1315874689738558e-18 1.9440606831851177e-10 1.673084335760436e-10 2.7097634742468167e-11
