Dust emission spectrum from A.P. Jones, M. Kohler, N. Ysard, M. Bocchio, and L. Verstraete (2017), A&A, 602A, 46J 
inside the DustPedia framework.

lambda    nu*dP/dnu     j_nu    j_nu(carb.) j_nu(sil)
 (um)   (erg s-1 H-1) (Jy cm2 sr-1 H-1)
0.9927057738263894 2.617636897924968e-23 6.897621904839912e-16 6.897621793598582e-16 1.1124132958895731e-23
1.0001793341362166 2.661646016067779e-23 7.066390053921499e-16 7.066389920005582e-16 1.3391591728483844e-23
1.0077091589558085 2.705764370835115e-23 7.237600588633104e-16 7.237600427633243e-16 1.6099986038398574e-23
1.0114953028030835 2.727861456686783e-23 7.32412272530401e-16 7.324122548859979e-16 1.7644403057593318e-23
1.0152956718711033 2.7499822130430103e-23 7.411256643961076e-16 7.411256450655301e-16 1.9330577343706264e-23
1.0229392996569957 2.7942685055885795e-23 7.587303081333909e-16 7.587302849543717e-16 2.3179019194826325e-23
1.0267826658714554 2.8163829279937164e-23 7.676083042926395e-16 7.676082789226578e-16 2.5369981773591994e-23
1.0306404723013447 2.8385152491218694e-23 7.765471990048397e-16 7.765471712459838e-16 2.7758856038507754e-23
1.03451277320114 2.860664348657013e-23 7.855470353136607e-16 7.85547004951038e-16 3.0362622598594777e-23
1.0383996230291617 2.882829123668502e-23 7.94607858275953e-16 7.946078250763168e-16 3.319963615534359e-23
1.0403485208654093 2.8939170496885504e-23 7.991611544304855e-16 7.991611197187377e-16 3.471174756842657e-23
1.0423010764483396 2.905008489109295e-23 8.037297151553596e-16 8.037296788656301e-16 3.6289729469054233e-23
1.0462171883269815 2.92720137831025e-23 8.1291265561866845e-16 8.129126159643439e-16 3.965432459702703e-23
1.0471985131304309 2.932751590487284e-23 8.152179411097064e-16 8.152179005686706e-16 4.054103555636963e-23
1.048180758391296 2.938302566132602e-23 8.175270484212036e-16 8.17527006974485e-16 4.144671841970522e-23
1.0501480137395462 2.949406743470279e-23 8.221567319348839e-16 8.2215668861833215e-16 4.3316551866321405e-23
1.0521189612883777 2.960513782376002e-23 8.268017131330329e-16 8.26801667866029e-16 4.526700401148517e-23
1.0531058218030118 2.9660606686034317e-23 8.291277994660704e-16 8.291277531925146e-16 4.6273555868676917e-23
1.0540936079674168 2.971583104835519e-23 8.314506808778338e-16 8.314506335760971e-16 4.7301736908045365e-23
1.058054026499678 2.9936781861312e-23 8.407800343366299e-16 8.407799826992208e-16 5.163740928130868e-23
1.0590464539527713 2.9992032139930965e-23 8.431218340982967e-16 8.431217813189612e-16 5.2779335572089415e-23
1.06003981227728 3.004728714534882e-23 8.454674202432945e-16 8.454673662978904e-16 5.39454040352435e-23
1.0620293250338977 3.015781073648485e-23 8.501699554426532e-16 8.501698990907359e-16 5.635191707779555e-23
1.0660195594769086 3.037890808614827e-23 8.596205045939726e-16 8.5962044311735315e-16 6.147661921111167e-23
1.070024785945596 3.0600064537985214e-23 8.691317458981618e-16 8.69131678852846e-16 6.704531566675326e-23
1.0740450607676866 3.082127093966978e-23 8.787037473875639e-16 8.787036742931395e-16 7.309442454034907e-23
1.07808044048254 3.1042518363397135e-23 8.88336581237033e-16 8.883365015738621e-16 7.96631708897657e-23
1.0861967418109137 3.1484749406140685e-23 9.077748989040001e-16 9.07774804372256e-16 9.453174390570274e-23
1.0902777775684922 3.1704915176597186e-23 9.175572875753123e-16 9.175571846493482e-16 1.0292596413424715e-22
1.0943741465085532 3.192507456458898e-23 9.274001847050564e-16 9.27400072676027e-16 1.1202902921662076e-22
1.1026131145906286 3.2365343786676833e-23 9.472678794945323e-16 9.472677469023723e-16 1.3259215988514918e-22
1.1109141095355224 3.280549881343555e-23 9.673787906078498e-16 9.673786338816926e-16 1.567261572371996e-22
1.1192775983109025 3.324512445018975e-23 9.877230931651973e-16 9.877229081516031e-16 1.8501359408341396e-22
1.1277040513999907 3.3682511081817804e-23 1.0082518674766931e-15 1.0082516493511178e-15 2.1812557531563845e-22
1.1361939428280308 3.411958071914117e-23 1.0290242000622592e-15 1.029023943228158e-15 2.5683410103095215e-22
1.1447477501889525 3.455629316837785e-23 1.0500413013189778e-15 1.0500409992929099e-15 3.0202606796583207e-22
1.1533659546722406 3.499278998107632e-23 1.071309931295583e-15 1.0713095765760878e-15 3.547194952417537e-22
1.1707974979042381 3.5866469568650674e-23 1.114653409325288e-15 1.1146529218766257e-15 4.874486620424382e-22
1.1884924949847024 3.673886671286493e-23 1.1590218732667534e-15 1.1590212067679659e-15 6.664987872994694e-22
1.2064549276569216 3.7616082832821647e-23 1.2046311876470178e-15 1.2046302808137563e-15 9.068332616811439e-22
1.2246888378427687 3.849145430993968e-23 1.2512944342744448e-15 1.2512932064712117e-15 1.2278032330782516e-21
1.2431983285522175 3.936392948818336e-23 1.2989974418377371e-15 1.2989957874911736e-15 1.654346563467511e-21
1.2619875648066055 4.023438042638249e-23 1.3477887486467294e-15 1.3477865302099257e-15 2.2184368036699966e-21
1.3004222497298317 4.1961701131121956e-23 1.448461348544011e-15 1.4484574153388885e-15 3.933205122093715e-21
1.3400274889804893 4.3675895989741506e-23 1.5535490280647518e-15 1.5535421821461716e-15 6.845918580510417e-21
1.3808389325824078 4.5380660924114957e-23 1.6633485852127467e-15 1.6633368819973663e-15 1.1703215380179277e-20
1.4228933163050095 4.7089324549991943e-23 1.7785424420936647e-15 1.778522782194945e-15 1.9659898719838603e-20
1.466228494730424 4.8833986632244726e-23 1.9006111309051253e-15 1.900578661327763e-15 3.246957736215995e-20
1.5108834753276823 5.0606717727948915e-23 2.0295912174715258e-15 2.029538472354417e-15 5.274511710916114e-20
1.5568984535646726 5.2402407656960065e-23 2.1656135577331414e-15 2.165529194341168e-15 8.436339197357851e-20
1.6043148490894465 5.423145160468101e-23 2.3094590477093195e-15 2.309325941511847e-15 1.3310619747220947e-19
1.6531753430134553 5.61050980104081e-23 2.4620149038676196e-15 2.4618079824968757e-15 2.069213707440168e-19
1.7035239163302658 5.803779052530952e-23 2.6243909947762608e-15 2.6240739815134834e-15 3.170132627765692e-19
1.755405889504358 6.007515563737596e-23 2.7992513012744873e-15 2.7987724163328423e-15 4.788849416444244e-19
1.8088679632656115 6.221535435112738e-23 2.9872658845753385e-15 2.9865523423589536e-15 7.135422163854256e-19
1.8639582606462262 6.445649944720225e-23 3.189130800039625e-15 3.188081705456014e-15 1.0490945836105599e-18
1.9207263702978936 6.680689442246733e-23 3.4060907564307672e-15 3.4045681811550884e-15 1.5225752756781476e-18
1.979223391128241 6.927955980364778e-23 3.639731669863672e-15 3.637549549872486e-15 2.182119991185058e-18
2.039501978296691 7.188655753737794e-23 3.891716994132967e-15 3.888627638491746e-15 3.089355641220532e-18
2.1016163906111602 7.466398680168137e-23 4.165182700826438e-15 4.16086030345855e-15 4.322397367887231e-18
2.1656225393682647 7.762950115649185e-23 4.462507831652718e-15 4.456529264389312e-15 5.978567263406607e-18
2.231578038680979 8.077489157483696e-23 4.784735065752417e-15 4.776557594588815e-15 8.177471163602233e-18
2.299542257339062 8.410388939053257e-23 5.133657705506771e-15 5.122593459234559e-15 1.106424627221209e-17
2.369576372248914 8.763073162710067e-23 5.511839735921189e-15 5.497026686186465e-15 1.4813049734724748e-17
2.4417434235010123 9.137248854309424e-23 5.922225130727693e-15 5.90259532001073e-15 1.962981071696347e-17
2.5161083711144245 9.536621135472735e-23 6.369323469252665e-15 6.343567658276402e-15 2.575581097626219e-17
2.5927381535095444 9.967684832018918e-23 6.859972729207081e-15 6.8265026820097244e-15 3.3470047197357676e-17
2.6717017477616296 1.043680868144974e-22 7.401591801587953e-15 7.358502528423234e-15 4.308927316471932e-17
2.753070231689431 1.0953776410944481e-22 8.004802025206109e-15 7.949833033897716e-15 5.4968991308390775e-17
2.836916847834745 1.154418368920545e-22 8.693191928588816e-15 8.623686266124324e-15 6.950566246449068e-17
2.9233170693905177 1.2265291068919842e-22 9.517507209160358e-15 9.430388460498795e-15 8.711874866156514e-17
2.967498994190263 1.2731445944070216e-22 1.0028540758095887e-14 9.931500637447964e-15 9.704012064792139e-17
3.0123486681368425 1.3239621919593903e-22 1.0586447660567981e-14 1.0478499227216863e-14 1.0794843335111768e-16
3.0578761833420214 1.4123261495256173e-22 1.1463687262277548e-14 1.134372793804361e-14 1.1995932423393772e-16
3.1040917844459814 1.5184380699160047e-22 1.2511260627543263e-14 1.2378214999334976e-14 1.3304562820828878e-16
3.127460860933648 1.6196001244251065e-22 1.344525730610417e-14 1.3305198694738901e-14 1.4005861136526752e-16
3.1510058709225794 1.749780203586697e-22 1.4635317353843062e-14 1.448794412783981e-14 1.47373226003249e-16
3.162844764501044 1.8679365545545918e-22 1.568228820692613e-14 1.5531127895442687e-14 1.511603114834392e-16
3.1747281389236908 2.0028179515017896e-22 1.687786270594194e-14 1.6722837077670327e-14 1.5502562827160728e-16
3.1986289994194426 2.3712967385667477e-22 2.013349667700163e-14 1.9970481596722956e-14 1.6301508027867375e-16
3.2227097969389145 3.227421222965557e-22 2.7608720674810092e-14 2.7437234923568302e-14 1.7148575124178912e-16
3.2348180950136065 4.032948149850301e-22 3.462915827375077e-14 3.4453150881894864e-14 1.7600739185591265e-16
3.240889293275058 4.6346628201208295e-22 3.9870508358212607e-14 3.969211589760436e-14 1.7839246060823767e-16
3.2469718861334385 5.331575962409456e-22 4.5951909469809766e-14 4.577104913559865e-14 1.8086033421111176e-16
3.2714166318528037 9.010587377868081e-22 7.824532392908132e-14 7.805426115541705e-14 1.910627736642508e-16
3.2744851364798273 9.240981222216565e-22 8.03212658428878e-14 8.012899958728173e-14 1.9226625560605094e-16
3.2775565192852394 9.477704466414243e-22 8.245609910259338e-14 8.226262324357345e-14 1.9347585901994016e-16
3.283707930232385 9.252312957987507e-22 8.064626696470624e-14 8.045062560287063e-14 1.956413618356309e-16
3.2898708863219004 8.533260644562382e-22 7.451836169480696e-14 7.432074744610196e-14 1.9761424870501496e-16
3.29141343181113 8.363451884244138e-22 7.306971826916887e-14 7.287160856217338e-14 1.9810970699548382e-16
3.292184975758714 8.279978221417129e-22 7.235738385285264e-14 7.215902608076256e-14 1.9835777209005664e-16
3.295272960557952 7.756795377096348e-22 6.784895495095416e-14 6.764963184550743e-14 1.9932310544672292e-16
3.3076538914384823 5.935365117830204e-22 5.2111902938470335e-14 5.190870149476138e-14 2.032014437089401e-16
3.310756385682612 5.562165827962289e-22 4.888105728455125e-14 4.867687804874768e-14 2.0417923580356514e-16
3.313861789986515 5.2168589723540925e-22 4.5889457244291735e-14 4.568429692615304e-14 2.051603181386996e-16
3.3200813396944477 4.734129067388061e-22 4.172134021260584e-14 4.151407068823587e-14 2.0726952436996796e-16
3.345076488085796 3.8864395493962856e-22 3.4508604947638526e-14 3.4291938592392607e-14 2.166663552459108e-16
3.3482140837626964 3.920534959262469e-22 3.4843998206209307e-14 3.4626059012997893e-14 2.1793919321140755e-16
3.3513546224236106 3.954963238094353e-22 3.5182951453276094e-14 3.496373356766204e-14 2.1921788561405096e-16
3.3576445397418455 4.1977041806579675e-22 3.741243541599949e-14 3.719054447569952e-14 2.2189094029997515e-16
3.3702598118196083 5.081344637340166e-22 4.545811953348552e-14 4.5230621527243884e-14 2.2749800624163217e-16
3.382922481734668 5.290658595297926e-22 4.7508488872988767e-14 4.727553609162846e-14 2.3295278136032926e-16
3.389271646505754 5.398752230936768e-22 4.8570123531300267e-14 4.833440498067881e-14 2.357185506214569e-16
3.395632727569191 5.516767829861553e-22 4.972500678626623e-14 4.9486437915409104e-14 2.3856887085713377e-16
3.421196662673239 6.086802892508089e-22 5.52760131003147e-14 5.502563992399867e-14 2.503731763160358e-16
3.4276182099114902 5.982038561145476e-22 5.442658467316476e-14 5.417357191555353e-14 2.5301275761122647e-16
3.4340518103208963 5.507794810762585e-22 5.020581584469345e-14 4.995030395186515e-14 2.555118928282967e-16
3.4469541582030403 4.829528944364079e-22 4.4188546241387085e-14 4.3928232388238593e-14 2.6031385314849507e-16
3.472904465399547 4.644617019743588e-22 4.281660012892775e-14 4.254523227496288e-14 2.713678539648656e-16
3.4990501388274233 4.361309544394093e-22 4.0507599790825155e-14 4.0224908477522444e-14 2.826913133027192e-16
3.5253949054701885 3.3429296031709253e-22 3.128271490571245e-14 3.0989004116709306e-14 2.9371078900313797e-16
3.5519380250092896 2.3770629860209445e-22 2.2411736210727577e-14 2.2106934672019258e-14 3.0480153870831724e-16
3.578680990867387 2.0005175552954973e-22 1.900355211994106e-14 1.8686592516946618e-14 3.1695960299444204e-16
3.605625307711299 1.8556274251472705e-22 1.7759911976058972e-14 1.7430138523302833e-14 3.2977345275613885e-16
3.660119384959845 1.7649362005930685e-22 1.7147219032225798e-14 1.6790484257806252e-14 3.567347744195501e-16
3.715437065384467 1.7054371300489123e-22 1.6819576496091123e-14 1.6434360626364406e-14 3.8521586972671125e-16
3.8285932144167436 1.7078428030862278e-22 1.7356276183625775e-14 1.6909643552150255e-14 4.4663263147551585e-16
3.94519561050918 1.742111949351187e-22 1.8243746706868972e-14 1.7729835074935092e-14 5.139116319338819e-16
4.06534921144712 1.7885725191857888e-22 1.930073482453062e-14 1.871368718607701e-14 5.870476384536127e-16
4.189162171576248 1.8413962482448902e-22 2.047594056115875e-14 1.9809693926613814e-14 6.662466345449316e-16
4.316745939156006 1.898188506569036e-22 2.1750300505924088e-14 2.0999006032446494e-14 7.512944734775937e-16
4.448215356677963 1.9579264565890683e-22 2.311807205376201e-14 2.2276966924253892e-14 8.411051295081125e-16
4.58368876423945 2.020466122094495e-22 2.4583070518722103e-14 2.3647214230947116e-14 9.358562877749824e-16
4.723288106065518 2.0862803005691128e-22 2.615691537813255e-14 2.5120712850466233e-14 1.0362025276663265e-15
4.867139040275056 2.156212598999289e-22 2.7857027015659406e-14 2.671738591571354e-14 1.1396410999458714e-15
4.940699165968905 2.194423972541466e-22 2.8779177845527953e-14 2.7586332391070653e-14 1.1928454544573007e-15
5.015371051989984 2.2325087596117966e-22 2.972115438065827e-14 2.84742640266931e-14 1.246890353965174e-15
5.091171501069577 2.2757365835564176e-22 3.0754534010493433e-14 2.945162046011012e-14 1.3029135503833115e-15
5.129500256944802 2.297295778953686e-22 3.127961533049541e-14 2.994842041118281e-14 1.3311949193125844e-15
5.168117569889187 2.319283139021072e-22 3.1816733381979045e-14 3.045681799893237e-14 1.3599153830466781e-15
5.20702561229733 2.3452768363391164e-22 3.2415540025251126e-14 3.102434981898991e-14 1.3911902062612223e-15
5.246226572918644 2.37140681157488e-22 3.302345732618322e-14 3.160072691183655e-14 1.4227304143466633e-15
5.265937586045735 2.3845252730385807e-22 3.333090227007721e-14 3.189230559394339e-14 1.438596676133817e-15
5.285722656980489 2.397680725441722e-22 3.364071029542672e-14 3.2186185078826186e-14 1.4545252166005308e-15
5.305582063971359 2.410874225197048e-22 3.3952911646952726e-14 3.248239700151037e-14 1.4705146454423607e-15
5.3255160863122235 2.4248656301302345e-22 3.4278263412733386e-14 3.2791578797545536e-14 1.4866846151878429e-15
5.365609099470188 2.458894268764978e-22 3.50209818315013e-14 3.350084280268759e-14 1.5201390288137114e-15
5.406003951863644 2.4934985199334786e-22 3.578120042653384e-14 3.4227329948896926e-14 1.5538704776369059e-15
5.446702915881641 2.528713713832541e-22 3.655971358397005e-14 3.497184559228606e-14 1.5878679916839903e-15
5.487708281020852 2.566042699096558e-22 3.7378711683402255e-14 3.57564519745784e-14 1.622259708823855e-15
5.529022354014368 2.617200997701206e-22 3.841093297820618e-14 3.6752811778906175e-14 1.658121199299994e-15
5.570647458961463 2.6702547623258465e-22 3.948460576438242e-14 3.7790329147730215e-14 1.6942766166522033e-15
5.612585937458331 2.7253528285138114e-22 4.060272405310732e-14 3.887200916969543e-14 1.7307148834118928e-15
5.654840148729818 2.7848978551380035e-22 4.180219015729407e-14 4.0034592479818986e-14 1.7675976774750842e-15
5.67608639626678 2.8255415205985064e-22 4.257161479728818e-14 4.0784723824153027e-14 1.7868909731351525e-15
5.686739436050992 2.846328438614063e-22 4.296529268134556e-14 4.116872436217812e-14 1.796568319167445e-15
5.6974124697621304 2.867435548602621e-22 4.3365140704308105e-14 4.155887480204193e-14 1.806265902266179e-15
5.718818669136295 2.910641924796862e-22 4.4183950120032535e-14 4.2358229031779564e-14 1.8257210882529782e-15
5.740305295436557 2.958041129838905e-22 4.507218706587167e-14 4.322679047405989e-14 1.845396591811796e-15
5.7835210386641895 3.0809531422113196e-22 4.7298443157868946e-14 4.5412358141457954e-14 1.8860850164109846e-15
5.827062130521658 3.220159112609903e-22 4.980769146746008e-14 4.788021702409704e-14 1.9274744433630447e-15
5.8489554468988025 3.3186279714529753e-22 5.1523613726481607e-14 4.957380207785147e-14 1.9498116486301136e-15
5.870931020387893 3.42311657177116e-22 5.3345538040050825e-14 5.137326810663519e-14 1.972269933415665e-15
5.892989160043636 3.534099721192575e-22 5.5282016347788467e-14 5.32871682395719e-14 1.994848108216582e-15
5.915130176081913 3.6598117845551715e-22 5.746355510040285e-14 5.544530585528556e-14 2.0182492451172852e-15
5.95966208400165 4.0125992725636735e-22 6.347706804702619e-14 6.140555677770663e-14 2.071511269319587e-15
6.004529249263818 4.518223548673851e-22 7.20138637197236e-14 6.988244560807047e-14 2.1314181116531402e-15
6.027089341400364 4.869549267969768e-22 7.790508871111269e-14 7.573908655968863e-14 2.166002151424031e-15
6.049734195844842 5.281801790449956e-22 8.481796066193686e-14 8.261532951370795e-14 2.2026311482289156e-15
6.095279466722835 6.471347325935636e-22 1.0470267209280443e-13 1.0241010798141472e-13 2.2925641113897283e-15
6.141167624020661 8.29028713055631e-22 1.3514188028082305e-13 1.327327188475597e-13 2.4091614332633354e-15
6.164241091010745 9.451056282516978e-22 1.546426910932887e-13 1.5216040951474542e-13 2.4822815785432972e-15
6.187401249150058 1.0761448597595974e-21 1.767455341822031e-13 1.741881408350089e-13 2.5573933471942112e-15
6.1990139391386085 1.1399578387312406e-21 1.8757753968323497e-13 1.8498192138043082e-13 2.5956183028041016e-15
6.204828454712694 1.1734704059118024e-21 1.9327307373962295e-13 1.906581453925462e-13 2.6149283470767587e-15
6.210648424152782 1.1978274586553358e-21 1.9746978017630658e-13 1.9483838562323098e-13 2.631394553075679e-15
6.233982942956859 1.2799184553915746e-21 2.1179580018310498e-13 2.0910693616483144e-13 2.688864018273483e-15
6.239830258556775 1.2900432473831873e-21 2.1367144087504673e-13 2.1097455659292946e-13 2.696884282117202e-15
6.245683058788269 1.2903503413453145e-21 2.139227712468087e-13 2.1121785280332409e-13 2.7049184434846014e-15
6.257405133728602 1.286782233021453e-21 2.1373161285881697e-13 2.1101260502931607e-13 2.719007829500927e-15
6.269149208991335 1.2690034168453982e-21 2.1117418701510817e-13 2.0844987207528003e-13 2.7243149398281208e-15
6.280915325867298 1.2263670273435533e-21 2.0446210941722077e-13 2.0174335062565916e-13 2.7187587915616683e-15
6.304513850009849 1.122030460957942e-21 1.877697739860828e-13 1.8507196124869246e-13 2.6978127373903943e-15
6.32820103803542 9.940023659320477e-22 1.6696948929062383e-13 1.6430308579189097e-13 2.6664034987328285e-15
6.3519772230701035 8.769550745253007e-22 1.4786170530993707e-13 1.4522338599625065e-13 2.6383193136864196e-15
6.375842739491607 7.782559481120917e-22 1.3171325372361276e-13 1.2909961292712449e-13 2.6136407964882506e-15
6.399797922933955 6.996807889509038e-22 1.18859977544631e-13 1.1625858909418231e-13 2.601388450448658e-15
6.42384311029221 6.341266064633575e-22 1.0812853880939388e-13 1.0553692940039365e-13 2.5916094090002356e-15
6.447978639727206 5.864885293755367e-22 1.0038123757838331e-13 9.778970559469597e-14 2.5915319836873676e-15
6.472204850670314 5.466660800164963e-22 9.391691425804873e-14 9.13235305950445e-14 2.593383663004248e-15
6.496522083828205 5.20752776790584e-22 8.980115997430064e-14 8.719805332659322e-14 2.6031066477073927e-15
