Dust emission spectrum from A.P. Jones, M. Kohler, N. Ysard, M. Bocchio, and L. Verstraete (2017), A&A, 602A, 46J 
inside the DustPedia framework.

lambda    nu*dP/dnu     j_nu    j_nu(carb.) j_nu(sil)
 (um)   (erg s-1 H-1) (Jy cm2 sr-1 H-1)
0.9927057738263894 1.1676715662716703e-22 3.076880899546773e-15 3.076880899546773e-15 5.061799668274205e-31
1.0001793341362166 1.1869706658248335e-22 3.151282197800563e-15 3.151282197800562e-15 6.1005007861171365e-31
1.0077091589558085 1.206242473918734e-22 3.226556359958993e-15 3.2265563599589914e-15 7.343145145725502e-31
1.0114953028030835 1.21586577057071e-22 3.2645170081226406e-15 3.26451700812264e-15 8.052590462290782e-31
1.0152956718711033 1.2254794041249298e-22 3.302691316613361e-15 3.302691316613361e-15 8.827793840654008e-31
1.0229392996569957 1.2446644978370128e-22 3.379649006807417e-15 3.3796490068074154e-15 1.0599344759772607e-30
1.0267826658714554 1.2542126997340784e-22 3.4183706842414056e-15 3.4183706842414036e-15 1.1609170168032443e-30
1.0306404723013447 1.2637470174421944e-22 3.4572976380840375e-15 3.4572976380840363e-15 1.2711175416803676e-30
1.03451277320114 1.2732665309674334e-22 3.496428195202776e-15 3.496428195202775e-15 1.3913374590524534e-30
1.0383996230291617 1.2827703254064057e-22 3.535760661506142e-15 3.53576066150614e-15 1.5224440932907524e-30
1.0403485208654093 1.2875160434964362e-22 3.555502075566122e-15 3.55550207556612e-15 1.5923702368220593e-30
1.0423010764483396 1.2922574911217289e-22 3.575293322344472e-15 3.57529332234447e-15 1.6653757730617637e-30
1.0462171883269815 1.3017271239136452e-22 3.615024442911208e-15 3.615024442911205e-15 1.821147284634711e-30
1.0471985131304309 1.3040916871627878e-22 3.624988027201075e-15 3.624988027201073e-15 1.8622230551139537e-30
1.048180758391296 1.306455084429109e-22 3.634963878052862e-15 3.6349638780528604e-15 1.904187433787973e-30
1.0501480137395462 1.3111783251877437e-22 3.654952268644503e-15 3.654952268644501e-15 1.990855714114614e-30
1.0521189612883777 1.3158967347679683e-22 3.6749893923450755e-15 3.674989392345075e-15 2.081303147113545e-30
1.0531058218030118 1.3182504721986962e-22 3.685016037361943e-15 3.68501603736194e-15 2.1279958132196393e-30
1.0540936079674168 1.3205910968276845e-22 3.695021568913382e-15 3.695021568913381e-15 2.175702619992491e-30
1.058054026499678 1.3299403345205096e-22 3.735161933250021e-15 3.735161933250019e-15 2.37699517077753e-30
1.0590464539527713 1.3322742603644785e-22 3.745226441075147e-15 3.745226441075145e-15 2.430042766314931e-30
1.06003981227728 1.3346068055143594e-22 3.755302658236936e-15 3.755302658236934e-15 2.4842248698947964e-30
1.0620293250338977 1.339267699408063e-22 3.775490105301496e-15 3.775490105301493e-15 2.5960855314796924e-30
1.0660195594769086 1.3485723227301417e-22 3.816004239715688e-15 3.816004239715685e-15 2.8344686224406803e-30
1.070024785945596 1.3578533422797776e-22 3.856702473892827e-15 3.856702473892825e-15 3.0937578273085034e-30
1.0740450607676866 1.3671099025450737e-22 3.8975829283887224e-15 3.8975829283887185e-15 3.375693775147643e-30
1.07808044048254 1.3763411548471467e-22 3.9386437073172534e-15 3.938643707317249e-15 3.682153724976487e-30
1.0861967418109137 1.3947080699873803e-22 4.021251561832203e-15 4.021251561832197e-15 4.376899276330457e-30
1.0902777775684922 1.4038049908821069e-22 4.062687102437842e-15 4.0626871024378384e-15 4.769717848842042e-30
1.0943741465085532 1.4128726313804205e-22 4.104292181545263e-15 4.104292181545258e-15 5.196147067162797e-30
1.1026131145906286 1.430916847386434e-22 4.188002996942437e-15 4.1880029969424316e-15 6.160945529893085e-30
1.1109141095355224 1.448834348175912e-22 4.272367957275231e-15 4.272367957275224e-15 7.295679028822484e-30
1.1192775983109025 1.4666022634664988e-22 4.3573214059842145e-15 4.357321405984206e-15 8.62855467895177e-30
1.1277040513999907 1.4841381020691395e-22 4.442617147426071e-15 4.442617147426061e-15 1.019215879422527e-29
1.1361939428280308 1.501526516511284e-22 4.528505596959125e-15 4.528505596959112e-15 1.2024079954862593e-29
1.1447477501889525 1.5187617062844661e-22 4.614969871594111e-15 4.614969871594096e-15 1.4167626625774448e-29
1.1533659546722406 1.535847392299523e-22 4.702021659932512e-15 4.702021659932494e-15 1.667265468652707e-29
1.1707974979042381 1.5696253759633161e-22 4.878061035062777e-15 4.878061035062754e-15 2.3004978120607823e-29
1.1884924949847024 1.6027325661790275e-22 5.056231363141005e-15 5.056231363140974e-15 3.158748546645447e-29
1.2064549276569216 1.635427639551136e-22 5.23735325791089e-15 5.237353257910847e-15 4.3163163035508263e-29
1.2246888378427687 1.6673537007303689e-22 5.420295083919572e-15 5.420295083919513e-15 5.869886738177382e-29
1.2431983285522175 1.6984360424633146e-22 5.604786165840363e-15 5.604786165840283e-15 7.944860295312354e-29
1.2619875648066055 1.7286629910287684e-22 5.7907503603133186e-15 5.790750360313212e-15 1.0703050293670842e-28
1.3004222497298317 1.786048345758975e-22 6.165198087129299e-15 6.165198087129109e-15 1.9157156712605226e-28
1.3400274889804893 1.839284804052484e-22 6.542325131329071e-15 6.542325131328736e-15 3.367432122001469e-28
1.3808389325824078 1.8881745253749085e-22 6.920772772941617e-15 6.920772772941035e-15 5.81583928346407e-28
1.4228933163050095 1.9329545651679193e-22 7.300681769474301e-15 7.300681769473312e-15 9.873892877819507e-28
1.466228494730424 1.9747008045939055e-22 7.685504682798747e-15 7.685504682797099e-15 1.6487320253496792e-27
1.5108834753276823 2.0126020794933327e-22 8.071575648836598e-15 8.071575648833888e-15 2.7089386362003133e-27
1.5568984535646726 2.04600184138506e-22 8.455430818858482e-15 8.455430818854099e-15 4.384266680260812e-27
1.6043148490894465 2.0749603576448456e-22 8.836267202531286e-15 8.836267202524282e-15 7.002380143789421e-27
1.6531753430134553 2.0995648876883e-22 9.213351778062668e-15 9.213351778051646e-15 1.1025331900918371e-26
1.7035239163302658 2.1201065906740257e-22 9.586837462574197e-15 9.586837462557078e-15 1.7119077490705449e-26
1.755405889504358 2.138270806147513e-22 9.963448738635872e-15 9.963448738609642e-15 2.622893536711574e-26
1.8088679632656115 2.1536407888013933e-22 1.034069117360857e-14 1.0340691173568897e-14 3.967469764609069e-26
1.8639582606462262 2.1659340612667987e-22 1.0716447658313966e-14 1.0716447658254683e-14 5.928390860841608e-26
1.9207263702978936 2.1753546303435144e-22 1.1090854263508614e-14 1.1090854263421046e-14 8.756340193141544e-26
1.979223391128241 2.182378006462655e-22 1.1465532356511643e-14 1.1465532356383714e-14 1.2793031863286758e-25
2.039501978296691 2.18757341156477e-22 1.1842849224312114e-14 1.1842849224127096e-14 1.8501678119681717e-25
2.1016163906111602 2.192536073969218e-22 1.2231215767370263e-14 1.2231215767105164e-14 2.6510437665452436e-25
2.1656225393682647 2.198190898257089e-22 1.263623229932305e-14 1.2636232298946368e-14 3.766874367011124e-25
2.231578038680979 2.204603848338991e-22 1.3059064684063714e-14 1.3059064683532441e-14 5.312715393781103e-25
2.299542257339062 2.2123286465457333e-22 1.3503939099315122e-14 1.3503939098570611e-14 7.445103532010177e-25
2.369576372248914 2.2225900222869437e-22 1.3979753191646904e-14 1.3979753190609063e-14 1.0378423222671641e-24
2.4417434235010123 2.236834203441426e-22 1.4497838402030982e-14 1.44978384005902e-14 1.4407808170773117e-24
2.5161083711144245 2.257538171435308e-22 1.5077657646031545e-14 1.5077657644037254e-14 1.9942914569917007e-24
2.5927381535095444 2.288755455650717e-22 1.5751701898872843e-14 1.5751701896117273e-14 2.755567859934933e-24
2.6717017477616296 2.335325415551025e-22 1.6561696182574304e-14 1.6561696178769738e-14 3.804572520497188e-24
2.753070231689431 2.404534288174613e-22 1.757185852399377e-14 1.757185851874045e-14 5.253326380207439e-24
2.836916847834745 2.5128900807767427e-22 1.8922980052773926e-14 1.8922980045514324e-14 7.25959971833909e-24
2.9233170693905177 2.696750803201124e-22 2.092599765187311e-14 2.0925997641828794e-14 1.00443177419665e-23
2.967498994190263 2.8528916544334636e-22 2.247218451117339e-14 2.2472184499361224e-14 1.1812166780170915e-23
3.0123486681368425 3.0352445547025825e-22 2.4269920856145148e-14 2.4269920842242948e-14 1.390219681066908e-23
3.0578761833420214 3.443273554889269e-22 2.7948651382670777e-14 2.794865136628487e-14 1.6385906800428892e-23
3.1040917844459814 3.9690562760882796e-22 3.270327483179719e-14 3.2703274812473645e-14 1.9323543810377407e-23
3.127460860933648 4.525275071362674e-22 3.756698137879378e-14 3.756698135778462e-14 2.100915801328602e-23
3.1510058709225794 5.266355760634918e-22 4.404826828943647e-14 4.404826826658286e-14 2.2853615489569008e-23
3.162844764501044 5.956199631743298e-22 5.000535966557947e-14 5.0005359641712695e-14 2.3866755629637202e-23
3.1747281389236908 6.758424925514122e-22 5.695363770616837e-14 5.695363768124216e-14 2.4926224045877433e-23
3.1986289994194426 8.996047771282277e-22 7.638095012045299e-14 7.638095009322653e-14 2.7226481692001865e-23
3.2227097969389145 1.427070067721339e-21 1.2207758504760022e-13 1.220775850175871e-13 3.001311406472547e-23
3.2348180950136065 1.927272522808386e-21 1.6548644502523505e-13 1.6548644499350666e-13 3.172836846272406e-23
3.240889293275058 2.3012395205637826e-21 1.979682084758334e-13 1.979682084430858e-13 3.2747591879352676e-23
3.2469718861334385 2.7338622466602542e-21 2.356267477893899e-13 2.3562674775550717e-13 3.388269196653698e-23
3.2714166318528037 5.041546036807656e-21 4.377932161473862e-13 4.3779321610837714e-13 3.9009011269574366e-23
3.2744851364798273 5.185808133952715e-21 4.5074290675543196e-13 4.5074290671586926e-13 3.956263691451019e-23
3.2775565192852394 5.3342138530875946e-21 4.640770005682864e-13 4.640770005281614e-13 4.012492958155075e-23
3.283707930232385 5.1914994092739476e-21 4.525085232292971e-13 4.5250852318845463e-13 4.0842395480945995e-23
3.2898708863219004 4.73889898304961e-21 4.1383358971821705e-13 4.1383358967698045e-13 4.1236646287538086e-23
3.29141343181113 4.632164400014134e-21 4.047024510574994e-13 4.047024510161637e-13 4.133567162279246e-23
3.292184975758714 4.5797187907563164e-21 4.002141812688988e-13 4.0021418122751356e-13 4.138525391579184e-23
3.295272960557952 4.24867670326678e-21 3.7163320704874066e-13 3.7163320700722653e-13 4.1514242862629875e-23
3.3076538914384823 3.1018415171673847e-21 2.723385349749742e-13 2.723385349329776e-13 4.1996651177884923e-23
3.310756385682612 2.868430407126372e-21 2.5208150095528484e-13 2.520815009131665e-13 4.211833196340415e-23
3.313861789986515 2.6530720035939235e-21 2.333742102673945e-13 2.33374210225154e-13 4.224045042365694e-23
3.3200813396944477 2.3510560126641373e-21 2.0719588833975608e-13 2.071958882970718e-13 4.268424059037767e-23
3.345076488085796 1.8122886453643676e-21 1.6091734380297964e-13 1.609173437572864e-13 4.5693234227499926e-23
3.3482140837626964 1.8324920237650934e-21 1.6286386794769326e-13 1.6286386790147863e-13 4.621465050587429e-23
3.3513546224236106 1.852918773740684e-21 1.6483377300567231e-13 1.6483377295893022e-13 4.674217144162031e-23
3.3576445397418455 2.0022015592139625e-21 1.784481071083112e-13 1.784481070603119e-13 4.7999353065972615e-23
3.3702598118196083 2.5528191294436796e-21 2.2837726116991707e-13 2.2837726111895883e-13 5.095831960435889e-23
3.382922481734668 2.6782304508583243e-21 2.404968668494048e-13 2.404968667959346e-13 5.347019186018059e-23
3.389271646505754 2.743202275103526e-21 2.467934583284319e-13 2.4679345827365807e-13 5.477386306120666e-23
3.395632727569191 2.8132129992294756e-21 2.5356701567303155e-13 2.5356701561686253e-13 5.61689403178603e-23
3.421196662673239 3.149379879618652e-21 2.8600427278159433e-13 2.860042727193589e-13 6.22355447014623e-23
3.4276182099114902 3.0816378871863288e-21 2.8037770683788883e-13 2.803777067745168e-13 6.337201106844304e-23
3.4340518103208963 2.7847877641022087e-21 2.5384486251715187e-13 2.5384486245287114e-13 6.428076307523263e-23
3.4469541582030403 2.3620173254895674e-21 2.1611654679522063e-13 2.1611654672944998e-13 6.577064600651819e-23
3.472904465399547 2.243532100127123e-21 2.0682096370748704e-13 2.068209636364888e-13 7.099826259933224e-23
3.4990501388274233 2.062313431443309e-21 1.9154652123128495e-13 1.9154652115481714e-13 7.64678079288851e-23
3.5253949054701885 1.4173934383615274e-21 1.3263789581280056e-13 1.3263789573189233e-13 8.090818977113565e-23
3.5519380250092896 8.112357488507504e-22 7.648599012678781e-14 7.648599004160041e-14 8.518736476230255e-23
3.578680990867387 5.708819663019856e-22 5.4229892520746925e-14 5.422989242949006e-14 9.125686439014583e-23
3.605625307711299 4.736554482720036e-22 4.533280201775375e-14 4.5332801919277405e-14 9.847633530560532e-23
3.660119384959845 4.027082723937852e-22 3.9125079708292574e-14 3.912507959297753e-14 1.1531504050145134e-22
3.715437065384467 3.5245249024227735e-22 3.476001264671524e-14 3.476001251176946e-14 1.3494578409987185e-22
3.8285932144167436 3.268854576679489e-22 3.3220354200300375e-14 3.3220354015204576e-14 1.8509580519516597e-22
3.94519561050918 3.219030517830432e-22 3.371033499359864e-14 3.371033474047424e-14 2.53124407447158e-22
4.06534921144712 3.2537155994132017e-22 3.511129758792276e-14 3.5111297243115175e-14 3.448075634451378e-22
4.189162171576248 3.3373227791599283e-22 3.7110330231536276e-14 3.711032976389548e-14 4.676407851068503e-22
4.316745939156006 3.456582059078679e-22 3.960707708858567e-14 3.9607076457372683e-14 6.312129886451617e-22
4.448215356677963 3.6070261825181205e-22 4.25896952904608e-14 4.258969444284074e-14 8.47620067579077e-22
4.58368876423945 3.789171255269837e-22 4.610295770722981e-14 4.6102956574851504e-14 1.1323782949608393e-21
4.723288106065518 4.007217827403963e-22 5.0240831773447186e-14 5.024083026826944e-14 1.5051777745320881e-21
4.867139040275056 4.269596067242095e-22 5.516072628752665e-14 5.516072429703081e-14 1.9904958278605656e-21
4.940699165968905 4.428019133534763e-22 5.807207346527906e-14 5.80720711800436e-14 2.2852354564593134e-21
5.015371051989984 4.5920577972942715e-22 6.11335826256829e-14 6.113358000573145e-14 2.6199514491240433e-21
5.091171501069577 4.792424489272522e-22 6.476530852165715e-14 6.476530551983964e-14 3.0018174863538326e-21
5.129500256944802 4.895250652614883e-22 6.665295725650533e-14 6.665295404511306e-14 3.2113922919570184e-21
5.168117569889187 5.002460926586245e-22 6.862550021475248e-14 6.862549678011607e-14 3.4346364066367406e-21
5.20702561229733 5.134185687835664e-22 7.096279598313649e-14 7.096279230853218e-14 3.674604308354174e-21
5.246226572918644 5.269269641341047e-22 7.337817378765855e-14 7.337816985776747e-14 3.9298910989286696e-21
5.265937586045735 5.338104873767776e-22 7.461604784261718e-14 7.461604377906621e-14 4.0635509945141566e-21
5.285722656980489 5.407820761083942e-22 7.587454393858194e-14 7.587453973720962e-14 4.201372321238781e-21
5.305582063971359 5.478431545294069e-22 7.715404656003785e-14 7.715404221656646e-14 4.343471383617508e-21
5.3255160863122235 5.554317816258675e-22 7.8516667817807e-14 7.851666332725826e-14 4.4905487363191286e-21
5.365609099470188 5.743523289730167e-22 8.180255138805651e-14 8.180254658489616e-14 4.803160352676517e-21
5.406003951863644 5.9399406860635e-22 8.523694981596823e-14 8.523694468033626e-14 5.13563195204446e-21
5.446702915881641 6.143919322488049e-22 8.882774253347423e-14 8.882773704438233e-14 5.489091930838401e-21
5.487708281020852 6.364377531193537e-22 9.27078231654379e-14 9.270781729917474e-14 5.8662631662882596e-21
5.529022354014368 6.671169534027726e-22 9.790835556109791e-14 9.790834928001246e-14 6.281085426837769e-21
5.570647458961463 6.996084455570053e-22 1.0344991815758388e-13 1.0344991143489432e-13 6.722689561824953e-21
5.612585937458331 7.340429117611095e-22 1.0935883778992582e-13 1.0935883059730405e-13 7.192621800428488e-21
5.654840148729818 7.719031293618507e-22 1.158650804267845e-13 1.1586507273122844e-13 7.695556089971638e-21
5.67608639626678 7.977083556269703e-22 1.201884049084375e-13 1.201883969359654e-13 7.972472096482488e-21
5.686739436050992 8.1101049039033715e-22 1.2242193351456425e-13 1.2242192540022064e-13 8.114343610886205e-21
5.6974124697621304 8.24587480868987e-22 1.247049899633162e-13 1.247049817047806e-13 8.258535644238163e-21
5.718818669136295 8.52592534795343e-22 1.2942473517328538e-13 1.2942472661926696e-13 8.554018424590014e-21
5.740305295436557 8.83468770456692e-22 1.3461567280860717e-13 1.3461566394480751e-13 8.863799603225462e-21
5.7835210386641895 9.63606098905066e-22 1.4793171525784607e-13 1.479317057057184e-13 9.552127681941841e-21
5.827062130521658 1.05594372917545e-21 1.633277040995129e-13 1.6332769379974206e-13 1.0299770834992473e-20
5.8489554468988025 1.1207467001520861e-21 1.7400239062826577e-13 1.7400237988925856e-13 1.0739007188665986e-20
5.870931020387893 1.190294316993054e-21 1.8549438628423707e-13 1.8549437508848533e-13 1.1195751627779116e-20
5.892989160043636 1.2649686521293574e-21 1.9787222552638476e-13 1.978722138557395e-13 1.1670645320518567e-20
5.915130176081913 1.349906000854687e-21 2.119518773829676e-13 2.1195186520187209e-13 1.2181095492958999e-20
5.95966208400165 1.587449667883003e-21 2.5112562641984957e-13 2.511256129956977e-13 1.342415184544359e-20
6.004529249263818 1.9299066922914613e-21 3.075988517019084e-13 3.0759883670403213e-13 1.4997876405057747e-20
6.027089341400364 2.167989177199708e-21 3.468439887967142e-13 3.4684397279576086e-13 1.6000953362843874e-20
6.049734195844842 2.4493616306139927e-21 3.9333141733547896e-13 3.933314002108222e-13 1.7124656795760882e-20
6.095279466722835 3.262207026912457e-21 5.278063059121525e-13 5.278062857389533e-13 2.0173199224097115e-20
6.141167624020661 4.5132683712706e-21 7.357182740479434e-13 7.357182494425881e-13 2.4605355280174193e-20
6.164241091010745 5.3122103854406984e-21 8.692092027617129e-13 8.69209175239917e-13 2.7521795789650977e-20
6.187401249150058 6.222372270810592e-21 1.0219595446756375e-12 1.0219595139320121e-12 3.0743625233657153e-20
6.1990139391386085 6.666784447889668e-21 1.0970046275794134e-12 1.0970045951763497e-12 3.240306360554565e-20
6.204828454712694 6.900888865255724e-21 1.136591085556321e-12 1.1365910522900315e-12 3.326628943951702e-20
6.210648424152782 7.07177676790956e-21 1.165829179924345e-12 1.1658291459403181e-12 3.398402680104899e-20
6.233982942956859 7.65235462313729e-21 1.2662811164765973e-12 1.2662810799418443e-12 3.653475304773691e-20
6.239830258556775 7.7265659784371e-21 1.2797605731262607e-12 1.2797605362383812e-12 3.6887879489280216e-20
6.245683058788269 7.732989684950296e-21 1.282025919955061e-12 1.282025882710903e-12 3.724415791366385e-20
6.257405133728602 7.717013103461457e-21 1.2817783885487825e-12 1.281778350681255e-12 3.786752759431807e-20
6.269149208991335 7.60278941744773e-21 1.265176163408385e-12 1.2651761253392752e-12 3.806911041285293e-20
6.280915325867298 7.316387306779216e-21 1.2198012085319952e-12 1.2198011707858552e-12 3.774614016224187e-20
6.304513850009849 6.610122491600257e-21 1.1061920771816078e-12 1.106192040570082e-12 3.6611525988825585e-20
6.32820103803542 5.734700841414101e-21 9.632975770913624e-13 9.632975422258492e-13 3.486551310479397e-20
6.3519772230701035 4.931871207970419e-21 8.315533011474087e-13 8.315532679342315e-13 3.3213177125407524e-20
6.375842739491607 4.256476556207101e-21 7.203727488062418e-13 7.203727170445902e-13 3.17616515405821e-20
6.399797922933955 3.715138657163507e-21 6.311182246803558e-13 6.311181938981987e-13 3.078215697147001e-20
6.42384311029221 3.265074877338101e-21 5.567465108566302e-13 5.567464809028846e-13 2.99537454844985e-20
6.447978639727206 2.9370790611385923e-21 5.026997396463418e-13 5.026997100796073e-13 2.956673435434293e-20
6.472204850670314 2.6638456173912657e-21 4.576471260804492e-13 4.576470967903682e-13 2.929008100882168e-20
6.496522083828205 2.4862407702737638e-21 4.2873953840819866e-13 4.287395090097103e-13 2.93984883858331e-20
