Dust emission spectrum from A.P. Jones, M. Kohler, N. Ysard, M. Bocchio, and L. Verstraete (2017), A&A, 602A, 46J 
inside the DustPedia framework.

lambda    nu*dP/dnu     j_nu    j_nu(carb.) j_nu(sil)
 (um)   (erg s-1 H-1) (Jy cm2 sr-1 H-1)
0.9927057738263894 8.69140106827983e-21 2.2902335476642707e-13 2.2902334936513346e-13 5.401293681539949e-21
1.0001793341362166 8.83740121569651e-21 2.346237015595741e-13 2.3462369506017394e-13 6.499400129555634e-21
1.0077091589558085 8.984002365372484e-21 2.4031146802273967e-13 2.4031146021242777e-13 7.810311897484559e-21
1.0114953028030835 9.05752197650275e-21 2.4318831288308114e-13 2.431883043255594e-13 8.557521674549892e-21
1.0152956718711033 9.131184347769215e-21 2.460872304688596e-13 2.46087221095781e-13 9.373078610133251e-21
1.0229392996569957 9.278856057200829e-21 2.5194963552446585e-13 2.519496242908325e-13 1.1233633362345513e-20
1.0267826658714554 9.352697827767927e-21 2.5490882112570487e-13 2.549088088332973e-13 1.2292407552548267e-20
1.0306404723013447 9.426669515611204e-21 2.578902407009017e-13 2.5789022725442896e-13 1.3446472822554964e-20
1.03451277320114 9.500769007709301e-21 2.608939748806854e-13 2.608939601767167e-13 1.470396862400957e-20
1.0383996230291617 9.574994261842343e-21 2.639201061534015e-13 2.6392009007971203e-13 1.6073689522705295e-20
1.0403485208654093 9.612153431265659e-21 2.6544159700499806e-13 2.6544158020142426e-13 1.6803573867677757e-20
1.0423010764483396 9.649343308328472e-21 2.669687189457068e-13 2.6696870138057235e-13 1.7565134442877306e-20
1.0462171883269815 9.72381425174651e-21 2.700398997042325e-13 2.7003988051567325e-13 1.9188559328168985e-20
1.0471985131304309 9.742450819086048e-21 2.708112314680659e-13 2.7081121185174993e-13 1.9616315884402367e-20
1.048180758391296 9.761094863212126e-21 2.7158398065807136e-13 2.7158396060488146e-13 2.0053190012823734e-20
1.0501480137395462 9.798405272643694e-21 2.731337369782972e-13 2.7313371602326373e-13 2.095503343444636e-20
1.0521189612883777 9.835745264757257e-21 2.7468918007585816e-13 2.7468915818024795e-13 2.1895610197995193e-20
1.0531058218030118 9.854401652483318e-21 2.7546834910242764e-13 2.754683267214801e-13 2.2380947393695348e-20
1.0540936079674168 9.872984647876397e-21 2.762466846178817e-13 2.7624666174120613e-13 2.287667551650041e-20
1.058054026499678 9.947386045117469e-21 2.7937416985297293e-13 2.793741448863174e-13 2.4966655545703245e-20
1.0590464539527713 9.966003626600275e-21 2.801595842884703e-13 2.8015955877146737e-13 2.5517002991860886e-20
1.06003981227728 9.98462805338877e-21 2.8094641894132407e-13 2.80946392862384e-13 2.6078940101366684e-20
1.0620293250338977 1.0021897350372602e-20 2.8252435490979654e-13 2.8252432767128176e-13 2.7238514810811225e-20
1.0660195594769086 1.0096517088918805e-20 2.8569733612563417e-13 2.856973064183984e-13 2.9707235809723727e-20
1.070024785945596 1.0171243871113016e-20 2.8889321238792695e-13 2.8889317999896643e-13 3.238896054435101e-20
1.0740450607676866 1.0246076393979651e-20 2.9211208522297357e-13 2.921120499218995e-13 3.5301074020912575e-20
1.07808044048254 1.0321013442776121e-20 2.953540588855061e-13 2.9535402042321285e-13 3.8462293273503166e-20
1.0861967418109137 1.0471082414918281e-20 3.019044445297061e-13 3.0190439891554816e-13 4.561415788608243e-20
1.0902777775684922 1.0545952510851659e-20 3.0520553443706315e-13 3.052054847872675e-13 4.964979563774428e-20
1.0943741465085532 1.0620918717779275e-20 3.085299600687934e-13 3.085299060440705e-13 5.402472291428813e-20
1.1026131145906286 1.0771136645000063e-20 3.1524929371073703e-13 3.1524922980856857e-13 6.390216842187493e-20
1.1109141095355224 1.0921731544011505e-20 3.22063429441358e-13 3.2206335395456407e-13 7.548679395896613e-20
1.1192775983109025 1.1072582932223333e-20 3.289699179658622e-13 3.2896982891030764e-13 8.905555448743594e-20
1.1277040513999907 1.1223149628749918e-20 3.359536212923814e-13 3.35953516365177e-13 1.0492720434605268e-19
1.1361939428280308 1.137407172833792e-20 3.4303455127564337e-13 3.4303442780754024e-13 1.2346810304813503e-19
1.1447477501889525 1.152535141717959e-20 3.502139231567898e-13 3.502137780580407e-13 1.4509874903830158e-19
1.1533659546722406 1.1677045736288802e-20 3.5749464596118376e-13 3.5749447565981526e-13 1.7030136859130568e-19
1.1707974979042381 1.1982137356704423e-20 3.723792839462605e-13 3.7237905023474737e-13 2.337115131001342e-19
1.1884924949847024 1.2288954099588473e-20 3.8768660754597043e-13 3.8768628842390416e-13 3.1912206623946913e-19
1.2064549276569216 1.259956127236419e-20 4.0349295610642744e-13 4.034925225157781e-13 4.3359064921713963e-19
1.2246888378427687 1.2911979733268632e-20 4.197474131688319e-13 4.1974682694196556e-13 5.862268663428543e-19
1.2431983285522175 1.3225964927420573e-20 4.364527329953776e-13 4.3645194424816537e-13 7.887472121815575e-19
1.2619875648066055 1.3541986341209488e-20 4.536353395177873e-13 4.5363428337331826e-13 1.056144468985323e-18
1.3004222497298317 1.4178251445980764e-20 4.894141242097987e-13 4.894122572900733e-13 1.8669197253175284e-18
1.3400274889804893 1.4822722767098812e-20 5.272433690543717e-13 5.272401295410731e-13 3.239513298544965e-18
1.3808389325824078 1.547775580294496e-20 5.673100103179905e-13 5.673044896662482e-13 5.52065174220668e-18
1.4228933163050095 1.6148732864327345e-20 6.09930319870003e-13 6.099210755908667e-13 9.244279136408428e-18
1.466228494730424 1.6847030560716873e-20 6.556837975881116e-13 6.556685800120297e-13 1.5217576081982127e-17
1.5108834753276823 1.757107137927429e-20 7.046908741375465e-13 7.046662364875194e-13 2.463765002695568e-17
1.5568984535646726 1.8319917679066383e-20 7.570999859788267e-13 7.570607129991058e-13 3.927297972112459e-17
1.6043148490894465 1.9097391999872622e-20 8.132669039224186e-13 8.132051530211128e-13 6.17509013058571e-17
1.6531753430134553 1.9907382483889698e-20 8.735796587190225e-13 8.734839987650474e-13 9.565995397520769e-17
1.7035239163302658 2.0754308105421013e-20 9.38481958077407e-13 9.383359235781665e-13 1.4603449924061104e-16
1.755405889504358 2.1652429887492603e-20 1.008912784249354e-12 1.0086929802645176e-12 2.198039848366431e-16
1.8088679632656115 2.2600153595123152e-20 1.0851447930337263e-12 1.0848184885378152e-12 3.2630449591137064e-16
1.8639582606462262 2.359509135344051e-20 1.1674204030680094e-12 1.166942445527407e-12 4.779575406022247e-16
1.9207263702978936 2.4637764736784864e-20 1.2561347665467424e-12 1.2554437376212364e-12 6.910289255056555e-16
1.979223391128241 2.572972339647376e-20 1.351759297668732e-12 1.3507727690329985e-12 9.86528635733377e-16
2.039501978296691 2.6871440283994356e-20 1.454737080095607e-12 1.4533459029710754e-12 1.3911771245316002e-15
2.1016163906111602 2.807102069492009e-20 1.5659615137292552e-12 1.564022899063087e-12 1.938614666169125e-15
2.1656225393682647 2.9329824941728636e-20 1.6860159031502666e-12 1.683345456755828e-12 2.6704463944386774e-15
2.231578038680979 3.0639738543876587e-20 1.8149579474278377e-12 1.811320537875292e-12 3.6374095525455936e-15
2.299542257339062 3.1996594397979857e-20 1.953055495667178e-12 1.9481549247181474e-12 4.900570949030645e-15
2.369576372248914 3.3398818765271925e-20 2.1007349018449234e-12 2.094202321312221e-12 6.532580532702533e-15
2.4417434235010123 3.484546539704436e-20 2.258477296138771e-12 2.2498587484973246e-12 8.618547641447072e-15
2.5161083711144245 3.6341451696751513e-20 2.427174760438435e-12 2.4159175317259746e-12 1.1257228712459668e-14
2.5927381535095444 3.789947918262895e-20 2.608322775303141e-12 2.5937611583221748e-12 1.4561616980966827e-14
2.6717017477616296 3.952929092955806e-20 2.803344246281238e-12 2.784685753856675e-12 1.8658492424562452e-14
2.753070231689431 4.1248710502925885e-20 3.0143737555301398e-12 2.990685428712799e-12 2.368832681734014e-14
2.836916847834745 4.311850200920229e-20 3.2469806764226658e-12 3.2171749758481988e-12 2.980570057446636e-14
2.9233170693905177 4.5280535052920505e-20 3.5136371112533418e-12 3.476466648731386e-12 3.717046252195537e-14
2.967498994190263 4.661378573585216e-20 3.671760868284325e-12 3.630470128928088e-12 4.1290739356236906e-14
3.0123486681368425 4.8037995716429285e-20 3.8411348183435594e-12 3.795326479627687e-12 4.5808338715872293e-14
3.0578761833420214 5.0432228538333864e-20 4.093525394947604e-12 4.0427554952639304e-12 5.076989968367224e-14
3.1040917844459814 5.324333464956853e-20 4.387016169300245e-12 4.330859440171818e-12 5.615672912842762e-14
3.127460860933648 5.589244067464326e-20 4.639961648579707e-12 4.580925591706528e-12 5.903605687317983e-14
3.1510058709225794 5.926863660730525e-20 4.9572815151267925e-12 4.8952477421350356e-12 6.203377299175525e-14
3.162844764501044 6.234364144997228e-20 5.234069383694143e-12 5.170485657251868e-12 6.358372644227221e-14
3.1747281389236908 6.582385498719914e-20 5.5470143275714774e-12 5.4818500952820835e-12 6.516423228939457e-14
3.1986289994194426 7.525884229089493e-20 6.389852550021006e-12 6.321425950958624e-12 6.842659906238299e-14
3.2227097969389145 9.716914696487412e-20 8.31225815109976e-12 8.240378264522008e-12 7.187988657775163e-14
3.2348180950136065 1.1774287180602954e-19 1.0110064379400196e-11 1.0036342530154553e-11 7.372184924564209e-14
3.240889293275058 1.3311846029392272e-19 1.145175148608301e-11 1.1377058044472616e-11 7.469344161039509e-14
3.2469718861334385 1.5094077440973088e-19 1.3009318163863115e-11 1.2933619414106783e-11 7.569874975632978e-14
3.2714166318528037 2.444141212350441e-19 2.1224212459057918e-11 2.1144362233800065e-11 7.98502252578501e-14
3.2744851364798273 2.5024946937623543e-19 2.1751320204488943e-11 2.167098157081667e-11 8.033863367227354e-14
3.2775565192852394 2.5624050059965206e-19 2.2292942543646072e-11 2.2212113136630196e-11 8.082940701587863e-14
3.283707930232385 2.504550795778195e-19 2.183050584433858e-11 2.1748800462410546e-11 8.170538192803571e-14
3.2898708863219004 2.3211107161576885e-19 2.0269551708882725e-11 2.0187050690851415e-11 8.250101803130914e-14
3.29141343181113 2.277753147587226e-19 1.990024969169212e-11 1.9817548924698388e-11 8.270076699373385e-14
3.292184975758714 2.256434118943323e-19 1.9718611005611015e-11 1.9635810238030437e-11 8.280076758057904e-14
3.295272960557952 2.1236105030077769e-19 1.857529383556898e-11 1.849210437746137e-11 8.318945810760578e-14
3.3076538914384823 1.6598451576389937e-19 1.4573271910084992e-11 1.448852205655421e-11 8.474985353078406e-14
3.310756385682612 1.564430070692051e-19 1.3748420717472209e-11 1.3663277712281066e-11 8.514300519114408e-14
3.313861789986515 1.475992955666361e-19 1.298339019530044e-11 1.289785281600316e-11 8.55373792972815e-14
3.3200813396944477 1.3524494559563526e-19 1.1918982999641862e-11 1.1832596637999484e-11 8.638636164237256e-14
3.345076488085796 1.1364682527036596e-19 1.0090967187222989e-11 1.0000795481100104e-11 9.017170612288449e-14
3.3482140837626964 1.1451482938219883e-19 1.0177576659916659e-11 1.008689208686018e-11 9.068457305648104e-14
3.3513546224236106 1.1539067407602324e-19 1.0265037219748428e-11 1.0173837552929626e-11 9.119966681880353e-14
3.3576445397418455 1.215732985320271e-19 1.0835335182972709e-11 1.074305829942725e-11 9.227688354545944e-14
3.3702598118196083 1.4398305428691068e-19 1.2880840328116005e-11 1.2786304077535302e-11 9.453625058070558e-14
3.382922481734668 1.493133024468397e-19 1.340787586292069e-11 1.3311146059743617e-11 9.67298031770738e-14
3.389271646505754 1.5206065428919807e-19 1.3680206920322364e-11 1.3582365773891422e-11 9.78411464309357e-14
3.395632727569191 1.5508630743711138e-19 1.3978597482433595e-11 1.3879611028927611e-11 9.898645350598507e-14
3.421196662673239 1.6977954660981516e-19 1.541817043906709e-11 1.5314445665851966e-11 1.0372477321513011e-13
3.4276182099114902 1.6710352640278367e-19 1.5203636914042207e-11 1.509885745595916e-11 1.0477945808304291e-13
3.4340518103208963 1.5500590956634322e-19 1.4129426418210275e-11 1.4023650749516779e-11 1.0577566869349424e-13
3.4469541582030403 1.3763530967542e-19 1.2593162430752868e-11 1.2485477374273132e-11 1.0768505647973538e-13
3.472904465399547 1.327631430069042e-19 1.2238826972864357e-11 1.212673941121146e-11 1.1208756165289479e-13
3.4990501388274233 1.254325448759259e-19 1.1650104806501666e-11 1.1533518187776278e-11 1.1658661872538946e-13
3.5253949054701885 9.960965215671604e-20 9.321346005372068e-12 9.20039835629999e-12 1.2094764907207767e-13
3.5519380250092896 7.502449349320625e-20 7.07355744210966e-12 6.948234450832222e-12 1.253229912774362e-13
3.578680990867387 6.542424161748835e-20 6.2148566614398426e-12 6.084739207359092e-12 1.3011745408075037e-13
3.605625307711299 6.172115887553936e-20 5.9072329597787314e-12 5.7720708358564e-12 1.3516212392233118e-13
3.660119384959845 5.935973726529684e-20 5.767089010024233e-12 5.621350468499898e-12 1.4573854152433395e-13
3.715437065384467 5.775164998693601e-20 5.695655838705065e-12 5.538799870131558e-12 1.5685596857350783e-13
3.8285932144167436 5.757259631450638e-20 5.850924221112386e-12 5.670287239287809e-12 1.8063698182457645e-13
3.94519561050918 5.812180082144999e-20 6.086631876490664e-12 5.880232715732629e-12 2.06399160758035e-13
4.06534921144712 5.890024080694281e-20 6.356006908980765e-12 6.121935797699745e-12 2.3407111128101903e-13
4.189162171576248 5.976122134364166e-20 6.6453226309165415e-12 6.38166033800067e-12 2.636622929158701e-13
4.316745939156006 6.064330752414008e-20 6.948783841849915e-12 6.6537705924582e-12 2.950132493917149e-13
4.448215356677963 6.151942281559406e-20 7.263860420142681e-12 6.936228257035259e-12 3.2763216310742156e-13
4.58368876423945 6.238563770521089e-20 7.590478822148354e-12 7.228965807177264e-12 3.6151301497109006e-13
4.723288106065518 6.325333722366045e-20 7.930440548628275e-12 7.533615954691178e-12 3.968245939370968e-13
4.867139040275056 6.41383776886536e-20 8.286309619202717e-12 7.853771730069902e-12 4.3253788913281786e-13
4.940699165968905 6.462799200223506e-20 8.475757186873947e-12 8.025112050946044e-12 4.506451359279046e-13
5.015371051989984 6.509233425557006e-20 8.665674018424068e-12 8.196819416305301e-12 4.688546021187668e-13
5.091171501069577 6.56586372756766e-20 8.873174548267693e-12 8.3855991572765e-12 4.875753909911931e-13
5.129500256944802 6.593127638769894e-20 8.977098127934939e-12 8.480148430002375e-12 4.969496979325642e-13
5.168117569889187 6.620833563943288e-20 9.082689936656665e-12 8.576257848976324e-12 5.06432087680339e-13
5.20702561229733 6.657680558962956e-20 9.201997277697688e-12 8.685162774314808e-12 5.168345033828821e-13
5.246226572918644 6.69413605159114e-20 9.322041041476712e-12 8.794769468964366e-12 5.272715725123477e-13
5.265937586045735 6.712222458739012e-20 9.382346805750443e-12 8.849845341549483e-12 5.3250146420096e-13
5.285722656980489 6.73021773976823e-20 9.442846280835557e-12 8.905108235935133e-12 5.377380449004265e-13
5.305582063971359 6.748124334688785e-20 9.503543026995255e-12 8.960562379403328e-12 5.429806475919296e-13
5.3255160863122235 6.767742685292303e-20 9.566982334752691e-12 9.018707902524498e-12 5.482744322281956e-13
5.365609099470188 6.820646868528384e-20 9.714356289983672e-12 9.155125553441055e-12 5.592307365426203e-13
5.406003951863644 6.873970395486404e-20 9.864008760411085e-12 9.29378929938969e-12 5.702194610213952e-13
5.446702915881641 6.927783577939538e-20 1.0016071886498006e-11 9.434836633879383e-12 5.812352526186211e-13
5.487708281020852 6.985570471571192e-20 1.017565392395376e-11 9.583329556529368e-12 5.923243674243895e-13
5.529022354014368 7.07431954454555e-20 1.038251223848018e-11 9.778629206479383e-12 6.03883032000799e-13
5.570647458961463 7.166013589984216e-20 1.0596263154167378e-11 9.980790290391819e-12 6.154728637755647e-13
5.612585937458331 7.260941916223658e-20 1.0817462528359585e-11 1.019037411536225e-11 6.270884129973356e-13
5.654840148729818 7.364528622067531e-20 1.1054388415378572e-11 1.041560109907236e-11 6.387873163062115e-13
5.67608639626678 7.440423410184375e-20 1.121027020972604e-11 1.0565352984537792e-11 6.449172251882515e-13
5.686739436050992 7.47921173356392e-20 1.1289860888815702e-11 1.0641875378124727e-11 6.47985510690974e-13
5.6974124697621304 7.518580480204331e-20 1.1370588628560998e-11 1.0719532727017289e-11 6.510559015437062e-13
5.718818669136295 7.599120924103544e-20 1.1535571483603903e-11 1.0878368831908176e-11 6.572026516957258e-13
5.740305295436557 7.688537310589214e-20 1.1715157995273838e-11 1.1051751255848861e-11 6.634067394249765e-13
5.7835210386641895 7.928455440646255e-20 1.2171674857734093e-11 1.1495451329846722e-11 6.762235278873723e-13
5.827062130521658 8.201253426466805e-20 1.2685258275353837e-11 1.1996056998105219e-11 6.892012772486137e-13
5.8489554468988025 8.400588622317918e-20 1.3042398454258849e-11 1.2346159911421895e-11 6.962385428369595e-13
5.870931020387893 8.611791941302963e-20 1.3420538417716848e-11 1.2717243951374895e-11 7.032944663419569e-13
5.892989160043636 8.8358066975943e-20 1.3821375989285227e-11 1.3111007639090595e-11 7.103683501946364e-13
5.915130176081913 9.090810976109702e-20 1.4273693517179608e-11 1.3555983028759306e-11 7.177104884203027e-13
5.95966208400165 9.818311262853699e-20 1.5532017273702434e-11 1.4797406901550313e-11 7.346103721521177e-13
6.004529249263818 1.0869399874689974e-19 1.7324230925246044e-11 1.6570507534683363e-11 7.537233905626782e-13
6.027089341400364 1.1604288034611533e-19 1.8565026022267316e-11 1.780017440114378e-11 7.648516211235359e-13
6.049734195844842 1.2466194994876615e-19 2.0018873835653777e-11 1.9242216151873517e-11 7.766576837802592e-13
6.095279466722835 1.4961321963454937e-19 2.4206557131254124e-11 2.340059220701329e-11 8.0596492424083e-13
6.141167624020661 1.877511848043133e-19 3.0605753141995894e-11 2.976139505869598e-11 8.44358083299917e-13
6.164241091010745 2.1205800723939897e-19 3.469794267127923e-11 3.38293167686023e-11 8.686259026769297e-13
6.187401249150058 2.3939685507802055e-19 3.9318428786396334e-11 3.842491694317672e-11 8.935118432195994e-13
6.1990139391386085 2.526620542946614e-19 4.157498190341246e-11 4.066881355777211e-11 9.061683456403617e-13
6.204828454712694 2.596204319521334e-19 4.276003777871903e-11 4.184748032553866e-11 9.125574531803663e-13
6.210648424152782 2.646356755931511e-19 4.3626941683947963e-11 4.270897872173391e-11 9.179629622140685e-13
6.233982942956859 2.8139203240332706e-19 4.656363100083568e-11 4.562698283005465e-11 9.36648170781021e-13
6.239830258556775 2.833695935800652e-19 4.693485236502625e-11 4.5995732795626866e-11 9.391195693993948e-13
6.245683058788269 2.832754194312099e-19 4.696326323876208e-11 4.6021669579632914e-11 9.415936591291773e-13
6.257405133728602 2.8220442847380526e-19 4.687351605094899e-11 4.5927662856575947e-11 9.458531943730361e-13
6.269149208991335 2.7814016021441656e-19 4.628515686391342e-11 4.533808194634677e-11 9.470749175666547e-13
6.280915325867298 2.6885336040867023e-19 4.4823714244940876e-11 4.387916943803079e-11 9.445448069100854e-13
6.304513850009849 2.463317972959506e-19 4.1223182001990205e-11 4.0287085015508824e-11 9.360969864813676e-13
6.32820103803542 2.189535637153312e-19 3.677915261059866e-11 3.585510701736713e-11 9.24045593231545e-13
6.3519772230701035 1.9398961819768118e-19 3.270821572548549e-11 3.179506765817406e-11 9.131480673114337e-13
6.375842739491607 1.729419523870338e-19 2.926896647493343e-11 2.8365528634293123e-11 9.034378406403088e-13
6.399797922933955 1.5619851682418814e-19 2.6534603343997797e-11 2.563661378895576e-11 8.979895550420364e-13
6.42384311029221 1.4221710448283297e-19 2.4250248364748617e-11 2.335685423891592e-11 8.933941258327018e-13
6.447978639727206 1.3201982003847909e-19 2.2596030879663362e-11 2.1703918454364042e-11 8.921124252993225e-13
6.472204850670314 1.2347566059803939e-19 2.1213046598742787e-11 2.0321561098248885e-11 8.914855004939002e-13
6.496522083828205 1.178453812407174e-19 2.0321834860394466e-11 1.942830008947339e-11 8.935347709210852e-13
