Dust emission spectrum from A.P. Jones, M. Kohler, N. Ysard, M. Bocchio, and L. Verstraete (2017), A&A, 602A, 46J 
inside the DustPedia framework.

lambda    nu*dP/dnu     j_nu    j_nu(carb.) j_nu(sil)
 (um)   (erg s-1 H-1) (Jy cm2 sr-1 H-1)
0.9927057738263894 3.221424807211293e-25 8.488637340277979e-18 8.488637340275156e-18 2.8245031410865722e-30
1.0001793341362166 3.2743546441096136e-25 8.693066978279443e-18 8.693066978276041e-18 3.403462078671509e-30
1.0077091589558085 3.327200025809014e-25 8.899867676897153e-18 8.899867676893057e-18 4.095902137671201e-30
1.0114953028030835 3.3535845148245847e-25 9.00414663510333e-18 9.004146635098839e-18 4.491142337099798e-30
1.0152956718711033 3.379940074199927e-25 9.109005582761827e-18 9.109005582756906e-18 4.92295280610837e-30
1.0229392996569957 3.4325280781444444e-25 9.320375193716294e-18 9.320375193710385e-18 5.909528922814118e-30
1.0267826658714554 3.4586964156845696e-25 9.426715608583556e-18 9.42671560857709e-18 6.471772824708292e-30
1.0306404723013447 3.4848242201752748e-25 9.533612644985828e-18 9.533612644978744e-18 7.085242275576985e-30
1.03451277320114 3.510908962931589e-25 9.641061623961054e-18 9.641061623953304e-18 7.754379840022285e-30
1.0383996230291617 3.5369481297351158e-25 9.749057809661344e-18 9.749057809652864e-18 8.483992354879661e-30
1.0403485208654093 3.5499498405358337e-25 9.803259609802072e-18 9.8032596097932e-18 8.873085313938387e-30
1.0423010764483396 3.562939221315876e-25 9.857596410474136e-18 9.857596410464856e-18 9.279278940744435e-30
1.0462171883269815 3.5888797538234034e-25 9.966672580144707e-18 9.966672580134561e-18 1.0145861012710452e-29
1.0471985131304309 3.595356697524391e-25 9.994025044664064e-18 9.994025044653685e-18 1.0374347997325903e-29
1.048180758391296 3.601830288551213e-25 1.0021410724182308e-17 1.0021410724171699e-17 1.0607767883050379e-29
1.0501480137395462 3.614767259287052e-25 1.0076281418899544e-17 1.0076281418888456e-17 1.1089814420886186e-29
1.0521189612883777 3.62769036008957e-25 1.0131284043646814e-17 1.0131284043635221e-17 1.1592836757658896e-29
1.0531058218030118 3.634136626999623e-25 1.0158806717604975e-17 1.0158806717593124e-17 1.1852500665733156e-29
1.0540936079674168 3.640546592308892e-25 1.0186270537132602e-17 1.0186270537120485e-17 1.2117793233707755e-29
1.058054026499678 3.666148534436424e-25 1.0296445706644677e-17 1.0296445706631434e-17 1.3237035260406052e-29
1.0590464539527713 3.672539352542337e-25 1.0324069073636281e-17 1.0324069073622752e-17 1.3531962098638216e-29
1.06003981227728 3.6789262288639393e-25 1.035172411052245e-17 1.0351724110508619e-17 1.3833182957953894e-29
1.0620293250338977 3.6916880070933732e-25 1.0407128872593279e-17 1.0407128872578822e-17 1.4455020912535125e-29
1.0660195594769086 3.7171626264917284e-25 1.0518314889993181e-17 1.0518314889977401e-17 1.578002124701279e-29
1.070024785945596 3.742570027322145e-25 1.0629998567338968e-17 1.0629998567321745e-17 1.7220960510812895e-29
1.0740450607676866 3.767907863142402e-25 1.0742174667732148e-17 1.0742174667713362e-17 1.8787464358233833e-29
1.07808044048254 3.793173806754982e-25 1.0854837910005925e-17 1.0854837909985437e-17 2.0489911357840105e-29
1.0861967418109137 3.843435861674529e-25 1.1081474893667489e-17 1.1081474893643139e-17 2.434825078539507e-29
1.0902777775684922 3.8683252195161537e-25 1.1195141119628018e-17 1.1195141119601487e-17 2.652918754008425e-29
1.0943741465085532 3.893131801061695e-25 1.1309264584742646e-17 1.1309264584713745e-17 2.889626983210682e-29
1.1026131145906286 3.9424878068173437e-25 1.1538861101899547e-17 1.1538861101865296e-17 3.425019846931822e-29
1.1109141095355224 3.9914864403074516e-25 1.1770219825984968e-17 1.1770219825944422e-17 4.054461547420549e-29
1.1192775983109025 4.0400648023333267e-25 1.2003159468171995e-17 1.200315946812406e-17 4.793511297519377e-29
1.1277040513999907 4.0879957455848304e-25 1.2237001376502589e-17 1.2237001376445988e-17 5.660133877082777e-29
1.1361939428280308 4.135512684531859e-25 1.2472435306511113e-17 1.247243530644436e-17 6.67504054886267e-29
1.1447477501889525 4.182599775182915e-25 1.270941443119982e-17 1.2709414431121198e-17 7.862080576068558e-29
1.1533659546722406 4.229267441070807e-25 1.2947970751044556e-17 1.2947970750952063e-17 9.248693002213368e-29
1.1707974979042381 4.321497158903924e-25 1.3430291856135487e-17 1.3430291856007973e-17 1.2751427303085838e-28
1.1884924949847024 4.411850316101972e-25 1.3918314513905366e-17 1.3918314513730424e-17 1.7494511749869486e-28
1.2064549276569216 4.501040718057241e-25 1.4414297336430443e-17 1.4414297336191587e-17 2.388573663702075e-28
1.2246888378427687 4.588086430497983e-25 1.491512107654949e-17 1.4915121076224935e-17 3.245509812688596e-28
1.2431983285522175 4.672783539261434e-25 1.542004048550138e-17 1.542004048506249e-17 4.388910125679274e-28
1.2619875648066055 4.755101123759939e-25 1.592884425052222e-17 1.5928844249931495e-17 5.90724290594293e-28
1.3004222497298317 4.91122221518537e-25 1.69528769355126e-17 1.6952876934457266e-17 1.0553362051574498e-27
1.3400274889804893 5.055844974760217e-25 1.7983610567324473e-17 1.798361056547308e-17 1.851394391579833e-27
1.3808389325824078 5.188440194830558e-25 1.9017318130213342e-17 1.9017318127022483e-17 3.190862564172386e-27
1.4228933163050095 5.309675461230172e-25 2.0054403523065043e-17 2.00544035176596e-17 5.405433362455494e-27
1.466228494730424 5.422522826107644e-25 2.1104374128820884e-17 2.110437411981591e-17 9.004970057132777e-27
1.5108834753276823 5.5247658152758e-25 2.2157169404958244e-17 2.215716939019933e-17 1.475892664063098e-26
1.5568984535646726 5.614616178192817e-25 2.3203302024897007e-17 2.3203302001073987e-17 2.382302693680955e-26
1.6043148490894465 5.692255537052339e-25 2.4240603308476237e-17 2.4240603270536283e-17 3.7939964407025466e-26
1.6531753430134553 5.757938926026949e-25 2.5267100413598845e-17 2.5267100354050678e-17 5.954816235759067e-26
1.7035239163302658 5.812480766751831e-25 2.628325793160846e-17 2.6283257839474542e-17 9.213391705726388e-26
1.755405889504358 5.860519997027769e-25 2.7307575076207818e-17 2.730757493561246e-17 1.4059535257043224e-25
1.8088679632656115 5.900923597509592e-25 2.8333243351536993e-17 2.8333243139856696e-17 2.116802985830697e-25
1.8639582606462262 5.932929074636122e-25 2.9354505765351354e-17 2.935450545077631e-17 3.145750410776615e-25
1.9207263702978936 5.957107013714877e-25 3.03717861904675e-17 3.0371785728861864e-17 4.616056352887769e-25
1.979223391128241 5.974772273520633e-25 3.1389587240147853e-17 3.138958657104422e-17 6.6910363892077105e-25
2.039501978296691 5.987495449783005e-25 3.2414457712901995e-17 3.2414456754490636e-17 9.584113514717794e-25
2.1016163906111602 5.999655701502265e-25 3.346949876275452e-17 3.346949740559074e-17 1.3571637793848664e-24
2.1656225393682647 6.013794191153922e-25 3.457010965698801e-17 3.457010775638829e-17 1.900599708505688e-24
2.231578038680979 6.030099136896119e-25 3.571954877034879e-17 3.571954613723583e-17 2.6331129618598047e-24
2.299542257339062 6.050094164724278e-25 3.6929460400525335e-17 3.6929456790507114e-17 3.610018213325209e-24
2.369576372248914 6.07714061432686e-25 3.822429015127413e-17 3.822428525168803e-17 4.899586097851262e-24
2.4417434235010123 6.115207138662721e-25 3.9635161495151e-17 3.9635154910095765e-17 6.585055251617419e-24
2.5161083711144245 6.171084903993208e-25 4.1215473857456934e-17 4.121546509028405e-17 8.767172887944701e-24
2.5927381535095444 6.255887006990049e-25 4.3054345104389025e-17 4.3054333537751113e-17 1.1566637903851993e-23
2.6717017477616296 6.382889096552448e-25 4.5266269651428836e-17 4.526625452541379e-17 1.512601506790894e-23
2.753070231689431 6.572076489168217e-25 4.802742836501543e-17 4.8027408752652525e-17 1.961236290492161e-23
2.836916847834745 6.868720777895851e-25 5.17239760157041e-17 5.1723950795077305e-17 2.522062679521404e-23
2.9233170693905177 7.37252819890495e-25 5.720866295674085e-17 5.720863078526767e-17 3.217147318506344e-23
2.967498994190263 7.800545591116635e-25 6.144477990917738e-17 6.144474373321638e-17 3.6175961021813296e-23
3.0123486681368425 8.300496463204307e-25 6.637105794871318e-17 6.637101732246687e-17 4.06262463072341e-23
3.0578761833420214 9.419249098483392e-25 7.645495054153903e-17 7.645490496458878e-17 4.5576950258255356e-23
3.1040917844459814 1.0861237612102627e-24 8.949181214233421e-17 8.94917611013355e-17 5.1040998654717927e-23
3.127460860933648 1.2386541176953834e-24 1.0282799485207122e-16 1.0282794085476832e-16 5.399730290408435e-23
3.1510058709225794 1.4419025312316924e-24 1.2060201101046368e-16 1.206019539088323e-16 5.710163140084588e-23
3.162844764501044 1.6310664056553803e-24 1.369364146536659e-16 1.36936355936624e-16 5.87170419191606e-23
3.1747281389236908 1.8510766696196257e-24 1.5599130147892715e-16 1.5599124110739182e-16 6.037153529558295e-23
3.1986289994194426 2.4648175947965242e-24 2.0927535574584148e-16 2.092752919368135e-16 6.380902801771366e-23
3.2227097969389145 3.911502692150355e-24 3.3460641727799436e-16 3.346063498011863e-16 6.747680815380223e-23
3.2348180950136065 5.283430567757281e-24 4.536650275705407e-16 4.536649581292684e-16 6.944127220544563e-23
3.240889293275058 6.309104294997847e-24 5.427518792402436e-16 5.427518087621766e-16 7.047806666708219e-23
3.2469718861334385 7.495630280240458e-24 6.4603510572719095e-16 6.460350341758875e-16 7.155130371293285e-23
3.2714166318528037 1.38249233038568e-23 1.2005161892796831e-15 1.2005161132720388e-15 7.600764405638267e-23
3.2744851364798273 1.422053288915433e-23 1.2360280528124704e-15 1.236027976274382e-15 7.653808835747132e-23
3.2775565192852394 1.462750577487628e-23 1.2725940865439086e-15 1.272594009472179e-15 7.70717297961989e-23
3.283707930232385 1.4235923260646136e-23 1.2408508801855964e-15 1.2408508021495157e-15 7.803608095135782e-23
3.2898708863219004 1.2994426357911306e-23 1.134763607592848e-15 1.1347635286698216e-15 7.892302606930372e-23
3.29141343181113 1.2701655100532539e-23 1.10971686403376e-15 1.1097167848877323e-15 7.914602763634015e-23
3.292184975758714 1.255779836347528e-23 1.097405587592462e-15 1.0974055083347433e-15 7.9257718776501e-23
3.295272960557952 1.1649756186621632e-23 1.0190081654462504e-15 1.0190080857523583e-15 7.969389196540894e-23
3.3076538914384823 8.504185063854064e-24 7.466588117503409e-16 7.466587302991645e-16 8.14511759175097e-23
3.310756385682612 7.864019799610485e-24 6.911005788053458e-16 6.911004969100721e-16 8.189527355277584e-23
3.313861789986515 7.273381764081882e-24 6.397940662245528e-16 6.397939838832596e-16 8.234129315949536e-23
3.3200813396944477 6.4450610773596526e-24 5.679958912651765e-16 5.679958079685302e-16 8.329664637534424e-23
3.345076488085796 4.9672958265769e-24 4.4105780408709324e-16 4.410577165402323e-16 8.754686087923736e-23
3.3482140837626964 5.022672722241693e-24 4.46393160991195e-16 4.463930728685351e-16 8.812265987029445e-23
3.3513546224236106 5.078661875382456e-24 4.517926045130087e-16 4.51792515811332e-16 8.870167659405469e-23
3.3576445397418455 5.487975079969898e-24 4.891209680521268e-16 4.891208781411123e-16 8.991101437340038e-23
3.3702598118196083 6.997815012750283e-24 6.260301830055274e-16 6.260300905553601e-16 9.245016716725321e-23
3.382922481734668 7.34151642710911e-24 6.592456217041858e-16 6.592455267668237e-16 9.493736195467657e-23
3.389271646505754 7.519576409149506e-24 6.765021610040999e-16 6.765020648018355e-16 9.620226429075374e-23
3.395632727569191 7.711424449783594e-24 6.950639304081274e-16 6.950638329018259e-16 9.750630132219993e-23
3.421196662673239 8.632533179608197e-24 7.839452427681677e-16 7.839451398389106e-16 1.0292925705618036e-22
3.4276182099114902 8.446683572981047e-24 7.685074811758685e-16 7.685073770150412e-16 1.0416082727906367e-22
3.4340518103208963 7.632699429317123e-24 6.957519572032408e-16 6.957518518673534e-16 1.0533588742710164e-22
3.4469541582030403 6.473474133300798e-24 5.923008524787942e-16 5.923007448662434e-16 1.0761255059395492e-22
3.472904465399547 6.14845533579008e-24 5.667979779689768e-16 5.667978651348751e-16 1.1283410162051284e-22
3.4990501388274233 5.651445480094673e-24 5.249031040266302e-16 5.249029857948903e-16 1.182317400272136e-22
3.5253949054701885 3.8831647063433284e-24 3.6338167075141924e-16 3.633815471941236e-16 1.2355729560023668e-22
3.5519380250092896 2.2214612999708912e-24 2.0944672038593137e-16 2.0944659140644e-16 1.2897949135648911e-22
3.578680990867387 1.5626088525676475e-24 1.4843718163954984e-16 1.4843704669734341e-16 1.3494220641055085e-22
3.605625307711299 1.2960911954203789e-24 1.240468061188745e-16 1.2404666484776828e-16 1.4127110621705043e-22
3.660119384959845 1.1015893146870266e-24 1.070247936222888e-16 1.0702463884677131e-16 1.5477551748511562e-22
3.715437065384467 9.638698860091187e-25 9.505998781405705e-17 9.505981849246171e-17 1.6932159531395159e-22
3.8285932144167436 8.937939058896416e-25 9.083349974499385e-17 9.083329804206174e-17 2.0170293212665508e-22
3.94519561050918 8.801372598294042e-25 9.216974397991743e-17 9.216950519905292e-17 2.3878086448637254e-22
4.06534921144712 8.896370275240498e-25 9.600196902355364e-17 9.600168796911731e-17 2.810544363015909e-22
4.189162171576248 9.125342213162346e-25 1.0147189391476135e-16 1.0147156471308627e-16 3.29201675097539e-22
4.316745939156006 9.451859758468099e-25 1.0830367446388044e-16 1.0830329067803361e-16 3.8378584685861084e-22
4.448215356677963 9.863610220152005e-25 1.1646384929950209e-16 1.164634043263947e-16 4.4497310743929725e-22
4.58368876423945 1.0361922423484173e-24 1.2607381379004672e-16 1.260733000844735e-16 5.137055732040318e-22
4.723288106065518 1.0958200135543125e-24 1.3738935921690485e-16 1.373887678597809e-16 5.913571239192532e-22
4.867139040275056 1.1675408813158452e-24 1.5083956882450728e-16 1.5083889119450278e-16 6.776300044361818e-22
4.940699165968905 1.2108339694450948e-24 1.5879705373300868e-16 1.5879632915328942e-16 7.245797192183058e-22
5.015371051989984 1.2556526232943526e-24 1.671637134893005e-16 1.67162939299098e-16 7.741902025665132e-22
5.091171501069577 1.3103914657870562e-24 1.7708762601438082e-16 1.7708679861323828e-16 8.274011424929181e-22
5.129500256944802 1.3384792389107299e-24 1.8224521241252817e-16 1.8224435729369444e-16 8.551188337908856e-22
5.168117569889187 1.3677624738242833e-24 1.8763441697727066e-16 1.8763353322341894e-16 8.837538517286012e-22
5.20702561229733 1.4037437189749765e-24 1.940202111860567e-16 1.9401929666951645e-16 9.145165401964895e-22
5.246226572918644 1.4406403166355924e-24 2.0061899032498553e-16 2.0061804414135175e-16 9.461836337522822e-22
5.265937586045735 1.459441001422365e-24 2.040007121642506e-16 2.039997498004723e-16 9.623637783117746e-22
5.285722656980489 1.4784816388059878e-24 2.0743868005619036e-16 2.0743770127714164e-16 9.787790487373658e-22
5.305582063971359 1.497766103536884e-24 2.1093394109778605e-16 2.1093294566523794e-16 9.9543254807915e-22
5.3255160863122235 1.5184917815417675e-24 2.146562705619442e-16 2.1465525816077924e-16 1.0124011649382877e-21
5.365609099470188 1.5701730337417165e-24 2.2363304508656688e-16 2.2363199742881623e-16 1.0476577506846783e-21
5.406003951863644 1.6238228560136452e-24 2.3301530200932654e-16 2.330142180390695e-16 1.0839702570246021e-21
5.446702915881641 1.6795366582986057e-24 2.4282455876791093e-16 2.42823437399934e-16 1.1213679769419122e-21
5.487708281020852 1.7397522114863606e-24 2.534240616362523e-16 2.5342290165981236e-16 1.159976439957928e-21
5.529022354014368 1.8235649286142965e-24 2.6763259801572087e-16 2.6763139743268163e-16 1.2005830392345683e-21
5.570647458961463 1.9123298845657994e-24 2.8277298724020943e-16 2.8277174480419604e-16 1.2424360133839618e-21
5.612585937458331 2.006404485880849e-24 2.9891721477971556e-16 2.9891592920791396e-16 1.2855718016104245e-21
5.654840148729818 2.109842367251835e-24 3.1669395584853937e-16 3.1669262569084197e-16 1.3301576974369398e-21
5.67608639626678 2.1803554210010517e-24 3.2850782912712066e-16 3.2850647559914827e-16 1.3535279723376234e-21
5.686739436050992 2.216704180408479e-24 3.346112226795147e-16 3.346098573289545e-16 1.3653505602754621e-21
5.6974124697621304 2.2538043690648526e-24 3.4085001014970115e-16 3.4084863288398826e-16 1.3772657129358388e-21
5.718818669136295 2.3303315440625604e-24 3.537475765356624e-16 3.5374617515912047e-16 1.4013765417604734e-21
5.740305295436557 2.414708127338931e-24 3.6793327627201794e-16 3.6793185028030674e-16 1.4259917112099988e-21
5.7835210386641895 2.6337235300471347e-24 4.043262488246311e-16 4.043247714382155e-16 1.4773864156689208e-21
5.827062130521658 2.886097399539752e-24 4.464060432864983e-16 4.464045125240846e-16 1.5307624136807334e-21
5.8489554468988025 3.0632298497919322e-24 4.755841055211939e-16 4.755825460946462e-16 1.5594265477783423e-21
5.870931020387893 3.2533364379217478e-24 5.069969984003226e-16 5.06995409811678e-16 1.5885886446187774e-21
5.892989160043636 3.457462264937194e-24 5.408321794259428e-16 5.408305611684724e-16 1.6182574705411512e-21
5.915130176081913 3.6896500687458745e-24 5.79320529327039e-16 5.793188802907238e-16 1.649036314953558e-21
5.95966208400165 4.3390432742304656e-24 6.864122890630565e-16 6.864105715805617e-16 1.717482494910416e-21
6.004529249263818 5.275295849486063e-24 8.408048700857577e-16 8.408030759915726e-16 1.7940941848837633e-21
6.027089341400364 5.926215803643695e-24 9.481008251438155e-16 9.480989875432522e-16 1.8376005633482228e-21
6.049734195844842 6.695504126003383e-24 1.0751993885836664e-15 1.0751975048841718e-15 1.883699494405456e-21
6.095279466722835 8.917905746960291e-24 1.442865780725994e-15 1.442863786658207e-15 1.9940677869497392e-21
6.141167624020661 1.2338466191806883e-23 2.0113217970416144e-15 2.011319663091337e-15 2.133950277015802e-21
6.164241091010745 1.452284771862377e-23 2.3762976183947758e-15 2.3762953985555732e-15 2.2198392015244025e-21
6.187401249150058 1.7011307953080026e-23 2.7939293525750397e-15 2.793927043332752e-15 2.3092422874588254e-21
6.1990139391386085 1.8226342917672413e-23 2.9991043929528888e-15 2.9991020380004354e-15 2.354952453209865e-21
6.204828454712694 1.8866390553553696e-23 3.1073346837615687e-15 3.1073323055921954e-15 2.3781693725165874e-21
6.210648424152782 1.9333578898062542e-23 3.187268372781749e-15 3.187265974290415e-15 2.3984913330808377e-21
6.233982942956859 2.0920747705171398e-23 3.4618818737870662e-15 3.4618794018377105e-15 2.471949355462737e-21
6.239830258556775 2.1123584191996678e-23 3.498725085306092e-15 3.49872260131765e-15 2.4839884422166575e-21
6.245683058788269 2.114106982812602e-23 3.5049056832424372e-15 3.504903187158287e-15 2.496084149335491e-21
6.257405133728602 2.1097228433641865e-23 3.5042018332701003e-15 3.504199314910259e-15 2.518359841501008e-21
6.269149208991335 2.078475590155879e-23 3.4587802298674845e-15 3.458777698118056e-15 2.5317494265661127e-21
6.280915325867298 2.0001512371396395e-23 3.3346880010699286e-15 3.3346854670155477e-15 2.534054381293925e-21
6.304513850009849 1.8070144158208422e-23 3.024006034190826e-15 3.0240035056297086e-15 2.528561117948537e-21
6.32820103803542 1.567631002425772e-23 2.6332588014088625e-15 2.6332562892570973e-15 2.5121517663508898e-21
6.3519772230701035 1.3481002954372302e-23 2.2730059315761218e-15 2.273003432487536e-15 2.4990885858458373e-21
6.375842739491607 1.1634169962939089e-23 1.9689851184684086e-15 1.9689826288789098e-15 2.4895894993292785e-21
6.399797922933955 1.0153887368672231e-23 1.7249163385501793e-15 1.7249138454210387e-15 2.493129140093866e-21
6.42384311029221 8.923188399457694e-24 1.5215436685986892e-15 1.521541169146266e-15 2.4994524227888253e-21
6.447978639727206 8.026246444431074e-24 1.3737430671644035e-15 1.3737405508176942e-15 2.5163467091276817e-21
6.472204850670314 7.279044120102331e-24 1.2505355417105362e-15 1.2505330061147643e-15 2.535595771931036e-21
6.496522083828205 6.793300174189447e-24 1.1714699621105535e-15 1.1714673984018571e-15 2.5637086962893242e-21
6.520930681187647 6.384084234928226e-24 1.1050390497194309e-15 1.1050364561823701e-15 2.593537060952298e-21
