Dust emission spectrum from A.P. Jones, M. Kohler, N. Ysard, M. Bocchio, and L. Verstraete (2017), A&A, 602A, 46J 
inside the DustPedia framework.

lambda    nu*dP/dnu     j_nu    j_nu(carb.) j_nu(sil)
 (um)   (erg s-1 H-1) (Jy cm2 sr-1 H-1)
0.9927057738263894 2.8372157589160104e-24 7.476224675381626e-17 7.476224674928293e-17 4.533331520871719e-27
1.0001793341362166 2.884036132014838e-24 7.656812406830928e-17 7.656812406284935e-17 5.4599315007609454e-27
1.0077091589558085 2.9307899585492848e-24 7.839517497456512e-17 7.839517496799771e-17 6.567406889135756e-27
1.0114953028030835 2.9541361838646353e-24 7.931654998404919e-17 7.931654997684994e-17 7.199222716363682e-27
1.0152956718711033 2.977458911455975e-24 8.024310860989587e-17 8.02431086020066e-17 7.889253881302008e-27
1.0229392996569957 3.0240018938155286e-24 8.211100272224286e-17 8.211100271277792e-17 9.464933058536569e-27
1.0267826658714554 3.0471656650540516e-24 8.305083963554378e-17 8.305083962518133e-17 1.0362421843781176e-26
1.0306404723013447 3.070295739874448e-24 8.399565785857893e-17 8.399565784723763e-17 1.1341312943921741e-26
1.03451277320114 3.0933898972258006e-24 8.494541710130243e-17 8.494541708889381e-17 1.2408625949445423e-26
1.0383996230291617 3.1164459285828363e-24 8.590007657452745e-17 8.59000765609555e-17 1.3571951991838576e-26
1.0403485208654093 3.127958960379406e-24 8.637923101690197e-17 8.637923100270981e-17 1.4192159071259632e-26
1.0423010764483396 3.1394616383721836e-24 8.685959499979692e-17 8.685959498495742e-17 1.4839497313544784e-26
1.0462171883269815 3.1624348443893122e-24 8.782393061927061e-17 8.782393060305047e-17 1.6220129913950165e-26
1.0471985131304309 3.1681712502580786e-24 8.806576227239299e-17 8.806576225580895e-17 1.6584064184582324e-26
1.048180758391296 3.173904830300414e-24 8.830789169886326e-17 8.830789168190746e-17 1.6955818357178236e-26
1.0501480137395462 3.1853633782060957e-24 8.879304120562284e-17 8.879304118789942e-17 1.7723429469486362e-26
1.0521189612883777 3.1968102192707347e-24 8.927937378940187e-17 8.927937377087759e-17 1.8524280670845624e-26
1.0531058218030118 3.2025203731106733e-24 8.952273626124973e-17 8.952273624231208e-17 1.8937623938213578e-26
1.0540936079674168 3.208198691745902e-24 8.97655859700802e-17 8.976558595072032e-17 1.9359885995445075e-26
1.058054026499678 3.2308798401645e-24 9.073985559087691e-17 9.0739855569736e-17 2.114090580214302e-26
1.0590464539527713 3.2365419308118373e-24 9.098413725720953e-17 9.098413723559943e-17 2.161009558998354e-26
1.06003981227728 3.2422006771190442e-24 9.122870324814738e-17 9.122870322605813e-17 2.208924879385499e-26
1.0620293250338977 3.2535080056918758e-24 9.171868543113561e-17 9.171868540805733e-17 2.3078254396816878e-26
1.0660195594769086 3.276081093020495e-24 9.27020311028603e-17 9.270203107767534e-17 2.5184944035687373e-26
1.070024785945596 3.2985970229214945e-24 9.368984781020341e-17 9.368984778272844e-17 2.74750066908715e-26
1.0740450607676866 3.321053732589767e-24 9.468209035942343e-17 9.468209032945983e-17 2.996356861170678e-26
1.07808044048254 3.343449175979662e-24 9.567871316882796e-17 9.567871313616104e-17 3.266692991262262e-26
1.0861967418109137 3.3880085692842635e-24 9.768377371515821e-17 9.768377367636856e-17 3.8789640645780964e-26
1.0902777775684922 3.410078472920467e-24 9.868950402811605e-17 9.868950398586778e-17 4.224826550995358e-26
1.0943741465085532 3.432077528082929e-24 9.969935471964839e-17 9.969935467364796e-17 4.600041698069998e-26
1.1026131145906286 3.4758553274325274e-24 1.0173122606539917e-16 1.0173122601091783e-16 5.448132282952516e-26
1.1109141095355224 3.519326626800703e-24 1.0377900227489117e-16 1.0377900221044826e-16 6.444291226227798e-26
1.1192775983109025 3.562436021157241e-24 1.058410935201196e-16 1.0584109344399129e-16 7.612832225321621e-26
1.1277040513999907 3.604983339844615e-24 1.0791152642365693e-16 1.07911526333839e-16 8.981793389578752e-26
1.1361939428280308 3.647174280673783e-24 1.0999638675373655e-16 1.0999638664790193e-16 1.0583460761419813e-25
1.1447477501889525 3.688994896872456e-24 1.1209526968638278e-16 1.1209526956183313e-16 1.245496525920938e-25
1.1533659546722406 3.730454342309737e-24 1.1420846372416714e-16 1.142084635777774e-16 1.4638972903630701e-25
1.1707974979042381 3.812423949467167e-24 1.1848200852144334e-16 1.1848200831996795e-16 2.0147539402689613e-25
1.1884924949847024 3.892773942866654e-24 1.228075482765342e-16 1.228075480006188e-16 2.7591542031818437e-25
1.2064549276569216 3.972133318209187e-24 1.2720504944314787e-16 1.2720504906713506e-16 3.7601281382609853e-25
1.2246888378427687 4.049637062357926e-24 1.3164709953948027e-16 1.3164709902954295e-16 5.099373278076643e-25
1.2431983285522175 4.1251049318610796e-24 1.361271809870593e-16 1.3612718029881747e-16 6.882418386318953e-25
1.2619875648066055 4.198510201196533e-24 1.4064351806299165e-16 1.4064351713850384e-16 9.24487817253789e-25
1.3004222497298317 4.3379192659956086e-24 1.497391244998614e-16 1.4973912285504537e-16 1.6448160285322292e-24
1.3400274889804893 4.467330465455343e-24 1.5890267950730325e-16 1.589026766340988e-16 2.8732044469352135e-24
1.3808389325824078 4.5862769843767995e-24 1.6810194426461428e-16 1.681019393345841e-16 4.930030189729596e-24
1.4228933163050095 4.6953482267366706e-24 1.7734117406578565e-16 1.7734116575236948e-16 8.313416150527785e-24
1.466228494730424 4.7971699180038974e-24 1.867051037971407e-16 1.8670509001323199e-16 1.3783908713321064e-23
1.5108834753276823 4.8897897785930384e-24 1.961058696449211e-16 1.961058471637496e-16 2.2481171492297683e-23
1.5568984535646726 4.971631492094106e-24 2.054606466522159e-16 2.0546061054687482e-16 3.6105341093028084e-23
1.6043148490894465 5.0428588103544575e-24 2.1475132162769743e-16 2.1475126442354195e-16 5.720415551099577e-23
1.6531753430134553 5.103701954983013e-24 2.23961649184455e-16 2.239615598770153e-16 8.930743963258168e-23
1.7035239163302658 5.154885246699486e-24 2.3309699246120617e-16 2.330968550393043e-16 1.3742190189919925e-22
1.755405889504358 5.200516904258931e-24 2.4232236366425233e-16 2.4232215514302287e-16 2.0852122952991388e-22
1.8088679632656115 5.2396039512503065e-24 2.5157921698749524e-16 2.515789048649858e-16 3.121225094397269e-22
1.8639582606462262 5.271477139239297e-24 2.6081823013400576e-16 2.608177690782653e-16 4.61055740515125e-22
1.9207263702978936 5.296647354632193e-24 2.7004490705107533e-16 2.700442346941879e-16 6.723568874814893e-22
1.979223391128241 5.316283389198319e-24 2.7930092328064236e-16 2.7929995492990353e-16 9.68350738832703e-22
2.039501978296691 5.331778314286527e-24 2.8864606938327104e-16 2.886446915144953e-16 1.3778687757151102e-21
2.1016163906111602 5.347015754700854e-24 2.9828701193899936e-16 2.982850741532803e-16 1.9377857190619516e-21
2.1656225393682647 5.364249402328312e-24 3.0836221555220795e-16 3.0835952105913164e-16 2.694493076270082e-21
2.231578038680979 5.383641408053193e-24 3.189022891189294e-16 3.1889858352116927e-16 3.705597760111976e-21
2.299542257339062 5.4065379515598415e-24 3.3001226716471385e-16 3.300072253877367e-16 5.0417769771871975e-21
2.369576372248914 5.435907513573547e-24 3.4191031476954184e-16 3.419035259354269e-16 6.78883411503069e-21
2.4417434235010123 5.4752528769961886e-24 3.548735587949203e-16 3.5486450927687146e-16 9.04951804881609e-21
2.5161083711144245 5.530573511449365e-24 3.693762304751073e-16 3.693642846418272e-16 1.1945833280100194e-20
2.5927381535095444 5.611685422799701e-24 3.8620812770519387e-16 3.8619250678394964e-16 1.5620921244120215e-20
2.6717017477616296 5.7302884446503686e-24 4.0638146455672007e-16 4.063612246007215e-16 2.0239955998584193e-20
2.753070231689431 5.903993628494648e-24 4.3145211643134986e-16 4.3142612480201904e-16 2.5991629330877962e-20
2.836916847834745 6.17273215604746e-24 4.648292750787452e-16 4.647961847719573e-16 3.309030678788148e-20
2.9233170693905177 6.624454758407954e-24 5.140383180931456e-16 5.139965486001881e-16 4.176949295735034e-20
2.967498994190263 7.005775521418992e-24 5.518438806343437e-16 5.517971767378447e-16 4.670389649886825e-20
3.0123486681368425 7.450566272227042e-24 5.957498662842783e-16 5.956977146048274e-16 5.215167945064258e-20
3.0578761833420214 8.44152120808237e-24 6.851884685406681e-16 6.85130294953041e-16 5.817358762705736e-20
3.1040917844459814 9.71731220439098e-24 8.006637083003835e-16 8.005989402011758e-16 6.476809920758077e-20
3.127460860933648 1.1064985982679669e-23 9.18569845617739e-16 9.185015302103249e-16 6.831540741421286e-20
3.1510058709225794 1.285986142728356e-23 1.0756102550991905e-15 1.0755382300249472e-15 7.202507424328841e-20
3.162844764501044 1.4530008829288086e-23 1.2198689808520343e-15 1.2197950313451618e-15 7.394950687275693e-20
3.1747281389236908 1.647189945174614e-23 1.3880964929647687e-15 1.388020576615323e-15 7.591634944577303e-20
3.1986289994194426 2.188725300541483e-23 1.858337375016001e-15 1.8582573851199617e-15 7.998989603919734e-20
3.2227097969389145 3.4650270492794155e-23 2.964130100325542e-15 2.9640457811733187e-15 8.431915222340476e-20
3.2348180950136065 4.6752582904664816e-23 4.014439395092119e-15 4.014352762267285e-15 8.663282483387133e-20
3.240889293275058 5.580050960039034e-23 4.8003377392551795e-15 4.8002498859299896e-15 8.785332519132374e-20
3.2469718861334385 6.626769505226826e-23 5.7114953351215704e-15 5.711406218840471e-15 8.911628109976067e-20
3.2714166318528037 1.2209574655089912e-22 1.060244003926242e-14 1.0602345693289716e-14 9.434597270202326e-20
3.2744851364798273 1.2558580899935376e-22 1.091573601132335e-14 1.0915641046133422e-14 9.496518992594317e-20
3.2775565192852394 1.2917607143508298e-22 1.1238327788843449e-14 1.1238232201063835e-14 9.558777961410289e-20
3.283707930232385 1.2572380853807066e-22 1.0958509372975484e-14 1.0958412665961487e-14 9.670701399855834e-20
3.2898708863219004 1.1477482555559873e-22 1.0022935335580744e-14 1.0022837604599802e-14 9.77309809403243e-20
3.29141343181113 1.1219274817323476e-22 9.802044196973307e-15 9.80194620872218e-15 9.79882511287174e-20
3.292184975758714 1.1092400169800661e-22 9.69346821299181e-15 9.69337009591343e-15 9.811707838086964e-20
3.295272960557952 1.0291607659710501e-22 9.002104484261675e-15 9.002005865053488e-15 9.861920818786453e-20
3.3076538914384823 7.517287845560607e-23 6.600102382776512e-15 6.600001743927439e-15 1.0063884907415373e-19
3.310756385682612 6.952606584073391e-23 6.110043663289066e-15 6.109942514779532e-15 1.0114850953396805e-19
3.313861789986515 6.431585804418893e-23 5.6574652170766346e-15 5.6573635569994345e-15 1.0166007720067355e-19
3.3200813396944477 5.700936704739066e-23 5.02417057928205e-15 5.024067821332601e-15 1.0275794944874656e-19
3.345076488085796 4.3977470209917484e-23 3.904862347096911e-15 3.904754702560195e-15 1.0764453671639967e-19
3.3482140837626964 4.446653821419269e-23 3.951991230459884e-15 3.951882924161723e-15 1.0830629816034673e-19
3.3513546224236106 4.49610067341409e-23 3.999685514093166e-15 3.9995765427373355e-15 1.0897135583067954e-19
3.3576445397418455 4.857319328804948e-23 4.329131779250744e-15 4.329021418339325e-15 1.1036091141770436e-19
3.3702598118196083 6.189461078105318e-23 5.5371418712438786e-15 5.537028594942535e-15 1.1327630134399248e-19
3.382922481734668 6.492997156001198e-23 5.830511978459275e-15 5.8303958577256834e-15 1.1612073358970547e-19
3.389271646505754 6.650244604558605e-23 5.982923241149157e-15 5.982805676514147e-15 1.175646350099948e-19
3.395632727569191 6.819708211652583e-23 6.146897015843613e-15 6.146777963067226e-15 1.1905277638435923e-19
3.421196662673239 7.633452303697977e-23 6.932158260935108e-15 6.9320330356088304e-15 1.2522532627973467e-19
3.4276182099114902 7.469629875490998e-23 6.79611872675331e-15 6.7959921122064856e-15 1.266145468256416e-19
3.4340518103208963 6.751502481208895e-23 6.154272297584611e-15 6.15414436339407e-15 1.2793419054258085e-19
3.4469541582030403 5.728718104603296e-23 5.241582104286703e-15 5.241451625573613e-15 1.3047871308993972e-19
3.472904465399547 5.442191297220865e-23 5.016907262917888e-15 5.0167709386100976e-15 1.3632430779009412e-19
3.4990501388274233 5.0039277113336443e-23 4.647620148252585e-15 4.647477814598858e-15 1.4233365372787164e-19
3.5253949054701885 3.443966861650504e-23 3.2228208866719994e-15 3.22267267172173e-15 1.482149502694928e-19
3.5519380250092896 1.977649180264544e-23 1.8645930716225485e-15 1.8644389099463785e-15 1.5416167616961238e-19
3.578680990867387 1.396355058358478e-23 1.3264420529186054e-15 1.3262813666875765e-15 1.60686231029025e-19
3.605625307711299 1.1613557960601112e-23 1.1115149750104892e-15 1.1113473945362572e-15 1.675804742322489e-19
3.660119384959845 9.901656549644292e-24 9.619943972001426e-16 9.618122327081941e-16 1.8216449194828223e-19
3.715437065384467 8.690115255032872e-24 8.570474731465578e-16 8.568497871433517e-16 1.9768600320564533e-19
3.8285932144167436 8.080372794092935e-24 8.2118320039465585e-16 8.20951633657893e-16 2.3156673676320997e-19
3.94519561050918 7.968601745372876e-24 8.344880012139255e-16 8.342186867658698e-16 2.693144480556328e-19
4.06534921144712 8.061211059561105e-24 8.698964976605499e-16 8.695853957297968e-16 3.1110193075335377e-19
4.189162171576248 8.27206813204167e-24 9.198366486897221e-16 9.194794162073122e-16 3.5723248240972646e-19
4.316745939156006 8.56900230707767e-24 9.818749537777671e-16 9.814671495244088e-16 4.078042533583085e-19
4.448215356677963 8.941135567495917e-24 1.0557179795809242e-15 1.0552555410097882e-15 4.624385711360927e-19
4.58368876423945 9.389639356874435e-24 1.1424401722515848e-15 1.141918696053351e-15 5.214761982334291e-19
4.723288106065518 9.924598343232766e-24 1.2443048949610411e-15 1.2437193319041928e-15 5.855630568485949e-19
4.867139040275056 1.0566302621603329e-23 1.3651055453541288e-15 1.3644519794214703e-15 6.535659326586067e-19
4.940699165968905 1.0952847588375207e-23 1.4364313943205236e-15 1.4357420778771747e-15 6.893164433485682e-19
5.015371051989984 1.135277172907631e-23 1.5113825634750124e-15 1.5106563720168766e-15 7.261914581363942e-19
5.091171501069577 1.1840474325074429e-23 1.6001336576564644e-15 1.5993687426015704e-15 7.649150548940145e-19
5.129500256944802 1.2090618484992353e-23 1.646239455898823e-15 1.6454547516239107e-15 7.8470427491258965e-19
5.168117569889187 1.2351311301772231e-23 1.6943958760127093e-15 1.6935909461668055e-15 8.049298459042718e-19
5.20702561229733 1.2671344784278409e-23 1.7513859245277662e-15 1.750559139384272e-15 8.267851434946463e-19
5.246226572918644 1.2999419378448144e-23 1.8102578141126596e-15 1.809408812978557e-15 8.490011341028817e-19
5.265937586045735 1.3166552143463091e-23 1.840421100542235e-15 1.839560856173898e-15 8.602443683369103e-19
5.285722656980489 1.3335792655833308e-23 1.8710812183391013e-15 1.8702096406014273e-15 8.715777376742332e-19
5.305582063971359 1.3507174901378002e-23 1.9022473724814134e-15 1.9013643712653812e-15 8.83001216031926e-19
5.3255160863122235 1.3691318913834374e-23 1.9354253298189864e-15 1.9345307452936868e-15 8.94584525299723e-19
5.365609099470188 1.415025455506048e-23 2.0153603755105457e-15 2.014441808788835e-15 9.18566721710508e-19
5.406003951863644 1.4626517092170767e-23 2.0988756778209235e-15 2.0979327310936713e-15 9.429467272526324e-19
5.446702915881641 1.5120945626102766e-23 2.186160648337082e-15 2.1851929232816825e-15 9.67725055399606e-19
5.487708281020852 1.565515626114852e-23 2.280435833940348e-15 2.2794428486119035e-15 9.929853284447938e-19
5.529022354014368 1.639846503983639e-23 2.4066945647042857e-15 2.4056751841900404e-15 1.0193805142453394e-18
5.570647458961463 1.718542272813978e-23 2.5411794068810764e-15 2.5401331875195858e-15 1.0462193614904793e-18
5.612585937458331 1.8019177166808458e-23 2.6845246256314903e-15 2.6834511224241952e-15 1.073503207294868e-18
5.654840148729818 1.8935652345269344e-23 2.8423007997545963e-15 2.841199460308247e-15 1.10133944634898e-18
5.67608639626678 1.9560400162500005e-23 2.947108775178703e-15 2.9459928861841148e-15 1.1158889945886063e-18
5.686739436050992 1.9882408043289712e-23 3.001247042333019e-15 3.000123831529168e-15 1.123210803851475e-18
5.6974124697621304 2.021104370308907e-23 3.056580484930161e-15 3.05544992090859e-15 1.1305640215704156e-18
5.718818669136295 2.088883743250744e-23 3.1709546382892545e-15 3.1698092734529324e-15 1.1453648363218138e-18
5.740305295436557 2.163608755865958e-23 3.296728284067477e-15 3.2955679007775565e-15 1.160383289920399e-18
5.7835210386641895 2.3575669419848554e-23 3.619310026776554e-15 3.6181185060662465e-15 1.1915207103083402e-18
5.827062130521658 2.580999362190265e-23 3.9921511768246966e-15 3.990927742122771e-15 1.2234347019251603e-18
5.8489554468988025 2.737840567880156e-23 4.25065542379513e-15 4.249414847385761e-15 1.2405764093685412e-18
5.870931020387893 2.906135516800198e-23 4.528895219037012e-15 4.527637332073051e-15 1.257886963962177e-18
5.892989160043636 3.0868060684065496e-23 4.828524291853308e-15 4.827248924652724e-15 1.275367200583086e-18
5.915130176081913 3.292298579130701e-23 5.1693144878992614e-15 5.1680210202120905e-15 1.2934676871715382e-18
5.95966208400165 3.8670660590379265e-23 6.1174814303114706e-15 6.116147313168388e-15 1.3341171430816085e-18
6.004529249263818 4.695650222868195e-23 7.48417849586861e-15 7.482798923992691e-15 1.3795718759167725e-18
6.027089341400364 5.271717911809708e-23 8.433915111628497e-15 8.432509576479952e-15 1.405535148543944e-18
6.049734195844842 5.952459517990773e-23 9.558773639548158e-15 9.557340651177992e-15 1.4329883701672512e-18
6.095279466722835 7.919071130644441e-23 1.2812600933169348e-14 1.2811101527693112e-14 1.4994054762413011e-18
6.141167624020661 1.0945718041153442e-22 1.7842867126436207e-14 1.7841282827436338e-14 1.5842989998669847e-18
6.164241091010745 1.2878644292835656e-22 2.107265210938873e-14 2.1071015172524583e-14 1.6369368641436067e-18
6.187401249150058 1.5080358981049233e-22 2.4767911862352404e-14 2.4766220681164353e-14 1.691181188049862e-18
6.1990139391386085 1.6155404650648386e-22 2.6583360840156197e-14 2.658164201602022e-14 1.7188241359731683e-18
6.204828454712694 1.6721684128130585e-22 2.7540969702049477e-14 2.753923689537385e-14 1.7328066756273518e-18
6.210648424152782 1.713504788177276e-22 2.8248259914851153e-14 2.8246515037857888e-14 1.744876993269112e-18
6.233982942956859 1.8539321853823419e-22 3.067813023823755e-14 3.067634260124329e-14 1.7876369942445006e-18
6.239830258556775 1.8718768328635086e-22 3.100412492603522e-14 3.100233085144805e-14 1.7940745871670636e-18
6.245683058788269 1.8734222405589148e-22 3.105882678326955e-14 3.10570262530948e-14 1.8005301747474633e-18
6.257405133728602 1.8695398409282904e-22 3.1052633091395654e-14 3.1050820963560086e-14 1.812127835568709e-18
6.269149208991335 1.8418897724601886e-22 3.0650790226998225e-14 3.064897240664106e-14 1.8178203571559262e-18
6.280915325867298 1.772586634804101e-22 2.9552882163007576e-14 2.9551065976123214e-14 1.8161868843704743e-18
6.304513850009849 1.6016946443315731e-22 2.6804070996797296e-14 2.6802264729227514e-14 1.8062675697880678e-18
6.32820103803542 1.389890975531996e-22 2.334696518922462e-14 2.334517591984821e-14 1.7892693764139645e-18
6.3519772230701035 1.1956529015743377e-22 2.0159673182945403e-14 2.0157898668588015e-14 1.7745143573877137e-18
6.375842739491607 1.0322349237324908e-22 1.746970527392224e-14 1.7467943234708805e-14 1.7620392134327353e-18
6.399797922933955 9.012642414852427e-23 1.5310445734166312e-14 1.5308687659991707e-14 1.75807417459999e-18
6.42384311029221 7.923654884004053e-23 1.3511075168658504e-14 1.3509319363439088e-14 1.7558052194153224e-18
6.447978639727206 7.13004526920814e-23 1.2203525427429516e-14 1.2201765190345111e-14 1.760237084410537e-18
6.472204850670314 6.468867182898495e-23 1.1113476156132643e-14 1.1111710120568812e-14 1.766035563830816e-18
6.496522083828205 6.039073858517668e-23 1.041407481315168e-14 1.0412297490353946e-14 1.7773227977367685e-18
