Dust emission spectrum from A.P. Jones, M. Kohler, N. Ysard, M. Bocchio, and L. Verstraete (2017), A&A, 602A, 46J 
inside the DustPedia framework.

lambda    nu*dP/dnu     j_nu    j_nu(carb.) j_nu(sil)
 (um)   (erg s-1 H-1) (Jy cm2 sr-1 H-1)
0.9927057738263894 1.5416721025020022e-19 4.062393555320069e-12 4.062393436651369e-12 1.186687017839839e-19
1.0001793341362166 1.5674991537790234e-19 4.161545285484121e-12 4.161545142724641e-12 1.4275947905559044e-19
1.0077091589558085 1.5934395928274086e-19 4.262262989086321e-12 4.262262817576303e-12 1.7151001993530658e-19
1.0114953028030835 1.6064513516385946e-19 4.313212763349861e-12 4.31321257545605e-12 1.8789381008347902e-19
1.0152956718711033 1.6194903019607574e-19 4.3645585063460445e-12 4.364558300572668e-12 2.0577337762290718e-19
1.0229392996569957 1.645635581183991e-19 4.4684094928235955e-12 4.4684092462710015e-12 2.465525939152082e-19
1.0267826658714554 1.6587122890105843e-19 4.520838820677647e-12 4.520838550924605e-12 2.697530422689856e-19
1.0306404723013447 1.6718141531848255e-19 4.573667864965504e-12 4.573667569928114e-12 2.9503738894599357e-19
1.03451277320114 1.6849408601594837e-19 4.6268982867511804e-12 4.6268979641679774e-12 3.2258320273215643e-19
1.0383996230291617 1.6980921095125535e-19 4.680531784617228e-12 4.680531432034928e-12 3.525823027184925e-19
1.0403485208654093 1.7046768473631004e-19 4.707500228509418e-12 4.707499859943483e-12 3.6856593626414258e-19
1.0423010764483396 1.7112676142520142e-19 4.73457009614135e-12 4.734569710899523e-12 3.8524182572347355e-19
1.0462171883269815 1.7244671011177253e-19 4.789014999391198e-12 4.789014578605829e-12 4.2078536745550034e-19
1.0471985131304309 1.7277706893504047e-19 4.802689967505593e-12 4.802689537355846e-12 4.3014974843708763e-19
1.048180758391296 1.7310757562825543e-19 4.816390490002768e-12 4.81639005028945e-12 4.3971331791254965e-19
1.0501480137395462 1.7376903108802702e-19 4.8438683144369495e-12 4.843867854982746e-12 4.594542020338838e-19
1.0521189612883777 1.7443107347479906e-19 4.871448707016391e-12 4.871448226975236e-12 4.800411550536679e-19
1.0531058218030118 1.7476188021929952e-19 4.8852653187639225e-12 4.8852648281005925e-12 4.906633292676764e-19
1.0540936079674168 1.7509141202868302e-19 4.8990678911255924e-12 4.8990673896131255e-12 5.015124670796842e-19
1.058054026499678 1.7641093203049708e-19 4.9545335292581734e-12 4.9545329820109995e-12 5.472471727559805e-19
1.0590464539527713 1.76741158570853e-19 4.96846392667471e-12 4.9684633673856756e-12 5.592890338856943e-19
1.06003981227728 1.7707152308755475e-19 4.982419980186465e-12 4.982419408602523e-12 5.715839414945621e-19
1.0620293250338977 1.7773266481882938e-19 5.010409178903833e-12 5.01040858195065e-12 5.969531823291395e-19
1.0660195594769086 1.790565907947526e-19 5.066696817850547e-12 5.066696166893767e-12 6.509567782246615e-19
1.070024785945596 1.8038269192086448e-19 5.123398474025367e-12 5.123397764415952e-12 7.096094149399875e-19
1.0740450607676866 1.8171095174875286e-19 5.180516227106002e-12 5.180515453816478e-12 7.73289524918379e-19
1.07808044048254 1.8304135544601277e-19 5.238052210146433e-12 5.238051367741989e-12 8.424044433150112e-19
1.0861967418109137 1.8570652824179916e-19 5.354329574801469e-12 5.354328576076366e-12 9.987251028049506e-19
1.0902777775684922 1.8703669502148756e-19 5.412942491883565e-12 5.412941404974133e-12 1.0869094290769925e-18
1.0943741465085532 1.8836888494760292e-19 5.4719790345254445e-12 5.471977852035398e-12 1.1824900469194219e-18
1.1026131145906286 1.9103931208496672e-19 5.591332669029607e-12 5.591331270804478e-12 1.398225128983427e-18
1.1109141095355224 1.9371778328850025e-19 5.712410470652971e-12 5.712408819500947e-12 1.6511520259543283e-18
1.1192775983109025 1.9640222991332005e-19 5.835171961084943e-12 5.835170013798852e-12 1.9472860893322586e-18
1.1277040513999907 1.9908316442345075e-19 5.9593529658620915e-12 5.9593506723148995e-12 2.293547191421069e-18
1.1361939428280308 2.017719361511798e-19 6.085309397618155e-12 6.085306699733143e-12 2.697885011344812e-18
1.1447477501889525 2.044686423704827e-19 6.21306568582121e-12 6.213062516401679e-12 3.1694195316844033e-18
1.1533659546722406 2.0717433201210656e-19 6.3426757201733544e-12 6.342672001568913e-12 3.718604441321312e-18
1.1707974979042381 2.1262086062991506e-19 6.60780305519565e-12 6.607797955680732e-12 5.09951491521842e-18
1.1884924949847024 2.181052613372e-19 6.880690429023408e-12 6.88068347098649e-12 6.95803692055038e-18
1.2064549276569216 2.2366424466122285e-19 7.162705534169292e-12 7.1626960873525295e-12 9.446816762909549e-18
1.2246888378427687 2.2926359786893674e-19 7.452985841614582e-12 7.452973078933005e-12 1.2762681575689117e-17
1.2431983285522175 2.34899353918824e-19 7.751605690724743e-12 7.751588532203484e-12 1.71585212576015e-17
1.2619875648066055 2.405804416790442e-19 8.059068115458245e-12 8.059045157849659e-12 2.2957608586231823e-17
1.3004222497298317 2.5204722730215663e-19 8.700330465966007e-12 8.700289948826269e-12 4.051713973699875e-17
1.3400274889804893 2.637019128851892e-19 9.379861389857346e-12 9.379791197965838e-12 7.01918915092757e-17
1.3808389325824078 2.755893098393694e-19 1.010124311295522e-11 1.010112369300006e-11 1.1941995516218828e-16
1.4228933163050095 2.8780668991206084e-19 1.087032821173007e-11 1.0870128582035411e-11 1.9962969465319045e-16
1.466228494730424 3.0055586557237853e-19 1.1697587335384606e-11 1.1697259277931678e-11 3.280574529253661e-16
1.5108834753276823 3.1381020795246635e-19 1.2585412976931526e-11 1.2584882772527797e-11 5.302044037298917e-16
1.5568984535646726 3.275528485667327e-19 1.3536646910841145e-11 1.3535803252079073e-11 8.436587620701958e-16
1.6043148490894465 3.418490774341835e-19 1.4557722898262123e-11 1.4556398743530514e-11 1.3241547316114361e-15
1.6531753430134553 3.5676398230909345e-19 1.5655586974381663e-11 1.56535394095008e-11 2.0475648808635053e-15
1.7035239163302658 3.723695604256585e-19 1.683805176359582e-11 1.6834931694563907e-11 3.1200690319139335e-15
1.755405889504358 3.889091710395533e-19 1.812154278353199e-11 1.8116855354178713e-11 4.687429353272337e-15
1.8088679632656115 4.063456297955125e-19 1.9510656973577438e-11 1.9503711500600098e-11 6.9454729773385386e-15
1.8639582606462262 4.2462498772378426e-19 2.1009279722452368e-11 2.099912572975022e-11 1.0153992702138883e-14
1.9207263702978936 4.437430919526514e-19 2.2623851277565694e-11 2.260919912318112e-11 1.4652154384581035e-14
1.979223391128241 4.637123825104567e-19 2.4362000121172533e-11 2.4341123436426387e-11 2.0876684746140754e-14
2.039501978296691 4.845241948664479e-19 2.623064878645636e-11 2.620126759461332e-11 2.938119184304224e-14
2.1016163906111602 5.063036198573285e-19 2.8244501387221134e-11 2.8203641054316603e-11 4.0860332904535056e-14
2.1656225393682647 5.290557976039957e-19 3.041260867347042e-11 3.03564385182552e-11 5.6170155215227066e-14
2.231578038680979 5.526176537700154e-19 3.2734541816097236e-11 3.265819113689728e-11 7.635067919996687e-14
2.299542257339062 5.768972580671259e-19 3.521350885938231e-11 3.5110860139941415e-11 1.0264871944089647e-13
2.369576372248914 6.018468538787856e-19 3.7855251719961026e-11 3.7718710263605716e-11 1.3654145635530965e-13
2.4417434235010123 6.274305366966168e-19 4.0666342259663673e-11 4.0486590558735226e-11 1.7975170092843424e-13
2.5161083711144245 6.537142614905165e-19 4.3660301995318e-11 4.3426032730951366e-11 2.342692643666275e-13
2.5927381535095444 6.808967880827075e-19 4.686076532684657e-11 4.6558405945144596e-11 3.023593817019734e-13
2.6717017477616296 7.091185882687666e-19 5.028937953622296e-11 4.9902830100931236e-11 3.8654943529172375e-13
2.753070231689431 7.386524735412963e-19 5.3979254225228853e-11 5.3489631539734847e-11 4.896226854940243e-13
2.836916847834745 7.704919403008475e-19 5.8020857054874794e-11 5.740623435820418e-11 6.146226966706156e-13
2.9233170693905177 8.069679517802026e-19 6.261835333114377e-11 6.185369270333705e-11 7.646606278067016e-13
2.967498994190263 8.292746289343124e-19 6.532183738168434e-11 6.447351456331374e-11 8.483228183705954e-13
3.0123486681368425 8.530175683608365e-19 6.820758097051425e-11 6.726764261954798e-11 9.39938350966278e-13
3.0578761833420214 8.928079074518057e-19 7.246818052440438e-11 7.142773606466818e-11 1.0404444597361966e-12
3.1040917844459814 9.393324106909024e-19 7.739685166549127e-11 7.624746367289106e-11 1.1493879926002188e-12
3.127460860933648 9.831509577572288e-19 8.161716832715614e-11 8.040961853474893e-11 1.2075497924071883e-12
3.1510058709225794 1.038904794646421e-18 8.689492165309079e-11 8.562686928283752e-11 1.2680523702532453e-12
3.162844764501044 1.0897529702969963e-18 9.149036734080275e-11 9.01910517935454e-11 1.2993155472573724e-12
3.1747281389236908 1.1472064366194977e-18 9.667574987590909e-11 9.534456846885143e-11 1.331181407057672e-12
3.1986289994194426 1.3027469605972953e-18 1.106097401289928e-10 1.0921282479311573e-10 1.3969153358770904e-12
3.2227097969389145 1.6639998379825393e-18 1.4234555564945993e-10 1.4087911046403643e-10 1.4664451854234959e-12
3.2348180950136065 2.0030922168207696e-18 1.7199674986096588e-10 1.7049323032444918e-10 1.5035195365166866e-12
3.240889293275058 2.256531280600401e-18 1.941221028920523e-10 1.9259902727416785e-10 1.5230756178844836e-12
3.2469718861334385 2.5503246437959553e-18 2.1980796668115885e-10 2.1826465633594542e-10 1.543310345213417e-12
3.2714166318528037 4.0890077747346405e-18 3.550775598364416e-10 3.5345073092383057e-10 1.6268289126109299e-12
3.2744851364798273 4.184930257197871e-18 3.637480562282842e-10 3.6211141384469866e-10 1.6366423835854982e-12
3.2775565192852394 4.283394756906844e-18 3.7265566131823564e-10 3.7100915903974735e-10 1.6465022784883374e-12
3.283707930232385 4.187740144816179e-18 3.650174947942128e-10 3.63353418788991e-10 1.6640760052218268e-12
3.2898708863219004 3.88528916615059e-18 3.392904487883161e-10 3.3761043384467685e-10 1.6800149436392356e-12
3.29141343181113 3.813793308372408e-18 3.3320309178152087e-10 3.315190758432268e-10 1.6840159382939732e-12
3.292184975758714 3.778637244181972e-18 3.3020896698827944e-10 3.2852294811195764e-10 1.686018876321699e-12
3.295272960557952 3.559911301220044e-18 3.1138666132544956e-10 3.096928616333986e-10 1.6937996920510453e-12
3.3076538914384823 2.7958626264804984e-18 2.4547389912503196e-10 2.4374887457900665e-10 1.7250245460252506e-12
3.310756385682612 2.6385583779637755e-18 2.3188003955849403e-10 2.301471499814358e-10 1.7328895770582052e-12
3.313861789986515 2.4927157003032265e-18 2.1926866560401143e-10 2.1752788745588033e-10 1.7407781481310774e-12
3.3200813396944477 2.2889909699140623e-18 2.0172616681964875e-10 1.9996839572028116e-10 1.7577710993675755e-12
3.345076488085796 1.933019559776522e-18 1.716373238192991e-10 1.6980375559827552e-10 1.8335682210236115e-12
3.3482140837626964 1.94727088967501e-18 1.7306491101817325e-10 1.7122107177587495e-10 1.8438392422983264e-12
3.3513546224236106 1.9616485077788636e-18 1.7450625976192384e-10 1.7265210610390832e-10 1.854153658015482e-12
3.3576445397418455 2.063344104661431e-18 1.838974942834805e-10 1.8202176578278186e-10 1.8757285006986207e-12
3.3702598118196083 2.43172939020898e-18 2.1754447529674526e-10 2.156234969950373e-10 1.920978301708023e-12
3.382922481734668 2.5192303640718618e-18 2.262191475109988e-10 2.2425427882173774e-10 1.964868689261116e-12
3.389271646505754 2.564309395572462e-18 2.3069927788447006e-10 2.2871218040261416e-10 1.9870974818559347e-12
3.395632727569191 2.614040931595295e-18 2.3561477856575983e-10 2.336047727998771e-10 2.010005765882773e-12
3.421196662673239 2.8558011965231416e-18 2.5934354559962083e-10 2.572388078954303e-10 2.104737704190547e-12
3.4276182099114902 2.8116010939593058e-18 2.55808857538084e-10 2.5368307919953346e-10 2.125778338550576e-12
3.4340518103208963 2.6123925145648104e-18 2.3813032621332717e-10 2.359846959256518e-10 2.1456302876752987e-12
3.4469541582030403 2.326124724310655e-18 2.1283249593810983e-10 2.106488611315084e-10 2.183634806601402e-12
3.472904465399547 2.2450629825532503e-18 2.0696208875699115e-10 2.0469075493492588e-10 2.2713338220652423e-12
3.4990501388274233 2.1237651641111502e-18 1.9725412388599982e-10 1.9489326475640004e-10 2.3608591295997902e-12
3.5253949054701885 1.6992716238020133e-18 1.590157019888865e-10 1.5656822235928402e-10 2.4474796296024755e-12
3.5519380250092896 1.2950651298729279e-18 1.2210302477095563e-10 1.1956876667437642e-10 2.5342580965791936e-12
3.578680990867387 1.1371593331749792e-18 1.0802237950606794e-10 1.0539304281403958e-10 2.6293366920283464e-12
3.605625307711299 1.0761681231864233e-18 1.029983221859022e-10 1.0026901809458915e-10 2.729304091313019e-12
3.660119384959845 1.036999229464877e-18 1.0074955070845334e-10 9.781099738933362e-11 2.938553319119749e-12
3.715437065384467 1.0101193658424359e-18 9.962126216568671e-11 9.646324272351862e-11 3.158019442168074e-12
3.8285932144167436 1.0060413980589326e-18 1.0224086388582118e-10 9.861508023603439e-11 3.6257836497868128e-12
3.94519561050918 1.0136502465859249e-18 1.061514924741555e-10 1.0202148216494764e-10 4.130010309207853e-12
4.06534921144712 1.0247507300981948e-18 1.1058227659604848e-10 1.0591352699284356e-10 4.668749603204931e-12
4.189162171576248 1.0369363903116475e-18 1.1530515452044134e-10 1.100634941523197e-10 5.241660368121672e-12
4.316745939156006 1.0491915720795859e-18 1.2022110502745235e-10 1.1437605402172359e-10 5.845051005728759e-12
4.448215356677963 1.0610563616984922e-18 1.2528344637408715e-10 1.188146784042785e-10 6.468767969808648e-12
4.58368876423945 1.0724619714454165e-18 1.30486762358381e-10 1.2337455580742088e-10 7.1122065509601e-12
4.723288106065518 1.083589492821857e-18 1.358559473558905e-10 1.2807779659485746e-10 7.77815076103306e-12
4.867139040275056 1.0946559767915388e-18 1.4142325822828098e-10 1.32977198575151e-10 8.446059653129975e-12
4.940699165968905 1.1008152277026946e-18 1.4436844296970766e-10 1.3558587093131733e-10 8.782572038390293e-12
5.015371051989984 1.1064795828454994e-18 1.4730446346161643e-10 1.381849639907324e-10 9.119499470884042e-12
5.091171501069577 1.113688905700524e-18 1.5050504339983894e-10 1.4104037623466028e-10 9.464667165178667e-12
5.129500256944802 1.1170885433960623e-18 1.521010060944211e-10 1.4246411176628217e-10 9.636894328138956e-12
5.168117569889187 1.1205364727613615e-18 1.5371909362338332e-10 1.439082709616304e-10 9.81082266175295e-12
5.20702561229733 1.1254364392780575e-18 1.5555361899297294e-10 1.4555123199496952e-10 1.00023869980034e-11
5.246226572918644 1.1302460706170741e-18 1.5739447444836123e-10 1.4720030937425478e-10 1.0194165074106422e-11
5.265937586045735 1.1326179209861357e-18 1.583173710112156e-10 1.4802727012659383e-10 1.0290100884621765e-11
5.285722656980489 1.1349683094650145e-18 1.592419694918668e-10 1.4885591954208808e-10 1.038604994977873e-11
5.305582063971359 1.1372976410082258e-18 1.6016831536818964e-10 1.4968631661474475e-10 1.0481998753444858e-11
5.3255160863122235 1.139892236345606e-18 1.6113687230366597e-10 1.505580445243377e-10 1.0578827779328245e-11
5.365609099470188 1.1472301171508893e-18 1.6339509022269612e-10 1.5261577700146015e-10 1.0779313221235962e-11
5.406003951863644 1.1545997850984546e-18 1.6568273850085474e-10 1.5470280309135736e-10 1.0979935409497468e-11
5.446702915881641 1.1620122517967455e-18 1.6800175865841983e-10 1.568211728872754e-10 1.1180585771144455e-11
5.487708281020852 1.1700177916615846e-18 1.7043269667479417e-10 1.5905054241983467e-10 1.13821542549595e-11
5.529022354014368 1.1828718944052695e-18 1.7360230680682212e-10 1.6201001783873503e-10 1.1592288968087041e-11
5.570647458961463 1.1961414832607596e-18 1.768714190545517e-10 1.6506892090708536e-10 1.180249814746635e-11
5.612585937458331 1.2098710929911152e-18 1.8024844935522692e-10 1.6823577770588853e-10 1.2012671649338372e-11
5.654840148729818 1.224911888207374e-18 1.838631157774992e-10 1.7163920372534473e-10 1.2223912052154473e-11
5.67608639626678 1.2361969172236758e-18 1.8625420504347798e-10 1.7391948906341698e-10 1.2334715980060966e-11
5.686739436050992 1.2419647439565588e-18 1.8747442494720924e-10 1.7508429607104187e-10 1.2390128876167353e-11
5.6974124697621304 1.2478191515592475e-18 1.8871166296054087e-10 1.7626611623611504e-10 1.244554672442579e-11
5.718818669136295 1.2597971739558967e-18 1.9123896698254999e-10 1.7868257673252288e-10 1.255639025002713e-11
5.740305295436557 1.2731474370069387e-18 1.939916888388124e-10 1.8132350947533565e-10 1.2668179363476825e-11
5.7835210386641895 1.3093443976494578e-18 2.010090667002079e-10 1.8811000289232967e-10 1.2899063807878315e-11
5.827062130521658 1.3505796904221513e-18 2.0890041196828706e-10 1.9576800366971353e-10 1.3132408298573538e-11
5.8489554468988025 1.380986093221436e-18 2.144060576866394e-10 2.0114679505845984e-10 1.3259262628179624e-11
5.870931020387893 1.4132049788226178e-18 2.2023258155407919e-10 2.0684627493006298e-10 1.3386306624016194e-11
5.892989160043636 1.4473812395788304e-18 2.2640604301023687e-10 2.1289251718056466e-10 1.3513525829672234e-11
5.915130176081913 1.4863485449241126e-18 2.333750382194354e-10 2.1972935640589837e-10 1.3645681813537019e-11
5.95966208400165 1.598020704954035e-18 2.527979051446992e-10 2.3884633828730904e-10 1.3951566857390149e-11
6.004529249263818 1.7597565940102717e-18 2.8047941890377796e-10 2.6618093196133505e-10 1.4298486942442824e-11
6.027089341400364 1.8730255558964595e-18 2.9965447325914755e-10 2.8515317448343736e-10 1.450129877571019e-11
6.049734195844842 2.005893840929792e-18 3.2211701923314824e-10 3.0740036666847144e-10 1.4716652564676698e-11
6.095279466722835 2.3908534960936876e-18 3.86826323816949e-10 3.715723717126106e-10 1.5253952104338374e-11
6.141167624020661 2.979276191811623e-18 4.856586751420456e-10 4.696975307709033e-10 1.5961144371142383e-11
6.164241091010745 3.3541023311065077e-18 5.488142226431094e-10 5.324045098056108e-10 1.6409712837498628e-11
6.187401249150058 3.775377857766226e-18 6.200663137113519e-10 6.031969104099647e-10 1.686940330138708e-11
6.1990139391386085 3.9795622713158994e-18 6.548281651367757e-10 6.377250227705891e-10 1.710314236618647e-11
6.204828454712694 4.086646086080785e-18 6.730793093406711e-10 6.558582061921395e-10 1.722110314853141e-11
6.210648424152782 4.163627972883098e-18 6.864016136882737e-10 6.690810397468195e-10 1.732057394145414e-11
6.233982942956859 4.420187542409267e-18 7.314350016287181e-10 7.137719879402079e-10 1.766301368851029e-11
6.239830258556775 4.450064340970076e-18 7.370695995273915e-10 7.193623668579617e-10 1.7707232669429697e-11
6.245683058788269 4.447927294605324e-18 7.374066582369e-10 7.196551699974331e-10 1.7751488239466968e-11
6.257405133728602 4.430007926066402e-18 7.358142774417134e-10 7.179872514923336e-10 1.7827025949379865e-11
6.269149208991335 4.365832323515086e-18 7.265158464698597e-10 7.086703934023694e-10 1.7845453067490562e-11
6.280915325867298 4.2210263749485955e-18 7.03737084645169e-10 6.859436978273348e-10 1.779338681783432e-11
6.304513850009849 3.870717209221929e-18 6.477575438719627e-10 6.301318633723876e-10 1.762568049957504e-11
6.32820103803542 3.4459397855186296e-18 5.788384674263651e-10 5.614481095358739e-10 1.7390357890491243e-11
6.3519772230701035 3.058912585911391e-18 5.157573568882276e-10 4.985805755362989e-10 1.717678135192868e-11
6.375842739491607 2.7326628992742688e-18 4.6248014251138733e-10 4.454945223040659e-10 1.6985620207321475e-11
6.399797922933955 2.473152919037737e-18 4.201328735379798e-10 4.0325852020173424e-10 1.687435333624563e-11
6.42384311029221 2.2564447515976917e-18 3.847592443016072e-10 3.6798011596342786e-10 1.6779128338179206e-11
6.447978639727206 2.0982225602724105e-18 3.591241205335907e-10 3.4237819109491976e-10 1.674592943867096e-11
6.472204850670314 1.9655942461205846e-18 3.376879470433766e-10 3.2096296820962034e-10 1.6724978833756142e-11
