Dust emission spectrum from A.P. Jones, M. Kohler, N. Ysard, M. Bocchio, and L. Verstraete (2017), A&A, 602A, 46J 
inside the DustPedia framework.

lambda    nu*dP/dnu     j_nu    j_nu(carb.) j_nu(sil)
 (um)   (erg s-1 H-1) (Jy cm2 sr-1 H-1)
0.9927057738263894 1.1508195274190677e-24 3.0324748199934675e-17 3.032474819988448e-17 5.0197165142425865e-29
1.0001793341362166 1.1698216560617451e-24 3.105753381687172e-17 3.105753381681124e-17 6.046897423451377e-29
1.0077091589558085 1.1887964121023729e-24 3.1798902020952704e-17 3.179890202087996e-17 7.27491138299051e-29
1.0114953028030835 1.1982711885218191e-24 3.217276750406979e-17 3.217276750399003e-17 7.975634857700091e-29
1.0152956718711033 1.2077363249686364e-24 3.254873366134367e-17 3.2548733661256267e-17 8.741028590268092e-29
1.0229392996569957 1.226624688519832e-24 3.3306653459512126e-17 3.330665345940724e-17 1.0489171225232552e-28
1.0267826658714554 1.2360249972647776e-24 3.368799898562114e-17 3.368799898550629e-17 1.1485101151950754e-28
1.0306404723013447 1.2454115099891632e-24 3.407136248394873e-17 3.4071362483823026e-17 1.2571520333163414e-28
1.03451277320114 1.2547833209452046e-24 3.445672744487778e-17 3.445672744474022e-17 1.3756249121770916e-28
1.0383996230291617 1.2641395294263765e-24 3.484407715297425e-17 3.484407715282376e-17 1.5047746333441782e-28
1.0403485208654093 1.2688115026891413e-24 3.5038491008332806e-17 3.503849100817544e-17 1.573636300506565e-28
1.0423010764483396 1.2734792399401037e-24 3.523339469094456e-17 3.523339469078e-17 1.6455158080073312e-28
1.0462171883269815 1.2828015623766549e-24 3.5624662943598075e-17 3.5624662943418184e-17 1.7988370065195568e-28
1.0471985131304309 1.2851293223149215e-24 3.5722782781722446e-17 3.5722782781538506e-17 1.8392562741385472e-28
1.048180758391296 1.2874559264192673e-24 3.582102318629736e-17 3.5821023186109304e-17 1.880545635895127e-28
1.0501480137395462 1.2921056121741928e-24 3.601786460181264e-17 3.601786460161606e-17 1.965806356545542e-28
1.0521189612883777 1.2967505099645145e-24 3.621518499685285e-17 3.621518499664737e-17 2.054766097994613e-28
1.0531058218030118 1.2990675607398988e-24 3.631392437097979e-17 3.631392437076973e-17 2.1006835520439077e-28
1.0540936079674168 1.3013716821786144e-24 3.6412455349534386e-17 3.641245534931963e-17 2.1475935446086835e-28
1.058054026499678 1.3105750336736494e-24 3.680774129021793e-17 3.680774128998339e-17 2.3454705974565877e-28
1.0590464539527713 1.3128725206852285e-24 3.690685187362338e-17 3.690685187338363e-17 2.397604222528698e-28
1.06003981227728 1.3151686405190853e-24 3.700607753058577e-17 3.700607753034069e-17 2.450847050337364e-28
1.0620293250338977 1.3197567251867136e-24 3.7204872928316253e-17 3.7204872928060176e-17 2.5607505853312645e-28
1.0660195594769086 1.3289159016629093e-24 3.760383206371075e-17 3.760383206343125e-17 2.7948855829974794e-28
1.070024785945596 1.3380517145279355e-24 3.8004600327103256e-17 3.8004600326798306e-17 3.0494417949116184e-28
1.0740450607676866 1.3471633218276178e-24 3.8407159183997286e-17 3.840715918366466e-17 3.3261079306703915e-28
1.07808044048254 1.3562498883636017e-24 3.881148993867203e-17 3.881148993830937e-17 3.6267041476650446e-28
1.0861967418109137 1.3743285250626883e-24 3.9624928304379054e-17 3.9624928303948287e-17 4.307683176829761e-28
1.0902777775684922 1.383282421484096e-24 4.003293683448932e-17 4.0032936834020064e-17 4.692454165900125e-28
1.0943741465085532 1.3922073680496525e-24 4.0442610953494915e-17 4.0442610952983906e-17 5.109951375803691e-28
1.1026131145906286 1.4099672397375445e-24 4.126687750163026e-17 4.126687750102486e-17 6.05385945392597e-28
1.1109141095355224 1.4276018732207017e-24 4.2097569722675255e-17 4.2097569721958957e-17 7.162953399503562e-28
1.1192775983109025 1.4450887430681247e-24 4.293404060917295e-17 4.29340406083265e-17 8.464435386650267e-28
1.1277040513999907 1.4623465779686073e-24 4.3773864263074635e-17 4.377386426207567e-17 9.989689214113318e-28
1.1361939428280308 1.4794588029587612e-24 4.4619508187145945e-17 4.461950818596847e-17 1.177486988740275e-27
1.1447477501889525 1.4964197134710684e-24 4.547080601487712e-17 4.547080601349095e-17 1.3861577794481686e-27
1.1533659546722406 1.5132329882415005e-24 4.632787295736939e-17 4.6327872955739607e-17 1.6297637568608045e-27
1.1707974979042381 1.5464709981791119e-24 4.806102165264988e-17 4.806102165040532e-17 2.2445544721819528e-27
1.1884924949847024 1.579046884506321e-24 4.9815087992784476e-17 4.9815087989708473e-17 3.075998449768941e-27
1.2064549276569216 1.611215613079855e-24 5.1598157792396905e-17 5.159815778820199e-17 4.1949070672622794e-27
1.2246888378427687 1.6426256263250916e-24 5.339908144978537e-17 5.339908144409222e-17 5.6931576829763125e-27
1.2431983285522175 1.673203437815234e-24 5.521519354536378e-17 5.5215193537674226e-17 7.68955319210755e-27
1.2619875648066055 1.702937643472457e-24 5.704574473860033e-17 5.704574472826339e-17 1.0336927081451197e-26
1.3004222497298317 1.75938081256246e-24 6.073145357962135e-17 6.073145356120146e-17 1.8419895617145997e-26
1.3400274889804893 1.811734487098487e-24 6.44432881744278e-17 6.444328814219927e-17 3.222852046372651e-26
1.3808389325824078 1.8598047928072016e-24 6.816788490720017e-17 6.816788485180765e-17 5.539251572156347e-26
1.4228933163050095 1.9038262912978416e-24 7.190665599486853e-17 7.190665590129952e-17 9.35689966660204e-26
1.466228494730424 1.944859695624535e-24 7.569363552866322e-17 7.569363537324609e-17 1.5541715493538e-25
1.5108834753276823 1.9821069666850374e-24 7.94927446845924e-17 7.949274443064546e-17 2.539468978195781e-25
1.5568984535646726 2.0149225347103774e-24 8.326990598439145e-17 8.326990557577607e-17 4.0861539531606517e-25
1.6043148490894465 2.043366856612697e-24 8.701725539624346e-17 8.701725474759657e-17 6.486468785189831e-25
1.6531753430134553 2.0675269556858627e-24 9.072762297113069e-17 9.072762195645118e-17 1.0146795050280211e-24
1.7035239163302658 2.087690622530082e-24 9.440256805188868e-17 9.440256648736546e-17 1.564523188984651e-24
1.755405889504358 2.1055185261972104e-24 9.810836795648991e-17 9.810836557753467e-17 2.3789552380248125e-24
1.8088679632656115 2.120601132897709e-24 1.0182051497039088e-16 1.0182051140179655e-16 3.5685943511357556e-24
1.8639582606462262 2.132661214491606e-24 1.0551822738614926e-16 1.0551822210305004e-16 5.2830992335755975e-24
1.9207263702978936 2.141900511469113e-24 1.0920291380668912e-16 1.0920290608474143e-16 7.721947674210323e-24
1.979223391128241 2.148788077626039e-24 1.1289061362582694e-16 1.1289060247823608e-16 1.11475909023279e-23
2.039501978296691 2.153885127848529e-24 1.1660471223844506e-16 1.1660469633802036e-16 1.5900424692834616e-23
2.1016163906111602 2.1587629135442705e-24 1.2042809830880596e-16 1.2042807589106123e-16 2.2417744714907735e-23
2.1656225393682647 2.1643325999448333e-24 1.2441598920087125e-16 1.2441595794849412e-16 3.125237713840418e-23
2.231578038680979 2.1706595906508728e-24 1.2857994429588913e-16 1.2857990120153227e-16 4.3094356851239e-23
2.299542257339062 2.1782894515162764e-24 1.3296165621633496e-16 1.3296159742136312e-16 5.87949718273843e-23
2.369576372248914 2.1884282268742723e-24 1.376488069439648e-16 1.3764872755016072e-16 7.939380407189226e-23
2.4417434235010123 2.202499959037607e-24 1.4275304105006835e-16 1.4275293490631379e-16 1.061437545930242e-22
2.5161083711144245 2.2229433137549067e-24 1.4846605331161214e-16 1.484659127689386e-16 1.4054267346555604e-22
2.5927381535095444 2.2537489836749177e-24 1.551077991232655e-16 1.5510761476225564e-16 1.8436100987116082e-22
2.6717017477616296 2.2996812671374788e-24 1.630891447053506e-16 1.6308890504661032e-16 2.396587402976737e-22
2.753070231689431 2.3679130874893922e-24 1.7304238070176922e-16 1.7304207189123655e-16 3.0881053267397203e-22
2.836916847834745 2.4746960300476245e-24 1.8635364901752935e-16 1.8635325447756796e-16 3.945399614802975e-22
2.9233170693905177 2.6558234799475313e-24 2.0608413591349053e-16 2.0608363605770256e-16 4.998557880361703e-22
2.967498994190263 2.8096048023407342e-24 2.213121463044763e-16 2.2131158629102844e-16 5.600134479104856e-22
3.0123486681368425 2.9891949509823987e-24 2.390170662575829e-16 2.390164396776379e-16 6.265799449458619e-22
3.0578761833420214 3.390958845626361e-24 2.752401896585375e-16 2.752394893373523e-16 7.003211852411721e-22
3.1040917844459814 3.9086639998946455e-24 3.2205669086578407e-16 3.2205590957235825e-16 7.812934258476856e-22
3.127460860933648 4.4562902653614444e-24 3.699429775589802e-16 3.6994215262163506e-16 8.249373450234531e-22
3.1510058709225794 5.1859205567763326e-24 4.337550108560227e-16 4.33754140212453e-16 8.706435696580716e-22
3.162844764501044 5.8650772124055704e-24 4.924034008358013e-16 4.924025064563299e-16 8.943794714330374e-22
3.1747281389236908 6.654881761190298e-24 5.608107347221697e-16 5.608098160660699e-16 9.186560998412885e-22
3.1986289994194426 8.857873261838186e-24 7.520777934789909e-16 7.520768244886674e-16 9.689903234467132e-22
3.2227097969389145 1.4050812709549134e-23 1.2019657074559473e-15 1.2019646849002208e-15 1.022555726957995e-21
3.2348180950136065 1.8975333291619413e-23 1.6293287080248026e-15 1.6293276568219782e-15 1.0512028244267248e-21
3.240889293275058 2.2657044968666416e-23 1.949112450799737e-15 1.9491113844833123e-15 1.0663164248874135e-21
3.2469718861334385 2.6916214824307265e-23 2.3198609109145257e-15 2.3198598289573963e-15 1.0819571292038342e-21
3.2714166318528037 4.963529207740713e-23 4.3101846128816735e-15 4.310183466099281e-15 1.1467823929667623e-21
3.2744851364798273 5.1055517293109383e-23 4.437671366961565e-15 4.437670212488983e-15 1.1544725805319795e-21
3.2775565192852394 5.251653444993667e-23 4.568942389450816e-15 4.568941227244645e-15 1.1622061744601308e-21
3.283707930232385 5.1111434932521233e-23 4.455044317279444e-15 4.4550431411431195e-15 1.1761363244523201e-21
3.2898708863219004 4.6655524268896006e-23 4.074284587505103e-15 4.074283398598936e-15 1.1889061648218272e-21
3.29141343181113 4.5604710050404564e-23 3.984387500821212e-15 3.984386308705857e-15 1.1921153553911568e-21
3.292184975758714 4.508837726603523e-23 3.94020000282364e-15 3.940198809101174e-15 1.1937224661887777e-21
3.295272960557952 4.182924493395288e-23 3.658818387212103e-15 3.6588171872209774e-15 1.1999911254991467e-21
3.3076538914384823 3.0538632453104463e-23 2.681260914327001e-15 2.6812596891075638e-15 1.2252194364030855e-21
3.310756385682612 2.8240708231867894e-23 2.4818312138384375e-15 2.4818299822493915e-15 1.2315890462897185e-21
3.313861789986515 2.6120516433969022e-23 2.29765904818882e-15 2.2976578102050387e-15 1.2379837821891662e-21
3.3200813396944477 2.3147181553082748e-23 2.0399347436294933e-15 2.0399334919326175e-15 1.2516968758211863e-21
3.345076488085796 1.7843022584125412e-23 1.5843236710655231e-15 1.5843223583501519e-15 1.3127153716134263e-21
3.3482140837626964 1.804191176466936e-23 1.6034861254827015e-15 1.6034848045036624e-15 1.3209790389109592e-21
3.3513546224236106 1.8242999728932777e-23 1.6228787353645146e-15 1.6228774060789262e-15 1.3292855884152356e-21
3.3576445397418455 1.9712633391536697e-23 1.756907089923957e-15 1.7569057432860795e-15 1.3466378766586388e-21
3.3702598118196083 2.5133280373136172e-23 2.248443561719677e-15 2.248442178668073e-15 1.383051602882334e-21
3.382922481734668 2.6367838874801156e-23 2.3677509278364438e-15 2.36774950920607e-15 1.4186303737786823e-21
3.389271646505754 2.7007424355297765e-23 2.429735392712124e-15 2.429733956009653e-15 1.4367024701933683e-21
3.395632727569191 2.7696607324673066e-23 2.4964146211142647e-15 2.496413165784558e-15 1.455329706825804e-21
3.421196662673239 3.100579433400306e-23 2.8157256347195553e-15 2.8157241020597754e-15 1.532659780408709e-21
3.4276182099114902 3.033885999504582e-23 2.7603308061783258e-15 2.76032925605754e-15 1.5501207859073263e-21
3.4340518103208963 2.741647916484744e-23 2.4991248791086055e-15 2.499123312374468e-15 1.566734137674599e-21
3.4469541582030403 2.3254468839482306e-23 2.1277047585179427e-15 2.1277031596941654e-15 1.5988237774925073e-21
3.472904465399547 2.2087972206461098e-23 2.036189140251493e-15 2.036187467763735e-15 1.6724877577754024e-21
3.4990501388274233 2.0303910133265034e-23 1.88581584841725e-15 1.8858141000568534e-15 1.748360396445771e-21
3.5253949054701885 1.3955024931412175e-23 1.3058936868350066e-15 1.3058918640033915e-15 1.822831615195294e-21
3.5519380250092896 7.987854697738025e-24 7.531213662747612e-16 7.5311946796033465e-16 1.8983144264886776e-21
3.578680990867387 5.621795682959436e-24 5.340322407368169e-16 5.34030259549366e-16 1.9811874508841706e-21
3.605625307711299 4.664714082557032e-24 4.464522908908863e-16 4.464502220036902e-16 2.0688871962934256e-21
3.660119384959845 3.9663576317468026e-24 3.8535105715917037e-16 3.853488022029063e-16 2.2549562640674357e-21
3.715437065384467 3.4717139827246435e-24 3.4239174154318776e-16 3.4238928774053085e-16 2.4538026569858818e-21
3.8285932144167436 3.2201479267102363e-24 3.272536363833654e-16 3.2725074560309304e-16 2.8907802723875423e-21
3.94519561050918 3.1711907407802028e-24 3.32093472268007e-16 3.320900900487917e-16 3.3822192153274615e-21
4.06534921144712 3.2053858287517216e-24 3.458976431059596e-16 3.458937113247388e-16 3.931781220929721e-21
4.189162171576248 3.287687980862158e-24 3.6558401671521576e-16 3.6557947171384544e-16 4.5450013704208015e-21
4.316745939156006 3.4050178562065844e-24 3.901623118264156e-16 3.9015708675854593e-16 5.225067869593489e-21
4.448215356677963 3.55295846996245e-24 4.195129476707156e-16 4.1950697848236315e-16 5.969188352436398e-21
4.58368876423945 3.7319945835823774e-24 4.540728746720542e-16 4.540660905250096e-16 6.784147044426552e-21
4.723288106065518 3.9462336600351416e-24 4.947623762718746e-16 4.9475469511434425e-16 7.681157530317876e-21
4.867139040275056 4.2039412308440605e-24 5.431250355100355e-16 5.43116387072847e-16 8.64843718851464e-21
4.940699165968905 4.359525916506619e-24 5.717380654023157e-16 5.717289022260934e-16 9.163176222097316e-21
5.015371051989984 4.5205836554345014e-24 6.018205489021785e-16 6.01810850252704e-16 9.698649474597735e-21
5.091171501069577 4.717333680342286e-24 6.375052374656186e-16 6.374949723243727e-16 1.0265141245953283e-20
5.129500256944802 4.818285763345415e-24 6.560501551893785e-16 6.560395985762351e-16 1.055661314320265e-20
5.168117569889187 4.923535546065534e-24 6.754277437293974e-16 6.754168881010363e-16 1.0855628361229444e-20
5.20702561229733 5.052892755176882e-24 6.983919544628721e-16 6.983807766159215e-16 1.117784695070558e-20
5.246226572918644 5.185537236744027e-24 7.221214294194634e-16 7.221099225715777e-16 1.1506847885467376e-20
5.265937586045735 5.253124987171912e-24 7.342819870254932e-16 7.342703131093667e-16 1.1673916126454192e-20
5.285722656980489 5.3215744693802694e-24 7.466446351274727e-16 7.466327924181617e-16 1.1842709311375746e-20
5.305582063971359 5.390899598467807e-24 7.592131346022844e-16 7.592011213649653e-16 1.2013237318755381e-20
5.3255160863122235 5.4654112469846015e-24 7.725987125026467e-16 7.725865260643773e-16 1.2186438269262121e-20
5.365609099470188 5.6512563957404176e-24 8.048843338830734e-16 8.048717884860689e-16 1.2545397004576677e-20
5.406003951863644 5.844176321205524e-24 8.386275051113192e-16 8.386145931036598e-16 1.2912007659431645e-20
5.446702915881641 6.044513870365769e-24 8.739055538239594e-16 8.738922674542986e-16 1.3286369660596125e-20
5.487708281020852 6.261044652589992e-24 9.12026066395797e-16 9.120123966761436e-16 1.3669719653205056e-20
5.529022354014368 6.562510363227974e-24 9.631363657286481e-16 9.631222946247834e-16 1.407110386451347e-20
5.570647458961463 6.881782594144183e-24 1.0175975585539048e-15 1.0175830773371492e-15 1.4481216755440264e-20
5.612585937458331 7.220146190062647e-24 1.075668443039988e-15 1.075653542853686e-15 1.4900186302020694e-20
5.654840148729818 7.592191666751404e-24 1.1396117785025139e-15 1.1395964488804122e-15 1.5329622101524752e-20
5.67608639626678 7.845858853674797e-24 1.1821128036433396e-15 1.1820972494142772e-15 1.5554229061829e-20
5.686739436050992 7.976620733743851e-24 1.2040699161206795e-15 1.2040542486490167e-15 1.566747166317744e-20
5.6974124697621304 8.110085161083467e-24 1.2265139989134064e-15 1.2264982175696539e-15 1.57813437521671e-20
5.718818669136295 8.385382387423653e-24 1.2729127344277626e-15 1.2728967234410726e-15 1.6010986689853993e-20
5.740305295436557 8.68892491077257e-24 1.3239465977303085e-15 1.3239303532242267e-15 1.6244506081981908e-20
5.7835210386641895 9.476899197543338e-24 1.4548828148880458e-15 1.4548660851000816e-15 1.672978796462025e-20
5.827062130521658 1.0384887664745628e-23 1.606278642270751e-15 1.6062614127623453e-15 1.7229508405653356e-20
5.8489554468988025 1.102223443591931e-23 1.7112654818924691e-15 1.7112479841363684e-15 1.7497756100485673e-20
5.870931020387893 1.1706256641233412e-23 1.8242924126840447e-15 1.8242746433138713e-15 1.7769370173115597e-20
5.892989160043636 1.2440713441104192e-23 1.9460337231151884e-15 1.946015678729115e-15 1.8044386072982665e-20
5.915130176081913 1.3276147540741515e-23 2.08451876937492e-15 2.0845004400953143e-15 1.8329279605475455e-20
5.95966208400165 1.5612850289568334e-23 2.4698652741512583e-15 2.469846307915915e-15 1.8966235342806737e-20
6.004529249263818 1.898184242724874e-23 3.025427580063795e-15 3.0254079017939687e-15 1.967826982549362e-20
6.027089341400364 2.1324154352493835e-23 3.411527525653542e-15 3.4115074418254555e-15 2.0083828087105024e-20
6.049734195844842 2.4092412584907966e-23 3.86888676241634e-15 3.868866249545229e-15 2.05128711126174e-20
6.095279466722835 3.208981295322765e-23 5.191946891330618e-15 5.191925345255529e-15 2.1546075087361003e-20
6.141167624020661 4.4399038382116874e-23 7.237589525101374e-15 7.237566663531019e-15 2.2861570355421603e-20
6.164241091010745 5.2259892282917485e-23 8.551012857499856e-15 8.550989183593283e-15 2.3673906577152392e-20
6.187401249150058 6.121507305604577e-23 1.0053935294278496e-14 1.0053910780286207e-14 2.4513992288732196e-20
6.1990139391386085 6.558765327366686e-23 1.0792303203392447e-14 1.0792278260808236e-14 2.494258421131128e-20
6.204828454712694 6.789101496473625e-23 1.1181794679638067e-14 1.1181769519944033e-14 2.5159694036835534e-20
6.210648424152782 6.957233350343693e-23 1.1469459398350202e-14 1.146943405022948e-14 2.5348120723756308e-20
6.233982942956859 7.528433727989666e-23 1.2457751810893554e-14 1.2457725790101298e-14 2.6020792255057366e-20
6.239830258556775 7.601436914404318e-23 1.2590352932091229e-14 1.2590326806536212e-14 2.612555501057604e-20
6.245683058788269 7.607738896860777e-23 1.2612610200434433e-14 1.2612583969750103e-14 2.6230684326345124e-20
6.257405133728602 7.591980739140637e-23 1.2610107961776228e-14 1.2610081540297262e-14 2.6421478963067303e-20
6.269149208991335 7.479550314877586e-23 1.2446680095702997e-14 1.2446653571830798e-14 2.652387219898103e-20
6.280915325867298 7.197702596618625e-23 1.2000138808772641e-14 1.2000112292386257e-14 2.651638638211193e-20
6.304513850009849 6.502690501579673e-23 1.0882135274122747e-14 1.088210887266597e-14 2.6401456775048068e-20
6.32820103803542 5.641238339039481e-23 9.475980306675652e-15 9.475954127080725e-15 2.6179594929486688e-20
6.3519772230701035 4.8512189459938934e-23 8.179546786644859e-15 8.179520795524928e-15 2.5991119928924622e-20
6.375842739491607 4.186597468887775e-23 7.0854630278884615e-15 7.085437190782347e-15 2.5837106112871312e-20
6.399797922933955 3.65388074166151e-23 6.207118871390383e-15 6.2070930601835055e-15 2.5811206878716828e-20
6.42384311029221 3.2109778148523706e-23 5.475221126673067e-15 5.4751953153043366e-15 2.5811368730189176e-20
6.447978639727206 2.888182734555009e-23 4.943308227286946e-15 4.943282313881198e-15 2.5913405748363854e-20
6.472204850670314 2.6192728296932736e-23 4.499895471058248e-15 4.499869434258302e-15 2.6036799943966668e-20
