Dust emission spectrum from A.P. Jones, M. Kohler, N. Ysard, M. Bocchio, and L. Verstraete (2017), A&A, 602A, 46J 
inside the DustPedia framework.

lambda    nu*dP/dnu     j_nu    j_nu(carb.) j_nu(sil)
 (um)   (erg s-1 H-1) (Jy cm2 sr-1 H-1)
0.9927057738263894 8.907086633579526e-25 2.347067919190295e-17 2.3470679191659974e-17 2.429704417218344e-28
1.0001793341362166 9.054106556821146e-25 2.4037700029994195e-17 2.403770002970153e-17 2.9266105150034723e-28
1.0077091589558085 9.200914128507514e-25 2.461136018724917e-17 2.461136018689711e-17 3.520592059411884e-28
1.0114953028030835 9.27422021455399e-25 2.4900651338572734e-17 2.4900651338186784e-17 3.8594927639595057e-28
1.0152956718711033 9.347451588852935e-25 2.5191567553934328e-17 2.5191567553511363e-17 4.229645039593866e-28
1.0229392996569957 9.493589699360521e-25 2.5778031794301572e-17 2.5778031793794073e-17 5.074973553526352e-28
1.0267826658714554 9.566319071487501e-25 2.6073109191930315e-17 2.607310919137466e-17 5.556512770135117e-28
1.0306404723013447 9.63894159843335e-25 2.6369747712119064e-17 2.636974771151089e-17 6.081765527361981e-28
1.03451277320114 9.711450278185261e-25 2.6667934594304724e-17 2.6667934593639268e-17 6.6545054827395165e-28
1.0383996230291617 9.783838147848452e-25 2.6967656919211836e-17 2.696765691848395e-17 7.2788139580339495e-28
1.0403485208654093 9.819984614017948e-25 2.7118089792769903e-17 2.711808979200874e-17 7.611671678353503e-28
1.0423010764483396 9.856098284982499e-25 2.7268901611922886e-17 2.726890161112697e-17 7.959103431642844e-28
1.0462171883269815 9.928223808908235e-25 2.75716554449527e-17 2.7571655444082697e-17 8.700142692936176e-28
1.0471985131304309 9.946233354326223e-25 2.7647578142011312e-17 2.7647578141121767e-17 8.895489591430673e-28
1.048180758391296 9.964233952439768e-25 2.7723594114537515e-17 2.7723594113628005e-17 9.095037757059202e-28
1.0501480137395462 1.000020788198497e-24 2.7875905041325403e-17 2.787590504037469e-17 9.507083765848424e-28
1.0521189612883777 1.0036144749768236e-24 2.802858653034162e-17 2.802858652934792e-17 9.936989328376088e-28
1.0531058218030118 1.0054071405116496e-24 2.810498850559263e-17 2.810498850457674e-17 1.0158882829659955e-27
1.0540936079674168 1.0071897999138982e-24 2.8181229175415334e-17 2.8181229174376774e-17 1.038556839611061e-27
1.058054026499678 1.014310271805622e-24 2.848709086726639e-17 2.848709086613222e-17 1.13417315332197e-27
1.0590464539527713 1.0160877963328244e-24 2.8563779955025055e-17 2.8563779953865694e-17 1.1593634274068265e-27
1.06003981227728 1.0178642627418958e-24 2.864055807152779e-17 2.8640558070342706e-17 1.1850891337514191e-27
1.0620293250338977 1.0214139798801246e-24 2.879438051226411e-17 2.8794380511025914e-17 1.2381903666227688e-27
1.0660195594769086 1.02850026325148e-24 2.9103084046473644e-17 2.9103084045122344e-17 1.351308577748722e-27
1.070024785945596 1.0355684660593167e-24 2.9413187275665676e-17 2.94131872741914e-17 1.4742828286371534e-27
1.0740450607676866 1.0426179375768113e-24 2.972467587840663e-17 2.97246758767987e-17 1.60792712957452e-27
1.07808044048254 1.0496480323157175e-24 3.003753540914332e-17 3.003753540739021e-17 1.753118755772898e-27
1.0861967418109137 1.0636351015537983e-24 3.06669503488387e-17 3.0666950346756705e-17 2.0819975004707713e-27
1.0902777775684922 1.0705625356983358e-24 3.098265524331681e-17 3.0982655241049006e-17 2.2677990169902123e-27
1.0943741465085532 1.0774675716389041e-24 3.129964889917534e-17 3.1299648896705954e-17 2.469386168287504e-27
1.1026131145906286 1.0912079979017865e-24 3.1937441884532286e-17 3.1937441881607196e-17 2.9250883316852526e-27
1.1109141095355224 1.1048515379041515e-24 3.2580207074955616e-17 3.2580207071495166e-17 3.4604442080219594e-27
1.1192775983109025 1.1183807672084762e-24 3.3227443993439995e-17 3.3227443989351434e-17 4.088551852386573e-27
1.1277040513999907 1.1317327996679845e-24 3.3877275538575714e-17 3.387727553375119e-17 4.824519195196447e-27
1.1361939428280308 1.1449722046062056e-24 3.453161152937165e-17 3.453161152368589e-17 5.685746980759144e-27
1.1447477501889525 1.158094575454146e-24 3.519032348565425e-17 3.5190323478961995e-17 6.692251842014657e-27
1.1533659546722406 1.1711027663268717e-24 3.585350081580201e-17 3.585350080793498e-17 7.867039700451825e-27
1.1707974979042381 1.1968187063797373e-24 3.719457385837829e-17 3.7194573847547306e-17 1.0830979802529182e-26
1.1884924949847024 1.2220226354715182e-24 3.855184143833722e-17 3.8551841423499393e-17 1.483783470771281e-26
1.2064549276569216 1.2469119187156951e-24 3.993156310850874e-17 3.993156308828089e-17 2.0227847684743052e-26
1.2246888378427687 1.2712145849015927e-24 4.132511393431822e-17 4.132511390687597e-17 2.7442252670588676e-26
1.2431983285522175 1.294873835415823e-24 4.2730434221835095e-17 4.27304341847838e-17 3.705128607772845e-26
1.2619875648066055 1.317880936822396e-24 4.4146947955498524e-17 4.41469479057104e-17 4.9788134302875366e-26
1.3004222497298317 1.3615564354582726e-24 4.6999092445276555e-17 4.699909235662709e-17 8.864945827365031e-26
1.3400274889804893 1.4020710595354758e-24 4.9871584370717054e-17 4.987158421573867e-17 1.5497838562239162e-25
1.3808389325824078 1.4392755711393382e-24 5.275412336962512e-17 5.275412310348436e-17 2.6614076109738573e-25
1.4228933163050095 1.4733522985674407e-24 5.564784842850116e-17 5.564784797933223e-17 4.491689296773216e-25
1.466228494730424 1.5051228619124807e-24 5.857914665606616e-17 5.857914591067877e-17 7.453873877708846e-25
1.5108834753276823 1.5339707014609347e-24 6.152016181488743e-17 6.152016059808745e-17 1.2167999702965545e-24
1.5568984535646726 1.5593972956452045e-24 6.444459474932374e-17 6.444459279330625e-17 1.956017484312547e-24
1.6043148490894465 1.5814504653648248e-24 6.734643786347883e-17 6.734643476150252e-17 3.1019763022515313e-24
1.6531753430134553 1.6001986488095487e-24 7.022023064262496e-17 7.022022579511081e-17 4.8475141462666736e-24
1.7035239163302658 1.6158656061595623e-24 7.306727405007846e-17 7.30672665835369e-17 7.466541572796406e-24
1.755405889504358 1.6297374191853338e-24 7.593895584603328e-17 7.593894450486446e-17 1.1341168805944154e-23
1.8088679632656115 1.6414983375259572e-24 7.881642778410968e-17 7.881641079036792e-17 1.6993741762839085e-23
1.8639582606462262 1.650934898487954e-24 8.168373055910277e-17 8.168370542944502e-17 2.5129657755221737e-23
1.9207263702978936 1.658204233729375e-24 8.454208449001863e-17 8.454204780272874e-17 3.668728989153473e-23
1.979223391128241 1.6636702772177043e-24 8.740403971044461e-17 8.740398681173418e-17 5.289871041079647e-23
2.039501978296691 1.6677681218796265e-24 9.028783356077928e-17 9.028775820239733e-17 7.535838194157112e-23
2.1016163906111602 1.671714425939895e-24 9.325775793545022e-17 9.325765182548408e-17 1.061099661413623e-22
2.1656225393682647 1.6762149527137073e-24 9.635669742279128e-17 9.635654969220474e-17 1.4773058654394325e-22
2.231578038680979 1.68132069449585e-24 9.959374660721408e-17 9.959354317881351e-17 2.0342840052729174e-22
2.299542257339062 1.6874541972639912e-24 1.0300132734942448e-16 1.0300105019946223e-16 2.771499622237402e-22
2.369576372248914 1.6955487437713664e-24 1.066474371100658e-16 1.0664706340999862e-16 3.737000671921405e-22
2.4417434235010123 1.7067061337060926e-24 1.1061861307448462e-16 1.1061811422427515e-16 4.98850209484207e-22
2.5161083711144245 1.722813000896864e-24 1.1506332404178144e-16 1.150626645658559e-16 6.59475925518859e-22
2.5927381535095444 1.746956398086255e-24 1.2022925535816935e-16 1.2022839168541363e-16 8.636727556940038e-22
2.6717017477616296 1.7828207485519693e-24 1.2643435209880827e-16 1.2643323127919407e-16 1.1208196141646025e-21
2.753070231689431 1.835952754202978e-24 1.3416777715439548e-16 1.3416633547695372e-16 1.4416774417985859e-21
2.836916847834745 1.9189207452538554e-24 1.4450174029923628e-16 1.4449990177198578e-16 1.838527250475885e-21
2.9233170693905177 2.059405780618041e-24 1.598038664837397e-16 1.5980154164582577e-16 2.3248379139619286e-21
2.967498994190263 2.1785465557575412e-24 1.7160378344927624e-16 1.7160118150229855e-16 2.6019469776778035e-21
3.0123486681368425 2.3176513702037956e-24 1.8532020834971638e-16 1.8531730013501225e-16 2.9082147041039947e-21
3.0578761833420214 2.628588237441276e-24 2.1335945316490493e-16 2.1335620605858928e-16 3.247106315686109e-21
3.1040917844459814 3.0291896715367396e-24 2.4959188143217967e-16 2.4958826273063176e-16 3.618701547930891e-21
3.127460860933648 3.452824817035777e-24 2.8663938337512045e-16 2.8663556459477667e-16 3.818780343815767e-21
3.1510058709225794 4.017214370486358e-24 3.3600338528217704e-16 3.35999357124444e-16 4.028157733107223e-21
3.162844764501044 4.542521146329384e-24 3.813680161089856e-16 3.813638792795591e-16 4.136829426528164e-21
3.1747281389236908 5.153391851185527e-24 4.342793116519136e-16 4.342750637175514e-16 4.247934362078166e-21
3.1986289994194426 6.857222474908754e-24 5.822125239183774e-16 5.822080457550568e-16 4.478163320323879e-21
3.2227097969389145 1.0873382976712675e-23 9.301549833599117e-16 9.301502603628682e-16 4.722997043137792e-21
3.2348180950136065 1.4681890300777133e-23 1.2606695749419188e-15 1.2606647210573688e-15 4.853884549806483e-21
3.240889293275058 1.752922939994514e-23 1.5079830279548106e-15 1.507978105022396e-15 4.922932414400443e-21
3.2469718861334385 2.0823165789651277e-23 1.794711800014319e-15 1.7947068056301288e-15 4.994384190339785e-21
3.2714166318528037 3.83932150290171e-23 3.333955291308754e-15 3.3339500009287998e-15 5.290379954506862e-21
3.2744851364798273 3.949156438693629e-23 3.432549385609273e-15 3.4325440601495913e-15 5.3254596814828476e-21
3.2775565192852394 4.0621458174077874e-23 3.534069871837699e-15 3.5340645111039734e-15 5.360733725913791e-21
3.283707930232385 3.953482956918811e-23 3.445988515864481e-15 3.445983091654997e-15 5.424209483158303e-21
3.2898708863219004 3.6088830679744e-23 3.1515274755488573e-15 3.151521993208027e-15 5.48234082985068e-21
3.29141343181113 3.5276176996185914e-23 3.0820053135961785e-15 3.081999816648221e-15 5.496947957083317e-21
3.292184975758714 3.4876867582649114e-23 3.0478327693366046e-15 3.0478272650739152e-15 5.504262688738672e-21
3.295272960557952 3.235642496925978e-23 2.8302275790276618e-15 2.8302220462435123e-15 5.532784148711218e-21
3.3076538914384823 2.3624789929668125e-23 2.0742325624723872e-15 2.0742269149380053e-15 5.6475343817376376e-21
3.310756385682612 2.18476632840504e-23 1.9200018725664194e-15 1.9199961960676423e-15 5.676498776364104e-21
3.313861789986515 2.0207980554544232e-23 1.777570113674704e-15 1.777564408100342e-15 5.7055743616872334e-21
3.3200813396944477 1.790852083764847e-23 1.5782575420663472e-15 1.5782517741183829e-15 5.7679479639721785e-21
3.345076488085796 1.3806622844567908e-23 1.2259223058756847e-15 1.2259162603570234e-15 6.045518661444028e-21
3.3482140837626964 1.396045428471468e-23 1.2407440543419468e-15 1.2407379712342523e-15 6.083107694125644e-21
3.3513546224236106 1.4115986000014205e-23 1.2557437838358394e-15 1.255737662948179e-15 6.120887660085153e-21
3.3576445397418455 1.5252584685707367e-23 1.3594010319032192e-15 1.3593948320877978e-15 6.199815421177093e-21
3.3702598118196083 1.9444745919036923e-23 1.7395426749651148e-15 1.7395363095411416e-15 6.3654239733807605e-21
3.382922481734668 2.0399587114398187e-23 1.831820254475099e-15 1.831813727357446e-15 6.527117652813808e-21
3.389271646505754 2.089425684286274e-23 1.879761456984791e-15 1.8797548477629937e-15 6.609221797554858e-21
3.395632727569191 2.142729774202875e-23 1.9313347207878883e-15 1.931328026943924e-15 6.69384396384549e-21
3.421196662673239 2.398677129178538e-23 2.1783079024802162e-15 2.1783008574950315e-15 7.044985184658133e-21
3.4276182099114902 2.3471028226602187e-23 2.1354725351298815e-15 2.135465410989089e-15 7.124140793096995e-21
3.4340518103208963 2.1210990029148744e-23 1.9334690123280516e-15 1.933461812935645e-15 7.199392407036122e-21
3.4469541582030403 1.7992259685476975e-23 1.6462305294319573e-15 1.6462231848155495e-15 7.344616407370689e-21
3.472904465399547 1.7090217715889883e-23 1.5754690105708023e-15 1.575461332472162e-15 7.678098640534752e-21
3.4990501388274233 1.5710591917484586e-23 1.4591910145163783e-15 1.4591829932809737e-15 8.021235404260479e-21
3.5253949054701885 1.080076905642058e-23 1.0107223880333985e-15 1.0107140304967736e-15 8.357536624817966e-21
3.5519380250092896 6.186075790215675e-24 5.832436902396001e-16 5.83234992262498e-16 8.697977101989762e-21
3.578680990867387 4.3563745347238075e-24 4.1382586373944333e-16 4.138167921390127e-16 9.071600430592084e-21
3.605625307711299 3.616342113489484e-24 3.46114293960659e-16 3.461048272943818e-16 9.466666277214594e-21
3.660119384959845 3.0765461964810433e-24 2.9890152106401767e-16 2.9889121751340195e-16 1.0303550615720632e-20
3.715437065384467 2.6942842182887517e-24 2.6571908581830294e-16 2.65707889853575e-16 1.1195964727974854e-20
3.8285932144167436 2.500305700192209e-24 2.5409830575512733e-16 2.540851556139271e-16 1.3150141200267365e-20
3.94519561050918 2.463026344532402e-24 2.579330724338901e-16 2.5791773543266883e-16 1.5337001221378387e-20
4.06534921144712 2.490061972433108e-24 2.687060508368844e-16 2.6868828138522905e-16 1.776945165538108e-20
4.189162171576248 2.5543096348706452e-24 2.840338808567548e-16 2.8401341257251084e-16 2.04682842439635e-20
4.316745939156006 2.6456526495487856e-24 3.03150819651681e-16 3.0312737661921697e-16 2.3443032464045703e-20
4.448215356677963 2.7606737613991713e-24 3.259645157670555e-16 3.259378397608212e-16 2.6676006234273815e-20
4.58368876423945 2.899746604777507e-24 3.5281301919466936e-16 3.527828276274934e-16 3.019156717594649e-20
4.723288106065518 3.066047093942279e-24 3.844082425536983e-16 3.8437420993632995e-16 3.4032617368323274e-20
4.867139040275056 3.265966164288029e-24 4.2194405001169917e-16 4.2190591082783466e-16 3.813918386448855e-20
4.940699165968905 3.3866007323844005e-24 4.441419980306209e-16 4.441016876514434e-16 4.031037917744021e-20
5.015371051989984 3.511465493198548e-24 4.674777089961163e-16 4.674351502112671e-16 4.2558784849242546e-20
5.091171501069577 3.663938564588734e-24 4.951483577282362e-16 4.951034297064146e-16 4.492802182153e-20
5.129500256944802 3.7421663506557355e-24 5.09527441018273e-16 5.094812983867995e-16 4.6142631473455944e-20
5.168117569889187 3.823717455824666e-24 5.245508699353644e-16 5.245034837683084e-16 4.738616705606833e-20
5.20702561229733 3.923918426599933e-24 5.423493416317469e-16 5.423006136412291e-16 4.872799051755851e-20
5.246226572918644 4.026659811180346e-24 5.607398435077504e-16 5.606897487189449e-16 5.0094788805414274e-20
5.265937586045735 4.079008477754396e-24 5.7016394193045915e-16 5.701131543328314e-16 5.078759762784645e-20
5.285722656980489 4.1320230748539575e-24 5.797443743039296e-16 5.796928876011875e-16 5.148670274206708e-20
5.305582063971359 4.185714350019475e-24 5.89484046991202e-16 5.89431854869885e-16 5.2192121317032676e-20
5.3255160863122235 4.243417770696842e-24 5.998558860616455e-16 5.998029781135829e-16 5.2907948062449365e-20
5.365609099470188 4.38731125728735e-24 6.248660212127531e-16 6.248116306159368e-16 5.439059681642991e-20
5.406003951863644 4.536672848212605e-24 6.510033960470924e-16 6.509474949636241e-16 5.590108346828777e-20
5.446702915881641 4.6917674601223734e-24 6.783277743398351e-16 6.782703347337871e-16 5.743960604807232e-20
5.487708281020852 4.8593849798259336e-24 7.07850848247846e-16 7.077918369714593e-16 5.901127638665705e-20
5.529022354014368 5.0927118809576486e-24 7.474237359247371e-16 7.473630810154783e-16 6.065490925893322e-20
5.570647458961463 5.3398030192015365e-24 7.8958764552108e-16 7.895253156146042e-16 6.232990647562249e-20
5.612585937458331 5.601651395341557e-24 8.345426084547945e-16 8.344785719117133e-16 6.403654308153263e-20
5.654840148729818 5.889545119426472e-24 8.840391922023602e-16 8.839734107855912e-16 6.578141676884537e-20
5.67608639626678 6.085823483988176e-24 9.169333778884121e-16 9.168666843332862e-16 6.669355512602803e-20
5.686739436050992 6.1869993921034635e-24 9.339267952874362e-16 9.33859642318537e-16 6.715296889929716e-20
5.6974124697621304 6.2902644698864744e-24 9.51296722037464e-16 9.512291074172556e-16 6.761462020850872e-20
5.718818669136295 6.503263659179169e-24 9.872044880774763e-16 9.87135943418552e-16 6.85446589244248e-20
5.740305295436557 6.738109648609755e-24 1.026697483983373e-15 1.026627994725147e-15 6.948925822603433e-20
5.7835210386641895 7.347730523971734e-24 1.1280152552984805e-15 1.1279438058641374e-15 7.144943434292917e-20
5.827062130521658 8.050153184129874e-24 1.2451544536752993e-15 1.2450809910019878e-15 7.346267331168061e-20
5.8489554468988025 8.543206399730514e-24 1.326382078111035e-15 1.326307534809231e-15 7.45433018042718e-20
5.870931020387893 9.072345268112125e-24 1.4138260543144145e-15 1.4137504184431097e-15 7.563587130488843e-20
5.892989160043636 9.640475619702178e-24 1.5080076196293372e-15 1.507930879157919e-15 7.674047141797677e-20
5.915130176081913 1.0286702348777999e-23 1.6151390345126552e-15 1.615061150218229e-15 7.788429442673286e-20
5.95966208400165 1.2094188868396968e-23 1.9132327890851923e-15 1.913152342748978e-15 8.044633621445281e-20
6.004529249263818 1.470009509625021e-23 2.3429797873526058e-15 2.342896478373993e-15 8.330897861346082e-20
6.027089341400364 1.651185627429325e-23 2.641635923667883e-15 2.6415509828763998e-15 8.494079148289931e-20
6.049734195844842 1.8653024892257082e-23 2.9954011799500157e-15 2.995314513892389e-15 8.666605762642066e-20
6.095279466722835 2.4838760729123838e-23 4.018768409153609e-15 4.018677581811094e-15 9.082734251396446e-20
6.141167624020661 3.435936639962598e-23 5.6009994676645175e-15 5.600903336644098e-15 9.613102041816886e-20
6.164241091010745 4.0439417480255186e-23 6.61689038606189e-15 6.616790974729321e-15 9.941133256821844e-20
6.187401249150058 4.7365679771307343e-23 7.779317344835022e-15 7.779214549183471e-15 1.0279565155263066e-19
6.1990139391386085 5.074760153693325e-23 8.350405530539398e-15 8.350301009457264e-15 1.0452108213688315e-19
6.204828454712694 5.252909153909639e-23 8.651653191562663e-15 8.651547797300378e-15 1.0539426228560136e-19
6.210648424152782 5.382948803019683e-23 8.874147183317072e-15 8.87404103305241e-15 1.0615026466257768e-19
6.233982942956859 5.824734127127909e-23 9.638537674897998e-15 9.638428836329893e-15 1.088385681050606e-19
6.239830258556775 5.88119595821761e-23 9.741096796637792e-15 9.740987546162324e-15 1.0925047546751683e-19
6.245683058788269 5.886068780335957e-23 9.75831217997735e-15 9.758202516319927e-15 1.0966365742387684e-19
6.257405133728602 5.873878142772146e-23 9.75637848405009e-15 9.756268074148685e-15 1.1040990140151863e-19
6.269149208991335 5.786917999952025e-23 9.629979618186055e-15 9.629868823792571e-15 1.1079439348563152e-19
6.280915325867298 5.568924495003819e-23 9.284610757190032e-15 9.284500027493371e-15 1.1072969666172202e-19
6.304513850009849 5.0313718814227626e-23 8.419910099482557e-15 8.419799907346455e-15 1.101921361024038e-19
6.32820103803542 4.365094193509469e-23 7.332352247595844e-15 7.332243027684755e-15 1.092199110885192e-19
6.3519772230701035 3.754066296748419e-23 6.329658845799485e-15 6.329550460559297e-15 1.0838524018589755e-19
6.375842739491607 3.240017451842215e-23 5.48345620407596e-15 5.4833485135844945e-15 1.0769049146603116e-19
6.399797922933955 2.828000106792991e-23 4.804134035088041e-15 4.804026515494586e-15 1.0751959345597186e-19
6.42384311029221 2.485440541118074e-23 4.238066204280231e-15 4.2379587506902834e-15 1.0745358994762491e-19
6.447978639727206 2.2357823032377475e-23 3.826683444155605e-15 3.8265756427532215e-15 1.0780140238452526e-19
6.472204850670314 2.027796927092505e-23 3.4837433141769943e-15 3.4836350796571627e-15 1.082345198315417e-19
6.496522083828205 1.892589111221494e-23 3.263673380483334e-15 3.2635643728022325e-15 1.0900768110174893e-19
