Dust emission spectrum from A.P. Jones, M. Kohler, N. Ysard, M. Bocchio, and L. Verstraete (2017), A&A, 602A, 46J 
inside the DustPedia framework.

lambda    nu*dP/dnu     j_nu    j_nu(carb.) j_nu(sil)
 (um)   (erg s-1 H-1) (Jy cm2 sr-1 H-1)
0.9927057738263894 2.995496898468303e-25 7.893304468291168e-18 7.893304462681401e-18 5.609765127288221e-27
1.0001793341362166 3.044946272959788e-25 8.084011896426598e-18 8.08401188967086e-18 6.755739125754646e-27
1.0077091589558085 3.094341976818188e-25 8.276999857877201e-18 8.276999849751968e-18 8.125234871409608e-27
1.0114953028030835 3.1190138969132393e-25 8.374340458868935e-18 8.374340449962479e-18 8.906457415649042e-27
1.0152956718711033 3.14366545361974e-25 8.472240790877367e-18 8.472240781117763e-18 9.75960423509957e-27
1.0229392996569957 3.192874079570985e-25 8.669640477924412e-18 8.669640466216856e-18 1.1707553957528846e-26
1.0267826658714554 3.2173716346232086e-25 8.768982229599243e-18 8.76898221678227e-18 1.281697130026627e-26
1.0306404723013447 3.241838462739583e-25 8.868864025463245e-18 8.868864011436317e-18 1.402692739454709e-26
1.03451277320114 3.266272321726028e-25 8.969282048288928e-18 8.969282032942844e-18 1.5346082845397797e-26
1.0383996230291617 3.290670983227639e-25 9.070232435233352e-18 9.07023241844955e-18 1.678380249718051e-26
1.0403485208654093 3.302856422458168e-25 9.120906045920985e-18 9.120906028370728e-18 1.7550256092097763e-26
1.0423010764483396 3.3150322331883163e-25 9.17171127898566e-18 9.17171126063545e-18 1.8350209034200557e-26
1.0462171883269815 3.339353872301264e-25 9.273714628919489e-18 9.273714608863247e-18 2.0056240358022968e-26
1.0471985131304309 3.3454278365934345e-25 9.299296953499085e-18 9.299296932993156e-18 2.050592889444572e-26
1.048180758391296 3.3514991546482685e-25 9.324911747574289e-18 9.324911726609017e-18 2.0965271343002062e-26
1.0501480137395462 3.363633716450269e-25 9.376238492249879e-18 9.376238470336172e-18 2.1913710984092677e-26
1.0521189612883777 3.375757287137163e-25 9.427694357451375e-18 9.427694334548192e-18 2.2903183840210216e-26
1.0531058218030118 3.3818056286061746e-25 9.453444728048824e-18 9.453444704634956e-18 2.341386604631861e-26
1.0540936079674168 3.387820855178064e-25 9.479142454896415e-18 9.479142430960857e-18 2.3935557840795514e-26
1.058054026499678 3.411851356913644e-25 9.582247398223223e-18 9.582247372087377e-18 2.613584699396879e-26
1.0590464539527713 3.417851215429751e-25 9.608101818454702e-18 9.60810179173924e-18 2.6715461117421123e-26
1.06003981227728 3.4238479011015403e-25 9.633987382111573e-18 9.633987354804199e-18 2.730737215424927e-26
1.0620293250338977 3.4358316222999303e-25 9.685851677904865e-18 9.685851649375781e-18 2.852908224227357e-26
1.0660195594769086 3.4597595466755123e-25 9.789951103091476e-18 9.789951071960173e-18 3.113130503162977e-26
1.070024785945596 3.4836330430543033e-25 9.89454144784515e-18 9.894541413885336e-18 3.395981213100517e-26
1.0740450607676866 3.5074500425050203e-25 9.999618452323475e-18 9.999618415290227e-18 3.7033247262396124e-26
1.07808044048254 3.5312084945213395e-25 1.0105177823964958e-17 1.010517778359326e-17 4.037169889465593e-26
1.0861967418109137 3.578499979720841e-25 1.031760620170438e-17 1.0317606153772505e-17 4.7931868312116966e-26
1.0902777775684922 3.60193425447423e-25 1.0424191347465052e-17 1.0424191295263077e-17 5.22019766047459e-26
1.0943741465085532 3.62530031833162e-25 1.053123361710566e-17 1.0531233560271558e-17 5.683409929565164e-26
1.1026131145906286 3.671820068430108e-25 1.0746671603528753e-17 1.074667153622609e-17 6.730266191247641e-26
1.1109141095355224 3.7180439497917656e-25 1.0963884073310703e-17 1.0963883993713838e-17 7.959686470585817e-26
1.1192775983109025 3.763914519355145e-25 1.1182708300692314e-17 1.1182708206676238e-17 9.401607830092656e-26
1.1277040513999907 3.8092219409496746e-25 1.1402520216697655e-17 1.14025201057922e-17 1.1090545406897035e-25
1.1361939428280308 3.854183670320643e-25 1.1623965431731576e-17 1.1623965301069228e-17 1.3066235012689345e-25
1.1447477501889525 3.8987859547389937e-25 1.1847006441143879e-17 1.184700628740023e-17 1.5374364834120292e-25
1.1533659546722406 3.943039106179871e-25 1.2071678069172994e-17 1.2071677888498774e-17 1.8067421847060035e-25
1.1707974979042381 4.0306409173047207e-25 1.2526372665813327e-17 1.2526372417233102e-17 2.4858022255347455e-25
1.1884924949847024 4.116674549896327e-25 1.2987106776430931e-17 1.2987106436119982e-17 3.403109528528481e-25
1.2064549276569216 4.201807560965649e-25 1.3456022135334573e-17 1.3456021671722671e-17 4.63611903331907e-25
1.2246888378427687 4.285140969966922e-25 1.3930294767834687e-17 1.3930294139317015e-17 6.285176668289305e-25
1.2431983285522175 4.366491441267614e-25 1.4409286079317104e-17 1.4409285231333623e-17 8.479834833594083e-25
1.2619875648066055 4.445842994311433e-25 1.4892877937928237e-17 1.4892876799278394e-17 1.138649838297602e-24
1.3004222497298317 4.59730959282915e-25 1.5869292886138006e-17 1.5869290861799667e-17 2.024338343326072e-24
1.3400274889804893 4.739061066850186e-25 1.6856812087092313e-17 1.685680855364864e-17 3.5334436740970455e-24
1.3808389325824078 4.8706967434932605e-25 1.785268520182499e-17 1.785267914372308e-17 6.058101912869591e-24
1.4228933163050095 4.99293221903705e-25 1.885807865565533e-17 1.8858068448338905e-17 1.0207316419173671e-23
1.466228494730424 5.1086352190665295e-25 1.9882728465753926e-17 1.9882711555921573e-17 1.6909832350680784e-23
1.5108834753276823 5.215868554213564e-25 2.091833156622863e-17 2.0918304010588848e-17 2.755563978303154e-23
1.5568984535646726 5.31308939690367e-25 2.1957194231808455e-17 2.1957150015939537e-17 4.421586891711821e-23
1.6043148490894465 5.4005904887646365e-25 2.2998540880240468e-17 2.2998470889312292e-17 6.99909281731426e-23
1.6531753430134553 5.478742366631545e-25 2.404192460121094e-17 2.4041815432200596e-17 1.09169010343792e-22
1.7035239163302658 5.548428189332281e-25 2.5089247615131773e-17 2.5089079790843972e-17 1.6782428780081614e-22
1.755405889504358 5.61410889154192e-25 2.6159402257741398e-17 2.6159147852822553e-17 2.5440491883863712e-22
1.8088679632656115 5.6748613698908595e-25 2.724780714788655e-17 2.72474267259601e-17 3.804219264550984e-22
1.8639582606462262 5.730076724763226e-25 2.83508479769386e-17 2.835028660901942e-17 5.613679191812797e-22
1.9207263702978936 5.780388469694279e-25 2.947080223591919e-17 2.946998445739829e-17 8.177785209030525e-22
1.979223391128241 5.827113701758906e-25 3.0613835226868316e-17 3.061265871121296e-17 1.1765156553603915e-21
2.039501978296691 5.871776465131124e-25 3.178799074252387e-17 3.1786318539667993e-17 1.6722028558723577e-21
2.1016163906111602 5.918545798292455e-25 3.301702149735943e-17 3.3014672463828074e-17 2.3490335313398826e-21
2.1656225393682647 5.969833556575425e-25 3.431740331060108e-17 3.431414082577274e-17 3.2624848283371273e-21
2.231578038680979 6.025768065426711e-25 3.569389348424698e-17 3.568941219926261e-17 4.481284984379107e-21
2.299542257339062 6.087735613214217e-25 3.7159221846145885e-17 3.715313230013393e-17 6.089546011963649e-21
2.369576372248914 6.158784304942773e-25 3.873781654751488e-17 3.8729627436034427e-17 8.189111480454977e-21
2.4417434235010123 6.242498011424762e-25 4.046018576405672e-17 4.0449284176300694e-17 1.0901587756026514e-20
2.5161083711144245 6.345062498218982e-25 4.2377436315947123e-17 4.236306538375305e-17 1.4370932194067296e-20
2.5927381535095444 6.476614856161287e-25 4.4573441114555053e-17 4.455467563194941e-17 1.8765482605638936e-20
2.6717017477616296 6.649063577817258e-25 4.715392987252995e-17 4.7129651103557e-17 2.427876897295047e-20
2.753070231689431 6.880329421193367e-25 5.028007950739702e-17 5.0248948522776894e-17 3.113098462012747e-20
2.836916847834745 7.211399907296853e-25 5.4304475011566554e-17 5.4264903787021345e-17 3.957122454521322e-20
2.9233170693905177 7.732647419804113e-25 6.000308280524334e-17 5.995321372421383e-17 4.986908102951822e-20
2.967498994190263 8.15391912914549e-25 6.422829793574173e-17 6.417258649098539e-17 5.571144475636282e-20
3.0123486681368425 8.6406900120483e-25 6.90912573782527e-17 6.902910202843267e-17 6.215534982004438e-20
3.0578761833420214 9.691084506050769e-25 7.866140696112232e-17 7.859213522768613e-17 6.927173343619885e-20
3.1040917844459814 1.1033377355165457e-24 9.091016777532785e-17 9.083311221596868e-17 7.70555593592024e-20
3.127460860933648 1.2436131419991295e-24 1.0323967275173028e-16 1.0315843379627528e-16 8.123895545499412e-20
3.1510058709225794 1.4298276410330316e-24 1.195920564475536e-16 1.1950644532529968e-16 8.561112225394129e-20
3.162844764501044 1.6026736110742265e-24 1.3455269350138148e-16 1.3446481531150871e-16 8.787818987274479e-20
3.1747281389236908 1.8033126700768884e-24 1.519662016141865e-16 1.5187600712870168e-16 9.019448548478395e-20
3.1986289994194426 2.3618133978434562e-24 2.0052978365719065e-16 2.0043479412553342e-16 9.49895316571818e-20
3.2227097969389145 3.676375404541181e-24 3.1449263863504874e-16 3.1439255593556744e-16 1.0008269948131744e-19
3.2348180950136065 4.922040622652183e-24 4.2263405682014546e-16 4.225312529622204e-16 1.0280385792502347e-19
3.240889293275058 5.8532567967010695e-24 5.035367902546805e-16 5.034325509760594e-16 1.0423927862095943e-19
3.2469718861334385 6.930674359341663e-24 5.973425549418089e-16 5.972368303408155e-16 1.0572460099345024e-19
3.2714166318528037 1.2672217237777578e-23 1.1004185421974065e-15 1.1003066694833607e-15 1.118727140456667e-19
3.2744851364798273 1.3031258304555135e-23 1.132658034225992e-15 1.1325454341797403e-15 1.126000462518978e-19
3.2775565192852394 1.340057012963253e-23 1.1658505944723533e-15 1.165737263194153e-15 1.1333127820038666e-19
3.283707930232385 1.3045989673551621e-23 1.137132272556518e-15 1.137017627979059e-15 1.1464457745916305e-19
3.2898708863219004 1.1920483966504219e-23 1.0409794951700596e-15 1.0408636502252222e-15 1.158449448375299e-19
3.29141343181113 1.1655023948256366e-23 1.0182749038395126e-15 1.0181587573365174e-15 1.1614650299491508e-19
3.292184975758714 1.1524580653160512e-23 1.007114371275693e-15 1.0069980737732577e-15 1.162975024349571e-19
3.295272960557952 1.0701725677520748e-23 9.360836119714436e-16 9.359667261322242e-16 1.1688583921961673e-19
3.3076538914384823 7.849696959565659e-24 6.891954208923758e-16 6.890761692970113e-16 1.192515953643398e-19
3.310756385682612 7.268848576477675e-24 6.387961356227711e-16 6.386762871551141e-16 1.1984846765682611e-19
3.313861789986515 6.732773670289059e-24 5.922401412718351e-16 5.921196937512124e-16 1.204475206226052e-19
3.3200813396944477 5.981231004109753e-24 5.271190752522711e-16 5.269973416027353e-16 1.2173364953587e-19
3.345076488085796 4.6426945673602405e-24 4.1223569974855094e-16 4.1210824046473677e-16 1.2745928381421653e-19
3.3482140837626964 4.693280466791469e-24 4.171182194913596e-16 4.169899847912348e-16 1.2823470012492587e-19
3.3513546224236106 4.744419401394899e-24 4.2205873335421303e-16 4.219297194450928e-16 1.2901390912029736e-19
3.3576445397418455 5.116651854410082e-24 4.560264344765384e-16 4.558957923228333e-16 1.3064215370525006e-19
3.3702598118196083 6.4877542481560566e-24 5.803997350412611e-16 5.802656769082704e-16 1.340581329910072e-19
3.382922481734668 6.801408078705457e-24 6.107455512533192e-16 6.106081625138002e-16 1.37388739518807e-19
3.389271646505754 6.963854067963545e-24 6.265063441821411e-16 6.263672652088576e-16 1.3907897328348016e-19
3.395632727569191 7.13912955197871e-24 6.434805240464213e-16 6.433397030888849e-16 1.4082095753659946e-19
3.421196662673239 7.981251561324109e-24 7.248004800741498e-16 7.246524363360203e-16 1.4804373812927904e-19
3.4276182099114902 7.81330432701298e-24 7.108805220572614e-16 7.107308551484791e-16 1.496669087824449e-19
3.4340518103208963 7.074571296933385e-24 6.448762815563462e-16 6.447250739325463e-16 1.5120762379974163e-19
3.4469541582030403 6.022059525504156e-24 5.509979521329177e-16 5.508437761047343e-16 1.5417602818338563e-19
3.472904465399547 5.728216349452787e-24 5.280580677458016e-16 5.278970693574521e-16 1.609983883494465e-19
3.4990501388274233 5.278465095590524e-24 4.902608939483698e-16 4.900928879327107e-16 1.6800601565911917e-19
3.5253949054701885 3.675181470218661e-24 3.439188610210439e-16 3.4374400571832147e-16 1.7485530272237866e-19
3.5519380250092896 2.166741732011917e-24 2.0428757849581946e-16 2.0410580516588403e-16 1.8177332993546297e-19
3.578680990867387 1.5696624206030441e-24 1.491072224869165e-16 1.4891786064175494e-16 1.8936184516157934e-19
3.605625307711299 1.3293641960073225e-24 1.2723131155135148e-16 1.2703393618057698e-16 1.973753707744965e-19
3.660119384959845 1.156536615305119e-24 1.123631928154799e-16 1.121488871818854e-16 2.1430563359452734e-19
3.715437065384467 1.0349313617182014e-24 1.0206830202016182e-16 1.018360096344722e-16 2.322923856896306e-19
3.8285932144167436 9.786721139856927e-25 9.945940851730105e-17 9.918796732948312e-17 2.714411878179245e-19
3.94519561050918 9.73625824143503e-25 1.0196005445893371e-16 1.016451709458302e-16 3.1488351310352436e-19
4.06534921144712 9.895469280732512e-25 1.0678338535507143e-16 1.0642061769791663e-16 3.6276765715479053e-19
4.189162171576248 1.0175600954427856e-24 1.131505511187647e-16 1.127351638113001e-16 4.1538730746461957e-19
4.316745939156006 1.054328027535805e-24 1.2080966327296612e-16 1.2033687327582936e-16 4.727899971367276e-19
4.448215356677963 1.0987083803149031e-24 1.297291806682148e-16 1.2919471172347158e-16 5.344689447432225e-19
4.58368876423945 1.1508033393483263e-24 1.400185795496237e-16 1.3941783924356885e-16 6.00740306054841e-19
4.723288106065518 1.2116403636407316e-24 1.5191043337673728e-16 1.5123817518725904e-16 6.722581894782505e-19
4.867139040275056 1.2832815226113557e-24 1.6579259420278003e-16 1.6504496587373643e-16 7.476283290435876e-19
4.940699165968905 1.3258175252551513e-24 1.7387678419246194e-16 1.7308973623859454e-16 7.8704795386739e-19
5.015371051989984 1.3696410368187045e-24 1.8233887112923146e-16 1.8151131027969345e-16 8.275608495380314e-19
5.091171501069577 1.4225147317066756e-24 1.922400774009279e-16 1.9137010430996724e-16 8.699730909606741e-19
5.129500256944802 1.4495537362842893e-24 1.9736893998258223e-16 1.9647735505655339e-16 8.91584926028814e-19
5.168117569889187 1.4776589495541444e-24 2.0271039803834957e-16 2.0179675889482667e-16 9.136391435228882e-19
5.20702561229733 1.5119371006976085e-24 2.0897429609985202e-16 2.0803679010214653e-16 9.375059977055605e-19
5.246226572918644 1.547003022681944e-24 2.1543072261433659e-16 2.144690014148114e-16 9.617211995251875e-19
5.265937586045735 1.5648392226864073e-24 2.1873327907017883e-16 2.1775932034175743e-16 9.739587284214274e-19
5.285722656980489 1.5828818972126794e-24 2.220865804649496e-16 2.2110029798298443e-16 9.862824819651999e-19
5.305582063971359 1.6011343742469918e-24 2.2549153902569847e-16 2.2449284687295883e-16 9.98692152739649e-19
5.3255160863122235 1.6207090771886727e-24 2.2910586043605893e-16 2.280945933199714e-16 1.0112671160874543e-18
5.365609099470188 1.6692947409282693e-24 2.3775052687740117e-16 2.367132319320092e-16 1.037294945392045e-18
5.406003951863644 1.7196039760740535e-24 2.4675969939541675e-16 2.456959963618663e-16 1.0637030335504697e-18
5.446702915881641 1.7717203012559362e-24 2.5615231336983083e-16 2.550618238765756e-16 1.0904894932551545e-18
5.487708281020852 1.827904216520298e-24 2.6626487828220077e-16 2.6514713177876306e-16 1.1177465034377182e-18
5.529022354014368 1.9058539642247735e-24 2.7970961706947905e-16 2.7856340720456687e-16 1.1462098649122487e-18
5.570647458961463 1.9881898054212124e-24 2.9399026549602753e-16 2.9281517225395327e-16 1.1750932420742839e-18
5.612585937458331 2.0752276325115623e-24 3.091705926245108e-16 3.0796619731400533e-16 1.2043953105055975e-18
5.654840148729818 2.17071056139472e-24 3.258304626737273e-16 3.245962287077427e-16 1.2342339659846175e-18
5.67608639626678 2.2357654670204743e-24 3.368563000939858e-16 3.356064697317742e-16 1.2498303622115683e-18
5.686739436050992 2.269265943989777e-24 3.425454144104513e-16 3.4128774152879654e-16 1.2576728816548381e-18
5.6974124697621304 2.30343576462582e-24 3.4835592411139887e-16 3.470903791721637e-16 1.2655449392351805e-18
5.718818669136295 2.373847804492911e-24 3.60353405524397e-16 3.5907202788667453e-16 1.2813776377224112e-18
5.740305295436557 2.4514240331419923e-24 3.7352774268411485e-16 3.722303126915917e-16 1.2974299925231117e-18
5.7835210386641895 2.652701251843136e-24 4.0723968714777873e-16 4.0590899975710387e-16 1.3306873906749737e-18
5.827062130521658 2.884087665695378e-24 4.460951884505981e-16 4.447304766495473e-16 1.364711801050754e-18
5.8489554468988025 3.0466236685359757e-24 4.73005900082489e-16 4.71622897313731e-16 1.3830027687578885e-18
5.870931020387893 3.2207915317163587e-24 5.019252297486019e-16 5.005237753262094e-16 1.4014544223924613e-18
5.892989160043636 3.407523427133723e-24 5.330205162991608e-16 5.316004491540572e-16 1.420067145103438e-18
5.915130176081913 3.6197943294995205e-24 5.683523174146053e-16 5.669129753420661e-16 1.4393420725393922e-18
5.95966208400165 4.213684690283477e-24 6.665812647744091e-16 6.650985164707224e-16 1.4827483036867582e-18
6.004529249263818 5.0691969369139586e-24 8.079557229754803e-16 8.064243851318808e-16 1.5313378435993413e-18
6.027089341400364 5.6639503812654414e-24 9.061425044207277e-16 9.045833513239127e-16 1.5591530968152447e-18
6.049734195844842 6.366168276940981e-24 1.0223128998463436e-15 1.0207243273645567e-15 1.5885724817870807e-18
6.095279466722835 8.394681053001795e-24 1.3582110391348005e-15 1.3565510656308571e-15 1.6599735039435612e-18
6.141167624020661 1.151457653558966e-23 1.877017646254445e-15 1.875266126923254e-15 1.7515193311913236e-18
6.164241091010745 1.350741246399388e-23 2.2101472583578286e-15 2.2083388321977548e-15 1.8084261600736496e-18
6.187401249150058 1.5775106654243298e-23 2.590896222845237e-15 2.589029202652741e-15 1.867020192496161e-18
6.1990139391386085 1.688232398450616e-23 2.7779490517592145e-15 2.7760521829026076e-15 1.896868856607157e-18
6.204828454712694 1.7465349932988095e-23 2.87658031125536e-15 2.8746683493410824e-15 1.911961914277929e-18
6.210648424152782 1.789095931505138e-23 2.9494429916078657e-15 2.947518037972487e-15 1.9249536353780286e-18
6.233982942956859 1.9336163448919505e-23 3.1996711922419324e-15 3.1977003752991532e-15 1.9708169427795807e-18
6.239830258556775 1.9520495228445555e-23 3.233203499585866e-15 3.2312258944013684e-15 1.9776051844974342e-18
6.245683058788269 1.9535876498646524e-23 3.23878616947447e-15 3.236801758832264e-15 1.9844106422056326e-18
6.257405133728602 1.949479279730363e-23 3.2380409054394274e-15 3.2360443324582997e-15 1.996572981128805e-18
6.269149208991335 1.920887853262353e-23 3.1965393108889703e-15 3.1945370649987064e-15 2.00224589026451e-18
6.280915325867298 1.8493889951472964e-23 3.0833344883699447e-15 3.0813346143005504e-15 1.9998740693948123e-18
6.304513850009849 1.6731425459785285e-23 2.799973874476332e-15 2.7979860444164613e-15 1.987830059871209e-18
6.32820103803542 1.454839682758198e-23 2.443795378717193e-15 2.4418273602452894e-15 1.9680184719046704e-18
6.3519772230701035 1.2546721566850495e-23 2.1154785470939844e-15 2.1135278789372867e-15 1.950668156697921e-18
6.375842739491607 1.0861922701805637e-23 1.8382887843256655e-15 1.8363529613578365e-15 1.9358229678294997e-18
6.399797922933955 9.512691848700102e-24 1.6159916884681356e-15 1.6140614033288333e-15 1.930285139302625e-18
6.42384311029221 8.390201364066911e-24 1.4306610140092918e-15 1.4287344151509456e-15 1.926598858346716e-18
6.447978639727206 7.572570770442909e-24 1.2960935935035489e-15 1.294163369490739e-15 1.9302240128098097e-18
6.472204850670314 6.89102896017384e-24 1.183874763151296e-15 1.1819394346700384e-15 1.935328481257742e-18
6.496522083828205 6.44817075933812e-24 1.111954155040043e-15 1.1100077485089122e-15 1.946406531131416e-18
6.520930681187647 6.0748924206990325e-24 1.0515201712078448e-15 1.049561724797053e-15 1.9584464107916017e-18
6.57002334288761 5.692461018904938e-24 9.92742034189357e-16 9.907510512966986e-16 1.9909828926582266e-18
