Dust emission spectrum from A.P. Jones, M. Kohler, N. Ysard, M. Bocchio, and L. Verstraete (2017), A&A, 602A, 46J 
inside the DustPedia framework.

lambda    nu*dP/dnu     j_nu    j_nu(carb.) j_nu(sil)
 (um)   (erg s-1 H-1) (Jy cm2 sr-1 H-1)
0.9927057738263894 5.447759838068099e-21 1.4355156599890937e-13 1.4355153369010531e-13 3.2308804018477136e-20
1.0001793341362166 5.539205956551211e-21 1.4706008853808244e-13 1.4706004966400163e-13 3.887408087031358e-20
1.0077091589558085 5.631041466335351e-21 1.506237182759094e-13 1.5062367156507017e-13 4.671083925222803e-20
1.0114953028030835 5.677101582749532e-21 1.5242632141068246e-13 1.5242627023330355e-13 5.1177378938284855e-20
1.0152956718711033 5.7232547351686025e-21 1.5424285102616623e-13 1.542427949739585e-13 5.605220772658104e-20
1.0229392996569957 5.815789713410741e-21 1.5791667523968573e-13 1.57916608067312e-13 6.71723737285878e-20
1.0267826658714554 5.8620667653596536e-21 1.5977128268610214e-13 1.5977120918615955e-13 7.349994263475233e-20
1.0306404723013447 5.9084293740702956e-21 1.6163993772348472e-13 1.6163985732687203e-13 8.039661265460573e-20
1.03451277320114 5.954876367337492e-21 1.635226963351166e-13 1.6352260842416228e-13 8.791095429366685e-20
1.0383996230291617 6.001406622006128e-21 1.654196158698088e-13 1.6541951977436539e-13 9.609544342586235e-20
1.0403485208654093 6.0247026351098995e-21 1.663734042927382e-13 1.6637330383620654e-13 1.0045653163266164e-19
1.0423010764483396 6.0480190652624374e-21 1.6733075510109734e-13 1.6733065009434282e-13 1.0500675450319586e-19
1.0462171883269815 6.094712675925754e-21 1.6925617428752276e-13 1.692560595814487e-13 1.1470607407878506e-19
1.0471985131304309 6.106398646350111e-21 1.6973976753501722e-13 1.697396502733601e-13 1.1726165711180248e-19
1.048180758391296 6.118089614352441e-21 1.7022425811584205e-13 1.7022413824416843e-13 1.1987167363394317e-19
1.0501480137395462 6.141486485740396e-21 1.7119593523399896e-13 1.7119580997456304e-13 1.2525943592013647e-19
1.0521189612883777 6.1649031775391246e-21 1.721712136194764e-13 1.7217108274104509e-13 1.3087843127408685e-19
1.0531058218030118 6.176603526937528e-21 1.7265977546155157e-13 1.7265964168378499e-13 1.3377776656776744e-19
1.0540936079674168 6.1882583560080645e-21 1.731478286835813e-13 1.731476919444479e-13 1.3673913343698169e-19
1.058054026499678 6.234924533789273e-21 1.7510900429749454e-13 1.751088550737673e-13 1.492237272706405e-19
1.0590464539527713 6.2466027320979546e-21 1.7560154403001988e-13 1.7560139151888808e-13 1.525111317528473e-19
1.06003981227728 6.258285568143482e-21 1.7609498417773664e-13 1.76094828310022e-13 1.558677146070466e-19
1.0620293250338977 6.281665107665923e-21 1.7708456994290713e-13 1.7708440714893644e-13 1.6279397066352897e-19
1.0660195594769086 6.328479349013547e-21 1.790745933291807e-13 1.7907441578996582e-13 1.7753921488638311e-19
1.070024785945596 6.375366589103947e-21 1.8107914404724186e-13 1.8107895049152315e-13 1.9355571873258901e-19
1.0740450607676866 6.422326220387065e-21 1.830982936377246e-13 1.830980826905793e-13 2.1094714530932726e-19
1.07808044048254 6.4693576977713484e-21 1.8513211566024393e-13 1.851318858351522e-13 2.298250916368913e-19
1.0861967418109137 6.563562859486148e-21 1.8924202109285367e-13 1.892417485627998e-13 2.725300538699838e-19
1.0902777775684922 6.6105732919907296e-21 1.9131354445616341e-13 1.913132478308884e-13 2.966252749529117e-19
1.0943741465085532 6.657651255497978e-21 1.9339992429960248e-13 1.9339960155499172e-13 3.2274461079818325e-19
1.1026131145906286 6.7520090455421644e-21 1.976175916145071e-13 1.9761720990495196e-13 3.81709555170103e-19
1.1109141095355224 6.84663548284498e-21 2.0189572457940462e-13 2.0189527372251757e-13 4.508568870227508e-19
1.1192775983109025 6.941457540699866e-21 2.0623288456770453e-13 2.0623235273092744e-13 5.31836777026838e-19
1.1277040513999907 7.036139268277174e-21 2.1061970527773633e-13 2.106190787296035e-13 6.26548132830774e-19
1.1361939428280308 7.131083703053742e-21 2.1506881234901054e-13 2.1506807517589592e-13 7.371731146496807e-19
1.1447477501889525 7.226295117130512e-21 2.1958108445064134e-13 2.1958021823470933e-13 8.662159319576395e-19
1.1533659546722406 7.321812090962199e-21 2.2415846271102663e-13 2.2415744616310096e-13 1.016547925635978e-18
1.1707974979042381 7.51406174752241e-21 2.3352101964552745e-13 2.335196249396135e-13 1.3947059139812088e-18
1.1884924949847024 7.707620031895263e-21 2.4315666233295676e-13 2.4315475840652907e-13 1.9039264275979772e-18
1.2064549276569216 7.903811434963859e-21 2.531145467260339e-13 2.5311196052596794e-13 2.5862000659256684e-18
1.2246888378427687 8.101442119636362e-21 2.63364677059754e-13 2.6336118135264494e-13 3.4957071090777975e-18
1.2431983285522175 8.300405380984486e-21 2.7391079844688126e-13 2.739060963392027e-13 4.7021076785578185e-18
1.2619875648066055 8.501053256855581e-21 2.8477197386451097e-13 2.84765679355057e-13 6.2945094539722895e-18
1.3004222497298317 8.90649581521645e-21 3.074402274349612e-13 3.0742910685701847e-13 1.1120577942797581e-17
1.3400274889804893 9.319650636535721e-21 3.3149941999344e-13 3.3148013413117185e-13 1.928586226810261e-17
1.3808389325824078 9.742883236038337e-21 3.5710830817683627e-13 3.5707546069928817e-13 3.284747754807884e-17
1.4228933163050095 1.0180747739154598e-20 3.845222270519629e-13 3.8446725623622067e-13 5.497081574227431e-17
1.466228494730424 1.064192857871315e-20 4.141821978065658e-13 4.1409176055474187e-13 9.043725182387529e-17
1.5108834753276823 1.112750671467446e-20 4.462705924116066e-13 4.4612426039931325e-13 1.463320122934053e-16
1.5568984535646726 1.1639564254207376e-20 4.81023664409236e-13 4.80790550477815e-13 2.3311393142103765e-16
1.6043148490894465 1.2183918052412498e-20 5.188549992688042e-13 5.18488688603342e-13 3.6631066546195873e-16
1.6531753430134553 1.2767309606356503e-20 5.602575817140667e-13 5.596904753462787e-13 5.671063677879092e-16
1.7035239163302658 1.3397887594328327e-20 6.058344956506648e-13 6.04969300735757e-13 8.651949149081695e-16
1.755405889504358 1.4091236979310013e-20 6.565927800336808e-13 6.552913697515756e-13 1.3014102821052772e-15
1.8088679632656115 1.4854454862237654e-20 7.132356105132866e-13 7.113048966150552e-13 1.9307138982315303e-15
1.8639582606462262 1.5695746794070276e-20 7.765825007545522e-13 7.737563431434841e-13 2.826157611067776e-15
1.9207263702978936 1.6626934085003706e-20 8.477096111755349e-13 8.436263101116444e-13 4.083301063890221e-15
1.979223391128241 1.7662473008926506e-20 9.279311612386606e-13 9.22105719701465e-13 5.82544153719562e-15
2.039501978296691 1.8818166394100412e-20 1.0187576156538499e-12 1.0105484067725674e-12 8.209208881282419e-15
2.1016163906111602 2.011684123333025e-20 1.1222320517507146e-12 1.1108004856036216e-12 1.1431566147092944e-14
2.1656225393682647 2.157931767354673e-20 1.240480393218026e-12 1.2247445883645583e-12 1.5735804853467644e-14
2.231578038680979 2.3222350677810833e-20 1.3755858216705407e-12 1.3541675946321196e-12 2.1418227038420943e-14
2.299542257339062 2.5067169405820178e-20 1.530086994881813e-12 1.5012520300127836e-12 2.883496486902903e-14
2.369576372248914 2.713838449353052e-20 1.7069631080643538e-12 1.6685540211656191e-12 3.840908689873517e-14
2.4417434235010123 2.946225189781709e-20 1.909569186296055e-12 1.858933744107988e-12 5.063544218806727e-14
2.5161083711144245 3.2070009280488183e-20 2.1418934428418886e-12 2.0758061497903525e-12 6.608729305153593e-14
2.5927381535095444 3.4998034331408266e-20 2.408639168827787e-12 2.3232197843290873e-12 8.54193844987003e-14
2.6717017477616296 3.8280349010676847e-20 2.714771593954275e-12 2.605406694210808e-12 1.0936489974346602e-13
2.753070231689431 4.195438010197902e-20 3.0659426868621958e-12 2.92720822834117e-12 1.3873445852102594e-13
2.836916847834745 4.608311632399677e-20 3.4702269615354764e-12 3.2958088417682043e-12 1.744181197672725e-13
2.9233170693905177 5.077328570855478e-20 3.9398585002882075e-12 3.722525902750703e-12 2.1733259753750473e-13
2.967498994190263 5.338464105945917e-20 4.205100120387024e-12 3.9637864967081516e-12 2.413136236788733e-13
3.0123486681368425 5.616085624428848e-20 4.490641566757661e-12 4.223046070093681e-12 2.675954966639804e-13
3.0578761833420214 5.966083337643121e-20 4.842600527250609e-12 4.546151922140968e-12 2.964486051096402e-13
3.1040917844459814 6.351956615313095e-20 5.2337323650892e-12 4.905975578587295e-12 3.2775678650190397e-13
3.127460860933648 6.625428892282872e-20 5.500159877529032e-12 5.155675581471336e-12 3.4448429605769534e-13
3.1510058709225794 6.946085407478842e-20 5.809767655215917e-12 5.447873227330319e-12 3.6189442788559676e-13
3.162844764501044 7.192825364757492e-20 6.038746879125808e-12 5.667852607578146e-12 3.708942715476611e-13
3.1747281389236908 7.464857917937852e-20 6.290678938834451e-12 5.910608804193814e-12 3.8007013464063554e-13
3.1986289994194426 8.162287860223093e-20 6.930191099147699e-12 6.5311850205849345e-12 3.9900607856276413e-13
3.2227097969389145 9.627831551030333e-20 8.236052675896926e-12 7.817007695634357e-12 4.1904498026256687e-13
3.2348180950136065 1.0951529008645904e-19 9.403597995527146e-12 8.973865668089375e-12 4.297323274377693e-13
3.240889293275058 1.1925868584570594e-19 1.0259439824096429e-11 9.824070152752285e-12 4.353696713441452e-13
3.2469718861334385 1.305017586047274e-19 1.1247715571035983e-11 1.0806512932731929e-11 4.4120263830405337e-13
3.2714166318528037 1.8898065483568114e-19 1.641053122715111e-11 1.594524531149907e-11 4.652859156520384e-13
3.2744851364798273 1.9270836813250634e-19 1.6749931305679457e-11 1.6281813310692893e-11 4.681179949865672e-13
3.2775565192852394 1.9653112489187304e-19 1.7098222431659604e-11 1.6627258756071616e-11 4.709636755879832e-13
3.283707930232385 1.9330407150162203e-19 1.6849032049036235e-11 1.637299170204717e-11 4.76040346989065e-13
3.2898708863219004 1.8238921807275093e-19 1.5927493941297856e-11 1.5446844864480532e-11 4.806490768173244e-13
3.29141343181113 1.7981306517585112e-19 1.5709888925489516e-11 1.5228082858975196e-11 4.818060665143228e-13
3.292184975758714 1.785469223775899e-19 1.5602925337175124e-11 1.512054005412319e-11 4.823852830519326e-13
3.295272960557952 1.7058575343868304e-19 1.4921194304687684e-11 1.4436558118928103e-11 4.846361857595833e-13
3.3076538914384823 1.4285096207538108e-19 1.2542169390685709e-11 1.20484981164505e-11 4.936712742352051e-13
3.310756385682612 1.3716705777035753e-19 1.2054424509818222e-11 1.1558477020211572e-11 4.959474896066473e-13
3.313861789986515 1.3190810751695984e-19 1.1603134169723355e-11 1.1104903481181753e-11 4.982306885416053e-13
3.3200813396944477 1.2466896665941615e-19 1.0986934022948465e-11 1.0483787105361477e-11 5.031469175869881e-13
3.345076488085796 1.128425056889353e-19 1.0019549772042678e-11 9.494479844859273e-12 5.250699271834081e-13
3.3482140837626964 1.135574984688957e-19 1.0092493279784884e-11 9.564452915400386e-12 5.280403643844971e-13
3.3513546224236106 1.1427780312299903e-19 1.0166037349567896e-11 9.635013773949634e-12 5.310235756182626e-13
3.3576445397418455 1.1844150251197138e-19 1.0556210901475448e-11 1.001894809716837e-11 5.372628043070787e-13
3.3702598118196083 1.329261564500439e-19 1.1891681317242601e-11 1.1341332450358641e-11 5.503488668839603e-13
3.382922481734668 1.3694204414356375e-19 1.2296974872317345e-11 1.173392535725103e-11 5.630495150663103e-13
3.389271646505754 1.3900299324889654e-19 1.2505468420335213e-11 1.193598504742846e-11 5.694833729067544e-13
3.395632727569191 1.4124914439320347e-19 1.2731394323843791e-11 1.2155280457125716e-11 5.761138667180735e-13
3.421196662673239 1.5188699505225593e-19 1.379329621238392e-11 1.3189755393623523e-11 6.035408187603962e-13
3.4276182099114902 1.5058447879411785e-19 1.370067879332269e-11 1.3091037749969703e-11 6.096410433529858e-13
3.4340518103208963 1.4346195619123764e-19 1.3077147571260937e-11 1.2461746776284805e-11 6.154007949761322e-13
3.4469541582030403 1.3340671992067593e-19 1.2206260859055239e-11 1.157982520752143e-11 6.264356515338085e-13
3.472904465399547 1.318209063926589e-19 1.2151966488636092e-11 1.1500080387078202e-11 6.518861015578904e-13
3.4990501388274233 1.287400437227685e-19 1.1957303454597467e-11 1.1279418753182814e-11 6.778847014146552e-13
3.5253949054701885 1.1426117614860318e-19 1.0692417198548421e-11 9.989347774427733e-12 7.03069424120689e-13
3.5519380250092896 1.0053402862941166e-19 9.478680805239107e-12 8.750357025369516e-12 7.283237798695911e-13
3.578680990867387 9.613909389755437e-20 9.132558106325731e-12 8.376562220398869e-12 7.559958859268574e-13
3.605625307711299 9.542377287688732e-20 9.132856001966356e-12 8.347751499455936e-12 7.851045025104207e-13
3.660119384959845 9.717075138452084e-20 9.440614096738709e-12 8.594516837346975e-12 8.460972593917344e-13
3.715437065384467 9.945487384885226e-20 9.808563617715342e-12 8.898404245165264e-12 9.10159372550078e-13
3.8285932144167436 1.0610687558983696e-19 1.0783312342276789e-11 9.73629529204252e-12 1.0470170502342678e-12
3.94519561050918 1.1344959211532501e-19 1.18806694559464e-11 1.0685655273769277e-11 1.1950141821771254e-12
4.06534921144712 1.2112685054691607e-19 1.3070966916123883e-11 1.1717285228192929e-11 1.3536816879309535e-12
4.189162171576248 1.2899752020755083e-19 1.4344254034536349e-11 1.2821236866258998e-11 1.5230171682773518e-12
4.316745939156006 1.3696193010094416e-19 1.56937160206041e-11 1.3991673322642586e-11 1.7020426979615158e-12
4.448215356677963 1.4492512253481714e-19 1.7111926823834602e-11 1.5224051864304297e-11 1.887874959530308e-12
4.58368876423945 1.528286246282818e-19 1.8594703546039708e-11 1.6514278289979535e-11 2.0804252560601755e-12
4.723288106065518 1.606286886696051e-19 2.0138957433884245e-11 1.7858352384223597e-11 2.2806050496606515e-12
4.867139040275056 1.682373497218311e-19 2.1735298265203828e-11 1.925284138239349e-11 2.4824568828103412e-12
4.940699165968905 1.719858630687094e-19 2.2555403158664127e-11 1.9970834783014864e-11 2.584568375649259e-12
5.015371051989984 1.756448415247456e-19 2.3383413071270428e-11 2.0696318388732793e-11 2.6870946825376295e-12
5.091171501069577 1.7931429637269266e-19 2.4232715096329422e-11 2.1440349081893372e-11 2.792366014436053e-12
5.129500256944802 1.8110895165938588e-19 2.465950789930514e-11 2.1814495037302166e-11 2.8450128620029734e-12
5.168117569889187 1.8288768200508423e-19 2.5089168800925184e-11 2.2190933655723877e-11 2.89823514520132e-12
5.20702561229733 1.8474181472337092e-19 2.5534323269276715e-11 2.2577622033394084e-11 2.9567012358826317e-12
5.246226572918644 1.8656896777357375e-19 2.598100130094916e-11 2.2965685802888243e-11 3.0153154980609117e-12
5.265937586045735 1.874721557449229e-19 2.62048642224377e-11 2.3160195607350324e-11 3.044668615087375e-12
5.285722656980489 1.8836827690277018e-19 2.6429051061280827e-11 2.3355003826234074e-11 3.0740472350467477e-12
5.305582063971359 1.8925722768203092e-19 2.6653542780772855e-11 2.355009531538996e-11 3.1034474653828967e-12
5.3255160863122235 1.9015358574521118e-19 2.6880395433292757e-11 2.3747267097870993e-11 3.1331283354217627e-12
5.365609099470188 1.9203722802045387e-19 2.735104294197286e-11 2.4156477588956104e-11 3.1945653530167502e-12
5.406003951863644 1.9389563556364758e-19 2.7823632308063784e-11 2.456749852211812e-11 3.256133785945669e-12
5.446702915881641 1.9572831906222617e-19 2.8298068089097932e-11 2.4980265712165632e-11 3.3178023769323036e-12
5.487708281020852 1.9756141811332202e-19 2.8778130971951032e-11 2.5398295893164382e-11 3.3798350787866497e-12
5.529022354014368 1.9960267809100455e-19 2.929436866774164e-11 2.5849872333019984e-11 3.4444963347216514e-12
5.570647458961463 2.0163105560111985e-19 2.98148433347686e-11 2.6305565992107347e-11 3.5092773426612547e-12
5.612585937458331 2.0364741698966502e-19 3.033970423810594e-11 2.6765557925665123e-11 3.574146312440824e-12
5.654840148729818 2.0569192917712635e-19 3.0875003625067656e-11 2.7235572155521242e-11 3.639431469546413e-12
5.67608639626678 2.068829095134129e-19 3.117044809903083e-11 2.7496796628833417e-11 3.673651470197415e-12
5.686739436050992 2.0748037961650083e-19 3.13191377176426e-11 2.762836314390894e-11 3.690774573733662e-12
5.6974124697621304 2.0807926988241072e-19 3.146849044435465e-11 2.7760584705221336e-11 3.707905739133324e-12
5.718818669136295 2.092816255585367e-19 3.176924246826778e-11 2.8027052241300844e-11 3.742190226966932e-12
5.740305295436557 2.1053874498124794e-19 3.208015467629908e-11 2.830337015074558e-11 3.776784525553502e-12
5.7835210386641895 2.1346960416230494e-19 3.277161148629711e-11 2.892336727498268e-11 3.848244211314422e-12
5.827062130521658 2.165831671043061e-19 3.3499920926060917e-11 2.9579369128379375e-11 3.920551797681545e-12
5.8489554468988025 2.185901471259684e-19 3.393738135703763e-11 2.997758594282296e-11 3.959795414214658e-12
5.870931020387893 2.2065969027750606e-19 3.4387405905706495e-11 3.038827926255943e-11 3.999126643147063e-12
5.892989160043636 2.2279727892519067e-19 3.48509770166557e-11 3.081243564498906e-11 4.038541371666632e-12
5.915130176081913 2.2514267451892573e-19 3.5350174392213526e-11 3.127071183246353e-11 4.079462559749989e-12
5.95966208400165 2.313782149091049e-19 3.660273477296664e-11 3.242889795609202e-11 4.173836816874617e-12
6.004529249263818 2.3983263403045076e-19 3.822580807822256e-11 3.394513330993073e-11 4.280674768291827e-12
6.027089341400364 2.45523407098304e-19 3.927986299771588e-11 3.493689432418523e-11 4.342968673530644e-12
6.049734195844842 2.520503043146507e-19 4.047556808141419e-11 3.606649101449514e-11 4.409077066919056e-12
6.095279466722835 2.7044677093814584e-19 4.375672970388813e-11 3.918325093915806e-11 4.573478764730073e-12
6.141167624020661 2.977786613221158e-19 4.854158555045935e-11 4.3752375480452154e-11 4.789210070007216e-12
6.164241091010745 3.150864536016167e-19 5.1555948515649015e-11 4.663020705553385e-11 4.9257414601151555e-12
6.187401249150058 3.341991279640011e-19 5.488871025079207e-11 4.982299387231289e-11 5.0657163784792015e-12
6.1990139391386085 3.434573850225495e-19 5.6515152648339617e-11 5.137825360498869e-11 5.1368990433509376e-12
6.204828454712694 3.482833959348111e-19 5.7363016677434903e-11 5.219018768759428e-11 5.1728289898406345e-12
6.210648424152782 3.517799341386439e-19 5.799324916359411e-11 5.279005799775868e-11 5.203191165835437e-12
6.233982942956859 3.633993834699084e-19 6.013388031389026e-11 5.48258908972744e-11 5.307989416615854e-12
6.239830258556775 3.647402739283267e-19 6.041237767300645e-11 5.509064546534184e-11 5.3217322076646085e-12
6.245683058788269 3.646906660906406e-19 6.046081861505582e-11 5.512532996152117e-11 5.335488653534637e-12
6.257405133728602 3.6397688808154584e-19 6.045573628285009e-11 5.509663604176041e-11 5.359100241089677e-12
6.269149208991335 3.611902224368755e-19 6.010547376658931e-11 5.473995828322842e-11 5.36551548336089e-12
6.280915325867298 3.5482379460561814e-19 5.915685916118799e-11 5.380616215091224e-11 5.350697010275746e-12
6.304513850009849 3.3936737073512625e-19 5.6792517421302354e-11 5.1490621537153704e-11 5.30189588414865e-12
6.32820103803542 3.207610291411084e-19 5.3880460505550824e-11 4.864775063759899e-11 5.2327098679518345e-12
6.3519772230701035 3.038859876721941e-19 5.123763082313834e-11 4.6067569840990155e-11 5.170060982148183e-12
6.375842739491607 2.895465661425122e-19 4.900331365747129e-11 4.388917067709148e-11 5.114142980379828e-12
6.399797922933955 2.7844434742463246e-19 4.7301411450705934e-11 4.221908676572669e-11 5.082324684979244e-12
6.42384311029221 2.6911331912852165e-19 4.5888044555964554e-11 4.0832710015916865e-11 5.055334540047681e-12
6.447978639727206 2.624924211719583e-19 4.492724541474464e-11 3.9880173555375285e-11 5.047071859369363e-12
6.472204850670314 2.5694103107998974e-19 4.414231953917068e-11 3.909981124417658e-11 5.042508294994096e-12
6.496522083828205 2.534588172551589e-19 4.3707680130874534e-11 3.865462017808597e-11 5.05305995278857e-12
