Dust emission spectrum from A.P. Jones, M. Kohler, N. Ysard, M. Bocchio, and L. Verstraete (2017), A&A, 602A, 46J 
inside the DustPedia framework.

lambda    nu*dP/dnu     j_nu    j_nu(carb.) j_nu(sil)
 (um)   (erg s-1 H-1) (Jy cm2 sr-1 H-1)
0.9927057738263894 1.2990130506808888e-23 3.4229731710124477e-16 3.422973171011304e-16 1.1439797330850243e-28
1.0001793341362166 1.3204740814818627e-23 3.5057197161138007e-16 3.5057197161124227e-16 1.378337503568191e-28
1.0077091589558085 1.3419045080731328e-23 3.589436302068657e-16 3.589436302066999e-16 1.6585927170929729e-28
1.0114953028030835 1.3526056054724354e-23 3.63165417698548e-16 3.6316541769836625e-16 1.8185436648483884e-28
1.0152956718711033 1.3632958929879378e-23 3.674109489388788e-16 3.674109489386793e-16 1.9932815747646889e-28
1.0229392996569957 1.3846293730499624e-23 3.759696925201015e-16 3.759696925198621e-16 2.392467582695725e-28
1.0267826658714554 1.3952466931102614e-23 3.8027604042154243e-16 3.8027604042128043e-16 2.61993608724665e-28
1.0306404723013447 1.405848508992292e-23 3.846051988696655e-16 3.846051988693787e-16 2.8681097493932832e-28
1.03451277320114 1.4164337975860352e-23 3.889569815956016e-16 3.889569815952876e-16 3.1387820970134847e-28
1.0383996230291617 1.4270015414556313e-23 3.9333120000175606e-16 3.933312000014127e-16 3.4338935018599376e-28
1.0403485208654093 1.4322785177697933e-23 3.9552666302238315e-16 3.95526663022024e-16 3.5912631270568805e-28
1.0423010764483396 1.437550729034471e-23 3.9772766320642063e-16 3.977276632060451e-16 3.755542450681898e-28
1.0462171883269815 1.4480803548159874e-23 4.0214617808844264e-16 4.02146178088032e-16 4.105997618920693e-28
1.0471985131304309 1.4507095874898735e-23 4.032542295425393e-16 4.032542295421195e-16 4.198395484934513e-28
1.048180758391296 1.4533375195149686e-23 4.0436364395675597e-16 4.043636439563266e-16 4.292786195584809e-28
1.0501480137395462 1.458589419540122e-23 4.065865493319301e-16 4.0658654933148125e-16 4.487710799236981e-28
1.0521189612883777 1.4638359309898438e-23 4.0881486946388953e-16 4.088148694634205e-16 4.691108786255683e-28
1.0531058218030118 1.4664530992328778e-23 4.0992992626804564e-16 4.09929926267566e-16 4.796101059956426e-28
1.0540936079674168 1.469055676529402e-23 4.110426326324894e-16 4.1104263263199905e-16 4.90336704160827e-28
1.058054026499678 1.479451198961825e-23 4.1550659507259975e-16 4.155065950720642e-16 5.355886732391497e-28
1.0590464539527713 1.482046306852244e-23 4.1662585403415986e-16 4.1662585403361224e-16 5.475121982866295e-28
1.06003981227728 1.484639875340791e-23 4.177464139517188e-16 4.1774641395115917e-16 5.596899194098231e-28
1.0620293250338977 1.4898223337065962e-23 4.1999142382456632e-16 4.199914238239816e-16 5.848286888896882e-28
1.0660195594769086 1.500168114741274e-23 4.2449691348771155e-16 4.244969134870731e-16 6.3839035860035395e-28
1.070024785945596 1.510487583343687e-23 4.2902285674572394e-16 4.2902285674502737e-16 6.966335928187267e-28
1.0740450607676866 1.5207797882495848e-23 4.335690444115391e-16 4.3356904441077907e-16 7.599465426655784e-28
1.07808044048254 1.5310437858059703e-23 4.3813526547214047e-16 4.381352654713116e-16 8.287476695139102e-28
1.0861967418109137 1.551465284451858e-23 4.473217250608528e-16 4.47321725059868e-16 9.846533930543499e-28
1.0902777775684922 1.5615796897777882e-23 4.51929556191605e-16 4.519295561905321e-16 1.072767453946415e-27
1.0943741465085532 1.5716614709512156e-23 4.56556220567356e-16 4.565562205661877e-16 1.1683931928494254e-27
1.1026131145906286 1.5917235765805658e-23 4.65865163388008e-16 4.6586516338662345e-16 1.3846507980549184e-27
1.1109141095355224 1.6116445194276117e-23 4.752467673057092e-16 4.752467673040704e-16 1.6388479616319805e-27
1.1192775983109025 1.631398862857854e-23 4.846937280750493e-16 4.846937280731121e-16 1.9372513860459095e-27
1.1277040513999907 1.650894849779523e-23 4.941786588460098e-16 4.941786588437227e-16 2.2870947443401292e-27
1.1361939428280308 1.6702266513371913e-23 5.037294150718334e-16 5.037294150691368e-16 2.6967154729751536e-27
1.1447477501889525 1.689387819523409e-23 5.133441181903431e-16 5.133441181871674e-16 3.1757116419494788e-27
1.1533659546722406 1.7083824986287986e-23 5.230240681644272e-16 5.23024068160692e-16 3.735123038312734e-27
1.1707974979042381 1.745933730393183e-23 5.4259898128914e-16 5.42598981283992e-16 5.147795859441123e-27
1.1884924949847024 1.782738099855027e-23 5.624105033469769e-16 5.62410503339917e-16 7.059879128689197e-27
1.2064549276569216 1.8190833862054328e-23 5.825499134751969e-16 5.825499134655617e-16 9.635231792620516e-27
1.2246888378427687 1.8545726276662316e-23 6.028913296625515e-16 6.028913296494647e-16 1.3086693926799826e-26
1.2431983285522175 1.8891227753953882e-23 6.234046459443715e-16 6.234046459266816e-16 1.768979237926372e-26
1.2619875648066055 1.9227208801695642e-23 6.440813904969262e-16 6.440813904731269e-16 2.379937908237181e-26
1.3004222497298317 1.986502383640822e-23 6.857138399854341e-16 6.857138399429538e-16 4.248040624691331e-26
1.3400274889804893 2.0456673070214e-23 7.276426469449847e-16 7.276426468705292e-16 7.445566290067291e-26
1.3808389325824078 2.0999960024931416e-23 7.697167270305715e-16 7.697167269023702e-16 1.2820121858418825e-25
1.4228933163050095 2.14975254296215e-23 8.119517903888945e-16 8.119517901719322e-16 2.169622924135645e-25
1.466228494730424 2.196133897443938e-23 8.54731882095398e-16 8.547318817343289e-16 3.6106888097382805e-25
1.5108834753276823 2.2382382190554718e-23 8.97649331147051e-16 8.976493305558967e-16 5.911541655742176e-25
1.5568984535646726 2.2753357062503554e-23 9.403189804000569e-16 9.403189794468965e-16 9.531602702042579e-25
1.6043148490894465 2.307493780921872e-23 9.826516222964285e-16 9.826516207801612e-16 1.5162672267740797e-24
1.6531753430134553 2.334809862078543e-23 1.024565838396378e-15 1.0245658360193138e-15 2.3770642107835574e-24
1.7035239163302658 2.3576081097733895e-23 1.066078745675642e-15 1.066078742002237e-15 3.67340485949142e-24
1.755405889504358 2.3777630926792193e-23 1.1079382750968231e-15 1.1079382694982248e-15 5.598598360228956e-24
1.8088679632656115 2.3948115924808346e-23 1.1498671099466144e-15 1.1498671015282143e-15 8.418399878613681e-24
1.8639582606462262 2.4084397647138168e-23 1.191629936400837e-15 1.191629923907019e-15 1.249381795896101e-23
1.9207263702978936 2.418874723638223e-23 1.23324200419312e-15 1.2332419858849861e-15 1.8308133825800148e-23
1.979223391128241 2.4266454964237842e-23 1.2748837449167297e-15 1.2748837184165992e-15 2.650013006832739e-23
2.039501978296691 2.4323852898434553e-23 1.316818539243699e-15 1.3168185013412732e-15 3.790242581701482e-23
2.1016163906111602 2.4378681419969146e-23 1.3599817859863837e-15 1.3599817323961222e-15 5.359026155371203e-23
2.1656225393682647 2.4441226940648456e-23 1.4049963610866788e-15 1.4049962861558919e-15 7.49307866451538e-23
2.231578038680979 2.4512225286833773e-23 1.4519920928754698e-15 1.4519919892343588e-15 1.0364111080521562e-22
2.299542257339062 2.45978364783126e-23 1.5014391568661484e-15 1.5014390150122157e-15 1.4185393253088382e-22
2.369576372248914 2.471168294997324e-23 1.5543272719068045e-15 1.5543270797140674e-15 1.9219273724493945e-22
2.4417434235010123 2.486985216786813e-23 1.6119169550314577e-15 1.6119166971864997e-15 2.5784495800593963e-22
2.5161083711144245 2.5099895985549182e-23 1.6763731546585594e-15 1.6763728120039455e-15 3.4265461349219605e-22
2.5927381535095444 2.544690214781566e-23 1.7513099352425953e-15 1.75130948403289e-15 4.512097057840989e-22
2.6717017477616296 2.5964706204028943e-23 1.841368970497267e-15 1.8413683815893753e-15 5.889078918800246e-22
2.753070231689431 2.673436395361108e-23 1.9536941661931447e-15 1.9536934041446375e-15 7.6204850739477215e-22
2.836916847834745 2.7939492998288134e-23 2.103945861920871e-15 2.1039448839670095e-15 9.779538608789892e-22
2.9233170693905177 2.9984465459883315e-23 2.3267068394357425e-15 2.3267055945675767e-15 1.2448681651375679e-21
2.967498994190263 3.1721084374075674e-23 2.4986650293604864e-15 2.4986636310909796e-15 1.3982695068570607e-21
3.0123486681368425 3.374928765239077e-23 2.6986047598891473e-15 2.698603191333491e-15 1.5685556561573508e-21
3.0578761833420214 3.828709299133351e-23 3.1077188536218124e-15 3.1077170958266715e-15 1.7577951404219275e-21
3.1040917844459814 4.413453614450213e-23 3.636491308533508e-15 3.6364893421441636e-15 1.966389344099355e-21
3.127460860933648 5.0320080355612493e-23 4.177367103408948e-15 4.1773650242567325e-15 2.079152215001453e-21
3.1510058709225794 5.856138514798051e-23 4.898126373612623e-15 4.898124176121245e-15 2.197491378617285e-21
3.162844764501044 6.623263264843647e-23 5.560570199044679e-15 5.560567939985399e-15 2.2590592781384796e-21
3.1747281389236908 7.515363789462087e-23 6.333240528857688e-15 6.333238206759138e-15 2.322098548709366e-21
3.1986289994194426 1.0003674456904904e-22 8.49362052248408e-15 8.493618069448383e-15 2.45303569746991e-21
3.2227097969389145 1.5869173011155906e-22 1.3575159073988466e-14 1.3575156481171594e-14 2.5928168719232244e-21
3.2348180950136065 2.1431481144064414e-22 1.8402273597449045e-14 1.8402270929667914e-14 2.667781133797419e-21
3.240889293275058 2.559002265110465e-22 2.2014270543442e-14 2.2014267836031437e-14 2.7074105523868823e-21
3.2469718861334385 3.040081202100502e-22 2.620192175160537e-14 2.6201919003126836e-14 2.748478541096623e-21
3.2714166318528037 5.606238856822412e-22 4.868295006531086e-14 4.8682947146164585e-14 2.9191462819179314e-21
3.2744851364798273 5.76665791679644e-22 5.012295257633903e-14 5.01229496369376e-14 2.9394014329938914e-21
3.2775565192852394 5.931684646185501e-22 5.160570038498455e-14 5.160569742520539e-14 2.9597791691834706e-21
3.283707930232385 5.772983139012688e-22 5.031925979218415e-14 5.031925679580801e-14 2.9963761406707924e-21
3.2898708863219004 5.269687975919606e-22 4.6018577301817665e-14 4.6018574271986644e-14 3.0298310172622963e-21
3.29141343181113 5.150998462998001e-22 4.5003189078572917e-14 4.5003186040331945e-14 3.0382409723521637e-21
3.292184975758714 5.09267864747397e-22 4.4504090938470164e-14 4.450408789601725e-14 3.0424529043925323e-21
3.295272960557952 4.724557580432194e-22 4.132586704355334e-14 4.132586398469919e-14 3.0588541571208623e-21
3.3076538914384823 3.4492741953160676e-22 3.0284277126356803e-14 3.028427400147347e-14 3.124883327313236e-21
3.310756385682612 3.1897217561642852e-22 2.803170144640696e-14 2.8031698304842822e-14 3.141564137329104e-21
3.313861789986515 2.950244338277404e-22 2.59514608577779e-14 2.595145769946317e-14 3.1583147326418333e-21
3.3200813396944477 2.614404446776187e-22 2.304044858613859e-14 2.304044539181705e-14 3.194321547884996e-21
3.345076488085796 2.0153014668301755e-22 1.7894332662408717e-14 1.7894329307248467e-14 3.355160243211914e-21
3.3482140837626964 2.0377680547518388e-22 1.8110790283018154e-14 1.8110786906000564e-14 3.377017593936878e-21
3.3513546224236106 2.0604830360274248e-22 1.8329847905686736e-14 1.8329844506690836e-14 3.3989959013818334e-21
3.3576445397418455 2.2264851943677335e-22 1.9843759815848997e-14 1.9843756370849768e-14 3.444999228334251e-21
3.3702598118196083 2.838769290209094e-22 2.5395859350697703e-14 2.5395855808929706e-14 3.541768001471094e-21
3.382922481734668 2.9782256657020437e-22 2.674355155443319e-14 2.6743547918202388e-14 3.636230805155432e-21
3.389271646505754 3.0504737551247955e-22 2.7443727879634942e-14 2.744372419536854e-14 3.684266401552871e-21
3.395632727569191 3.1283244039206944e-22 2.819693650557388e-14 2.819693277175805e-14 3.733815825019375e-21
3.421196662673239 3.5021322896283216e-22 3.180387368199519e-14 3.180386974208775e-14 3.9399074335558574e-21
3.4276182099114902 3.42680510324086e-22 3.117821729224324e-14 3.117821330577786e-14 3.986465365744904e-21
3.4340518103208963 3.096715817211626e-22 2.8227838796476535e-14 2.8227834765742925e-14 4.0307336137934134e-21
3.4469541582030403 2.6266097587638072e-22 2.4032585397103544e-14 2.4032581280863353e-14 4.116240185724519e-21
3.472904465399547 2.494868206181519e-22 2.2999048986033856e-14 2.299904467250014e-14 4.313533717392661e-21
3.4990501388274233 2.293370470647842e-22 2.1300697015764182e-14 2.1300692498510703e-14 4.517253485653035e-21
3.5253949054701885 1.5762526264540502e-22 1.4750373889408317e-14 1.475036917212584e-14 4.717282481549299e-21
3.5519380250092896 9.022469352814744e-23 8.506682586612634e-15 8.50667766615269e-15 4.920459944954134e-21
3.578680990867387 6.350058939279105e-23 6.032122822309519e-15 6.03211767770628e-15 5.144603237365936e-21
3.605625307711299 5.269187642253179e-23 5.043054841912959e-15 5.043049459177625e-15 5.382735333720763e-21
3.660119384959845 4.4808434186459464e-23 4.353358694938158e-15 4.353352804237596e-15 5.890700562109187e-21
3.715437065384467 3.922696337064106e-23 3.868690903328339e-15 3.868684466110538e-15 6.4372178008375964e-21
3.8285932144167436 3.6401019262421883e-23 3.699322575487515e-15 3.6993149232953825e-15 7.652192133260113e-21
3.94519561050918 3.5870124029478287e-23 3.756391530300309e-15 3.7563824892724494e-15 9.041027859714467e-21
4.06534921144712 3.62868934561217e-23 3.915769143771854e-15 3.915758521405373e-15 1.0622366481391084e-20
4.189162171576248 3.7257874540512576e-23 4.142997604419944e-15 4.1429851825705024e-15 1.2421849442236631e-20
4.316745939156006 3.8638263494684485e-23 4.427346594545927e-15 4.42733213320942e-15 1.4461336506516048e-20
4.448215356677963 4.0381700765859864e-23 4.768039498199287e-15 4.768022749210158e-15 1.6748989129557483e-20
4.58368876423945 4.249787741011446e-23 5.1707291987942045e-15 5.170709876366791e-15 1.932242741459685e-20
4.723288106065518 4.503815142693094e-23 5.646696253328912e-15 5.646674017270139e-15 2.223605877397572e-20
4.867139040275056 4.810171087916705e-23 6.2144644738755486e-15 6.214438988372259e-15 2.548550328913376e-20
4.940699165968905 4.994966798199508e-23 6.5507413160186216e-15 6.550714055966972e-15 2.726005164986649e-20
5.015371051989984 5.187006879316014e-23 6.905407719900494e-15 6.90537857965432e-15 2.9140246171874945e-20
5.091171501069577 5.420548070237728e-23 7.325383402727548e-15 7.325352240470527e-15 3.1162257022985684e-20
5.129500256944802 5.540698122660461e-23 7.544126774052253e-15 7.54409455597171e-15 3.221808054045853e-20
5.168117569889187 5.666035446405591e-23 7.772864645030796e-15 7.772831334408173e-15 3.3310622624835556e-20
5.20702561229733 5.818971306585565e-23 8.042764690792261e-15 8.042730205500608e-15 3.4485291653837474e-20
5.246226572918644 5.97598200331445e-23 8.321962545828767e-15 8.321926849259163e-15 3.569656960344667e-20
5.265937586045735 6.056057071638279e-23 8.465158607422294e-15 8.46512229113282e-15 3.6316289473874014e-20
5.285722656980489 6.137201534262919e-23 8.610813635362207e-15 8.610776689772363e-15 3.694558984350314e-20
5.305582063971359 6.219433026419544e-23 8.758974559234968e-15 8.758936974615978e-15 3.758461899097587e-20
5.3255160863122235 6.307628604193608e-23 8.916558184406608e-15 8.916519947890894e-15 3.823651571143147e-20
5.365609099470188 6.525966814221302e-23 9.294656062971575e-15 9.294616468744232e-15 3.9594227342758045e-20
5.406003951863644 6.752727375660967e-23 9.690027474358108e-15 9.689986478807189e-15 4.099555092169782e-20
5.446702915881641 6.988314515963795e-23 1.010358648908154e-14 1.0103544047170881e-14 4.2441910659190905e-20
5.487708281020852 7.242672639624971e-23 1.0550166312864643e-14 1.0550122373793788e-14 4.3939070855354675e-20
5.529022354014368 7.593586620639469e-23 1.1144606279982974e-14 1.114456075717983e-14 4.5522803145708586e-20
5.570647458961463 7.96513453325519e-23 1.177790978385572e-14 1.1777862624175751e-14 4.715967997117287e-20
5.612585937458331 8.35878774717835e-23 1.2453050069933628e-14 1.2453001218370075e-14 4.8851563552450886e-20
5.654840148729818 8.791075380200651e-23 1.3195679836237416e-14 1.319562922948985e-14 5.060674757271498e-20
5.67608639626678 9.083968752953198e-23 1.3686552321461231e-14 1.3686500787046786e-14 5.153441444698116e-20
5.686739436050992 9.23491137102182e-23 1.3940087326515262e-14 1.3940035322152669e-14 5.2004362594796525e-20
5.6974124697621304 9.388946317710287e-23 1.4199202431284597e-14 1.4199149952846345e-14 5.2478438256135784e-20
5.718818669136295 9.706589248252596e-23 1.473473777473911e-14 1.4734684335611444e-14 5.343912766568308e-20
5.740305295436557 1.0056341068448724e-22 1.5323021754603305e-14 1.5322967330734106e-14 5.442386919716612e-20
5.7835210386641895 1.0961012512677668e-22 1.682722207555131e-14 1.682716557243151e-14 5.650311979742664e-20
5.827062130521658 1.2002084490474251e-22 1.85641796061258e-14 1.856412092826973e-14 5.867785606686606e-20
5.8489554468988025 1.2730423404177887e-22 1.9764716735158655e-14 1.9764656866028078e-14 5.98691305829871e-20
5.870931020387893 1.351171450868495e-22 2.1056533284708294e-14 2.1056472198991528e-14 6.108571676286525e-20
5.892989160043636 1.4350209756765742e-22 2.2447259357469883e-14 2.2447197029233183e-14 6.232823670689845e-20
5.915130176081913 1.5303152241677003e-22 2.402783486736989e-14 2.4027771239546547e-14 6.362782332894273e-20
5.95966208400165 1.796328096756265e-22 2.8416902134294323e-14 2.8416835545168417e-14 6.658912590437198e-20
6.004529249263818 2.179256497972547e-22 3.4734155750522736e-14 3.473408573390043e-14 7.001662230875973e-20
6.027089341400364 2.4452191979250147e-22 3.9119640863986183e-14 3.9119568831094426e-14 7.203289175286228e-20
6.049734195844842 2.7594004374852466e-22 4.43119085196146e-14 4.4311834313030515e-14 7.420658409565891e-20
6.095279466722835 3.6664184569904037e-22 5.932053869504987e-14 5.932045905289645e-14 7.964215342219996e-20
6.141167624020661 5.061610380760083e-22 8.251047681854525e-14 8.25103899240868e-14 8.689445844707137e-20
6.164241091010745 5.952507341989268e-22 9.73977645039091e-14 9.739767302885966e-14 9.147504941009096e-20
6.187401249150058 6.967189147202905e-22 1.144287924068062e-13 1.144286960535153e-13 9.635329093860015e-20
6.1990139391386085 7.462693296131335e-22 1.227969667243909e-13 1.2279686787045076e-13 9.885394012295834e-20
6.204828454712694 7.723687950932604e-22 1.2721078464032704e-13 1.2721068450417123e-13 1.0013615582603022e-19
6.210648424152782 7.914300424644826e-22 1.3047247780229386e-13 1.3047237656948157e-13 1.012328123215669e-19
6.233982942956859 8.562081334398898e-22 1.4168190635996812e-13 1.4168180120052895e-13 1.0515943915053327e-19
6.239830258556775 8.645024370869025e-22 1.4318859600020818e-13 1.4318849024448375e-13 1.0575572445344353e-19
6.245683058788269 8.65246940465592e-22 1.4344633188862608e-13 1.434462255330343e-13 1.0635559184001606e-19
6.257405133728602 8.635259310653116e-22 1.4342970026764713e-13 1.4342959283125348e-13 1.0743639363985122e-19
6.269149208991335 8.508630386560797e-22 1.4159166796892283e-13 1.4159156000616236e-13 1.0796276046478645e-19
6.280915325867298 8.190222683373426e-22 1.365488609121079e-13 1.3654875311311705e-13 1.0779899087308688e-19
6.304513850009849 7.404706858415382e-22 1.2391643378833101e-13 1.2391632695240274e-13 1.0683592826458589e-19
6.32820103803542 6.430795050207003e-22 1.0802253616961098e-13 1.0802243103457267e-13 1.051350383068791e-19
6.3519772230701035 5.537706180637327e-22 9.337019685046481e-14 9.337009324853503e-14 1.0360192977139589e-19
6.375842739491607 4.786408906885636e-22 8.100593285626732e-14 8.100583054656042e-14 1.0230970692445176e-19
6.399797922933955 4.184587652650789e-22 7.108670157621175e-14 7.108659983960775e-14 1.0173660397309038e-19
6.42384311029221 3.6843281218702725e-22 6.28235769090397e-14 6.282347556208496e-14 1.0134695473459033e-19
6.447978639727206 3.3201313217291844e-22 5.682615674560381e-14 5.6826055170823695e-14 1.0157478012259014e-19
6.472204850670314 3.016890206135323e-22 5.182999808713357e-14 5.1829896141172444e-14 1.0194596111067932e-19
6.496522083828205 2.8202570276327486e-22 4.863389381578684e-14 4.863379097312412e-14 1.028426627225087e-19
