Dust emission spectrum from A.P. Jones, M. Kohler, N. Ysard, M. Bocchio, and L. Verstraete (2017), A&A, 602A, 46J 
inside the DustPedia framework.

lambda    nu*dP/dnu     j_nu    j_nu(carb.) j_nu(sil)
 (um)   (erg s-1 H-1) (Jy cm2 sr-1 H-1)
0.9927057738263894 7.647328087968375e-24 2.015114387136063e-16 2.0151143871315515e-16 4.511939653926875e-28
1.0001793341362166 7.773639003245814e-24 2.0638193435078343e-16 2.0638193435023993e-16 5.435739766201093e-28
1.0077091589558085 7.899768940526086e-24 2.113095025949002e-16 2.1130950259424617e-16 6.540309073267412e-28
1.0114953028030835 7.962750507723839e-24 2.1379444255347534e-16 2.1379444255275829e-16 7.170657802726793e-28
1.0152956718711033 8.025668238031484e-24 2.1629335189597443e-16 2.162933518951884e-16 7.859230684251817e-28
1.0229392996569957 8.151225859809706e-24 2.2133098862578967e-16 2.2133098862484636e-16 9.432088927612916e-28
1.0267826658714554 8.213713446148029e-24 2.2386567492918023e-16 2.2386567492814746e-16 1.0328254215079118e-27
1.0306404723013447 8.27610956663002e-24 2.2641378109953467e-16 2.2641378109840413e-16 1.130591758716366e-27
1.03451277320114 8.338408199692488e-24 2.2897519744246325e-16 2.28975197441226e-16 1.2372130374442537e-27
1.0383996230291617 8.40060335721614e-24 2.315498128938315e-16 2.3154981289247804e-16 1.353452039674505e-27
1.0403485208654093 8.431660270791503e-24 2.328420352095642e-16 2.3284203520814877e-16 1.4154334004969291e-27
1.0423010764483396 8.462689085673686e-24 2.341375150460354e-16 2.3413751504455526e-16 1.480133613306506e-27
1.0462171883269815 8.524659467252598e-24 2.3673819017430967e-16 2.367381901726915e-16 1.6181494029606598e-27
1.0471985131304309 8.540133349693512e-24 2.3739037253348555e-16 2.3739037253183096e-16 1.654535577651696e-27
1.048180758391296 8.55559956368247e-24 2.3804335671180214e-16 2.3804335671011047e-16 1.6917057717341737e-27
1.0501480137395462 8.586508620952396e-24 2.3935172326305714e-16 2.3935172326128866e-16 1.7684629149706306e-27
1.0521189612883777 8.617385909865078e-24 2.4066327525375486e-16 2.4066327525190626e-16 1.848553388625796e-27
1.0531058218030118 8.632788700422316e-24 2.4131957832834563e-16 2.4131957832645577e-16 1.8898941249643108e-27
1.0540936079674168 8.648105583481375e-24 2.4197449716241363e-16 2.419744971604815e-16 1.932129293743021e-27
1.058054026499678 8.709285953868087e-24 2.4460190067402995e-16 2.446019006719196e-16 2.1102960818452404e-27
1.0590464539527713 8.724558808557036e-24 2.452606742367271e-16 2.4526067423457e-16 2.1572391356237196e-27
1.06003981227728 8.739822589675786e-24 2.459202131138509e-16 2.4592021311164574e-16 2.205181948102018e-27
1.0620293250338977 8.770322575707769e-24 2.472415792565008e-16 2.4724157925419666e-16 2.3041483133614096e-27
1.0660195594769086 8.831209763841774e-24 2.498934119633595e-16 2.4989341196084456e-16 2.5149964086665293e-27
1.070024785945596 8.891941876124457e-24 2.5255727672167434e-16 2.5255727671893004e-16 2.7442539430796477e-27
1.0740450607676866 8.952513314350853e-24 2.55233050358482e-16 2.5523305035548863e-16 2.993445231314849e-27
1.07808044048254 9.012918525158877e-24 2.579206086271722e-16 2.57920608623908e-16 3.2642134267976656e-27
1.0861967418109137 9.13310150140904e-24 2.633274981856629e-16 2.633274981817852e-16 3.8777003290292234e-27
1.0902777775684922 9.192625575403909e-24 2.660395254704585e-16 2.6603952546623417e-16 4.2243816470497896e-27
1.0943741465085532 9.251957429725374e-24 2.687626308233525e-16 2.6876263081875195e-16 4.600583001850746e-27
1.1026131145906286 9.370023387281154e-24 2.7424155428059313e-16 2.7424155427514195e-16 5.4512428172156325e-27
1.1109141095355224 9.487257700123124e-24 2.7976321690226357e-16 2.797632168958125e-16 6.45095229289546e-27
1.1192775983109025 9.6035106456894e-24 2.853233187445954e-16 2.8532331873697114e-16 7.624293030526369e-27
1.1277040513999907 9.718242094763074e-24 2.9090573790161343e-16 2.909057378926138e-16 8.999632410409959e-27
1.1361939428280308 9.832006425836148e-24 2.9652687208073333e-16 2.965268720701237e-16 1.0609658233026117e-26
1.1447477501889525 9.9447656987853e-24 3.0218561536052165e-16 3.0218561534802974e-16 1.2491990948029439e-26
1.1533659546722406 1.0056544329847106e-23 3.0788273301173647e-16 3.078827329970466e-16 1.468989066145532e-26
1.1707974979042381 1.0277520847884644e-23 3.1940343697834773e-16 3.1940343695810925e-16 2.0238454888044603e-26
1.1884924949847024 1.0494098736140016e-23 3.3106328702153915e-16 3.3106328699379377e-16 2.7745400031694855e-26
1.2064549276569216 1.070797219425713e-23 3.4291601597612774e-16 3.429160159382757e-16 3.785202204898396e-26
1.2246888378427687 1.0916804594475256e-23 3.5488752176352827e-16 3.5488752171213753e-16 5.139084812820253e-26
1.2431983285522175 1.1120107257791597e-23 3.669600842357157e-16 3.669600841662768e-16 6.943898382982584e-26
1.2619875648066055 1.1317804108655257e-23 3.7912871716625015e-16 3.7912871707286726e-16 9.338283647607556e-26
1.3004222497298317 1.1693093121384403e-23 4.0362980943804966e-16 4.0362980927150914e-16 1.6654061983471168e-25
1.3400274889804893 1.2041202574277332e-23 4.2830486088695486e-16 4.2830486059531654e-16 2.9163825220751023e-25
1.3808389325824078 1.2360841163212482e-23 4.530649673712292e-16 4.530649668695344e-16 5.016948577342073e-25
1.4228933163050095 1.2653564957452912e-23 4.779194124291801e-16 4.779194115809413e-16 8.482388144531456e-25
1.466228494730424 1.2926421068458566e-23 5.030942886251423e-16 5.030942872148929e-16 1.4102493367081642e-24
1.5108834753276823 1.3174102557313466e-23 5.283496746841138e-16 5.283496723775581e-16 2.3065556716681273e-24
1.5568984535646726 1.3392315473850898e-23 5.534589202364395e-16 5.534589165213229e-16 3.7151167058264235e-24
1.6043148490894465 1.358145841979707e-23 5.783695826054728e-16 5.783695767019196e-16 5.9035535077177464e-24
1.6531753430134553 1.3742106538222582e-23 6.030338116754419e-16 6.030338024306978e-16 9.244743875972078e-24
1.7035239163302658 1.3876169519463885e-23 6.274617624009841e-16 6.27461748131016e-16 1.4269967971717813e-23
1.755405889504358 1.399468240906299e-23 6.520937403967392e-16 6.520937186738795e-16 2.1722859680885394e-23
1.8088679632656115 1.409492024049595e-23 6.76766608811913e-16 6.767665761882259e-16 3.2623687152746515e-23
1.8639582606462262 1.4175037447570703e-23 7.013419733225208e-16 7.013419249670262e-16 4.8355494448507876e-23
1.9207263702978936 1.4236372338249764e-23 7.258289229818138e-16 7.258288522162411e-16 7.076557248543896e-23
1.979223391128241 1.4282040215875738e-23 7.503337814402867e-16 7.503336791505499e-16 1.0228973700116023e-22
2.039501978296691 1.4315769472496906e-23 7.750117024485115e-16 7.750115563538287e-16 1.460946827934007e-22
2.1016163906111602 1.4348002747745722e-23 8.004133638759149e-16 8.004131576172969e-16 2.062586179344963e-22
2.1656225393682647 1.438479559446349e-23 8.269055196891306e-16 8.269052317379986e-16 2.879511318704967e-22
2.231578038680979 1.4426582612078095e-23 8.545647583943968e-16 8.545643607507843e-16 3.976436127219503e-22
2.299542257339062 1.4476990845326044e-23 8.836679985221361e-16 8.836674551774978e-16 5.433446382350202e-22
2.369576372248914 1.4544039297119677e-23 9.147979507895825e-16 9.147972159227153e-16 7.348668670428033e-22
2.4417434235010123 1.463719785053669e-23 9.48696728479693e-16 9.486957443999279e-16 9.840797653008863e-22
2.5161083711144245 1.4772683678674582e-23 9.866387635809509e-16 9.866374583521416e-16 1.3052288094904204e-21
2.5927381535095444 1.4977034775457793e-23 1.0307513916771437e-15 1.030749676452753e-15 1.7152243903343536e-21
2.6717017477616296 1.528193805379597e-23 1.083766799446969e-15 1.0837645656097647e-15 2.233837204410808e-21
2.753070231689431 1.573510076261936e-23 1.149889880220562e-15 1.1498869962416826e-15 2.8839788795528518e-21
2.836916847834745 1.644459291314413e-23 1.2383379044388078e-15 1.2383342123632947e-15 3.692075513509762e-21
2.9233170693905177 1.764840912665944e-23 1.3694649409407382e-15 1.3694602533838914e-15 4.687556846759321e-21
2.967498994190263 1.86706310444017e-23 1.4706827899258462e-15 1.4706775321958978e-15 5.257729948703962e-21
3.0123486681368425 1.986447633361184e-23 1.588370425436011e-15 1.5883645359341198e-15 5.889501891469817e-21
3.0578761833420214 2.253534601388941e-23 1.8291678528873355e-15 1.8291612625938225e-15 6.590293512585468e-21
3.1040917844459814 2.5977032904298439e-23 2.140393048851332e-15 2.140385687798804e-15 7.361052527260063e-21
3.127460860933648 2.9617611473812976e-23 2.4587328751841733e-15 2.458725098189463e-15 7.776994709271342e-21
3.1510058709225794 3.4468123105828504e-23 2.8829444933203963e-15 2.882936280353986e-15 8.212966410710273e-21
3.162844764501044 3.8983058252848836e-23 3.272828261848219e-15 3.272819822321467e-15 8.439526751240532e-21
3.1747281389236908 4.4233554575808945e-23 3.72758722562122e-15 3.7275785542700204e-15 8.671351200017773e-21
3.1986289994194426 5.887862979753596e-23 4.999090489584172e-15 4.9990813372483574e-15 9.152335815134326e-21
3.2227097969389145 9.340012919701372e-23 7.989840494455489e-15 7.989830829764903e-15 9.664690584830637e-21
3.2348180950136065 1.261371577841213e-22 1.0830844927350595e-14 1.0830834988469328e-14 9.938881268160114e-21
3.240889293275058 1.506122723814651e-22 1.2956687676964693e-14 1.2956677593380939e-14 1.0083583751851563e-20
3.2469718861334385 1.789261767951553e-22 1.5421330458085513e-14 1.5421320224720194e-14 1.0233365318998208e-20
3.2714166318528037 3.2995733680229642e-22 2.865253686378562e-14 2.865252600917456e-14 1.0854611056887416e-20
3.2744851364798273 3.393987494939931e-22 2.950004607661331e-14 2.9500035148242136e-14 1.0928371166993185e-20
3.2775565192852394 3.4911134369722496e-22 3.037271277633416e-14 3.0372701773776566e-14 1.1002557593683794e-20
3.283707930232385 3.3977085215320508e-22 2.96155685329663e-14 2.9615557396723434e-14 1.1136242862920625e-20
3.2898708863219004 3.101493269896372e-22 2.7084394454471755e-14 2.708438319562301e-14 1.1258848731790965e-20
3.29141343181113 3.0316383844556424e-22 2.648678628300525e-14 2.6486774993340126e-14 1.1289665126164177e-20
3.292184975758714 2.997314177427557e-22 2.6193041414377544e-14 2.619303010927942e-14 1.1305098125600995e-20
3.295272960557952 2.780656142046596e-22 2.4322494553986488e-14 2.4322483188685647e-14 1.136530084614053e-20
3.3076538914384823 2.0300879645741732e-22 1.7823966153091607e-14 1.782395454543424e-14 1.1607657366227088e-20
3.310756385682612 1.877328607088805e-22 1.649821490824794e-14 1.6498203239383238e-14 1.1668864702623663e-20
3.313861789986515 1.7363844769589534e-22 1.527389213266457e-14 1.527388040234402e-14 1.17303205482628e-20
3.3200813396944477 1.5387263018763875e-22 1.3560619624189743e-14 1.356060776208164e-14 1.1862108098857574e-20
3.345076488085796 1.186124872503162e-22 1.0531879918250102e-14 1.053186746950528e-14 1.244874482237688e-20
3.3482140837626964 1.1993474304224548e-22 1.0659274856236277e-14 1.0659262328006704e-14 1.2528229573005516e-20
3.3513546224236106 1.2127161760199629e-22 1.0788199985411617e-14 1.0788187377274363e-14 1.2608137253972108e-20
3.3576445397418455 1.310415946934561e-22 1.1679206030926301e-14 1.1679193255832297e-14 1.2775094001513763e-20
3.3702598118196083 1.670773024367635e-22 1.4946870420264045e-14 1.494685729467252e-14 1.3125591527743578e-20
3.382922481734668 1.752848402323573e-22 1.5740040170393242e-14 1.574002670217719e-14 1.3468216049418837e-20
3.389271646505754 1.7953691167550384e-22 1.6152121092977604e-14 1.6152107450655417e-14 1.3642322185343483e-20
3.395632727569191 1.841187019683655e-22 1.6595412363193942e-14 1.6595398541393086e-14 1.3821800860272322e-20
3.421196662673239 2.0611857469420347e-22 1.8718222416958013e-14 1.871820784960331e-14 1.4567354709634062e-20
3.4276182099114902 2.0168518349030893e-22 1.8349991569522952e-14 1.8349976833587167e-14 1.473593578454457e-20
3.4340518103208963 1.8225797819304619e-22 1.661356460031107e-14 1.661354970388559e-14 1.4896425481318653e-20
3.4469541582030403 1.5459020337178878e-22 1.4144477502575974e-14 1.414446229593341e-14 1.5206642564453492e-20
3.472904465399547 1.4683661669865175e-22 1.3536196148671678e-14 1.3536180229642286e-14 1.5919029394195813e-20
3.4990501388274233 1.3497760601592646e-22 1.2536644761307416e-14 1.2536628107705569e-14 1.6653601844244052e-20
3.5253949054701885 9.277229346963354e-23 8.68151457633685e-15 8.68149720083309e-15 1.7375503760797896e-20
3.5519380250092896 5.310453244988639e-23 5.006870999464503e-15 5.0068528913129114e-15 1.810815159265015e-20
3.578680990867387 3.737652512461492e-23 3.5505149224396065e-15 3.550496009168401e-15 1.8913271206368916e-20
3.605625307711299 3.1015338319575026e-23 2.9684282038439097e-15 2.9684084375866965e-15 1.9766257214779003e-20
3.660119384959845 2.6375933056677735e-23 2.5625509927792367e-15 2.562529413261873e-15 2.157951736352925e-20
3.715437065384467 2.3091387730105085e-23 2.277347874537382e-15 2.277324352195575e-15 2.352234180655412e-20
3.8285932144167436 2.1428928999760887e-23 2.1777555250814228e-15 2.177727714736419e-15 2.781034500370729e-20
3.94519561050918 2.1117259890886294e-23 2.211441926771321e-15 2.2114092646685265e-15 3.266210279446338e-20
4.06534921144712 2.1363400806426077e-23 2.3053542950704503e-15 2.3053161714122046e-15 3.812365824487078e-20
4.189162171576248 2.1935796703988955e-23 2.4392146443257326e-15 2.4391703831130227e-15 4.426121271031412e-20
4.316745939156006 2.2749231383179012e-23 2.606709592596234e-15 2.606658471957629e-15 5.1120638605028417e-20
4.448215356677963 2.377642675417871e-23 2.8073840313781644e-15 2.807325339945803e-15 5.869143236226953e-20
4.58368876423945 2.5023093183092888e-23 3.044567080782545e-15 3.0445000208982748e-15 6.705988427081005e-20
4.723288106065518 2.651946356465744e-23 3.3249001303659427e-15 3.3248237701241726e-15 7.636024177056737e-20
4.867139040275056 2.832391822442842e-23 3.659287379794642e-15 3.659200876104924e-15 8.650368971879137e-20
4.940699165968905 2.941226822903015e-23 3.8573261539031755e-15 3.857234205347856e-15 9.194855532005155e-20
5.015371051989984 3.0543288465219896e-23 4.0661958787818185e-15 4.0660982312231184e-15 9.764755869950982e-20
5.091171501069577 3.19185809958635e-23 4.313509269468741e-15 4.313405559950182e-15 1.0370951855937579e-19
5.129500256944802 3.262613018534926e-23 4.442322191464591e-15 4.4422153475504755e-15 1.068439141154311e-19
5.168117569889187 3.336421670627534e-23 4.577019379747618e-15 4.576909311239007e-15 1.1006850861016587e-19
5.20702561229733 3.4264731788570674e-23 4.735943183921438e-15 4.7358296448337e-15 1.1353908773805957e-19
5.246226572918644 3.5189237620432554e-23 4.900341355296734e-15 4.9002242609402344e-15 1.1709435650000331e-19
5.265937586045735 3.566073227157572e-23 4.984658353856112e-15 4.98453944961007e-15 1.1890424604087382e-19
5.285722656980489 3.613852296103564e-23 5.070423132391221e-15 5.070302396482708e-15 1.2073590851217081e-19
5.305582063971359 3.6622713495318387e-23 5.157663318071179e-15 5.157540728522132e-15 1.2258954904762474e-19
5.3255160863122235 3.714200554175886e-23 5.250449483954433e-15 5.250325009156389e-15 1.2447479804555958e-19
5.365609099470188 3.842745719898921e-23 5.473058754464174e-15 5.472930367635021e-15 1.2838682915122872e-19
5.406003951863644 3.976248487138516e-23 5.705836314986093e-15 5.705703918823067e-15 1.323961630263127e-19
5.446702915881641 4.114946757823154e-23 5.949320164491478e-15 5.94918365970673e-15 1.3650478474677617e-19
5.487708281020852 4.264692885277155e-23 6.212239797613486e-15 6.212099070936857e-15 1.407266766308288e-19
5.529022354014368 4.4712636164029157e-23 6.562178726371993e-15 6.562033568012221e-15 1.4515835977289967e-19
5.570647458961463 4.6899783264270355e-23 6.934991667280924e-15 6.934841963895387e-15 1.4970338553521517e-19
5.612585937458331 4.921702907155145e-23 7.332428407795194e-15 7.332274043511341e-15 1.5436428385167516e-19
5.654840148729818 5.176164832245807e-23 7.769585739162241e-15 7.769426579459288e-15 1.591597029523397e-19
5.67608639626678 5.348563601451284e-23 8.058525691441607e-15 8.058364018330749e-15 1.616731108582497e-19
5.686739436050992 5.437408882700044e-23 8.207762003288349e-15 8.207599061038645e-15 1.6294224970176534e-19
5.6974124697621304 5.528074024793513e-23 8.36028234447419e-15 8.360118124728711e-15 1.6421974547949987e-19
5.718818669136295 5.715038112124174e-23 8.675507513614977e-15 8.6753407136038e-15 1.6680001117841823e-19
5.740305295436557 5.920898539145077e-23 9.021776061948363e-15 9.02160663238551e-15 1.694295628544706e-19
5.7835210386641895 6.453361777201209e-23 9.907127798024126e-15 9.906952883895902e-15 1.7491412822650126e-19
5.827062130521658 7.066096488064849e-23 1.0929458497210375e-14 1.09292779099689e-14 1.8058724147459354e-19
5.8489554468988025 7.494756994595707e-23 1.1636042596071005e-14 1.1635858952935108e-14 1.8364313589341798e-19
5.870931020387893 7.954579130962467e-23 1.2396343937647252e-14 1.2396157192460593e-14 1.8674518666069314e-19
5.892989160043636 8.448065062660194e-23 1.3214852656833475e-14 1.321466276272184e-14 1.8989411163347654e-19
5.915130176081913 9.008902833458417e-23 1.4145087639459972e-14 1.4144894476940981e-14 1.931625189914689e-19
5.95966208400165 1.0574450863303765e-22 1.6728187676239393e-14 1.6727987191359964e-14 2.0048487942664372e-19
6.004529249263818 1.2828042321271726e-22 2.044602002453051e-14 2.0445811300576917e-14 2.087239535964772e-19
6.027089341400364 1.4393259928118331e-22 2.302694006851403e-14 2.3026726626740592e-14 2.1344177344065934e-19
6.049734195844842 1.6242238771657094e-22 2.6082644215977606e-14 2.6082425763512854e-14 2.1845246475331353e-19
6.095279466722835 2.1580072214819007e-22 3.491531378313951e-14 3.4915083190786786e-14 2.3059235270936855e-19
6.141167624020661 2.979077369766272e-22 4.8562626470242287e-14 4.856238028946238e-14 2.4618077989372973e-19
6.164241091010745 3.503369313103809e-22 5.732379982481033e-14 5.732354398450409e-14 2.5584030623894e-19
6.187401249150058 4.1005061158279976e-22 6.734652284835637e-14 6.734625694167858e-14 2.6590667779679446e-19
6.1990139391386085 4.392108603076394e-22 7.227117510798356e-14 7.227090405813772e-14 2.7104984586761874e-19
6.204828454712694 4.545702841371451e-22 7.486869340996661e-14 7.486841974638497e-14 2.7366358163086703e-19
6.210648424152782 4.657877712973349e-22 7.67881952799369e-14 7.678791935111288e-14 2.759288240289189e-19
6.233982942956859 5.039094797640865e-22 8.338493052968393e-14 8.338464648744762e-14 2.840422363341381e-19
6.239830258556775 5.087906652917591e-22 8.427162017799545e-14 8.427133486484778e-14 2.853131476629861e-19
6.245683058788269 5.092288427349616e-22 8.442330872954426e-14 8.442302214004656e-14 2.8658949770409295e-19
6.257405133728602 5.08216124074457e-22 8.441354651302482e-14 8.44132576030668e-14 2.8890995801559204e-19
6.269149208991335 5.007641846868894e-22 8.333190295926574e-14 8.33316127942085e-14 2.9016505723106013e-19
6.280915325867298 4.820261970174568e-22 8.036427173848067e-14 8.03639816438853e-14 2.900945953823026e-19
6.304513850009849 4.357993124352025e-22 7.293022894350422e-14 7.292994019983244e-14 2.887436717831895e-19
6.32820103803542 3.784855522809552e-22 6.357685005002392e-14 6.357656398042722e-14 2.8606959670973517e-19
6.3519772230701035 3.2592821662125077e-22 5.4954128573041666e-14 5.4953844794571707e-14 2.83778469970996e-19
6.375842739491607 2.817151557252522e-22 4.7677913511408095e-14 4.767763159571073e-14 2.819156973721401e-19
6.399797922933955 2.462988087712369e-22 4.184060980681406e-14 4.1840328244739356e-14 2.815620746901281e-19
6.42384311029221 2.1685923942814147e-22 3.6977903856548544e-14 3.6977622321643465e-14 2.8153490507732476e-19
6.447978639727206 1.9542693980660983e-22 3.3448562233316176e-14 3.344827950035955e-14 2.8273295661932897e-19
6.472204850670314 1.7758181102114173e-22 3.0508451738871934e-14 3.050816754189157e-14 2.8419698036114003e-19
6.496522083828205 1.660105333123535e-22 2.862766964255039e-14 2.862738295985747e-14 2.866826929202018e-19
