Dust emission spectrum from A.P. Jones, M. Kohler, N. Ysard, M. Bocchio, and L. Verstraete (2017), A&A, 602A, 46J 
inside the DustPedia framework.

lambda    nu*dP/dnu     j_nu    j_nu(carb.) j_nu(sil)
 (um)   (erg s-1 H-1) (Jy cm2 sr-1 H-1)
0.9927057738263894 1.0089544033106266e-19 2.6586521601895394e-12 2.658652087312848e-12 7.287668990117368e-20
1.0001793341362166 1.0258721781669564e-19 2.7235826675041845e-12 2.7235825798258447e-12 8.767833922069398e-20
1.0077091589558085 1.0428630123397631e-19 2.7895355683334616e-12 2.7895354629886873e-12 1.0534477433917806e-19
1.0114953028030835 1.0513851586737635e-19 2.8228977372783252e-12 2.82289762186539e-12 1.154129339281141e-19
1.0152956718711033 1.059924782374222e-19 2.8565183251776514e-12 2.8565181987768036e-12 1.2640084733803313e-19
1.0229392996569957 1.0770471298759963e-19 2.924516019454142e-12 2.9245158679903735e-12 1.5146376926579532e-19
1.0267826658714554 1.0856104488450996e-19 2.9588433713237507e-12 2.958843205599871e-12 1.6572387862109695e-19
1.0306404723013447 1.0941898692537613e-19 2.9934314371266545e-12 2.993431255860968e-12 1.812656864351877e-19
1.03451277320114 1.102785174825207e-19 3.028281262981769e-12 3.0282810647832773e-12 1.981984922111849e-19
1.0383996230291617 1.1113961577700145e-19 3.063393918741697e-12 3.063393702101322e-12 2.1664037528501223e-19
1.0403485208654093 1.1157074656933394e-19 3.081049148890287e-12 3.0810489224236033e-12 2.2646668244446037e-19
1.0423010764483396 1.1200226189864807e-19 3.098770498951529e-12 3.0987702622326755e-12 2.367188532313391e-19
1.0462171883269815 1.1286643682591998e-19 3.1344121238197504e-12 3.1344118652481646e-12 2.5857158581768584e-19
1.0471985131304309 1.1308271729073461e-19 3.143364077062067e-12 3.143363812732912e-12 2.6432915432124725e-19
1.048180758391296 1.1329909189526294e-19 3.152332685324856e-12 3.1523324151155826e-12 2.702092736443889e-19
1.0501480137395462 1.1373212244557335e-19 3.17031994020098e-12 3.170319657853852e-12 2.823471273645184e-19
1.0521189612883777 1.1416552635781026e-19 3.1883740361315294e-12 3.1883737411259795e-12 2.9500555040303083e-19
1.0531058218030118 1.143820832695034e-19 3.1974182458055494e-12 3.1974179442685422e-12 3.015370070479453e-19
1.0540936079674168 1.1459780101752982e-19 3.2064531369854364e-12 3.2064528287773243e-12 3.082081118329692e-19
1.058054026499678 1.1546155552850193e-19 3.2427590604610172e-12 3.2427587241297534e-12 3.363312640714118e-19
1.0590464539527713 1.1567771386347338e-19 3.251877225985599e-12 3.251876882249301e-12 3.43736297583059e-19
1.06003981227728 1.158939596258591e-19 3.2610121037773345e-12 3.261011752480286e-12 3.512970478046604e-19
1.0620293250338977 1.1632671255308399e-19 3.2793320739426163e-12 3.2793317070444245e-12 3.6689819223171007e-19
1.0660195594769086 1.171932580793527e-19 3.31617342399214e-12 3.3161730238822917e-12 4.001098483277369e-19
1.070024785945596 1.180611791081508e-19 3.353284389112561e-12 3.353283952929857e-12 4.361827032336775e-19
1.0740450607676866 1.1893046367123133e-19 3.390666280797153e-12 3.390665805447291e-12 4.753498613953602e-19
1.07808044048254 1.1980110084912133e-19 3.4283204445882782e-12 3.4283199267260295e-12 5.178622490420689e-19
1.0861967418109137 1.215450736243467e-19 3.504413057202263e-12 3.5044124431789905e-12 6.140232714838122e-19
1.0902777775684922 1.2241538943664257e-19 3.5427671723238674e-12 3.5427665040490187e-12 6.682748482864325e-19
1.0943741465085532 1.2328697368931852e-19 3.5813968715995517e-12 3.5813961445193523e-12 7.270801987535109e-19
1.1026131145906286 1.2503392799632365e-19 3.659489131912312e-12 3.6594882720903256e-12 8.5982198633609865e-19
1.1109141095355224 1.2678590917657915e-19 3.738702471279731e-12 3.738701455812865e-12 1.0154668657877703e-18
1.1192775983109025 1.2854155097978725e-19 3.819009867875008e-12 3.8190086701522135e-12 1.1977227946499537e-18
1.1277040513999907 1.3029462363240747e-19 3.900237642034432e-12 3.900236231178473e-12 1.4108559590080718e-18
1.1361939428280308 1.3205255614244242e-19 3.982618575216587e-12 3.982616915448425e-12 1.659768163435353e-18
1.1447477501889525 1.3381540169598286e-19 4.066168146239498e-12 4.0661661961557795e-12 1.9500837173053146e-18
1.1533659546722406 1.3558384019214296e-19 4.150921221188328e-12 4.150918932937885e-12 2.2882504423691802e-18
1.1707974979042381 1.3914285259549856e-19 4.324263215590676e-12 4.324260076860339e-12 3.1387303356673245e-18
1.1884924949847024 1.4272537071199313e-19 4.5026382500628416e-12 4.5026339664001465e-12 4.2836626961763554e-18
1.2064549276569216 1.4635541007516908e-19 4.686939154216881e-12 4.686933336947813e-12 5.8172690691573705e-18
1.2246888378427687 1.5001041927573648e-19 4.876594197025004e-12 4.876586335943183e-12 7.861081821271466e-18
1.2431983285522175 1.5368773738806154e-19 5.0716475795144314e-12 5.0716370082122514e-12 1.0571302180996503e-17
1.2619875648066055 1.57393103791649e-19 5.272422544025848e-12 5.272408396355051e-12 1.4147670797166923e-17
1.3004222497298317 1.6486708151507825e-19 5.69098937327712e-12 5.690964391666378e-12 2.498161074342055e-17
1.3400274889804893 1.7245662558694784e-19 6.134271936329781e-12 6.1342286354307465e-12 4.33008990319194e-17
1.3808389325824078 1.801905806488154e-19 6.6045699046133e-12 6.604496195740567e-12 7.370887273281299e-17
1.4228933163050095 1.88132371213679e-19 7.10567437806465e-12 7.105551094490598e-12 1.2328357405170572e-16
1.466228494730424 1.9641419792228793e-19 7.644409899404175e-12 7.644207191217595e-12 2.0270818657849472e-16
1.5108834753276823 2.0501851448543568e-19 8.22230318622096e-12 8.221975385469033e-12 3.2780075192644225e-16
1.5568984535646726 2.1393446967629546e-19 8.841185142299465e-12 8.840663248736668e-12 5.218935627957827e-16
1.6043148490894465 2.232054251646211e-19 9.505255223515825e-12 9.504435619184478e-12 8.196043313438783e-16
1.6531753430134553 2.3287487899511134e-19 1.0219061068496336e-11 1.0217792959105373e-11 1.2681093909595707e-15
1.7035239163302658 2.429913238389194e-19 1.0987741544253438e-11 1.0985808062552568e-11 1.933481700873103e-15
1.755405889504358 2.537160321466692e-19 1.1822107252251557e-11 1.1819200749974241e-11 2.9065022773135805e-15
1.8088679632656115 2.6502650686514393e-19 1.2725229177322368e-11 1.272091993336584e-11 4.309243956523358e-15
1.8639582606462262 2.768897550990081e-19 1.3699745623402822e-11 1.3693441819961412e-11 6.303803441408193e-15
1.9207263702978936 2.8930570173071614e-19 1.4749996762554434e-11 1.4740894755872168e-11 9.10200668226044e-15
1.979223391128241 3.0228541472795558e-19 1.5881131468524186e-11 1.5868154586482412e-11 1.297688204177869e-14
2.039501978296691 3.1582648104391926e-19 1.7097873727459412e-11 1.7079598837097598e-11 1.8274890361812143e-14
2.1016163906111602 3.3001433420761624e-19 1.841008034458942e-11 1.8384649119434415e-11 2.543122515499824e-14
2.1656225393682647 3.4485588854686687e-19 1.982393394915248e-11 1.9788951148202508e-11 3.498280094996804e-14
2.231578038680979 3.602478793835706e-19 2.1339436392217728e-11 2.129185369172425e-11 4.7582700493479724e-14
2.299542257339062 3.7613336480859724e-19 2.2958985137793252e-11 2.2894970292255086e-11 6.401484553816171e-14
2.369576372248914 3.924845940031396e-19 2.468668400680538e-11 2.460147479078878e-11 8.520921601660441e-14
2.4417434235010123 4.0928138382828953e-19 2.65272023942276e-11 2.6414950430509782e-11 1.1225196371782303e-13
2.5161083711144245 4.265705889046421e-19 2.8489818611931126e-11 2.834341920177468e-11 1.46399410156446e-13
2.5927381535095444 4.444869318870613e-19 3.059053614375335e-11 3.040145209673907e-11 1.8908404701428358e-13
2.6717017477616296 4.631279120721672e-19 3.2844175472647874e-11 3.260226849234569e-11 2.41906980302187e-13
2.753070231689431 4.82679586543672e-19 3.5273264552213765e-11 3.496662973143902e-11 3.066348207747347e-13
2.836916847834745 5.038072685594694e-19 3.793852730098925e-11 3.755332406126459e-11 3.852032397246656e-13
2.9233170693905177 5.280702170750782e-19 4.0976704667780434e-11 4.049710644303634e-11 4.795982247440914e-13
2.967498994190263 5.429393599151898e-19 4.2767251449706544e-11 4.223496256491512e-11 5.322888847914188e-13
3.0123486681368425 5.587807137099163e-19 4.4680299900937774e-11 4.409028892069863e-11 5.900109802391329e-13
3.0578761833420214 5.853382124127384e-19 4.751122261677352e-11 4.685786605289957e-11 6.533565638739582e-13
3.1040917844459814 6.164229952051643e-19 5.079053866351809e-11 5.006848368695936e-11 7.220549765587257e-13
3.127460860933648 6.45695737053815e-19 5.3603017159712367e-11 5.28442722743771e-11 7.587448853352638e-13
3.1510058709225794 6.829558409753831e-19 5.712303437224404e-11 5.632611295167455e-11 7.969214205694837e-13
3.162844764501044 7.169212421943728e-19 6.018922599028274e-11 5.937257398546465e-11 8.166520048180943e-13
3.1747281389236908 7.553152969511251e-19 6.365085689430652e-11 6.281409126296373e-11 8.367656313427914e-13
3.1986289994194426 8.592931579636734e-19 7.29582918031955e-11 7.208002697609026e-11 8.782648271052344e-13
3.2227097969389145 1.1007667934586104e-18 9.416422843244554e-11 9.324205791934267e-11 9.221705131028802e-13
3.2348180950136065 1.3274460329543822e-18 1.1398197315466649e-10 1.1303638903695796e-10 9.455841177085278e-13
3.240889293275058 1.4968624861919427e-18 1.2877024841529861e-10 1.2781231408077995e-10 9.579343345186638e-13
3.2469718861334385 1.693250913900912e-18 1.4593829902047225e-10 1.4496758589633135e-10 9.707131241409091e-13
3.2714166318528037 2.722191199313028e-18 2.363871779439289e-10 2.353637122763861e-10 1.0234656675427978e-12
3.2744851364798273 2.7863636841188766e-18 2.4218668215559723e-10 2.4115701561016674e-10 1.0296665454304724e-12
3.2775565192852394 2.8522399101663423e-18 2.4814508358058856e-10 2.471091866070753e-10 1.0358969735132997e-12
3.283707930232385 2.7883613948248737e-18 2.4304294338314264e-10 2.41995936648413e-10 1.0470067347296057e-12
3.2898708863219004 2.5862086259958055e-18 2.2584570873619277e-10 2.2478862112864864e-10 1.0570876075441244e-12
3.29141343181113 2.5384235936325397e-18 2.2177672497162235e-10 2.2071710674995571e-10 1.059618221666656e-12
3.292184975758714 2.5149268835226273e-18 2.1977537259966382e-10 2.1871448751035793e-10 1.0608850893059483e-12
3.295272960557952 2.368683367711267e-18 2.071895458058052e-10 2.0612373844159203e-10 1.0658073642131645e-12
3.3076538914384823 1.8578870109119637e-18 1.6312059268677788e-10 1.6203502974006594e-10 1.0855629467119255e-12
3.310756385682612 1.7527416770396704e-18 1.540332830238254e-10 1.529427435192531e-10 1.0905395045723132e-12
3.313861789986515 1.6552648018200318e-18 1.4560332904077907e-10 1.445077979025912e-10 1.0955311381879173e-12
3.3200813396944477 1.5191004420838303e-18 1.338765915739327e-10 1.3277031004271737e-10 1.106281531215295e-12
3.345076488085796 1.2811558060685504e-18 1.1375681784336684e-10 1.1260259041774574e-10 1.1542274256211197e-12
3.3482140837626964 1.2906953219487422e-18 1.1471134921649832e-10 1.1355062510036887e-10 1.160724116129463e-12
3.3513546224236106 1.300319818929115e-18 1.1567513099100111e-10 1.1450788249889374e-10 1.1672484921073548e-12
3.3576445397418455 1.3683462684530565e-18 1.2195515498950578e-10 1.207742602077754e-10 1.1808947817303685e-12
3.3702598118196083 1.6148001142934284e-18 1.4446132245944464e-10 1.4325180647910866e-10 1.2095159803360537e-12
3.382922481734668 1.673372453604987e-18 1.502637056624927e-10 1.4902642013638443e-10 1.2372855261082864e-12
3.389271646505754 1.7035518736644006e-18 1.5326083029281932e-10 1.5200947900615644e-10 1.2513512866628707e-12
3.395632727569191 1.7368304242908153e-18 1.5654801379709652e-10 1.5528216682895246e-10 1.2658469681440498e-12
3.421196662673239 1.898560852414102e-18 1.724137883271321e-10 1.710879892763503e-10 1.3257990507818324e-12
3.4276182099114902 1.8690368462610212e-18 1.7005121436531053e-10 1.6871209050279701e-10 1.3391238625134601e-12
3.4340518103208963 1.7358337151567454e-18 1.5822838510591378e-10 1.5687668479853662e-10 1.3517003073771208e-12
3.4469541582030403 1.544459867784297e-18 1.413128217508579e-10 1.3993703621319565e-10 1.3757855376622217e-12
3.472904465399547 1.4904270436551957e-18 1.3739565281325917e-10 1.3596430277806155e-10 1.4313500351976011e-12
3.4990501388274233 1.409442244899602e-18 1.3090820957219416e-10 1.2942011874856956e-10 1.4880908236245968e-12
3.5253949054701885 1.1254647452550842e-18 1.0531957576626516e-10 1.0377655377758265e-10 1.5430219886825122e-12
3.5519380250092896 8.550594138614888e-19 8.061783024118058e-11 7.901975185519416e-11 1.5980783859863852e-12
3.578680990867387 7.494421306414513e-19 7.11918900827681e-11 6.953348704918825e-11 1.658403033579846e-12
3.605625307711299 7.086700109129861e-19 6.782566825282026e-11 6.610382441404276e-11 1.7218438387775274e-12
3.660119384959845 6.825533565109128e-19 6.631339932480669e-11 6.445869604285328e-11 1.8547032819534245e-12
3.715437065384467 6.646743163302412e-19 6.555234614941758e-11 6.355820027625326e-11 1.9941458731643105e-12
3.8285932144167436 6.622030864143696e-19 6.729764376842891e-11 6.500595997418935e-11 2.2916837942395614e-12
3.94519561050918 6.676041667056155e-19 6.991285102179347e-11 6.729994152043268e-11 2.6129095013608047e-12
4.06534921144712 6.753930672448195e-19 7.288260528095793e-11 6.99259173164217e-11 2.956687964536207e-12
4.189162171576248 6.839587608422057e-19 7.605478150961395e-11 7.273187880844018e-11 3.322902701173769e-12
4.316745939156006 6.926227289708557e-19 7.936383789183705e-11 7.565452734495422e-11 3.709310546882857e-12
4.448215356677963 7.010800728344924e-19 8.277951188973686e-11 7.866996994135154e-11 4.109541948385332e-12
4.58368876423945 7.09285376967211e-19 8.629895967673072e-11 8.177565795279231e-11 4.5233017239383845e-12
4.723288106065518 7.173607310204073e-19 8.993970719935148e-11 8.498724848568152e-11 4.9524587136699744e-12
4.867139040275056 7.254596356582967e-19 9.372521373209113e-11 8.834121561625447e-11 5.383998115836653e-12
4.940699165968905 7.29955593340287e-19 9.57313723461934e-11 9.012952716001074e-11 5.6018451861826644e-12
5.015371051989984 7.341348157634262e-19 9.773459612008421e-11 9.191433843201153e-11 5.820257688072636e-12
5.091171501069577 7.393724053996763e-19 9.991953353735309e-11 9.387527860714097e-11 6.044254930212089e-12
5.129500256944802 7.418597970769373e-19 1.0101045452795303e-10 9.485430949602145e-11 6.156145031931612e-12
5.168117569889187 7.443839149404973e-19 1.0211717645432501e-10 9.584797977123243e-11 6.269196683092604e-12
5.20702561229733 7.478891387428086e-19 1.0337044196970293e-10 9.697689022457342e-11 6.393551745129506e-12
5.246226572918644 7.513385619660193e-19 1.0462901943898395e-10 9.81108890646526e-11 6.518130374331356e-12
5.265937586045735 7.530429522987346e-19 1.0526036914784015e-10 9.867988668532312e-11 6.580482462517018e-12
5.285722656980489 7.547341369334784e-19 1.0589313323178397e-10 9.925026815540518e-11 6.642865076378835e-12
5.305582063971359 7.564123847883069e-19 1.0652734431751244e-10 9.982207464563209e-11 6.705269671880323e-12
5.3255160863122235 7.582711767836503e-19 1.0719034825314132e-10 1.0042209049856182e-10 6.768257754579525e-12
5.365609099470188 7.634453351832848e-19 1.0873426138093833e-10 1.0183560528266779e-10 6.898656098270538e-12
5.406003951863644 7.686474041560812e-19 1.1029935091430263e-10 1.0327011624292878e-10 7.029234671373856e-12
5.446702915881641 7.738848385832918e-19 1.1188695616595089e-10 1.0472703132000912e-10 7.1599248459418095e-12
5.487708281020852 7.795302135739211e-19 1.135516377492055e-10 1.0626034145293732e-10 7.291296296268152e-12
5.529022354014368 7.884661961910127e-19 1.157179836171365e-10 1.0828974222868913e-10 7.428241388447364e-12
5.570647458961463 7.976925451725906e-19 1.179534481567309e-10 1.1038811466297681e-10 7.565333493754058e-12
5.612585937458331 8.072395952365369e-19 1.2026379185554712e-10 1.1256128895685542e-10 7.70250289869172e-12
5.654840148729818 8.176846818881769e-19 1.227370350332015e-10 1.1489657838714037e-10 7.840456646061135e-12
5.67608639626678 8.254640152812392e-19 1.2437026966827966e-10 1.164574768007794e-10 7.912792867500243e-12
5.686739436050992 8.294398776268549e-19 1.2520384724529449e-10 1.1725486926173287e-10 7.948977983561616e-12
5.6974124697621304 8.334752765509968e-19 1.2604911960029907e-10 1.1806394664183768e-10 7.98517295846141e-12
5.718818669136295 8.41731139249244e-19 1.2777596019016447e-10 1.197183721541023e-10 8.057588036062168e-12
5.740305295436557 8.5092156683144495e-19 1.296563987962541e-10 1.215257604779481e-10 8.130638318305974e-12
5.7835210386641895 8.757604235706255e-19 1.3444574682637403e-10 1.2616422436618675e-10 8.281522460187315e-12
5.827062130521658 9.040385333041629e-19 1.3983182435048722e-10 1.313977228555198e-10 8.434101494967428e-12
5.8489554468988025 9.248336607475601e-19 1.435857610660184e-10 1.350687799413139e-10 8.51698112470452e-12
5.870931020387893 9.468670230432658e-19 1.475588976816211e-10 1.3895888373708153e-10 8.600013944539583e-12
5.892989160043636 9.702374356553023e-19 1.51769010527618e-10 1.4308581966572513e-10 8.683190861892866e-12
5.915130176081913 9.968706006104763e-19 1.5652096899598973e-10 1.4775139760354642e-10 8.769571392443344e-12
5.95966208400165 1.0730930153495523e-18 1.697572912946571e-10 1.607881367046108e-10 8.969154590046289e-12
6.004529249263818 1.1834039924756802e-18 1.8861725835706807e-10 1.794219496853893e-10 9.19530867167864e-12
6.027089341400364 1.2606196482316782e-18 2.0167921120019e-10 1.923518603269441e-10 9.327350873245917e-12
6.049734195844842 1.351189607772375e-18 2.1698115822156213e-10 2.0751363880717536e-10 9.467519414386766e-12
6.095279466722835 1.6135311601715781e-18 2.6106004741530594e-10 2.512433632602777e-10 9.816684155028248e-12
6.141167624020661 2.014515614411292e-18 3.2839083098000106e-10 3.181152482883702e-10 1.0275582691630978e-11
6.164241091010745 2.2699809333203043e-18 3.714251082267601e-10 3.6085876219405717e-10 1.0566346032702989e-11
6.187401249150058 2.5571576759141173e-18 4.199863943210465e-10 4.0912201671024116e-10 1.086437761080539e-11
6.1990139391386085 2.6963902137349363e-18 4.436850426690174e-10 4.3266911530182647e-10 1.1015927367190853e-11
6.204828454712694 2.7694141695097774e-18 4.561284087802119e-10 4.4503599263971523e-10 1.1092416140496646e-11
6.210648424152782 2.8219494666676632e-18 4.65217036748406e-10 4.5406005578527613e-10 1.11569809631298e-11
6.233982942956859 2.9971595158624754e-18 4.959580004995676e-10 4.845784693881632e-10 1.1379531111404217e-11
6.239830258556775 3.0176412623738175e-18 4.99815613068269e-10 4.884071296906842e-10 1.1408483377584836e-11
6.245683058788269 3.0163169699649365e-18 5.000648773424835e-10 4.886274154460196e-10 1.1437461896463842e-11
6.257405133728602 3.0043752708476186e-18 4.990199241122886e-10 4.875328662208612e-10 1.1487057891427205e-11
6.269149208991335 2.960927590482148e-18 4.927263933496936e-10 4.812265682474942e-10 1.149982510219922e-11
6.280915325867298 2.8625461961880638e-18 4.772488337725772e-10 4.657817082125036e-10 1.1467125560073545e-11
6.304513850009849 2.6243811125556956e-18 4.391854459434313e-10 4.2782473852107303e-10 1.1360707422358107e-11
6.32820103803542 2.3353833908107564e-18 3.9229058745332445e-10 3.810799277397695e-10 1.1210659713555075e-11
6.3519772230701035 2.0720140416683086e-18 3.493582949993775e-10 3.382836711160747e-10 1.107462388330289e-11
6.375842739491607 1.849990795679882e-18 3.130953353441473e-10 3.021423117235003e-10 1.0953023620646884e-11
6.399797922933955 1.673384855268837e-18 2.842703264998979e-10 2.7338733873137896e-10 1.0882987768518952e-11
6.42384311029221 1.5259080054200012e-18 2.6019126354565824e-10 2.4936796948253436e-10 1.08232940631239e-11
6.447978639727206 1.418266781974904e-18 2.42745369534401e-10 2.3194171925955317e-10 1.0803650274847762e-11
6.472204850670314 1.32804832319771e-18 2.2815792868754713e-10 2.1736601296919335e-10 1.0791915718353727e-11
6.496522083828205 1.2684555545731316e-18 2.1873868993754672e-10 2.0792620135407073e-10 1.0812488583475997e-11
