Dust emission spectrum from A.P. Jones, M. Kohler, N. Ysard, M. Bocchio, and L. Verstraete (2017), A&A, 602A, 46J 
inside the DustPedia framework.

lambda    nu*dP/dnu     j_nu    j_nu(carb.) j_nu(sil)
 (um)   (erg s-1 H-1) (Jy cm2 sr-1 H-1)
0.9927057738263894 1.9326702396468412e-19 5.09269585494755e-12 5.092695729426639e-12 1.255209122125638e-19
1.0001793341362166 1.9650474030773699e-19 5.216994048331257e-12 5.2169938973285085e-12 1.5100274772253874e-19
1.0077091589558085 1.997566690304227e-19 5.343255314252484e-12 5.343255132839072e-12 1.814134125699201e-19
1.0114953028030835 2.013878399493361e-19 5.4071267129684725e-12 5.407126514225233e-12 1.9874324136202518e-19
1.0152956718711033 2.030224190051401e-19 5.471494486722197e-12 5.471494269066979e-12 2.1765521725606053e-19
1.0229392996569957 2.0630002172449732e-19 5.6016835439364014e-12 5.601683283147279e-12 2.607891215743254e-19
1.0267826658714554 2.0793933193818679e-19 5.6674096550684666e-12 5.66740936973925e-12 2.8532921847710986e-19
1.0306404723013447 2.0958179497445894e-19 5.733636833558372e-12 5.733636521484828e-12 3.1207354290204505e-19
1.03451277320114 2.112273714740394e-19 5.800367160041935e-12 5.800366818832018e-12 3.4120991687511263e-19
1.0383996230291617 2.1287602372001072e-19 5.867602762081354e-12 5.867602389140118e-12 3.729412355735786e-19
1.0403485208654093 2.1370149191980777e-19 5.901410719582669e-12 5.901410329734867e-12 3.8984780177814895e-19
1.0423010764483396 2.1452771567585666e-19 5.935345816010081e-12 5.935345408523483e-12 4.07486596383835e-19
1.0462171883269815 2.1618241302314057e-19 6.00359854880018e-12 6.0035981037176725e-12 4.450825059572846e-19
1.0471985131304309 2.165965530972905e-19 6.0207416352673185e-12 6.020741180279711e-12 4.549876083595547e-19
1.048180758391296 2.170108784730327e-19 6.0379167550080175e-12 6.0379162899046185e-12 4.65103400868631e-19
1.0501480137395462 2.1784008319879317e-19 6.0723632399516034e-12 6.072362753967432e-12 4.859841701493379e-19
1.0521189612883777 2.186700234103633e-19 6.106938297089358e-12 6.1069377893294955e-12 5.077598623400589e-19
1.0531058218030118 2.1908472456415486e-19 6.1242589370242805e-12 6.124258418028896e-12 5.189953859193947e-19
1.0540936079674168 2.1949782735542636e-19 6.141561974453891e-12 6.141561443982914e-12 5.304709785096125e-19
1.058054026499678 2.211519837158051e-19 6.211094209243753e-12 6.2110936303972404e-12 5.78846513844209e-19
1.0590464539527713 2.2156595702874264e-19 6.228557477941135e-12 6.2285568863574334e-12 5.915837004065947e-19
1.06003981227728 2.2198010322650694e-19 6.246052906952919e-12 6.246052302364371e-12 6.045885449480267e-19
1.0620293250338977 2.2280891272801286e-19 6.281140400454675e-12 6.281139769032009e-12 6.314226655192028e-19
1.0660195594769086 2.2446858974072496e-19 6.351703024718044e-12 6.3517023361734885e-12 6.885445562760753e-19
1.070024785945596 2.261309920556147e-19 6.4227846213529684e-12 6.422783870769035e-12 7.50583934422988e-19
1.0740450607676866 2.277960989615542e-19 6.494387794377263e-12 6.49438697643618e-12 8.179410839840773e-19
1.07808044048254 2.294638917682448e-19 6.5665152145355726e-12 6.566514323488712e-12 8.91046860606073e-19
1.0861967418109137 2.328049444334194e-19 6.712280989480599e-12 6.712279933086755e-12 1.0563938432718512e-18
1.0902777775684922 2.344724345103853e-19 6.7857582908575295e-12 6.785757141187391e-12 1.1496701403081685e-18
1.0943741465085532 2.3614245870708843e-19 6.859766588127917e-12 6.8597653373581095e-12 1.250769808216067e-18
1.1026131145906286 2.394900811790855e-19 7.009388278207414e-12 7.009386799245471e-12 1.4789619421977755e-18
1.1109141095355224 2.4284777771280456e-19 7.161171084202583e-12 7.161169337709148e-12 1.7464934341043077e-18
1.1192775983109025 2.462129538090734e-19 7.315064218754932e-12 7.315062159027959e-12 2.0597269760037936e-18
1.1277040513999907 2.4957371435892834e-19 7.470736459174467e-12 7.470734033192456e-12 2.4259820099303636e-18
1.1361939428280308 2.529442856503213e-19 7.628633931472095e-12 7.628631077804846e-12 2.853667248210416e-18
1.1447477501889525 2.5632478799949903e-19 7.788787201215297e-12 7.788783848786013e-12 3.3524292827060818e-18
1.1533659546722406 2.597165345647684e-19 7.95126375894509e-12 7.951259825619667e-12 3.933325422924098e-18
1.1707974979042381 2.665440306720331e-19 8.283620219581682e-12 8.283614825608763e-12 5.393972921056943e-18
1.1884924949847024 2.734189071090888e-19 8.625701396313229e-12 8.625694036502863e-12 7.359810365719003e-18
1.2064549276569216 2.803871625015979e-19 8.979220990830136e-12 8.979210998531915e-12 9.992298219827522e-18
1.2246888378427687 2.8740588042075683e-19 9.343096669001989e-12 9.343083169373106e-12 1.3499628879189357e-17
1.2431983285522175 2.9447005550052022e-19 9.717420332942613e-12 9.717402183647912e-12 1.8149294701085948e-17
1.2619875648066055 3.015908428668086e-19 1.0102821030250802e-11 1.0102796747015807e-11 2.4283234994922038e-17
1.3004222497298317 3.159627184018778e-19 1.090660704521773e-11 1.0906564188522882e-11 4.2856694845197984e-17
1.3400274889804893 3.30568617907816e-19 1.1758306118780447e-11 1.1758231873843748e-11 7.424493669954943e-17
1.3808389325824078 3.4546406334248605e-19 1.2662379729626595e-11 1.2662253414081865e-11 1.2631554473080466e-16
1.4228933163050095 3.6077010518907607e-19 1.3626123331545585e-11 1.362591217476203e-11 2.111567835569424e-16
1.466228494730424 3.7673854376565758e-19 1.4662605269445783e-11 1.4662258269182607e-11 3.4700026317200134e-16
1.5108834753276823 3.933344193274712e-19 1.5774745307289726e-11 1.5774184487634544e-11 5.608196551811996e-16
1.5568984535646726 4.1053453281617104e-19 1.696599812749743e-11 1.696510575389075e-11 8.923736066814007e-16
1.6043148490894465 4.2841808460031123e-19 1.8244284311155776e-11 1.8242883696610205e-11 1.4006145455691029e-15
1.6531753430134553 4.4706333699994425e-19 1.9618120949765877e-11 1.961595515366466e-11 2.1657961012183607e-15
1.7035239163302658 4.665563742551823e-19 2.10970530764228e-11 2.1093752847253988e-11 3.3002291688073766e-15
1.755405889504358 4.871971146907108e-19 2.2701350380300358e-11 2.2696392287732477e-11 4.958092567876232e-15
1.8088679632656115 5.089326978632451e-19 2.4436367866547574e-11 2.442902134559675e-11 7.346520950825024e-15
1.8639582606462262 5.316880171850818e-19 2.6306464765525525e-11 2.6295724457361608e-11 1.074030816391897e-14
1.9207263702978936 5.554490393463543e-19 2.831908076166632e-11 2.8303582557366587e-11 1.5498204299730098e-14
1.979223391128241 5.802210412541539e-19 3.048300112413279e-11 3.0460918970423225e-11 2.2082153709575455e-14
2.039501978296691 6.059813379387194e-19 3.280596472793021e-11 3.2774886996847043e-11 3.107773108316538e-14
2.1016163906111602 6.328732720036151e-19 3.530527791620045e-11 3.5262058211405646e-11 4.3219704794802833e-14
2.1656225393682647 6.608882063202916e-19 3.7990953859228643e-11 3.793154030691246e-11 5.941355231618594e-14
2.231578038680979 6.898053013717001e-19 4.086091048425836e-11 4.078015113695655e-11 8.075934730181828e-14
2.299542257339062 7.194915205295895e-19 4.391738854385604e-11 4.3808812645510684e-11 1.0857589834535304e-13
2.369576372248914 7.4986799196325205e-19 4.716555617025416e-11 4.7021130488512516e-11 1.444256817416668e-13
2.4417434235010123 7.808699186087427e-19 5.061137689856094e-11 5.042124591091966e-11 1.9013098764127677e-13
2.5161083711144245 8.125593617702813e-19 5.4269256789845946e-11 5.402146026620827e-11 2.477965236376595e-13
2.5927381535095444 8.451648114421727e-19 5.8166040117506654e-11 5.7846221792736025e-11 3.1981832477062357e-13
2.6717017477616296 8.78842205951547e-19 6.232586478299685e-11 6.19169950725875e-11 4.0886971040932916e-13
2.753070231689431 9.139147356867661e-19 6.67870718977031e-11 6.626917724478064e-11 5.178946529224587e-13
2.836916847834745 9.516098740537084e-19 7.165969893587593e-11 7.100958647662718e-11 6.501124592487427e-13
2.9233170693905177 9.94836360789835e-19 7.719639250751147e-11 7.638757857348829e-11 8.088139340231901e-13
2.967498994190263 1.0214696089945352e-18 8.046100695835832e-11 7.956369998177707e-11 8.973069765812617e-13
3.0123486681368425 1.0498232328392285e-18 8.394423024159637e-11 8.295001763571799e-11 9.942126058783878e-13
3.0578761833420214 1.0981979769056928e-18 8.913945382616742e-11 8.803893165200288e-11 1.1005221741645551e-12
3.1040917844459814 1.1549382469591934e-18 9.516182255114105e-11 9.394606618785018e-11 1.2157563632908832e-12
3.127460860933648 1.2090446412390305e-18 1.003699373127387e-10 9.909266075028876e-11 1.2772765624499223e-12
3.1510058709225794 1.2780922876237118e-18 1.0690077644340826e-10 1.0555950374172127e-10 1.3412727016869799e-12
3.162844764501044 1.3414008950999409e-18 1.1261750505761705e-10 1.1124316396942862e-10 1.3743410881884528e-12
3.1747281389236908 1.4129849953052599e-18 1.190730627236286e-10 1.1766501576581786e-10 1.4080469578106908e-12
3.1986289994194426 1.6070723203144675e-18 1.3644848700086832e-10 1.3497091048231678e-10 1.477576518551556e-12
3.2227097969389145 2.0589889159182778e-18 1.761345852460004e-10 1.7458346406057484e-10 1.5511211854255044e-12
3.2348180950136065 2.483567940224378e-18 2.1325309448581812e-10 2.1166275818891885e-10 1.5903362968992706e-12
3.240889293275058 2.801010125749027e-18 2.4096186058083767e-10 2.3935083898835757e-10 1.611021592480049e-12
3.2469718861334385 3.169035536060471e-18 2.7313356329607734e-10 2.715011385754387e-10 1.6324247206386746e-12
3.2714166318528037 5.096828197682894e-18 4.425937584470004e-10 4.4087299260011004e-10 1.7207658468903562e-12
3.2744851364798273 5.216950080235226e-18 4.5344971946944223e-10 4.5171857349864225e-10 1.7311459707998742e-12
3.2775565192852394 5.3402583267491395e-18 4.64602870224832e-10 4.6286129502556724e-10 1.7415751992646566e-12
3.283707930232385 5.220121496747646e-18 4.550033204956372e-10 4.532431568212532e-10 1.7601636743840462e-12
3.2898708863219004 4.84076766352719e-18 4.2272947078103015e-10 4.209524478163718e-10 1.7770229646583674e-12
3.29141343181113 4.7510900930377594e-18 4.1509273847049064e-10 4.133114834843197e-10 1.7812549861709521e-12
3.292184975758714 4.7069932626413376e-18 4.1133649049554946e-10 4.095531169169901e-10 1.783373578559389e-12
3.295272960557952 4.432698119249633e-18 3.877296233599122e-10 3.859380196829914e-10 1.7916036769208199e-12
3.3076538914384823 3.474486805689999e-18 3.0505641284845513e-10 3.032317813209248e-10 1.8246315275303327e-12
3.310756385682612 3.277190384292987e-18 2.880038745009745e-10 2.861709237969891e-10 1.832950703985416e-12
3.313861789986515 3.094262211448512e-18 2.721829633642936e-10 2.7034166858455585e-10 1.8412947797377832e-12
3.3200813396944477 2.838654841177729e-18 2.501674176793808e-10 2.483081487353661e-10 1.8592689440146586e-12
3.345076488085796 2.391422098414921e-18 2.12339956426371e-10 2.1040051365631524e-10 1.9394427700557574e-12
3.3482140837626964 2.4091508619912944e-18 2.1411478072753597e-10 2.1216447386323823e-10 1.9503068642977565e-12
3.3513546224236106 2.4270375338230496e-18 2.1590679505005838e-10 2.1394557819137887e-10 1.9612168586795413e-12
3.3576445397418455 2.5542327962576954e-18 2.2764841307240546e-10 2.256643755887952e-10 1.9840374836102808e-12
3.3702598118196083 3.0154313172210494e-18 2.6976292112908653e-10 2.677310210143464e-10 2.031900114740064e-12
3.382922481734668 3.1245589239854413e-18 2.8057579259619764e-10 2.784974677595199e-10 2.0783248366777457e-12
3.389271646505754 3.180785915554199e-18 2.8616087243233387e-10 2.8405903526020506e-10 2.1018371721287933e-12
3.395632727569191 3.242834635021704e-18 2.9229066585033376e-10 2.901645976158856e-10 2.1260682344480527e-12
3.421196662673239 3.544674763959907e-18 3.2190214164839954e-10 3.1967587143033423e-10 2.2262702180654445e-12
3.4276182099114902 3.489024553836009e-18 3.174431063342128e-10 3.151945805459869e-10 2.2485257882258844e-12
3.4340518103208963 3.2391130825453815e-18 2.9525848458376886e-10 2.9298896054810394e-10 2.269524035664949e-12
3.4469541582030403 2.8798570151246335e-18 2.6349711606951386e-10 2.6118739304446007e-10 2.309723025053808e-12
3.472904465399547 2.777220945288021e-18 2.5601929756233073e-10 2.536168115740383e-10 2.402485988292447e-12
3.4990501388274233 2.6241460073597002e-18 2.4372921751323703e-10 2.4123203681522823e-10 2.497180698008765e-12
3.5253949054701885 2.0910915509868794e-18 1.956817181229824e-10 1.9309291525321987e-10 2.588802869762503e-12
3.5519380250092896 1.5834706547766301e-18 1.4929485176026886e-10 1.466142596303934e-10 2.680592129875531e-12
3.578680990867387 1.3844638974031886e-18 1.3151462611680011e-10 1.287334653293657e-10 2.7811607874343804e-12
3.605625307711299 1.306886597095185e-18 1.2508001667015498e-10 1.2219311613027457e-10 2.8869005398804037e-12
3.660119384959845 1.2554737910403298e-18 1.2197542368360651e-10 1.1886719137250736e-10 3.108232311099121e-12
3.715437065384467 1.2194140580207792e-18 1.202625864531351e-10 1.1692221552797306e-10 3.3403709251620377e-12
3.8285932144167436 1.2094216026228061e-18 1.2290976265281543e-10 1.1907461771261804e-10 3.835144940197348e-12
3.94519561050918 1.213923792935281e-18 1.271245410376809e-10 1.2275605420277214e-10 4.368486834908819e-12
4.06534921144712 1.2226879296175126e-18 1.3194195510420137e-10 1.270036208991717e-10 4.938334205029701e-12
4.189162171576248 1.2327372800083371e-18 1.3707780330840732e-10 1.3153347712109701e-10 5.544326187310306e-12
4.316745939156006 1.2428459635756068e-18 1.4241089911141067e-10 1.3622834108946865e-10 6.1825580219420215e-12
4.448215356677963 1.2524963191433182e-18 1.478875779811994e-10 1.410452881081728e-10 6.842289873026594e-12
4.58368876423945 1.2616437140081204e-18 1.5350456041704193e-10 1.4598167830322469e-10 7.52288211381723e-12
4.723288106065518 1.2705521435332503e-18 1.5929654751012307e-10 1.5106926799855579e-10 8.22727951156731e-12
4.867139040275056 1.279565019127875e-18 1.6531244332159525e-10 1.56378688284885e-10 8.933755036710236e-12
4.940699165968905 1.2849299981792283e-18 1.6851451405639968e-10 1.592248156164694e-10 9.289698439930228e-12
5.015371051989984 1.289736586164461e-18 1.717012756287801e-10 1.620551947725914e-10 9.646080856188763e-12
5.091171501069577 1.2965248830317615e-18 1.7521368201735378e-10 1.6520250267097494e-10 1.001117934637888e-11
5.129500256944802 1.2996893788224612e-18 1.7696364652362293e-10 1.667702952121213e-10 1.0193351311501594e-11
5.168117569889187 1.3029297186021813e-18 1.7874043395029376e-10 1.6836311127341418e-10 1.0377322676879563e-11
5.20702561229733 1.3079768772679722e-18 1.807836761964772e-10 1.7020372780724003e-10 1.0579948389237249e-11
5.246226572918644 1.3129304555599204e-18 1.8283452109440087e-10 1.7205172091111073e-10 1.0782800183290165e-11
5.265937586045735 1.315373502469611e-18 1.8386295232507862e-10 1.729786767715459e-10 1.0884275553532717e-11
5.285722656980489 1.3177948095966798e-18 1.8489348038735132e-10 1.7390771544358018e-10 1.098576494377112e-11
5.305582063971359 1.3201949653571563e-18 1.859261779276756e-10 1.7483892387025604e-10 1.1087254057419589e-11
5.3255160863122235 1.3229301928832293e-18 1.8701139174410246e-10 1.7582171752471248e-10 1.1189674219389976e-11
5.365609099470188 1.3310892743242067e-18 1.89581365430682e-10 1.7817962926761804e-10 1.140173616306399e-11
5.406003951863644 1.3393099371441892e-18 1.921882724658008e-10 1.805743297166524e-10 1.1613942749148433e-11
5.446702915881641 1.3476065984341257e-18 1.948346742184136e-10 1.8300849508299753e-10 1.1826179135416004e-11
5.487708281020852 1.3566653240077077e-18 1.9762103730700789e-10 1.8558165064861913e-10 1.203938665838874e-11
5.529022354014368 1.3717881469539648e-18 2.0132829927555278e-10 1.8906664423061602e-10 1.226165504493679e-11
5.570647458961463 1.3874552989210348e-18 2.0516066956054477e-10 1.9267666736295142e-10 1.2484002197593422e-11
5.612585937458331 1.4037231718613672e-18 2.0912882911061514e-10 1.964225174979757e-10 1.2706311612639434e-11
5.654840148729818 1.4216533115729909e-18 2.133946204112254e-10 2.0046487087722166e-10 1.2929749534003678e-11
5.67608639626678 1.4353211656960534e-18 2.1625567818045722e-10 2.0320872663869194e-10 1.3046951541765297e-11
5.686739436050992 1.4423144928719804e-18 2.177171948398386e-10 2.0461163073079107e-10 1.3105564109047518e-11
5.6974124697621304 1.4494179082542014e-18 2.1920008476360682e-10 2.0603590284917606e-10 1.316418191443072e-11
5.718818669136295 1.46396690181577e-18 2.2223221625491065e-10 2.089507904485592e-10 1.3281425806351373e-11
5.740305295436557 1.4802354215061798e-18 2.2554604513997878e-10 2.1214637525338821e-10 1.3399669886590574e-11
5.7835210386641895 1.5246426197479035e-18 2.340614055378075e-10 2.204175193950242e-10 1.3643886142783328e-11
5.827062130521658 1.5753770785428102e-18 2.436708644790324e-10 2.2978015998489366e-10 1.3890704494138754e-11
5.8489554468988025 1.6129642180492455e-18 2.5042199981524313e-10 2.3639711612363377e-10 1.4024883691609345e-11
5.870931020387893 1.6528295898919299e-18 2.5757546350716545e-10 2.4341620000008003e-10 1.415926350708543e-11
5.892989160043636 1.6951549075053866e-18 2.651639418853858e-10 2.50870113235977e-10 1.4293828649408743e-11
5.915130176081913 1.7434705563573607e-18 2.7374636259702683e-10 2.5931274696588105e-10 1.4433615631145785e-11
5.95966208400165 1.8822232008371947e-18 2.9775714464230277e-10 2.8299998144419647e-10 1.4757163198106344e-11
6.004529249263818 2.0835352235778973e-18 3.32084988778437e-10 3.169608735122119e-10 1.512411526622518e-11
6.027089341400364 2.2246593701497952e-18 3.55910323617664e-10 3.405716856850871e-10 1.5338637932576774e-11
6.049734195844842 2.3902981136120963e-18 3.8384668606313093e-10 3.682802593064321e-10 1.556642675669883e-11
6.095279466722835 2.870514046841567e-18 4.644326379758758e-10 4.482978867382e-10 1.6134751237675886e-11
6.141167624020661 3.605037671811634e-18 5.876654955123763e-10 5.707827170602431e-10 1.6882778452133167e-11
6.164241091010745 4.072992375739161e-18 6.664424408855695e-10 6.490851925669908e-10 1.7357248318578706e-11
6.187401249150058 4.599173572654416e-18 7.553661410203343e-10 7.375226586274367e-10 1.7843482392897663e-11
6.1990139391386085 4.854212450615938e-18 7.987499165755863e-10 7.806591984735912e-10 1.8090718101995357e-11
6.204828454712694 4.9879870419681676e-18 8.215320833979808e-10 8.033165931801485e-10 1.821549021783229e-11
6.210648424152782 5.084145152461978e-18 8.381549599540307e-10 8.198342552653359e-10 1.8320704688694768e-11
6.233982942956859 5.404658684271071e-18 8.943413589591198e-10 8.756584412455748e-10 1.8682917713545e-11
6.239830258556775 5.442006807825798e-18 9.013662435260665e-10 8.826365535234623e-10 1.8729690002604034e-11
6.245683058788269 5.439329974525407e-18 9.017679188298171e-10 8.829914178362944e-10 1.8776500993522793e-11
6.257405133728602 5.416932580896699e-18 8.997402260862763e-10 8.808838256575012e-10 1.885640042877532e-11
6.269149208991335 5.336751723106979e-18 8.880860299258704e-10 8.692101383537697e-10 1.8875891572100584e-11
6.280915325867298 5.155820433006512e-18 8.595876258939941e-10 8.407668069994746e-10 1.8820818894519412e-11
6.304513850009849 4.718129830310417e-18 7.895705176471048e-10 7.709270888287827e-10 1.8643428818322324e-11
6.32820103803542 4.187271106754828e-18 7.033650443685504e-10 6.849705262411882e-10 1.8394518127362393e-11
6.3519772230701035 3.703535902663555e-18 6.244460522003758e-10 6.062774430241056e-10 1.8168609176270048e-11
6.375842739491607 3.2958515443903376e-18 5.57795069545837e-10 5.398286596090457e-10 1.7966409936791435e-11
6.399797922933955 2.971366157428683e-18 5.047680604156647e-10 4.869193421612334e-10 1.7848718254431384e-11
6.42384311029221 2.700449904506173e-18 4.604690913865516e-10 4.427210966459282e-10 1.7747994740623492e-11
6.447978639727206 2.5025347354960877e-18 4.283247177902398e-10 4.1061183893179976e-10 1.771287885844001e-11
6.472204850670314 2.336645238106391e-18 4.0143429142721553e-10 3.837435729109785e-10 1.7690718516237152e-11
6.496522083828205 2.226855709734592e-18 3.8400990785302854e-10 3.6628845082918974e-10 1.772145702383881e-11
6.520930681187647 2.1334069040835587e-18 3.692773859491334e-10 3.515174084872665e-10 1.775997746186681e-11
