Dust emission spectrum from A.P. Jones, M. Kohler, N. Ysard, M. Bocchio, and L. Verstraete (2017), A&A, 602A, 46J 
inside the DustPedia framework.

lambda    nu*dP/dnu     j_nu    j_nu(carb.) j_nu(sil)
 (um)   (erg s-1 H-1) (Jy cm2 sr-1 H-1)
0.9927057738263894 3.7450765467958177e-23 9.868489416908232e-16 9.868489347298036e-16 6.961019665322615e-24
1.0001793341362166 3.8079393503044874e-23 1.0109678217346652e-15 1.0109678133539953e-15 8.380669778443263e-24
1.0077091589558085 3.870918423004689e-23 1.035425026616138e-15 1.035425016539547e-15 1.0076590825021988e-23
1.0114953028030835 3.902446614493645e-23 1.0477804092079457e-15 1.0477803981641968e-15 1.1043748882673486e-23
1.0152956718711033 3.933997974445942e-23 1.0602202620495968e-15 1.0602202499498516e-15 1.2099744857363837e-23
1.0229392996569957 3.9971318126129527e-23 1.0853448928648293e-15 1.0853448783547005e-15 1.4510128941354446e-23
1.0267826658714554 4.02864087436613e-23 1.0980105579531838e-15 1.0980105420706672e-15 1.588251638193823e-23
1.0306404723013447 4.060163900262271e-23 1.110759896472152e-15 1.110759879093182e-15 1.7378969755242672e-23
1.03451277320114 4.091699045918908e-23 1.1235928662606996e-15 1.1235928472505557e-15 1.9010144020361185e-23
1.0383996230291617 4.123244489947158e-23 1.1365094262457529e-15 1.1365094054581952e-15 2.0787557355249396e-23
1.0403485208654093 4.139020511122501e-23 1.142999040085168e-15 1.142999018350213e-15 2.1734955144026464e-23
1.0423010764483396 4.154798434636232e-23 1.14950953669054e-15 1.1495095139668832e-15 2.2723656562170402e-23
1.0462171883269815 4.186359106631429e-23 1.162593159446257e-15 1.1625931346143703e-15 2.4831887055921373e-23
1.0471985131304309 4.194250120330264e-23 1.1658771096350044e-15 1.1658770842474877e-15 2.5387516917456628e-23
1.048180758391296 4.2021414180206956e-23 1.169166276516098e-15 1.169166250561054e-15 2.5955044604080298e-23
1.0501480137395462 4.217924757605433e-23 1.1757602582070124e-15 1.1757602310802452e-15 2.712676772710764e-23
1.0521189612883777 4.233708910864265e-23 1.1823751003110806e-15 1.1823750719620284e-15 2.8349052148682126e-23
1.0531058218030118 4.24159013811715e-23 1.1856872432450784e-15 1.185687214265237e-15 2.897984130159754e-23
1.0540936079674168 4.249435161897664e-23 1.1889944295875879e-15 1.1889943999633925e-15 2.962419577559542e-23
1.058054026499678 4.280814471415567e-23 1.2022746315684928e-15 1.2022745992270398e-15 3.234145280754455e-23
1.0590464539527713 4.2886589729920515e-23 1.2056075434505385e-15 1.2056075103933857e-15 3.305715282288663e-23
1.06003981227728 4.29650329286788e-23 1.2089455988209334e-15 1.2089455650329366e-15 3.3787996663565523e-23
1.0620293250338977 4.312191285639324e-23 1.2156371379892467e-15 1.2156371026929068e-15 3.529634001140161e-23
1.0660195594769086 4.343563976359573e-23 1.229081916475105e-15 1.2290818779665561e-15 3.850854839032111e-23
1.070024785945596 4.374930944078119e-23 1.2426089379290138e-15 1.2426088959297105e-15 4.199930369424537e-23
1.0740450607676866 4.406290618629208e-23 1.2562181768061882e-15 1.2562181310147105e-15 4.5791477898562116e-23
1.07808044048254 4.437641459792711e-23 1.2699096113916477e-15 1.2699095614819395e-15 4.9909708136078806e-23
1.0861967418109137 4.5002598615299554e-23 1.2975243627142594e-15 1.2975243034817721e-15 5.923248761588115e-23
1.0902777775684922 4.531409034793939e-23 1.311414132383129e-15 1.3114140678867897e-15 6.449633933438145e-23
1.0943741465085532 4.5625414984079505e-23 1.325385104359738e-15 1.3253850341546213e-15 7.020511647015059e-23
1.1026131145906286 4.6247508492399934e-23 1.3535706461284339e-15 1.3535705630261607e-15 8.310227354402072e-23
1.1109141095355224 4.6868773605010145e-23 1.3820810280963875e-15 1.3820809298550306e-15 9.824135722436044e-23
1.1192775983109025 4.748859041823826e-23 1.4109009424294612e-15 1.4109008264408846e-15 1.1598857664866224e-22
1.1277040513999907 4.810447494326889e-23 1.4399587541950888e-15 1.439958617429213e-15 1.3676587630229124e-22
1.1361939428280308 4.8719171777882956e-23 1.4693383010508959e-15 1.4693381399921677e-15 1.6105872861338571e-22
1.1447477501889525 4.9332599668482725e-23 1.4990400417352824e-15 1.4990398523103115e-15 1.8942497088124444e-22
1.1533659546722406 4.994494550433061e-23 1.5290725936897787e-15 1.5290723711847371e-15 2.225050414163787e-22
1.1707974979042381 5.116827012894594e-23 1.5902007483434784e-15 1.5902004424924695e-15 3.0585100841687547e-22
1.1884924949847024 5.238634560758368e-23 1.6526617681007515e-15 1.6526613497799702e-15 4.1832078149997755e-22
1.2064549276569216 5.360782351233663e-23 1.7167565371397743e-15 1.7167559678030177e-15 5.693367562247355e-22
1.2246888378427687 5.482281329008904e-23 1.782200292791769e-15 1.7821995217023253e-15 7.710894436336813e-22
1.2431983285522175 5.602963918514761e-23 1.8489606834207626e-15 1.848959644125171e-15 1.0392955908883928e-21
1.2619875648066055 5.722925236189261e-23 1.9170903493333152e-15 1.9170889552185436e-15 1.394114771886063e-21
1.3004222497298317 5.959508450167776e-23 2.0571419684382666e-15 2.0571394951067374e-15 2.4733315300116522e-21
1.3400274889804893 6.192185300370155e-23 2.2025566361011566e-15 2.202552328257419e-15 4.3078437376782785e-21
1.3808389325824078 6.42126869433222e-23 2.3536034911101738e-15 2.3535961216836103e-15 7.369426563467826e-21
1.4228933163050095 6.648454448726936e-23 2.511091107037192e-15 2.511078718569042e-15 1.2388468149779676e-20
1.466228494730424 6.878129787843547e-23 2.676957368447526e-15 2.6769368932457487e-15 2.0475201777611147e-20
1.5108834753276823 7.108886487803616e-23 2.8510312917764866e-15 2.8509980061806727e-15 3.3285595815329754e-20
1.5568984535646726 7.339731947188074e-23 3.033261967467328e-15 3.0332086883275846e-15 5.327913974336673e-20
1.6043148490894465 7.57190509292708e-23 3.2245134894650917e-15 3.2244293624542456e-15 8.412701084516056e-20
1.6531753430134553 7.806753503065097e-23 3.4257748684088277e-15 3.425643985407983e-15 1.308830008442376e-19
1.7035239163302658 8.046106832636353e-23 3.638341522558498e-15 3.638140843025504e-15 2.0067953299296867e-19
1.755405889504358 8.296255836139502e-23 3.8657086608646425e-15 3.865405263533686e-15 3.033973309564462e-19
1.8088679632656115 8.556670411168677e-23 4.108479308914559e-15 4.108026867312731e-15 4.524416018288875e-19
1.8639582606462262 8.826862246909972e-23 4.367289334783976e-15 4.3666235600514764e-15 6.657747325003918e-19
1.9207263702978936 9.107790168573668e-23 4.6435267157482225e-15 4.642559620992207e-15 9.670947560140445e-19
1.979223391128241 9.401083351900642e-23 4.939035540052499e-15 4.9376482908086846e-15 1.3872492438141394e-18
2.039501978296691 9.708265055276806e-23 5.255755928988954e-15 5.253790136235767e-15 1.9657927531874827e-18
2.1016163906111602 1.0034235694049166e-22 5.5976685305970805e-15 5.594915588133889e-15 2.752942463192308e-18
2.1656225393682647 1.0381272602338688e-22 5.967642404022339e-15 5.963831033068257e-15 3.811370954082066e-18
2.231578038680979 1.0748038007975499e-22 6.366646038410845e-15 6.361427796801884e-15 5.218241608964628e-18
2.299542257339062 1.1134814580379167e-22 6.796632960043262e-15 6.789565589433715e-15 7.067370609544662e-18
2.369576372248914 1.1543440402125976e-22 7.260648441054351e-15 7.251176878293525e-15 9.471562760825402e-18
2.4417434235010123 1.1976147350105515e-22 7.76223149188303e-15 7.749666994057998e-15 1.256449782503193e-17
2.5161083711144245 1.2438053971658107e-22 8.307133936445954e-15 8.290630766977843e-15 1.6503169468112155e-17
2.5927381535095444 1.2938431397967985e-22 8.904503708189531e-15 8.883034136715439e-15 2.146957147409274e-17
2.6717017477616296 1.3486778046925897e-22 9.564573699562824e-15 9.536902786959637e-15 2.7670912603186098e-17
2.753070231689431 1.4097991541683757e-22 1.0302531931494684e-14 1.0267191463559226e-14 3.534046793545662e-17
2.836916847834745 1.4810908521260957e-22 1.1153155032736216e-14 1.1108415806037267e-14 4.47392266989506e-17
2.9233170693905177 1.5713238067441436e-22 1.2193013255518057e-14 1.2136868481921872e-14 5.614477359618668e-17
2.967498994190263 1.6323544971598453e-22 1.285803174151885e-14 1.2795451851710837e-14 6.257988980801092e-17
3.0123486681368425 1.6995952024083807e-22 1.3590022255711553e-14 1.3520362187989083e-14 6.966006772246654e-17
3.0578761833420214 1.8238636738164515e-22 1.48040895317864e-14 1.472662858782871e-14 7.746094395768803e-17
3.1040917844459814 1.9755472173573046e-22 1.627763858669741e-14 1.6191670951934668e-14 8.59676347627445e-17
3.127460860933648 2.124981866523521e-22 1.7640729668600016e-14 1.7550200364277564e-14 9.052930432244741e-17
3.1510058709225794 2.3192028974725557e-22 1.9398019444321287e-14 1.9302730137433742e-14 9.528930688754669e-17
3.162844764501044 2.4973859655313376e-22 2.09668397890172e-14 2.0869085206104304e-14 9.775458291289422e-17
3.1747281389236908 2.701688162262423e-22 2.2767282389666068e-14 2.2667011028186295e-14 1.002713614797649e-16
3.1986289994194426 3.2630298202827916e-22 2.770475705344609e-14 2.7599281847729383e-14 1.0547520571671134e-16
3.2227097969389145 4.574636868939769e-22 3.9133370817706165e-14 3.9022376110298736e-14 1.1099470740742777e-16
3.2348180950136065 5.811914302604373e-22 4.990436097370439e-14 4.9790419387963385e-14 1.139415857409877e-16
3.240889293275058 6.736680504613263e-22 5.79534880508931e-14 5.783799203951638e-14 1.1549601137673014e-16
3.2469718861334385 7.807679547686796e-22 6.729300797253373e-14 6.71759035568437e-14 1.171044156900486e-16
3.2714166318528037 1.347445307173407e-21 1.170082372159948e-13 1.168844816729782e-13 1.2375554301660267e-16
3.2744851364798273 1.3829146060625703e-21 1.2020092784575623e-13 1.2007638722684424e-13 1.245406189120234e-16
3.2775565192852394 1.4193683917816189e-21 1.2348515528266154e-13 1.2335982554693286e-13 1.2532973572871288e-16
3.283707930232385 1.3845286090046712e-21 1.206801632511477e-13 1.2055341977073533e-13 1.2674348041230252e-16
3.2898708863219004 1.2735984069143446e-21 1.1121946310271208e-13 1.1109143068505687e-13 1.2803241765517874e-16
3.29141343181113 1.2474071513212958e-21 1.089833365164762e-13 1.0885498037831441e-13 1.2835613816179682e-16
3.292184975758714 1.234533033129412e-21 1.0788383516047792e-13 1.0775531693880033e-13 1.285182216776021e-16
3.295272960557952 1.15374252018256e-21 1.0091825357157994e-13 1.0078910443250355e-13 1.291491390763783e-16
3.3076538914384823 8.727102863698895e-22 7.662307681812499e-14 7.64913924094649e-14 1.3168440866011272e-16
3.310756385682612 8.151934847866647e-22 7.164029383577033e-14 7.150797014364608e-14 1.323236921242246e-16
3.313861789986515 7.620004028902814e-22 6.702842667182073e-14 6.689546150440373e-14 1.329651674169918e-16
3.3200813396944477 6.875681256626217e-22 6.05945957150275e-14 6.046025188613647e-14 1.3434382889101242e-16
3.345076488085796 5.562737193558005e-22 4.9392843449693634e-14 4.92523585643301e-14 1.4048488536353368e-16
3.3482140837626964 5.6143299242861245e-22 4.989770626804819e-14 4.975638959303661e-14 1.4131667501158936e-16
3.3513546224236106 5.666442663317024e-22 5.040809866852651e-14 5.0265946324630425e-14 1.421523438961009e-16
3.3576445397418455 6.038403024260469e-22 5.381783790336326e-14 5.3673938791207487e-14 1.4389911215577492e-16
3.3702598118196083 7.397245386517457e-22 6.61763546852931e-14 6.602879139596152e-14 1.475632893315839e-16
3.382922481734668 7.715620433145891e-22 6.928390121828965e-14 6.91327715039332e-14 1.5112971435642322e-16
3.389271646505754 7.880165645685163e-22 7.089427380363878e-14 7.074133542999729e-14 1.529383736414767e-16
3.395632727569191 8.059431996031204e-22 7.264313508479839e-14 7.248833274718302e-14 1.5480233761534322e-16
3.421196662673239 8.925071313338371e-22 8.105114746603057e-14 8.08886237212714e-14 1.6252374475917397e-16
3.4276182099114902 8.761961564484985e-22 7.971925257886346e-14 7.955500030799308e-14 1.6425227087039302e-16
3.4340518103208963 8.030431478577056e-22 7.32006869934661e-14 7.303479723262402e-14 1.6588976084206678e-16
3.4469541582030403 6.984581215918906e-22 6.390654111236427e-14 6.373750309263629e-14 1.6903801972796974e-16
3.472904465399547 6.69528716535151e-22 6.172079034473844e-14 6.154450779487923e-14 1.7628254985918827e-16
3.4990501388274233 6.253643140242942e-22 5.808348868179074e-14 5.78997805777777e-14 1.8370810401304668e-16
3.5253949054701885 4.676864051142678e-22 4.3765505748578917e-14 4.35745644252101e-14 1.9094132336880531e-16
3.5519380250092896 3.1833096615195417e-22 3.001329658936006e-14 2.9815069553951674e-14 1.9822703540838393e-16
3.578680990867387 2.5965701784854746e-22 2.4665645442258943e-14 2.4459430573011152e-14 2.0621486924779309e-16
3.605625307711299 2.3660192062362557e-22 2.264478971746492e-14 2.2430152583466106e-14 2.1463713399881035e-16
3.660119384959845 2.2111811835839984e-22 2.1482707455436852e-14 2.125033330036765e-14 2.3237415506920964e-16
3.715437065384467 2.1046385709305342e-22 2.075663113970948e-14 2.0505496773326157e-14 2.511343663833314e-16
3.8285932144167436 2.0775609303089728e-22 2.1113606726328465e-14 2.0821935395070653e-14 2.9167133125780595e-16
3.94519561050918 2.0989124357226478e-22 2.1980233159804944e-14 2.1644030260678338e-14 3.362028991266055e-16
4.06534921144712 2.1385102505840575e-22 2.3076961556388528e-14 2.269220345256708e-14 3.847581038214417e-16
4.189162171576248 2.1874877199166427e-22 2.4324405229982334e-14 2.3886898275954443e-14 4.3750695402788517e-16
4.316745939156006 2.2423469003213883e-22 2.5693822690282845e-14 2.519947660498808e-14 4.943460852947653e-16
4.448215356677963 2.301773745250567e-22 2.7178023523346544e-14 2.6623427691632498e-14 5.545958317140558e-16
4.58368876423945 2.365728696439085e-22 2.8783890378938315e-14 2.81654769650955e-14 6.184134138428166e-16
4.723288106065518 2.4351162333130686e-22 3.05304753312925e-14 2.984419842411859e-14 6.862769071739291e-16
4.867139040275056 2.5116626801152244e-22 3.244923768957923e-14 3.169266665539887e-14 7.565710341803599e-16
4.940699165968905 2.555292573182928e-22 3.3511855653772774e-14 3.271899598091192e-14 7.928596728608396e-16
5.015371051989984 2.5990547189587884e-22 3.460094219714719e-14 3.377112620498365e-14 8.298159921635535e-16
5.091171501069577 2.6510032184643373e-22 3.582592521177344e-14 3.495771812910413e-14 8.682070826693117e-16
5.129500256944802 2.677058194012873e-22 3.6450400202368346e-14 3.556277282790428e-14 8.876273744640718e-16
5.168117569889187 2.7038685253720046e-22 3.709260957590409e-14 3.618523984007765e-14 9.073697358264478e-16
5.20702561229733 2.7368109074785214e-22 3.782717764415171e-14 3.68983431703398e-14 9.288344738119084e-16
5.246226572918644 2.7701056953512973e-22 3.8575611224924634e-14 3.762510135565264e-14 9.505098692719904e-16
5.265937586045735 2.7868905696040597e-22 3.895516573598915e-14 3.799374115178223e-14 9.614245842069334e-16
5.285722656980489 2.8037700622571944e-22 3.9338355352549384e-14 3.8365965787240104e-14 9.723895653092683e-16
5.305582063971359 2.8207464761606417e-22 3.9725239451555263e-14 3.874183546197548e-14 9.834039895797865e-16
5.3255160863122235 2.8389824184891125e-22 4.0132280302831485e-14 3.913773285605863e-14 9.945474467728578e-16
5.365609099470188 2.8848468881465114e-22 4.108764323046152e-14 4.0070040275341043e-14 1.0176029551204976e-15
5.406003951863644 2.9318082301948106e-22 4.2070856292130694e-14 4.102997520032852e-14 1.040881091802165e-15
5.446702915881641 2.979929528073958e-22 4.308331522498859e-14 4.201893978323001e-14 1.0643754417585764e-15
5.487708281020852 3.031531402508413e-22 4.415933464140618e-14 4.307116212430203e-14 1.0881725171041498e-15
5.529022354014368 3.104706167231967e-22 4.556572483783884e-14 4.445273242384061e-14 1.1129924139982332e-15
5.570647458961463 3.181165242687885e-22 4.7039352668162906e-14 4.590130156923213e-14 1.138051098930762e-15
5.612585937458331 3.261159035906357e-22 4.858524703401806e-14 4.7421904869053153e-14 1.163342164964902e-15
5.654840148729818 3.3484270917744684e-22 5.0260940723535195e-14 4.907196562008834e-14 1.1889751034468618e-15
5.67608639626678 3.409069523128534e-22 5.136346201172139e-14 5.01610819804331e-14 1.2023800312882917e-15
5.686739436050992 3.440170031591617e-22 5.1929324204376923e-14 5.0720216737920524e-14 1.2091074664564207e-15
5.6974124697621304 3.4718068432962576e-22 5.250524020708737e-14 5.128938878747646e-14 1.2158514196109243e-15
5.718818669136295 3.536741635996625e-22 5.368823100533854e-14 5.2458842518201364e-14 1.2293884871371768e-15
5.740305295436557 3.6083471976495817e-22 5.498101370210933e-14 5.3737927536217555e-14 1.243086165891787e-15
5.7835210386641895 3.7958589475654453e-22 5.827359598784775e-14 5.700217345509447e-14 1.2714225327532624e-15
5.827062130521658 4.0097614372031458e-22 6.202083609479321e-14 6.072055368468582e-14 1.300282410107383e-15
5.8489554468988025 4.1620757598779786e-22 6.461862721491378e-14 6.330278507851245e-14 1.3158421364013194e-15
5.870931020387893 4.32424268145654e-22 6.738860556498526e-14 6.605710805756412e-14 1.3314975074211542e-15
5.892989160043636 4.497039728434969e-22 7.034476766266931e-14 6.899751974488445e-14 1.3472479177848615e-15
5.915130176081913 4.693316221561024e-22 7.369084837625498e-14 7.232728009654704e-14 1.36356827970796e-15
5.95966208400165 5.246119188878907e-22 8.299066069523439e-14 8.159004103708331e-14 1.4006196581510948e-15
6.004529249263818 6.04194003674676e-22 9.629967214365271e-14 9.485742823266024e-14 1.4422439109924874e-15
6.027089341400364 6.596157002392734e-22 1.0552808240465336e-13 1.0406185655283421e-13 1.4662258518191704e-15
6.049734195844842 7.247932656130687e-22 1.1639112774349098e-13 1.1489951091178058e-13 1.4916168317104005e-15
6.095279466722835 9.131941665146611e-22 1.477495559393769e-13 1.461957634557762e-13 1.5537924836006579e-15
6.141167624020661 1.202037923428419e-21 1.9594697093449383e-13 1.9431277248172417e-13 1.6341984527696262e-15
6.164241091010745 1.3865275999525452e-21 2.2687025970675695e-13 2.2518573667855996e-13 1.6845230281970748e-15
6.187401249150058 1.5952700561395161e-21 2.6200641640405077e-13 2.6027017310335196e-13 1.7362433006987915e-15
6.1990139391386085 1.6970090683422998e-21 2.792390867841871e-13 2.7747651748029493e-13 1.7625693038922994e-15
6.204828454712694 1.75047946634962e-21 2.883076942333338e-13 2.8653182322229615e-13 1.7758710110375797e-15
6.210648424152782 1.7893839451214798e-21 2.949917801106478e-13 2.932045431493915e-13 1.7872369612563588e-15
6.233982942956859 1.920762776758879e-21 3.178401620446289e-13 3.1601315726940614e-13 1.827004775222949e-15
6.239830258556775 1.9371078593202284e-21 3.2084554395437767e-13 3.1901291519106767e-13 1.83262876330999e-15
6.245683058788269 1.9378104165132806e-21 3.212629633741592e-13 3.1942469991044296e-13 1.838263463716286e-15
6.257405133728602 1.9325611072267336e-21 3.2099402043026547e-13 3.19145832131172e-13 1.8481882990935334e-15
6.269149208991335 1.9046797311306422e-21 3.1695674606262335e-13 3.151046108595068e-13 1.852135203116471e-15
6.280915325867298 1.8371764057180676e-21 3.062973440327456e-13 3.0444865962148747e-13 1.8486844112580678e-15
6.304513850009849 1.6716946107451027e-21 2.7975507809776524e-13 2.779199958884304e-13 1.8350822093348725e-15
6.32820103803542 1.4681159353383612e-21 2.4660964233522797e-13 2.4479529201489596e-13 1.8143503203320216e-15
6.3519772230701035 1.2818030638478386e-21 2.161223446875391e-13 2.1432646335234422e-13 1.7958813351949173e-15
6.375842739491607 1.1247385277367508e-21 1.9035250734142334e-13 1.8857278024629725e-13 1.779727095126043e-15
6.399797922933955 9.994121951047973e-22 1.6977757992483914e-13 1.6800552663227044e-13 1.772053292568664e-15
6.42384311029221 8.948856133082277e-22 1.5259204200282718e-13 1.508259757658758e-13 1.7660662369513695e-15
6.447978639727206 8.187936324137591e-22 1.4014173172407376e-13 1.3837502344451838e-13 1.7667082795554098e-15
6.472204850670314 7.551861000400917e-22 1.2974053229019672e-13 1.2797186009030155e-13 1.7686721998951306e-15
6.496522083828205 7.137081859732452e-22 1.2307533601366708e-13 1.2129931403660323e-13 1.7760219770639037e-15
6.520930681187647 6.786163767025179e-22 1.1746361238979242e-13 1.156794100597784e-13 1.7842023300140288e-15
