Dust emission spectrum from A.P. Jones, M. Kohler, N. Ysard, M. Bocchio, and L. Verstraete (2017), A&A, 602A, 46J 
inside the DustPedia framework.

lambda    nu*dP/dnu     j_nu    j_nu(carb.) j_nu(sil)
 (um)   (erg s-1 H-1) (Jy cm2 sr-1 H-1)
0.9927057738263894 4.1702555900335077e-22 1.0988860345527082e-14 1.0988860345527082e-14 1.2498270785864234e-30
1.0001793341362166 4.239180945394168e-22 1.1254579267292043e-14 1.1254579267292043e-14 1.5062964903995342e-30
1.0077091589558085 4.30800883125022e-22 1.1523415560117611e-14 1.1523415560117606e-14 1.8131222582041183e-30
1.0114953028030835 4.342377747764842e-22 1.1658989303249911e-14 1.1658989303249911e-14 1.9882939413066837e-30
1.0152956718711033 4.376712153214169e-22 1.1795326118971658e-14 1.1795326118971658e-14 2.179702182877881e-30
1.0229392996569957 4.445230344834407e-22 1.2070175011866591e-14 1.2070175011866588e-14 2.6171221629072354e-30
1.0267826658714554 4.479331065788222e-22 1.220846671664923e-14 1.2208466716649224e-14 2.8664617698850127e-30
1.0306404723013447 4.513382200350954e-22 1.2347491551454954e-14 1.2347491551454948e-14 3.138561831310051e-30
1.03451277320114 4.54738046282998e-22 1.2487243540810275e-14 1.2487243540810275e-14 3.435401133463397e-30
1.0383996230291617 4.581322585713164e-22 1.2627716634388335e-14 1.2627716634388332e-14 3.759121218002458e-30
1.0403485208654093 4.598271578834505e-22 1.2698221684418212e-14 1.2698221684418205e-14 3.931778362524231e-30
1.0423010764483396 4.615205320295548e-22 1.2768904708440192e-14 1.2768904708440189e-14 4.1120389458321734e-30
1.0462171883269815 4.649025437292257e-22 1.291080156722799e-14 1.2910801567227985e-14 4.4966599620617326e-30
1.0471985131304309 4.657470306009548e-22 1.2946385796738556e-14 1.2946385796738551e-14 4.598081617566053e-30
1.048180758391296 4.665911010502342e-22 1.2982013835398296e-14 1.2982013835398294e-14 4.701697367378462e-30
1.0501480137395462 4.682779727437507e-22 1.3053400944459264e-14 1.305340094445926e-14 4.9156931212714386e-30
1.0521189612883777 4.699631190163535e-22 1.3124962100335679e-14 1.3124962100335674e-14 5.139020116330563e-30
1.0531058218030118 4.708037395242843e-22 1.316077154672517e-14 1.3160771546725168e-14 5.254310649925875e-30
1.0540936079674168 4.716396768887268e-22 1.3196505587880548e-14 1.3196505587880543e-14 5.3721052345502194e-30
1.058054026499678 4.749786903381018e-22 1.3339864031535381e-14 1.3339864031535375e-14 5.869123878463975e-30
1.0590464539527713 4.758122352792554e-22 1.3375808702236859e-14 1.3375808702236854e-14 6.000105595840296e-30
1.06003981227728 4.766452871153642e-22 1.3411795191997293e-14 1.3411795191997287e-14 6.133888567642453e-30
1.0620293250338977 4.783098920710908e-22 1.3483893217019954e-14 1.348389321701995e-14 6.410087732049648e-30
1.0660195594769086 4.816329718161901e-22 1.3628586553790827e-14 1.362858655379082e-14 6.998687956644775e-30
1.070024785945596 4.849476216423369e-22 1.3773937389705812e-14 1.377393738970581e-14 7.638908215577772e-30
1.0740450607676866 4.882535360095653e-22 1.3919939012464055e-14 1.3919939012464049e-14 8.335046358390574e-30
1.07808044048254 4.915504118182717e-22 1.4066584651043537e-14 1.4066584651043527e-14 9.091737592535986e-30
1.0861967418109137 4.98110024340741e-22 1.4361612701951347e-14 1.4361612701951337e-14 1.0807158706990509e-29
1.0902777775684922 5.013589246461445e-22 1.4509596775062724e-14 1.4509596775062712e-14 1.1777081108253844e-29
1.0943741465085532 5.045973676668765e-22 1.4658186342813046e-14 1.4658186342813033e-14 1.2829992758428714e-29
1.1026131145906286 5.110417304966815e-22 1.495715353964769e-14 1.4957153539647674e-14 1.5212211184923628e-29
1.1109141095355224 5.174408378910244e-22 1.525845696835208e-14 1.5258456968352068e-14 1.8014022293391728e-29
1.1192775983109025 5.237865218919058e-22 1.5561862141212727e-14 1.5561862141212708e-14 2.13050732813658e-29
1.1277040513999907 5.300493213603905e-22 1.5866489788074478e-14 1.586648978807445e-14 2.5165824183276287e-29
1.1361939428280308 5.362594693419349e-22 1.6173234249500066e-14 1.617323424950003e-14 2.9689086308307444e-29
1.1447477501889525 5.424148942263495e-22 1.6482035229097692e-14 1.648203522909765e-14 3.4981794137720275e-29
1.1533659546722406 5.4851692491033685e-22 1.6792934471870967e-14 1.6792934471870926e-14 4.116704860871539e-29
1.1707974979042381 5.605804904298003e-22 1.742164652316312e-14 1.7421646523163058e-14 5.680241511262097e-29
1.1884924949847024 5.724044868559825e-22 1.8057969120473746e-14 1.8057969120473667e-14 7.799379127520867e-29
1.2064549276569216 5.840812986901489e-22 1.8704833027154094e-14 1.870483302715399e-14 1.0657571119880285e-28
1.2246888378427687 5.9548346330748545e-22 1.9358196688003882e-14 1.9358196688003737e-14 1.4493547501674863e-28
1.2431983285522175 6.0658429954590915e-22 2.0017093405413364e-14 2.0017093405413166e-14 1.9616939000774372e-28
1.2619875648066055 6.173796382190127e-22 2.0681251238792543e-14 2.0681251238792284e-14 2.64272846757347e-28
1.3004222497298317 6.378744075478716e-22 2.201856453987375e-14 2.2018564539873278e-14 4.730162151261307e-28
1.3400274889804893 6.568874281249574e-22 2.336544683024194e-14 2.3365446830241114e-14 8.314647214819773e-28
1.3808389325824078 6.743480426146172e-22 2.471704553839933e-14 2.4717045538397893e-14 1.4360096996209879e-27
1.4228933163050095 6.903409136721354e-22 2.6073863369522922e-14 2.607386336952048e-14 2.4379982414373045e-27
1.466228494730424 7.052502845661421e-22 2.744823090145493e-14 2.7448230901450866e-14 4.0709432724689945e-27
1.5108834753276823 7.187864538086035e-22 2.882705576223844e-14 2.882705576223176e-14 6.688737373335176e-27
1.5568984535646726 7.307149397962346e-22 3.019796706326913e-14 3.0197967063258314e-14 1.0825349827806204e-26
1.6043148490894465 7.410572665872578e-22 3.155809698154855e-14 3.155809698153126e-14 1.72898275155322e-26
1.6531753430134553 7.498445982521662e-22 3.290482758160379e-14 3.2904827581576576e-14 2.7223041730667005e-26
1.7035239163302658 7.5718092019451725e-22 3.4238704995296616e-14 3.4238704995254346e-14 4.2269327137551085e-26
1.755405889504358 7.636681393750893e-22 3.558374523057595e-14 3.558374523051118e-14 6.476280337560478e-26
1.8088679632656115 7.691574181535138e-22 3.693103959756527e-14 3.693103959746731e-14 9.796221641011614e-26
1.8639582606462262 7.735478716980798e-22 3.827302698866197e-14 3.8273026988515594e-14 1.4638002125537175e-25
1.9207263702978936 7.76912359470595e-22 3.9610193364409345e-14 3.9610193364193134e-14 2.1620593069488755e-25
1.979223391128241 7.794207064184353e-22 4.094832931010229e-14 4.0948329309786406e-14 3.1587732995774818e-25
2.039501978296691 7.812762057081463e-22 4.229588939886546e-14 4.2295889398408636e-14 4.568315585107328e-25
2.1016163906111602 7.83048581034976e-22 4.368291251707073e-14 4.368291251641616e-14 6.545787077890538e-25
2.1656225393682647 7.850681542045258e-22 4.512939970406942e-14 4.5129399703139316e-14 9.300924362991917e-25
2.231578038680979 7.873584815506604e-22 4.6639514613308553e-14 4.663951461199677e-14 1.3117815787115933e-24
2.299542257339062 7.901173172519408e-22 4.822835047651627e-14 4.822835047467796e-14 1.8382971683978683e-24
2.369576372248914 7.937820582704986e-22 4.992768414914809e-14 4.9927684146585536e-14 2.5625736352279756e-24
2.4417434235010123 7.988692040029623e-22 5.177798428768237e-14 5.177798428412488e-14 3.557483498956894e-24
2.5161083711144245 8.0626337357511e-22 5.38487600037832e-14 5.384875999885903e-14 4.924176437017332e-24
2.5927381535095444 8.17412228905609e-22 5.6256048353377673e-14 5.625604834657381e-14 6.803871259099688e-24
2.6717017477616296 8.340440704282783e-22 5.914886381712887e-14 5.914886380773485e-14 9.394006223451348e-24
2.753070231689431 8.587610611622104e-22 6.275655101642416e-14 6.275655100345299e-14 1.297117624742785e-23
2.836916847834745 8.974588211284826e-22 6.758192688297334e-14 6.758192686504842e-14 1.7924937576148767e-23
2.9233170693905177 9.631222109812956e-22 7.473546722054436e-14 7.473546719574359e-14 2.48007845480694e-23
2.967498994190263 1.0188860057777116e-21 8.02574969228409e-14 8.025749689367506e-14 2.916584390166125e-23
3.0123486681368425 1.0840110585627519e-21 8.667790065793251e-14 8.667790062360611e-14 3.432641187820073e-23
3.0578761833420214 1.2297344878813458e-21 9.981611959421619e-14 9.981611955375715e-14 4.045902913686794e-23
3.1040917844459814 1.4175125409282586e-21 1.1679678739446758e-13 1.1679678734675515e-13 4.7712453852791343e-23
3.127460860933648 1.6161612407545723e-21 1.3416709101458592e-13 1.3416709096271146e-13 5.187446423034414e-23
3.1510058709225794 1.8808319521069876e-21 1.5731445842117766e-13 1.5731445836474902e-13 5.642868022116707e-23
3.162844764501044 2.1272042385257084e-21 1.785897377628521e-13 1.785897377039218e-13 5.893026081392844e-23
3.1747281389236908 2.413712720367441e-21 2.0340496686381377e-13 2.0340496680226753e-13 6.15462322120529e-23
3.1986289994194426 3.212862541389468e-21 2.7278811735651986e-13 2.7278811728929397e-13 6.722588072100302e-23
3.2227097969389145 5.096665782610993e-21 4.359902604707851e-13 4.3599026039667856e-13 7.410645448081548e-23
3.2348180950136065 6.883102347514763e-21 5.910218325404502e-13 5.910218324621085e-13 7.834165052525711e-23
3.240889293275058 8.218698344124512e-21 7.070280918828554e-13 7.070280918019972e-13 8.085825155397017e-23
3.2469718861334385 9.763779060019228e-21 8.415228341724056e-13 8.415228340887448e-13 8.366096781862319e-23
3.2714166318528037 1.8005504937376018e-20 1.563545757063614e-12 1.5635457569672958e-12 9.631854634464345e-23
3.2744851364798273 1.8520726480415053e-20 1.6097946305316783e-12 1.6097946304339926e-12 9.76855232457198e-23
3.2775565192852394 1.9050746670394867e-20 1.6574163722861779e-12 1.6574163721871048e-12 9.907390020137572e-23
3.283707930232385 1.854105181909315e-20 1.6161003433397456e-12 1.6161003432389009e-12 1.0084542094062352e-22
3.2898708863219004 1.692462136258893e-20 1.477975546251157e-12 1.4779755461493381e-12 1.0181887972233252e-22
3.29141343181113 1.6543426331321355e-20 1.4453643279920069e-12 1.4453643278899434e-12 1.0206338672296069e-22
3.292184975758714 1.6356120537872052e-20 1.4293347886364115e-12 1.4293347885342258e-12 1.0218581213777398e-22
3.295272960557952 1.517382719105388e-20 1.3272598637309525e-12 1.3272598636284479e-12 1.0250430336453458e-22
3.3076538914384823 1.1077986517635591e-20 9.726359654378788e-13 9.726359653341834e-13 1.0369543500713988e-22
3.310756385682612 1.0244375224912165e-20 9.002893975148204e-13 9.002893974108245e-13 1.03995881391138e-22
3.313861789986515 9.475237882141505e-21 8.334776270093757e-13 8.334776269050782e-13 1.0429740845349058e-22
3.3200813396944477 8.39660892589082e-21 7.399835801742791e-13 7.399835800688857e-13 1.0539318664292466e-22
3.345076488085796 6.472437774961195e-21 5.747028749205787e-13 5.747028748077558e-13 1.1282280056174623e-22
3.3482140837626964 6.544592415126222e-21 5.816547199363016e-13 5.816547198221914e-13 1.1411024816267084e-22
3.3513546224236106 6.617544807527656e-21 5.886900678634585e-13 5.886900677480456e-13 1.1541276899167355e-22
3.3576445397418455 7.15069700007688e-21 6.373126313365524e-13 6.373126312180354e-13 1.1851692115056866e-22
3.3702598118196083 9.117186994229327e-21 8.156309122338153e-13 8.15630912107992e-13 1.2582301136880753e-22
3.382922481734668 9.56508327121887e-21 8.589150934134763e-13 8.589150932814507e-13 1.3202516508688675e-22
3.389271646505754 9.797124827067854e-21 8.814028552291747e-13 8.814028550939307e-13 1.3524410632398872e-22
3.395632727569191 1.0047162424009815e-20 9.055940636333516e-13 9.05594063494663e-13 1.3868874152560316e-22
3.421196662673239 1.1247755363957152e-20 1.0214411142054311e-12 1.0214411140517633e-12 1.536680116085734e-22
3.4276182099114902 1.1005818966464538e-20 1.0013461661154905e-12 1.0013461659590165e-12 1.564741014035881e-22
3.4340518103208963 9.945639344860104e-21 9.065859469384427e-13 9.065859467797246e-13 1.587179335191183e-22
3.4469541582030403 8.435743614855237e-21 7.718418319876111e-13 7.718418318252143e-13 1.6239665680624372e-22
3.472904465399547 8.012578911828805e-21 7.38643005033368e-13 7.386430048580633e-13 1.7530435209714466e-22
3.4990501388274233 7.365365943428343e-21 6.840910807004372e-13 6.84091080511628e-13 1.8880940229357366e-22
3.5253949054701885 5.062076764050113e-21 4.737027788153347e-13 4.737027786155614e-13 1.9977330807691007e-22
3.5519380250092896 2.8972241580657006e-21 2.73159878201661e-13 2.731598779913219e-13 2.1033917225263244e-22
3.578680990867387 2.0388134677045923e-21 1.936733716422649e-13 1.936733714169393e-13 2.253255910868159e-22
3.605625307711299 1.691571080495682e-21 1.618975505735803e-13 1.6189755033042886e-13 2.4315144519906436e-22
3.660119384959845 1.438177281665085e-21 1.3972596203531664e-13 1.397259617505882e-13 2.8472849506535744e-22
3.715437065384467 1.2586793727266477e-21 1.2413505969006705e-13 1.241350593568676e-13 3.3319946691331705e-22
3.8285932144167436 1.1673354348941798e-21 1.1863267608906128e-13 1.1863267563203457e-13 4.570266794943099e-22
3.94519561050918 1.149496097825585e-21 1.2037754322892108e-13 1.2037754260392254e-13 6.249985369066629e-22
4.06534921144712 1.161823114386748e-21 1.2537394823664751e-13 1.253739473852708e-13 8.513766998646738e-22
4.189162171576248 1.1916024308424162e-21 1.3250369424678388e-13 1.325036930921153e-13 1.1546686052022842e-21
4.316745939156006 1.2340894035864366e-21 1.4140753295202507e-13 1.4140753139347453e-13 1.5585505892475622e-21
4.448215356677963 1.2876821290153309e-21 1.5204211649899567e-13 1.5204211440610662e-13 2.092889055751142e-21
4.58368876423945 1.3525572298795985e-21 1.6456603453597784e-13 1.6456603173998204e-13 2.7959957900272098e-21
4.723288106065518 1.4302058356049462e-21 1.7931326392251792e-13 1.7931326020602956e-13 3.716488332178589e-21
4.867139040275056 1.5236280855601752e-21 1.9684398820860997e-13 1.9684398329380542e-13 4.9148045132367506e-21
4.940699165968905 1.5800395792344492e-21 2.0721720425382436e-13 2.072171986112677e-13 5.642556682616492e-21
5.015371051989984 1.6384371943245095e-21 2.1812342095355974e-13 2.181234144845438e-13 6.469015923764105e-21
5.091171501069577 1.709787462324532e-21 2.310624043253707e-13 2.310623969134756e-13 7.411895028035342e-21
5.129500256944802 1.7463978869535253e-21 2.377867692020756e-13 2.3778676127271195e-13 7.929363683845758e-21
5.168117569889187 1.784567978801097e-21 2.4481324693929865e-13 2.4481323845871495e-13 8.480583720092076e-21
5.20702561229733 1.8314865382946457e-21 2.531412252400479e-13 2.5314121616695084e-13 9.073097057666075e-21
5.246226572918644 1.879598199229968e-21 2.617468694939764e-13 2.617468597905416e-13 9.703434812171107e-21
5.265937586045735 1.9041133434602453e-21 2.661570270595179e-13 2.6615701702605866e-13 1.0033459245715571e-20
5.285722656980489 1.9289412525072378e-21 2.7064051174093985e-13 2.7064050136718115e-13 1.0373758817875194e-20
5.305582063971359 1.9540869777894176e-21 2.7519868856668477e-13 2.751986778420641e-13 1.0724620700291858e-20
5.3255160863122235 1.9811148778962626e-21 2.8005336374768924e-13 2.8005335265991464e-13 1.1087774657579867e-20
5.365609099470188 2.0485331287871114e-21 2.917638322062355e-13 2.9176382034658035e-13 1.1859655191795766e-20
5.406003951863644 2.118519207778766e-21 3.0400322989971526e-13 3.0400321721914244e-13 1.2680572721099463e-20
5.446702915881641 2.1911975626932795e-21 3.1679962369700137e-13 3.167996101436879e-13 1.3553313409479698e-20
5.487708281020852 2.2697527336690727e-21 3.3062751860793527e-13 3.306275041233349e-13 1.448460041059061e-20
5.529022354014368 2.379130189693084e-21 3.491692473867877e-13 3.4916923187793467e-13 1.5508852905774747e-20
5.570647458961463 2.4949706776281174e-21 3.689270963570287e-13 3.689270797577952e-13 1.659923348599019e-20
5.612585937458331 2.617740560381443e-21 3.8999499992723844e-13 3.8999498216767837e-13 1.7759560001060832e-20
5.654840148729818 2.752734600247999e-21 4.131940961490939e-13 4.131940771477208e-13 1.9001373061661405e-20
5.67608639626678 2.8447794383269655e-21 4.2861466925479313e-13 4.286146495696768e-13 1.9685116287614234e-20
5.686739436050992 2.8922276659048082e-21 4.3658140951292484e-13 4.365813894775086e-13 2.0035416323179022e-20
5.6974124697621304 2.940656809296623e-21 4.447248914116822e-13 4.447248710202361e-13 2.0391446035159224e-20
5.718818669136295 3.040552480582034e-21 4.615601046451421e-13 4.61560083524109e-13 2.1121033147139217e-20
5.740305295436557 3.150698695458074e-21 4.800774389422298e-13 4.80077417056305e-13 2.188592494623921e-20
5.7835210386641895 3.436636179251507e-21 5.275884879636196e-13 5.275884643781192e-13 2.358550044924288e-20
5.827062130521658 3.766131294302055e-21 5.825249590866008e-13 5.825249336550678e-13 2.5431532925911415e-20
5.8489554468988025 3.997416900015097e-21 6.206220342616846e-13 6.206220077456176e-13 2.6516067132512837e-20
5.870931020387893 4.245643702570371e-21 6.616372621011367e-13 6.616372344573054e-13 2.764383117970593e-20
5.892989160043636 4.512176163706528e-21 7.05815387580382e-13 7.058153587639738e-13 2.881640819881589e-20
5.915130176081913 4.815355431811833e-21 7.560701436934019e-13 7.560701136166229e-13 3.0076778994965295e-20
5.95966208400165 5.663350886451028e-21 8.959103194068913e-13 8.959102862608374e-13 3.314605393937219e-20
6.004529249263818 6.885982297464323e-21 1.0975246917376917e-12 1.0975246547058982e-12 3.7031793592741096e-20
6.027089341400364 7.736028070167227e-21 1.2376421716117186e-12 1.2376421321031918e-12 3.950852682184304e-20
6.049734195844842 8.740662982939482e-21 1.403621791311203e-12 1.4036217490280994e-12 4.228310319941635e-20
6.095279466722835 1.1643029487982017e-20 1.8837751047009073e-12 1.883775054890539e-12 4.9810368454568725e-20
6.141167624020661 1.6110258284518495e-20 2.6261703148434133e-12 2.6261702540894497e-12 6.075396365476082e-20
6.164241091010745 1.896309821481506e-20 3.102832584787405e-12 3.1028325168323535e-12 6.795505133248242e-20
6.187401249150058 2.221312466595587e-20 3.6482733242969684e-12 3.648273248386784e-12 7.591018576212857e-20
6.1990139391386085 2.3800030314476064e-20 3.916242319755087e-12 3.916242239747522e-12 8.000756445815022e-20
6.204828454712694 2.4635974237509682e-20 4.057597397826094e-12 4.057597315687109e-12 8.213898627042557e-20
6.210648424152782 2.5246164860119658e-20 4.161997280325426e-12 4.16199719641425e-12 8.391117728655411e-20
6.233982942956859 2.731920083787289e-20 4.520672373655288e-12 4.520672283446021e-12 9.020926678455e-20
6.239830258556775 2.758415532143959e-20 4.56879738319531e-12 4.568797292114126e-12 9.108118392416325e-20
6.245683058788269 2.760703769286307e-20 4.576876387706483e-12 4.576876295745601e-12 9.196088373745631e-20
6.257405133728602 2.754987047000835e-20 4.575971052833314e-12 4.575970959333245e-12 9.350006813413364e-20
6.269149208991335 2.714185875903872e-20 4.516662352074013e-12 4.516662258076209e-12 9.399780348854078e-20
6.280915325867298 2.6118995041166976e-20 4.354605679135638e-12 4.354605585935291e-12 9.320034607962445e-20
6.304513850009849 2.3596686975407666e-20 3.948863007168147e-12 3.948862916769318e-12 9.039882960205292e-20
6.32820103803542 2.0470314104822664e-20 3.438541002360703e-12 3.4385409162730165e-12 8.608768667851743e-20
6.3519772230701035 1.760317530772474e-20 2.9680374690560765e-12 2.9680373870482306e-12 8.200784475410577e-20
6.375842739491607 1.5191138475674204e-20 2.570972032081184e-12 2.570971953657354e-12 7.842383096441279e-20
6.399797922933955 1.3257789882092882e-20 2.2521993351279086e-12 2.2521992591225824e-12 7.600532585549368e-20
6.42384311029221 1.1650402849882606e-20 1.9865765351250835e-12 1.986576461165218e-12 7.39598653938353e-20
6.447978639727206 1.047890335069332e-20 1.793530877623229e-12 1.7935308046189466e-12 7.300428235641395e-20
6.472204850670314 9.502969186406456e-21 1.6326045732518876e-12 1.6326045009307e-12 7.232118767611447e-20
6.496522083828205 8.868508152231074e-21 1.5293289921950005e-12 1.529328919606141e-12 7.258886021194518e-20
