Dust emission spectrum from A.P. Jones, M. Kohler, N. Ysard, M. Bocchio, and L. Verstraete (2017), A&A, 602A, 46J 
inside the DustPedia framework.

lambda    nu*dP/dnu     j_nu    j_nu(carb.) j_nu(sil)
 (um)   (erg s-1 H-1) (Jy cm2 sr-1 H-1)
0.9927057738263894 1.379925845621045e-23 3.6361829814347625e-16 3.636182972876122e-16 8.558639500881372e-25
1.0001793341362166 1.402773864351517e-23 3.724216978183684e-16 3.7242169678776474e-16 1.0306037891888083e-24
1.0077091589558085 1.4256039387145236e-23 3.813322407972039e-16 3.813322395578037e-16 1.2394001707319737e-24
1.0114953028030835 1.4370096426794412e-23 3.858273283868596e-16 3.858273270283641e-16 1.3584957101063497e-24
1.0152956718711033 1.4484077454168988e-23 3.903487620928036e-16 3.903487606042561e-16 1.4885473607660632e-24
1.0229392996569957 1.4711658614280755e-23 3.9946702513527086e-16 3.9946702334981304e-16 1.78545789594291e-24
1.0267826658714554 1.4824984817705356e-23 4.0405661261373493e-16 4.040566106591942e-16 1.9545407922832565e-24
1.0306404723013447 1.4938188389794767e-23 4.0867169397417936e-16 4.0867169183524573e-16 2.1389337345567876e-24
1.03451277320114 1.5051259290005414e-23 4.1331210767707415e-16 4.1331210533711993e-16 2.339954196550719e-24
1.0383996230291617 1.5164187542926636e-23 4.179776902852399e-16 4.179776877262132e-16 2.5590266475191027e-24
1.0403485208654093 1.5220595077680457e-23 4.203198683496182e-16 4.2031986567380955e-16 2.675808761503746e-24
1.0423010764483396 1.5276963240442403e-23 4.226682765200592e-16 4.2266827372236846e-16 2.7976906831841777e-24
1.0462171883269815 1.5389576543852834e-23 4.273836993180119e-16 4.2738369626040234e-16 3.0576097285508764e-24
1.0471985131304309 1.54177033494321e-23 4.2856641598738094e-16 4.2856641286126293e-16 3.126118055301531e-24
1.048180758391296 1.544581924266878e-23 4.297506717467359e-16 4.297506685506402e-16 3.1960958381050317e-24
1.0501480137395462 1.550201768595517e-23 4.3212378988751383e-16 4.3212378654693357e-16 3.340580349174036e-24
1.0521189612883777 1.5558170664317857e-23 4.3450303238076126e-16 4.34503028889451e-16 3.491310269348607e-24
1.0531058218030118 1.558618731462883e-23 4.356937579543489e-16 4.356937543852466e-16 3.56910217273664e-24
1.0540936079674168 1.561405318987485e-23 4.368821162988388e-16 4.3688211265026896e-16 3.648569745631122e-24
1.058054026499678 1.5725389786891198e-23 4.416504695204345e-16 4.4165046553671774e-16 3.983716684235402e-24
1.0590464539527713 1.5753191469699182e-23 4.4284627406594226e-16 4.4284626999394314e-16 4.071999128119625e-24
1.06003981227728 1.5780979870851364e-23 4.440435595992029e-16 4.4404355543705e-16 4.162152849555148e-24
1.0620293250338977 1.5836516240584865e-23 4.464425625675971e-16 4.464425582193714e-16 4.3482257169956074e-24
1.0660195594769086 1.5947423154639446e-23 4.512582183760406e-16 4.512582136315054e-16 4.7445352245239936e-24
1.070024785945596 1.6058101215925356e-23 4.56097258497009e-16 4.560972533217349e-16 5.175274140549637e-24
1.0740450607676866 1.616854119630696e-23 4.60959503155951e-16 4.609594975126752e-16 5.64327583762678e-24
1.07808044048254 1.627873395440823e-23 4.658447713113852e-16 4.658447651597924e-16 6.151592944958155e-24
1.0861967418109137 1.6498150099168545e-23 4.756781241985924e-16 4.756781168960154e-16 7.302576993844712e-24
1.0902777775684922 1.6606919989717168e-23 4.806131912313967e-16 4.806131832788013e-16 7.952595400125531e-24
1.0943741465085532 1.6715399375971612e-23 4.855701883274343e-16 4.855701796697694e-16 8.657665035758931e-24
1.1026131145906286 1.693145221442096e-23 4.955492189926878e-16 4.955492087417668e-16 1.0250921105195666e-23
1.1109141095355224 1.714624076089792e-23 5.05613700467656e-16 5.056136883459332e-16 1.2121722889510852e-23
1.1192775983109025 1.7359503268760153e-23 5.15756296539695e-16 5.157562822241727e-16 1.4315522126235425e-23
1.1277040513999907 1.7570277004014234e-23 5.259484531408065e-16 5.259484362560968e-16 1.6884709808115944e-23
1.1361939428280308 1.7779564678778773e-23 5.362200219175507e-16 5.362200020279619e-16 1.9889588880993714e-23
1.1447477501889525 1.798730563049434e-23 5.465694401721928e-16 5.465694167727126e-16 2.3399480286072372e-23
1.1533659546722406 1.8193549022600657e-23 5.569984492224139e-16 5.569984217284109e-16 2.749400297423267e-23
1.1707974979042381 1.8602203753618902e-23 5.781168340320439e-16 5.781167962164254e-16 3.7815618468657916e-23
1.1884924949847024 1.9004114372490096e-23 5.995335787553334e-16 5.995335270017959e-16 5.175353766555577e-23
1.2064549276569216 1.9402365868040905e-23 6.213484573249182e-16 6.213483868434456e-16 7.048147262747079e-23
1.2246888378427687 1.9792857067700995e-23 6.434335187176424e-16 6.4343342319834095e-16 9.55193015807585e-23
1.2431983285522175 2.0174761061794667e-23 6.657608462799915e-16 6.657607174516587e-16 1.2882833262140046e-22
1.2619875648066055 2.0548040037588547e-23 6.883271688519547e-16 6.883269959253721e-16 1.7292658233656025e-22
1.3004222497298317 2.1263122968982834e-23 7.339743370667898e-16 7.339740298521991e-16 3.072145906441077e-22
1.3400274889804893 2.1936128754812244e-23 7.802667978361839e-16 7.802662619976496e-16 5.358385342601859e-22
1.3808389325824078 2.256546800839728e-23 8.270976782201443e-16 8.270967602265887e-16 9.179935559195013e-22
1.4228933163050095 2.3154700149362938e-23 8.745425283362138e-16 8.745409828240898e-16 1.545512123771354e-21
1.466228494730424 2.3717319045425406e-23 9.230743521398142e-16 9.230717938571655e-16 2.5582826487142966e-21
1.5108834753276823 2.4244742848249808e-23 9.72339629279841e-16 9.72335463860448e-16 4.165419393012166e-21
1.5568984535646726 2.473019421579815e-23 1.0220149469027859e-15 1.022008268743712e-15 6.678159073921336e-21
1.6043148490894465 2.5175357925722427e-23 1.0720985041060878e-15 1.0720879421629012e-15 1.0561943186530044e-20
1.6531753430134553 2.5582302550815412e-23 1.1226076130135971e-15 1.1225911535396368e-15 1.645947396043277e-20
1.7035239163302658 2.595543680331653e-23 1.1736700173381553e-15 1.1736447373744694e-15 2.5279963685864614e-20
1.755405889504358 2.631570096822869e-23 1.2262017367697666e-15 1.2261634505505963e-15 3.828621917045784e-20
1.8088679632656115 2.6659208787801297e-23 1.2800400440076702e-15 1.2799828477224977e-15 5.719628517200544e-20
1.8639582606462262 2.698344940756223e-23 1.3350670659280252e-15 1.3349827470478328e-15 8.431888019241125e-20
1.9207263702978936 2.729165616045729e-23 1.3914410867235047e-15 1.3913183775247387e-15 1.2270919876574793e-19
1.979223391128241 2.7590208785633304e-23 1.4495033885872499e-15 1.449327031820663e-15 1.7635676658672385e-19
2.039501978296691 2.7886381851254474e-23 1.5096828930635516e-15 1.509432498624859e-15 2.5039443869261647e-19
2.1016163906111602 2.819974192695476e-23 1.5731423176464632e-15 1.572790956275077e-15 3.5136137138673543e-19
2.1656225393682647 2.854167775796254e-23 1.6407095063854447e-15 1.6402220569510347e-15 4.874494344099541e-19
2.231578038680979 2.8912859960505303e-23 1.7126655598918145e-15 1.7119967749306773e-15 6.687849611371113e-19
2.299542257339062 2.9319848019142985e-23 1.7896682876202915e-15 1.788760555586604e-15 9.07732033687982e-19
2.369576372248914 2.9776774114976723e-23 1.8729138023506016e-15 1.871694578160697e-15 1.219224189905188e-18
2.4417434235010123 3.030021765932842e-23 1.963881178566805e-15 1.9622601336174018e-15 1.6210449494029866e-18
2.5161083711144245 3.091872154389165e-23 2.0650011777891096e-15 2.0628669910344768e-15 2.1341867546332718e-18
2.5927381535095444 3.167886717175598e-23 2.180207024527308e-15 2.177423903076579e-15 2.7831214507291116e-18
2.6717017477616296 3.2634815910875983e-23 2.314400821791427e-15 2.3108049357164588e-15 3.595886074968196e-18
2.753070231689431 3.3867824058158706e-23 2.474993248348558e-15 2.470388987916639e-15 4.604260431919703e-18
2.836916847834745 3.556407347619055e-23 2.6781046179995263e-15 2.672260564021783e-15 5.844053977743986e-18
2.9233170693905177 3.8133476476746893e-23 2.9590462650940402e-15 2.951692478343287e-15 7.353786750754411e-18
2.967498994190263 4.0149960290711395e-23 3.1626063133768905e-15 3.1543976796621433e-15 8.208633714746519e-18
3.0123486681368425 4.246558756002991e-23 3.3955631271781255e-15 3.3864124729743512e-15 9.150654203775082e-18
3.0578761833420214 4.734295654860998e-23 3.842772776862867e-15 3.832582675019999e-15 1.0190101842867551e-17
3.1040917844459814 5.354135415195972e-23 4.411571663135519e-15 4.400245864533934e-15 1.132579860158393e-17
3.127460860933648 5.996094648290182e-23 4.977712347770549e-15 4.965776664071832e-15 1.1935683698716449e-17
3.1510058709225794 6.846067636544499e-23 5.726111901444808e-15 5.7135391742698646e-15 1.257272717494309e-17
3.162844764501044 7.633127099656897e-23 6.40840283386719e-15 6.395499924929906e-15 1.2902908937284519e-17
3.1747281389236908 8.545676488861037e-23 7.201490999231425e-15 7.18825083689173e-15 1.3240162339693246e-17
3.1986289994194426 1.1082269984209794e-22 9.409402133095466e-15 9.395464111847587e-15 1.3938021247878824e-17
3.2227097969389145 1.7045476873178252e-22 1.4581418948720103e-14 1.4566740063379317e-14 1.467888534077901e-17
3.2348180950136065 2.2692908285039845e-22 1.9485405799812337e-14 1.9470331189369754e-14 1.5074610442589862e-17
3.240889293275058 2.691428939927511e-22 2.3153494484873336e-14 2.3138211131734107e-14 1.5283353139226326e-17
3.2469718861334385 3.179864802886013e-22 2.7406691863472442e-14 2.7391192514133292e-14 1.5499349339151112e-17
3.2714166318528037 5.781298800418439e-22 5.0203119774482316e-14 5.018672667751659e-14 1.6393096965734544e-17
3.2744851364798273 5.944014569970155e-22 5.1664510831464865e-14 5.1648012087586845e-14 1.6498743878017048e-17
3.2775565192852394 6.111374200763374e-22 5.316900084159602e-14 5.3152395892548483e-14 1.660494904752649e-17
3.283707930232385 5.950892838114863e-22 5.18699804773311e-14 5.185318495162342e-14 1.6795525707682245e-17
3.2898708863219004 5.441158547788056e-22 4.751597748994516e-14 4.7499007931077716e-14 1.6969558867441418e-17
3.29141343181113 5.320925346768014e-22 4.648780448561842e-14 4.6470791210178993e-14 1.7013275439425945e-17
3.292184975758714 5.261843251213986e-22 4.598239291461197e-14 4.596535774958973e-14 1.703516502224305e-17
3.295272960557952 4.889256610619633e-22 4.276649510403423e-14 4.274937468007006e-14 1.7120423964157274e-17
3.3076538914384823 3.5975476441438116e-22 3.1586102948402996e-14 3.156863977352456e-14 1.746317487844252e-17
3.310756385682612 3.3343901527129093e-22 2.930306666594198e-14 2.928551703358517e-14 1.754963235679375e-17
3.313861789986515 3.0914842926053216e-22 2.7193860715558982e-14 2.717622431688066e-14 1.7636398678329398e-17
3.3200813396944477 2.751022053088194e-22 2.4244443988638227e-14 2.422662123871002e-14 1.7822749928216225e-17
3.345076488085796 2.1452857076254664e-22 1.9048493111326593e-14 1.902984059474504e-14 1.8652516581550083e-17
3.3482140837626964 2.1683102617003033e-22 1.9270992263617916e-14 1.9252227367865684e-14 1.876489575222649e-17
3.3513546224236106 2.191584762688078e-22 1.9496115556448754e-14 1.947723774110725e-14 1.887781534150598e-17
3.3576445397418455 2.3604801505681925e-22 2.1038002532622236e-14 2.101888873336797e-14 1.9113799254266907e-17
3.3702598118196083 2.9820557523730727e-22 2.6677711614115497e-14 2.6658102755765367e-14 1.9608858350132165e-17
3.382922481734668 3.1246692621444497e-22 2.8058570062391326e-14 2.8038478817293323e-14 2.0091245097991255e-17
3.389271646505754 3.198517348121125e-22 2.8775608894408166e-14 2.8755272906279873e-14 2.0335988128285127e-17
3.395632727569191 3.2782498200697125e-22 2.954827891572399e-14 2.952769069528673e-14 2.0588220437254604e-17
3.421196662673239 3.6614039440209327e-22 3.325026552516641e-14 3.3228631826306884e-14 2.163369885951801e-17
3.4276182099114902 3.5855070717982324e-22 3.262214080447011e-14 3.260027248102393e-14 2.1868323446184355e-17
3.4340518103208963 3.2508301433077565e-22 2.963265428813065e-14 2.961056341538649e-14 2.209087274414119e-17
3.4469541582030403 2.7739340015003066e-22 2.5380552080321416e-14 2.5358032755646888e-14 2.2519324674530056e-17
3.472904465399547 2.6412557897217725e-22 2.434852916957525e-14 2.4325024706303265e-14 2.3504463271987692e-17
3.4990501388274233 2.4379948626358093e-22 2.2643960301941657e-14 2.2619444720956754e-14 2.4515580984911763e-17
3.5253949054701885 1.7121901430985656e-22 1.602246007816539e-14 1.599695742884119e-14 2.5502649324202376e-17
3.5519380250092896 1.0290009214803971e-22 9.701761101172215e-15 9.675262466497431e-15 2.6498634674783946e-17
3.578680990867387 7.590043028810326e-23 7.210023121705969e-15 7.182432181958707e-15 2.7590939747263134e-17
3.605625307711299 6.508124826166275e-23 6.228821716877996e-15 6.2000779416635545e-15 2.8743775214438196e-17
3.660119384959845 5.73995302296456e-23 5.576645302328018e-15 5.545468739134571e-15 3.117656319344656e-17
3.715437065384467 5.2035037459698045e-23 5.131864890295059e-15 5.098107896197393e-15 3.3756994097665e-17
3.8285932144167436 4.9795174347044515e-23 5.060528972674227e-15 5.021170354211854e-15 3.935861846237414e-17
3.94519561050918 4.988626062606604e-23 5.224189543925416e-15 5.17863767817822e-15 4.555186574719643e-17
4.06534921144712 5.093693244035519e-23 5.496675227090441e-15 5.44432372858104e-15 5.23514985094015e-17
4.189162171576248 5.254480129000617e-23 5.8428718372677904e-15 5.783079335325442e-15 5.979250194235001e-17
4.316745939156006 5.455787334909114e-23 6.2514873322657606e-15 6.183613734660656e-15 6.78735976051032e-17
4.448215356677963 5.692328603283791e-23 6.721174963520327e-15 6.644661026228228e-15 7.65139372921002e-17
4.58368876423945 5.964520492766131e-23 7.257049563000557e-15 7.171300044003993e-15 8.574951899656392e-17
4.723288106065518 6.276991720447765e-23 7.869831355652576e-15 7.774168312506153e-15 9.566304314642237e-17
4.867139040275056 6.638888272750462e-23 8.577061930432354e-15 8.471016593816674e-15 1.0604533661568047e-16
4.940699165968905 6.850479982428423e-23 8.984188297633604e-15 8.872738465234853e-15 1.1144983239875293e-16
5.015371051989984 7.067920253775941e-23 9.409447918546304e-15 9.292462033625326e-15 1.169858849209768e-16
5.091171501069577 7.326603182929247e-23 9.901245530739648e-15 9.778480349187701e-15 1.2276518155194827e-16
5.129500256944802 7.45864663327733e-23 1.0155575077113874e-14 1.0029872739289134e-14 1.2570233782473817e-16
5.168117569889187 7.595530842454213e-23 1.0419813589942571e-14 1.0291118161707267e-14 1.2869542823530298e-16
5.20702561229733 7.760608439415841e-23 1.0726422978741723e-14 1.0594483483792112e-14 1.3193949494960857e-16
5.246226572918644 7.929213360769783e-23 1.1041970435923856e-14 1.09067451663406e-14 1.3522526958325442e-16
5.265937586045735 8.014873010246764e-23 1.1203192183876343e-14 1.1066308560585462e-14 1.3688362329088234e-16
5.285722656980489 8.101456460257781e-23 1.1366765677291574e-14 1.1228213485296582e-14 1.3855219199499097e-16
5.305582063971359 8.18897837924432e-23 1.1532731839901913e-14 1.1392500938048928e-14 1.4023090185298728e-16
5.3255160863122235 8.282512663381707e-23 1.1708283843317529e-14 1.1566352873825698e-14 1.4193096949183185e-16
5.365609099470188 8.512530617126408e-23 1.2124034118482731e-14 1.1978585034470663e-14 1.454490840120718e-16
5.406003951863644 8.750260380705024e-23 1.2556447014643402e-14 1.2407434756087574e-14 1.4901225855582735e-16
5.446702915881641 8.996073563660801e-23 1.3006370435239551e-14 1.2853750477395822e-14 1.526199578437344e-16
5.487708281020852 9.260262672428146e-23 1.348912427167054e-14 1.333283940298968e-14 1.562848686808575e-16
5.529022354014368 9.623389710162637e-23 1.412361440733397e-14 1.3963504371121489e-14 1.6011003621248239e-16
5.570647458961463 1.0006158198973221e-22 1.4795936974881366e-14 1.463195247144919e-14 1.6398450343216923e-16
5.612585937458331 1.0409979668276483e-22 1.5508947225008666e-14 1.5341039446739346e-14 1.679077782693215e-16
5.654840148729818 1.0851860786365857e-22 1.628898335769191e-14 1.6117087331140618e-14 1.7189602655129472e-16
5.67608639626678 1.1151401937159062e-22 1.6801493952844512e-14 1.6627513079162707e-14 1.7398087368180044e-16
5.686739436050992 1.130553428632001e-22 1.706569006376672e-14 1.6890661583887477e-14 1.7502847987924638e-16
5.6974124697621304 1.146266696379795e-22 1.7335356185214454e-14 1.7159276652628048e-14 1.7607953258640391e-16
5.718818669136295 1.1786221417545026e-22 1.789164839480601e-14 1.771345644353149e-14 1.7819195127452025e-16
5.740305295436557 1.2142178054383808e-22 1.850124784046236e-14 1.8320915728919947e-14 1.8033211154241425e-16
5.7835210386641895 1.3063093550645175e-22 2.0054313040530386e-14 1.986954952696325e-14 1.8476351356713282e-16
5.827062130521658 1.4119589973429185e-22 2.183942334680524e-14 2.1650133694498177e-14 1.8928965230706385e-16
5.8489554468988025 1.4860207892106742e-22 2.3071330016931678e-14 2.287960489522553e-14 1.917251217061536e-16
5.870931020387893 1.5653056303416987e-22 2.4393580907031133e-14 2.4199401264269736e-14 1.9417964276138985e-16
5.892989160043636 1.6502314680875874e-22 2.5813681048498597e-14 2.5617027838571784e-14 1.966532099268224e-16
5.915130176081913 1.7466910979996892e-22 2.7425202732245913e-14 2.7225987545260955e-14 1.9921518698495857e-16
5.95966208400165 2.0162475802667644e-22 3.1895904913144894e-14 3.169090434353176e-14 2.05000569613131e-16
6.004529249263818 2.404022488204061e-22 3.831659633031916e-14 3.81051119056607e-14 2.114844246584559e-16
6.027089341400364 2.6734136319262743e-22 4.277039099422609e-14 4.2555186618871957e-14 2.1520437535412442e-16
6.049734195844842 2.9912742564289804e-22 4.8035460677376886e-14 4.781632052929579e-14 2.1914014808110632e-16
6.095279466722835 3.90900268508617e-22 6.324541177169698e-14 6.301668959957621e-14 2.2872217212077203e-16
6.141167624020661 5.319467263919225e-22 8.67138612713031e-14 8.647281638731772e-14 2.4104488398539553e-16
6.164241091010745 6.220249615383807e-22 1.0177869129552691e-13 1.0152996770311683e-13 2.487235924100506e-16
6.187401249150058 7.244673924750911e-22 1.1898618956299466e-13 1.1872956511388383e-13 2.566244491108263e-16
6.1990139391386085 7.744794623565412e-22 1.2743888163945065e-13 1.2717823361392564e-13 2.6064802552504813e-16
6.204828454712694 8.008090695593651e-22 1.3189495838375565e-13 1.3163227640337405e-13 2.626819803815548e-16
6.210648424152782 8.200289452383526e-22 1.3518719610602967e-13 1.3492276800901142e-13 2.644280970182334e-16
6.233982942956859 8.85272153722822e-22 1.4649130449500667e-13 1.4622073212990964e-13 2.7057236509703856e-16
6.239830258556775 8.935842302974234e-22 1.4800544897868546e-13 1.4773398176803137e-13 2.7146721065407787e-16
6.245683058788269 8.942658961671352e-22 1.4825728533549403e-13 1.4798492121683543e-13 2.7236411865858473e-16
6.257405133728602 8.923837324706804e-22 1.4822291568487155e-13 1.479489567566715e-13 2.7395892820008853e-16
6.269149208991335 8.794441895088653e-22 1.4634784215661494e-13 1.4607317731811992e-13 2.7466483849506513e-16
6.280915325867298 8.471281926350032e-22 1.4123473099903298e-13 1.4096046145818725e-13 2.7426954084575494e-16
6.304513850009849 7.67488275600644e-22 1.2843777870652941e-13 1.2816529844794885e-13 2.7248025858057545e-16
6.32820103803542 6.688896032410705e-22 1.1235803784053018e-13 1.1208840950557613e-13 2.696283349540594e-16
6.3519772230701035 5.785020567435183e-22 9.754011707122492e-14 9.727300392537776e-14 2.671131458471401e-16
6.375842739491607 5.024172372011438e-22 8.502987892237688e-14 8.47649375906796e-14 2.649413316972862e-16
6.399797922933955 4.415256852091189e-22 7.500525076302496e-14 7.474121177612265e-14 2.6403898690231188e-16
6.42384311029221 3.9086380838970324e-22 6.664841380866373e-14 6.638502477364193e-14 2.6338903502179125e-16
6.447978639727206 3.539847708379738e-22 6.058674228198534e-14 6.032300784391913e-14 2.637344380662069e-16
6.472204850670314 3.232462951156603e-22 5.5533525295173387e-14 5.526924529070082e-14 2.6428000447258754e-16
