Dust emission spectrum from A.P. Jones, M. Kohler, N. Ysard, M. Bocchio, and L. Verstraete (2017), A&A, 602A, 46J 
inside the DustPedia framework.

lambda    nu*dP/dnu     j_nu    j_nu(carb.) j_nu(sil)
 (um)   (erg s-1 H-1) (Jy cm2 sr-1 H-1)
0.9927057738263894 1.0492688593940605e-20 2.764883041784779e-13 2.7648829256349013e-13 1.161498778191971e-20
1.0001793341362166 1.0668950186932883e-20 2.832493991748248e-13 2.832493851984596e-13 1.3976365209061024e-20
1.0077091589558085 1.084593782700554e-20 2.9011604575451385e-13 2.901160289591528e-13 1.6795361002551767e-20
1.0114953028030835 1.0934696281605552e-20 2.935891679325861e-13 2.935891495304188e-13 1.8402167249878503e-20
1.0152956718711033 1.1023627230550336e-20 2.9708894175923395e-13 2.970889216032861e-13 2.0155947807050465e-20
1.0229392996569957 1.1201908484846484e-20 3.0416645570713877e-13 3.0416643155023825e-13 2.4156900539614507e-20
1.0267826658714554 1.1291056515889574e-20 3.0773900309104873e-13 3.0773897665735125e-13 2.6433697545681152e-20
1.0306404723013447 1.1380361578534584e-20 3.113383981363949e-13 3.1133836922098554e-13 2.891540929864104e-20
1.03451277320114 1.14698211338563e-20 3.149647385758039e-13 3.1496470695626486e-13 3.161953894440146e-20
1.0383996230291617 1.1559432729106985e-20 3.186181244094046e-13 3.186180898444062e-13 3.456499839189721e-20
1.0403485208654093 1.1604294799311557e-20 3.2045499124335847e-13 3.2045495510881054e-13 3.61345478829837e-20
1.0423010764483396 1.1649193999850077e-20 3.2229865800356946e-13 3.222986202313552e-13 3.777221420843566e-20
1.0462171883269815 1.1739102672078884e-20 3.260064441910228e-13 3.2600640292778193e-13 4.126324086228561e-20
1.0471985131304309 1.176160261391367e-20 3.269376614837034e-13 3.269376193006113e-13 4.218309219184158e-20
1.048180758391296 1.1784111598368039e-20 3.278705904667931e-13 3.278705473442431e-13 4.3122550026025525e-20
1.0501480137395462 1.1829156564319101e-20 3.297415903722968e-13 3.29741545310415e-13 4.5061881775223235e-20
1.0521189612883777 1.1874237312048075e-20 3.316194577506829e-13 3.3161941066617685e-13 4.708450603168891e-20
1.0531058218030118 1.1896761283537564e-20 3.325601397235435e-13 3.325600915953643e-13 4.8128179257130193e-20
1.0540936079674168 1.1919196670281052e-20 3.3349981600364954e-13 3.3349976680945237e-13 4.9194197220421754e-20
1.058054026499678 1.2009022202833821e-20 3.3727560119267493e-13 3.3727554750416684e-13 5.368850801611357e-20
1.0590464539527713 1.203149943677998e-20 3.3822382640704617e-13 3.3822377153506633e-13 5.487197983598121e-20
1.06003981227728 1.2053984954197798e-20 3.391737667889481e-13 3.3917371070857386e-13 5.608037416629217e-20
1.0620293250338977 1.209898072893563e-20 3.4107880035126405e-13 3.410787417773306e-13 5.85739334645863e-20
1.0660195594769086 1.2189070487019807e-20 3.449095304172917e-13 3.4490946653459957e-13 6.388269205650242e-20
1.070024785945596 1.2279289819286563e-20 3.4876791144600473e-13 3.4876784179650893e-13 6.964949568979186e-20
1.0740450607676866 1.2369637173672898e-20 3.5265406671926634e-13 3.5265399080753716e-13 7.591172922940247e-20
1.07808044048254 1.2460111105798345e-20 3.565681228559699e-13 3.56568040146328e-13 8.2709641944332e-20
1.0861967418109137 1.2641295493988715e-20 3.644764832345486e-13 3.644763851454762e-13 9.808907231616258e-20
1.0902777775684922 1.2731689910854061e-20 3.6846194969404197e-13 3.684618429267e-13 1.0676734199403766e-19
1.0943741465085532 1.2822200847949614e-20 3.7247560411036727e-13 3.724754879351444e-13 1.1617522274629413e-19
1.1026131145906286 1.3003568995875405e-20 3.8058805461088213e-13 3.8058791719511684e-13 1.3741576541097094e-19
1.1109141095355224 1.3185394570989287e-20 3.8881503147719185e-13 3.888148691497494e-13 1.6232744250257213e-19
1.1192775983109025 1.3367532398888848e-20 3.971535877027261e-13 3.971533961969058e-13 1.9150582032205744e-19
1.1277040513999907 1.354932945061716e-20 4.055854591261797e-13 4.055852334898288e-13 2.2563635090527545e-19
1.1361939428280308 1.373155881658989e-20 4.141348172816863e-13 4.1413455177482937e-13 2.655068568595266e-19
1.1447477501889525 1.3914223512429575e-20 4.228031430525255e-13 4.228028310309439e-13 3.1202158160953954e-19
1.1533659546722406 1.40973928175086e-20 4.3159396375480007e-13 4.3159359753729146e-13 3.6621750862994456e-19
1.1707974979042381 1.446580138668102e-20 4.495662669955136e-13 4.495657644202921e-13 5.025752216417322e-19
1.1884924949847024 1.483631494616853e-20 4.680496455069574e-13 4.68048959264157e-13 6.862428001240673e-19
1.2064549276569216 1.5211432033536577e-20 4.871364601627907e-13 4.871355277657781e-13 9.323970126312162e-19
1.2246888378427687 1.5588769528056775e-20 5.067654859330015e-13 5.067642253057719e-13 1.2606272295980818e-18
1.2431983285522175 1.5968039679976108e-20 5.269403478044311e-13 5.269386516757307e-13 1.6961287003931383e-18
1.2619875648066055 1.6349818190755358e-20 5.476933102086538e-13 5.476910390666226e-13 2.2711420312381836e-18
1.3004222497298317 1.7118667552431814e-20 5.909133238137863e-13 5.909093091737617e-13 4.014640024758967e-18
1.3400274889804893 1.789777982666559e-20 6.366229661496598e-13 6.366159998727637e-13 6.966276895952544e-18
1.3808389325824078 1.869015210364848e-20 6.850547661921487e-13 6.8504289453578e-13 1.1871656368753984e-17
1.4228933163050095 1.950249171261578e-20 7.36600271270467e-13 7.365803922941414e-13 1.9878976325432206e-17
1.466228494730424 2.0348815038255038e-20 7.919727024068148e-13 7.919399784020327e-13 3.2724004781806767e-17
1.5108834753276823 2.122759079335752e-20 8.513362212875529e-13 8.512832402757972e-13 5.2981011755819963e-17
1.5568984535646726 2.2138174178719686e-20 9.148955608822178e-13 9.148111079332546e-13 8.445294896284725e-17
1.6043148490894465 2.3085810641986592e-20 9.831146444222796e-13 9.829818547599359e-13 1.3278966234355377e-16
1.6531753430134553 2.4075990917076994e-20 1.0565073507621136e-12 1.056301642785071e-12 2.057079770423184e-16
1.7035239163302658 2.5115051069396342e-20 1.1356689023357364e-12 1.1353548685089483e-12 3.1403382678774533e-16
1.755405889504358 2.6221450990190076e-20 1.221810081502784e-12 1.2213374131479745e-12 4.726683548092111e-16
1.8088679632656115 2.739477686361487e-20 1.3153582936837773e-12 1.3146566057259183e-12 7.016879578589175e-16
1.8639582606462262 2.863396230073809e-20 1.4167299168217706e-12 1.4157021128692943e-12 1.0278039524761537e-15
1.9207263702978936 2.9941792085714105e-20 1.526555936116454e-12 1.5250699416492151e-12 1.485994467238993e-15
1.979223391128241 3.132266867071479e-20 1.6455951722061099e-12 1.643473732653634e-12 2.1214395524759154e-15
2.039501978296691 3.2780080001648707e-20 1.7746126505657626e-12 1.771621051468097e-12 2.9915990976653998e-15
2.1016163906111602 3.432715426382123e-20 1.9149642984916113e-12 1.9107954850574594e-12 4.1688134341521285e-15
2.1656225393682647 3.59692995925718e-20 2.067684047168343e-12 2.0619414965735324e-12 5.742550594811121e-15
2.231578038680979 3.770084723913925e-20 2.2332257249340523e-12 2.2254038085559366e-12 7.821916378116616e-15
2.299542257339062 3.9521277305712793e-20 2.412358230305354e-12 2.401820000937831e-12 1.0538229367523171e-14
2.369576372248914 4.143354975163337e-20 2.6061072603289002e-12 2.592059543699258e-12 1.404771662964153e-14
2.4417434235010123 4.34416346693319e-20 2.8156302259106292e-12 2.7970968279035127e-12 1.8533398007115994e-14
2.5161083711144245 4.5556853345850633e-20 3.042653483650681e-12 3.018445843469891e-12 2.420764018079022e-14
2.5927381535095444 4.780001437666262e-20 3.289698667300215e-12 3.2583852425373707e-12 3.1313424762843714e-14
2.6717017477616296 5.0188308889064245e-20 3.5592620977053468e-12 3.5191387172120743e-12 4.01233804932722e-14
2.753070231689431 5.274843655858175e-20 3.854750872664415e-12 3.803811293596928e-12 5.093957906748785e-14
2.836916847834745 5.555882368525939e-20 4.183782332519593e-12 4.119687900997165e-12 6.409443152242778e-14
2.9233170693905177 5.879479859315246e-20 4.562304443711338e-12 4.482372765580901e-12 7.993167813043735e-14
2.967498994190263 6.073907632713749e-20 4.7844078766206465e-12 4.6956159202106055e-12 8.879195641004063e-14
3.0123486681368425 6.281401311751235e-20 5.022630300602811e-12 4.924123660181956e-12 9.850664042085583e-14
3.0578761833420214 6.60848271019707e-20 5.364028634130549e-12 5.254852610888092e-12 1.0917602324245715e-13
3.1040917844459814 6.987920306379618e-20 5.757738424093489e-12 5.636978517086673e-12 1.2075990700681498e-13
3.127460860933648 7.328651389741424e-20 6.083946410956692e-12 5.956994773126252e-12 1.2695163783043956e-13
3.1510058709225794 7.757720755316292e-20 6.488626683729857e-12 6.3552287317117765e-12 1.333979520180788e-13
3.162844764501044 8.140014640060223e-20 6.833960997377743e-12 6.697230012302822e-12 1.3673098507492347e-13
3.1747281389236908 8.571362152070242e-20 7.223136456165288e-12 7.083006737900514e-12 1.4012971826477382e-13
3.1986289994194426 9.733325888221972e-20 8.264081050654849e-12 8.116935911188688e-12 1.471451394661623e-13
3.2227097969389145 1.2402811337618164e-19 1.0609887279852031e-11 1.0455316161599427e-11 1.5457111825260503e-13
3.2348180950136065 1.4899656748837087e-19 1.279368225448647e-11 1.2635150164077252e-11 1.585320904092237e-13
3.240889293275058 1.6762848925246574e-19 1.4420537892853112e-11 1.4259916481975314e-11 1.6062141087779606e-13
3.2469718861334385 1.8921573903849823e-19 1.6308169614131944e-11 1.614538638008353e-11 1.6278323404841968e-13
3.2714166318528037 3.023498478981641e-19 2.6255182705189753e-11 2.6083472102982865e-11 1.7171060220688465e-13
3.2744851364798273 3.0942737973646935e-19 2.6894978173021002e-11 2.672221729321386e-11 1.7276087980713866e-13
3.2775565192852394 3.1669295686225398e-19 2.755231071897617e-11 2.737849447600499e-11 1.7381624297117978e-13
3.283707930232385 3.0976541160704527e-19 2.7000193567087966e-11 2.682449362022993e-11 1.7569994685803666e-13
3.2898708863219004 2.8766969404048225e-19 2.5121316694812457e-11 2.4943905805324154e-11 1.7741088948831044e-13
3.29141343181113 2.824479060132456e-19 2.4676878881774995e-11 2.4499038450422316e-11 1.7784043135268705e-13
3.292184975758714 2.7988044844372305e-19 2.4458297473015506e-11 2.4280241999552004e-11 1.780554734634986e-13
3.295272960557952 2.638699471387589e-19 2.308079469157038e-11 2.2901903374698148e-11 1.7889131687223484e-13
3.3076538914384823 2.079806275220089e-19 1.826048787116778e-11 1.8078241066732052e-11 1.8224680443572756e-13
3.310756385682612 1.964864607071334e-19 1.7267492984801447e-11 1.7084400743697995e-11 1.8309224110345215e-13
3.313861789986515 1.8583476268411398e-19 1.634672595500043e-11 1.6162785648471476e-11 1.8394030652895336e-13
3.3200813396944477 1.7097485862281313e-19 1.506781953526289e-11 1.4882053569892426e-11 1.8576596537046379e-13
3.345076488085796 1.451516968389149e-19 1.2888358354812426e-11 1.2694452352538992e-11 1.9390600227343182e-13
3.3482140837626964 1.462346594781192e-19 1.2996696281213012e-11 1.2801687405532076e-11 1.9500887568093292e-13
3.3513546224236106 1.4732719765859896e-19 1.3106077935296444e-11 1.2909961397616617e-11 1.96116537679829e-13
3.3576445397418455 1.5486596132885042e-19 1.3802575233979751e-11 1.3604142240306917e-11 1.9843299367283477e-13
3.3702598118196083 1.8207786007469827e-19 1.6288832422139044e-11 1.6085540866414875e-11 2.0329155572417183e-13
3.382922481734668 1.88657901279206e-19 1.6940899969788854e-11 1.673289137994138e-11 2.0800858984747676e-13
3.389271646505754 1.9204781946684485e-19 1.7277670684662986e-11 1.7067272252848716e-11 2.1039843181427104e-13
3.395632727569191 1.9577644302418667e-19 1.764617482228367e-11 1.743331351241322e-11 2.1286130987045035e-13
3.421196662673239 2.138320182531928e-19 1.9418702479718103e-11 1.9195651846923652e-11 2.2305063279444615e-13
3.4276182099114902 2.1066356846940902e-19 1.916687502037067e-11 1.894155638428352e-11 2.2531863608714811e-13
3.4340518103208963 1.9610572630013561e-19 1.787584381588696e-11 1.764838292004671e-11 2.2746089584024334e-13
3.4469541582030403 1.7523568585643782e-19 1.6033468888606037e-11 1.5801902029062334e-11 2.315668595437046e-13
3.472904465399547 1.6961680572695115e-19 1.5636197591933683e-11 1.539516354789474e-11 2.410340440389394e-13
3.4990501388274233 1.610300619769261e-19 1.495638233988115e-11 1.4705673485323063e-11 2.5070885455809005e-13
3.5253949054701885 1.300908303101434e-19 1.2173736331687724e-11 1.1913649480453306e-11 2.6008685123442025e-13
3.5519380250092896 1.0064594677088616e-19 9.489232817864236e-12 9.219737193611114e-12 2.69495624253122e-13
3.578680990867387 8.933065145462225e-20 8.48580251811612e-12 8.205996840352724e-12 2.798056777633925e-13
3.605625307711299 8.515156909345893e-20 8.149719880342428e-12 7.859066101729785e-12 2.9065377861264573e-13
3.660119384959845 8.290444761475532e-20 8.054572859450718e-12 7.741175462648306e-12 3.133973968024122e-13
3.715437065384467 8.158270372385707e-20 8.045951984181305e-12 7.708647577881544e-12 3.3730440629975953e-13
3.8285932144167436 8.265341050735955e-20 8.399809500569706e-12 8.011366201508595e-12 3.8844329906111037e-13
3.94519561050918 8.465484810054483e-20 8.865225950777706e-12 8.421383443454616e-12 4.438425073230909e-13
4.06534921144712 8.6975131176392e-20 9.385607377712003e-12 8.882258873089628e-12 5.033485046223731e-13
4.189162171576248 8.942775999522677e-20 9.94417958614365e-12 9.377197953347552e-12 5.669816327960979e-13
4.316745939156006 9.192719796493281e-20 1.0533433183719169e-11 9.899034187993342e-12 6.343989957258275e-13
4.448215356677963 9.442632979732451e-20 1.114931916201694e-11 1.044477617734967e-11 7.04542984667271e-13
4.58368876423945 9.6910028243755e-20 1.1791071536591491e-11 1.1013670880477381e-11 7.77400656114113e-13
4.723288106065518 9.938258241161605e-20 1.2460175161946363e-11 1.1606840186679743e-11 8.533349752666175e-13
4.867139040275056 1.0184499605227446e-19 1.3157787909015323e-11 1.2227654760605838e-11 9.301331484094872e-13
4.940699165968905 1.0311978130585337e-19 1.3523833874982992e-11 1.255476274936113e-11 9.6907112562186e-13
5.015371051989984 1.0435176069613047e-19 1.3892240181321857e-11 1.2884011265031257e-11 1.0082289162906028e-12
5.091171501069577 1.0569890684545308e-19 1.428425701348258e-11 1.3235770753888409e-11 1.0484862595941682e-12
5.129500256944802 1.0635406437878825e-19 1.44810008927906e-11 1.3412356043975461e-11 1.068644848815139e-12
5.168117569889187 1.0701145637852135e-19 1.468020406447563e-11 1.3591168204255166e-11 1.0890358602204663e-12
5.20702561229733 1.0778332965180264e-19 1.4897409048889142e-11 1.378600374564053e-11 1.1114053032486122e-12
5.246226572918644 1.085462567654064e-19 1.5115806620411814e-11 1.3981957355111649e-11 1.1338492653001684e-12
5.265937586045735 1.0892437255155272e-19 1.5225452451250005e-11 1.4080356782468463e-11 1.1450956687815425e-12
5.285722656980489 1.093002628307489e-19 1.5335396569223463e-11 1.4179040112854826e-11 1.1563564563686381e-12
5.305582063971359 1.0967393401254825e-19 1.5445639397457252e-11 1.4278009203758726e-11 1.167630193698526e-12
5.3255160863122235 1.100678322352913e-19 1.555935347406126e-11 1.4380339480944363e-11 1.179013993116893e-12
5.365609099470188 1.1102262417725383e-19 1.5812478615235776e-11 1.460990409231804e-11 1.202574522917738e-12
5.406003951863644 1.1197767172643577e-19 1.606856985600737e-11 1.484236508669217e-11 1.2262047693152015e-12
5.446702915881641 1.1293364578273143e-19 1.6327754783883814e-11 1.507786156280987e-11 1.2498932210739424e-12
5.487708281020852 1.13933604983268e-19 1.6596338686100586e-11 1.5322599338417844e-11 1.2737393476827412e-12
5.529022354014368 1.1531215550853875e-19 1.6923604571071754e-11 1.562500937296763e-11 1.2985951981041214e-12
5.570647458961463 1.1672095397002617e-19 1.7259330146966405e-11 1.5935812076232992e-11 1.323518070733412e-12
5.612585937458331 1.1816332498863752e-19 1.7604153221979704e-11 1.6255656975600658e-11 1.3484962463790454e-12
5.654840148729818 1.1970622719170414e-19 1.7968280103515297e-11 1.659462643615415e-11 1.3736536673611452e-12
5.67608639626678 1.207735555301711e-19 1.819660141692153e-11 1.6809765941466424e-11 1.3868354754551038e-12
5.686739436050992 1.2131684420967953e-19 1.8312762673249746e-11 1.6919329130604298e-11 1.3934335426454444e-12
5.6974124697621304 1.2186678489110135e-19 1.8430301865231713e-11 1.703026572803339e-11 1.400036137198318e-12
5.718818669136295 1.2298735675237876e-19 1.8669652181695286e-11 1.7256398020793083e-11 1.4132541609021995e-12
5.740305295436557 1.2421557441200696e-19 1.8926943070252662e-11 1.7500347586433793e-11 1.4265954838188716e-12
5.7835210386641895 1.2741993716626184e-19 1.9561364217672023e-11 1.8107207403147697e-11 1.4541568145243205e-12
5.827062130521658 1.3101934821443557e-19 2.0265369020362657e-11 1.878330474344968e-11 1.4820642769129718e-12
5.8489554468988025 1.3359349797718247e-19 2.074116124300673e-11 1.9243963970436426e-11 1.4971972725703116e-12
5.870931020387893 1.3630956531014658e-19 2.1242358970301893e-11 1.9729988579931903e-11 1.5123703903699966e-12
5.892989160043636 1.3917891604982905e-19 2.1771007383282812e-11 2.024342525302902e-11 1.5275821302537965e-12
5.915130176081913 1.4242703641852503e-19 2.2362799883758927e-11 2.0819429157140576e-11 1.5433707266183556e-12
5.95966208400165 1.5159744805996515e-19 2.398186530126583e-11 2.2402152921215115e-11 1.5797123800507106e-12
6.004529249263818 1.6473178946723208e-19 2.625583375679002e-11 2.4635020579707485e-11 1.6208131770825393e-12
6.027089341400364 1.7386868637873413e-19 2.781624066423555e-11 2.617149724569243e-11 1.6447434185431177e-12
6.049734195844842 1.8455493676189468e-19 2.963680574787927e-11 2.7966674471982812e-11 1.6701312758964548e-12
6.095279466722835 2.1538610738528414e-19 3.484823150277512e-11 3.3115077688216356e-11 1.7331538145587592e-12
6.141167624020661 2.623508791268896e-19 4.2766421162731985e-11 4.095070637303043e-11 1.8157147897015615e-12
6.164241091010745 2.922601972563963e-19 4.782100757011687e-11 4.595310705562845e-11 1.8679005144884194e-12
6.187401249150058 3.2583181615422867e-19 5.351446682800821e-11 5.1593051375731364e-11 1.921415452276856e-12
6.1990139391386085 3.4211911367795263e-19 5.6294943060125856e-11 5.434631095760807e-11 1.9486321025177814e-12
6.204828454712694 3.5065682834988535e-19 5.775392604836041e-11 5.5791554754754366e-11 1.962371293606047e-12
6.210648424152782 3.5681515072367664e-19 5.882333792554545e-11 5.6849342579428423e-11 1.97399534611704e-12
6.233982942956859 3.7738213800000033e-19 6.244769075391452e-11 6.043351457668483e-11 2.0141761772296888e-12
6.239830258556775 3.7980611602086257e-19 6.290775152534668e-11 6.088826083154946e-11 2.019490693797223e-12
6.245683058788269 3.796979638754233e-19 6.294882720325027e-11 6.09240162058967e-11 2.024810997353575e-12
6.257405133728602 3.783987164430845e-19 6.285116929162502e-11 6.081719855352577e-11 2.0339707380992355e-12
6.269149208991335 3.7342915816162143e-19 6.214214858345328e-11 6.010555064142786e-11 2.0365979420254474e-12
6.280915325867298 3.620624161851589e-19 6.036369512825718e-11 5.833253795766458e-11 2.0311571705925967e-12
6.304513850009849 3.344887727440461e-19 5.5976092846365267e-11 5.3963101940532294e-11 2.0129909058329606e-12
6.32820103803542 3.0099926178523204e-19 5.0560939027554294e-11 4.857386354006459e-11 1.9870754874897215e-12
6.3519772230701035 2.704804169514405e-19 4.560518191314595e-11 4.364154055789899e-11 1.9636413552469515e-12
6.375842739491607 2.447287872352148e-19 4.141828266751807e-11 3.9475522266130423e-11 1.9427604013876475e-12
6.399797922933955 2.2430443692776445e-19 3.810426233993106e-11 3.6173217978141965e-11 1.9310443617890935e-12
6.42384311029221 2.0723915007641316e-19 3.533752763795773e-11 3.34163653261489e-11 1.921162311808822e-12
6.447978639727206 1.948316408139819e-19 3.3346673028982055e-11 3.142826689687999e-11 1.918406132102068e-12
6.472204850670314 1.8443652999524765e-19 3.1686088467557753e-11 2.9769030479878945e-11 1.917057987678807e-12
