Dust emission spectrum from A.P. Jones, M. Kohler, N. Ysard, M. Bocchio, and L. Verstraete (2017), A&A, 602A, 46J 
inside the DustPedia framework.

lambda    nu*dP/dnu     j_nu    j_nu(carb.) j_nu(sil)
 (um)   (erg s-1 H-1) (Jy cm2 sr-1 H-1)
0.9927057738263894 1.3432472402543e-19 3.5395327729901974e-12 3.539532669595054e-12 1.0339514214287335e-19
1.0001793341362166 1.3657501546518966e-19 3.625922925405326e-12 3.625922801020071e-12 1.2438525413435918e-19
1.0077091589558085 1.3883518629569104e-19 3.7136774986306204e-12 3.713677349195238e-12 1.4943538290676267e-19
1.0114953028030835 1.3996889099759332e-19 3.758069651514499e-12 3.758069487804043e-12 1.6371045532048928e-19
1.0152956718711033 1.4110496487527672e-19 3.80280680895965e-12 3.8028066296708624e-12 1.7928878725975194e-19
1.0229392996569957 1.4338298327525235e-19 3.893291387851144e-12 3.893291173031735e-12 2.1481940992294275e-19
1.0267826658714554 1.4452234693573347e-19 3.938972664585703e-12 3.938972429551917e-12 2.350337850636081e-19
1.0306404723013447 1.4566390244975455e-19 3.985002211225204e-12 3.985001954161359e-12 2.570638450487403e-19
1.03451277320114 1.4680762249818255e-19 4.031381475042162e-12 4.031381193977857e-12 2.8106430421821806e-19
1.0383996230291617 1.4795348090547537e-19 4.078111935998699e-12 4.078111628796407e-12 3.072022930949457e-19
1.0403485208654093 1.4852720413307935e-19 4.101609337147328e-12 4.101609016018615e-12 3.2112871208805493e-19
1.0423010764483396 1.4910145266623533e-19 4.1251951080331256e-12 4.125194772374836e-12 3.356582884218804e-19
1.0462171883269815 1.5025151397151322e-19 4.1726325403623365e-12 4.172632173735228e-12 3.666271074482639e-19
1.0471985131304309 1.5053935311508214e-19 4.184547436630108e-12 4.184547061843886e-12 3.74786221756548e-19
1.048180758391296 1.5082732109661733e-19 4.196484598238277e-12 4.196484215119389e-12 3.831188874926969e-19
1.0501480137395462 1.5140364223484603e-19 4.2204258187997074e-12 4.220425418480737e-12 4.0031897048902743e-19
1.0521189612883777 1.5198047475813006e-19 4.244456406210183e-12 4.244455987953957e-12 4.182562269161179e-19
1.0531058218030118 1.5226870417208046e-19 4.25649471550398e-12 4.256494287992733e-12 4.275112469526816e-19
1.0540936079674168 1.5255582274470815e-19 4.268520792387081e-12 4.268520355423064e-12 4.369640186552162e-19
1.058054026499678 1.5370551054020016e-19 4.316847583297819e-12 4.316847106485498e-12 4.768123217307062e-19
1.0590464539527713 1.5399323442666867e-19 4.328985033184241e-12 4.328984545879936e-12 4.873043042370789e-19
1.06003981227728 1.542810785308834e-19 4.341144837032337e-12 4.341144339015572e-12 4.98016764226457e-19
1.0620293250338977 1.5485712631984603e-19 4.365531614138193e-12 4.3655310940174e-12 5.201207918488601e-19
1.0660195594769086 1.5601065300724834e-19 4.414574608139898e-12 4.4145740409661826e-12 5.6717371641871e-19
1.070024785945596 1.5716607488655531e-19 4.46397833222044e-12 4.463977713943125e-12 6.182773150851437e-19
1.0740450607676866 1.5832337762638964e-19 4.513744598387269e-12 4.513743924625956e-12 6.737613131731573e-19
1.07808044048254 1.5948254830338915e-19 4.563875265154183e-12 4.5638745311735646e-12 7.339806187219887e-19
1.0861967418109137 1.6180469319848765e-19 4.6651868533469234e-12 4.665185983165297e-12 8.70181626779291e-19
1.0902777775684922 1.629636574509994e-19 4.716255844597401e-12 4.716254897581438e-12 9.47015963151056e-19
1.0943741465085532 1.6412438445568793e-19 4.767693937593416e-12 4.767692907298784e-12 1.0302946324156039e-18
1.1026131145906286 1.6645110741885412e-19 4.871685856433907e-12 4.8716846381709295e-12 1.2182629773951956e-18
1.1109141095355224 1.6878483911602114e-19 4.97718002904214e-12 4.977178590405871e-12 1.4386362693493486e-18
1.1192775983109025 1.7112377715255117e-19 5.0841411869723065e-12 5.084139490316666e-12 1.6966556385343618e-18
1.1277040513999907 1.734596551101215e-19 5.192339157012888e-12 5.192337158662571e-12 1.9983503173401626e-18
1.1361939428280308 1.7580236157609727e-19 5.3020840431492e-12 5.302081692502399e-12 2.3506468010487037e-18
1.1447477501889525 1.7815198130455738e-19 5.4133971305919715e-12 5.41339436910071e-12 2.7614912614906207e-18
1.1533659546722406 1.8050942822092664e-19 5.526325373030967e-12 5.526322133039048e-12 3.2399919187068177e-18
1.1707974979042381 1.8525494740296543e-19 5.757328814363728e-12 5.757324371194958e-12 4.443168768109617e-18
1.1884924949847024 1.90033464250065e-19 5.995093518803468e-12 5.995087456318537e-12 6.062484931749414e-18
1.2064549276569216 1.9487696436691542e-19 6.2408111464899574e-12 6.240802915549977e-12 8.230939980928813e-18
1.2246888378427687 1.9975563845802998e-19 6.4937301824141666e-12 6.493719062386259e-12 1.1120027907988005e-17
1.2431983285522175 2.0466603007014496e-19 6.753915397902853e-12 6.7539004478130835e-12 1.495008976857842e-17
1.2619875648066055 2.0961591885854145e-19 7.021805082638609e-12 7.021785079847921e-12 2.000279068827106e-17
1.3004222497298317 2.1960684242642342e-19 7.580532117525341e-12 7.580496815247997e-12 3.530227734314906e-17
1.3400274889804893 2.2976148180793214e-19 8.172602270901754e-12 8.172541113237678e-12 6.115766407464156e-17
1.3808389325824078 2.401188808466743e-19 8.801136709028069e-12 8.801032659324542e-12 1.0404970352811666e-16
1.4228933163050095 2.507637916802731e-19 9.471234737508591e-12 9.47106080166583e-12 1.7393584276482581e-16
1.466228494730424 2.6187205198636937e-19 1.0192019353783833e-11 1.0191733519806835e-11 2.858339769991918e-16
1.5108834753276823 2.73420460233846e-19 1.0965575118916682e-11 1.0965113155830682e-11 4.619630860057863e-16
1.5568984535646726 2.853943190388158e-19 1.1794378049505279e-11 1.1793642976008116e-11 7.350734971645361e-16
1.6043148490894465 2.9785051510092377e-19 1.268403383296743e-11 1.2682880106966926e-11 1.1537260005030312e-15
1.6531753430134553 3.1084575888808452e-19 1.364059449721542e-11 1.3638810469424428e-11 1.7840277909925767e-15
1.7035239163302658 3.2444278104579836e-19 1.46708671227835e-11 1.4668148630239122e-11 2.7184925443741395e-15
1.755405889504358 3.3885361865253636e-19 1.5789163138922376e-11 1.5785079017186985e-11 4.084121735388208e-15
1.8088679632656115 3.5404587326085353e-19 1.6999487824144602e-11 1.699343628608153e-11 6.0515380630744024e-15
1.8639582606462262 3.6997253954152586e-19 1.830522648824938e-11 1.8296379391222342e-11 8.84709702703636e-15
1.9207263702978936 3.86629999128842e-19 1.971199047008401e-11 1.969922415881138e-11 1.2766311272628649e-14
1.979223391128241 4.0402909092538904e-19 2.1226426408528338e-11 2.120823671103989e-11 1.818969748846201e-14
2.039501978296691 4.221622655910695e-19 2.2854565854376653e-11 2.2828966244190736e-11 2.559961018591331e-14
2.1016163906111602 4.411385138255984e-19 2.4609220390750556e-11 2.4573619091796757e-11 3.560129895378802e-14
2.1656225393682647 4.6096231417742855e-19 2.6498275867659793e-11 2.6449335236344572e-11 4.894063131521927e-14
2.231578038680979 4.814915812108727e-19 2.8521358649547532e-11 2.8454834880348843e-11 6.652376919868647e-14
2.299542257339062 5.026462167612151e-19 3.068126388112689e-11 3.059182682840935e-11 8.943705271753337e-14
2.369576372248914 5.243846108497392e-19 3.2982994450925047e-11 3.286402691293048e-11 1.189675379945681e-13
2.4417434235010123 5.466754801499108e-19 3.543227637243899e-11 3.5275660075230735e-11 1.5661629720825925e-13
2.5161083711144245 5.695762907280561e-19 3.804089084099129e-11 3.7836773803181396e-11 2.041170378099053e-13
2.5927381535095444 5.932602205136718e-19 4.082943033044168e-11 4.056598688849508e-11 2.634434419465956e-13
2.6717017477616296 6.178496615195831e-19 4.3816755953813354e-11 4.347995835506666e-11 3.3679759874671e-13
2.753070231689431 6.435823123354924e-19 4.703171585666659e-11 4.6605111314761484e-11 4.2660454190510523e-13
2.836916847834745 6.713237988594597e-19 5.0553133827657484e-11 5.0017617721631713e-11 5.35516106025787e-13
2.9233170693905177 7.031050717226133e-19 5.4558897553390925e-11 5.38926545329941e-11 6.662430203968348e-13
2.967498994190263 7.225407107783329e-19 5.691442275493449e-11 5.6175285500798736e-11 7.391372541357719e-13
3.0123486681368425 7.432277542867706e-19 5.942874931340723e-11 5.860978813878679e-11 8.189611746204579e-13
3.0578761833420214 7.77896775725237e-19 6.314097747353522e-11 6.223444608666613e-11 9.065313868690878e-13
3.1040917844459814 8.184332234424245e-19 6.743529135366679e-11 6.643383829076448e-11 1.0014530629023098e-12
3.127460860933648 8.566119920166708e-19 7.111242133453651e-11 7.006029233545288e-11 1.0521289990836437e-12
3.1510058709225794 9.05189888323839e-19 7.571088788154045e-11 7.460604344407784e-11 1.1048444374625918e-12
3.162844764501044 9.49493519104829e-19 7.971486494497675e-11 7.858278113789447e-11 1.132083807082255e-12
3.1747281389236908 9.995522896796458e-19 8.423284952071138e-11 8.307300123104841e-11 1.1598482896629646e-12
3.1986289994194426 1.1350735715668964e-18 9.63734298184344e-11 9.515630805386427e-11 1.2171217645701501e-12
3.2227097969389145 1.4498304707766124e-18 1.2402460580190302e-10 1.2274690320541218e-10 1.27770259649085e-12
3.2348180950136065 1.74527909524514e-18 1.4985946700890734e-10 1.4854946181077417e-10 1.310005198133136e-12
3.240889293275058 1.9660986342652287e-18 1.6913711972794282e-10 1.6781007546405449e-10 1.3270442638883308e-12
3.2469718861334385 2.22207856908859e-18 1.9151701853539397e-10 1.9017234390665842e-10 1.3446746287355497e-12
3.2714166318528037 3.56272154103116e-18 3.093763917453463e-10 3.0795894802065023e-10 1.4174437246961194e-12
3.2744851364798273 3.646298074353625e-18 3.1693092965978094e-10 3.15504935532063e-10 1.4259941277179497e-12
3.2775565192852394 3.7320894480721024e-18 3.246920585891649e-10 3.232574736096076e-10 1.434584979557288e-12
3.283707930232385 3.6487463081788306e-18 3.180369818790491e-10 3.1658708504433304e-10 1.4498968347160036e-12
3.2898708863219004 3.3852230584907607e-18 2.956212013176496e-10 2.9415741700646767e-10 1.463784311181992e-12
3.29141343181113 3.3229292584704477e-18 2.903173332081145e-10 2.888500628605571e-10 1.467270347557384e-12
3.292184975758714 3.292298045694808e-18 2.877085749261352e-10 2.862395594338263e-10 1.4690154923088367e-12
3.295272960557952 3.1017237862405367e-18 2.713088423917092e-10 2.6983304753351676e-10 1.4757948581924183e-12
3.3076538914384823 2.4360139559217268e-18 2.138795513125226e-10 2.1237655047527656e-10 1.503000837246022e-12
3.310756385682612 2.298955954186179e-18 2.02035324308919e-10 2.0052547072963246e-10 1.509853579286554e-12
3.313861789986515 2.171884332431529e-18 1.9104712958665525e-10 1.8953040275506944e-10 1.5167268315857874e-12
3.3200813396944477 1.9943805160086466e-18 1.7576248310377652e-10 1.7423095044232904e-10 1.5315326614475057e-12
3.345076488085796 1.6842253192578755e-18 1.495463018178392e-10 1.479487276976934e-10 1.5975741201457938e-12
3.3482140837626964 1.6966423951879846e-18 1.5079014774460787e-10 1.4918362456132512e-10 1.6065231832828015e-12
3.3513546224236106 1.7091695050760657e-18 1.5204598400132219e-10 1.5043047394565293e-10 1.6155100556692325e-12
3.3576445397418455 1.7977761093188412e-18 1.6022849559583654e-10 1.585941875429499e-10 1.6343080528866776e-12
3.3702598118196083 2.1187474218041393e-18 1.895448556153291e-10 1.8787112175313493e-10 1.6737338621941772e-12
3.382922481734668 2.1949863583913234e-18 1.971030318922405e-10 1.953910566673994e-10 1.7119752248410751e-12
3.389271646505754 2.2342633775176643e-18 2.010065355947322e-10 1.9927519259106276e-10 1.7313430036694759e-12
3.395632727569191 2.2775940886383126e-18 2.0528937415287627e-10 2.0353807133463398e-10 1.751302818242286e-12
3.421196662673239 2.488237978568245e-18 2.259640693627998e-10 2.2413022732335135e-10 1.8338420394484968e-12
3.4276182099114902 2.449726763575463e-18 2.2288432239448306e-10 2.210321478094878e-10 1.8521745849952704e-12
3.4340518103208963 2.2761578353498262e-18 2.074811517882367e-10 2.0561168035014784e-10 1.869471438088854e-12
3.4469541582030403 2.0267348752998032e-18 1.8543934364598724e-10 1.8353675915805994e-10 1.9025844879272932e-12
3.472904465399547 1.956106392933723e-18 1.803245022783519e-10 1.7834550630168865e-10 1.978995976663219e-12
3.4990501388274233 1.850420521335741e-18 1.7186602592642098e-10 1.6980902722655641e-10 2.056998699864563e-12
3.5253949054701885 1.4805625109322059e-18 1.3854917819880224e-10 1.3641670771256414e-10 2.132470486238089e-12
3.5519380250092896 1.1283804505693372e-18 1.0638744178097725e-10 1.0417936187293618e-10 2.208079908041079e-12
3.578680990867387 9.907983244541631e-19 9.411908208090569e-11 9.182816091191356e-11 2.290921168992133e-12
3.605625307711299 9.376571445859288e-19 8.974165894453336e-11 8.736363693679175e-11 2.3780220077415724e-12
3.660119384959845 9.035295837966446e-19 8.778232136805164e-11 8.522198209107974e-11 2.5603392769718935e-12
3.715437065384467 8.801093619669446e-19 8.679925209617327e-11 8.404769364643727e-11 2.751558449736025e-12
3.8285932144167436 8.76556259486757e-19 8.908169125779878e-11 8.592257339257231e-11 3.1591178652264515e-12
3.94519561050918 8.831857916478486e-19 9.248899236314699e-11 8.889054562401102e-11 3.5984467391359924e-12
4.06534921144712 8.928575589576073e-19 9.634950104993997e-11 9.228165483947429e-11 4.06784621046565e-12
4.189162171576248 9.034748325178097e-19 1.004645088571792e-10 9.589748983127669e-11 4.567019025902512e-12
4.316745939156006 9.141526796825098e-19 1.047477393450713e-10 9.965499062123518e-11 5.092748723836091e-12
4.448215356677963 9.244903811210509e-19 1.0915851906408975e-10 1.0352233046783178e-10 5.636188596258001e-12
4.58368876423945 9.344280026108022e-19 1.1369212891843605e-10 1.0749531715399449e-10 6.1968117644415265e-12
4.723288106065518 9.441233278070723e-19 1.183702591892081e-10 1.1159321527235745e-10 6.777043916850644e-12
4.867139040275056 9.537654715725776e-19 1.2322101503595375e-10 1.158620271541092e-10 7.358987881844539e-12
4.940699165968905 9.591319802971091e-19 1.2578713222101536e-10 1.1813494364358925e-10 7.652188577426127e-12
5.015371051989984 9.64067290082533e-19 1.2834526466479904e-10 1.2039951376427662e-10 7.945750900522397e-12
5.091171501069577 9.703487185480273e-19 1.311339057527797e-10 1.2288741285139103e-10 8.246492901388686e-12
5.129500256944802 9.733107971540969e-19 1.3252445597520843e-10 1.2412790284962048e-10 8.396553125587975e-12
5.168117569889187 9.763149519267062e-19 1.3393428339845949e-10 1.2538618783155091e-10 8.548095566908583e-12
5.20702561229733 9.805842556847547e-19 1.3553269147491004e-10 1.26817687350999e-10 8.715004123911043e-12
5.246226572918644 9.847748510858716e-19 1.371366149072303e-10 1.2825451599640018e-10 8.882098910830126e-12
5.265937586045735 9.86841426369531e-19 1.3794072770078894e-10 1.2897504064400535e-10 8.965687056783573e-12
5.285722656980489 9.888893020706322e-19 1.3874632336244908e-10 1.2969703661104307e-10 9.04928675140599e-12
5.305582063971359 9.909188310229808e-19 1.3955344151673894e-10 1.3042055529854545e-10 9.132886218193424e-12
5.3255160863122235 9.93179482312484e-19 1.4039733784754514e-10 1.3118008523160522e-10 9.217252615939929e-12
5.365609099470188 9.995729223475057e-19 1.4236490603711494e-10 1.3297297197230094e-10 9.391934064813946e-12
5.406003951863644 1.0059940582791296e-18 1.4435811667595445e-10 1.347913820162029e-10 9.566734659751543e-12
5.446702915881641 1.0124524844384906e-18 1.4637866139599443e-10 1.3663710159404765e-10 9.741559801946778e-12
5.487708281020852 1.0194276507613024e-18 1.4849671929976315e-10 1.3857953440272165e-10 9.91718489704151e-12
5.529022354014368 1.0306273332413695e-18 1.5125837662989118e-10 1.4115810294695798e-10 1.010027368293321e-11
5.570647458961463 1.0421890256275254e-18 1.5410672940070262e-10 1.438233020499959e-10 1.0283427350706747e-11
5.612585937458331 1.0541515307219215e-18 1.5704911035465212e-10 1.4658256042171405e-10 1.0466549932938079e-11
5.654840148729818 1.0672564618111472e-18 1.601985418636463e-10 1.495479397657554e-10 1.0650602097890948e-11
5.67608639626678 1.0770890222224925e-18 1.6228187985264872e-10 1.5153473513059783e-10 1.0747144722050898e-11
5.686739436050992 1.082114486021595e-18 1.6334504822388049e-10 1.5254962266464723e-10 1.0795425559233208e-11
5.6974124697621304 1.0872153870775807e-18 1.6442304434526597e-10 1.535793336340778e-10 1.0843710711188128e-11
5.718818669136295 1.0976517473787697e-18 1.666250652207413e-10 1.5568477738422124e-10 1.094028783652005e-11
5.740305295436557 1.1092837305812147e-18 1.6902349094992937e-10 1.5798580210453847e-10 1.103768884539092e-11
5.7835210386641895 1.1408218685612357e-18 1.751376791945265e-10 1.6389882247935533e-10 1.123885671517116e-11
5.827062130521658 1.1767498672116017e-18 1.8201334862905684e-10 1.705711806243798e-10 1.1442168004677027e-11
5.8489554468988025 1.2032427359480305e-18 1.868103760935822e-10 1.752576808711647e-10 1.155269522241752e-11
5.870931020387893 1.2313148072384298e-18 1.9188698226198374e-10 1.8022359456707395e-10 1.1663387694909827e-11
5.892989160043636 1.261092324693984e-18 1.9726587252687352e-10 1.8549163970048117e-10 1.177423282639238e-11
5.915130176081913 1.295044243056033e-18 2.0333790533262325e-10 1.9144852599724147e-10 1.1889379335381784e-11
5.95966208400165 1.3923433512970058e-18 2.2026090235179858e-10 2.081050076917093e-10 1.2155894660089266e-11
6.004529249263818 1.5332626079095408e-18 2.443795958811158e-10 2.3192143237534947e-10 1.2458163505766311e-11
6.027089341400364 1.631952997528168e-18 2.6108667568282943e-10 2.484518037609964e-10 1.2634871921832989e-11
6.049734195844842 1.747720129137215e-18 2.80658122062182e-10 2.6783561401316074e-10 1.2822508049021191e-11
6.095279466722835 2.0831325644851385e-18 3.370388496240938e-10 3.237481965508038e-10 1.3290653073290062e-11
6.141167624020661 2.595820807882269e-18 4.2315072967292356e-10 4.092439053274336e-10 1.3906824345489912e-11
6.164241091010745 2.9224039875129535e-18 4.781776804427245e-10 4.638800217858917e-10 1.4297658656832942e-11
6.187401249150058 3.289458166967829e-18 5.402590883727486e-10 5.255609048922601e-10 1.469818348048854e-11
6.1990139391386085 3.467362501850988e-18 5.705468265484285e-10 5.55644987989002e-10 1.4901838559426445e-11
6.204828454712694 3.560663819573087e-18 5.864489104244868e-10 5.714442935277694e-10 1.5004616896717443e-11
6.210648424152782 3.627737555180651e-18 5.980565334201306e-10 5.829652483740302e-10 1.509128504610052e-11
6.233982942956859 3.851275967251262e-18 6.37293783657799e-10 6.219041334506242e-10 1.5389650207174683e-11
6.239830258556775 3.877307395821131e-18 6.422031661815227e-10 6.267749883107868e-10 1.5428177870735866e-11
6.245683058788269 3.875445403490148e-18 6.424968428852888e-10 6.270301054711701e-10 1.546673741411864e-11
6.257405133728602 3.859832393241118e-18 6.411094135447067e-10 6.255768606953791e-10 1.5532552849327572e-11
6.269149208991335 3.803916676222687e-18 6.330077609809955e-10 6.17459152723058e-10 1.5548608257937393e-11
6.280915325867298 3.677748348684898e-18 6.131607981230902e-10 5.976575547946e-10 1.550324332848992e-11
6.304513850009849 3.3725266226547865e-18 5.643862477292169e-10 5.490291256471383e-10 1.5357122082078707e-11
6.32820103803542 3.0024212667974787e-18 5.043375777907894e-10 4.891854905178042e-10 1.5152087272985222e-11
6.3519772230701035 2.665207395616919e-18 4.4937548338367497e-10 4.344094837330457e-10 1.496599965062918e-11
6.375842739491607 2.380948511709032e-18 4.029554495360206e-10 3.8815600714456523e-10 1.4799442391455368e-11
6.399797922933955 2.154839429106159e-18 3.6605859443400495e-10 3.5135609802559077e-10 1.4702496408414092e-11
6.42384311029221 1.966023242199755e-18 3.3523781887970735e-10 3.206182912917372e-10 1.4619527587970134e-11
6.447978639727206 1.828165443839292e-18 3.1290212946878684e-10 2.983115278308105e-10 1.4590601637976253e-11
6.472204850670314 1.7126073970439362e-18 2.9422495367011194e-10 2.7965260613570795e-10 1.4572347534404024e-11
6.496522083828205 1.636202278967518e-18 2.821547366668485e-10 2.675570689502795e-10 1.459766771656901e-11
