Dust emission spectrum from A.P. Jones, M. Kohler, N. Ysard, M. Bocchio, and L. Verstraete (2017), A&A, 602A, 46J 
inside the DustPedia framework.

lambda    nu*dP/dnu     j_nu    j_nu(carb.) j_nu(sil)
 (um)   (erg s-1 H-1) (Jy cm2 sr-1 H-1)
0.9927057738263894 3.3862060691295206e-24 8.922845324821336e-17 8.922845225332714e-17 9.948862281120904e-25
1.0001793341362166 3.443136504771246e-24 9.141165055282088e-17 9.14116493551446e-17 1.1976762802456577e-24
1.0077091589558085 3.500208204354892e-24 9.362644150849878e-17 9.362644006859739e-17 1.43990137852413e-24
1.0114953028030835 3.5287930738692575e-24 9.474569715359564e-17 9.47456955755694e-17 1.578026230909147e-24
1.0152956718711033 3.5574085499588815e-24 9.58728664720798e-17 9.587286474325068e-17 1.7288291367759816e-24
1.0229392996569957 3.614697384544096e-24 9.815021193914975e-17 9.815020986613541e-17 2.073014325097358e-24
1.0267826658714554 3.643304619595973e-24 9.929867324759767e-17 9.929867097863472e-17 2.2689629445517675e-24
1.0306404723013447 3.671934990807454e-24 1.00455011926447e-16 1.0045500944383522e-16 2.482611784927728e-24
1.03451277320114 3.700587047780932e-24 1.0161923350669137e-16 1.0161923079121186e-16 2.7154795060724888e-24
1.0383996230291617 3.729259362541184e-24 1.0279134377737567e-16 1.0279134080816802e-16 2.9692076597188005e-24
1.0403485208654093 3.743602676638035e-24 1.0338035905739192e-16 1.0338035595294866e-16 3.1044432619725784e-24
1.0423010764483396 3.757950530176258e-24 1.039713488105012e-16 1.0397134556493125e-16 3.245569987708914e-24
1.0462171883269815 3.7866591694730816e-24 1.0515925498627884e-16 1.0515925143979649e-16 3.546482370576141e-24
1.0471985131304309 3.793838899691064e-24 1.0545746686285784e-16 1.054574632370725e-16 3.625785317154154e-24
1.048180758391296 3.8010196160009084e-24 1.057561730870464e-16 1.0575616938026141e-16 3.706785014937264e-24
1.0501480137395462 3.815383923547557e-24 1.0635506901872527e-16 1.0635506514471182e-16 3.874013467867091e-24
1.0521189612883777 3.8297519264063544e-24 1.0695594367697997e-16 1.0695593962852795e-16 4.048452049730978e-24
1.0531058218030118 3.836927344529407e-24 1.0725684607721713e-16 1.0725684193874418e-16 4.138472960511256e-24
1.0540936079674168 3.844071132134963e-24 1.0755733383177087e-16 1.0755732960134259e-16 4.230428276026939e-24
1.058054026499678 3.87265316836004e-24 1.0876417775804692e-16 1.08764173139858e-16 4.618188899682226e-24
1.0590464539527713 3.879800299703295e-24 1.0906711253705974e-16 1.0906710781674272e-16 4.720317015591552e-24
1.06003981227728 3.886948040664839e-24 1.0937053706924526e-16 1.0937053224464095e-16 4.824604285378284e-24
1.0620293250338977 3.901245273701745e-24 1.0997885587567909e-16 1.0997885083584842e-16 5.0398306488759055e-24
1.0660195594769086 3.9298462060840415e-24 1.112013759372413e-16 1.1120137043908317e-16 5.498158106346261e-24
1.070024785945596 3.958454751194437e-24 1.124317461714419e-16 1.1243174017524776e-16 5.996194171963763e-24
1.0740450607676866 3.987069723071582e-24 1.136699753107596e-16 1.1366996877356373e-16 6.5371958961366576e-24
1.07808044048254 4.0156899646857895e-24 1.149160726193882e-16 1.1491606549471683e-16 7.124671369788755e-24
1.0861967418109137 4.072896201937638e-24 1.1743059759717576e-16 1.1743058914273439e-16 8.454441391406983e-24
1.0902777775684922 4.1013763947524964e-24 1.1869603747977645e-16 1.1869602827459846e-16 9.205178022475421e-24
1.0943741465085532 4.129855715272509e-24 1.1996930329482122e-16 1.1996929327551105e-16 1.001931015461784e-23
1.1026131145906286 4.186807794761884e-24 1.225393608588172e-16 1.2253934900044456e-16 1.1858372631179526e-23
1.1109141095355224 4.243744879911093e-24 1.2514087387981773e-16 1.2514085986302233e-16 1.4016795375996498e-23
1.1192775983109025 4.3006132338656416e-24 1.2777257044789642e-16 1.2777255390121567e-16 1.6546680756805797e-23
1.1277040513999907 4.3571916687815145e-24 1.3042812117931195e-16 1.3042810167126294e-16 1.9508049003227424e-23
1.1361939428280308 4.413728785765479e-24 1.331151683970169e-16 1.3311514542707297e-16 2.2969943902091627e-23
1.1447477501889525 4.470219348923029e-24 1.3583386734951566e-16 1.3583384033783065e-16 2.701168501494436e-23
1.1533659546722406 4.5266816292056904e-24 1.385850910374356e-16 1.3858505931311675e-16 3.1724318826725434e-23
1.1707974979042381 4.639693579472759e-24 1.4419178493955467e-16 1.4419174134461e-16 4.359494466396839e-23
1.1884924949847024 4.752537482957821e-24 1.4993099649258868e-16 1.4993093688430578e-16 5.960828290958103e-23
1.2064549276569216 4.866002120474119e-24 1.5583063073130593e-16 1.5583054962872228e-16 8.110258359678008e-23
1.2246888378427687 4.9792248731745235e-24 1.6186648393784536e-16 1.6186637412932972e-16 1.098085155881047e-22
1.2431983285522175 5.092068964253499e-24 1.680366935981902e-16 1.68036545641795e-16 1.4795639521749962e-22
1.2619875648066055 5.204646328698805e-24 1.7434750301028707e-16 1.7434730460451176e-16 1.9840577526928244e-22
1.3004222497298317 5.4280251792741725e-24 1.8736811090032409e-16 1.8736775913433726e-16 3.5176598686567794e-22
1.3400274889804893 5.6496712146118695e-24 2.009584697794685e-16 2.009578575151114e-16 6.122643571137783e-22
1.3808389325824078 5.8700472648545104e-24 2.1515629376696052e-16 2.1515524709052742e-16 1.0466764330660945e-21
1.4228933163050095 6.0908565345674765e-24 2.3004889025178524e-16 2.3004713196980904e-16 1.7582819761970527e-21
1.466228494730424 6.316223038226094e-24 2.4582641393044286e-16 2.4582351001555173e-16 2.9039148911287142e-21
1.5108834753276823 6.5450831006608104e-24 2.6249169626320434e-16 2.624869790065152e-16 4.7172566892146304e-21
1.5568984535646726 6.776725811498923e-24 2.800590650432254e-16 2.800515200078378e-16 7.545035387608947e-21
1.6043148490894465 7.012430904086466e-24 2.9862600979098747e-16 2.9861410544543256e-16 1.1904345554911015e-20
1.6531753430134553 7.253570674468257e-24 3.183026095682967e-16 3.182841035667219e-16 1.850600157477208e-20
1.7035239163302658 7.501908644652726e-24 3.392262405660522e-16 3.3919788850208183e-16 2.8352063970349754e-20
1.755405889504358 7.763215697046582e-24 3.6173342226868955e-16 3.616905932198951e-16 4.2829048794432494e-20
1.8088679632656115 8.037092703770777e-24 3.8590044363717025e-16 3.8583662802773073e-16 6.381560943954294e-20
1.8639582606462262 8.323099739905204e-24 4.1180414636193226e-16 4.1171032064472106e-16 9.382571721119944e-20
1.9207263702978936 8.622076149238528e-24 4.3958896947748486e-16 4.394527980402469e-16 1.3617143723770527e-19
1.979223391128241 8.935427335192914e-24 4.69439441414505e-16 4.692442836313915e-16 1.9515778311351615e-19
2.039501978296691 9.264388170003835e-24 5.015454643617006e-16 5.012691680074097e-16 2.7629635429095136e-19
2.1016163906111602 9.613250621458399e-24 5.362819064773788e-16 5.358953331031096e-16 3.8657337426914717e-19
2.1656225393682647 9.983866458981333e-24 5.739194713304337e-16 5.733847784913439e-16 5.34692839089858e-19
2.231578038680979 1.0374692306719312e-23 6.145493123981567e-16 6.138179607079609e-16 7.31351690195837e-19
2.299542257339062 1.0785675277047601e-23 6.583520143521708e-16 6.573624840866359e-16 9.895302655351444e-19
2.369576372248914 1.1218068683263226e-23 7.055994578685127e-16 7.042746535685396e-16 1.3248042999730602e-18
2.4417434235010123 1.1673447334913858e-23 7.566039217203523e-16 7.548483306630615e-16 1.7555910572910586e-18
2.5161083711144245 1.2155921060721741e-23 8.118702861587439e-16 8.095668166003682e-16 2.3034695583758202e-18
2.5927381535095444 1.2673175871595556e-23 8.721949212551676e-16 8.69201529398566e-16 2.9933918566016788e-18
2.6717017477616296 1.3232714532367758e-23 9.384396551180436e-16 9.345859683085331e-16 3.853686809510648e-18
2.753070231689431 1.3846457582937923e-23 1.0118715915279036e-15 1.0069554427702426e-15 4.916148757661011e-18
2.836916847834745 1.4546763233152802e-23 1.0954243983815215e-15 1.0892081632270832e-15 6.216235154437926e-18
2.9233170693905177 1.5407026605354027e-23 1.1955402115140847e-15 1.1877487509504605e-15 7.791460563624337e-18
2.967498994190263 1.5970798777652513e-23 1.258017409684985e-15 1.2493386317556227e-15 8.678777929362e-18
3.0123486681368425 1.6586278076594074e-23 1.3262445544734643e-15 1.3165901921888584e-15 9.654362284605764e-18
3.0578761833420214 1.7684354360102583e-23 1.435418496553393e-15 1.4246899408938225e-15 1.0728555659570685e-17
3.1040917844459814 1.9009333178424218e-23 1.5662852931777906e-15 1.5543863646317144e-15 1.1898928546075882e-17
3.127460860933648 2.0292966269542645e-23 1.6846389975114541e-15 1.6721128631969248e-15 1.2526134314529121e-17
3.1510058709225794 2.1951229980596338e-23 1.8360204122477603e-15 1.8228400957696267e-15 1.3180316478133647e-17
3.162844764501044 2.3466414787830457e-23 1.9701262282635797e-15 1.956607214000833e-15 1.3519014262747196e-17
3.1747281389236908 2.5197773075446982e-23 2.1234309096539694e-15 2.109566200993821e-15 1.3864708660148629e-17
3.1986289994194426 2.993679148965188e-23 2.5417834983457135e-15 2.5272042534784405e-15 1.4579244867272666e-17
3.2227097969389145 4.098223871313697e-23 3.505793334963957e-15 3.4904565160983134e-15 1.533681886564288e-17
3.2348180950136065 5.138678114917552e-23 4.4123576884058e-15 4.396616476856962e-15 1.5741211548837698e-17
3.240889293275058 5.916218343930543e-23 5.089531689482081e-15 5.0735771694386785e-15 1.5954520043401416e-17
3.2469718861334385 6.816888003734942e-23 5.875355103669873e-15 5.85917986948459e-15 1.6175234185284927e-17
3.2714166318528037 1.1572585668753557e-22 1.0049297303001225e-14 1.0032209614196547e-14 1.7087688804676955e-17
3.2744851364798273 1.18702249950024e-22 1.0317427062250721e-14 1.0300231740103824e-14 1.719532214689812e-17
3.2775565192852394 1.2176050747635677e-22 1.059317317482362e-14 1.0575869671860976e-14 1.7303502962643717e-17
3.283707930232385 1.1883784887840157e-22 1.0358306003781777e-14 1.0340808829192206e-14 1.7497174589567745e-17
3.2898708863219004 1.0952995951743791e-22 9.564917186654834e-15 9.547243567035057e-15 1.7673619619776036e-17
3.29141343181113 1.0733175266924433e-22 9.37734925414304e-15 9.359631323237915e-15 1.77179309051241e-17
3.292184975758714 1.0625115646114695e-22 9.285115862965266e-15 9.26737574637186e-15 1.774011659340901e-17
3.295272960557952 9.94801803156478e-23 8.70156545920877e-15 8.68373900807894e-15 1.7826451129829345e-17
3.3076538914384823 7.590582109481738e-23 6.664454002122229e-15 6.646280692020172e-15 1.817331010205643e-17
3.310756385682612 7.107502158395479e-23 6.246167965867352e-15 6.227907206982322e-15 1.82607588850307e-17
3.313861789986515 6.66050342919865e-23 5.8588297854972985e-15 5.840481283566811e-15 1.8348501930486544e-17
3.3200813396944477 6.035364098093116e-23 5.318897631627442e-15 5.300360492952007e-15 1.853713867543474e-17
3.345076488085796 4.935696220844408e-23 4.382520012517112e-15 4.363142468781713e-15 1.9377543735399262e-17
3.3482140837626964 4.9793722273818444e-23 4.425448025888295e-15 4.405956645958457e-15 1.949137992983977e-17
3.3513546224236106 5.0234773214516044e-23 4.46883442619369e-15 4.449228686478142e-15 1.96057397155491e-17
3.3576445397418455 5.336572794299658e-23 4.756270961862327e-15 4.736426157645855e-15 1.984480421647184e-17
3.3702598118196083 6.477725410437742e-23 5.795025471189326e-15 5.774679199334334e-15 2.0346271854991027e-17
3.382922481734668 6.746704407902836e-23 6.058333296672431e-15 6.037499177300416e-15 2.083411937201485e-17
3.389271646505754 6.885630665451268e-23 6.194689396846936e-15 6.173607921050991e-15 2.108147579594461e-17
3.395632727569191 7.037359119307098e-23 6.343075162068581e-15 6.3217387680368805e-15 2.1336394031699475e-17
3.421196662673239 7.770840234309433e-23 7.056924204344437e-15 7.0345320928939614e-15 2.239211145047579e-17
3.4276182099114902 7.634532329732061e-23 6.946152486930966e-15 6.923524304670453e-15 2.2628182260512945e-17
3.4340518103208963 7.020440585617538e-23 6.399420445027886e-15 6.376568752744719e-15 2.285169228316732e-17
3.4469541582030403 6.141736936899873e-23 5.619480279859272e-15 5.5961991245151936e-15 2.3281155344078115e-17
3.472904465399547 5.899213846977445e-23 5.438215450000894e-15 5.4139456806930675e-15 2.42697693078255e-17
3.4990501388274233 5.529387161243619e-23 5.135663954513018e-15 5.110381472233184e-15 2.528248227983371e-17
3.5253949054701885 4.208969906308729e-23 3.9387011171544246e-15 3.912433108662717e-15 2.626800849170766e-17
3.5519380250092896 2.956469809001198e-23 2.7874575416795963e-15 2.7601976325892626e-15 2.7259909090333397e-17
3.578680990867387 2.465843545379453e-23 2.342383160307584e-15 2.3140358953969398e-15 2.834726491064425e-17
3.605625307711299 2.2746698808394882e-23 2.1770499999532885e-15 2.147556729083878e-15 2.949327086941113e-17
3.660119384959845 2.149557379786854e-23 2.088400203993602e-15 2.056495648782863e-15 3.1904555210738395e-17
3.715437065384467 2.0645197766405487e-23 2.0360966522350057e-15 2.001644891809502e-15 3.445176042550378e-17
3.8285932144167436 2.050641754135133e-23 2.084003549631564e-15 2.0440589844486104e-15 3.9944565182953607e-17
3.94519561050918 2.0769529439169397e-23 2.175026894512626e-15 2.129065235571039e-15 4.5961658941586644e-17
4.06534921144712 2.1180737760717736e-23 2.285642871744642e-15 2.233140298024847e-15 5.2502573719795054e-17
4.189162171576248 2.1665357974171522e-23 2.4091424240610562e-15 2.3495566924194073e-15 5.958573164164877e-17
4.316745939156006 2.219337207888838e-23 2.5430167250780975e-15 2.47582474457216e-15 6.719198050593779e-17
4.448215356677963 2.275289249002825e-23 2.6865309789639958e-15 2.611306787304826e-15 7.522419165916956e-17
4.58368876423945 2.3343000958841992e-23 2.8401497674949496e-15 2.756451511132877e-15 8.36982563620725e-17
4.723288106065518 2.3970706957384045e-23 3.005347619240183e-15 2.9126749023534458e-15 9.267271688673714e-17
4.867139040275056 2.464883663265167e-23 3.1844879688534796e-15 3.0825642288625823e-15 1.0192373999089751e-16
4.940699165968905 2.5028953950320783e-23 3.282468319873406e-15 3.1757862513211193e-15 1.0668206855228761e-16
5.015371051989984 2.540724114418381e-23 3.3824392992043954e-15 3.2709237279945283e-15 1.1151557120986667e-16
5.091171501069577 2.585128748547953e-23 3.49356909728438e-15 3.3770430945400136e-15 1.1652600274436675e-16
5.129500256944802 2.607266105870436e-23 3.5500122188449856e-15 3.430956873403632e-15 1.1905534544135336e-16
5.168117569889187 2.6299528582502176e-23 3.607860872624603e-15 3.486236914066198e-15 1.2162395855840469e-16
5.20702561229733 2.6577315407883434e-23 3.67341721889329e-15 3.5489961982161786e-15 1.2442102067711195e-16
5.246226572918644 2.685695071931547e-23 3.740013571951043e-15 3.612771754473682e-15 1.2724181747736072e-16
5.265937586045735 2.699749980446054e-23 3.7737114288255384e-15 3.645050613085393e-15 1.2866081574014552e-16
5.285722656980489 2.713855790936627e-23 3.8076811260867886e-15 3.6775957421935276e-15 1.300853838932605e-16
5.305582063971359 2.728014172750966e-23 3.84192685006112e-15 3.710411452466217e-15 1.315153975949031e-16
5.3255160863122235 2.7431985540549796e-23 3.877826526176448e-15 3.744864968213973e-15 1.3296155796247627e-16
5.365609099470188 2.7813249950112297e-23 3.96132250805204e-15 3.825368956420581e-15 1.3595355163145938e-16
5.406003951863644 2.820211688525823e-23 4.04694684459199e-15 3.907976522663692e-15 1.3897032192829656e-16
5.446702915881641 2.859906752015886e-23 4.134804630457545e-15 3.992793742703536e-15 1.420108877540082e-16
5.487708281020852 2.9023399797605594e-23 4.227744509040192e-15 4.08265779992824e-15 1.4508670911195197e-16
5.529022354014368 2.9625406383206357e-23 4.347925512931407e-15 4.199631533362862e-15 1.4829397956854548e-16
5.570647458961463 3.0252145371416013e-23 4.4733335948691215e-15 4.321806057509757e-15 1.5152753735936577e-16
5.612585937458331 3.0905566057827456e-23 4.604358588811941e-15 4.449572197040331e-15 1.5478639177161007e-16
5.654840148729818 3.161653101463505e-23 4.7457404556127505e-15 4.587655453153607e-15 1.5808500245914411e-16
5.67608639626678 3.21117005356114e-23 4.838176808664816e-15 4.678366311354251e-15 1.5981049731056505e-16
5.686739436050992 3.236532412347086e-23 4.885541685304051e-15 4.72486569507572e-15 1.606759902283303e-16
5.6974124697621304 3.2623105205053416e-23 4.9336960620370775e-15 4.772152768990042e-15 1.6154329304703563e-16
5.718818669136295 3.315154987051716e-23 5.032451478836337e-15 4.8691682122852856e-15 1.6328326655105128e-16
5.740305295436557 3.373400142992321e-23 5.140108457561191e-15 4.975065513416014e-15 1.6504294414517642e-16
5.7835210386641895 3.526049133146895e-23 5.413150632219594e-15 5.24446872102621e-15 1.686819111933848e-16
5.827062130521658 3.699739709167316e-23 5.72255865315807e-15 5.550175080809052e-15 1.7238357234901912e-16
5.8489554468988025 3.8236753764811465e-23 5.936476604426923e-15 5.7620953053357995e-15 1.743812990911243e-16
5.870931020387893 3.95540137333263e-23 6.164061608793234e-15 5.987671754219833e-15 1.7638985457340095e-16
5.892989160043636 4.0955322282386036e-23 6.4064202330425375e-15 6.228011100629837e-15 1.784091324127023e-16
5.915130176081913 4.254627804888556e-23 6.680289962715538e-15 6.499787950892754e-15 1.805020118227832e-16
5.95966208400165 4.7031423095390037e-23 7.440107126040403e-15 7.254841627970556e-15 1.8526549806985012e-16
6.004529249263818 5.348381366514497e-23 8.524536307246951e-15 8.333913043980696e-15 1.906232632662534e-16
6.027089341400364 5.797734197965233e-23 9.275457997455412e-15 9.081741712467135e-15 1.9371628498827664e-16
6.049734195844842 6.325622927514814e-23 1.015801913654338e-14 9.961026939211607e-15 1.969921973317731e-16
6.095279466722835 7.851189715534011e-23 1.2702772713642046e-14 1.2497737366625473e-14 2.0503534701657213e-16
6.141167624020661 1.0187368916702573e-22 1.6606664749200465e-14 1.6391201527023154e-14 2.1546322217730902e-16
6.164241091010745 1.16788126081646e-22 1.9109430274388582e-14 1.888742755598218e-14 2.2200271840639863e-16
6.187401249150058 1.3363721243127463e-22 2.1948513978929068e-14 2.1719793643565368e-14 2.287203353636984e-16
6.1990139391386085 1.418424863262496e-22 2.333986723337371e-14 2.3107728251177308e-14 2.3213898219639973e-16
6.204828454712694 1.4615270787232534e-22 2.407166209181468e-14 2.3837796116855596e-14 2.338659749590795e-16
6.210648424152782 1.4928394514267164e-22 2.46104458686128e-14 2.4375107239412882e-14 2.353386291999192e-16
6.233982942956859 1.598368526043362e-22 2.6449164752240063e-14 2.620868634453574e-14 2.404784077043229e-16
6.239830258556775 1.6113753199693316e-22 2.668940650685536e-14 2.644821080728897e-14 2.4119569956638765e-16
6.245683058788269 1.6117350283792145e-22 2.6720403966178827e-14 2.6478489731826096e-14 2.4191423435272927e-16
6.257405133728602 1.607071932977609e-22 2.6693100619591362e-14 2.6449926301764093e-14 2.4317431782727894e-16
6.269149208991335 1.5841153857093254e-22 2.6361180299016186e-14 2.611753134006451e-14 2.436489589516799e-16
6.280915325867298 1.5291528502061496e-22 2.5494310463625845e-14 2.525115841849317e-14 2.431520451326823e-16
6.304513850009849 1.3946882493368079e-22 2.333985631151543e-14 2.309857757560202e-14 2.4127873591341177e-16
6.32820103803542 1.2296649267139003e-22 2.0655536832600282e-14 2.0417067180243437e-14 2.384696523568449e-16
6.3519772230701035 1.0787578691188507e-22 1.8188728565231108e-14 1.7952770620441375e-14 2.359579447897324e-16
6.375842739491607 9.515234858412603e-23 1.6103732277101134e-14 1.5869981454159135e-14 2.3375082294199753e-16
6.399797922933955 8.501093984992787e-23 1.444144038420844e-14 1.4208785349170261e-14 2.3265503503817655e-16
6.42384311029221 7.654994113845638e-23 1.3052966390118958e-14 1.2821185943122577e-14 2.3178044699638283e-16
6.447978639727206 7.039192480809617e-23 1.2048025108495723e-14 1.1816251586027995e-14 2.317735224677239e-16
6.472204850670314 6.524217564815201e-23 1.1208567789995582e-14 1.0976628662688538e-14 2.3193912730704496e-16
6.496522083828205 6.188083726308284e-23 1.0671034729096513e-14 1.0438226027179647e-14 2.328087019168638e-16
