Dust emission spectrum from A.P. Jones, M. Kohler, N. Ysard, M. Bocchio, and L. Verstraete (2017), A&A, 602A, 46J 
inside the DustPedia framework.

lambda    nu*dP/dnu     j_nu    j_nu(carb.) j_nu(sil)
 (um)   (erg s-1 H-1) (Jy cm2 sr-1 H-1)
0.9927057738263894 3.174331136010888e-24 8.364542841797788e-17 8.364542839567451e-17 2.2303368099374035e-26
1.0001793341362166 3.2267431777804708e-24 8.566663545933499e-17 8.566663543247545e-17 2.685954457738375e-26
1.0077091589558085 3.2790880696589297e-24 8.771173868261974e-17 8.771173865031535e-17 3.230440136421988e-26
1.0114953028030835 3.305229018505545e-24 8.874315411961302e-17 8.874315408420262e-17 3.5410394855274687e-26
1.0152956718711033 3.331345621930705e-24 8.97804256942604e-17 8.978042565545807e-17 3.880234569907335e-26
1.0229392996569957 3.3834701568848485e-24 9.187167767016847e-17 9.187167762362146e-17 4.6547026396502424e-26
1.0267826658714554 3.4094149375689215e-24 9.292398391015646e-17 9.29239838591986e-17 5.0957860506212727e-26
1.0306404723013447 3.435324121817768e-24 9.398192682940957e-17 9.398192677364113e-17 5.576841772964432e-26
1.03451277320114 3.461195265324399e-24 9.504546314892585e-17 9.504546308791269e-17 6.101313099892294e-26
1.0383996230291617 3.487025938017836e-24 9.611454905919245e-17 9.611454899246322e-17 6.672923316894767e-26
1.0403485208654093 3.499925342423678e-24 9.665115927814303e-17 9.665115920836652e-17 6.977650810304024e-26
1.0423010764483396 3.5128137245441804e-24 9.71891402316487e-17 9.718914015869171e-17 7.295697012329693e-26
1.0462171883269815 3.538556224737529e-24 9.826919183017938e-17 9.826919175043957e-17 7.973982889561737e-26
1.0471985131304309 3.5449844940104005e-24 9.854005261975919e-17 9.854005253823146e-17 8.152770570156778e-26
1.048180758391296 3.551409746674041e-24 9.881125114198667e-17 9.881125105863272e-17 8.335396464135612e-26
1.0501480137395462 3.564251054080681e-24 9.935465852263407e-17 9.93546584355093e-17 8.71247817710056e-26
1.0521189612883777 3.5770798514118216e-24 9.989940822999098e-17 9.989940813893225e-17 9.10587392244086e-26
1.0531058218030118 3.5834796474127865e-24 1.0017201016625811e-16 1.0017201007316905e-16 9.308911535713374e-26
1.0540936079674168 3.5898440345103765e-24 1.0044404485548099e-16 1.0044404476031776e-16 9.516326353671541e-26
1.058054026499678 3.615267144609923e-24 1.0153544385842701e-16 1.0153544375451584e-16 1.0391119821754296e-25
1.0590464539527713 3.6216141313284436e-24 1.0180910498347363e-16 1.0180910487725799e-16 1.0621563465251492e-25
1.06003981227728 3.6279575294732386e-24 1.020830891773463e-16 1.020830890687774e-16 1.0856896129577264e-25
1.0620293250338977 3.6406334160990425e-24 1.0263202379619166e-16 1.0263202368276542e-16 1.1342625018143192e-25
1.0660195594769086 3.6659405470667046e-24 1.0373373703704238e-16 1.0373373691327017e-16 1.237721971918146e-25
1.070024785945596 3.6911862538498325e-24 1.0484053552440752e-16 1.048405353893897e-16 1.3501780793979758e-25
1.0740450607676866 3.7163682714257804e-24 1.059523707885443e-16 1.0595237064130708e-16 1.4723720634768297e-25
1.07808044048254 3.741484353794518e-24 1.0706919395820384e-16 1.0706919379769359e-16 1.6051026037878506e-25
1.0861967418109137 3.7914655780141925e-24 1.0931633081724807e-16 1.0931633062667999e-16 1.9056806807400354e-25
1.0902777775684922 3.8162257066919645e-24 1.1044362329006162e-16 1.1044362308251642e-16 2.0754521326881513e-25
1.0943741465085532 3.840909356734824e-24 1.1157562184121758e-16 1.115756216152559e-16 2.259616594323564e-25
1.1026131145906286 3.890038710873445e-24 1.1385353250341872e-16 1.1385353223583602e-16 2.675826899419645e-25
1.1109141095355224 3.938836836752582e-24 1.1614965031346595e-16 1.1614964999700382e-16 3.1646212146318834e-25
1.1192775983109025 3.987242157281834e-24 1.1846221730015538e-16 1.1846221692636518e-16 3.737901951378461e-25
1.1277040513999907 4.035031295511976e-24 1.207845765757939e-16 1.2078457613485476e-16 4.409391677198696e-25
1.1361939428280308 4.082434509696382e-24 1.2312355008776974e-16 1.2312354956828088e-16 5.194888601371487e-25
1.1447477501889525 4.129436576728908e-24 1.254787061683605e-16 1.2547870555710474e-16 6.112557485193403e-25
1.1533659546722406 4.176047987165731e-24 1.2785038531185932e-16 1.2785038459353271e-16 7.183266160324088e-25
1.1707974979042381 4.268249447171068e-24 1.326480932011896e-16 1.3264809221288154e-16 9.883080806493346e-25
1.1884924949847024 4.358697692924875e-24 1.3750630917769318e-16 1.37506307824681e-16 1.3530121631691063e-24
1.2064549276569216 4.448097825963517e-24 1.4244751083398795e-16 1.4244750899075444e-16 1.8432334867274947e-24
1.2246888378427687 4.535487649573684e-24 1.4744131013949545e-16 1.4744130764062772e-16 2.4988676998455578e-24
1.2431983285522175 4.6206681578544625e-24 1.5248061346202352e-16 1.5248061009060115e-16 3.371422393364012e-24
1.2619875648066055 4.703614297293266e-24 1.5756371443236716e-16 1.5756370990531015e-16 4.527056998604144e-24
1.3004222497298317 4.861461655519349e-24 1.6781110192470118e-16 1.6781109387631375e-16 8.048387446698241e-24
1.3400274889804893 5.008465181151238e-24 1.7815080922670068e-16 1.78150795178395e-16 1.4048305612640365e-23
1.3808389325824078 5.144138496341526e-24 1.885493801938271e-16 1.885493561079565e-16 2.4085870599671263e-23
1.4228933163050095 5.269177458916162e-24 1.9901444404148375e-16 1.9901440345911888e-16 4.0582364902850074e-23
1.466228494730424 5.386557539719401e-24 2.0964397796045808e-16 2.0964391073015403e-16 6.723030410150301e-23
1.5108834753276823 5.494142457961495e-24 2.2034353897758738e-16 2.2034342942156079e-16 1.0955602657601745e-22
1.5568984535646726 5.590215149874431e-24 2.310246086108093e-16 2.310244328168539e-16 1.757939553801921e-22
1.6043148490894465 5.675004879498589e-24 2.416714097990563e-16 2.4167113152832663e-16 2.782707296463347e-22
1.6531753430134553 5.7488180267326646e-24 2.5227075904604955e-16 2.5227032501065435e-16 4.3403539516477e-22
1.7035239163302658 5.812509828604422e-24 2.6283389345405475e-16 2.62833226216339e-16 6.672377157212646e-22
1.755405889504358 5.8707242783302535e-24 2.735512276445181e-16 2.7355021617854265e-16 1.0114659754574565e-21
1.8088679632656115 5.9223964957385296e-24 2.8436345322089543e-16 2.843619407350644e-16 1.5124858310540891e-21
1.8639582606462262 5.966811926824628e-24 2.952214882452193e-16 2.952192563522466e-16 2.231892972621607e-21
1.9207263702978936 6.004574714901936e-24 3.0613796090253966e-16 3.0613470956937084e-16 3.2513331687512555e-21
1.979223391128241 6.037020052259621e-24 3.1716617625873593e-16 3.1716149865437175e-16 4.6776043641408065e-21
2.039501978296691 6.0657212536451374e-24 3.283794814101392e-16 3.283728330469379e-16 6.648363201216411e-21
2.1016163906111602 6.0950445963106725e-24 3.4001632381017167e-16 3.4000698449582546e-16 9.339314346199039e-21
2.1656225393682647 6.127516371587675e-24 3.522383808916641e-16 3.5222540986717983e-16 1.2971024484032701e-20
2.231578038680979 6.163290509951366e-24 3.6508513534879265e-16 3.650673186046447e-16 1.781674414799683e-20
2.299542257339062 6.203848406299967e-24 3.786796830157399e-16 3.7865547212886407e-16 2.4210886875793192e-20
2.369576372248914 6.252465587161833e-24 3.932705756406182e-16 3.9323801727706043e-16 3.255836355787637e-20
2.4417434235010123 6.313003171375936e-24 4.0917158575858705e-16 4.0912824310030666e-16 4.3342658280332674e-20
2.5161083711144245 6.392101808621237e-24 4.2691602706187915e-16 4.2685889094336484e-16 5.713611851414691e-20
2.5927381535095444 6.5006410349135536e-24 4.473879438746167e-16 4.473133358506891e-16 7.460802392764572e-20
2.6717017477616296 6.651519902316654e-24 4.717134967184954e-16 4.716169689048287e-16 9.652781366683177e-20
2.753070231689431 6.864160419074244e-24 5.016191965452709e-16 5.014954256097427e-16 1.2377093552811698e-19
2.836916847834745 7.182762503362035e-24 5.408882490113503e-16 5.40730921266094e-16 1.5732774525632388e-19
2.9233170693905177 7.704737571941941e-24 5.978651054720056e-16 5.976668353795795e-16 1.9827009242587872e-19
2.967498994190263 8.138229853769267e-24 6.410471375035803e-16 6.408256392665687e-16 2.2149823701180215e-19
3.0123486681368425 8.642085790469628e-24 6.910241807097706e-16 6.907770627112761e-16 2.471179984944523e-19
3.0578761833420214 9.75187648607996e-24 7.915484839980373e-16 7.912730725876503e-16 2.7541141038687423e-19
3.1040917844459814 1.1176806357044586e-23 9.209195955176656e-16 9.206132370676474e-16 3.063584500179774e-19
3.127460860933648 1.2676432171414469e-23 1.0523455123130659e-15 1.052022521459789e-15 3.2299085327695237e-19
3.1510058709225794 1.4671370453603678e-23 1.2271264823099105e-15 1.2267861085355512e-15 3.4037377435905523e-19
3.162844764501044 1.6526180639771226e-23 1.3874578722745414e-15 1.3871084850609823e-15 3.4938721355883536e-19
3.1747281389236908 1.8681481524614929e-23 1.5742992521093345e-15 1.5739406557350282e-15 3.5859637430635524e-19
3.1986289994194426 2.4688031342971276e-23 2.096137480060187e-15 2.095759819472807e-15 3.776605873798922e-19
3.2227097969389145 3.883819656206701e-23 3.3223829377009734e-15 3.321985027621233e-15 3.9791007974154093e-19
3.2348180950136065 5.2252682060388093e-23 4.486708804734627e-15 4.486300075830713e-15 4.087289039132484e-19
3.240889293275058 6.228141635540305e-23 5.357869229621062e-15 5.3574547937481616e-15 4.14435872900693e-19
3.2469718861334385 7.388380302203147e-23 6.367914199649378e-15 6.367493858406886e-15 4.203412424910886e-19
3.2714166318528037 1.3574677917771756e-22 1.1787856067162465e-14 1.1787411282145309e-14 4.44785017153665e-19
3.2744851364798273 1.3961453841117003e-22 1.2135092784622967e-14 1.2134645107866266e-14 4.476767567006049e-19
3.2775565192852394 1.435931941352806e-22 1.24926185322976e-14 1.2492167948296646e-14 4.505840009570398e-19
3.283707930232385 1.3976945835245902e-22 1.2182775380586108e-14 1.2182319575150492e-14 4.558054356169135e-19
3.2898708863219004 1.2763878943124342e-22 1.1146306052640778e-14 1.1145845474769054e-14 4.60577871724367e-19
3.29141343181113 1.2477789777158224e-22 1.0901582220572167e-14 1.0901120443761631e-14 4.617768105358832e-19
3.292184975758714 1.2337213039129113e-22 1.0781289946362913e-14 1.0780827569206857e-14 4.623771560570368e-19
3.295272960557952 1.1450125241002597e-22 1.0015463782291787e-14 1.0014999066019319e-14 4.647162724675566e-19
3.3076538914384823 8.376321409625955e-23 7.354325127675256e-15 7.353851005601596e-15 4.741220736567374e-19
3.310756385682612 7.750541564997687e-23 6.811279597604907e-15 6.81080310247935e-15 4.764951255562464e-19
3.313861789986515 7.173090774881816e-23 6.309720929159522e-15 6.309242052312121e-15 4.788768474014617e-19
3.3200813396944477 6.363390201634675e-23 5.6079833001773204e-15 5.607499309921821e-15 4.839902554990826e-19
3.345076488085796 4.9199366004713e-23 4.368526677314849e-15 4.368019922998887e-15 5.0675431596338685e-19
3.3482140837626964 4.974238642091719e-23 4.420885520044088e-15 4.420375682815623e-15 5.098372284653434e-19
3.3513546224236106 5.0291381436196275e-23 4.473870236124991e-15 4.4733573009049776e-15 5.129352200133758e-19
3.3576445397418455 5.429690800713373e-23 4.839263265538042e-15 4.8387438567158856e-15 5.194088221557918e-19
3.3702598118196083 6.90625566092915e-23 6.178392094413485e-15 6.177859104280753e-15 5.329901327330598e-19
3.382922481734668 7.243173851707975e-23 6.504147605457316e-15 6.503601373443825e-15 5.462320134924365e-19
3.389271646505754 7.417698236889546e-23 6.6733664423254985e-15 6.672813490252282e-15 5.52952073217582e-19
3.395632727569191 7.605865981039605e-23 6.855494905467447e-15 6.8549350275835954e-15 5.598778838522643e-19
3.421196662673239 8.509625706752381e-23 7.727836605719267e-15 7.727248011379004e-15 5.88594340264105e-19
3.4276182099114902 8.328290072138835e-23 7.577356450660274e-15 7.576761402891983e-15 5.950477682877249e-19
3.4340518103208963 7.53243208209786e-23 6.866121759610465e-15 6.865520586244106e-15 6.011733663589647e-19
3.4469541582030403 6.398779557977376e-23 5.854665530394843e-15 5.85405255520376e-15 6.129751910850451e-19
3.472904465399547 6.081539442091971e-23 5.606293077630963e-15 5.6056529779866275e-15 6.400996443351467e-19
3.4990501388274233 5.596212956421157e-23 5.197731380344665e-15 5.197063419658102e-15 6.67960686563511e-19
3.5253949054701885 3.8679378687698194e-23 3.619567624366409e-15 3.618872432177507e-15 6.951921889020807e-19
3.5519380250092896 2.242840423360784e-23 2.114624148654156e-15 2.1139014516666817e-15 7.226969874744655e-19
3.578680990867387 1.598916737827003e-23 1.51886183064529e-15 1.5181089631107086e-15 7.528675345813094e-19
3.605625307711299 1.338982363388162e-23 1.2815185089960538e-15 1.2807337811438727e-15 7.847278521810129e-19
3.660119384959845 1.150409419415593e-23 1.1176790574541045e-15 1.1168270179484767e-15 8.520395056275523e-19
3.715437065384467 1.0171785635159603e-23 1.003174632344852e-15 1.0022510807613865e-15 9.235515834656373e-19
3.8285932144167436 9.5181817587688e-24 9.673032615918067e-16 9.662240613785033e-16 1.079200213303607e-18
3.94519561050918 9.416044596550082e-24 9.860671276838395e-16 9.848152084558992e-16 1.2519192279401587e-18
4.06534921144712 9.539816249065245e-24 1.0294548402307784e-15 1.0280125419587584e-15 1.4422982720196706e-18
4.189162171576248 9.793964761586763e-24 1.0890683659613044e-15 1.0874168609057636e-15 1.6515050555408888e-18
4.316745939156006 1.0142709586733945e-23 1.1621974355672727e-15 1.1603177069237337e-15 1.879728643539286e-18
4.448215356677963 1.0573886313799982e-23 1.24850381825154e-15 1.2463788639778644e-15 2.1249542736754104e-18
4.58368876423945 1.1088696894702059e-23 1.3491650007999816e-15 1.3467765617449587e-15 2.388439055022886e-18
4.723288106065518 1.1698249288306877e-23 1.4666778793965115e-15 1.4640050956283883e-15 2.67278376812321e-18
4.867139040275056 1.2424905658809628e-23 1.605226371300845e-15 1.6022539260123642e-15 2.972445288480806e-18
4.940699165968905 1.2860666263716022e-23 1.6866357925666121e-15 1.6835066198079063e-15 3.1291727587058097e-18
5.015371051989984 1.3310768662489564e-23 1.7720486364939151e-15 1.7687583892831351e-15 3.2902472107801146e-18
5.091171501069577 1.3858070074168102e-23 1.8727935847028506e-15 1.869334711195644e-15 3.4588735072055318e-18
5.129500256944802 1.4138462693429097e-23 1.9250706786065007e-15 1.921525878747025e-15 3.544799859476154e-18
5.168117569889187 1.4430431875558527e-23 1.9796168731914624e-15 1.975984388033272e-15 3.632485158190463e-18
5.20702561229733 1.4788374498223972e-23 2.043993860459836e-15 2.0402664831596602e-15 3.727377300175975e-18
5.246226572918644 1.5155034153874157e-23 2.1104418744793227e-15 2.1066182199409063e-15 3.823654538417198e-18
5.265937586045735 1.5341719805920866e-23 2.1444661094090353e-15 2.140593799630565e-15 3.872309778470403e-18
5.285722656980489 1.5530690587880633e-23 2.17903683843707e-15 2.175115530569796e-15 3.921307867272916e-18
5.305582063971359 1.5721983434257636e-23 2.2141640940002767e-15 2.2101934464166746e-15 3.970647583601588e-18
5.3255160863122235 1.5927442066335277e-23 2.2515270448679185e-15 2.2475064003530898e-15 4.0206445148290565e-18
5.365609099470188 1.6439192828343438e-23 2.3413640866108716e-15 2.337239957699891e-15 4.124128910980313e-18
5.406003951863644 1.6969870343364554e-23 2.4351421391034895e-15 2.430913013787792e-15 4.2291253156977965e-18
5.446702915881641 1.752039288572398e-23 2.5330686596779126e-15 2.5287330334427245e-15 4.335626235188759e-18
5.487708281020852 1.8114851094176637e-23 2.6387316020711053e-15 2.6342876038920402e-15 4.4439981790657076e-18
5.529022354014368 1.8941916501401928e-23 2.779980161451822e-15 2.775422994778691e-15 4.557166673131395e-18
5.570647458961463 1.9816893709958524e-23 2.930290572465233e-15 2.9256185671637124e-15 4.672005301520535e-18
5.612585937458331 2.0743239264977399e-23 3.0903595711779603e-15 3.08557106236594e-15 4.788508812020285e-18
5.654840148729818 2.1760935827356708e-23 3.2663847105830794e-15 3.261477564606495e-15 4.9071459765835505e-18
5.67608639626678 2.2454951845790182e-23 3.3832224842625804e-15 3.378253327586676e-15 4.9691566759054695e-18
5.686739436050992 2.281255962374619e-23 3.443553062070927e-15 3.4385527238025886e-15 5.0003382683380976e-18
5.6974124697621304 2.317745948869096e-23 3.505200988337101e-15 3.5001693510181957e-15 5.031637318904968e-18
5.718818669136295 2.392983824443883e-23 3.632582800258138e-15 3.627488212586091e-15 5.094587672047082e-18
5.740305295436557 2.475922786323268e-23 3.772606603069581e-15 3.767448191608338e-15 5.158411461242077e-18
5.7835210386641895 2.6912368995069825e-23 4.1315563606504106e-15 4.126265718141135e-15 5.290642509275366e-18
5.827062130521658 2.939119562280146e-23 4.546072266142703e-15 4.5406463425749745e-15 5.425923567727649e-18
5.8489554468988025 3.113212889977921e-23 4.833442608551784e-15 4.827943959767393e-15 5.498648784391518e-18
5.870931020387893 3.29993734109233e-23 5.1425924086465326e-15 5.1370203956364584e-15 5.572013010075107e-18
5.892989160043636 3.500308153313649e-23 5.475343307191253e-15 5.4696972894175534e-15 5.646017773700194e-18
5.915130176081913 3.728179185162201e-23 5.853700754088971e-15 5.847978098441548e-15 5.7226556474235714e-18
5.95966208400165 4.3656965505132074e-23 6.9062868775465765e-15 6.900391636183561e-15 5.8952413630166494e-18
6.004529249263818 5.284604076660911e-23 8.422884651226576e-15 8.41679621340959e-15 6.08843781698649e-18
6.027089341400364 5.923501100900425e-23 9.476665156289083e-15 9.470466121583548e-15 6.199034705534638e-18
6.049734195844842 6.678283244572574e-23 1.0724339685590017e-14 1.0718023675218875e-14 6.316010371141467e-18
6.095279466722835 8.858842916173315e-23 1.43330975491978e-14 1.4326497635365376e-14 6.599913832429525e-18
6.141167624020661 1.221412584586152e-22 1.9910527908163776e-14 1.9903563986856916e-14 6.963921306862197e-18
6.164241091010745 1.4357076451466103e-22 2.3491733329256184e-14 2.348454313175887e-14 7.19019749732242e-18
6.187401249150058 1.6797197087952684e-22 2.7587638830864806e-14 2.7580215646503448e-14 7.423184361361746e-18
6.1990139391386085 1.7988621104813711e-22 2.9599877947156226e-14 2.959233607569176e-14 7.541871464464972e-18
6.204828454712694 1.8616130320663279e-22 3.0661162906927266e-14 3.0653561020796964e-14 7.601886130307524e-18
6.210648424152782 1.907417976311657e-22 3.1445047094631536e-14 3.143739354962294e-14 7.653545008582589e-18
6.233982942956859 2.0629966348277967e-22 3.4137645348252405e-14 3.412980943719316e-14 7.835911059248652e-18
6.239830258556775 2.0828616132738682e-22 3.4498691648851146e-14 3.449082874595723e-14 7.862902893916298e-18
6.245683058788269 2.0845485781372685e-22 3.4559018147644444e-14 3.455112818444084e-14 7.889963203597026e-18
6.257405133728602 2.0801927573813613e-22 3.455153029649702e-14 3.454359197271907e-14 7.938323777956157e-18
6.269149208991335 2.049492696639895e-22 3.410549950150839e-14 3.409753862158471e-14 7.96087992366565e-18
6.280915325867298 1.9726242002523124e-22 3.2887944316694215e-14 3.287999286953021e-14 7.951447164002786e-18
6.304513850009849 1.7831065513282995e-22 2.9839966541565086e-14 2.983206298906958e-14 7.903552495508954e-18
6.32820103803542 1.5482760629035395e-22 2.60074696363021e-14 2.59996448662409e-14 7.824770061201813e-18
6.3519772230701035 1.3329324512746656e-22 2.2474317218029905e-14 2.246656144403318e-14 7.755773996727e-18
6.375842739491607 1.1517304311787996e-22 1.9492065929088168e-14 1.9484369189492693e-14 7.696739595482881e-18
6.399797922933955 1.0065412503060742e-22 1.709886455343562e-14 1.7091189839822604e-14 7.67471361302036e-18
6.42384311029221 8.8579526689768e-23 1.5104199526984793e-14 1.5096539476631572e-14 7.660050353221033e-18
6.447978639727206 7.978099492294796e-23 1.3655024104439512e-14 1.3647349644611113e-14 7.674459828399771e-18
6.472204850670314 7.244919053860314e-23 1.2446728751990063e-14 1.2439034000250885e-14 7.694751739181044e-18
6.496522083828205 6.768316551530661e-23 1.1671616638256237e-14 1.1663877841416747e-14 7.738796839491269e-18
