Dust emission spectrum from A.P. Jones, M. Kohler, N. Ysard, M. Bocchio, and L. Verstraete (2017), A&A, 602A, 46J 
inside the DustPedia framework.

lambda    nu*dP/dnu     j_nu    j_nu(carb.) j_nu(sil)
 (um)   (erg s-1 H-1) (Jy cm2 sr-1 H-1)
0.9927057738263894 9.583465895556278e-22 2.52529769647868e-14 2.525297655306302e-14 4.117237856469426e-22
1.0001793341362166 9.74471427760162e-22 2.5871190847264565e-14 2.587119035175067e-14 4.955138872875121e-22
1.0077091589558085 9.906571250823565e-22 2.6498909768024922e-14 2.649890917246128e-14 5.955636397385049e-22
1.0114953028030835 9.987719976044255e-22 2.6816349734772434e-14 2.6816349082171855e-14 6.526005700090566e-22
1.0152956718711033 1.0069011390764758e-21 2.713618554112369e-14 2.7136184826262035e-14 7.148616518227225e-22
1.0229392996569957 1.0231931085009935e-21 2.7782856978141282e-14 2.7782856121216975e-14 8.56924305906711e-22
1.0267826658714554 1.0313373962878787e-21 2.810921562012432e-14 2.810921468234371e-14 9.377806099001698e-22
1.0306404723013447 1.0394943700324912e-21 2.8437981500354947e-14 2.8437980474430573e-14 1.0259243766434038e-21
1.03451277320114 1.0476637544390649e-21 2.876916184492432e-14 2.876916072294517e-14 1.1219791486638735e-21
1.0383996230291617 1.0558452816286628e-21 2.910276405276796e-14 2.9102762826149204e-14 1.2266187591658263e-21
1.0403485208654093 1.0599405171298729e-21 2.9270475716928984e-14 2.927047443454584e-14 1.2823831303871294e-21
1.0423010764483396 1.0640386913296647e-21 2.94387957041353e-14 2.943879436356418e-14 1.3405711218200717e-21
1.0462171883269815 1.0722437310668392e-21 2.9777264569176144e-14 2.977726310455385e-14 1.4646222843116579e-21
1.0471985131304309 1.0742967793648701e-21 2.986226352942167e-14 2.986226203211066e-14 1.4973110103847996e-21
1.048180758391296 1.0763505354784956e-21 2.994741543906087e-14 2.994741390836336e-14 1.530697511951574e-21
1.0501480137395462 1.080460156348895e-21 3.011817861664194e-14 3.011817701702117e-14 1.5996207623221203e-21
1.0521189612883777 1.084572564394623e-21 3.0289555130490917e-14 3.0289553458982304e-14 1.6715086203942521e-21
1.0531058218030118 1.0866270659601923e-21 3.0375397158145787e-14 3.0375395449541375e-14 1.708604419017615e-21
1.0540936079674168 1.088673281378794e-21 3.0461141725531745e-14 3.0461139979036186e-14 1.746495552487697e-21
1.058054026499678 1.0968645698238667e-21 3.0805643537488976e-14 3.0805641631232643e-14 1.906256335059138e-21
1.0590464539527713 1.0989139816908725e-21 3.0892150536405876e-14 3.0892148588077036e-14 1.948328845138058e-21
1.06003981227728 1.100964022805155e-21 3.0978810421021373e-14 3.097880842973269e-14 1.9912886937125977e-21
1.0620293250338977 1.105065979741791e-21 3.1152589389443734e-14 3.115258730950189e-14 2.079941854727076e-21
1.0660195594769086 1.1132773031679044e-21 3.1501987971008346e-14 3.150198570230701e-14 2.2687013207481786e-21
1.070024785945596 1.1214983411278339e-21 3.185384821774972e-14 3.185384574397663e-14 2.4737730794996815e-21
1.0740450607676866 1.1297289038127354e-21 3.220817932055502e-14 3.220817662406397e-14 2.696491050997129e-21
1.07808044048254 1.1379688107523158e-21 3.25649907350963e-14 3.2564987796804716e-14 2.9382915926008072e-21
1.0861967418109137 1.1544633037529455e-21 3.32857281261483e-14 3.328572464070552e-14 3.485442778481101e-21
1.0902777775684922 1.1626887475225986e-21 3.3648837334176185e-14 3.364883353992856e-14 3.794247619835468e-21
1.0943741465085532 1.1709224111179013e-21 3.401444398036011e-14 3.401443985130136e-14 4.129058739167269e-21
1.1026131145906286 1.1874138928277366e-21 3.4753193037433466e-14 3.4753188152306186e-14 4.885127290844842e-21
1.1109141095355224 1.2039368439635364e-21 3.5502065513623215e-14 3.550205974151404e-14 5.772109178243404e-21
1.1192775983109025 1.2204775097492581e-21 3.626077029352836e-14 3.626076348224e-14 6.811288358838235e-21
1.1277040513999907 1.2369754792217717e-21 3.702760859838243e-14 3.702760057121287e-14 8.02716955046407e-21
1.1361939428280308 1.2535013120317602e-21 3.7804778303352534e-14 3.780476885542605e-14 9.447926493453915e-21
1.1447477501889525 1.2700548347875163e-21 3.85923925627277e-14 3.859238145682003e-14 1.1105907663052394e-20
1.1533659546722406 1.2866420662530685e-21 3.93907551911408e-14 3.9390742152917666e-14 1.3038223120343683e-20
1.1707974979042381 1.3199678135620203e-21 4.102178556410127e-14 4.1021767662014705e-14 1.790208656551168e-20
1.1884924949847024 1.3534302787096446e-21 4.2697432918274993e-14 4.2697408461002e-14 2.445727299592026e-20
1.2064549276569216 1.3872562683740535e-21 4.442600186652267e-14 4.4425968618724825e-14 3.324779785453898e-20
1.2246888378427687 1.4212212783446111e-21 4.620158701059508e-14 4.6201542034232494e-14 4.4976362582497696e-20
1.2431983285522175 1.4552955051866852e-21 4.802429947759529e-14 4.802423893015764e-14 6.054743763973781e-20
1.2619875648066055 1.489526075814202e-21 4.9896791364081615e-14 4.989671024481141e-14 8.11192702129467e-20
1.3004222497298317 1.5582320861764203e-21 5.378807074181403e-14 5.378792718568445e-14 1.4355612956600636e-19
1.3400274889804893 1.627524998298352e-21 5.789096759117125e-14 5.789071819861611e-14 2.4939255514416954e-19
1.3808389325824078 1.6976358377685787e-21 6.222386610192129e-14 6.222344058859744e-14 4.2551332384931755e-19
1.4228933163050095 1.76913471699503e-21 6.681941629076867e-14 6.681870290264952e-14 7.133881191622694e-19
1.466228494730424 1.8432605457249473e-21 7.173941248634147e-14 7.173823667179754e-14 1.1758145439650425e-18
1.5108834753276823 1.9198131430197584e-21 7.699444005054289e-14 7.699253396067019e-14 1.906089872697332e-18
1.5568984535646726 1.998670068465397e-21 8.259824674542794e-14 8.259520447703386e-14 3.0422683940817328e-18
1.6043148490894465 2.0802440105795187e-21 8.858767762103038e-14 8.858288787614635e-14 4.78974488399254e-18
1.6531753430134553 2.164959375474573e-21 9.500317150675914e-14 9.49957417703872e-14 7.42973637195883e-18
1.7035239163302658 2.253310915863204e-21 1.0189169543667605e-13 1.0188033795635054e-13 1.1357480325523715e-17
1.755405889504358 2.34689190528414e-21 1.0935535913501533e-13 1.0933824107427106e-13 1.7118060744268252e-17
1.8088679632656115 2.4455413373474607e-21 1.1742249614374235e-13 1.1739704871933226e-13 2.5447424410109747e-17
1.8639582606462262 2.5490244984633232e-21 1.261187406673198e-13 1.260814138258385e-13 3.7326841481302685e-17
1.9207263702978936 2.65743364842069e-21 1.354869173902173e-13 1.3543287321333035e-13 5.404417688698057e-17
1.979223391128241 2.770980028076674e-21 1.455786352184553e-13 1.4550136842048971e-13 7.726679796556544e-17
2.039501978296691 2.889765694079196e-21 1.5644302142111805e-13 1.563339009408141e-13 1.0912048030398513e-16
2.1016163906111602 3.0147362152939024e-21 1.6817916735212913e-13 1.6802687912054823e-13 1.5228823158091096e-16
2.1656225393682647 3.146094292958101e-21 1.80852256066177e-13 1.806421587676172e-13 2.1009729855982932e-16
2.231578038680979 3.283002728697842e-21 1.9447006329198085e-13 1.9418344648188553e-13 2.866168100952742e-16
2.299542257339062 3.425047817706644e-21 2.090631390357335e-13 2.08676379997369e-13 3.8675903836450376e-16
2.369576372248914 3.572112184070455e-21 2.2468042331440243e-13 2.2416403687037922e-13 5.163864440231981e-16
2.4417434235010123 3.724143061604456e-21 2.4137696128804817e-13 2.406945710106107e-13 6.823902774374654e-16
2.5161083711144245 3.881744909244184e-21 2.592541802896677e-13 2.583613851051972e-13 8.927951844704595e-16
2.5927381535095444 4.046414384127787e-21 2.784828452543031e-13 2.77326027168557e-13 1.1568180857461572e-15
2.6717017477616296 4.2193736868956545e-21 2.9923018273076894e-13 2.9774533764683607e-13 1.4848450839329358e-15
2.753070231689431 4.402818760884858e-21 3.2174924164539987e-13 3.198608036625424e-13 1.888437982857479e-15
2.836916847834745 4.603946130473143e-21 3.4669395791502266e-13 3.4431357625949766e-13 2.3803816555251056e-15
2.9233170693905177 4.839575278501598e-21 3.7553688977777834e-13 3.725628796660733e-13 2.9740101117051654e-15
2.967498994190263 4.987435624694157e-21 3.9285955154151594e-13 3.8955259674478936e-13 3.30695479672676e-15
3.0123486681368425 5.146148938219667e-21 4.114878560642541e-13 4.0781548977403425e-13 3.6723662902199565e-15
3.0578761833420214 5.418941615887524e-21 4.3984919487571065e-13 4.3577514543386923e-13 4.0740494418413435e-15
3.1040917844459814 5.7418089194626525e-21 4.730997548614125e-13 4.685890407074721e-13 4.510714153940418e-15
3.127460860933648 6.049996452612336e-21 5.022459419436272e-13 4.975016067490303e-13 4.744335194597022e-15
3.1510058709225794 6.444648100773925e-21 5.390361029078534e-13 5.340483820776606e-13 4.987720830192889e-15
3.162844764501044 6.80537965996834e-21 5.713466280476784e-13 5.662330050327092e-13 5.113623014969015e-15
3.1747281389236908 7.214727291129623e-21 6.079892413046876e-13 6.027471916195541e-13 5.2420496851333476e-15
3.1986289994194426 8.327908719970128e-21 7.070811502116519e-13 7.015738810924692e-13 5.507269119182823e-15
3.2227097969389145 1.09187716552046e-20 9.340377221154397e-13 9.282495504502182e-13 5.7881716652216455e-15
3.2348180950136065 1.3354668522038029e-20 1.146706857513897e-12 1.1407688139074134e-12 5.938043606482724e-15
3.240889293275058 1.517548644172921e-20 1.3054981181978034e-12 1.299481020880474e-12 6.017097317329275e-15
3.2469718861334385 1.7285937013267797e-20 1.4898443130791366e-12 1.48374541852195e-12 6.098894557186619e-15
3.2714166318528037 2.8374117138494045e-20 2.463925928021412e-12 2.457489114301403e-12 6.436813720009773e-15
3.2744851364798273 2.906683419172604e-20 2.5264469867246025e-12 2.5199703795569093e-12 6.476607167693001e-15
3.2775565192852394 2.9778185230972543e-20 2.5907043221294053e-12 2.5841877253490614e-12 6.516596780344617e-15
3.283707930232385 2.909292029378181e-20 2.535836636145935e-12 2.5292485843135984e-12 6.588051832336873e-15
3.2898708863219004 2.691776429925389e-20 2.3506462296397273e-12 2.3439932042395198e-12 6.653025400208039e-15
3.29141343181113 2.6403724854594662e-20 2.3068378500706224e-12 2.300168510874512e-12 6.669339196109328e-15
3.292184975758714 2.6150981773925978e-20 2.285291791529687e-12 2.2786142848635962e-12 6.677506666091648e-15
3.295272960557952 2.4574220205942374e-20 2.1495154617988082e-12 2.142806195515547e-12 6.709266283261925e-15
3.3076538914384823 1.9071948686696847e-20 1.6744977252081245e-12 1.6676609245380226e-12 6.836800670102158e-15
3.310756385682612 1.7940835176730236e-20 1.5766645927701895e-12 1.569795651701833e-12 6.86894106835643e-15
3.313861789986515 1.689280067136201e-20 1.4859543994822656e-12 1.4790532151418566e-12 6.901184340409486e-15
3.3200813396944477 1.5428144937398882e-20 1.3596648393402326e-12 1.3526942777202626e-12 6.97056161997013e-15
3.345076488085796 1.2862300262203533e-20 1.14207369708153e-12 1.1347938965895043e-12 7.279800492025476e-15
3.3482140837626964 1.2964732013366264e-20 1.1522486183944154e-12 1.1449269240128968e-12 7.32169438151847e-15
3.3513546224236106 1.3068112274909804e-20 1.1625260010650552e-12 1.1551622270384757e-12 7.363774026579479e-15
3.3576445397418455 1.3800475034452813e-20 1.229980386220666e-12 1.22252862406511e-12 7.451762155556445e-15
3.3702598118196083 1.6459638821090027e-20 1.4724925829844281e-12 1.4648562675589007e-12 7.63631542552764e-15
3.382922481734668 1.7090100822624e-20 1.5346385523561983e-12 1.5268229286445156e-12 7.815623711682685e-15
3.389271646505754 1.7415253344103806e-20 1.5667713020888937e-12 1.5588648081642826e-12 7.90649392461132e-15
3.395632727569191 1.7772709688821285e-20 1.6019309442448585e-12 1.5939308030524608e-12 8.000141192398215e-15
3.421196662673239 1.950748061956171e-20 1.771530593849594e-12 1.7631428781453217e-12 8.387715704272066e-15
3.4276182099114902 1.918941023671644e-20 1.7459166309298267e-12 1.7374425027292866e-12 8.474128200540635e-15
3.4340518103208963 1.775360326127838e-20 1.6183139832547266e-12 1.6097581634034441e-12 8.555819851282368e-15
3.4469541582030403 1.5693217066945248e-20 1.4358759540059976e-12 1.427163417733689e-12 8.712536272308405e-15
3.472904465399547 1.5115586327810287e-20 1.3934367737124426e-12 1.3843631127174016e-12 9.07366099504128e-15
3.4990501388274233 1.424461954687299e-20 1.3230323183984406e-12 1.3135892977631952e-12 9.443020635245116e-15
3.5253949054701885 1.1171851461707949e-20 1.0454478129424953e-12 1.0356462550602166e-12 9.801557882278822e-15
3.5519380250092896 8.247737548922755e-21 7.77623981227315e-13 7.674622999715731e-13 1.0161681255741959e-14
3.578680990867387 7.102643440716276e-21 6.747026761035946e-13 6.641463245355431e-13 1.0556351568051738e-14
3.605625307711299 6.657589535583323e-21 6.371871989082467e-13 6.262153370896046e-13 1.0971861818642006e-14
3.660119384959845 6.366892391600649e-21 6.18574758434342e-13 6.067306457646779e-13 1.1844112669664194e-14
3.715437065384467 6.166257776196359e-21 6.081364275115603e-13 5.953738330091815e-13 1.2762594502378822e-14
3.8285932144167436 6.126284773775637e-21 6.225953016345781e-13 6.078623698292238e-13 1.473293180535436e-14
3.94519561050918 6.173864557816445e-21 6.465395133605919e-13 6.296636526968715e-13 1.6875860663720303e-14
4.06534921144712 6.2498390047409415e-21 6.744288198133898e-13 6.55241409235366e-13 1.9187410578023794e-14
4.189162171576248 6.33690522895295e-21 7.046505874735576e-13 6.829802903632814e-13 2.1670297110276157e-14
4.316745939156006 6.428000540482226e-21 7.36549309638579e-13 7.122359276026142e-13 2.4313382035964724e-14
4.448215356677963 6.5202512199106695e-21 7.698738479336103e-13 7.42796058901446e-13 2.707778903216427e-14
4.58368876423945 6.61340632636673e-21 8.046550858348545e-13 7.746901311071388e-13 2.9964954727715745e-14
4.723288106065518 6.7090355067883366e-21 8.411509899800049e-13 8.081599610938382e-13 3.299102888616672e-14
4.867139040275056 6.809637444278595e-21 8.797660042435238e-13 8.436938464864216e-13 3.6072157757101865e-14
4.940699165968905 6.866774445199732e-21 9.005557971309273e-13 8.629135157218378e-13 3.7642281409089694e-14
5.015371051989984 6.92170544306931e-21 9.21479367842112e-13 8.822524998030594e-13 3.92268680390525e-14
5.091171501069577 6.989772771807234e-21 9.446049511592664e-13 9.037442999942236e-13 4.086065116504284e-14
5.129500256944802 7.022901668437235e-21 9.562271637162128e-13 9.145460654820072e-13 4.1681098234205504e-14
5.168117569889187 7.056789793317943e-21 9.680749866591778e-13 9.255628529235184e-13 4.251213373565917e-14
5.20702561229733 7.101801909368893e-21 9.815845211855624e-13 9.381633218552094e-13 4.34211993303528e-14
5.246226572918644 7.146624451304518e-21 9.952162001136268e-13 9.508812678065747e-13 4.433493230705205e-14
5.265937586045735 7.168972440828886e-21 1.0020792084021596e-12 9.57285788137193e-13 4.479342026496638e-14
5.285722656980489 7.191282620005028e-21 1.008974433939939e-12 9.63721514312723e-13 4.5252919627216176e-14
5.305582063971359 7.213558407494109e-21 1.0159024834643223e-12 9.701891057799005e-13 4.571337768442203e-14
5.3255160863122235 7.23798431943948e-21 1.023172294564029e-12 9.769937278807199e-13 4.617856668330899e-14
5.365609099470188 7.303674914122614e-21 1.0402312523960238e-12 9.930901097258487e-13 4.7141142670175385e-14
5.406003951863644 7.37024253990591e-21 1.0576149269965256e-12 1.0095065711613523e-12 4.8108355835173574e-14
5.446702915881641 7.437779674361657e-21 1.0753415584685035e-12 1.0262617741474625e-12 4.9079784321040853e-14
5.487708281020852 7.510549109777331e-21 1.094037327817032e-12 1.0439779841514776e-12 5.005934366555442e-14
5.529022354014368 7.621604343065638e-21 1.1185726043396591e-12 1.0674921966891918e-12 5.1080407650467153e-14
5.570647458961463 7.736798281182224e-21 1.1440272827936026e-12 1.0919211003058202e-12 5.210618248778231e-14
5.612585937458331 7.856503548426304e-21 1.1704739373982869e-12 1.1173376990033387e-12 5.313623839494798e-14
5.654840148729818 7.987404006519288e-21 1.1989343900985054e-12 1.144758913799921e-12 5.4175476298584335e-14
5.67608639626678 8.082721219989546e-21 1.2178001695702423e-12 1.1630805466378572e-12 5.4719622932385423e-14
5.686739436050992 8.131490318078829e-21 1.2274474607782829e-12 1.172455270292081e-12 5.499219048620214e-14
5.6974124697621304 8.18102508965029e-21 1.2372424701613586e-12 1.1819773916883788e-12 5.5265078472979545e-14
5.718818669136295 8.282470597700157e-21 1.2572905813035043e-12 1.2014787928918784e-12 5.5811788411625554e-14
5.740305295436557 8.3950668378294e-21 1.279170932169389e-12 1.2228069633691138e-12 5.636396880027495e-14
5.7835210386641895 8.696391510472133e-21 1.3350601601211492e-12 1.2775551311640349e-12 5.750502895711433e-14
5.827062130521658 9.039554452956762e-21 1.3981897274363605e-12 1.3395274832555557e-12 5.866224418080442e-14
5.8489554468988025 9.289454084093203e-21 1.4422413361059905e-12 1.3829527360467453e-12 5.928860005924525e-14
5.870931020387893 9.554544952997188e-21 1.488971615657735e-12 1.4290543990954592e-12 5.991721656227626e-14
5.892989160043636 9.836027977553408e-21 1.538596820547336e-12 1.4780487800181387e-12 6.054804052919689e-14
5.915130176081913 1.0156427787735767e-20 1.594684323021144e-12 1.5334819165629247e-12 6.120240645821934e-14
5.95966208400165 1.1068879637717628e-20 1.7510346242943827e-12 1.6883323140671168e-12 6.270231022726626e-14
6.004529249263818 1.2387064460090944e-20 1.9743165921443716e-12 1.909921494664003e-12 6.439509748036852e-14
6.027089341400364 1.3308368204600757e-20 2.1291284850514224e-12 2.0637508691870747e-12 6.537761586434779e-14
6.049734195844842 1.4389620493068085e-20 2.310761201088682e-12 2.24434189128567e-12 6.641930980301177e-14
6.095279466722835 1.7519844847279176e-20 2.83460997806398e-12 2.7656150242480933e-12 6.899495381588751e-14
6.141167624020661 2.2308755924016917e-20 3.6366016940299732e-12 3.564245132476905e-12 7.235656155306859e-14
6.164241091010745 2.5363083722410915e-20 4.150028741775154e-12 4.075553293286706e-12 7.447544848844822e-14
6.187401249150058 2.8802948386335854e-20 4.730582925148757e-12 4.653933373575577e-12 7.664955157318002e-14
6.1990139391386085 3.0473884547373624e-20 5.014410264812404e-12 4.936654782318066e-12 7.775548249433803e-14
6.204828454712694 3.135075606384022e-20 5.163536257918151e-12 5.08522235897117e-12 7.831389894698088e-14
6.210648424152782 3.198421793012049e-20 5.272809901070506e-12 5.194022261800196e-12 7.87876392703093e-14
6.233982942956859 3.4106093148734884e-20 5.643740239174746e-12 5.563309521507583e-12 8.043071766716424e-14
6.239830258556775 3.4359807139884755e-20 5.691056880969164e-12 5.610404641487002e-12 8.065223948216213e-14
6.245683058788269 3.435334620577056e-20 5.6953238097162636e-12 5.6144497584106025e-12 8.08740513056606e-14
6.257405133728602 3.422968954394249e-20 5.685473863518477e-12 5.604215356600386e-12 8.125850691809059e-14
6.269149208991335 3.373026127733044e-20 5.613034928427798e-12 5.5316534727909824e-12 8.138145563681435e-14
6.280915325867298 3.257451991938138e-20 5.430882360231783e-12 5.349701092762973e-12 8.118126746881084e-14
6.304513850009849 2.976488231005391e-20 4.981099371677996e-12 4.900610519348129e-12 8.048885232986673e-14
6.32820103803542 2.6339864587208877e-20 4.42449021133528e-12 4.345004464449261e-12 7.948574688601889e-14
6.3519772230701035 2.3214013880469696e-20 3.914070149275099e-12 3.835488332951617e-12 7.858181632348168e-14
6.375842739491607 2.0578489413881865e-20 3.4827357297999293e-12 3.4049559514410885e-12 7.777977835884012e-14
6.399797922933955 1.8480146451424327e-20 3.139359872280155e-12 3.0620142653647573e-12 7.73456069153972e-14
6.42384311029221 1.6728234295611726e-20 2.85242649150727e-12 2.7754416120898794e-12 7.698487941739064e-14
6.447978639727206 1.545077777945933e-20 2.6444987708491172e-12 2.567588212591715e-12 7.691055825740241e-14
6.472204850670314 1.4380811142322765e-20 2.470614981222107e-12 2.3937220724555044e-12 7.689290876660225e-14
6.496522083828205 1.367709790614056e-20 2.358545766425011e-12 2.2814388600294447e-12 7.71069063955658e-14
6.520930681187647 1.3079384441726303e-20 2.2639473450749096e-12 2.186591786643796e-12 7.735555843111343e-14
6.57002334288761 1.2432800118196883e-20 2.1682297408832844e-12 2.0900576485626985e-12 7.817209232058591e-14
