Dust emission spectrum from A.P. Jones, M. Kohler, N. Ysard, M. Bocchio, and L. Verstraete (2017), A&A, 602A, 46J 
inside the DustPedia framework.

lambda    nu*dP/dnu     j_nu    j_nu(carb.) j_nu(sil)
 (um)   (erg s-1 H-1) (Jy cm2 sr-1 H-1)
0.9927057738263894 7.781849563081984e-24 2.0505615598952244e-16 2.0505615598923604e-16 2.863970799309764e-28
1.0001793341362166 7.910342087597002e-24 2.1001125737032887e-16 2.1001125736998387e-16 3.4500230437414035e-28
1.0077091589558085 8.038649518377564e-24 2.150243942641157e-16 2.150243942637006e-16 4.150659446471712e-28
1.0114953028030835 8.102718021651606e-24 2.1755247523160042e-16 2.1755247523114534e-16 4.550453252409757e-28
1.0152956718711033 8.166721339361253e-24 2.2009476097208903e-16 2.2009476097159028e-16 4.987144307338825e-28
1.0229392996569957 8.294444583508559e-24 2.2521981985819167e-16 2.252198198575932e-16 5.984537177107706e-28
1.0267826658714554 8.358009535841734e-24 2.277984809274309e-16 2.2779848092677563e-16 6.55275935064812e-28
1.0306404723013447 8.42148119938518e-24 2.303907875385771e-16 2.3039078753785984e-16 7.172609655336606e-28
1.03451277320114 8.48485344946597e-24 2.3299662805347966e-16 2.329966280526948e-16 7.848549949185146e-28
1.0383996230291617 8.548120195500182e-24 2.356158894422521e-16 2.3561588944139356e-16 8.585406361518511e-28
1.0403485208654093 8.579712110801462e-24 2.369305172685317e-16 2.3693051726763386e-16 8.978292699592172e-28
1.0423010764483396 8.611275382160678e-24 2.382484573100319e-16 2.382484573090931e-16 9.38839715462836e-28
1.0462171883269815 8.674312990519121e-24 2.4089421592377504e-16 2.4089421592274873e-16 1.0263162560619512e-27
1.0471985131304309 8.690053319212156e-24 2.415577029435566e-16 2.415577029425073e-16 1.049377240056132e-27
1.048180758391296 8.705785832147961e-24 2.4222200523449645e-16 2.422220052334235e-16 1.0729346513277573e-27
1.0501480137395462 8.737227039162053e-24 2.4355304823907074e-16 2.435530482379492e-16 1.1215796721328299e-27
1.0521189612883777 8.768635869925296e-24 2.4488733010644767e-16 2.4488733010527527e-16 1.1723351482840026e-27
1.0531058218030118 8.784303783183367e-24 2.455550064328807e-16 2.455550064316822e-16 1.1985330913755494e-27
1.0540936079674168 8.79988426817759e-24 2.4622127358700887e-16 2.4622127358578357e-16 1.2252973216901828e-27
1.058054026499678 8.862117394195832e-24 2.488941998343661e-16 2.4889419983302795e-16 1.3381949523834533e-27
1.0590464539527713 8.877653017146429e-24 2.4956438628042903e-16 2.495643862790611e-16 1.3679394966112097e-27
1.06003981227728 8.893179395231509e-24 2.5023535085466423e-16 2.5023535085326587e-16 1.3983168901719908e-27
1.0620293250338977 8.924204055261445e-24 2.515796067001615e-16 2.5157960669870054e-16 1.4610217289951336e-27
1.0660195594769086 8.986138469487055e-24 2.542773711150584e-16 2.542773711134637e-16 1.5946061245501235e-27
1.070024785945596 9.047914898807113e-24 2.5698736886572564e-16 2.569873688639858e-16 1.7398417281218536e-27
1.0740450607676866 9.109527649921395e-24 2.597094746217601e-16 2.597094746198624e-16 1.8976920233970553e-27
1.07808044048254 9.170971075212574e-24 2.6244356196255777e-16 2.6244356196048854e-16 2.0691954908564263e-27
1.0861967418109137 9.293218940649856e-24 2.679440377789954e-16 2.679440377765377e-16 2.457724215324512e-27
1.0902777775684922 9.353765249691241e-24 2.7070299426185244e-16 2.707029942591752e-16 2.677253121786143e-27
1.0943741465085532 9.414115799600021e-24 2.734732134680059e-16 2.7347321346509046e-16 2.9154537880119176e-27
1.1026131145906286 9.534208173773001e-24 2.790469095263303e-16 2.7904690952287625e-16 3.4539951907593806e-27
1.1109141095355224 9.653453686305986e-24 2.8466405602779483e-16 2.8466405602370804e-16 4.0867824537079846e-27
1.1192775983109025 9.771700020075604e-24 2.9032027790337855e-16 2.903202778985492e-16 4.829335623083173e-27
1.1277040513999907 9.888397617911847e-24 2.959991712136218e-16 2.9599917120792234e-16 5.6995605473384336e-27
1.1361939428280308 1.0004110600481442e-23 3.0171742122902337e-16 3.017174212223053e-16 6.718085259896731e-27
1.1447477501889525 1.011880039345415e-23 3.074739029778971e-16 3.0747390296998837e-16 7.908644626268562e-27
1.1533659546722406 1.0232491872461952e-23 3.132693955182778e-16 3.132693955089793e-16 9.298524719830727e-27
1.1707974979042381 1.0457247522792202e-23 3.2498895886945427e-16 3.249889588566481e-16 1.2806178292240097e-26
1.1884924949847024 1.067752588837406e-23 3.3684996746685196e-16 3.36849967449302e-16 1.7549934769951055e-26
1.2064549276569216 1.0895051050009382e-23 3.4890709764164975e-16 3.48907097617716e-16 2.3933804453636768e-26
1.2246888378427687 1.1107445772869107e-23 3.6108495570683735e-16 3.6108495567435537e-16 3.248198840242759e-26
1.2431983285522175 1.1314213141119785e-23 3.733655180724129e-16 3.7336551802854056e-16 4.3872309799666354e-26
1.2619875648066055 1.151527604017638e-23 3.857437176871278e-16 3.8574371762815105e-16 5.897675143979225e-26
1.3004222497298317 1.1896945126644543e-23 4.106665058179185e-16 4.106665057128248e-16 1.0509367017870327e-25
1.3400274889804893 1.2250961017470085e-23 4.3576595626155264e-16 4.357659560776746e-16 1.8387799639915935e-25
1.3808389325824078 1.2576012731122142e-23 4.609517040509578e-16 4.60951703734919e-16 3.160388581242461e-25
1.4228933163050095 1.2873686371528813e-23 4.862332984551314e-16 4.862332979212789e-16 5.3385260584308085e-25
1.466228494730424 1.315115448314096e-23 5.118408780168354e-16 5.118408771301116e-16 8.867237665390183e-25
1.5108834753276823 1.3403020713950195e-23 5.375304771761331e-16 5.375304757272535e-16 1.4488796286941555e-24
1.5568984535646726 1.3624919708576422e-23 5.630716633684974e-16 5.630716610371654e-16 2.3313319726586294e-24
1.6043148490894465 1.381726026625301e-23 5.884112593751436e-16 5.884112556743255e-16 3.70081799215329e-24
1.6531753430134553 1.3980630825027743e-23 6.13500781164378e-16 6.135007753751814e-16 5.789196391495464e-24
1.7035239163302658 1.4116977408737462e-23 6.3835077196459e-16 6.383507630382917e-16 8.926298358446486e-24
1.755405889504358 1.4237529449647883e-23 6.634093980451561e-16 6.63409384472162e-16 1.357299424227766e-23
1.8088679632656115 1.4339517648167935e-23 6.88510936221355e-16 6.885109158609423e-16 2.0360412758840236e-23
1.8639582606462262 1.442106734913407e-23 7.13514858036019e-16 7.13514827893596e-16 3.014242316649894e-23
1.9207263702978936 1.4483542677836307e-23 7.384306853628897e-16 7.384306413057552e-16 4.405713468078838e-23
1.979223391128241 1.453011532345298e-23 7.633668727028869e-16 7.633668091009391e-16 6.360194791146607e-23
2.039501978296691 1.4564580156813092e-23 7.884815471823014e-16 7.884814564633296e-16 9.071897165446492e-23
2.1016163906111602 1.4597561907461972e-23 8.14335196065828e-16 8.143350681626563e-16 1.2790317155901008e-22
2.1656225393682647 1.4635221779420504e-23 8.413011913728732e-16 8.413010130642073e-16 1.7830866599627276e-22
2.231578038680979 1.4678001909344549e-23 8.694576874269675e-16 8.694574415545575e-16 2.458724098996373e-22
2.299542257339062 1.472959126623784e-23 8.990865969558735e-16 8.990862615044947e-16 3.354513785431894e-22
2.369576372248914 1.4798144942709156e-23 9.30780809410939e-16 9.307803564340908e-16 4.529768481205341e-22
2.4417434235010123 1.4893292087766145e-23 9.652952446385207e-16 9.652946390413462e-16 6.055971743045569e-22
2.5161083711144245 1.503152267463236e-23 1.0039261158652876e-15 1.003925314007032e-15 8.018582557804333e-22
2.5927381535095444 1.5239821403975692e-23 1.0488369264388595e-15 1.0488358745775694e-15 1.0518612899834907e-21
2.6717017477616296 1.5550403980655165e-23 1.1028059067439965e-15 1.1028045393846406e-15 1.3673593559804151e-21
2.753070231689431 1.601177307925226e-23 1.1701085430580529e-15 1.1701067811570659e-15 1.7619009870142018e-21
2.836916847834745 1.673382110647303e-23 1.2601178437004998e-15 1.2601155926751171e-15 2.2510253828763616e-21
2.9233170693905177 1.795858193364334e-23 1.3935334437587042e-15 1.3935305918598438e-15 2.8518988607020354e-21
2.967498994190263 1.8998437788999592e-23 1.4965040777310217e-15 1.4965008826060426e-15 3.195124978643168e-21
3.0123486681368425 2.02128110895385e-23 1.6162233934767136e-15 1.6162198185603595e-15 3.5749163536754764e-21
3.0578761833420214 2.2929522380693994e-23 1.8611626906006095e-15 1.8611586949577895e-15 3.995642819625156e-21
3.1040917844459814 2.643022658872248e-23 2.1777342115429354e-15 2.1777297539175874e-15 4.4576253479088876e-21
3.127460860933648 3.0133267171319237e-23 2.501540500534235e-15 2.501535793900981e-15 4.7066332544952116e-21
3.1510058709225794 3.5067019368033726e-23 2.933036709710987e-15 2.9330317423034596e-15 4.967407527960316e-21
3.162844764501044 3.9659474508744266e-23 3.3296168858886723e-15 3.3296117830573028e-15 5.102831369896226e-21
3.1747281389236908 4.5000131224246414e-23 3.792187083118039e-15 3.792181841777743e-15 5.241340296983346e-21
3.1986289994194426 5.989675992141903e-23 5.085534835129661e-15 5.085529306610303e-15 5.528519356204815e-21
3.2227097969389145 9.501143554821972e-23 8.127678427277648e-15 8.127672593143918e-15 5.83413372919636e-21
3.2348180950136065 1.2831106838312289e-22 1.101750910305691e-14 1.101750310547879e-14 5.997578119736416e-21
3.240889293275058 1.5320682308446164e-22 1.317988849977435e-14 1.3179882415966442e-14 6.08380791034119e-21
3.2469718861334385 1.8200735373302515e-22 1.568689164432335e-14 1.568688547127829e-14 6.173045062112151e-21
3.2714166318528037 3.3563388835244256e-22 2.914547211452441e-14 2.9145465571622486e-14 6.542901929422902e-21
3.2744851364798273 3.452374584336637e-22 3.0007538172577155e-14 3.000753158579929e-14 6.586777858602381e-21
3.2775565192852394 3.5511686387660992e-22 3.0895193477044744e-14 3.089518684614331e-14 6.630901440324778e-21
3.283707930232385 3.456155667051215e-22 3.012501348173388e-14 3.012500677135476e-14 6.710379121373974e-21
3.2898708863219004 3.154846640858328e-22 2.755031316486691e-14 2.7550306381630186e-14 6.783236721651494e-21
3.29141343181113 3.0837905008787607e-22 2.6942428344073023e-14 2.6942421542526443e-14 6.80154657650864e-21
3.292184975758714 3.04887603734768e-22 2.6643632127376878e-14 2.6643625316661024e-14 6.810715856053774e-21
3.295272960557952 2.828493264935364e-22 2.4740927507039095e-14 2.4740920660557755e-14 6.846481336364824e-21
3.3076538914384823 2.0650211915856087e-22 1.8130676338431134e-14 1.81306693480111e-14 6.990420033978087e-21
3.310756385682612 1.9096353771374357e-22 1.678213112474889e-14 1.6782124097987412e-14 7.026761482078899e-21
3.313861789986515 1.7662678412380337e-22 1.5536757464978056e-14 1.5536750401731768e-14 7.06324628522137e-21
3.3200813396944477 1.565210686239074e-22 1.3794023486777436e-14 1.3794016345291873e-14 7.14148556351303e-21
3.345076488085796 1.2065428774019062e-22 1.0713176155053574e-14 1.0713168665430441e-14 7.489623131981178e-21
3.3482140837626964 1.2199917472053367e-22 1.0842752505186122e-14 1.0842744968415105e-14 7.536771017261537e-21
3.3513546224236106 1.2335892986375573e-22 1.0973885165152236e-14 1.097387758098867e-14 7.584163564541386e-21
3.3576445397418455 1.332965962854766e-22 1.1880185179988728e-14 1.1880177496822667e-14 7.683166061374245e-21
3.3702598118196083 1.699510344803981e-22 1.5203956809931038e-14 1.5203948919008528e-14 7.890922511968264e-21
3.382922481734668 1.782991140656352e-22 1.6010712700644386e-14 1.6010704606729213e-14 8.093915172277586e-21
3.389271646505754 1.8262398854543472e-22 1.6429851387885293e-14 1.64298431908608e-14 8.197024493824162e-21
3.395632727569191 1.872842413001315e-22 1.688073607013379e-14 1.688072776683265e-14 8.30330113641098e-21
3.421196662673239 2.0966095557226274e-22 1.903991624420995e-14 1.903990749970647e-14 8.744503487224074e-21
3.4276182099114902 2.0515113403495206e-22 1.866533532543966e-14 1.8665326481313393e-14 8.844126264193132e-21
3.4340518103208963 1.8538996890454542e-22 1.6899058440026296e-14 1.6899049501113496e-14 8.938912800853375e-21
3.4469541582030403 1.5724641395889213e-22 1.438751173160167e-14 1.4387502609603246e-14 9.121998421601274e-21
3.472904465399547 1.4935852506832657e-22 1.3768679347538575e-14 1.3768669805254488e-14 9.542284084930163e-21
3.4990501388274233 1.3729465256879393e-22 1.2751850752775982e-14 1.2751840777604861e-14 9.975171123475018e-21
3.5253949054701885 9.436341493362712e-23 8.830409722352663e-15 8.83039932229022e-15 1.04000624401111e-20
3.5519380250092896 5.401333491260094e-23 5.0925559021439764e-15 5.092545071418637e-15 1.0830725340656751e-20
3.578680990867387 3.801398837464351e-23 3.611069582729382e-15 3.611058279176699e-15 1.130355268308883e-20
3.605625307711299 3.154215280144913e-23 3.018848771566737e-15 3.018836967648129e-15 1.1803918608627369e-20
3.660119384959845 2.681976483996255e-23 2.6056714228485544e-15 2.605658557323429e-15 1.2865525126141957e-20
3.715437065384467 2.3474869978210453e-23 2.315168142979153e-15 2.3151541429472054e-15 1.40000319478931e-20
3.8285932144167436 2.1773504450810614e-23 2.212773658388007e-15 2.212757165205048e-15 1.649318295933264e-20
3.94519561050918 2.1442096435978183e-23 2.2454594630840585e-15 2.2454401660240713e-15 1.929705998750772e-20
4.06534921144712 2.1672855730960007e-23 2.3387480063933405e-15 2.3387255738384864e-15 2.2432554854576857e-20
4.189162171576248 2.2228776981873417e-23 2.471793437517432e-15 2.4717675062697793e-15 2.593124765268165e-20
4.316745939156006 2.3021381882911108e-23 2.63789382499215e-15 2.6378640136636407e-15 2.981132850922634e-20
4.448215356677963 2.402075988919164e-23 2.8362334858678425e-15 2.836199429002104e-15 3.405686573823844e-20
4.58368876423945 2.5230137814692742e-23 3.0697582617852032e-15 3.0697195552188503e-15 3.8706566353564235e-20
4.723288106065518 2.667723020806847e-23 3.344680256459586e-15 3.3446364320507576e-15 4.382440882729414e-20
4.867139040275056 2.8417858391993734e-23 3.6714239093137495e-15 3.67137456614567e-15 4.93431680798968e-20
4.940699165968905 2.9468751857262556e-23 3.864733803485032e-15 3.864681523502577e-15 5.227998245430008e-20
5.015371051989984 3.0556523653895054e-23 4.067957865534067e-15 4.0679025304393285e-15 5.533509473926947e-20
5.091171501069577 3.188550171860722e-23 4.309038902534485e-15 4.308980335353061e-15 5.856718142505785e-20
5.129500256944802 3.256735954370551e-23 4.434320074017704e-15 4.434259843859894e-15 6.023015781062285e-20
5.168117569889187 3.327823771304123e-23 4.565224482185714e-15 4.565162546013528e-15 6.193617218523577e-20
5.20702561229733 3.415208540582069e-23 4.720373621846064e-15 4.720309847273984e-15 6.37745720802021e-20
5.246226572918644 3.504811749455892e-23 4.880689415225099e-15 4.880623763556838e-15 6.565166826168952e-20
5.265937586045735 3.5504673806013957e-23 4.962844496301861e-15 4.962777891435221e-15 6.660486663916897e-20
5.285722656980489 3.5967045439096813e-23 5.046363942289256e-15 5.046296374382669e-15 6.756790658647716e-20
5.305582063971359 3.643532625714376e-23 5.1312731303334086e-15 5.131204589488944e-15 6.8540844464969e-20
5.3255160863122235 3.6938665464543385e-23 5.221705026354186e-15 5.221635497321518e-15 6.952903266893739e-20
5.365609099470188 3.8194290224058243e-23 5.439849777175107e-15 5.439778200123723e-15 7.157705138310412e-20
5.406003951863644 3.949770226791924e-23 5.6678405458756065e-15 5.667766877147915e-15 7.366872769040427e-20
5.446702915881641 4.085121789912858e-23 5.906199732214511e-15 5.906123927585647e-15 7.580462886463226e-20
5.487708281020852 4.2314173964856403e-23 6.1637684724052115e-15 6.1636904805946975e-15 7.799181051449731e-20
5.529022354014368 4.435138545614905e-23 6.509160342453831e-15 6.5090800605684536e-15 8.028188537675222e-20
5.570647458961463 4.650894191817298e-23 6.8771986181501575e-15 6.877115996388933e-15 8.262176122572149e-20
5.612585937458331 4.879552911525527e-23 7.269632698429286e-15 7.269547686261062e-15 8.501216822141906e-20
5.654840148729818 5.13098023639497e-23 7.701762243788704e-15 7.701674781498875e-15 8.746228982981716e-20
5.67608639626678 5.302430980494572e-23 7.989019009106871e-15 7.988930265334764e-15 8.874377210836404e-20
5.686739436050992 5.390811961478692e-23 8.137424008165768e-15 8.137334618294417e-15 8.938987135038219e-20
5.6974124697621304 5.481019933553888e-23 8.289120944235777e-15 8.289030904673679e-15 9.003956209845026e-20
5.718818669136295 5.667093139176872e-23 8.602726376397017e-15 8.602635026620157e-15 9.134977686045303e-20
5.740305295436557 5.872263379255603e-23 8.947669823113332e-15 8.947577141004818e-15 9.268210851350423e-20
5.7835210386641895 6.40491113680197e-23 9.83274692447274e-15 9.832651473615955e-15 9.545085678318609e-20
5.827062130521658 7.01870266067333e-23 1.0856152270728113e-14 1.0856053968744687e-14 9.83019834292353e-20
5.8489554468988025 7.449573132546912e-23 1.1565892043646976e-14 1.1565792211191534e-14 9.98324554445416e-20
5.870931020387893 7.912002930075942e-23 1.2329993572523177e-14 1.232989219038904e-14 1.0138213413752466e-19
5.892989160043636 8.408533945713281e-23 1.3153016262116007e-14 1.3152913310894244e-14 1.029512217629521e-19
5.915130176081913 8.973341324287963e-23 1.4089251687723506e-14 1.408914711105785e-14 1.0457666566134058e-19
5.95966208400165 1.0553168364029731e-22 1.6694519957066292e-14 1.6694411746285783e-14 1.0821078051024432e-19
6.004529249263818 1.2830993598459384e-22 2.0450723927976223e-14 2.0450611654723345e-14 1.1227325288439301e-19
6.027089341400364 1.4414698853576467e-22 2.3061238959392343e-14 2.306112437224979e-14 1.1458714255401542e-19
6.049734195844842 1.6286417327686188e-22 2.615358847280587e-14 2.615347143778267e-14 1.1703502321267124e-19
6.095279466722835 2.1693825621983823e-22 3.509936024348144e-14 3.5099237313571524e-14 1.2292990991593552e-19
6.141167624020661 3.0016762640958153e-22 4.893101625263057e-14 4.893088581723699e-14 1.304353935894975e-19
6.164241091010745 3.5331925273858896e-22 5.781178148270862e-14 5.781164641257677e-14 1.3507013184943215e-19
6.187401249150058 4.1387054407449256e-22 6.797390679454279e-14 6.797376693134953e-14 1.3986319325052e-19
6.1990139391386085 4.434360790312162e-22 7.296642549871223e-14 7.296628319021206e-14 1.4230850016696394e-19
6.204828454712694 4.590104658948766e-22 7.560000079697528e-14 7.55998572497673e-14 1.435472079680529e-19
6.210648424152782 4.703787271551489e-22 7.754504472222583e-14 7.754490009996009e-14 1.446222657479506e-19
6.233982942956859 5.090002802885767e-22 8.422733589239677e-14 8.422718743224171e-14 1.4846015503454089e-19
6.239830258556775 5.139361854225146e-22 8.512387897057493e-14 8.512372991270193e-14 1.4905787299691865e-19
6.245683058788269 5.143619292225405e-22 8.527430558775222e-14 8.527415593006986e-14 1.4965768234802407e-19
6.257405133728602 5.132956412539001e-22 8.525724280556472e-14 8.525709205931438e-14 1.5074625033126943e-19
6.269149208991335 5.056926232286541e-22 8.415204180877196e-14 8.415189047832284e-14 1.5133044913387446e-19
6.280915325867298 4.866340717521403e-22 8.11325048751987e-14 8.113235358745946e-14 1.512877392301154e-19
6.304513850009849 4.396377579840588e-22 7.357258588321803e-14 7.357243525120314e-14 1.5063201487262809e-19
6.32820103803542 3.8138720009531957e-22 6.406426001027224e-14 6.406411064407754e-14 1.4936619469062e-19
6.3519772230701035 3.279667737073034e-22 5.5297845755222934e-14 5.529769746436168e-14 1.4829086125998084e-19
6.375842739491607 2.830256081973858e-22 4.7899696537125515e-14 4.7899549124981356e-14 1.474121441638751e-19
6.399797922933955 2.470032732626094e-22 4.19602824274545e-14 4.1960135163076955e-14 1.4726437755169192e-19
6.42384311029221 2.1705403649086215e-22 3.70111198130179e-14 3.7010972547716905e-14 1.4726530098609172e-19
6.447978639727206 1.9522603446351675e-22 3.3414176007557816e-14 3.3414028160090404e-14 1.4784746740858145e-19
6.472204850670314 1.770416540370051e-22 3.041565308349621e-14 3.041550453201022e-14 1.485514859961014e-19
6.496522083828205 1.6521936209500163e-22 2.849123620191787e-14 2.849108646651911e-14 1.4973539875677903e-19
