Dust emission spectrum from A.P. Jones, M. Kohler, N. Ysard, M. Bocchio, and L. Verstraete (2017), A&A, 602A, 46J 
inside the DustPedia framework.

lambda    nu*dP/dnu     j_nu    j_nu(carb.) j_nu(sil)
 (um)   (erg s-1 H-1) (Jy cm2 sr-1 H-1)
0.9927057738263894 5.339780564793332e-24 1.407062508171164e-16 1.407062508158874e-16 1.2290087168738815e-27
1.0001793341362166 5.427918713567135e-24 1.4410552935852326e-16 1.4410552935704287e-16 1.4803569554982621e-27
1.0077091589558085 5.515929557980039e-24 1.4754461048422115e-16 1.475446104824404e-16 1.78080852095078e-27
1.0114953028030835 5.5598764093421446e-24 1.4927890512813577e-16 1.4927890512618353e-16 1.9522334552317044e-27
1.0152956718711033 5.603778471152676e-24 1.5102294199808614e-16 1.5102294199594665e-16 2.1394662602188018e-27
1.0229392996569957 5.691387974861269e-24 1.5453878334299805e-16 1.54538783340431e-16 2.5670557665318698e-27
1.0267826658714554 5.7349890873470445e-24 1.5630776641623925e-16 1.5630776641342856e-16 2.8106310304754295e-27
1.0306404723013447 5.778526146349914e-24 1.5808610838756136e-16 1.5808610838448508e-16 3.076317758712482e-27
1.03451277320114 5.821994954176568e-24 1.5987373275762244e-16 1.598737327542564e-16 3.366024766969403e-27
1.0383996230291617 5.865391336584836e-24 1.6167056207560155e-16 1.6167056207191977e-16 3.681816495674216e-27
1.0403485208654093 5.887061070416325e-24 1.6257240413103792e-16 1.625724041271877e-16 3.850184728802686e-27
1.0423010764483396 5.90871114358481e-24 1.634765179576054e-16 1.6347651795357947e-16 4.0259248930323064e-27
1.0462171883269815 5.9519502502223244e-24 1.6529152110509877e-16 1.6529152110069798e-16 4.400762138757017e-27
1.0471985131304309 5.962746936502916e-24 1.657466761488129e-16 1.657466761443133e-16 4.499573763480847e-27
1.048180758391296 5.9735382588914925e-24 1.662023903770538e-16 1.6620239037245331e-16 4.600510500170169e-27
1.0501480137395462 5.9951045573446506e-24 1.6711549132335106e-16 1.6711549131854217e-16 4.808934262734181e-27
1.0521189612883777 6.016648637341906e-24 1.6803081378264695e-16 1.6803081377762053e-16 5.026391859647951e-27
1.0531058218030118 6.027395631186077e-24 1.684888420893218e-16 1.6848884208418317e-16 5.138631457750072e-27
1.0540936079674168 6.038082638465159e-24 1.689459033731573e-16 1.6894590336790404e-16 5.253295009078798e-27
1.058054026499678 6.080769724299713e-24 1.7077953807042201e-16 1.707795380646851e-16 5.736947597407175e-27
1.0590464539527713 6.0914259481004896e-24 1.712392876106148e-16 1.7123928760475038e-16 5.8643666620939625e-27
1.06003981227728 6.102075828503165e-24 1.716995708763059e-16 1.716995708703114e-16 5.9944940846774844e-27
1.0620293250338977 6.123356311368482e-24 1.726217333175831e-16 1.7262173331131996e-16 6.263094156411121e-27
1.0660195594769086 6.165838437672528e-24 1.74472404801597e-16 1.7447240479476173e-16 6.835275968016573e-27
1.070024785945596 6.208212171340949e-24 1.7633146742830522e-16 1.7633146742084787e-16 7.457312233917376e-27
1.0740450607676866 6.250473611278299e-24 1.7819883534095971e-16 1.7819883533282639e-16 8.133320433303955e-27
1.07808044048254 6.292618887794231e-24 1.8007442193871585e-16 1.8007442192984812e-16 8.867738056082904e-27
1.0861967418109137 6.376471086382892e-24 1.8384775184764721e-16 1.8384775183711585e-16 1.0531293676938922e-26
1.0902777775684922 6.418000914619343e-24 1.857403963414747e-16 1.8574039633000358e-16 1.1471126859084633e-26
1.0943741465085532 6.459396466044028e-24 1.8764076693299157e-16 1.8764076692050077e-16 1.2490807954441016e-26
1.1026131145906286 6.541770044717499e-24 1.914643230501172e-16 1.9146432303532133e-16 1.47958699494112e-26
1.1109141095355224 6.623562792068477e-24 1.953176874323934e-16 1.9531768741488958e-16 1.7503841478724767e-26
1.1192775983109025 6.704670248927577e-24 1.9919785972964288e-16 1.991978597089619e-16 2.0680975967137146e-26
1.1277040513999907 6.784715414088702e-24 2.0309358675593297e-16 2.0309358673152928e-16 2.4403693320070865e-26
1.1361939428280308 6.864085379331209e-24 2.0701631783718874e-16 2.0701631780842872e-16 2.876001110164827e-26
1.1447477501889525 6.942753727340464e-24 2.109652827365448e-16 2.1096528270269363e-16 3.3851178732133755e-26
1.1533659546722406 7.020737568454669e-24 2.149410174545375e-16 2.149410174147439e-16 3.979356624340908e-26
1.1707974979042381 7.17490410794934e-24 2.2298072326856617e-16 2.2298072321378023e-16 5.478595871687506e-26
1.1884924949847024 7.326001150705011e-24 2.3111751496328005e-16 2.311175148882264e-16 7.505368993068802e-26
1.2064549276569216 7.475211896308348e-24 2.3938891842044495e-16 2.393889183181272e-16 1.0231780027221447e-25
1.2246888378427687 7.620905882437943e-24 2.477432273158223e-16 2.477432271770121e-16 1.3881016762286357e-25
1.2431983285522175 7.762742602095538e-24 2.561680938076564e-16 2.5616809362024123e-16 1.87415198483479e-25
1.2619875648066055 7.90066969796644e-24 2.6466006467222566e-16 2.6466006442038414e-16 2.518415434465687e-25
1.3004222497298317 8.16250339344472e-24 2.817586121167792e-16 2.817586116683668e-16 4.484123920274904e-25
1.3400274889804893 8.405387687882565e-24 2.9897914117398924e-16 2.9897914039006754e-16 7.839216388099632e-25
1.3808389325824078 8.628427893311173e-24 3.162599009509521e-16 3.162598996047418e-16 1.3462103167207707e-24
1.4228933163050095 8.832717050780706e-24 3.3360771903067265e-16 3.336077167586575e-16 2.2720151719291695e-24
1.466228494730424 9.023180737840207e-24 3.511807847197977e-16 3.5118078094943125e-16 3.770366430279842e-24
1.5108834753276823 9.196122666519832e-24 3.6881209919788154e-16 3.6881209304298567e-16 6.154895877822154e-24
1.5568984535646726 9.348554176901263e-24 3.8634399784131265e-16 3.863439879472591e-16 9.894053455811002e-24
1.6043148490894465 9.480761910535575e-24 4.0374046287882076e-16 4.037404471882048e-16 1.5690616060071753e-23
1.6531753430134553 9.593156096321358e-24 4.2096875545766287e-16 4.2096873093765506e-16 2.452000786067556e-23
1.7035239163302658 9.68707809908911e-24 4.3803667056996766e-16 4.3803663280222674e-16 3.7767740852912827e-23
1.755405889504358 9.770237860296321e-24 4.552522711598311e-16 4.552522137932014e-16 5.73666295507704e-23
1.8088679632656115 9.840742346634875e-24 4.725025549977525e-16 4.725024690389148e-16 8.595883767106019e-23
1.8639582606462262 9.897311709490907e-24 4.896918368361737e-16 4.896917097237223e-16 1.2711245126920893e-22
1.9207263702978936 9.940887773349642e-24 5.068274202570146e-16 5.06827234683005e-16 1.8557400956119403e-22
1.979223391128241 9.973652100058659e-24 5.239845275528791e-16 5.239842599772195e-16 2.6757565959684243e-22
2.039501978296691 9.998212805096729e-24 5.412724717597045e-16 5.412720905770897e-16 3.811826148043724e-22
2.1016163906111602 1.0021863421625323e-23 5.59076657193171e-16 5.59076120460915e-16 5.367322560339548e-22
2.1656225393682647 1.0048834621438876e-23 5.77654146028271e-16 5.776533987679157e-16 7.472603553121069e-22
2.231578038680979 1.0079431677866113e-23 5.97059423438032e-16 5.970583944434114e-16 1.0289946206460116e-21
2.299542257339062 1.0116187250565511e-23 6.174868131016663e-16 6.174854112039003e-16 1.4018977660015265e-21
2.369576372248914 1.0164695776081855e-23 6.39343904151904e-16 6.393420138781864e-16 1.8902737173326828e-21
2.4417434235010123 1.0231561858905948e-23 6.631494198478555e-16 6.631468965316382e-16 2.5233162170909337e-21
2.5161083711144245 1.0328095059191284e-23 6.897933483851108e-16 6.89790012581565e-16 3.3358035458447e-21
2.5927381535095444 1.0472801303766427e-23 7.207604629659071e-16 7.207560942808203e-16 4.368685086763084e-21
2.6717017477616296 1.0687767601350126e-23 7.579567228824783e-16 7.579510534806117e-16 5.6694018667034e-21
2.753070231689431 1.1006245115491787e-23 8.043145111340364e-16 8.043072187484674e-16 7.292385568938423e-21
2.836916847834745 1.1503579292987953e-23 8.662615335304598e-16 8.66252233773662e-16 9.299756797709181e-21
2.9233170693905177 1.2345715839557459e-23 9.579914479402664e-16 9.579796882955896e-16 1.1759644676652604e-20
2.967498994190263 1.3059923783950009e-23 1.0287282256888497e-15 1.0287150643532825e-15 1.316133556719094e-20
3.0123486681368425 1.3893812072637135e-23 1.110954037857088e-15 1.1109393273384068e-15 1.4710518681019507e-20
3.0578761833420214 1.5757825785375723e-23 1.279044410511524e-15 1.2790279857894947e-15 1.6424722029205732e-20
3.1040917844459814 1.8159372456966026e-23 1.4962522749070722e-15 1.4962339705581374e-15 1.830434893501866e-20
3.127460860933648 2.0699029327839685e-23 1.7183486905336453e-15 1.7183293741332751e-15 1.9316400370006224e-20
3.1510058709225794 2.4082504749132502e-23 2.0142821307300475e-15 2.0142617552435e-15 2.0375486548275157e-20
3.162844764501044 2.723169336049562e-23 2.286240732323802e-15 2.286219807147105e-15 2.0925176698012344e-20
3.1747281389236908 3.0893835665249184e-23 2.6034413982909736e-15 2.6034199111161443e-15 2.1487174829599847e-20
3.1986289994194426 4.110823421050832e-23 3.4902949235063736e-15 3.4902722717726188e-15 2.265173375518601e-20
3.2227097969389145 6.518500127543063e-23 5.5761995973579465e-15 5.576175707190507e-15 2.3890167440331433e-20
3.2348180950136065 8.80169074504571e-23 7.557626097873562e-15 7.557601545642516e-15 2.4552231045623282e-20
3.240889293275058 1.0508663812854339e-22 9.04026430067532e-15 9.040239399181923e-15 2.4901493395669373e-20
3.2469718861334385 1.2483371024984932e-22 1.0759196516425803e-14 1.0759171253510438e-14 2.526291536470915e-20
3.2714166318528037 2.3016575966533886e-22 1.9986926120523974e-14 1.9986899360383792e-14 2.6760140178316567e-20
3.2744851364798273 2.367503370255219e-22 2.0577995238106305e-14 2.0577968300523594e-14 2.6937582709735258e-20
3.2775565192852394 2.4352402257474263e-22 2.1186608012986677e-14 2.1186580896978523e-14 2.7116008150203685e-20
3.283707930232385 2.370096971487242e-22 2.0658561157920144e-14 2.0658533720834835e-14 2.743708530844083e-20
3.2898708863219004 2.163509952137e-22 1.8893272320984817e-14 1.8893244589855793e-14 2.773112902545537e-20
3.29141343181113 2.1147915074115359e-22 1.847648815146589e-14 1.8476460346450156e-14 2.780501573599588e-20
3.292184975758714 2.0908529784468336e-22 1.8271624332299817e-14 1.8271596490284232e-14 2.784201558215952e-20
3.295272960557952 1.9397529115087549e-22 1.6967085182825356e-14 1.696705719654069e-14 2.7986284665574863e-20
3.3076538914384823 1.4162929897353955e-22 1.2434908611065889e-14 1.2434880044344215e-14 2.856672167533359e-20
3.310756385682612 1.309754565175267e-22 1.1510298309910224e-14 1.1510269596678984e-14 2.871323123930622e-20
3.313861789986515 1.2114558756276296e-22 1.0656422361149988e-14 1.0656393500846755e-14 2.886030323521281e-20
3.3200813396944477 1.0736036409755054e-22 9.461546595168005e-15 9.461517419362605e-15 2.9175805402339724e-20
3.345076488085796 8.276952815286119e-23 7.349299821666385e-15 7.349269241835028e-15 3.0579831358436134e-20
3.3482140837626964 8.369173898277544e-23 7.438155336686377e-15 7.438124566719755e-15 3.0769966621380806e-20
3.3513546224236106 8.462414289362628e-23 7.528077840329404e-15 7.528046879261729e-15 3.096106767531308e-20
3.3576445397418455 9.143801729720306e-23 8.149499749080564e-15 8.14946838877541e-15 3.136030515332856e-20
3.3702598118196083 1.1656991444252406e-22 1.0428438696711254e-14 1.0428406498714273e-14 3.219799698450279e-20
3.382922481734668 1.2229414424712945e-22 1.098163846058803e-14 1.0981605444701675e-14 3.301588635441278e-20
3.389271646505754 1.2525966711516323e-22 1.1269043743867795e-14 1.1269010312676973e-14 3.3431190820516313e-20
3.395632727569191 1.2845522391858663e-22 1.1578223115550917e-14 1.1578189256318813e-14 3.385923210518832e-20
3.421196662673239 1.4379916273241886e-22 1.3058816826145326e-14 1.3058781190748105e-14 3.563539721471444e-20
3.4276182099114902 1.4070728193664765e-22 1.2802018435985106e-14 1.2801982400197901e-14 3.6035787204835934e-20
3.4340518103208963 1.2715838894076538e-22 1.1591010336465416e-14 1.1590973920035656e-14 3.641642975886271e-20
3.4469541582030403 1.0786214518019359e-22 9.869019204351786e-15 9.868982053340648e-15 3.715101113857972e-20
3.472904465399547 1.0245437215671335e-22 9.444800002770777e-15 9.444761164918357e-15 3.883785242090503e-20
3.4990501388274233 9.418349193091589e-23 8.74771019852016e-15 8.747669624991292e-15 4.0573528870724455e-20
3.5253949054701885 6.474915333389713e-23 6.059144357120939e-15 6.059102082491602e-15 4.227462933640853e-20
3.5519380250092896 3.7084109249106307e-23 3.49641250142898e-15 3.496368504761725e-15 4.399666725614797e-20
3.578680990867387 2.611502870205251e-23 2.480749582724388e-15 2.4807036961715783e-15 4.5886552809409576e-20
3.605625307711299 2.1678486119520402e-23 2.074813079604828e-15 2.0747651947045417e-15 4.7884900286565245e-20
3.660119384959845 1.8442283492651097e-23 1.7917581065912024e-15 1.7917059885087236e-15 5.211808247840024e-20
3.715437065384467 1.61504799612122e-23 1.5928129414445465e-15 1.5927563092956036e-15 5.663214894364281e-20
3.8285932144167436 1.498723303402669e-23 1.523105963247096e-15 1.523039446357022e-15 6.651689007403489e-20
3.94519561050918 1.4763318815624398e-23 1.5460444383342507e-15 1.545966859728153e-15 7.757860609793476e-20
4.06534921144712 1.4924878626690365e-23 1.6105644114066422e-15 1.6104745288232971e-15 8.988258334540384e-20
4.189162171576248 1.530940958395243e-23 1.7023742769446249e-15 1.702270742952684e-15 1.035339919416332e-19
4.316745939156006 1.5856236872928036e-23 1.8168791755180495e-15 1.816760594463317e-15 1.185810547328005e-19
4.448215356677963 1.6544843873399246e-23 1.9535202228679162e-15 1.9533852885773048e-15 1.3493429061152471e-19
4.58368876423945 1.7377434261919624e-23 2.1143175192286065e-15 2.1141648023015087e-15 1.527169270976681e-19
4.723288106065518 1.8373005059877014e-23 2.303531018636888e-15 2.30335887266264e-15 1.7214597424812625e-19
4.867139040275056 1.9569820917260973e-23 2.528308341379539e-15 2.528115423306492e-15 1.929180730451785e-19
4.940699165968905 2.0292045395638383e-23 2.6612377124838783e-15 2.661033811931044e-15 2.0390055283466763e-19
5.015371051989984 2.103953385590919e-23 2.8009710203210944e-15 2.800755746738067e-15 2.152735830276873e-19
5.091171501069577 2.1952426690310182e-23 2.9666731120740482e-15 2.9664458542641713e-15 2.27257809877037e-19
5.129500256944802 2.2420768762481782e-23 3.052776350043328e-15 3.052542948416782e-15 2.3340162654558923e-19
5.168117569889187 2.2909004350353814e-23 3.1427369569437584e-15 3.142497265185541e-15 2.396917582173387e-19
5.20702561229733 2.3509012065513564e-23 3.2493277968553503e-15 3.24908131779939e-15 2.464790559601865e-19
5.246226572918644 2.412421746975962e-23 3.3594618276865597e-15 3.3592084350035845e-15 2.5339268297620924e-19
5.265937586045735 2.443767070680869e-23 3.4158984316363346e-15 3.4156415345432087e-15 2.568970931252884e-19
5.285722656980489 2.4755107706639063e-23 3.473270639641599e-15 3.4730102062900163e-15 2.604333515824877e-19
5.305582063971359 2.5076592740689185e-23 3.531595837031468e-15 3.531331835486275e-15 2.64001545192927e-19
5.3255160863122235 2.5422121109108322e-23 3.59370908251779e-15 3.593441460131709e-15 2.6762238608062534e-19
5.365609099470188 2.6283922834516666e-23 3.74350697279278e-15 3.743231850777405e-15 2.7512201537623514e-19
5.406003951863644 2.7178467939870864e-23 3.900055287253939e-15 3.899772524797821e-15 2.827624561175012e-19
5.446702915881641 2.8107343188492814e-23 4.063711961367958e-15 4.0634214166579646e-15 2.9054470999275773e-19
5.487708281020852 2.911125092380876e-23 4.2405414976427856e-15 4.240243003008791e-15 2.9849463399373603e-19
5.529022354014368 3.050902976281155e-23 4.477609088788983e-15 4.477302280225472e-15 3.0680856351146955e-19
5.570647458961463 3.198927982139984e-23 4.730200729365291e-15 4.729885448223118e-15 3.152811421735579e-19
5.612585937458331 3.3557952482118203e-23 4.9995151826332766e-15 4.999191268872045e-15 3.239137612293398e-19
5.654840148729818 3.5282715372079517e-23 5.2960462249207475e-15 5.295713485127197e-15 3.327397935497909e-19
5.67608639626678 3.6458792483258024e-23 5.493140547595842e-15 5.492803193965382e-15 3.373536304594505e-19
5.686739436050992 3.706503113327702e-23 5.594961878889351e-15 5.594622201422591e-15 3.396774667582137e-19
5.6974124697621304 3.7683790929465377e-23 5.699039675798006e-15 5.698697663176902e-15 3.420126211052054e-19
5.718818669136295 3.896008197581733e-23 5.9141947486791304e-15 5.913848031676369e-15 3.4671700276081286e-19
5.740305295436557 4.036732630913258e-23 6.150839704021944e-15 6.1504882089862354e-15 3.5149503570755367e-19
5.7835210386641895 4.4020611080076474e-23 6.757994279170519e-15 6.757632869045892e-15 3.6141012462618757e-19
5.827062130521658 4.8230169375741886e-23 7.459983533991618e-15 7.45961194037214e-15 3.7159361947523754e-19
5.8489554468988025 5.118522521687282e-23 7.946801495265136e-15 7.946424435541109e-15 3.770597240255899e-19
5.870931020387893 5.435659501376765e-23 8.470882443638928e-15 8.470499857409579e-15 3.8258622935081663e-19
5.892989160043636 5.776169878395505e-23 9.035351088998424e-15 9.034962915409732e-15 3.881735886938913e-19
5.915130176081913 6.16349553613283e-23 9.677447535589696e-15 9.677053576241889e-15 3.939593478107618e-19
5.95966208400165 7.246889157244726e-23 1.1464171847635706e-14 1.1463764928803328e-14 4.0691883237929143e-19
6.004529249263818 8.808906717008518e-23 1.4040106714609151e-14 1.4039685315774855e-14 4.2139883429533277e-19
6.027089341400364 9.894927894761792e-23 1.583032007709562e-14 1.5829890424120506e-14 4.296529751144161e-19
6.049734195844842 1.1178419377697614e-22 1.7950895786254368e-14 1.7950457406427072e-14 4.383798272956482e-19
6.095279466722835 1.4886426601711985e-22 2.4085380750094412e-14 2.408492132138823e-14 4.594287061796155e-19
6.141167624020661 2.0593585385752774e-22 3.3570077934894824e-14 3.3569591678783924e-14 4.862561109024544e-19
6.164241091010745 2.4238301686462894e-22 3.965986539789592e-14 3.965936254909909e-14 5.02848796818932e-19
6.187401249150058 2.839030706141345e-22 4.6628109047393904e-14 4.662758907981711e-14 5.19967576795001e-19
6.1990139391386085 3.041762288355341e-22 5.005152532535545e-14 5.0050996630094686e-14 5.286952607609167e-19
6.204828454712694 3.1485551427753425e-22 5.1857373412842995e-14 5.1856840300806245e-14 5.331120367546176e-19
6.210648424152782 3.2265075503554884e-22 5.319111129921279e-14 5.3190574363116173e-14 5.36936096606083e-19
6.233982942956859 3.4913344607684604e-22 5.777320990336685e-14 5.777265936912083e-14 5.505342459982469e-19
6.239830258556775 3.5251790061642433e-22 5.838797103255901e-14 5.838741841477672e-14 5.526177823140874e-19
6.245683058788269 3.528097370808877e-22 5.84911200166867e-14 5.849056530892086e-14 5.547077658627974e-19
6.257405133728602 3.5207838912844e-22 5.847942257056412e-14 5.847886408809896e-14 5.584824651510606e-19
6.269149208991335 3.4686481453765574e-22 5.772159021937417e-14 5.772102979204642e-14 5.604273277425555e-19
6.280915325867298 3.337961690635021e-22 5.565109573269029e-14 5.5650535632616173e-14 5.6010007410637075e-19
6.304513850009849 3.0157035821539165e-22 5.046725554550579e-14 5.04666981645551e-14 5.573809507077886e-19
6.32820103803542 2.616278280336808e-22 4.3947445527494025e-14 4.394689306431441e-14 5.524631796062528e-19
6.3519772230701035 2.249973897278722e-22 3.793637633427923e-14 3.793582809308567e-14 5.482411935581831e-19
6.375842739491607 1.9418070931547268e-22 3.286344691144748e-14 3.286290218447658e-14 5.44726970895122e-19
6.399797922933955 1.6948036380798088e-22 2.8790889437849086e-14 2.879034557532551e-14 5.438625235879894e-19
6.42384311029221 1.489439106698224e-22 2.539727439462896e-14 2.539673086596856e-14 5.435286603965338e-19
6.447978639727206 1.339765272582209e-22 2.2930933750663038e-14 2.2930388462675396e-14 5.452879876371576e-19
6.472204850670314 1.2150735121461246e-22 2.0874892192691033e-14 2.087434471388086e-14 5.474788101670142e-19
6.496522083828205 1.1340089047229295e-22 1.9555405098926122e-14 1.955485370926189e-14 5.513896642359293e-19
