Dust emission spectrum from A.P. Jones, M. Kohler, N. Ysard, M. Bocchio, and L. Verstraete (2017), A&A, 602A, 46J 
inside the DustPedia framework.

lambda    nu*dP/dnu     j_nu    j_nu(carb.) j_nu(sil)
 (um)   (erg s-1 H-1) (Jy cm2 sr-1 H-1)
0.9927057738263894 1.102679145303594e-21 2.9056221788000766e-14 2.905622007063931e-14 1.7173614568642163e-21
1.0001793341362166 1.1212190062693036e-21 2.976718461560966e-14 2.976718254892568e-14 2.066683978946754e-21
1.0077091589558085 1.1398325725844967e-21 3.048917705917809e-14 3.0489174575430556e-14 2.4837475273536788e-21
1.0114953028030835 1.1491661451375887e-21 3.085433044306777e-14 3.0854327721577955e-14 2.7214898181912607e-21
1.0152956718711033 1.158517138571514e-21 3.122226681924585e-14 3.122226383825309e-14 2.9809927665545563e-21
1.0229392996569957 1.1772610018503911e-21 3.196627671610335e-14 3.196627314304805e-14 3.5730553030285645e-21
1.0267826658714554 1.186632584095937e-21 3.2341803262709855e-14 3.234179935270523e-14 3.910004623076747e-21
1.0306404723013447 1.1960198823725574e-21 3.272013035328356e-14 3.2720126075982553e-14 4.2773010122416505e-21
1.03451277320114 1.2054226098121834e-21 3.310126746895566e-14 3.310126279141684e-14 4.6775388196986594e-21
1.0383996230291617 1.2148404884876491e-21 3.3485224315885825e-14 3.3485219202364406e-14 5.1135214176596626e-21
1.0403485208654093 1.2195550251876319e-21 3.367826323582212e-14 3.367825788996805e-14 5.3458540709347235e-21
1.0423010764483396 1.2242732496412512e-21 3.387201083560994e-14 3.3872005247333015e-14 5.588276932869551e-21
1.0462171883269815 1.2337206339120268e-21 3.426163721554097e-14 3.4261631110465903e-14 6.105075071252422e-21
1.0471985131304309 1.2360847353609205e-21 3.4359488756790266e-14 3.4359482515538894e-14 6.241251379719736e-21
1.048180758391296 1.2384497312910929e-21 3.4457518606501076e-14 3.445751222616871e-14 6.380332365480452e-21
1.0501480137395462 1.2431823915616268e-21 3.4654113899621237e-14 3.4654107232176136e-14 6.6674451046858696e-21
1.0521189612883777 1.247918585046682e-21 3.485142444224924e-14 3.485141747535108e-14 6.966898158368946e-21
1.0531058218030118 1.250284860718404e-21 3.495026066885195e-14 3.495025354743266e-14 7.121419289767919e-21
1.0540936079674168 1.2526417319108562e-21 3.5048988507118317e-14 3.5048981227867326e-14 7.279250986712347e-21
1.058054026499678 1.2620774559125014e-21 3.5445677883263794e-14 3.544566993857175e-14 7.94469204591809e-21
1.0590464539527713 1.264438429802482e-21 3.5545295599362915e-14 3.554528747943584e-14 8.119927071646844e-21
1.06003981227728 1.2668002142252132e-21 3.564509181490068e-14 3.564508351604558e-14 8.298855097250132e-21
1.0620293250338977 1.2715262017556622e-21 3.584522045504351e-14 3.584521178695628e-14 8.668087233825077e-21
1.0660195594769086 1.280987763521807e-21 3.624762761501004e-14 3.6247618160795055e-14 9.45421498601413e-21
1.070024785945596 1.2904619461269889e-21 3.6652911070178335e-14 3.6652900761954376e-14 1.0308223952142809e-20
1.0740450607676866 1.299948565535911e-21 3.7061082853572026e-14 3.7061071617912335e-14 1.1235659692105107e-20
1.07808044048254 1.3094474489738577e-21 3.7472155335907904e-14 3.7472143093414765e-14 1.2242493140983186e-20
1.0861967418109137 1.3284668339733586e-21 3.8302634407256173e-14 3.830261988670673e-14 1.4520549435436826e-20
1.0902777775684922 1.3379539887268929e-21 3.872110762507261e-14 3.872109181894431e-14 1.5806128311932244e-20
1.0943741465085532 1.347452262708882e-21 3.914250771096206e-14 3.9142490511081546e-14 1.719988052280765e-20
1.1026131145906286 1.3664817384714571e-21 3.99941451974537e-14 3.999412485053114e-14 2.034692254426137e-20
1.1109141095355224 1.3855545284078368e-21 4.085766449201065e-14 4.085764045363603e-14 2.4038374603860505e-20
1.1192775983109025 1.4046551701484711e-21 4.173274645334092e-14 4.1732718090690674e-14 2.8362650266357426e-20
1.1277040513999907 1.423714694647028e-21 4.2617457948577795e-14 4.2617424527053536e-14 3.342152425822224e-20
1.1361939428280308 1.4428143823116362e-21 4.351433646907737e-14 4.351429713708722e-14 3.9331990139219667e-20
1.1447477501889525 1.4619543855754682e-21 4.442352882060333e-14 4.4423482592249876e-14 4.62283534542202e-20
1.1533659546722406 1.4811418986969216e-21 4.534539905477986e-14 4.534534479011806e-14 5.426466181679015e-20
1.1707974979042381 1.5197178974912818e-21 4.722959231905923e-14 4.722951783056537e-14 7.448849386374951e-20
1.1884924949847024 1.558491018763794e-21 4.916660043311838e-14 4.916649869629467e-14 1.0173682369743984e-19
1.2064549276569216 1.5977240327092389e-21 5.1166098490599804e-14 5.116596022456428e-14 1.382660355254108e-19
1.2246888378427687 1.6371640628366759e-21 5.32215349237315e-14 5.322134793412937e-14 1.8698960213105783e-19
1.2431983285522175 1.6767803561153055e-21 5.5333230737835894e-14 5.533297908171098e-14 2.5165612490647176e-19
1.2619875648066055 1.7166321831691554e-21 5.750449037667167e-14 5.750415331249183e-14 3.370641798589479e-19
1.3004222497298317 1.796805158573175e-21 6.202329154685891e-14 6.202269539225484e-14 5.961546040676164e-19
1.3400274889804893 1.877940957826075e-21 6.679824840866319e-14 6.679721335483849e-14 1.035053824689723e-18
1.3808389325824078 1.9603593873407198e-21 7.185353732274462e-14 7.185177238668682e-14 1.764936057813497e-18
1.4228933163050095 2.0447800831075644e-21 7.723041681546559e-14 7.722745967196183e-14 2.957143503736469e-18
1.466228494730424 2.1327041604159963e-21 8.300451275337522e-14 8.299964183757806e-14 4.870915797146623e-18
1.5108834753276823 2.2240047276789306e-21 8.919409646714617e-14 8.918620541111305e-14 7.891056033097488e-18
1.5568984535646726 2.3186661638740554e-21 9.582259870984798e-14 9.5810012220031e-14 1.258648981695465e-17
1.6043148490894465 2.4173154033500925e-21 1.0294194170071047e-13 1.0292213866611545e-13 1.980303459500941e-17
1.6531753430134553 2.52062860427425e-21 1.106107182931396e-13 1.1058002097395998e-13 3.0697319179636964e-17
1.7035239163302658 2.6294028159737036e-21 1.188980664050516e-13 1.1885117298202256e-13 4.6893423029070954e-17
1.755405889504358 2.7457471893121273e-21 1.2794034923599673e-13 1.278697203129211e-13 7.062892307562921e-17
1.8088679632656115 2.8698180699246883e-21 1.377941137623452e-13 1.3768919212804193e-13 1.0492163430329563e-16
1.8639582606462262 3.0017493046572506e-21 1.485183223349167e-13 1.4836453140799776e-13 1.537909269189345e-16
1.9207263702978936 3.1421262936131914e-21 1.6019854562517617e-13 1.5997603970226743e-13 2.2250592290873155e-16
1.979223391128241 3.2917559713180574e-21 1.7293857657620894e-13 1.726206962722041e-13 3.1788030400482647e-16
2.039501978296691 3.451404119713468e-21 1.8684839734223503e-13 1.8639980724269535e-13 4.485900995396804e-16
2.1016163906111602 3.6229068774019455e-21 2.021063929058754e-13 2.014808213700785e-13 6.255715357969896e-16
2.1656225393682647 3.807345090154111e-21 2.1886405334959976e-13 2.1800168533438675e-13 8.623680152130128e-16
2.231578038680979 4.0046860361924926e-21 2.372192810304982e-13 2.360437624699108e-13 1.1755185605873875e-15
2.299542257339062 4.215484554786196e-21 2.5731098673254714e-13 2.557260282903507e-13 1.5849584421964602e-15
2.369576372248914 4.4407151825259196e-21 2.793142308010274e-13 2.7719979020785465e-13 2.114440593172763e-15
2.4417434235010123 4.681493532178195e-21 3.0342676540465366e-13 3.006349278366206e-13 2.79183756803309e-15
2.5161083711144245 4.939754201785959e-21 3.299165597838878e-13 3.262670128139216e-13 3.649546969966165e-15
2.5927381535095444 5.2184649627675815e-21 3.5914585920607787e-13 3.5442115293378817e-13 4.724706272289761e-15
2.6717017477616296 5.520240590681847e-21 3.914852590083916e-13 3.854261876224543e-13 6.059071385937167e-15
2.753070231689431 5.8487139938788684e-21 4.274123906370301e-13 4.197133775642883e-13 7.699013072741811e-15
2.836916847834745 6.2130859753052306e-21 4.678680650469558e-13 4.581723854364703e-13 9.695679610485511e-15
2.9233170693905177 6.632973601182246e-21 5.146993553817223e-13 5.025971714146387e-13 1.2102183967083726e-14
2.967498994190263 6.881321785467784e-21 5.420406786338254e-13 5.285905107488348e-13 1.3450167884990623e-14
3.0123486681368425 7.146585840327102e-21 5.71443485394481e-13 5.565146424817299e-13 1.4928842912750977e-14
3.0578761833420214 7.544467055934623e-21 6.123756252678631e-13 5.958220895882059e-13 1.6553535679656893e-14
3.1040917844459814 8.002190723319448e-21 6.593452555908108e-13 6.410266902012656e-13 1.831856538954513e-14
3.127460860933648 8.395901047306329e-21 6.969933392521365e-13 6.777309166385528e-13 1.9262422613583725e-14
3.1510058709225794 8.886426874230626e-21 7.432686527113343e-13 7.230232542967668e-13 2.0245398414567453e-14
3.162844764501044 9.313832928326994e-21 7.819441829383285e-13 7.611904231192386e-13 2.075375981909004e-14
3.1747281389236908 9.794977595574541e-21 8.254284266921135e-13 8.041562013589217e-13 2.1272225333191462e-14
3.1986289994194426 1.1083557933415752e-20 9.41049566646211e-13 9.18706907805853e-13 2.2342658840357875e-14
3.2227097969389145 1.4010793888498574e-20 1.1985423289261849e-12 1.1750662771523452e-12 2.3476051773839664e-14
3.2348180950136065 1.6737893365150948e-20 1.4372095473939829e-12 1.413128872632495e-12 2.408067476148818e-14
3.240889293275058 1.8769549268817224e-20 1.6146837430187647e-12 1.5902841444053907e-12 2.4399598613374113e-14
3.2469718861334385 2.1122210902960064e-20 1.8204859689861968e-12 1.7957563790228058e-12 2.4729589963390648e-14
3.2714166318528037 3.345071920367485e-20 2.90476330786279e-12 2.878670741455466e-12 2.6092566407324947e-14
3.2744851364798273 3.422413597612584e-20 2.974712163003594e-12 2.9484591717574008e-12 2.625299124619357e-14
3.2775565192852394 3.501807873443094e-20 3.046575445289322e-12 3.020161245632108e-12 2.6414199657213288e-14
3.283707930232385 3.427325825544274e-20 2.9873722901175663e-12 2.9606701988769366e-12 2.6702091240629973e-14
3.2898708863219004 3.187951060461158e-20 2.783940396103664e-12 2.7569766762358098e-12 2.696371986785388e-14
3.29141343181113 3.1313933282505827e-20 2.735832422450819e-12 2.7088030157055414e-12 2.7029406745277867e-14
3.292184975758714 3.1035868522973266e-20 2.7121741046549424e-12 2.6851118124710667e-12 2.7062292183876688e-14
3.295272960557952 2.9298984340551673e-20 2.562792199598989e-12 2.5356020589395984e-12 2.7190140659390973e-14
3.3076538914384823 2.323897478743295e-20 2.0403583848182565e-12 2.012654928008507e-12 2.770345680974917e-14
3.310756385682612 2.1993687415821625e-20 1.932834668586547e-12 1.9050018643061504e-12 2.7832804280396254e-14
3.313861789986515 2.084008136739499e-20 1.8331720829422525e-12 1.8052095232958214e-12 2.7962559646431054e-14
3.3200813396944477 1.9233010564394095e-20 1.6949833129759764e-12 1.6667414910169638e-12 2.8241821959012562e-14
3.345076488085796 1.6457634156588276e-20 1.4613117951897345e-12 1.4318250133363605e-12 2.9486781853374204e-14
3.3482140837626964 1.657952303653754e-20 1.4735154180428383e-12 1.4438599679034871e-12 2.965545013935127e-14
3.3513546224236106 1.670247609307179e-20 1.4858353166771708e-12 1.4560104584146081e-12 2.982485826256282e-14
3.3576445397418455 1.753063019477919e-20 1.56243399186158e-12 1.5322548757874542e-12 3.017911607412534e-14
3.3702598118196083 2.0507829473326122e-20 1.8346469883585423e-12 1.8037248366958793e-12 3.092215166266334e-14
3.382922481734668 2.1240505761849614e-20 1.9073321656784437e-12 1.8756883675503152e-12 3.164379812812867e-14
3.389271646505754 2.1617866526063425e-20 1.9448613359903593e-12 1.912851873144255e-12 3.20094628461042e-14
3.395632727569191 2.2032037308666997e-20 1.985842505023871e-12 1.9534562026274736e-12 3.2386302396397157e-14
3.421196662673239 2.4030665353888585e-20 2.1822940488935154e-12 2.1483484279428676e-12 3.3945620950647407e-14
3.4276182099114902 2.3694146502385608e-20 2.1557725810171344e-12 2.121479597039347e-12 3.429298397778759e-14
3.4340518103208963 2.2118126169014726e-20 2.016158203826585e-12 1.9815369788752934e-12 3.462122495129148e-14
3.4469541582030403 1.9863640034355185e-20 1.8174554626174776e-12 1.7822048376740355e-12 3.525062494344221e-14
3.472904465399547 1.928723483745054e-20 1.7780019711365453e-12 1.7413005584087503e-12 3.670141272779523e-14
3.4990501388274233 1.838756595779632e-20 1.7078268702647026e-12 1.6696422417075055e-12 3.8184628557197323e-14
3.5253949054701885 1.505165780953188e-20 1.4085152127262757e-12 1.368891883078823e-12 3.962332964745253e-14
3.5519380250092896 1.187892973953132e-20 1.1199847936456702e-12 1.0789172475396345e-12 4.1067546106036066e-14
3.578680990867387 1.0681831001367319e-20 1.0147010788960658e-12 9.720508795126073e-13 4.265019938345846e-14
3.605625307711299 1.0262594483788343e-20 9.82216430992898e-13 9.37900515884217e-13 4.431591510868139e-14
3.660119384959845 1.0091458044770995e-20 9.804345414302165e-13 9.326242172228973e-13 4.7810324207319145e-14
3.715437065384467 1.0023464729302253e-20 9.885467414769802e-13 9.370601483825678e-13 5.148659309441228e-14
3.8285932144167436 1.0298473339376046e-20 1.046601872402497e-12 9.872406057255765e-13 5.936126667692034e-14
3.94519561050918 1.0682942605064112e-20 1.1187392351185804e-12 1.050831033572724e-12 6.79082015458563e-14
4.06534921144712 1.1109322916847279e-20 1.198822487755542e-12 1.1217150397695404e-12 7.710744798600143e-14
4.189162171576248 1.1556307452569582e-20 1.2850371815997164e-12 1.1980713986258175e-12 8.696578297389956e-14
4.316745939156006 1.2013365640160051e-20 1.3765456478993865e-12 1.2791113476945967e-12 9.743430020478946e-14
4.448215356677963 1.247380292264088e-20 1.4728350688534697e-12 1.364481441961973e-12 1.0835362689149628e-13
4.58368876423945 1.2934815493238338e-20 1.5737827917020906e-12 1.4540574363726062e-12 1.1972535532948425e-13
4.723288106065518 1.3395805255363074e-20 1.6795103917287248e-12 1.5479010171427318e-12 1.3160937458599305e-13
4.867139040275056 1.3854926689675575e-20 1.7899768662579845e-12 1.646309404264824e-12 1.4366746199316046e-13
4.940699165968905 1.4088807997437318e-20 1.847702704961602e-12 1.6979066771346227e-12 1.4979602782697957e-13
5.015371051989984 1.4317285296096208e-20 1.906045137628922e-12 1.750075457161392e-12 1.5596968046752996e-13
5.091171501069577 1.455821893988884e-20 1.967412409477229e-12 1.8050869535942692e-12 1.6232545588296016e-13
5.129500256944802 1.467627895700097e-20 1.9982988889098096e-12 1.832786448119858e-12 1.655124407899513e-13
5.168117569889187 1.4794403218626687e-20 2.02954772892117e-12 1.8608094667884647e-12 1.6873826213270548e-13
5.20702561229733 1.4925724660127094e-20 2.062977886574191e-12 1.8907058012681322e-12 1.7227208530605918e-13
5.246226572918644 1.5055772264783657e-20 2.096618979383903e-12 1.920798244942269e-12 1.7582073444163335e-13
5.265937586045735 1.512031183004184e-20 2.113517695109213e-12 1.935917606890689e-12 1.776000882185235e-13
5.285722656980489 1.5184525396606403e-20 2.1304680578214935e-12 1.9510855491966806e-12 1.7938250862481274e-13
5.305582063971359 1.5248410788676915e-20 2.1474697387918386e-12 1.966301959681344e-12 1.8116777911049455e-13
5.3255160863122235 1.5314525477944308e-20 2.16488423874356e-12 1.981913328268297e-12 1.8297091047526272e-13
5.365609099470188 1.5465567111059552e-20 2.2026947302712538e-12 2.0159923893890147e-12 1.8670234088223925e-13
5.406003951863644 1.5616307165488103e-20 2.240908555364024e-12 2.050460420881521e-12 1.9044813448250318e-13
5.446702915881641 1.5766798503984293e-20 2.2795369609800205e-12 2.0853304058000404e-12 1.942065551799807e-13
5.487708281020852 1.5921919426763214e-20 2.319294359009997e-12 2.1213012870636774e-12 1.9799307194631957e-13
5.529022354014368 1.6119738664736432e-20 2.3657877328536684e-12 2.1638478216020506e-12 2.019399112516185e-13
5.570647458961463 1.632057872242538e-20 2.4132963857734626e-12 2.207395370313908e-12 2.0590101545955385e-13
5.612585937458331 1.6524791659277002e-20 2.4618887828281556e-12 2.2520141668586645e-12 2.098746159694911e-13
5.654840148729818 1.673997898829794e-20 2.5127233431807914e-12 2.298843313543332e-12 2.1388002963745871e-13
5.67608639626678 1.6881084337627578e-20 2.543424028785075e-12 2.3274460215017157e-12 2.1597800728335873e-13
5.686739436050992 1.69526797450652e-20 2.5590049169958303e-12 2.3419764145203612e-12 2.1702850247546905e-13
5.6974124697621304 1.7024996337014402e-20 2.5747443983692988e-12 2.3566644338301396e-12 2.1807996453915952e-13
5.718818669136295 1.717187426760692e-20 2.606714448945369e-12 2.3865287723583034e-12 2.201856765870665e-13
5.740305295436557 1.733086389391833e-20 2.6407338679648075e-12 2.4184221590936017e-12 2.2231170887120593e-13
5.7835210386641895 1.7733509145016645e-20 2.7224282083144664e-12 2.495723840809907e-12 2.2670436750455893e-13
5.827062130521658 1.8180376679994434e-20 2.8120430102146497e-12 2.580887473898502e-12 2.3115553631614783e-13
5.8489554468988025 1.8491871198530384e-20 2.87096968056888e-12 2.6374026532544185e-12 2.3356702731446063e-13
5.870931020387893 1.8819190232316197e-20 2.9327655292251324e-12 2.696779514321683e-12 2.35986014903449e-13
5.892989160043636 1.9163605944988206e-20 2.9976595475803975e-12 2.759247271650429e-12 2.384122759299682e-13
5.915130176081913 1.955092913628411e-20 3.069736805668775e-12 2.828806991348433e-12 2.4092981432034206e-13
5.95966208400165 2.0629759086380604e-20 3.2635120837353905e-12 3.016799310023501e-12 2.4671277371188955e-13
6.004529249263818 2.21583512971607e-20 3.5317165549186896e-12 3.2784702007471824e-12 2.5324635417150805e-13
6.027089341400364 2.3214751982364922e-20 3.713993252904586e-12 3.45694860887246e-12 2.5704464403212527e-13
6.049734195844842 2.44463892153984e-20 3.925730197878967e-12 3.66465717983718e-12 2.6107301804178733e-13
6.095279466722835 2.798435253975266e-20 4.527707044800804e-12 4.25665320634179e-12 2.710538384590139e-13
6.141167624020661 3.335252457567158e-20 5.436871862562568e-12 5.152766397365855e-12 2.841054651967124e-13
6.164241091010745 3.6768686274367836e-20 6.016267836592363e-12 5.723923710120566e-12 2.923441264717968e-13
6.187401249150058 4.059607099296983e-20 6.667479929192778e-12 6.366685007428103e-12 3.0079492176467513e-13
6.1990139391386085 4.2453633363223715e-20 6.9856514217672435e-12 6.680558185341478e-12 3.0509323642576533e-13
6.204828454712694 4.3426726877941984e-20 7.1524743562913316e-12 6.8452110497978455e-12 3.072633064934857e-13
6.210648424152782 4.413016855288301e-20 7.275150206577999e-12 6.96604851276602e-12 3.0910169381198037e-13
6.233982942956859 4.648152066501037e-20 7.691576616856872e-12 7.376109969577904e-12 3.15466647278967e-13
6.239830258556775 4.6760239200930686e-20 7.744955609815254e-12 7.428639303694568e-12 3.1631630612068603e-13
6.245683058788269 4.6752209322389405e-20 7.750888932790953e-12 7.433721953585823e-12 3.1716697920513074e-13
6.257405133728602 4.6613058134001115e-20 7.742323323713282e-12 7.423687005782753e-12 3.1863631793052987e-13
6.269149208991335 4.6056936756745346e-20 7.664310471432614e-12 7.345229180271445e-12 3.1908129116116927e-13
6.280915325867298 4.4774483608824845e-20 7.464882178508308e-12 7.146621354163539e-12 3.182608243447696e-13
6.304513850009849 4.1658460611798063e-20 6.971468249629509e-12 6.6559914646610896e-12 3.1547678496842e-13
6.32820103803542 3.787264717788001e-20 6.361731897333237e-12 6.050255200139629e-12 3.114766971936074e-13
6.3519772230701035 3.4423785673650336e-20 5.804128171200713e-12 5.496262782916135e-12 3.0786538828457974e-13
6.375842739491607 3.151129195962135e-20 5.333020329757452e-12 5.028366495339071e-12 3.0465383441838014e-13
6.399797922933955 2.920913590741688e-20 4.961973078122143e-12 4.659091862968865e-12 3.0288121515327684e-13
6.42384311029221 2.728481151271871e-20 4.652488589012516e-12 4.351092382009599e-12 3.013962070029156e-13
6.447978639727206 2.589181947009088e-20 4.431549384829646e-12 4.130518686585129e-12 3.010306982445182e-13
6.472204850670314 2.4725525736015518e-20 4.247830925351126e-12 3.946944402949238e-12 3.008865224018884e-13
