Dust emission spectrum from A.P. Jones, M. Kohler, N. Ysard, M. Bocchio, and L. Verstraete (2017), A&A, 602A, 46J 
inside the DustPedia framework.

lambda    nu*dP/dnu     j_nu    j_nu(carb.) j_nu(sil)
 (um)   (erg s-1 H-1) (Jy cm2 sr-1 H-1)
0.9927057738263894 2.2087439608376683e-24 5.8201657909597e-17 5.820165790955638e-17 4.06117316575203e-29
1.0001793341362166 2.245225783089531e-24 5.960838160542214e-17 5.960838160537321e-17 4.892680790908659e-29
1.0077091589558085 2.2816553342030578e-24 6.103158932789508e-17 6.10315893278362e-17 5.886897818094934e-29
1.0114953028030835 2.299846021265163e-24 6.174930353503756e-17 6.174930353497302e-17 6.454271396090003e-29
1.0152956718711033 2.318018270583474e-24 6.247105245700817e-17 6.247105245693743e-17 7.074052227307499e-29
1.0229392996569957 2.3542825222043494e-24 6.392605076901537e-17 6.392605076893048e-17 8.489773664519229e-29
1.0267826658714554 2.3723305348882006e-24 6.4658132990616e-17 6.465813299052304e-17 9.29640732912701e-29
1.0306404723013447 2.3903521298743597e-24 6.539409121241932e-17 6.539409121231756e-17 1.0176396991309836e-28
1.03451277320114 2.4083455679808737e-24 6.613389375186009e-17 6.613389375174874e-17 1.1136089516654242e-28
1.0383996230291617 2.426309119685226e-24 6.687750853075496e-17 6.687750853063313e-17 1.21823506656934e-28
1.0403485208654093 2.4352791503838084e-24 6.725073537925585e-17 6.725073537912846e-17 1.2740241636441966e-28
1.0423010764483396 2.444241065455932e-24 6.762490308289139e-17 6.762490308275817e-17 1.332260485101203e-28
1.0462171883269815 2.462139696076827e-24 6.837604456162628e-17 6.837604456148064e-17 1.4564877718969608e-28
1.0471985131304309 2.4666089489490162e-24 6.856441150376772e-17 6.856441150361879e-17 1.4892387764745583e-28
1.048180758391296 2.471075986974785e-24 6.875301003173957e-17 6.875301003158729e-17 1.5226954727852399e-28
1.0501480137395462 2.4800033129639895e-24 6.913089974749033e-17 6.913089974733118e-17 1.591784173942929e-28
1.0521189612883777 2.4889214634335353e-24 6.950970949943933e-17 6.950970949927294e-17 1.6638731882890416e-28
1.0531058218030118 2.4933701831430588e-24 6.969926660930759e-17 6.969926660913748e-17 1.7010837677621705e-28
1.0540936079674168 2.4977940905682793e-24 6.988842391505583e-17 6.988842391488195e-17 1.7390994211731867e-28
1.058054026499678 2.5154645456833493e-24 7.064728523226551e-17 7.064728523207558e-17 1.899466410620668e-28
1.0590464539527713 2.519875736581955e-24 7.083755588198916e-17 7.083755588179497e-17 1.9417196065732533e-28
1.06003981227728 2.5242843067999375e-24 7.10280475740433e-17 7.102804757384484e-17 1.9848726800763728e-28
1.0620293250338977 2.5330934825179757e-24 7.140969190309994e-17 7.140969190289254e-17 2.073951785235426e-28
1.0660195594769086 2.55067925905227e-24 7.217560899509912e-17 7.217560899487274e-17 2.263735047508853e-28
1.070024785945596 2.568220245689577e-24 7.294500125045019e-17 7.294500125020319e-17 2.4700885491552467e-28
1.0740450607676866 2.585714825524402e-24 7.371783309362181e-17 7.371783309335239e-17 2.694384317836284e-28
1.07808044048254 2.6031613946029936e-24 7.449406863898474e-17 7.449406863869094e-17 2.9381013473131453e-28
1.0861967418109137 2.6378733104084705e-24 7.605571658799911e-17 7.605571658765006e-17 3.490297683253661e-28
1.0902777775684922 2.655065384554836e-24 7.683901940811649e-17 7.683901940773625e-17 3.8023437152938506e-28
1.0943741465085532 2.6722019407136508e-24 7.762552185659884e-17 7.762552185618476e-17 4.140960577269719e-28
1.1026131145906286 2.7063024071365364e-24 7.920797502958941e-17 7.920797502909872e-17 4.906635005635966e-28
1.1109141095355224 2.7401626731657446e-24 8.080277236175483e-17 8.080277236117416e-17 5.806468249780844e-28
1.1192775983109025 2.773739495087404e-24 8.24086719190057e-17 8.240867191831944e-17 6.862586080125291e-28
1.1277040513999907 2.806876869759362e-24 8.402101728216153e-17 8.402101728135148e-17 8.100521826567299e-28
1.1361939428280308 2.839734915859768e-24 8.564454452812568e-17 8.564454452717072e-17 9.549697606497305e-28
1.1447477501889525 2.8723026752996017e-24 8.72789342380485e-17 8.72789342369241e-17 1.1243975388899698e-27
1.1533659546722406 2.904587200100639e-24 8.892440744120783e-17 8.892440743988559e-17 1.3222293367822722e-27
1.1707974979042381 2.9684108642110425e-24 9.225188121005075e-17 9.225188120822911e-17 1.8216526862471598e-27
1.1884924949847024 3.0309640906415287e-24 9.561954389054325e-17 9.56195438880459e-17 2.497348872645202e-27
1.2064549276569216 3.0927362074369353e-24 9.904291489365123e-17 9.904291489024418e-17 3.407040607934495e-27
1.2246888378427687 3.1530523365618576e-24 1.0250059163644182e-16 1.0250059163181617e-16 4.6256632267200195e-27
1.2431983285522175 3.211771334817139e-24 1.0598745607822649e-16 1.0598745607197634e-16 6.2501664343259005e-27
1.2619875648066055 3.268871229389007e-24 1.0950206805860414e-16 1.0950206805019879e-16 8.405340025068387e-27
1.3004222497298317 3.3772642639072015e-24 1.1657860902260626e-16 1.16578609007616e-16 1.4990233650217228e-26
1.3400274889804893 3.477807135411027e-24 1.2370539338868959e-16 1.2370539336243938e-16 2.6250205783252233e-26
1.3808389325824078 3.570126877943943e-24 1.3085674317057936e-16 1.308567431254221e-16 4.5157290431681065e-26
1.4228933163050095 3.6546729181368706e-24 1.380353394106572e-16 1.3803533933430764e-16 7.634952981714373e-26
1.466228494730424 3.733480633795876e-24 1.4530648302479152e-16 1.4530648289785574e-16 1.2693580150776583e-25
1.5108834753276823 3.805017234150974e-24 1.5260087805488293e-16 1.5260087784727104e-16 2.0761186357931645e-25
1.5568984535646726 3.868042501760805e-24 1.5985306130468664e-16 1.5985306097029094e-16 3.3439570186201506e-25
1.6043148490894465 3.922671543277623e-24 1.6704788492204837e-16 1.670478843906726e-16 5.313757480612161e-25
1.6531753430134553 3.9690704489635054e-24 1.7417152712282756e-16 1.7417152629071299e-16 8.321145368305648e-25
1.7035239163302658 4.0077907526797285e-24 1.812269189622834e-16 1.8122691767785108e-16 1.2844323162089115e-24
1.755405889504358 4.042019614296209e-24 1.883412293326832e-16 1.8834122737742e-16 1.9552631813820402e-24
1.8088679632656115 4.07096993835605e-24 1.9546733665372803e-16 1.9546733371728716e-16 2.936440932167898e-24
1.8639582606462262 4.094108607435636e-24 2.0256526449090388e-16 2.0256526013845125e-16 4.352452637526657e-24
1.9207263702978936 4.1118220687494475e-24 2.096376318870696e-16 2.0963762551749768e-16 6.3695719819040496e-24
1.979223391128241 4.125009985311882e-24 2.167151397121465e-16 2.16715130505101e-16 9.207045459470964e-24
2.039501978296691 4.134749061514495e-24 2.2384258949671525e-16 2.2384257634680964e-16 1.3149905604416349e-23
2.1016163906111602 4.144055199437241e-24 2.311790163819266e-16 2.3117899781669686e-16 1.856522978164486e-23
2.1656225393682647 4.154677129187531e-24 2.3883032804259294e-16 2.3883030212426286e-16 2.591833001983093e-23
2.231578038680979 4.166740006578312e-24 2.4681861690742794e-16 2.4681858111573538e-16 3.579169256205769e-23
2.299542257339062 4.181290896146449e-24 2.552238235772227e-16 2.5522377467105737e-16 4.890616528159512e-23
2.369576372248914 4.200645144041513e-24 2.6421419051888903e-16 2.642141243739086e-16 6.61449804240415e-23
2.4417434235010123 4.227536804118963e-24 2.7400397101608513e-16 2.740038824395826e-16 8.857650239894554e-23
2.5161083711144245 4.266648197306846e-24 2.849611210522726e-16 2.8496100356931345e-16 1.1748295905632411e-22
2.5927381535095444 4.325641784222815e-24 2.9769986888797775e-16 2.97699714501532e-16 1.5438644577630153e-22
2.6717017477616296 4.4136660211061854e-24 3.1300903594056345e-16 3.13008834874051e-16 2.0106651256552315e-22
2.753070231689431 4.544494784639976e-24 3.321026437902984e-16 3.321023842048754e-16 2.5958542300188015e-22
2.836916847834745 4.7493338546205294e-24 3.576421845207355e-16 3.5764185219895913e-16 3.323217762530605e-22
2.9233170693905177 5.096911189717605e-24 3.955054039892385e-16 3.955049820647108e-16 4.2192452778989835e-22
2.967498994190263 5.392079534288878e-24 4.247332912385845e-16 4.2473281799307557e-16 4.732455089877711e-22
3.0123486681368425 5.7368019312694856e-24 4.587166744886364e-16 4.587161443776669e-16 5.3011096946889e-22
3.0578761833420214 6.508108294981465e-24 5.282555887516591e-16 5.282549955628042e-16 5.931888549184828e-22
3.1040917844459814 7.502024638809106e-24 6.181337741063346e-16 6.18133111541866e-16 6.62564468684364e-22
3.127460860933648 8.553441653904468e-24 7.100717155743389e-16 7.100710155711331e-16 7.000032058496179e-22
3.1510058709225794 9.954311027643237e-24 8.325874337233586e-16 8.325866944785692e-16 7.392447895301546e-22
3.162844764501044 1.1258295195518694e-23 9.451917922173513e-16 9.451910325799847e-16 7.596373666911622e-22
3.1747281389236908 1.2774726170331175e-23 1.0765335623598755e-15 1.076532781856112e-15 7.8050376346843235e-22
3.1986289994194426 1.7004498063240373e-23 1.4437670312710797e-15 1.443766207474144e-15 8.237969358483166e-22
3.2227097969389145 2.697507618673581e-23 2.3075616480484986e-15 2.3075607781347785e-15 8.699137193523865e-22
3.2348180950136065 3.643030333711594e-23 3.128110487283518e-15 3.1281095926900405e-15 8.945934786321397e-22
3.240889293275058 4.3499307539363713e-23 3.742105029291961e-15 3.7421041216738885e-15 9.076180731271906e-22
3.2469718861334385 5.1677050514114065e-23 4.453953509495145e-15 4.453952588395313e-15 9.21099833254253e-22
3.2714166318528037 9.52985541231151e-23 8.275449673404627e-15 8.275448696386792e-15 9.770178355674635e-22
3.2744851364798273 9.802545670394741e-23 8.520230241740155e-15 8.520229258083211e-15 9.836569443065121e-22
3.2775565192852394 1.0083068321382109e-22 8.772276912751803e-15 8.77227592241738e-15 9.903344255772713e-22
3.283707930232385 9.813287701137845e-23 8.553591121928193e-15 8.553590119560826e-15 1.002367366390397e-21
3.2898708863219004 8.957739323991667e-23 7.822520449300532e-15 7.822519435897476e-15 1.0134030562003564e-21
3.29141343181113 8.755979797782111e-23 7.649915200681469e-15 7.649914184504646e-15 1.0161768236594313e-21
3.292184975758714 8.656842332377151e-23 7.565073806320118e-15 7.565072788754177e-15 1.0175659398264732e-21
3.295272960557952 8.031077057480687e-23 7.024810620756954e-15 7.024809597772203e-15 1.0229847550570277e-21
3.3076538914384823 5.863238271824012e-23 5.147863655574328e-15 5.14786261077519e-15 1.0447991380367277e-21
3.310756385682612 5.422028663761904e-23 4.764951314098458e-15 4.764950263790079e-15 1.0503083782125045e-21
3.313861789986515 5.014944440867046e-23 4.411334094351029e-15 4.4113330385110425e-15 1.0558399865745766e-21
3.3200813396944477 4.444053686876922e-23 3.916493892625827e-15 3.916492824923712e-15 1.067702114730255e-21
3.345076488085796 3.4256345587688155e-23 3.0417009754312075e-15 3.041699854926229e-15 1.1205049778520572e-21
3.3482140837626964 3.4638224128284647e-23 3.0784937054081888e-15 3.0784925777488304e-15 1.1276593584754446e-21
3.3513546224236106 3.502432468683941e-23 3.11572836700904e-15 3.115727232157233e-15 1.1348518068362411e-21
3.3576445397418455 3.7846094764835336e-23 3.3730689805665662e-15 3.373067830687071e-15 1.1498794959226252e-21
3.3702598118196083 4.825402254728256e-23 4.316843830679601e-15 4.3168426492520065e-15 1.1814275940215914e-21
3.382922481734668 5.062446561693659e-23 4.545921491892826e-15 4.5459202796257804e-15 1.2122670471190007e-21
3.389271646505754 5.185251892542744e-23 4.664935788653704e-15 4.664934560715455e-15 1.227938248895703e-21
3.395632727569191 5.317580113254241e-23 4.792964202459779e-15 4.792962958366749e-15 1.2440930300841297e-21
3.421196662673239 5.952968407375035e-23 5.406062352977444e-15 5.406061041777504e-15 1.311199940169149e-21
3.4276182099114902 5.824915137026294e-23 5.299702328542896e-15 5.299701002169062e-15 1.3263738341081854e-21
3.4340518103208963 5.2638029667706295e-23 4.7981729797927425e-15 4.798171638973315e-15 1.3408194273543474e-21
3.4469541582030403 4.4646766226055933e-23 4.0850271664915906e-15 4.085025797749687e-15 1.3687419039435144e-21
3.472904465399547 4.240708244087181e-23 3.909314985039436e-15 3.9093135521759684e-15 1.4328634680266405e-21
3.4990501388274233 3.89816284512035e-23 3.6205919080558385e-15 3.6205904090738906e-15 1.4989819481317601e-21
3.5253949054701885 2.679138355397356e-23 2.5071039870344992e-15 2.507102423074538e-15 1.5639599601772403e-21
3.5519380250092896 1.5334031869687297e-23 1.4457432526244954e-15 1.4457416227192895e-15 1.629905206410204e-21
3.578680990867387 1.0791046741411427e-23 1.0250758291838209e-15 1.0250741268102212e-15 1.702373599634602e-21
3.605625307711299 8.953401480751748e-24 8.569156719153751e-16 8.569138927649531e-16 1.7791504218844756e-21
3.660119384959845 7.612576336001593e-24 7.395990506007811e-16 7.395971082397661e-16 1.9423610147438668e-21
3.715437065384467 6.662925754591165e-24 6.571194413593402e-16 6.571173241257186e-16 2.117233621626202e-21
3.8285932144167436 6.180257774001232e-24 6.280804100806334e-16 6.280779068860978e-16 2.5031945354380957e-21
3.94519561050918 6.0868569019402635e-24 6.374278966475862e-16 6.3742495674888225e-16 2.9398987038858754e-21
4.06534921144712 6.15343230205139e-24 6.640254384354547e-16 6.640220069450156e-16 3.431490439142287e-21
4.189162171576248 6.312786490540276e-24 7.019686342838586e-16 7.019646503553681e-16 3.983928490407147e-21
4.316745939156006 6.539918960888349e-24 7.493734273042234e-16 7.493688259624139e-16 4.601341809573178e-21
4.448215356677963 6.82648424186645e-24 8.060320858643055e-16 8.060268030793295e-16 5.28278497611888e-21
4.58368876423945 7.173574728858925e-24 8.728109395274191e-16 8.728049035024858e-16 6.036024933578692e-21
4.723288106065518 7.589266978498825e-24 9.51510753777897e-16 9.515038806326736e-16 6.873145223453192e-21
4.867139040275056 8.089654513995495e-24 1.0451368499020533e-15 1.0451290637504118e-15 7.786151641428598e-21
4.940699165968905 8.391717055083304e-24 1.1005472077389497e-15 1.1005389314978176e-15 8.276241132136192e-21
5.015371051989984 8.70469436310268e-24 1.1588468080510798e-15 1.1588380188456489e-15 8.789205430673355e-21
5.091171501069577 9.086655358992592e-24 1.2279797815749357e-15 1.2279704467356843e-15 9.334839251226057e-21
5.129500256944802 9.282763405699312e-24 1.2639263572169201e-15 1.2639167402523726e-15 9.616964547649857e-21
5.168117569889187 9.487250588731718e-24 1.3014940583628253e-15 1.3014841511542223e-15 9.907208603131652e-21
5.20702561229733 9.738165235009275e-24 1.3459728082280347e-15 1.3459625886344287e-15 1.0219593606143693e-20
5.246226572918644 9.99553044641711e-24 1.3919457915810142e-15 1.3919352519795358e-15 1.0539601478599967e-20
5.265937586045735 1.0126696737454638e-23 1.415510009859095e-15 1.4154993073504104e-15 1.0702508684815845e-20
5.285722656980489 1.025955445995742e-23 1.439468965510394e-15 1.4394580981347335e-15 1.0867375661054596e-20
5.305582063971359 1.0394131069016916e-23 1.4638300502977634e-15 1.4638190160768913e-15 1.1034220871295473e-20
5.3255160863122235 1.0538706314518405e-23 1.489767295102024e-15 1.4897560911908817e-15 1.1203911142629451e-20
5.365609099470188 1.0898690946902748e-23 1.5522540455972334e-15 1.5522424895662268e-15 1.1556031006114398e-20
5.406003951863644 1.1272425677466912e-23 1.6175703303381556e-15 1.6175584134291147e-15 1.1916909040727747e-20
5.446702915881641 1.1660575376773752e-23 1.6858661922350512e-15 1.6858539055111289e-15 1.228672392211363e-20
5.487708281020852 1.2080001228690408e-23 1.7596545966337129e-15 1.759641929899521e-15 1.2666734191384368e-20
5.529022354014368 1.2662738865313909e-23 1.8584266714834394e-15 1.8584136058557787e-15 1.3065627661513782e-20
5.570647458961463 1.3279868581915903e-23 1.9636717176118343e-15 1.963658242888793e-15 1.3474723041313524e-20
5.612585937458331 1.3933865379385738e-23 2.0758886154966626e-15 2.075874721248614e-15 1.389424804880408e-20
5.654840148729818 1.465276157683421e-23 2.1994254641485335e-15 2.199411138267332e-15 1.4325881201370825e-20
5.67608639626678 1.5142218664682437e-23 2.2814341798545677e-15 2.2814196277428413e-15 1.4552111725823578e-20
5.686739436050992 1.539451297778343e-23 2.323799835620171e-15 2.323785169273925e-15 1.4666346246012993e-20
5.6974124697621304 1.565201204234767e-23 2.367103612329511e-15 2.3670888309965413e-15 1.478133296945868e-20
5.718818669136295 1.6183125700748672e-23 2.456621038323012e-15 2.456606024741683e-15 1.501358132871671e-20
5.740305295436557 1.6768550703283907e-23 2.5550532293076233e-15 2.5550379790417302e-15 1.5250265892869685e-20
5.7835210386641895 1.8287038345293982e-23 2.8074053832569815e-15 2.8073896393282425e-15 1.574392873907638e-20
5.827062130521658 2.0036294518433596e-23 3.099106412528993e-15 3.0990901579663123e-15 1.6254562680498287e-20
5.8489554468988025 2.1263230170053527e-23 3.3012391484769097e-15 3.3012226188547782e-15 1.6529622130823603e-20
5.870931020387893 2.2579881777472884e-23 3.5188282871616887e-15 3.5188114783255995e-15 1.6808836089811146e-20
5.892989160043636 2.3993470271530783e-23 3.7531691814948216e-15 3.7531520892256505e-15 1.7092269171397344e-20
5.915130176081913 2.56010948872161e-23 4.019687386358287e-15 4.019669999901487e-15 1.7386456799670978e-20
5.95966208400165 3.009561030178094e-23 4.7609566101086835e-15 4.760938564570069e-15 1.8045538613485018e-20
6.004529249263818 3.657341650503491e-23 5.829266754035048e-15 5.8292479669017e-15 1.8787133348690467e-20
6.027089341400364 4.107612250490551e-23 6.571530118202028e-15 6.571510906420194e-15 1.9211781832970823e-20
6.049734195844842 4.6397108486085224e-23 7.450692544949032e-15 7.450672882157506e-15 1.966279152418217e-20
6.095279466722835 6.176681678022633e-23 9.993515164357739e-15 9.99349440886128e-15 2.07554964578454e-20
6.141167624020661 8.542000880927025e-23 1.3924512411085353e-14 1.3924490252482757e-14 2.2158602594743952e-20
6.164241091010745 1.0052490613637795e-22 1.644836465061207e-14 1.644834162256059e-14 2.3028051483602664e-20
6.187401249150058 1.177317771370914e-22 1.9336212640521068e-14 1.933618870640077e-14 2.393412029619567e-20
6.1990139391386085 1.2613367140652493e-22 2.075501650129681e-14 2.0754992104242662e-14 2.4397054150774272e-20
6.204828454712694 1.3055948825049748e-22 2.1503425627882757e-14 2.1503400995567624e-14 2.4632315132929292e-20
6.210648424152782 1.3379045519392595e-22 2.205624156127694e-14 2.2056216725068528e-14 2.4836208410466478e-20
6.233982942956859 1.4476793534701432e-22 2.395562043700392e-14 2.395559487051153e-14 2.5566492387291417e-20
6.239830258556775 1.4617151624981765e-22 2.4210567014201545e-14 2.4210541333315103e-14 2.5680886447953908e-20
6.245683058788269 1.4629377185982107e-22 2.4253544242699766e-14 2.4253518446929715e-14 2.5795770044247985e-20
6.257405133728602 1.4599345815395522e-22 2.4249182555787467e-14 2.4249156551154012e-14 2.6004633457149583e-20
6.269149208991335 1.4383608734046726e-22 2.3935687173376437e-14 2.3935661055772152e-14 2.611760427779829e-20
6.280915325867298 1.3842415435499256e-22 2.30783231794996e-14 2.3078297068237555e-14 2.611126204382949e-20
6.304513850009849 1.2507746010261543e-22 2.093148736280318e-14 2.0931461373137056e-14 2.5989666120778444e-20
6.32820103803542 1.0853341964067307e-22 1.8231113193956918e-14 1.8231087444982886e-14 2.5748974029028768e-20
6.3519772230701035 9.336147590911835e-23 1.5741498554697712e-14 1.5741473011946794e-14 2.5542750915592266e-20
6.375842739491607 8.059790672970233e-23 1.3640515776889852e-14 1.3640490401806122e-14 2.5375083733124783e-20
6.399797922933955 7.036882967134567e-23 1.1954076268292407e-14 1.1954050925038067e-14 2.5343254341396586e-20
6.42384311029221 6.186473537619223e-23 1.0548908328204681e-14 1.0548882987395862e-14 2.53408088188297e-20
6.447978639727206 5.566831296910426e-23 9.527985407812373e-15 9.527959959167565e-15 2.54486448083767e-20
6.472204850670314 5.0506902220152075e-23 8.677056394474912e-15 8.677030814054095e-15 2.558042081582156e-20
6.496522083828205 4.715337169769779e-23 8.131358417807256e-15 8.131332613648762e-15 2.580415849666243e-20
