Dust emission spectrum from A.P. Jones, M. Kohler, N. Ysard, M. Bocchio, and L. Verstraete (2017), A&A, 602A, 46J 
inside the DustPedia framework.

lambda    nu*dP/dnu     j_nu    j_nu(carb.) j_nu(sil)
 (um)   (erg s-1 H-1) (Jy cm2 sr-1 H-1)
0.9927057738263894 8.519043058404406e-25 2.2448162330881446e-17 2.24481623271432e-17 3.738243787392329e-27
1.0001793341362166 8.659626241866818e-25 2.2990396309952826e-17 2.299039630545049e-17 4.502330111604658e-27
1.0077091589558085 8.80000961492114e-25 2.3538987893935664e-17 2.3538987888520094e-17 5.415568636345501e-27
1.0114953028030835 8.870109158745173e-25 2.38156406023637e-17 2.3815640596427132e-17 5.9365721367594216e-27
1.0152956718711033 8.940138148977085e-25 2.4093849749383818e-17 2.409384974287825e-17 6.505580757364734e-27
1.0229392996569957 9.079888446570826e-25 2.4654704961620617e-17 2.465470495381571e-17 7.804906180202526e-27
1.0267826658714554 9.149440156229624e-25 2.4936901064634178e-17 2.49369010560892e-17 8.544987036907616e-27
1.0306404723013447 9.218890689865983e-25 2.5220592862278686e-17 2.5220592852926494e-17 9.352193294995372e-27
1.03451277320114 9.288233378605887e-25 2.5505768257260344e-17 2.5505768247028026e-17 1.0232313399543717e-26
1.0383996230291617 9.357461591188985e-25 2.5792415002427268e-17 2.579241499123566e-17 1.1191607095728477e-26
1.0403485208654093 9.392030707253447e-25 2.593628626384787e-17 2.5936286252144832e-17 1.170303787260153e-26
1.0423010764483396 9.426568735248693e-25 2.6080520703734175e-17 2.6080520691497337e-17 1.2236841357174083e-26
1.0462171883269815 9.495548258564347e-25 2.6370072823211945e-17 2.6370072809836614e-17 1.337532885083621e-26
1.0471985131304309 9.512772434735455e-25 2.6442685373164178e-17 2.6442685359488748e-17 1.36754337560138e-26
1.048180758391296 9.529988126153386e-25 2.651538733302694e-17 2.6515387319044943e-17 1.3981987053460847e-26
1.0501480137395462 9.564393650285167e-25 2.6661058681940473e-17 2.6661058667325502e-17 1.461496910176412e-26
1.0521189612883777 9.598764023763608e-25 2.680708526355215e-17 2.680708524827679e-17 1.5275361357288215e-26
1.0531058218030118 9.615909375992322e-25 2.6880157459947253e-17 2.688015744433104e-17 1.5616209560024898e-26
1.0540936079674168 9.632959139724641e-25 2.6953075694094493e-17 2.6953075678130075e-17 1.5964412312201654e-26
1.058054026499678 9.701061733584956e-25 2.7245610617907155e-17 2.7245610600474084e-17 1.743306427311781e-26
1.0590464539527713 9.718062771580644e-25 2.7318958814226946e-17 2.7318958796406988e-17 1.7819964238723123e-26
1.06003981227728 9.735053767948826e-25 2.739239238239026e-17 2.7392392364175175e-17 1.821508016601298e-26
1.0620293250338977 9.769005242404263e-25 2.7539514801736348e-17 2.7539514782705722e-17 1.9030626973906173e-26
1.0660195594769086 9.836783374906069e-25 2.783477491797657e-17 2.783477489720874e-17 2.0767830489292798e-26
1.070024785945596 9.904389888097987e-25 2.8131377516583143e-17 2.81313774939269e-17 2.2656245764916657e-26
1.0740450607676866 9.971818588308252e-25 2.8429309028063425e-17 2.842930900335509e-17 2.4708346101561512e-26
1.07808044048254 1.0039063332194023e-24 2.872855576646375e-17 2.8728555739526175e-17 2.6937572784343856e-26
1.0861967418109137 1.0172857743295447e-24 2.933059682439047e-17 2.933059679240403e-17 3.1986439220617276e-26
1.0902777775684922 1.0239125026823906e-24 2.963257821201142e-17 2.9632578177172954e-17 3.4838466003103217e-26
1.0943741465085532 1.0305179583050641e-24 2.9935796796354264e-17 2.993579675842173e-17 3.793253862062393e-26
1.1026131145906286 1.043662719737386e-24 3.0545888155839635e-17 3.0545888110913637e-17 4.492600324037752e-26
1.1109141095355224 1.056715452613473e-24 3.1160755164228327e-17 3.1160755111087864e-17 5.314045868844952e-26
1.1192775983109025 1.0696595211440751e-24 3.177992046445773e-17 3.1779920401681333e-17 6.277639885753674e-26
1.1277040513999907 1.0824348221353708e-24 3.24015904927267e-17 3.240159041866167e-17 7.406502962258067e-26
1.1361939428280308 1.0951031187476509e-24 3.302759257304706e-17 3.302759248577447e-17 8.727258586391755e-26
1.1447477501889525 1.1076602235352741e-24 3.3657805160785625e-17 3.3657805058080385e-17 1.0270525393535246e-25
1.1533659546722406 1.1201088852910693e-24 3.4292314890972805e-17 3.4292314770257944e-17 1.2071486336009057e-25
1.1707974979042381 1.144721184388464e-24 3.557549394325531e-17 3.5575493777116096e-17 1.661392149605329e-25
1.1884924949847024 1.1688471902007963e-24 3.6874285495440265e-17 3.687428526791683e-17 2.275234231384559e-25
1.2064549276569216 1.1926757685103592e-24 3.819468480766001e-17 3.819468449759499e-17 3.10065028069033e-25
1.2246888378427687 1.2159471936296218e-24 3.952846113604693e-17 3.952846071554601e-17 4.205009139216643e-25
1.2431983285522175 1.238607350082144e-24 4.0873657689106285e-17 4.087365712157316e-17 5.675331189973124e-25
1.2619875648066055 1.2606482186926364e-24 4.222974150836807e-17 4.222974074602347e-17 7.623446075932081e-25
1.3004222497298317 1.3025077014963563e-24 4.496080976085843e-17 4.496080840452187e-17 1.3563365643467402e-24
1.3400274889804893 1.3413654344907327e-24 4.771228889092941e-17 4.771228652164789e-17 2.3692815370357533e-24
1.3808389325824078 1.377081348348491e-24 5.047450314416053e-17 5.047449907879389e-17 4.065366638985499e-24
1.4228933163050095 1.4098325523338013e-24 5.32487364075247e-17 5.324872955217427e-17 6.855350448921415e-24
1.466228494730424 1.4404076323965437e-24 5.606044003308785e-17 5.606042866669851e-17 1.136638934883085e-23
1.5108834753276823 1.46822064328375e-24 5.888324429452911e-17 5.888322575626441e-17 1.8538264690649227e-23
1.5568984535646726 1.4927986081041167e-24 6.169229715242016e-17 6.169226737948906e-17 2.9772931101835576e-23
1.6043148490894465 1.5141911286252056e-24 6.448218328094367e-17 6.44821361096574e-17 4.717128627532728e-23
1.6531753430134553 1.532467890677229e-24 6.724805624340923e-17 6.724798259933976e-17 7.364406945252861e-23
1.7035239163302658 1.5478470968754716e-24 6.999156834819743e-17 6.999145502832027e-17 1.133198771502016e-22
1.755405889504358 1.561563194492104e-24 7.2762321758927e-17 7.276214980962499e-17 1.7194930201789412e-22
1.8088679632656115 1.5733191658598603e-24 7.554280962857723e-17 7.554255224832028e-17 2.573802569801909e-22
1.8639582606462262 1.5829154609431044e-24 7.831831535449123e-17 7.831793516196621e-17 3.8019252500880744e-22
1.9207263702978936 1.590507185209489e-24 8.109061000980866e-17 8.109005557562579e-17 5.544341828887048e-22
1.979223391128241 1.5964473448736883e-24 8.387235682321105e-17 8.387155830867119e-17 7.9851453986803155e-22
2.039501978296691 1.6011566821740945e-24 8.668169521188291e-17 8.668055900347486e-17 1.1362084080866938e-21
2.1016163906111602 1.6058042115768053e-24 8.958091054981448e-17 8.957931262665527e-17 1.5979231592107293e-21
2.1656225393682647 1.6110700412794308e-24 9.261186236476681e-17 9.260964045093676e-17 2.221913830074663e-21
2.231578038680979 1.6170067723172576e-24 9.578408406648651e-17 9.57810283826607e-17 3.055683825799227e-21
2.299542257339062 1.624023096920754e-24 9.912952594516634e-17 9.912536843068152e-17 4.157514484791868e-21
2.369576372248914 1.6330154338696233e-24 1.0271418702832729e-16 1.0270858886793745e-16 5.598160389838542e-21
2.4417434235010123 1.64504124834086e-24 1.0662185935116683e-16 1.0661439700157494e-16 7.46234959193464e-21
2.5161083711144245 1.6619083831073758e-24 1.1099562327059819e-16 1.1098577258201762e-16 9.850688580563385e-21
2.5927381535095444 1.6865713190055674e-24 1.1607342576759201e-16 1.1606054455395796e-16 1.2881213634018201e-20
2.6717017477616296 1.722550865831231e-24 1.2216012341986965e-16 1.221434332904537e-16 1.6690129415960377e-20
2.753070231689431 1.7751433957521734e-24 1.2972395013605205e-16 1.29702517102438e-16 2.1433033614024146e-20
2.836916847834745 1.856348071915756e-24 1.3978978947224435e-16 1.3976250277741444e-16 2.7286694829880395e-20
2.9233170693905177 1.9925829280993123e-24 1.5461860853095262e-16 1.5458416486698686e-16 3.444366396577089e-20
2.967498994190263 2.1074106803002766e-24 1.6600042127407666e-16 1.6596190863714942e-16 3.851263692718779e-20
3.0123486681368425 2.241322732654657e-24 1.79216943986702e-16 1.7917393903751373e-16 4.300494918821922e-20
3.0578761833420214 2.539257367764849e-24 2.061085702638002e-16 2.0606059957126734e-16 4.7970692532840266e-20
3.1040917844459814 2.922746383552379e-24 2.4082142352276593e-16 2.407680149107178e-16 5.340861204816354e-20
3.127460860933648 3.327622040788575e-24 2.7624556136501317e-16 2.761892275967516e-16 5.63337682615036e-20
3.1510058709225794 3.866783231641065e-24 3.2342119094492246e-16 3.233617981374282e-16 5.93928074941826e-20
3.162844764501044 4.368382599619552e-24 3.6674818937675465e-16 3.6668720965723156e-16 6.097971952306119e-20
3.1747281389236908 4.951577924889459e-24 4.1727233536823277e-16 4.1720973376489303e-16 6.26016033397432e-20
3.1986289994194426 6.577847389081503e-24 5.58492180231911e-16 5.5842621952938e-16 6.596070253101378e-20
3.2227097969389145 1.0410349945547886e-23 8.905451873727214e-16 8.904756567095643e-16 6.95306631571299e-20
3.2348180950136065 1.4044344465146137e-23 1.2059263081591413e-15 1.205854869611634e-15 7.143854750715277e-20
3.240889293275058 1.676115903437257e-23 1.4419084134277106e-15 1.4418359684398273e-15 7.244498788279051e-20
3.2469718861334385 1.990412350167889e-23 1.7155011720244133e-15 1.7154276855867583e-15 7.348643765471387e-20
3.2714166318528037 3.66674209215224e-23 3.1840923430757695e-15 3.1840145441668e-15 7.779890896905021e-20
3.2744851364798273 3.7715387205447247e-23 3.2781666462141674e-15 3.2780883366906696e-15 7.830952349827833e-20
3.2775565192852394 3.879343978016709e-23 3.3750321360823684e-15 3.3749533131633633e-15 7.882291900512403e-20
3.283707930232385 3.7756926901706895e-23 3.291020548600497e-15 3.2909408027463467e-15 7.9745854150075e-20
3.2898708863219004 3.446943616468207e-23 3.010110693352162e-15 3.0100301031216324e-15 8.059023052999079e-20
3.29141343181113 3.369415449979643e-23 2.9437873388811678e-15 2.9437065365023127e-15 8.08023788538038e-20
3.292184975758714 3.331320715247754e-23 2.911187025910873e-15 2.9111061172994017e-15 8.090861147164513e-20
3.295272960557952 3.090877081390789e-23 2.7036007740186577e-15 2.7035194513444544e-15 8.132267420295456e-20
3.3076538914384823 2.2578694610750428e-23 1.98238645588652e-15 1.982303467790328e-15 8.298809619143564e-20
3.310756385682612 2.088320788338431e-23 1.8352442419122736e-15 1.8351608335434775e-15 8.34083687964301e-20
3.313861789986515 1.9318816510898328e-23 1.6993558940067376e-15 1.6992720637926282e-15 8.3830214108887e-20
3.3200813396944477 1.712502886903655e-23 1.5092092873377592e-15 1.5091245518039986e-15 8.473553375996787e-20
3.345076488085796 1.3212358041698131e-23 1.1731561453426978e-15 1.1730673802658939e-15 8.876507680369877e-20
3.3482140837626964 1.3359247083278084e-23 1.187311390519054e-15 1.1872220797452072e-15 8.931077384685149e-20
3.3513546224236106 1.3507757879878228e-23 1.2016364277493327e-15 1.2015465685603318e-15 8.985918900090164e-20
3.3576445397418455 1.459244323046232e-23 1.300565300520385e-15 1.30047429548588e-15 9.100503450470298e-20
3.3702598118196083 1.8592526795182537e-23 1.6633024638284546e-15 1.6632090547257214e-15 9.340910273346492e-20
3.382922481734668 1.9504100515484813e-23 1.7514083088655357e-15 1.7513125542071948e-15 9.575465834135268e-20
3.389271646505754 1.997634109858916e-23 1.797180743546573e-15 1.7970837982284516e-15 9.694531812194724e-20
3.395632727569191 2.0485265206758153e-23 1.8464252671841653e-15 1.846327094725425e-15 9.817245874068802e-20
3.421196662673239 2.2929003465844497e-23 2.08224895456231e-15 2.082145692139115e-15 1.0326242319453833e-19
3.4276182099114902 2.243718882430801e-23 2.0414103735569148e-15 2.041305965564496e-15 1.0440799241910182e-19
3.4340518103208963 2.028099824100594e-23 1.8486964344510815e-15 1.8485909382633907e-15 1.0549618769088087e-19
3.4469541582030403 1.7210114427762153e-23 1.5746669001708767e-15 1.5745593057369923e-15 1.0759443388371944e-19
3.472904465399547 1.6350127009005748e-23 1.5072434330450526e-15 1.5071310182581962e-15 1.1241478685610992e-19
3.4990501388274233 1.5034540223272306e-23 1.3963997102342491e-15 1.3962823400630326e-15 1.1737017121632293e-19
3.5253949054701885 1.0350914906507005e-23 9.686256023052473e-16 9.685033823408584e-16 1.2221996438880628e-19
3.5519380250092896 5.948468599986297e-24 5.608412982941218e-16 5.607141745826657e-16 1.2712371145629901e-19
3.578680990867387 4.203449127007071e-24 3.9929899318879226e-16 3.991664892450374e-16 1.3250394375486463e-19
3.605625307711299 3.4982434263030165e-24 3.3481125833779777e-16 3.34673069311956e-16 1.3818902584175062e-19
3.660119384959845 2.98508529360345e-24 2.900156466964331e-16 2.8986543150101357e-16 1.5021519541950475e-19
3.715437065384467 2.6222211300893607e-24 2.5861198932580753e-16 2.584489748915145e-16 1.6301443429308718e-19
3.8285932144167436 2.4411533492627215e-24 2.480868359770678e-16 2.478958830518104e-16 1.909529252573452e-19
3.94519561050918 2.4098742408583134e-24 2.523668772377177e-16 2.5214479706165654e-16 2.220801760611966e-19
4.06534921144712 2.4402654699523823e-24 2.633324409929453e-16 2.6307590231834577e-16 2.5653867459948166e-19
4.189162171576248 2.5065074155241523e-24 2.787183741972664e-16 2.7842379567331014e-16 2.9457852395628677e-19
4.316745939156006 2.5989895309183446e-24 2.9780394894182633e-16 2.974676682816606e-16 3.3628066016573215e-19
4.448215356677963 2.714500937268383e-24 3.205126936539776e-16 3.2013136082895894e-16 3.8133282501864523e-19
4.58368876423945 2.8534620188193474e-24 3.4718156005711256e-16 3.4675154404144203e-16 4.3001601567057543e-19
4.723288106065518 3.0189809933940102e-24 3.7850729046742336e-16 3.780244275995055e-16 4.828628679178971e-19
4.867139040275056 3.2172355935452166e-24 4.1564834045921325e-16 4.1510940154063565e-16 5.389389185775909e-19
4.940699165968905 3.33637957827693e-24 4.3755565216604895e-16 4.369872329141078e-16 5.68419251941155e-19
5.015371051989984 3.4597503377949824e-24 4.605929247328896e-16 4.599940978669661e-16 5.98826865923484e-19
5.091171501069577 3.609712815439436e-24 4.878202352271232e-16 4.871894763826232e-16 6.307588444999866e-19
5.129500256944802 3.6866725900135526e-24 5.019714984964936e-16 5.013244212052948e-16 6.470772911988841e-19
5.168117569889187 3.766863120585828e-24 5.167513943324535e-16 5.160876387739014e-16 6.637555585521576e-19
5.20702561229733 3.864947851707679e-24 5.341986491373126e-16 5.335168714177818e-16 6.817777195308272e-19
5.246226572918644 3.9655140025406235e-24 5.522248725949872e-16 5.515247752823514e-16 7.000973126357304e-19
5.265937586045735 4.016752326856006e-24 5.614617750682846e-16 5.607524064393263e-16 7.093686289584053e-19
5.285722656980489 4.0686410954613386e-24 5.7085155223603335e-16 5.701328379641806e-16 7.187142718526895e-19
5.305582063971359 4.121190794352803e-24 5.803970421122197e-16 5.796689078924095e-16 7.281342198102669e-19
5.3255160863122235 4.1775924468674486e-24 5.905507197818493e-16 5.898130338154464e-16 7.376859664029051e-19
5.365609099470188 4.317684747523764e-24 6.149494145314658e-16 6.141919525358165e-16 7.574619956493611e-19
5.406003951863644 4.4630571220306595e-24 6.40439687939773e-16 6.396621218763237e-16 7.7756606344913045e-19
5.446702915881641 4.613963996955072e-24 6.670790817192441e-16 6.66281083126025e-16 7.979985932191087e-19
5.487708281020852 4.776902641095504e-24 6.958359135023604e-16 6.950170849613768e-16 8.188285409836282e-19
5.529022354014368 5.0027485977522455e-24 7.342204181637503e-16 7.333798238112696e-16 8.405943524804637e-19
5.570647458961463 5.241791642939011e-24 7.75094869001211e-16 7.742321429882701e-16 8.627260129409858e-19
5.612585937458331 5.494979837850677e-24 8.186505163638077e-16 8.177652917388403e-16 8.85224624967228e-19
5.654840148729818 5.773110084053353e-24 8.665619282493627e-16 8.656537495017531e-16 9.081787476095518e-19
5.67608639626678 5.9622415228354294e-24 8.983136421395861e-16 8.973934656463746e-16 9.201764932113759e-19
5.686739436050992 6.059709965631263e-24 9.147124720581686e-16 9.137862579063692e-16 9.262141517994082e-19
5.6974124697621304 6.159175221039539e-24 9.314716775867187e-16 9.305393998765123e-16 9.32277710206424e-19
5.718818669136295 6.364288272698591e-24 9.661078306980266e-16 9.65163348044604e-16 9.444826534226928e-19
5.740305295436557 6.590294401779221e-24 1.0041746177894986e-15 1.003217750725052e-15 9.568670644463886e-19
5.7835210386641895 7.17611555490274e-24 1.1016691199147941e-15 1.1006865765308934e-15 9.825433839003567e-19
5.827062130521658 7.850582998851337e-24 1.2142860093939828e-15 1.2132771493199522e-15 1.0088600740306048e-18
5.8489554468988025 8.323455611577044e-24 1.292264500538903e-15 1.2912415051912747e-15 1.0229953476280658e-18
5.870931020387893 8.830756746235908e-24 1.3761771182832376e-15 1.375139848428469e-15 1.0372698547687948e-18
5.892989160043636 9.375255062754435e-24 1.4665205979784397e-15 1.4654689136945369e-15 1.0516842839031755e-18
5.915130176081913 9.994357989300778e-24 1.5692373674378467e-15 1.568170757258666e-15 1.0666101791805297e-18
5.95966208400165 1.1724782565489621e-23 1.8547947856020573e-15 1.853694655355942e-15 1.1001302461152068e-18
6.004529249263818 1.4217939284122892e-23 2.266131214960918e-15 2.2649936021543845e-15 1.1376128065338088e-18
6.027089341400364 1.5950662677870902e-23 2.551853821654941e-15 2.5506947991980976e-15 1.1590224568433086e-18
6.049734195844842 1.7997877896927342e-23 2.8901942178520865e-15 2.8890125571137267e-15 1.1816607383598344e-18
6.095279466722835 2.3910648475757216e-23 3.868605192693102e-15 3.867368763550311e-15 1.2364291427914947e-18
6.141167624020661 3.300848325356224e-23 5.380788894105678e-15 5.379482460665645e-15 1.3064334400334776e-18
6.164241091010745 3.881841879647378e-23 6.351654849180846e-15 6.350305009877329e-15 1.349839303515495e-18
6.187401249150058 4.543567536317013e-23 7.462334313232359e-15 7.46093974335798e-15 1.3945698743793839e-18
6.1990139391386085 4.8666824326403395e-23 8.008018245221424e-15 8.00660088061477e-15 1.4173646066560211e-18
6.204828454712694 5.0368772116172104e-23 8.295843984083283e-15 8.294415089293635e-15 1.4288947896469547e-18
6.210648424152782 5.16113275978565e-23 8.50846876293611e-15 8.507029914806466e-15 1.4388481296417065e-18
6.233982942956859 5.583287757733126e-23 9.239001854534903e-15 9.237527745955575e-15 1.4741085793262682e-18
6.239830258556775 5.637260829104588e-23 9.337064058794716e-15 9.335584641693027e-15 1.479417101687303e-18
6.245683058788269 5.641962605805148e-23 9.353616899472028e-15 9.352132159009355e-15 1.4847404626758584e-18
6.257405133728602 5.6304151664006e-23 9.351991997541684e-15 9.350497693497938e-15 1.4943040437450339e-18
6.269149208991335 5.547457889047323e-23 9.231495314900616e-15 9.229996316729964e-15 1.4989981706492842e-18
6.280915325867298 5.339350809912283e-23 8.90186139363143e-15 8.900363742443558e-15 1.4976511878698482e-18
6.304513850009849 4.82612290516777e-23 8.076429639519184e-15 8.074940167926376e-15 1.489471592809979e-18
6.32820103803542 4.1899833533456305e-23 7.038206392882586e-15 7.036730938219816e-15 1.4754546627696594e-18
6.3519772230701035 3.60661865895464e-23 6.081050224885674e-15 6.079586937402375e-15 1.4632874833004797e-18
6.375842739491607 3.1158231507236993e-23 5.273267826667072e-15 5.2718148263487785e-15 1.4530003182935056e-18
6.399797922933955 2.7225579640571655e-23 4.625011627902478e-15 4.623561897206473e-15 1.4497306960046798e-18
6.42384311029221 2.395586854290336e-23 4.0848515659999244e-15 4.083403706313702e-15 1.4478596862221597e-18
6.447978639727206 2.1573867988582068e-23 3.692504558192075e-15 3.6910530439326745e-15 1.4515142594005491e-18
6.472204850670314 1.958967368776939e-23 3.365494533741461e-15 3.364038237980958e-15 1.4562957605039607e-18
6.496522083828205 1.830088864680208e-23 3.155894893488452e-15 3.1544292901289263e-15 1.465603359525013e-18
