Dust emission spectrum from A.P. Jones, M. Kohler, N. Ysard, M. Bocchio, and L. Verstraete (2017), A&A, 602A, 46J 
inside the DustPedia framework.

lambda    nu*dP/dnu     j_nu    j_nu(carb.) j_nu(sil)
 (um)   (erg s-1 H-1) (Jy cm2 sr-1 H-1)
0.9927057738263894 3.693607511502011e-21 9.732865585526209e-14 9.732864955134222e-14 6.303919893494511e-21
1.0001793341362166 3.755655947872884e-21 9.970871286335718e-14 9.970870527782301e-14 7.58553416795608e-21
1.0077091589558085 3.817960179136679e-21 1.0212593209425954e-13 1.021259229787432e-13 9.115516290703223e-21
1.0114953028030835 3.84920553973991e-21 1.0334855422685865e-13 1.0334854423926414e-13 9.987594510473861e-21
1.0152956718711033 3.880511685847881e-21 1.0458056011164061e-13 1.0458054917219904e-13 1.093944158519829e-20
1.0229392996569957 3.943271809332081e-21 1.0707202364284027e-13 1.0707201053192113e-13 1.311091916204108e-20
1.0267826658714554 3.974654592052405e-21 1.0832965365713604e-13 1.0832963931050776e-13 1.4346628248393655e-20
1.0306404723013447 4.006092735339116e-21 1.0959673701043635e-13 1.0959672131688354e-13 1.5693552789610632e-20
1.03451277320114 4.0375853506833635e-21 1.1087330827694611e-13 1.1087329111575364e-13 1.716119244524873e-20
1.0383996230291617 4.0691315802177805e-21 1.1215940283985078e-13 1.1215938408003931e-13 1.875981146708303e-20
1.0403485208654093 4.084924540790197e-21 1.1280603264460005e-13 1.1280601303293111e-13 1.9611668950401787e-20
1.0423010764483396 4.100730597483784e-21 1.1345505692670311e-13 1.1345503642620698e-13 2.0500496172759524e-20
1.0462171883269815 4.132381608194362e-21 1.147603076453245e-13 1.147602852501081e-13 2.2395216407091693e-20
1.0471985131304309 4.14030239489181e-21 1.1508812423402292e-13 1.150881013395663e-13 2.2894456630527113e-20
1.048180758391296 4.1482263718602084e-21 1.154165435873914e-13 1.1541652018305332e-13 2.3404338090689325e-20
1.0501480137395462 4.16408385099195e-21 1.160751930202151e-13 1.1607516856332386e-13 2.445689124213417e-20
1.0521189612883777 4.179953955688595e-21 1.1673626084614514e-13 1.1673623529149455e-13 2.555465057919057e-20
1.0531058218030118 4.1878832456035324e-21 1.1706741054231395e-13 1.1706738442122003e-13 2.6121093913587216e-20
1.0540936079674168 4.195781360084714e-21 1.173982064637582e-13 1.1739817976409362e-13 2.6699664633745606e-20
1.058054026499678 4.227403462578086e-21 1.1872740513283148e-13 1.187273759939241e-13 2.913890742628742e-20
1.0590464539527713 4.235316348699583e-21 1.1906121169921876e-13 1.1906118191799366e-13 2.978122506697122e-20
1.06003981227728 4.243232159255512e-21 1.1939562230111254e-13 1.1939559186404338e-13 3.043706915403009e-20
1.0620293250338977 4.259072515277767e-21 1.2006625819692307e-13 1.2006622640649926e-13 3.179042383345505e-20
1.0660195594769086 4.290787906264414e-21 1.2141480709672168e-13 1.2141477242502153e-13 3.4671700122822677e-20
1.070024785945596 4.3225490606048984e-21 1.227730943871191e-13 1.2277305658554327e-13 3.780157583413067e-20
1.0740450607676866 4.3543554410689705e-21 1.2414116377660735e-13 1.2414112257626612e-13 4.1200341233566594e-20
1.07808044048254 4.386206548838412e-21 1.2551906016713377e-13 1.2551901527729255e-13 4.4889841214323437e-20
1.0861967418109137 4.4499925755859815e-21 1.2830311933936642e-13 1.2830306610249132e-13 5.3236875140826e-20
1.0902777775684922 4.481816265886272e-21 1.2970617184849023e-13 1.2970611390157e-13 5.79469202903031e-20
1.0943741465085532 4.51368118722255e-21 1.3111915395095097e-13 1.311190908979963e-13 6.305295464378665e-20
1.1026131145906286 4.577533616872511e-21 1.339751121183744e-13 1.3397503753732502e-13 7.458104937505328e-20
1.1109141095355224 4.641548084158639e-21 1.3687141895744085e-13 1.3687133085582477e-13 8.810161605550318e-20
1.1192775983109025 4.7056736062389004e-21 1.398070413826827e-13 1.3980693744479025e-13 1.0393789241237351e-19
1.1277040513999907 4.76968044119028e-21 1.4277555495834547e-13 1.4277543249644472e-13 1.224619007676806e-19
1.1361939428280308 4.8338408765008395e-21 1.457854738050465e-13 1.4578532970382246e-13 1.4410122405994787e-19
1.1447477501889525 4.898156137473353e-21 1.4883732521874231e-13 1.488371558721108e-13 1.6934663147643026e-19
1.1533659546722406 4.962650792883326e-21 1.5193235757545844e-13 1.5193215881452288e-13 1.987609355553487e-19
1.1707974979042381 5.092374878317313e-21 1.5826015462197008e-13 1.5825988185423265e-13 2.727677374414848e-19
1.1884924949847024 5.22284968493063e-21 1.6476820237623828e-13 1.647678299247368e-13 3.7245150151630104e-19
1.2064549276569216 5.3549570010455996e-21 1.7148910057002849e-13 1.7148859452075947e-13 5.060492690065756e-19
1.2246888378427687 5.487860623242721e-21 1.7840140303984953e-13 1.7840071884687233e-13 6.841929772250496e-19
1.2431983285522175 5.6214625158830715e-21 1.8550651630729356e-13 1.8550559575019473e-13 9.205570989045062e-19
1.2619875648066055 5.7559692134055425e-21 1.9281595643257348e-13 1.9281472379266885e-13 1.2326399046205118e-18
1.3004222497298317 6.026930458131643e-21 2.080415136575975e-13 2.0803933475137802e-13 2.1789062194876017e-18
1.3400274889804893 6.301659301335496e-21 2.2414964732685517e-13 2.241458664488782e-13 3.780877977017402e-18
1.3808389325824078 6.581277491505676e-21 2.4122519111596554e-13 2.412187478917317e-13 6.44322423379682e-18
1.4228933163050095 6.868237249175536e-21 2.594102074464651e-13 2.5939941832841577e-13 1.0789118049290493e-17
1.466228494730424 7.167595209268266e-21 2.789616858264541e-13 2.789439251960849e-13 1.7760630369319767e-17
1.5108834753276823 7.478974611383797e-21 2.999455777503215e-13 2.9991682282950234e-13 2.8754920819191677e-17
1.5568984535646726 7.80236032694015e-21 3.224450566651881e-13 3.2239922066130877e-13 4.5836003879392615e-17
1.6043148490894465 8.139873104611477e-21 3.466383995339727e-13 3.4656632925634403e-13 7.207027762878917e-17
1.6531753430134553 8.493792260548715e-21 3.727262562119934e-13 3.726146102393006e-13 1.116459726928146e-16
1.7035239163302658 8.866783599572175e-21 4.0094405422272837e-13 4.00773615465057e-13 1.7043875767127888e-16
1.755405889504358 9.265885962404055e-21 4.3175157954286543e-13 4.3149504346199705e-13 2.565360808683204e-16
1.8088679632656115 9.691610658938312e-21 4.653420074510676e-13 4.649611732427476e-13 3.80834208319871e-16
1.8639582606462262 1.0144372144793169e-20 5.019157095325034e-13 5.013578790892625e-13 5.578304432409689e-16
1.9207263702978936 1.062608785450394e-20 5.417617437710917e-13 5.409552349516651e-13 8.065088194266186e-16
1.979223391128241 1.113940839723962e-20 5.8522972204052e-13 5.84078331677586e-13 1.1513903629340424e-15
2.039501978296691 1.168683001971465e-20 6.326890110382349e-13 6.310653501770076e-13 1.6236608612270247e-15
2.1016163906111602 1.227442778622675e-20 6.847375350251685e-13 6.824749527105555e-13 2.2625823146130978e-15
2.1656225393682647 1.2905743031200007e-20 7.418826411614953e-13 7.387659285472661e-13 3.116712614229313e-15
2.231578038680979 1.3580575048383385e-20 8.044511404497479e-13 8.002058725952249e-13 4.2452678545228804e-15
2.299542257339062 1.4300702329296487e-20 8.729074391084668e-13 8.671879192088812e-13 5.719519899585927e-15
2.369576372248914 1.506928009994814e-20 9.478347984137297e-13 9.402105389670155e-13 7.624259446714132e-15
2.4417434235010123 1.5889929009025675e-20 1.0298913644925896e-12 1.0198325457848354e-12 1.0058818707754118e-14
2.5161083711144245 1.676897585930508e-20 1.1199672292602695e-12 1.1068287716591528e-12 1.3138457601116607e-14
2.5927381535095444 1.7716126251665955e-20 1.219261493533822e-12 1.2022664415370215e-12 1.6995051996800877e-14
2.6717017477616296 1.8739792401450434e-20 1.3289914382407633e-12 1.3072148697901695e-12 2.17765684505938e-14
2.753070231689431 1.985162643331703e-20 1.4507173920245237e-12 1.4230704386330072e-12 2.764695339151653e-14
2.836916847834745 2.1081439804618078e-20 1.5875094098156232e-12 1.5527227901890921e-12 3.4786619626531007e-14
2.9233170693905177 2.2492714712128887e-20 1.7453688887069088e-12 1.7019867599136943e-12 4.338212879321428e-14
2.967498994190263 2.332268277070525e-20 1.837124202401345e-12 1.7889332450878263e-12 4.81909573135189e-14
3.0123486681368425 2.4207710749803634e-20 1.9356569575124666e-12 1.8821934514072815e-12 5.346350610518581e-14
3.0578761833420214 2.5524498493763105e-20 2.0717938866830216e-12 2.012539678436497e-12 5.925420824652542e-14
3.1040917844459814 2.703441197413682e-20 2.2275164250822044e-12 2.1619751783404922e-12 6.554124674171251e-14
3.127460860933648 2.8324801877284077e-20 2.351409114145925e-12 2.2825073666574992e-12 6.890174748842575e-14
3.1510058709225794 2.9928593228747937e-20 2.50325417420407e-12 2.430853753362717e-12 7.240042084135237e-14
3.162844764501044 3.132244113690171e-20 2.6296800501904614e-12 2.5554706585789953e-12 7.420939161146562e-14
3.1747281389236908 3.288955164643677e-20 2.7716215382047433e-12 2.6955675177249184e-12 7.605402047982541e-14
3.1986289994194426 3.70795394379869e-20 3.1482385646542165e-12 3.068376993611014e-12 7.986157104320283e-14
3.2227097969389145 4.65825025182974e-20 3.9848634916627845e-12 3.900971543982131e-12 8.389194768065291e-14
3.2348180950136065 5.542868703595703e-20 4.759418432755207e-12 4.673376706560406e-12 8.604172619480255e-14
3.240889293275058 6.201774919681337e-20 5.335186794979437e-12 5.2480111107372375e-12 8.717568424219872e-14
3.2469718861334385 6.964779459386103e-20 6.002820131446936e-12 5.914471139031937e-12 8.834899241499954e-14
3.2714166318528037 1.0959822138204347e-19 9.517191248988414e-12 9.423997015684028e-12 9.319423330438604e-14
3.2744851364798273 1.1210389192030676e-19 9.743907371335961e-12 9.650143110237984e-12 9.37642610979785e-14
3.2775565192852394 1.1467579948242018e-19 9.976803054262153e-12 9.882466005231067e-12 9.43370490310846e-14
3.283707930232385 1.122619377070334e-19 9.785127502070455e-12 9.689768091360756e-12 9.535941070969894e-14
3.2898708863219004 1.0450567228953994e-19 9.126161512239004e-12 9.029873504316282e-12 9.628800792272393e-14
3.29141343181113 1.0267297879625458e-19 8.970321989455319e-12 8.873800851928435e-12 9.652113752688477e-14
3.292184975758714 1.0177192451560541e-19 8.8936830637688e-12 8.797045214260316e-12 9.66378495084845e-14
3.295272960557952 9.614668325781386e-20 8.409983329333405e-12 8.312891834070735e-12 9.709149526266943e-14
3.3076538914384823 7.651569314142402e-20 6.718000148427832e-12 6.619087495433354e-12 9.891265299447545e-14
3.310756385682612 7.248035537542624e-20 6.369670579218952e-12 6.270299073823731e-12 9.93715053952205e-14
3.313861789986515 6.874160303709256e-20 6.046770422952929e-12 5.946938638424646e-12 9.983178452828369e-14
3.3200813396944477 6.353454578843732e-20 5.599227148987008e-12 5.498404506155139e-12 1.0082264283186676e-13
3.345076488085796 5.4553602036331e-20 4.843941806414744e-12 4.738701238955676e-12 1.0524056745906866e-13
3.3482140837626964 5.495007018339479e-20 4.883721652265213e-12 4.777882511157674e-12 1.0583914110753804e-13
3.3513546224236106 5.534995690164902e-20 4.923875974002626e-12 4.817435660285938e-12 1.0644031371668847e-13
3.3576445397418455 5.803624500848381e-20 5.172535211441905e-12 5.0648376641154275e-12 1.0769754732647682e-13
3.3702598118196083 6.768385283301582e-20 6.055052141042377e-12 5.9447176571521885e-12 1.1033448389018707e-13
3.382922481734668 7.006322946756348e-20 6.29146276897113e-12 6.178568161402254e-12 1.1289460756887705e-13
3.389271646505754 7.128835642713804e-20 6.4134898767315026e-12 6.299298206040421e-12 1.141916706910811e-13
3.395632727569191 7.263389883222042e-20 6.546806434005352e-12 6.431278060575955e-12 1.155283734293968e-13
3.421196662673239 7.912767130262354e-20 7.1858121131288144e-12 7.064753585325792e-12 1.2105852780302313e-13
3.4276182099114902 7.803936364656886e-20 7.1002819355556886e-12 6.977992471367382e-12 1.2228946418830524e-13
3.4340518103208963 7.293521094110543e-20 6.648344564230446e-12 6.524892409720968e-12 1.234521545094771e-13
3.4469541582030403 6.563237544265465e-20 6.005138990965716e-12 5.879458365212169e-12 1.2568062575354531e-13
3.472904465399547 6.376882349446407e-20 5.878556196664359e-12 5.747737350036589e-12 1.3081884662776608e-13
3.4990501388274233 6.086057033519268e-20 5.652695826986642e-12 5.516626072510967e-12 1.3606975447567502e-13
3.5253949054701885 5.007185566801616e-20 4.685661295938579e-12 4.544501726396456e-12 1.4115956954212364e-13
3.5519380250092896 3.9809214772469955e-20 3.753344465349118e-12 3.607078377184712e-12 1.462660881644062e-13
3.578680990867387 3.594546391388006e-20 3.4145738694204094e-12 3.2627121015491735e-12 1.5186176787123645e-13
3.605625307711299 3.460110390690933e-20 3.31161606760802e-12 3.1538666001511958e-12 1.577494674568247e-13
3.660119384959845 3.407260331341045e-20 3.3103201793745694e-12 3.1402268377916232e-12 1.7009334158294684e-13
3.715437065384467 3.3876770539743994e-20 3.3410374589264887e-12 3.1579688240764378e-12 1.830686348500502e-13
3.8285932144167436 3.4813272751745495e-20 3.537964826992813e-12 3.3271410632126037e-12 2.1082376378020965e-13
3.94519561050918 3.6099819200673015e-20 3.780445670590365e-12 3.5395545337226038e-12 2.4089113686776097e-13
4.06534921144712 3.7516911412769164e-20 4.048502092288087e-12 3.775314663146924e-12 2.731874291411637e-13
4.189162171576248 3.899480992365665e-20 4.33614118064766e-12 4.0284174997160594e-12 3.077236809316009e-13
4.316745939156006 4.049846053585133e-20 4.640496366054873e-12 4.2961825772971854e-12 3.4431378875768747e-13
4.448215356677963 4.200500426072767e-20 4.959709859632857e-12 4.577326113713045e-12 3.823837459198134e-13
4.58368876423945 4.3504600861102523e-20 5.293217536103401e-12 4.871291008645632e-12 4.219265274577688e-13
4.723288106065518 4.499464845262251e-20 5.641242031202707e-12 5.178102902053846e-12 4.631391291488616e-13
4.867139040275056 4.646761267654161e-20 6.003348381715137e-12 5.498527802654523e-12 5.048205790606142e-13
4.940699165968905 4.721366183375454e-20 6.1919227444393116e-12 5.665968962850272e-12 5.2595378158904e-13
5.015371051989984 4.793929547968868e-20 6.382108001670623e-12 5.834901715970898e-12 5.472062856997266e-13
5.091171501069577 4.870202314207975e-20 6.58164059024012e-12 6.012585029097823e-12 5.690555611422975e-13
5.129500256944802 4.907441505529689e-20 6.681894597820987e-12 6.101898161492239e-12 5.799964363287483e-13
5.168117569889187 4.9446244692303094e-20 6.78320795614084e-12 6.1921444997807984e-12 5.910634563600426e-13
5.20702561229733 4.986016758954574e-20 6.891486041739711e-12 6.2882817911267295e-12 6.032042506129812e-13
5.246226572918644 5.0269106274431655e-20 7.000315921234102e-12 6.384930431904277e-12 6.153854893298222e-13
5.265937586045735 5.047168333771648e-20 7.054933591003688e-12 6.433444227268899e-12 6.214893637347867e-13
5.285722656980489 5.067298759617329e-20 7.10968427713647e-12 6.482083232165417e-12 6.276010449710537e-13
5.305582063971359 5.087301128377738e-20 7.164566443491451e-12 6.530846688939143e-12 6.337197545523108e-13
5.3255160863122235 5.107996467547201e-20 7.2207402443363714e-12 6.580842045091404e-12 6.39898199244968e-13
5.365609099470188 5.1553523922671807e-20 7.342548427479061e-12 6.689862983400058e-12 6.526854440790029e-13
5.406003951863644 5.2025082764800294e-20 7.465494359563492e-12 6.799983832656262e-12 6.655105269072317e-13
5.446702915881641 5.249479998995258e-20 7.589609064015837e-12 6.911241863895463e-12 6.783672001203737e-13
5.487708281020852 5.297826662740633e-20 7.717172260810135e-12 7.025862811009165e-12 6.913094498009696e-13
5.529022354014368 5.359709074475061e-20 7.86609153149377e-12 7.1612918143863174e-12 7.04799717107451e-13
5.570647458961463 5.422425546349095e-20 8.018048989371425e-12 7.29972262931616e-12 7.183263600552663e-13
5.612585937458331 5.486085801551583e-20 8.173254692073725e-12 7.441371673904779e-12 7.31883018168947e-13
5.654840148729818 5.553111080377125e-20 8.335393878745981e-12 7.589856918827464e-12 7.455369599185178e-13
5.67608639626678 5.597252681927024e-20 8.433218318009788e-12 7.68052706194951e-12 7.526912560602766e-13
5.686739436050992 5.619639334687282e-20 8.48283864584538e-12 7.726566353988919e-12 7.562722918564609e-13
5.6974124697621304 5.642244702390151e-20 8.532946295044837e-12 7.773090510210897e-12 7.598557848339416e-13
5.718818669136295 5.688136996417791e-20 8.634671245009831e-12 7.867641508369567e-12 7.670297366402664e-13
5.740305295436557 5.737839933483092e-20 8.74284648131525e-12 7.96857587343879e-12 7.742706078764609e-13
5.7835210386641895 5.864029473375895e-20 9.002391530157005e-12 8.213162282272909e-12 7.892292478840976e-13
5.827062130521658 6.004042926820921e-20 9.286731096157162e-12 8.482355348713248e-12 8.04375747443915e-13
5.8489554468988025 6.10194819558582e-20 9.47362658643282e-12 8.661037555069708e-12 8.125890313631125e-13
5.870931020387893 6.204790005185096e-20 9.669488441664917e-12 8.848664350486154e-12 8.208240911787634e-13
5.892989160043636 6.312967478013079e-20 9.87503462988896e-12 9.045954517139881e-12 8.290801127490776e-13
5.915130176081913 6.434680348173674e-20 1.010324110931566e-11 9.265591891839155e-12 8.376492174765082e-13
5.95966208400165 6.774350045638416e-20 1.0716641498731696e-11 9.859268207813895e-12 8.573732909178009e-13
6.004529249263818 7.256052440556976e-20 1.1565084506516023e-11 1.0685404163976078e-11 8.796803425399438e-13
6.027089341400364 7.589206590962602e-20 1.214153056433504e-11 1.1248862319609721e-11 8.926682447253193e-13
6.049734195844842 7.977592496755733e-20 1.2810839054775419e-11 1.1904391801236332e-11 9.064472535390896e-13
6.095279466722835 9.093715579367067e-20 1.4713107989054447e-11 1.3772455875152144e-11 9.406521139023012e-13
6.141167624020661 1.0787069477052249e-19 1.758425044743767e-11 1.659878917976051e-11 9.854612676771658e-13
6.164241091010745 1.186448683788761e-19 1.9413239305810336e-11 1.8399454751461957e-11 1.0137845543483745e-12
6.187401249150058 1.3070904540847823e-19 2.146759318102229e-11 2.0424763922775277e-11 1.0428292582470116e-12
6.1990139391386085 1.3656107890627122e-19 2.2470823329954496e-11 2.1413222503617745e-11 1.0576008263367519e-12
6.204828454712694 1.396261475052731e-19 2.2996723706719854e-11 2.1931666070126826e-11 1.06505763659303e-12
6.210648424152782 1.4183904808079134e-19 2.338310534004027e-11 2.23117388637618e-11 1.0713664762784724e-12
6.233982942956859 1.4922585318143303e-19 2.4693298896841733e-11 2.3600124671357242e-11 1.0931742254844904e-12
6.239830258556775 1.5009502920316712e-19 2.4860423263389042e-11 2.3764364636530903e-11 1.096058626858143e-12
6.245683058788269 1.500593653670302e-19 2.4877829115295916e-11 2.37788829462331e-11 1.0989461690628153e-12
6.257405133728602 1.4959927104382996e-19 2.4848099905470205e-11 2.3744182377591707e-11 1.10391752787849e-12
6.269149208991335 1.478225268733093e-19 2.459906846633269e-11 2.3493725049473087e-11 1.105343416859603e-12
6.280915325867298 1.4375375011444295e-19 2.396688293936098e-11 2.2864492447456115e-11 1.1023904919048539e-12
6.304513850009849 1.3388021876351465e-19 2.2404613148354415e-11 2.131208221721319e-11 1.0925309311412218e-12
6.32820103803542 1.2190131999070984e-19 2.0476612370652213e-11 1.9398146776840938e-11 1.0784655938112748e-12
6.3519772230701035 1.109924998261596e-19 1.871423152410913e-11 1.7648484574105294e-11 1.0657469500038312e-12
6.375842739491607 1.0177889409701525e-19 1.7225219202536796e-11 1.6170805183991445e-11 1.0544140185453502e-12
6.399797922933955 9.449753522421372e-20 1.605299887054804e-11 1.5004943616771233e-11 1.0480552537768036e-12
6.42384311029221 8.840931855170629e-20 1.5075176368084834e-11 1.4032484499326234e-11 1.0426918687586015e-12
6.447978639727206 8.399957999077787e-20 1.4377061738132603e-11 1.3335865758686008e-11 1.041195979446596e-12
6.472204850670314 8.030548152484717e-20 1.379643496920972e-11 1.2755970681832686e-11 1.0404642873770353e-12
6.496522083828205 7.790141819145163e-20 1.3433702188492933e-11 1.2390846171027779e-11 1.0428560174651554e-12
6.520930681187647 7.586284383074533e-20 1.31313124593637e-11 1.208560143281338e-11 1.0457110265503174e-12
6.57002334288761 7.37010322036525e-20 1.2853160063586047e-11 1.1797449941878885e-11 1.0557101217071616e-12
