Dust emission spectrum from A.P. Jones, M. Kohler, N. Ysard, M. Bocchio, and L. Verstraete (2017), A&A, 602A, 46J 
inside the DustPedia framework.

lambda    nu*dP/dnu     j_nu    j_nu(carb.) j_nu(sil)
 (um)   (erg s-1 H-1) (Jy cm2 sr-1 H-1)
0.9927057738263894 4.649300604106757e-22 1.22511711668237e-14 1.2251163203650716e-14 7.963172979206651e-21
1.0001793341362166 4.727445896786708e-22 1.2550871326931143e-14 1.2550861744810537e-14 9.582120607441893e-21
1.0077091589558085 4.80592003043695e-22 1.2855269296963384e-14 1.2855257782154463e-14 1.1514808919535194e-20
1.0114953028030835 4.845277327733326e-22 1.3009240516765239e-14 1.300922790033862e-14 1.2616426616580925e-20
1.0152956718711033 4.884713210939905e-22 1.3164399052008198e-14 1.3164385233199085e-14 1.3818809107767804e-20
1.0229392996569957 4.963777826387504e-22 1.3478191777877781e-14 1.347817521603706e-14 1.6561840722543302e-20
1.0267826658714554 5.003317246490034e-22 1.3636596889018284e-14 1.3636578766217817e-14 1.8122800470264358e-20
1.0306404723013447 5.042929012091041e-22 1.3796199968737276e-14 1.3796180144488615e-14 1.982424866327171e-20
1.03451277320114 5.082612173937282e-22 1.395700591983103e-14 1.395698424164566e-14 2.1678185363998224e-20
1.0383996230291617 5.122365831231236e-22 1.411901978179341e-14 1.4118996084216936e-14 2.3697576475210437e-20
1.0403485208654093 5.142268827787873e-22 1.4200481293163287e-14 1.4200456519512147e-14 2.4773651141117803e-20
1.0423010764483396 5.16218913312148e-22 1.4282246737302808e-14 1.428222084087647e-14 2.5896426341285976e-20
1.0462171883269815 5.202081280211935e-22 1.4446692118881067e-14 1.4446663829025678e-14 2.8289855386721737e-20
1.0471985131304309 5.212064985390688e-22 1.448799448307251e-14 1.448796556257201e-14 2.8920500497154805e-20
1.048180758391296 5.222052935341593e-22 1.45293734285104e-14 1.4529343863922674e-14 2.9564587721415414e-20
1.0501480137395462 5.242041526090565e-22 1.4612361415728884e-14 1.4612330521545773e-14 3.089418310910649e-20
1.0521189612883777 5.262046967690173e-22 1.469565679231875e-14 1.4695624511435364e-14 3.228088339055209e-20
1.0531058218030118 5.272042804861834e-22 1.4737383141741997e-14 1.473735014532187e-14 3.2996420124985227e-20
1.0540936079674168 5.281999654982372e-22 1.477906575247763e-14 1.477903202520134e-14 3.372727629117478e-20
1.058054026499678 5.321866953778609e-22 1.4946561393479237e-14 1.49465245849277e-14 3.6808551533161707e-20
1.0590464539527713 5.331843708863212e-22 1.4988627065910325e-14 1.4988589445976896e-14 3.761993342994619e-20
1.06003981227728 5.341824419235212e-22 1.5030769630803548e-14 1.503073118240148e-14 3.8448402065473945e-20
1.0620293250338977 5.361797673983014e-22 1.511528581903285e-14 1.511524566105998e-14 4.0157972871664125e-20
1.0660195594769086 5.401791309823684e-22 1.5285245138811428e-14 1.5285201341182297e-14 4.379762913011355e-20
1.070024785945596 5.441847416921424e-22 1.545644565719512e-14 1.5456397905876524e-14 4.775131859851616e-20
1.0740450607676866 5.481965613942834e-22 1.5628893881275313e-14 1.5628841836603173e-14 5.2044672138649357e-20
1.07808044048254 5.52214558427723e-22 1.580259652906968e-14 1.5802539823785248e-14 5.670528443225826e-20
1.0861967418109137 5.602628780091308e-22 1.6153616815676756e-14 1.615354956633781e-14 6.724933894802718e-20
1.0902777775684922 5.642792726115252e-22 1.6330545466798218e-14 1.6330472267684387e-14 7.319911383394628e-20
1.0943741465085532 5.6830154718981165e-22 1.6508746401381695e-14 1.650866675227556e-14 7.964910613738931e-20
1.1026131145906286 5.763637617426012e-22 1.6868996726929688e-14 1.6868902515422054e-14 9.42115076299103e-20
1.1109141095355224 5.844496494635765e-22 1.7234433723583627e-14 1.723432243276454e-14 1.1129081908569669e-19
1.1192775983109025 5.925531843684319e-22 1.760494129014862e-14 1.7604809994791076e-14 1.3129535754856926e-19
1.1277040513999907 6.0064588604036455e-22 1.7979726476488905e-14 1.797957178142367e-14 1.5469506523740053e-19
1.1361939428280308 6.087625019475753e-22 1.8359878210433973e-14 1.8359696180364894e-14 1.8203006908272653e-19
1.1447477501889525 6.16903715990646e-22 1.8745482264865828e-14 1.8745268344552323e-14 2.1392031349961032e-19
1.1533659546722406 6.250732071297021e-22 1.9136717447993375e-14 1.9136466371244616e-14 2.5107674876540923e-19
1.1707974979042381 6.415244313751727e-22 1.9937211640780532e-14 1.9936867077919153e-14 3.445628613769213e-19
1.1884924949847024 6.581015898244492e-22 2.0761504251057004e-14 2.0761033766694404e-14 4.704843625948171e-19
1.2064549276569216 6.749229903895178e-22 2.1613980570401e-14 2.1613341324037908e-14 6.392463630857764e-19
1.2246888378427687 6.918920981919084e-22 2.2492284251323713e-14 2.249141997209414e-14 8.642792295669914e-19
1.2431983285522175 7.090071130456116e-22 2.3397014425795147e-14 2.339585156910603e-14 1.1628566891178584e-18
1.2619875648066055 7.26306578308848e-22 2.4330133183084393e-14 2.4328576100356912e-14 1.5570827274781056e-18
1.3004222497298317 7.614251346220338e-22 2.6283369062269643e-14 2.6280616646721163e-14 2.752415548483538e-18
1.3400274889804893 7.975189175042836e-22 2.8367700560580208e-14 2.8362924518712143e-14 4.7760418680657655e-18
1.3808389325824078 8.349450438600222e-22 3.0603447132630056e-14 3.0595307989052027e-14 8.13914357802824e-18
1.4228933163050095 8.743070881041894e-22 3.302218238373291e-14 3.300855346477913e-14 1.3628918953783595e-17
1.466228494730424 9.166384080754703e-22 3.5675423645487275e-14 3.565298824430195e-14 2.2435401185316056e-17
1.5108834753276823 9.624167695954025e-22 3.8597891956138016e-14 3.85615684602251e-14 3.63234959129027e-17
1.5568984535646726 1.012325906087639e-21 4.183599199142325e-14 4.177809150510142e-14 5.790048632182991e-17
1.6043148490894465 1.0675203947197031e-21 4.546060563104752e-14 4.5369565754730285e-14 9.103987631723468e-17
1.6531753430134553 1.1294085236189269e-21 4.956092612455801e-14 4.941989384495969e-14 1.410322795983097e-16
1.7035239163302658 1.1997350209863288e-21 5.425040747926434e-14 5.403510758132338e-14 2.152998979409794e-16
1.755405889504358 1.2811356837204785e-21 5.969557118438076e-14 5.937151230960502e-14 3.240588747757316e-16
1.8088679632656115 1.3758012003505074e-21 6.605899833937694e-14 6.557792485994077e-14 4.810734794361793e-16
1.8639582606462262 1.4863400953390923e-21 7.354003115329713e-14 7.283537430681981e-14 7.046568464772987e-16
1.9207263702978936 1.616026824246215e-21 8.239170636194219e-14 8.137291656974043e-14 1.0187897922017743e-15
1.979223391128241 1.768758047194705e-21 9.29250228919876e-14 9.147057537654607e-14 1.4544475154414951e-15
2.039501978296691 1.9489533186959086e-21 1.0551033476873549e-13 1.0345931056221577e-13 2.0510242065197176e-15
2.1016163906111602 2.16208236127927e-21 1.2061327602130666e-13 1.1775516001485947e-13 2.858116006447242e-15
2.1656225393682647 2.4138910509623156e-21 1.387617794678425e-13 1.3482471775181469e-13 3.9370617160278146e-15
2.231578038680979 2.7101630868669167e-21 1.6053766341024176e-13 1.5517499972799578e-13 5.362663682246015e-15
2.299542257339062 3.0574708691204116e-21 1.866264330979841e-13 1.7940147988031731e-13 7.224953217666872e-15
2.369576372248914 3.4630513017525854e-21 2.1782065969457715e-13 2.0818962093801084e-13 9.631038756566306e-15
2.4417434235010123 3.9345553763759994e-21 2.5501464499595013e-13 2.4230824727998504e-13 1.2706397715965138e-14
2.5161083711144245 4.480357959554921e-21 2.992343797353921e-13 2.826377521885172e-13 1.6596627546874927e-14
2.5927381535095444 5.109385803487822e-21 3.516387994364884e-13 3.301704843043753e-13 2.1468315132113025e-14
2.6717017477616296 5.830338271617758e-21 4.134768133518774e-13 3.8596844008644815e-13 2.7508373265429282e-14
2.753070231689431 6.651975457326686e-21 4.861131413932041e-13 4.5118924072119406e-13 3.492390067200991e-14
2.836916847834745 7.585183762664822e-21 5.7119203953865e-13 5.272492429726913e-13 4.394279656595887e-14
2.9233170693905177 8.643662821869088e-21 6.707229592712412e-13 6.159222318471681e-13 5.480072742407319e-14
2.967498994190263 9.219206507596333e-21 7.261955054036457e-13 6.653202189779512e-13 6.087528642569462e-14
3.0123486681368425 9.83102292321345e-21 7.860920066940664e-13 7.185563853055691e-13 6.753562138849753e-14
3.0578761833420214 1.0532115108217338e-20 8.548795464239335e-13 7.800290537170145e-13 7.485049270691891e-14
3.1040917844459814 1.128607565652968e-20 9.299229043225001e-13 8.471305633830599e-13 8.279234093944018e-14
3.127460860933648 1.1742900561685037e-20 9.748475391596668e-13 8.878101809619256e-13 8.703735819774103e-14
3.1510058709225794 1.2247061626393088e-20 1.0243551343587672e-12 9.328982179214225e-13 9.145691643734466e-14
3.162844764501044 1.2578227051643606e-20 1.0560068610203151e-12 9.622648350955222e-13 9.374202592479325e-14
3.1747281389236908 1.2933099383660954e-20 1.0898797646388922e-12 9.938075855698074e-13 9.607217906908457e-14
3.1986289994194426 1.378316293696376e-20 1.1702595490333262e-12 1.0693776350254238e-12 1.0088191400790245e-13
3.2227097969389145 1.5322256323926435e-20 1.3107303501165642e-12 1.2047572251038251e-12 1.0597312501273898e-13
3.2348180950136065 1.6619902504760275e-20 1.4270781893216597e-12 1.3183894431613831e-12 1.0868874616027629e-13
3.240889293275058 1.7547463883658978e-20 1.509551681735111e-12 1.3994305087300875e-12 1.1012117300502369e-13
3.2469718861334385 1.8608197409246996e-20 1.6038075960557747e-12 1.4922042887445121e-12 1.1160330731126253e-13
3.2714166318528037 2.4042912880318453e-20 2.087816728951475e-12 1.970092866179487e-12 1.1772386277198857e-13
3.2744851364798273 2.440449066166261e-20 2.121202862617112e-12 2.0027589351869385e-12 1.184439274301732e-13
3.2775565192852394 2.477454246341378e-20 2.155387030502676e-12 2.0362195517792147e-12 1.1916747872346186e-13
3.283707930232385 2.455078154383334e-20 2.139928568744421e-12 2.019469632795667e-12 1.204589359487542e-13
3.2898708863219004 2.3644943285728538e-20 2.0648407559681165e-12 1.9432088069798157e-12 1.2163194898830096e-13
3.29141343181113 2.3431919871767463e-20 2.047197505567437e-12 1.9252710649936036e-12 1.2192644057383373e-13
3.292184975758714 2.3327340080543868e-20 2.0385383334801326e-12 1.916464461194931e-12 1.220738722852017e-13
3.295272960557952 2.2653919933915703e-20 1.981546139011522e-12 1.858899216993314e-12 1.2264692201820756e-13
3.3076538914384823 2.032182843001165e-20 1.7842358972924599e-12 1.6592884710981511e-12 1.2494742619430867e-13
3.310756385682612 1.9848806415395304e-20 1.7443396573027962e-12 1.6188126042888593e-12 1.2552705301393683e-13
3.313861789986515 1.941319221760435e-20 1.707657536778253e-12 1.5815490546825339e-12 1.261084820957188e-13
3.3200813396944477 1.8834992494525898e-20 1.6599064338555314e-12 1.53254628990455e-12 1.273601439509809e-13
3.345076488085796 1.805799955486272e-20 1.603411978658436e-12 1.4704710693091177e-12 1.329409093493183e-13
3.3482140837626964 1.8157255310040534e-20 1.613737354791385e-12 1.4800403213821026e-12 1.3369703340928217e-13
3.3513546224236106 1.825709619339817e-20 1.6241327425324487e-12 1.489676302030769e-12 1.3445644050167976e-13
3.3576445397418455 1.8700495404788474e-20 1.6666993348473178e-12 1.5306547446103683e-12 1.3604459023694975e-13
3.3702598118196083 2.013687541633839e-20 1.8014611388098552e-12 1.6620855446345958e-12 1.3937559417525935e-13
3.382922481734668 2.0640594078271003e-20 1.853461939447251e-12 1.710852372117826e-12 1.4260956732942467e-13
3.389271646505754 2.089779830145917e-20 1.8800800659413644e-12 1.7358320358488393e-12 1.4424803009252536e-13
3.395632727569191 2.1173996694402927e-20 1.9085036053583333e-12 1.7625670393537363e-12 1.459365660045968e-13
3.421196662673239 2.2437780688241543e-20 2.0376395969578853e-12 1.88471728611152e-12 1.5292231084636512e-13
3.4276182099114902 2.2388294327569182e-20 2.036961788948832e-12 1.882484547277201e-12 1.544772416716309e-13
3.4340518103208963 2.181195871403577e-20 1.9882497806001513e-12 1.8323038171958263e-12 1.5594596340432535e-13
3.4469541582030403 2.1034312459945873e-20 1.924568005492076e-12 1.7658070155176926e-12 1.5876098997438316e-13
3.472904465399547 2.1169941184884537e-20 1.9515600589091426e-12 1.7863084183049802e-12 1.6525164060416245e-13
3.4990501388274233 2.1174176355150158e-20 1.966645689704045e-12 1.794761051187913e-12 1.7188463851613173e-13
3.5253949054701885 2.014751313517941e-20 1.8853789468646745e-12 1.7070648044063798e-12 1.7831414245829448e-13
3.5519380250092896 1.9187201902126144e-20 1.8090328703163471e-12 1.6242681238215482e-12 1.8476474649479863e-13
3.578680990867387 1.908733071464282e-20 1.8131662134436413e-12 1.6213329498682705e-12 1.9183326357537056e-13
3.605625307711299 1.9328313223170672e-20 1.849881807292024e-12 1.6506111442823711e-12 1.992706630096534e-13
3.660119384959845 2.011143875178087e-20 1.953924709652957e-12 1.7390611446774495e-12 2.1486356497550756e-13
3.715437065384467 2.095883752143746e-20 2.067028826508849e-12 1.835774744761626e-12 2.312540817472231e-13
3.8285932144167436 2.2887854511627923e-20 2.3260215954102813e-12 2.0597069645975307e-12 2.663146308127512e-13
3.94519561050918 2.4933472445306798e-20 2.6110833806305305e-12 2.3067873514225404e-12 3.0429602920799e-13
4.06534921144712 2.7054775638483607e-20 2.9195184692497328e-12 2.5744254492320264e-12 3.450930200177068e-13
4.189162171576248 2.922975281640664e-20 3.250287285295417e-12 2.861567735799687e-12 3.887195494957303e-13
4.316745939156006 3.143799039025025e-20 3.6023068094866667e-12 3.167366279574042e-12 4.3494052991262527e-13
4.448215356677963 3.365630626269943e-20 3.97394350858332e-12 3.4909126381659305e-12 4.830308704173893e-13
4.58368876423945 3.5868848310766855e-20 4.364173285592405e-12 3.831191588580511e-12 5.329816970118951e-13
4.723288106065518 3.8061981431782236e-20 4.772053051373762e-12 4.1870111946939375e-12 5.850418566798244e-13
4.867139040275056 4.020922878198697e-20 5.194801166538451e-12 4.5571068965540475e-12 6.376942699844018e-13
4.940699165968905 4.1265372273463285e-20 5.411823341250331e-12 4.747433404096681e-12 6.643899371536507e-13
5.015371051989984 4.230164035906108e-20 5.631572903146676e-12 4.940336595903646e-12 6.912363072430301e-13
5.091171501069577 4.33314235494671e-20 5.855852337675199e-12 5.1370158129866846e-12 7.188365246885144e-13
5.129500256944802 4.3837129227453484e-20 5.9687940577355055e-12 5.2361369130001795e-12 7.326571447353266e-13
5.168117569889187 4.433839874082173e-20 6.082495869460909e-12 5.3358587572827234e-12 7.466371121781857e-13
5.20702561229733 4.485077329106538e-20 6.199106281412027e-12 5.437132799740825e-12 7.619734816712019e-13
5.246226572918644 4.535658159222238e-20 6.316213352181338e-12 5.538852411176586e-12 7.773609410047521e-13
5.265937586045735 4.5606937374621707e-20 6.37493923699945e-12 5.58986782242409e-12 7.850714145753614e-13
5.285722656980489 4.585554907614265e-20 6.433772543356637e-12 5.640980793545364e-12 7.927917498112723e-13
5.305582063971359 4.6102383282318814e-20 6.4927076242253316e-12 5.692186660904335e-12 8.005209633209969e-13
5.3255160863122235 4.634947315074474e-20 6.5520308835311075e-12 5.743705248726132e-12 8.083256348049735e-13
5.365609099470188 4.685396920798318e-20 6.6732109030074576e-12 5.8487322960421245e-12 8.244786069653323e-13
5.406003951863644 4.7351448221134753e-20 6.7948372366880796e-12 5.9541578602397655e-12 8.406793764483158e-13
5.446702915881641 4.784167974719831e-20 6.916868838753093e-12 6.0599487875400354e-12 8.569200512130576e-13
5.487708281020852 4.8328030025702913e-20 7.039787378415645e-12 6.1665185514110585e-12 8.732688270045873e-13
5.529022354014368 4.8838174659919267e-20 7.167656803156432e-12 6.277346939160255e-12 8.90309863996179e-13
5.570647458961463 4.9341902595456856e-20 7.296103724384746e-12 6.3887068733327205e-12 9.073968510520244e-13
5.612585937458331 4.983911542897369e-20 7.425107786565363e-12 6.500586033007768e-12 9.245217535575921e-13
5.654840148729818 5.0334938513539396e-20 7.55543212264211e-12 6.6136625769430244e-12 9.417695456990868e-13
5.67608639626678 5.0603143436832136e-20 7.624228892833345e-12 6.6734219705997045e-12 9.508069222336408e-13
5.686739436050992 5.0736900925554516e-20 7.658728938085354e-12 6.703398416571982e-12 9.553305215133711e-13
5.6974124697621304 5.0870433876062285e-20 7.69329767080445e-12 6.733440446076017e-12 9.598572247284349e-13
5.718818669136295 5.1136843868368565e-20 7.76264417662292e-12 6.793724746133101e-12 9.689194304898187e-13
5.740305295436557 5.1408741553902586e-20 7.833239344662991e-12 6.855173175136507e-12 9.780661695264854e-13
5.7835210386641895 5.200099287049327e-20 7.98313343925915e-12 6.9861713700501325e-12 9.969620692090184e-13
5.827062130521658 5.2607979906579787e-20 8.1371197517925e-12 7.121024476885794e-12 1.0160952749067067e-12
5.8489554468988025 5.296720504541295e-20 8.223464143636307e-12 7.196993768525169e-12 1.0264703751111384e-12
5.870931020387893 5.333072956075467e-20 8.311012502314194e-12 7.2741395194742345e-12 1.0368729828399604e-12
5.892989160043636 5.3699024433610873e-20 8.399848846363122e-12 7.352546776701787e-12 1.047302069661339e-12
5.915130176081913 5.409089958427641e-20 8.492937811197344e-12 7.434811165022644e-12 1.0581266461747022e-12
5.95966208400165 5.506405951756218e-20 8.710825117377407e-12 7.6277828296145e-12 1.0830422877629054e-12
6.004529249263818 5.629680282992885e-20 8.972885567029071e-12 7.8616647944942e-12 1.1112207725348711e-12
6.027089341400364 5.708906711767195e-20 9.133348064658106e-12 8.00572084764328e-12 1.1276272170148299e-12
6.049734195844842 5.797325931208743e-20 9.309651938601058e-12 8.164618943511729e-12 1.145032995089328e-12
6.095279466722835 6.037568322803502e-20 9.768437768853666e-12 8.580196861163542e-12 1.188240907690124e-12
6.141167624020661 6.380583327469342e-20 1.0401135866386027e-11 9.156291599422987e-12 1.2448442669630445e-12
6.164241091010745 6.595709123620284e-20 1.0792213886526127e-11 9.511591368108147e-12 1.28062251841798e-12
6.187401249150058 6.827338706973881e-20 1.1213189524284845e-11 9.89587745314714e-12 1.3173120711377028e-12
6.1990139391386085 6.939407629935386e-20 1.1418641688811047e-11 1.0082670029058746e-11 1.3359716597523039e-12
6.204828454712694 6.997300841695774e-20 1.1524703433015574e-11 1.017931225795427e-11 1.3453911750613045e-12
6.210648424152782 7.039746361674791e-20 1.1605487555757185e-11 1.0252126992987636e-11 1.353360562769545e-12
6.233982942956859 7.180281004901389e-20 1.1881642573138641e-11 1.0500734249270042e-11 1.3809083238686e-12
6.239830258556775 7.196368311318715e-20 1.1919432850534963e-11 1.0534880922771048e-11 1.3845519277639167e-12
6.245683058788269 7.196699023119214e-20 1.1931161247648034e-11 1.0542961748460482e-11 1.388199499187554e-12
6.257405133728602 7.1900217652742e-20 1.1942463215191385e-11 1.0547983847150878e-11 1.3944793680405044e-12
6.269149208991335 7.158794362649438e-20 1.1912911813105153e-11 1.0516631248222446e-11 1.3962805648827068e-12
6.280915325867298 7.085727954229991e-20 1.1813452677512155e-11 1.04209022761795e-11 1.3925504013326578e-12
6.304513850009849 6.907331339234489e-20 1.1559294417976258e-11 1.0179198709784663e-11 1.380095708191597e-12
6.32820103803542 6.695022952155958e-20 1.1246095597190004e-11 9.883767360041953e-12 1.3623282371480517e-12
6.3519772230701035 6.504068086605012e-20 1.0966383873859558e-11 9.620121951387137e-12 1.3462619224724192e-12
6.375842739491607 6.339981076480008e-20 1.0729883120778174e-11 9.397937067652045e-12 1.3319460531261297e-12
6.399797922933955 6.218652955621754e-20 1.0564088114686265e-11 9.240174515119365e-12 1.3239135995669015e-12
6.42384311029221 6.115807373911749e-20 1.0428411428262723e-11 9.111272908864232e-12 1.3171385193984908e-12
6.447978639727206 6.046670411863388e-20 1.0349260535712663e-11 9.034011638255805e-12 1.315248897456853e-12
6.472204850670314 5.98888683110138e-20 1.0288872706364597e-11 8.974548089453144e-12 1.3143246169114554e-12
6.496522083828205 5.956593072002735e-20 1.0271840904188539e-11 8.954495030545876e-12 1.3173458736426654e-12
6.520930681187647 5.930115267576863e-20 1.0264602876254964e-11 8.94365052734193e-12 1.3209523489130345e-12
