Dust emission spectrum from A.P. Jones, M. Kohler, N. Ysard, M. Bocchio, and L. Verstraete (2017), A&A, 602A, 46J 
inside the DustPedia framework.

lambda    nu*dP/dnu     j_nu    j_nu(carb.) j_nu(sil)
 (um)   (erg s-1 H-1) (Jy cm2 sr-1 H-1)
0.9927057738263894 2.369960708405675e-26 6.244981077729853e-19 6.244981074392783e-19 3.337070324695599e-28
1.0001793341362166 2.4090703550300085e-26 6.395828255603649e-19 6.3958282515844945e-19 4.019157942050637e-28
1.0077091589558085 2.448124417927961e-26 6.548444099281929e-19 6.548444094447538e-19 4.834391338695245e-28
1.0114953028030835 2.4676258167862037e-26 6.625407708286666e-19 6.625407702987183e-19 5.299482814579602e-28
1.0152956718711033 2.4871075887456875e-26 6.70280431411983e-19 6.702804308312402e-19 5.8074276919902085e-28
1.0229392996569957 2.5259855392533357e-26 6.858831864958788e-19 6.858831857991473e-19 6.967314675631576e-28
1.0267826658714554 2.545334536576305e-26 6.937337632814924e-19 6.93733762518695e-19 7.6279729968237934e-28
1.0306404723013447 2.5646553882026848e-26 7.016259499530904e-19 7.016259491182351e-19 8.34855308816456e-28
1.03451277320114 2.5839462389468014e-26 7.095594099907149e-19 7.095594090772926e-19 9.134222201816736e-28
1.0383996230291617 2.6032052440908856e-26 7.175338027068055e-19 7.175338017077485e-19 9.990568311988105e-28
1.0403485208654093 2.612822231038775e-26 7.215362412351473e-19 7.215362401904358e-19 1.0447114370967741e-27
1.0423010764483396 2.622430569741399e-26 7.255487833287575e-19 7.255487822363945e-19 1.0923632187594352e-27
1.0462171883269815 2.6416203931776136e-26 7.336040030816235e-19 7.336040018876291e-19 1.1939941729243354e-27
1.0471985131304309 2.646412089307066e-26 7.356240541375976e-19 7.356240529168136e-19 1.2207840568998358e-27
1.048180758391296 2.65120142510421e-26 7.376465925659611e-19 7.376465913178115e-19 1.2481495785198614e-27
1.0501480137395462 2.660772903192345e-26 7.416991092709066e-19 7.41699107966252e-19 1.3046548716358929e-27
1.0521189612883777 2.6703346028947406e-26 7.457615085108161e-19 7.457615071472091e-19 1.3636070300264388e-27
1.0531058218030118 2.675104371102424e-26 7.47794346903418e-19 7.477943455093841e-19 1.3940340028850455e-27
1.0540936079674168 2.6798475471055947e-26 7.498229021641551e-19 7.498229007390377e-19 1.4251175045867078e-27
1.058054026499678 2.6987934170748934e-26 7.579611036308815e-19 7.579611020746596e-19 1.5562217116640662e-27
1.0590464539527713 2.703523038300992e-26 7.600016204119001e-19 7.600016188211403e-19 1.5907596515972954e-27
1.06003981227728 2.708249866096878e-26 7.620445122339825e-19 7.620445106079512e-19 1.626031017264255e-27
1.0620293250338977 2.717695031962782e-26 7.661373978434307e-19 7.661373961445972e-19 1.698833573913966e-27
1.0660195594769086 2.7365506416678273e-26 7.743514140687852e-19 7.743514122148741e-19 1.853910947912559e-27
1.070024785945596 2.7553585095270176e-26 7.82602778169909e-19 7.826027761474223e-19 2.02248675343492e-27
1.0740450607676866 2.774116912604434e-26 7.908911126890904e-19 7.90891110483416e-19 2.2056744620539005e-27
1.07808044048254 2.792824141972086e-26 7.992160369311703e-19 7.992160345264962e-19 2.4046739557525672e-27
1.0861967418109137 2.830045240350937e-26 8.159645798077278e-19 8.159645769523494e-19 2.8553781718516597e-27
1.0902777775684922 2.84848055173821e-26 8.243655831298953e-19 8.243655800199214e-19 3.109974032431152e-27
1.0943741465085532 2.8668566860221214e-26 8.328010056048151e-19 8.328010022186384e-19 3.386176936832529e-27
1.1026131145906286 2.9034249374643664e-26 8.497735114173521e-19 8.497735074068801e-19 4.010472316606779e-27
1.1109141095355224 2.939737182355823e-26 8.6687887794213455e-19 8.66878873198371e-19 4.7437635910214154e-27
1.1192775983109025 2.975747142222774e-26 8.841038258700211e-19 8.841038202660729e-19 5.603948528591635e-27
1.1277040513999907 3.011287614354191e-26 9.013984596656122e-19 9.01398453053946e-19 6.611666507272525e-27
1.1361939428280308 3.046530423084629e-26 9.188136153798861e-19 9.188136075892021e-19 7.790683888197759e-27
1.1447477501889525 3.0814639212635625e-26 9.363459124753574e-19 9.36345903307024e-19 9.168333436516471e-27
1.1533659546722406 3.1160957582898514e-26 9.539977619759023e-19 9.539977511998798e-19 1.0776022409968229e-26
1.1707974979042381 3.184566585594288e-26 9.896954020137773e-19 9.896953871827957e-19 1.4830981486088705e-26
1.1884924949847024 3.2516846920354686e-26 1.0258274193624095e-18 1.0258273990517584e-18 2.0310651383657787e-26
1.2064549276569216 3.31797552406907e-26 1.0625606110840337e-18 1.0625605834050258e-18 2.7679008185200664e-26
1.2246888378427687 3.382716572245761e-26 1.0996660156033687e-18 1.0996659780659261e-18 3.753744274485153e-26
1.2431983285522175 3.4457573335690345e-26 1.1370892133224289e-18 1.1370891626596573e-18 5.066277207696468e-26
1.2619875648066055 3.5070755516887035e-26 1.1748153989518377e-18 1.1748153308985561e-18 6.805328148396688e-26
1.3004222497298317 3.6235309043500363e-26 1.2507940142381495e-18 1.250793893160158e-18 1.2107799160788294e-25
1.3400274889804893 3.7316376064283267e-26 1.3273412817720456e-18 1.3273410702700796e-18 2.115019661038872e-25
1.3808389325824078 3.8310069277239346e-26 1.4041884413771598e-18 1.4041880784683951e-18 3.6290876522607597e-25
1.4228933163050095 3.9221328775953145e-26 1.481371808365728e-18 1.4813711963995782e-18 6.11966149068153e-25
1.466228494730424 4.00721104459907e-26 1.5596002785121907e-18 1.559599263852828e-18 1.0146593628495947e-24
1.5108834753276823 4.0846137465225564e-26 1.6381414481910211e-18 1.63813979330984e-18 1.6548811818843854e-24
1.5568984535646726 4.1530283609029297e-26 1.7163055909373035e-18 1.7163029331554538e-18 2.6577818491727737e-24
1.6043148490894465 4.212597067157526e-26 1.7939443115074105e-18 1.7939401006022756e-18 4.210905135133576e-24
1.6531753430134553 4.263519133449934e-26 1.8709258198838217e-18 1.8709192457957543e-18 6.574088067468856e-24
1.7035239163302658 4.306408524494367e-26 1.947300138274943e-18 1.9472900223911018e-18 1.0115883841269685e-23
1.755405889504358 4.344708220087958e-26 2.0244525394408786e-18 2.0244371898022313e-18 1.5349638647197582e-23
1.8088679632656115 4.3776028894939135e-26 2.1019029634067545e-18 2.1018799874836587e-18 2.297592309596959e-23
1.8639582606462262 4.404550912122103e-26 2.179250982392735e-18 2.1792170432152746e-18 3.39391774596649e-23
1.9207263702978936 4.426000274402482e-26 2.256557313870954e-18 2.256507820419914e-18 4.949345104122746e-23
1.979223391128241 4.4429529701509597e-26 2.334188710061904e-18 2.3341174279485273e-18 7.12821133768371e-23
2.039501978296691 4.4566032363005697e-26 2.4126678401314243e-18 2.412566412627576e-18 1.0142750384775275e-22
2.1016163906111602 4.4702313866266715e-26 2.4937498301188363e-18 2.493607186079041e-18 1.4264403979564036e-22
2.1656225393682647 4.485762436088653e-26 2.578626643706725e-18 2.5784282970196692e-18 1.9834668705609295e-22
2.231578038680979 4.503380537143295e-26 2.6675966194931988e-18 2.667323843494718e-18 2.727759984813622e-22
2.299542257339062 4.524266018553173e-26 2.7615884682881805e-18 2.7612173336324236e-18 3.711346557568688e-22
2.369576372248914 4.5509619703201455e-26 2.862485860715928e-18 2.861986121908823e-18 4.9973880710567825e-22
2.4417434235010123 4.586465463834421e-26 2.9726760717832834e-18 2.9720099197934174e-18 6.661519898658201e-22
2.5161083711144245 4.635868053543119e-26 3.0962059595677936e-18 3.0953266043836594e-18 8.793551841343813e-22
2.5927381535095444 4.7074577848989166e-26 3.239772582351935e-18 3.23862269705261e-18 1.1498852993247861e-21
2.6717017477616296 4.81110486973004e-26 3.411946644539556e-18 3.410456743432058e-18 1.4899011074979191e-21
2.753070231689431 4.9616253976788865e-26 3.625857196790223e-18 3.6239439042253355e-18 1.9132925648879535e-21
2.836916847834745 5.19249135431351e-26 3.910135627241758e-18 3.90769978772046e-18 2.4358395212993155e-21
2.9233170693905177 5.577292116929725e-26 4.3278155921616145e-18 4.324740861474397e-18 3.0747306872177008e-21
2.967498994190263 5.899947455342878e-26 4.6473797074155695e-18 4.643941746032499e-18 3.437961383068197e-21
3.0123486681368425 6.275953076260879e-26 5.0182738725861056e-18 5.0144348896863e-18 3.838982899805914e-21
3.0578761833420214 7.108561555804475e-26 5.769936822862283e-18 5.765654556011569e-18 4.282266850715626e-21
3.1040917844459814 8.17946188142807e-26 6.739516179099937e-18 6.7347484778882006e-18 4.767701211734839e-21
3.127460860933648 9.30795584447993e-26 7.727083953349986e-18 7.722055128130568e-18 5.0288252194188125e-21
3.1510058709225794 1.0810108087365845e-25 9.041670614609037e-18 9.036368713859341e-18 5.301900749695389e-21
3.162844764501044 1.220669330330314e-25 1.0248146917473922e-17 1.024270335563039e-17 5.4435618435313055e-21
3.1747281389236908 1.3830295754098217e-25 1.16548702164972e-17 1.1649281871684378e-17 5.588344812823125e-21
3.1986289994194426 1.8356939705970325e-25 1.5585960987466247e-17 1.558007278125148e-17 5.888206214765491e-21
3.2227097969389145 2.9021407799228643e-25 2.4826134742412876e-17 2.4819927851533774e-17 6.206890879096976e-21
3.2348180950136065 3.9132434098161814e-25 3.360130613314897e-17 3.359492892849126e-17 6.37720465769229e-21
3.240889293275058 4.669124809887858e-25 4.016697373323014e-17 4.016050668525291e-17 6.46704797723296e-21
3.2469718861334385 5.5435614919264425e-25 4.777897522484253e-17 4.777241520831304e-17 6.5600165294784744e-21
3.2714166318528037 1.0207356064015557e-24 8.863771563328849e-17 8.863077064935541e-17 6.944983933094798e-21
3.2744851364798273 1.0498932246186394e-24 9.12551933321786e-17 9.12482027665047e-17 6.990565673873513e-21
3.2775565192852394 1.0798878473077169e-24 9.395032275255111e-17 9.394328635688301e-17 7.03639566806771e-21
3.283707930232385 1.0510588777640481e-24 9.161382157810319e-17 9.160670279349372e-17 7.118784609479769e-21
3.2898708863219004 9.596079434779562e-25 8.379963392172635e-17 8.379243976099051e-17 7.194160735825355e-21
3.29141343181113 9.380413578402982e-25 8.19546984796384e-17 8.194748538076168e-17 7.213098876730394e-21
3.292184975758714 9.274442757749799e-25 8.104784779602426e-17 8.104062521393198e-17 7.222582092290299e-21
3.295272960557952 8.605566689258316e-25 7.527318670168226e-17 7.526592715687344e-17 7.259544808790361e-21
3.3076538914384823 6.288286937017928e-25 5.521052066817495e-17 5.5203112453814045e-17 7.408214360909983e-21
3.310756385682612 5.816637945415166e-25 5.1117392290602685e-17 5.1109946559179805e-17 7.445731422882762e-21
3.313861789986515 5.381459207166366e-25 4.733734293141616e-17 4.7329859542538234e-17 7.483388877930493e-21
3.3200813396944477 4.771219113631513e-25 4.204821056527202e-17 4.204064635995959e-17 7.5642053124331e-21
3.345076488085796 3.683016437809348e-25 3.270236360366509e-17 3.269443968750239e-17 7.923916162717104e-21
3.3482140837626964 3.723920100446493e-25 3.3096571424128853e-17 3.308859879446555e-17 7.972629663295124e-21
3.3513546224236106 3.7652751143598115e-25 3.349550516190902e-17 3.348748357610374e-17 8.021585805277262e-21
3.3576445397418455 4.06711470013479e-25 3.624854432319825e-17 3.624042044960104e-17 8.123873597216282e-21
3.3702598118196083 5.180100108949822e-25 4.6341593958744627e-17 4.633325547782907e-17 8.338480915545869e-21
3.382922481734668 5.433864347769574e-25 4.879443253676893e-17 4.878588467186295e-17 8.54786490597485e-21
3.389271646505754 5.56532499150188e-25 5.006870305699809e-17 5.0060048903801484e-17 8.65415319658958e-21
3.395632727569191 5.7069939300027e-25 5.1439596635279496e-17 5.143083293720632e-17 8.763698073166103e-21
3.421196662673239 6.3872031297869865e-25 5.800403432005948e-17 5.799481624901605e-17 9.218071043435864e-21
3.4276182099114902 6.250459436171135e-25 5.686876743967496e-17 5.68594471055026e-17 9.320334172370053e-21
3.4340518103208963 5.65067800619035e-25 5.1508254959333306e-17 5.149883748371283e-17 9.417475620479331e-21
3.4469541582030403 4.7965023501546165e-25 4.3886364144078526e-17 4.3876759361382783e-17 9.604782695733282e-21
3.472904465399547 4.557586053683039e-25 4.201430145568761e-17 4.2004266367806516e-17 1.0035087881097968e-20
3.4990501388274233 4.191930278571214e-25 3.893441461720314e-17 3.892393717010108e-17 1.047744710206956e-20
3.5253949054701885 2.889278800311768e-25 2.7037507732001903e-17 2.7026597351634986e-17 1.0910380366919441e-20
3.5519380250092896 1.664855322674624e-25 1.56968067485952e-17 1.5685458618585683e-17 1.1348130009517201e-20
3.578680990867387 1.179763933463014e-25 1.1206952590565717e-17 1.1195124175840577e-17 1.182841472513861e-20
3.605625307711299 9.839698246903462e-26 9.417417115513811e-18 9.40508120262096e-18 1.2335912892850129e-20
3.660119384959845 8.420411199713664e-26 8.180841615372808e-18 8.167432145593352e-18 1.3409469779456376e-20
3.715437065384467 7.419771817022864e-26 7.31762065344372e-18 7.303068616120441e-18 1.455203732327931e-20
3.8285932144167436 6.935510722504792e-26 7.048344224466278e-18 7.03129816282527e-18 1.7046061641009467e-20
3.94519561050918 6.870539662576143e-26 7.194967314828306e-18 7.175142573388588e-18 1.9824741439721812e-20
4.06534921144712 6.980060423236143e-26 7.532280287377469e-18 7.509379490992014e-18 2.290079638545586e-20
4.189162171576248 7.192655734912914e-26 7.99808251186183e-18 7.971785959082085e-18 2.6296552779744834e-20
4.316745939156006 7.482063341177959e-26 8.573285820233175e-18 8.543266584580517e-18 3.001923565265692e-20
4.448215356677963 7.839885713719318e-26 9.256887163104621e-18 9.222846192890376e-18 3.40409702142443e-20
4.58368876423945 8.26795571145222e-26 1.0059645943956846e-17 1.0021259103326552e-17 3.838684063029281e-20
4.723288106065518 8.775695175084263e-26 1.1002601904276619e-17 1.0959497509831806e-17 4.310439444481084e-20
4.867139040275056 9.38111570751185e-26 1.2119862105548832e-17 1.2071751891921931e-17 4.811021362690132e-20
4.940699165968905 9.742330520436447e-26 1.2776759012199379e-17 1.272601713645452e-17 5.074187574485828e-20
5.015371051989984 1.0117328907699625e-25 1.3469093596655126e-17 1.3415637281937412e-17 5.345631471771114e-20
5.091171501069577 1.0568578154402165e-25 1.4282483246992255e-17 1.4226176415717123e-17 5.630683127513437e-20
5.129500256944802 1.0800567397614787e-25 1.4705881438669168e-17 1.4648117885807076e-17 5.776355286209123e-20
5.168117569889187 1.1042157227120084e-25 1.5148015632341503e-17 1.508876323727924e-17 5.92523950622617e-20
5.20702561229733 1.1334267526008449e-25 1.5665801024144243e-17 1.5604939819651422e-17 6.08612044928194e-20
5.246226572918644 1.163392839491338e-25 1.62010388099605e-17 1.6138542244747842e-17 6.249656521265934e-20
5.265937586045735 1.1786665627768822e-25 1.6475405170632657e-17 1.6412080969868898e-17 6.332420076375984e-20
5.285722656980489 1.1941382164786618e-25 1.6754381585085918e-17 1.669022311375712e-17 6.415847132880165e-20
5.305582063971359 1.2098109896815644e-25 1.7038054168426508e-17 1.6973054793438735e-17 6.499937498777182e-20
5.3255160863122235 1.2265747805701559e-25 1.7339044646998154e-17 1.7273192602898465e-17 6.58520440996903e-20
5.365609099470188 1.2677627328485407e-25 1.8056203634995248e-17 1.798858621645526e-17 6.761741853998851e-20
5.406003951863644 1.310494460751255e-25 1.8805330976997726e-17 1.8735918900541462e-17 6.941207645626845e-20
5.446702915881641 1.354843138863288e-25 1.9588092094844773e-17 1.9516856039198503e-17 7.123605564627781e-20
5.487708281020852 1.4026228531022767e-25 2.043155215036749e-17 2.0358456638663682e-17 7.309551170380864e-20
5.529022354014368 1.4680223221781415e-25 2.1545195450109922e-17 2.1470156939292888e-17 7.503851081702794e-20
5.570647458961463 1.537181139357785e-25 2.2730037647463918e-17 2.265302347878295e-17 7.701416868097286e-20
5.612585937458331 1.6103658424055623e-25 2.3991477081299097e-17 2.3912454497575936e-17 7.902258372315993e-20
5.654840148729818 1.6905900749592303e-25 2.537628719886308e-17 2.5295215537394982e-17 8.107166146810163e-20
5.67608639626678 1.7446979161330182e-25 2.628685761004616e-17 2.620471492905424e-17 8.214268099192518e-20
5.686739436050992 1.7725690451504245e-25 2.6756907878088945e-17 2.667422622499005e-17 8.268165309890012e-20
5.6974124697621304 1.8010022029047968e-25 2.7237129697926765e-17 2.7153906760685553e-17 8.32229372412119e-20
5.718818669136295 1.8596082542074436e-25 2.822911250151008e-17 2.8144800048546036e-17 8.43124529640486e-20
5.740305295436557 1.9240634419419026e-25 2.931728923814296e-17 2.9231871248652494e-17 8.541798949046217e-20
5.7835210386641895 2.0903615983210152e-25 3.209099414170745e-17 3.2003284068324915e-17 8.77100733825352e-20
5.827062130521658 2.28146258864046e-25 3.5288437849102857e-17 3.519837852696415e-17 9.005932213870372e-20
5.8489554468988025 2.4148885892695494e-25 3.749253846357977e-17 3.740121730821839e-17 9.132115536136913e-20
5.870931020387893 2.557928631412772e-25 3.9862527684870006e-17 3.976993226713068e-17 9.259541773932413e-20
5.892989160043636 2.711353599933565e-25 4.241224239863347e-17 4.231836022790404e-17 9.388217072943137e-20
5.915130176081913 2.885604785434752e-25 4.530755113844471e-17 4.521233655696218e-17 9.521458148251174e-20
5.95966208400165 3.3714697301911726e-25 5.333475858034066e-17 5.323655171619785e-17 9.820686414280203e-20
6.004529249263818 4.0701230335379406e-25 6.487179802020617e-17 6.477024514795956e-17 1.0155287224661754e-19
6.027089341400364 4.555076293389145e-25 7.287401835248687e-17 7.277055427506547e-17 1.0346407742138171e-19
6.049734195844842 5.127710396479027e-25 8.234347973465165e-17 8.22379947741165e-17 1.0548496053514998e-19
6.095279466722835 6.780164130979112e-25 1.0969915011301944e-16 1.0958877606478553e-16 1.1037404823393038e-19
6.141167624020661 9.320810137896682e-25 1.519406732166331e-16 1.5182404999696432e-16 1.166232196687968e-19
6.164241091010745 1.0943021351421942e-24 1.7905493522513747e-16 1.7893443723359228e-16 1.2049799154515615e-19
6.187401249150058 1.2790072243684865e-24 2.100635551466601e-16 2.0993906412873341e-16 1.2449101792668872e-19
6.1990139391386085 1.3692065493723421e-24 2.252999077012243e-16 2.251733818340753e-16 1.2652586714910416e-19
6.204828454712694 1.416711826132404e-24 2.333354534212801e-16 2.3320789827317217e-16 1.2755514810790954e-19
6.210648424152782 1.451413184967701e-24 2.392750646260101e-16 2.3914662095919083e-16 1.2844366681929257e-19
6.233982942956859 1.569344576782947e-24 2.5968888018031806e-16 2.595572888696593e-16 1.3159131065875047e-19
6.239830258556775 1.584448896526843e-24 2.624342086209199e-16 2.6230214342697674e-16 1.3206519394316165e-19
6.245683058788269 1.5858163660628118e-24 2.629070732550105e-16 2.627745328531624e-16 1.3254040184807313e-19
6.257405133728602 1.5827101024807785e-24 2.628845613580372e-16 2.627511672306325e-16 1.3339412740474767e-19
6.269149208991335 1.5596945660262846e-24 2.5954794731069603e-16 2.5941413414610476e-16 1.338131645912832e-19
6.280915325867298 1.501783641050609e-24 2.503800610186031e-16 2.5024636809700603e-16 1.3369292159706515e-19
6.304513850009849 1.3589029839590625e-24 2.2740996349525225e-16 2.272770007529986e-16 1.3296274225364256e-19
6.32820103803542 1.1817612274794676e-24 1.9850865086290604e-16 1.9837693938953534e-16 1.3171147337068094e-19
6.3519772230701035 1.0193324053550097e-24 1.7186767271408657e-16 1.7173704738532947e-16 1.3062532875703157e-19
6.375842739491607 8.826835263366534e-25 1.4938674037000467e-16 1.4925703335998295e-16 1.2970701002175276e-19
6.399797922933955 7.73267519393854e-25 1.3136070254116308e-16 1.312312874050836e-16 1.2941513607950742e-19
6.42384311029221 6.823142924928219e-25 1.1634529556721475e-16 1.1621604745318028e-16 1.2924811403446259e-19
6.447978639727206 6.161347559807723e-25 1.054553775949517e-16 1.0532580324302592e-16 1.2957435192574628e-19
6.472204850670314 5.610381022592523e-25 9.638601931144248e-17 9.625601812257546e-17 1.3000118886702623e-19
6.496522083828205 5.253504213023332e-25 9.059400031756124e-17 9.046316825424477e-17 1.3083206331646887e-19
