Dust emission spectrum from A.P. Jones, M. Kohler, N. Ysard, M. Bocchio, and L. Verstraete (2017), A&A, 602A, 46J 
inside the DustPedia framework.

lambda    nu*dP/dnu     j_nu    j_nu(carb.) j_nu(sil)
 (um)   (erg s-1 H-1) (Jy cm2 sr-1 H-1)
0.9927057738263894 1.1982959398762528e-20 3.157577863424543e-13 3.157577641948322e-13 2.2147622143724465e-20
1.0001793341362166 1.2184076895676299e-20 3.234744187321311e-13 3.2347439208402457e-13 2.6648106621585624e-20
1.0077091589558085 1.2386046283948607e-20 3.3131213065635483e-13 3.313120986361656e-13 3.202018920858098e-20
1.0114953028030835 1.24873421939296e-20 3.352766560670271e-13 3.352766209850337e-13 3.50819934524076e-20
1.0152956718711033 1.2588841352225536e-20 3.3927177299162485e-13 3.3927173456794575e-13 3.8423679079544704e-20
1.0229392996569957 1.2792338107761708e-20 3.4735153815163213e-13 3.4735149210510095e-13 4.604653118657683e-20
1.0267826658714554 1.2894105039076238e-20 3.5143026915971174e-13 3.514302187756444e-13 5.0384067331274943e-20
1.0306404723013447 1.2996058372055585e-20 3.555398453485591e-13 3.5553979023683797e-13 5.511172117950503e-20
1.03451277320114 1.3098195414675688e-20 3.596803861588282e-13 3.5968032589604044e-13 6.026278771807465e-20
1.0383996230291617 1.3200513576174884e-20 3.6385201380090985e-13 3.638519479276709e-13 6.587323905621827e-20
1.0403485208654093 1.3251739795192996e-20 3.6594952416063847e-13 3.6594945529788206e-13 6.88627565166729e-20
1.0423010764483396 1.3303010369543384e-20 3.680548533715364e-13 3.6805478138961093e-13 7.198192542025381e-20
1.0462171883269815 1.3405683413997324e-20 3.722890329720485e-13 3.722889543412584e-13 7.863079007301313e-20
1.0471985131304309 1.3431378945658142e-20 3.73352490059494e-13 3.7335240967685675e-13 8.038263725806564e-20
1.048180758391296 1.3457085316037636e-20 3.7441791616623067e-13 3.744178339944323e-13 8.21717984937521e-20
1.0501480137395462 1.3508530437436091e-20 3.7655468382831003e-13 3.7655459796321095e-13 8.586509903333806e-20
1.0521189612883777 1.3560018511562067e-20 3.7869935286966476e-13 3.786992631527556e-13 8.971690938990423e-20
1.0531058218030118 1.358574471079016e-20 3.797737091287835e-13 3.797736174243855e-13 9.170439807923109e-20
1.0540936079674168 1.3611370611638437e-20 3.808469412923835e-13 3.8084684755797425e-13 9.373440929260786e-20
1.058054026499678 1.37139755552934e-20 3.851595302290103e-13 3.8515942793643646e-13 1.0229257401723265e-19
1.0590464539527713 1.3739651977844876e-20 3.862426034149858e-13 3.862424988689023e-13 1.0454608337845397e-19
1.06003981227728 1.3765338417303984e-20 3.8732765138351075e-13 3.8732754453649647e-13 1.0684701437875952e-19
1.0620293250338977 1.3816741235195087e-20 3.8950368058638593e-13 3.895035689914365e-13 1.1159494939739796e-19
1.0660195594769086 1.3919665871135518e-20 3.938795353010375e-13 3.9387941359825185e-13 1.21702785554934e-19
1.070024785945596 1.4022747804716646e-20 3.982872410832328e-13 3.982871084011651e-13 1.3268206770497628e-19
1.0740450607676866 1.4125985501668187e-20 4.0272694854650346e-13 4.0272680394264674e-13 1.4460385670532568e-19
1.07808044048254 1.422937755413989e-20 4.071988123386358e-13 4.071986547939838e-13 1.57544652095749e-19
1.0861967418109137 1.4436462526772292e-20 4.162351156657493e-13 4.162349288469289e-13 1.8681882042026053e-19
1.0902777775684922 1.4539795867283884e-20 4.2078950798554396e-13 4.2078930464949656e-13 2.0333604748038327e-19
1.0943741465085532 1.4643273114297647e-20 4.2537642828089856e-13 4.2537620704009727e-13 2.2124080126251904e-19
1.1026131145906286 1.4850656617653934e-20 4.346485579151295e-13 4.3464829625397386e-13 2.61661155631816e-19
1.1109141095355224 1.5058609034677918e-20 4.4405296438404006e-13 4.440526553225233e-13 3.090615167607312e-19
1.1192775983109025 1.5266967110778493e-20 4.5358638980289316e-13 4.535860252298198e-13 3.6457307342575654e-19
1.1277040513999907 1.5474988947475127e-20 4.632281265364294e-13 4.632276970389062e-13 4.2949752311649105e-19
1.1361939428280308 1.5683557898393242e-20 4.730058306803971e-13 4.730053253496648e-13 5.053307324045958e-19
1.1447477501889525 1.589267981210711e-20 4.829213049570319e-13 4.829207111676998e-13 5.937893320006649e-19
1.1533659546722406 1.6102435623122156e-20 4.929786739047534e-13 4.929779770631329e-13 6.96841620478954e-19
1.1707974979042381 1.652448884185714e-20 5.135458841210583e-13 5.135449280528741e-13 9.5606818397884e-19
1.1884924949847024 1.694920973782273e-20 5.347063363237453e-13 5.347050311858923e-13 1.3051378529448497e-18
1.2064549276569216 1.737946274272022e-20 5.565662681432297e-13 5.565644953081284e-13 1.772835101399608e-18
1.2246888378427687 1.7812563551511234e-20 5.790574046044864e-13 5.790550083040806e-13 2.396300405694674e-18
1.2431983285522175 1.8248206998349415e-20 6.021851608106654e-13 6.02181937525022e-13 3.223285643264507e-18
1.2619875648066055 1.8687083606996246e-20 6.259880421574768e-13 6.259837272835222e-13 4.314873954695232e-18
1.3004222497298317 1.9572122082421608e-20 6.756032663400847e-13 6.755956432055931e-13 7.62313449164085e-18
1.3400274889804893 2.047077527595949e-20 7.281442615663452e-13 7.281310411453731e-13 1.3220420972115647e-17
1.3808389325824078 2.1386807122321533e-20 7.838959293390943e-13 7.838734124572965e-13 2.2516881797706772e-17
1.4228933163050095 2.232827120757663e-20 8.433286818351653e-13 8.43290999448182e-13 3.768238698331047e-17
1.466228494730424 2.3311630161889887e-20 9.072850041691333e-13 9.072230096093851e-13 6.199455974806633e-17
1.5108834753276823 2.4335772300245634e-20 9.759903812866231e-13 9.758900709775833e-13 1.0031030903996744e-16
1.5568984535646726 2.5400727354757163e-20 1.0497258045058362e-12 1.0495660053604826e-12 1.5979914535365062e-16
1.6043148490894465 2.651340633642157e-20 1.1290796085561016e-12 1.128828503309333e-12 2.5110524676889976e-16
1.6531753430134553 2.768121486331738e-20 1.2147124943620343e-12 1.214323744052927e-12 3.8875030910719124e-16
1.7035239163302658 2.8912760991500955e-20 1.3073962480898353e-12 1.3068031586630305e-12 5.930894268045139e-16
1.755405889504358 3.0230773818890766e-20 1.4086277772107155e-12 1.4077356630004357e-12 8.921142102797065e-16
1.8088679632656115 3.163684805090658e-20 1.5190410448293858e-12 1.5177175442175646e-12 1.3235006118213083e-15
1.8639582606462262 3.313220866611009e-20 1.6392908090980392e-12 1.6373534835674271e-12 1.9373255306121477e-15
1.9207263702978936 3.4722930073804867e-20 1.7703180514974568e-12 1.7675189565817062e-12 2.7990949157508104e-15
1.979223391128241 3.641744232417118e-20 1.913258665880559e-12 1.9092653370680043e-12 3.993328812554643e-15
2.039501978296691 3.822363376556213e-20 2.069309898802794e-12 2.0636825021248616e-12 5.6273966779324876e-15
2.1016163906111602 4.01609800002819e-20 2.2404083455886902e-12 2.2325720292895155e-12 7.836316299173872e-15
2.1656225393682647 4.2240734245917625e-20 2.4281955259145075e-12 2.417408662376549e-12 1.0786863537959391e-14
2.231578038680979 4.446199190922865e-20 2.633725005798202e-12 2.619042852934724e-12 1.4682152863478496e-14
2.299542257339062 4.68302973834966e-20 2.858497017868279e-12 2.838730705686572e-12 1.976631218170749e-14
2.369576372248914 4.935558512936411e-20 3.1043912364362718e-12 3.0780618822753396e-12 2.6329354160933134e-14
2.4417434235010123 5.2049281331518304e-20 3.373527052318968e-12 3.3388165554519124e-12 3.471049686705727e-14
2.5161083711144245 5.493148598479221e-20 3.6687669344695776e-12 3.6234642239709175e-12 4.530271049865978e-14
2.5927381535095444 5.803303353589322e-20 3.993956813026088e-12 3.935401991543226e-12 5.855482148286278e-14
2.6717017477616296 6.138028048967645e-20 4.352976036238422e-12 4.27800661075553e-12 7.496942548289235e-14
2.753070231689431 6.50096407508369e-20 4.7507752980996864e-12 4.655673097353392e-12 9.510220074629444e-14
2.836916847834745 6.901510617385567e-20 5.197089548239472e-12 5.077526267301704e-12 1.1956328093776676e-13
2.9233170693905177 7.359661888314071e-20 5.710882414890832e-12 5.561901343136457e-12 1.489810717543755e-13
2.967498994190263 7.627880922732237e-20 6.008470292186353e-12 5.8430502737815815e-12 1.6542001840477034e-13
3.0123486681368425 7.913522686464537e-20 6.327680219250837e-12 6.144244028171564e-12 1.8343619107927182e-13
3.0578761833420214 8.335872401110716e-20 6.76613077628572e-12 6.5629158356383465e-12 2.032149406473748e-13
3.1040917844459814 8.818919084225342e-20 7.266400737835943e-12 7.041724099903625e-12 2.2467663793231588e-13
3.127460860933648 9.229638882858311e-20 7.662068417443634e-12 7.42592510433401e-12 2.361433131096247e-13
3.1510058709225794 9.739122723893612e-20 8.145888924794046e-12 7.89781100027088e-12 2.480779245231662e-13
3.162844764501044 1.0181006243522405e-19 8.547478433254595e-12 8.293231133453223e-12 2.5424729980137215e-13
3.1747281389236908 1.067731859182062e-19 8.997838127285666e-12 8.737300791229483e-12 2.6053733605618143e-13
3.1986289994194426 1.2002549614054567e-19 1.0190765619497048e-11 9.917247730812477e-12 2.7351788868456744e-13
3.2227097969389145 1.5004296686800335e-19 1.2835307433691922e-11 1.2548052916973441e-11 2.8725451671848233e-13
3.2348180950136065 1.7796788195560916e-19 1.5281322057447585e-11 1.4986741385083734e-11 2.9458067236385423e-13
3.240889293275058 1.9876445481117641e-19 1.7099064515459127e-11 1.68006194548418e-11 2.9844506061732343e-13
3.2469718861334385 2.228461228609786e-19 1.9206712866148525e-11 1.8904269318056054e-11 3.024435480924709e-13
3.2714166318528037 3.4885268486152005e-19 3.0293354013262617e-11 2.997440142551704e-11 3.1895258774558373e-13
3.2744851364798273 3.567538295136426e-19 3.100852441074468e-11 3.0687630438138605e-11 3.208939726060795e-13
3.2775565192852394 3.64863169828189e-19 3.174312281718764e-11 3.142027813607913e-11 3.228446811085002e-13
3.283707930232385 3.5724765897484084e-19 3.113890570825226e-11 3.081258097879921e-11 3.26324729453054e-13
3.2898708863219004 3.3278417711845614e-19 2.906102685686051e-11 2.873154285209846e-11 3.2948400476205113e-13
3.29141343181113 3.270035875200487e-19 2.8569614967369346e-11 2.8239337848426452e-11 3.302771189428993e-13
3.292184975758714 3.241614942641859e-19 2.8327946093043645e-11 2.7997271922293845e-11 3.306741707498012e-13
3.295272960557952 3.0642627437596404e-19 2.6803211216983562e-11 2.6470994056817536e-11 3.3221716016602433e-13
3.3076538914384823 2.4452349694281094e-19 2.1468914693351547e-11 2.1130503997656364e-11 3.384106956951869e-13
3.310756385682612 2.3179568520092616e-19 2.0370514862497725e-11 2.0030543825604653e-11 3.399710368930724e-13
3.313861789986515 2.200021325937128e-19 1.9352216555619272e-11 1.9010680390309136e-11 3.4153616531012826e-13
3.3200813396944477 2.0358024241960186e-19 1.7941294868919017e-11 1.7596388638186265e-11 3.4490623073275634e-13
3.345076488085796 1.752847175698737e-19 1.5563939680772292e-11 1.520400526971702e-11 3.599344110552802e-13
3.3482140837626964 1.7653873427112217e-19 1.5689989769729355e-11 1.5328019129765888e-11 3.619706399634675e-13
3.3513546224236106 1.778034528632956e-19 1.5817214658431048e-11 1.545319903298491e-11 3.640156254461419e-13
3.3576445397418455 1.8628212273361727e-19 1.6602570324129776e-11 1.6234277719585646e-11 3.68292604544135e-13
3.3702598118196083 2.1670906896749375e-19 1.938696834047317e-11 1.9009705265553962e-11 3.772630749192118e-13
3.382922481734668 2.242249919706123e-19 2.0134715450264228e-11 1.9748746105785734e-11 3.859693444784997e-13
3.389271646505754 2.280939658872321e-19 2.0520578878213777e-11 2.0130199136733425e-11 3.9037974148035403e-13
3.395632727569191 2.3234546193398593e-19 2.094229814945023e-11 2.0547373217393474e-11 3.949249320567497e-13
3.421196662673239 2.5286525708654675e-19 2.2963423508479948e-11 2.2549697454288186e-11 4.1372605419175753e-13
3.4276182099114902 2.4943747250603987e-19 2.2694654304285477e-11 2.2276746558032593e-11 4.179077462528832e-13
3.4340518103208963 2.333467181255066e-19 2.1270513446289247e-11 2.084865740153178e-11 4.218560447574703e-13
3.4469541582030403 2.1032118893252545e-19 1.9243673016048477e-11 1.8814252598641682e-11 4.294204174067902e-13
3.472904465399547 2.0445248629660612e-19 1.88475396656281e-11 1.840067301436509e-11 4.468666512630097e-13
3.4990501388274233 1.952963817108357e-19 1.8139019004297285e-11 1.767433036353679e-11 4.646886407604921e-13
3.5253949054701885 1.613242337077704e-19 1.5096518950550786e-11 1.4614566231492353e-11 4.819527190584298e-13
3.5519380250092896 1.290061674582858e-19 1.2163128245380768e-11 1.1663863714709316e-11 4.992645306714505e-13
3.578680990867387 1.1685992075196634e-19 1.1100895310134613e-11 1.0582661604729026e-11 5.182337054055848e-13
3.605625307711299 1.1265534786637534e-19 1.0782062361361908e-11 1.0243874756058e-11 5.381876053039104e-13
3.660119384959845 1.1105234605415987e-19 1.0789278962000657e-11 1.0209280940807046e-11 5.799980211936117e-13
3.715437065384467 1.1049435850163371e-19 1.089731355357229e-11 1.0273401078747154e-11 6.23912474825139e-13
3.8285932144167436 1.1355573022407697e-19 1.1540316312723727e-11 1.082258816675571e-11 7.177281459680148e-13
3.94519561050918 1.1770706828064353e-19 1.2326520922607487e-11 1.1507341031327242e-11 8.19179891280246e-13
4.06534921144712 1.2225445271857046e-19 1.319264803483286e-11 1.2264701877803091e-11 9.279461570297711e-13
4.189162171576248 1.2697604370441493e-19 1.4119470081796995e-11 1.3075444783239943e-11 1.044025298557056e-12
4.316745939156006 1.317587900514971e-19 1.509751675347e-11 1.3930769803462852e-11 1.1667469500071515e-12
4.448215356677963 1.3652747866351062e-19 1.6120381224941646e-11 1.4826246622052464e-11 1.2941346028891834e-12
4.58368876423945 1.412491494836704e-19 1.7185825411747197e-11 1.5759697956112158e-11 1.4261274556350407e-12
4.723288106065518 1.459139613093975e-19 1.8294086069915327e-11 1.6730735756172124e-11 1.563350313743209e-12
4.867139040275056 1.5049408772477847e-19 1.94429708340998e-11 1.7741251482398372e-11 1.7017193517014315e-12
4.940699165968905 1.5280201263962437e-19 2.0039501718609957e-11 1.8267785137712585e-11 1.7717165808973687e-12
5.015371051989984 1.5503760974032874e-19 2.063999397118518e-11 1.8797995806869973e-11 1.8419981643152056e-12
5.091171501069577 1.5738117328947536e-19 2.126865069321209e-11 1.9354489236188195e-11 1.9141614570238907e-12
5.129500256944802 1.5852149296274208e-19 2.158403531193869e-11 1.963378454358333e-11 1.950250768355366e-12
5.168117569889187 1.5965796084210788e-19 2.1902434795295785e-11 1.991570025560586e-11 1.986734539689927e-12
5.20702561229733 1.6092533712421096e-19 2.2242498735328884e-11 2.0215685804501672e-11 2.0268129308272124e-12
5.246226572918644 1.6217470855816948e-19 2.2583934318296958e-11 2.051694142506026e-11 2.0669928932366938e-12
5.265937586045735 1.6279256596489406e-19 2.2755150334626752e-11 2.0668035936914966e-11 2.0871143977117855e-12
5.285722656980489 1.6340583396758306e-19 2.2926690208402705e-11 2.0819436824005053e-11 2.107253384397649e-12
5.305582063971359 1.6401448697420844e-19 2.309854793275425e-11 2.0971140747799607e-11 2.1274071849546462e-12
5.3255160863122235 1.6464419146954458e-19 2.3274349285351728e-11 2.1126595921871203e-11 2.147753363480532e-12
5.365609099470188 1.6608809786340935e-19 2.36552190616335e-11 2.146535074241047e-11 2.1898683192230276e-12
5.406003951863644 1.6752300440206484e-19 2.4039212971842084e-11 2.1807139611921456e-11 2.232073359920637e-12
5.446702915881641 1.6894938658198168e-19 2.4426415492733495e-11 2.215206843396202e-11 2.2743470587714767e-12
5.487708281020852 1.7041579972358192e-19 2.4823916789876046e-11 2.250704643496403e-11 2.3168703549120168e-12
5.529022354014368 1.7230077936031218e-19 2.528744904925034e-11 2.2926253529501882e-11 2.3611955197484524e-12
5.570647458961463 1.7420830367227808e-19 2.575988736516795e-11 2.3354284590817452e-11 2.405602774350493e-12
5.612585937458331 1.7614172958873828e-19 2.6241864781334122e-11 2.379179445471184e-11 2.4500703266222806e-12
5.654840148729818 1.781762487301593e-19 2.674481370004272e-11 2.424999052554835e-11 2.4948231744943764e-12
5.67608639626678 1.7952237197595335e-19 2.7048115242832896e-11 2.4529834324630543e-11 2.518280918202344e-12
5.686739436050992 1.8020482592911062e-19 2.720189625201925e-11 2.467187747973751e-11 2.5300187722817398e-12
5.6974124697621304 1.8089379119114103e-19 2.7357143951718087e-11 2.4815381798965308e-11 2.541762152752783e-12
5.718818669136295 1.822920347440418e-19 2.7672184963020168e-11 2.5106920860721507e-11 2.5652641022986593e-12
5.740305295436557 1.8380739133878145e-19 2.8007051838939844e-11 2.541807341242837e-11 2.588978426511478e-12
5.7835210386641895 1.876650268152469e-19 2.8810122042849595e-11 2.6172158141114803e-11 2.637963901734796e-12
5.827062130521658 1.9194534710496977e-19 2.968907526892454e-11 2.70015446577545e-11 2.6875306111700288e-12
5.8489554468988025 1.9494792314261916e-19 3.026678969496675e-11 2.7552357661198982e-11 2.7144320337677677e-12
5.870931020387893 1.9810122731208341e-19 3.0871915506779226e-11 2.813052199228487e-11 2.741393514494356e-12
5.892989160043636 2.0141751062284929e-19 3.150665514108868e-11 2.8738242907063592e-11 2.768412234025095e-12
5.915130176081913 2.0515082515507604e-19 3.221120767724034e-11 2.941474404859154e-11 2.7964636286488072e-12
5.95966208400165 2.1558984146443165e-19 3.410510272096492e-11 3.12439457231126e-11 2.8611569978523097e-12
6.004529249263818 2.3040863453088752e-19 3.672376062894244e-11 3.3789366423756637e-11 2.934394205185789e-12
6.027089341400364 2.4066569856026105e-19 3.8502706440171175e-11 3.55256098844342e-11 2.9770965557369656e-12
6.049734195844842 2.5262337842085965e-19 4.056759534583122e-11 3.754518161535581e-11 3.022413730475403e-12
6.095279466722835 2.8700220278404434e-19 4.643530321356334e-11 4.3300192439866444e-11 3.1351107736968997e-12
6.141167624020661 3.39162345000029e-19 5.5287635159002533e-11 5.2004640996272774e-11 3.2829941627297513e-12
6.164241091010745 3.7234590132974474e-19 6.092501248321122e-11 5.754842631883575e-11 3.376586164375458e-12
6.187401249150058 4.0948621500235984e-19 6.7253826614949e-11 6.378128791702407e-11 3.472538697924909e-12
6.1990139391386085 4.274938887987727e-19 7.034317337537743e-11 6.682183909950849e-11 3.5213342758689572e-12
6.204828454712694 4.369243397862674e-19 7.196236881366589e-11 6.84164046295514e-11 3.545964184114492e-12
6.210648424152782 4.437252602615878e-19 7.315104439239834e-11 6.95842669958539e-11 3.56677739654444e-12
6.233982942956859 4.664003931267754e-19 7.717807650314655e-11 7.353946011007717e-11 3.638616393069368e-12
6.239830258556775 4.690512895286627e-19 7.768953876638402e-11 7.404150171685291e-11 3.648037049531114e-12
6.245683058788269 4.689138587583886e-19 7.773962537727925e-11 7.408215831093301e-11 3.6574670663462134e-12
6.257405133728602 4.674400214585451e-19 7.764072827342903e-11 7.396707550986286e-11 3.673652763566186e-12
6.269149208991335 4.619061881063422e-19 7.68655643127303e-11 7.318751391309867e-11 3.678050399631638e-12
6.280915325867298 4.493086929794517e-19 7.490955080965147e-11 7.124165844441966e-11 3.667892365231818e-12
6.304513850009849 4.187718698873958e-19 7.008071714323362e-11 6.644627785478649e-11 3.6344392884471432e-12
6.32820103803542 3.817675630171109e-19 6.412815221513337e-11 6.05411398058576e-11 3.5870124092757468e-12
6.3519772230701035 3.4807847272751605e-19 5.868884057376428e-11 5.5144773853524595e-11 3.5440667202396818e-12
6.375842739491607 3.19621000297438e-19 5.4093157925351265e-11 5.058742288626851e-11 3.505735039082763e-12
6.399797922933955 2.9713383121650493e-19 5.047633301337098e-11 4.699240935373101e-11 3.4839236596399803e-12
6.42384311029221 2.7832630378198946e-19 4.745900303412833e-11 4.399358106620083e-11 3.465421967927505e-12
6.447978639727206 2.6469587197294755e-19 4.530438001715858e-11 4.184462210072158e-11 3.4597579164369893e-12
6.472204850670314 2.5327180998670897e-19 4.3511949491698426e-11 4.0055319889740483e-11 3.4566296019579334e-12
