Dust emission spectrum from A.P. Jones, M. Kohler, N. Ysard, M. Bocchio, and L. Verstraete (2017), A&A, 602A, 46J 
inside the DustPedia framework.

lambda    nu*dP/dnu     j_nu    j_nu(carb.) j_nu(sil)
 (um)   (erg s-1 H-1) (Jy cm2 sr-1 H-1)
0.9927057738263894 4.831813642679077e-24 1.2732103389995398e-16 1.273210330260271e-16 8.739268666254421e-25
1.0001793341362166 4.912283935154707e-24 1.304159686594915e-16 1.3041596760723577e-16 1.0522557273008715e-24
1.0077091589558085 4.992776078613501e-24 1.335508718903462e-16 1.3355087062503199e-16 1.265314192582259e-24
1.0114953028030835 5.03302229988171e-24 1.351332301468787e-16 1.351332287600493e-16 1.3868293817761302e-24
1.0152956718711033 5.073264369293436e-24 1.3672548166008417e-16 1.3672548014056945e-16 1.519514700702773e-24
1.0229392996569957 5.153684092606088e-24 1.3993846016532054e-16 1.3993845834291276e-16 1.8224077340854448e-24
1.0267826658714554 5.193766289691126e-24 1.415566787774171e-16 1.4155667678253636e-16 1.9948807327114865e-24
1.0306404723013447 5.233829753122584e-24 1.4318456933119816e-16 1.4318456714824013e-16 2.182958009759001e-24
1.03451277320114 5.273871412273895e-24 1.448220954157788e-16 1.4482209302779776e-16 2.387981003672922e-24
1.0383996230291617 5.3138882219528434e-24 1.4646922027034802e-16 1.4646921765894804e-16 2.6113999606857323e-24
1.0403485208654093 5.333886363771989e-24 1.4729637065899316e-16 1.4729636792850026e-16 2.7304928995356743e-24
1.0423010764483396 5.3538771632119914e-24 1.4812590680877915e-16 1.4812590395399697e-16 2.8547821911410725e-24
1.0462171883269815 5.3938352441476086e-24 1.4979211764448932e-16 1.497921145246684e-16 3.1198209053629238e-24
1.0471985131304309 5.4038195944810344e-24 1.5021015411704774e-16 1.5021015092737216e-16 3.1896755786198985e-24
1.048180758391296 5.413801784612931e-24 1.5062878291453382e-16 1.506287796535065e-16 3.2610273108108228e-24
1.0501480137395462 5.433759500686942e-24 1.5146781511554236e-16 1.514678117071977e-16 3.408344666116683e-24
1.0521189612883777 5.453708026336379e-24 1.5230920950090698e-16 1.5230920593888263e-16 3.56202434869863e-24
1.0531058218030118 5.4636640897849254e-24 1.527303818069962e-16 1.527303781656597e-16 3.641336503855401e-24
1.0540936079674168 5.473569757131653e-24 1.5315080012380599e-16 1.5315079640145036e-16 3.722355667124066e-24
1.058054026499678 5.513165203218965e-24 1.5483826051644977e-16 1.5483825645241916e-16 4.064030589423401e-24
1.0590464539527713 5.523057035781979e-24 1.55261569343221e-16 1.552615651891925e-16 4.154028528675382e-24
1.06003981227728 5.532945967935483e-24 1.5568545443810794e-16 1.5568545019217552e-16 4.245932421317138e-24
1.0620293250338977 5.5527149543497715e-24 1.5653495098084643e-16 1.565349465452341e-16 4.43561230138566e-24
1.0660195594769086 5.592216185964924e-24 1.582408322888227e-16 1.5824082744924102e-16 4.839581672733059e-24
1.070024785945596 5.631666105717271e-24 1.5995586508327775e-16 1.5995585980466458e-16 5.278613187595253e-24
1.0740450607676866 5.671061954177809e-24 1.616800099047594e-16 1.6168000414917034e-16 5.7555890302892214e-24
1.07808044048254 5.710401005529381e-24 1.6341322721824912e-16 1.6341322094463501e-16 6.27361411471931e-24
1.0861967418109137 5.788831507882299e-24 1.6690480426105075e-16 1.669047968146072e-16 7.446443473423968e-24
1.0902777775684922 5.827766506509287e-24 1.6865869530166736e-16 1.6865868719294415e-16 8.10872322970438e-24
1.0943741465085532 5.866631504713363e-24 1.7042137615247642e-16 1.7042136732543984e-16 8.827036579257287e-24
1.1026131145906286 5.944141414204123e-24 1.7397294680264265e-16 1.7397293635261745e-16 1.0450025242401304e-23
1.1109141095355224 6.021341448792211e-24 1.7755919645348974e-16 1.7755918409805442e-16 1.2355435323683916e-23
1.1192775983109025 6.098144515525522e-24 1.8117778961747493e-16 1.8117777502801775e-16 1.458945722096609e-23
1.1277040513999907 6.174219956368942e-24 1.8481902332339082e-16 1.848190061180686e-16 1.7205322158335252e-23
1.1361939428280308 6.249920122058968e-24 1.8849349606593372e-16 1.884934758016459e-16 2.0264287830855654e-23
1.1447477501889525 6.325227991055213e-24 1.922008995150164e-16 1.922008756782588e-16 2.3836757643756738e-23
1.1533659546722406 6.400163493585427e-24 1.9594204166919663e-16 1.959420136656201e-16 2.800357658195439e-23
1.1707974979042381 6.549153172650185e-24 2.0353371825780976e-16 2.0353367975314652e-16 3.8504663270486783e-23
1.1884924949847024 6.696446496209962e-24 2.1125659707815801e-16 2.112565443981786e-16 5.2679979374943986e-23
1.2064549276569216 6.843138360437144e-24 2.1914716444566876e-16 2.1914709272555834e-16 7.172011037321687e-23
1.2246888378427687 6.987855455298771e-24 2.2716378987196993e-16 2.2716369270588323e-16 9.716608674713312e-23
1.2431983285522175 7.130337375129443e-24 2.3529891782052897e-16 2.352987868149393e-16 1.3100558966158065e-22
1.2619875648066055 7.270624888030806e-24 2.4355455001099584e-16 2.4355437422167895e-16 1.757893168426807e-22
1.3004222497298317 7.542832990455531e-24 2.603684252708787e-16 2.603681131882005e-16 3.1208267824711834e-22
1.3400274889804893 7.804146941563553e-24 2.775930435127937e-16 2.7759249957473986e-16 5.439380538667758e-22
1.3808389325824078 8.05440232786766e-24 2.9521999997302174e-16 2.9521906879274824e-16 9.311802734772926e-22
1.4228933163050095 8.295238596238825e-24 3.1330740144810056e-16 3.133058349264847e-16 1.5665216159026716e-21
1.466228494730424 8.531783230493223e-24 3.320556704997347e-16 3.32053079462345e-16 2.5910373898385582e-21
1.5108834753276823 8.76154133990565e-24 3.513831394989966e-16 3.5137892412166846e-16 4.215377327989118e-21
1.5568984535646726 8.982626941656856e-24 3.712214678427538e-16 3.7121471511632347e-16 6.752726430399449e-21
1.6043148490894465 9.19610430318998e-24 3.916182521075563e-16 3.9160758111681376e-16 1.0670990742489454e-20
1.6531753430134553 9.403195861953842e-24 4.1263288323321277e-16 4.126162679691419e-16 1.6615264070793e-20
1.7035239163302658 9.60589255946976e-24 4.343655694278565e-16 4.343400723996867e-16 2.549702816980909e-20
1.755405889504358 9.811996549534897e-24 4.571980516401379e-16 4.571594710695141e-16 3.8580570623790933e-20
1.8088679632656115 1.0020601367038496e-23 4.811384732736907e-16 4.810808897829443e-16 5.758349074638224e-20
1.8639582606462262 1.023115159946562e-23 5.062093189292291e-16 5.061245084152128e-16 8.481051401630254e-20
1.9207263702978936 1.0445090059668826e-23 5.325337303863697e-16 5.324104235889304e-16 1.2330679743923984e-19
1.979223391128241 1.0664915468201691e-23 5.603013456790006e-16 5.601243033763327e-16 1.7704230266777322e-19
2.039501978296691 1.0893311862757781e-23 5.897303800733787e-16 5.894792641926553e-16 2.5111588072345526e-19
2.1016163906111602 1.1137349065555166e-23 6.21304803668363e-16 6.209527918895571e-16 3.5201177880585475e-19
2.1656225393682647 1.1401080276180863e-23 6.553875686924181e-16 6.548997313524563e-16 4.87837339961798e-19
2.231578038680979 1.1684490198329878e-23 6.921357477229425e-16 6.914671539260094e-16 6.685937969331288e-19
2.299542257339062 1.1989692934475967e-23 7.31844626518085e-16 7.309381607241211e-16 9.064657939638628e-19
2.369576372248914 1.2321257288394641e-23 7.749883432181624e-16 7.737722071495006e-16 1.2161360686616526e-18
2.4417434235010123 1.268451745224089e-23 8.221355161120047e-16 8.205204705741091e-16 1.6150455378955388e-18
2.5161083711144245 1.3088873099523552e-23 8.741803353052327e-16 8.720566075931059e-16 2.1237277121266497e-18
2.5927381535095444 1.3549710330718623e-23 9.325198872540837e-16 9.297538369004873e-16 2.766050353596142e-18
2.6717017477616296 1.4084158473813385e-23 9.988224856255806e-16 9.952532153608117e-16 3.569270264768825e-18
2.753070231689431 1.4717856591832107e-23 1.0755516986386284e-15 1.0709875243505848e-15 4.5641742880434e-18
2.836916847834745 1.551096233380449e-23 1.1680321120579373e-15 1.1622467865356936e-15 5.7853255222439996e-18
2.9233170693905177 1.6596025095993882e-23 1.2878030175311472e-15 1.2805333293407307e-15 7.269688190416508e-18
2.967498994190263 1.737856441081742e-23 1.3689068961742746e-15 1.3607982707196899e-15 8.10862545458473e-18
3.0123486681368425 1.8259162627111085e-23 1.4600089840302592e-15 1.4509766287092036e-15 9.032355321055995e-18
3.0578761833420214 1.9978101062909787e-23 1.6215992513931594e-15 1.6115484186663214e-15 1.005083272683835e-17
3.1040917844459814 2.2120244197477207e-23 1.8226106535569672e-15 1.811448156776791e-15 1.1162496780175716e-17
3.127460860933648 2.4273309006473354e-23 2.01507075938547e-15 2.0033117276793443e-15 1.1759031706125525e-17
3.1510058709225794 2.709735343224498e-23 2.2664467578113415e-15 2.2540649535612314e-15 1.2381804250109993e-17
3.162844764501044 2.9692684725858467e-23 2.492853616322849e-15 2.4801491527880826e-15 1.2704463534766506e-17
3.1747281389236908 3.268775623048715e-23 2.754616121798663e-15 2.7415821767307126e-15 1.3033945067950416e-17
3.1986289994194426 4.0968432682118487e-23 3.478425073725457e-15 3.464709622629999e-15 1.371545109545812e-17
3.2227097969389145 6.035608663229527e-23 5.163113897244961e-15 5.148675285581146e-15 1.443861166381468e-17
3.2348180950136065 7.867896494418036e-23 6.755817899538441e-15 6.7409931085602856e-15 1.4824790978155216e-17
3.240889293275058 9.237120279012568e-23 7.946396438837037e-15 7.931367943213872e-15 1.5028495623162608e-17
3.2469718861334385 1.0821812283421537e-22 9.327128448570926e-15 9.311889172454758e-15 1.5239276116168912e-17
3.2714166318528037 1.9241199358279119e-22 1.670849871863506e-14 1.6692387557363932e-14 1.611116127112814e-17
3.2744851364798273 1.9768187693422742e-22 1.718222146300018e-14 1.7166007315989476e-14 1.6214147010706313e-17
3.2775565192852394 2.0310060192339578e-22 1.76697674203043e-14 1.76534497507013e-14 1.6317669603000123e-17
3.283707930232385 1.9792395821012583e-22 1.725171688960797e-14 1.7235213610469883e-14 1.6503279138087652e-17
3.2898708863219004 1.8144742393649324e-22 1.584524993281041e-14 1.5828577297882193e-14 1.6672634928212337e-17
3.29141343181113 1.7755974987224119e-22 1.5513021511549388e-14 1.5496306338845596e-14 1.671517270379364e-17
3.292184975758714 1.7564917109724023e-22 1.5349695562777876e-14 1.533295909131391e-14 1.6736471463966157e-17
3.295272960557952 1.6361933567071132e-22 1.4311839355472078e-14 1.4295019952794623e-14 1.6819402677453214e-17
3.3076538914384823 1.218646857476507e-22 1.0699595642787274e-14 1.068244292152652e-14 1.7152721260752762e-17
3.310756385682612 1.1334465660759489e-22 9.960880031085613e-15 9.94364324718856e-15 1.723678389705785e-17
3.313861789986515 1.0547506934901024e-22 9.277984532225119e-15 9.260663391687195e-15 1.732114053792798e-17
3.3200813396944477 9.445410324746116e-23 8.32413252779806e-15 8.306630147693919e-15 1.7502380104143883e-17
3.345076488085796 7.492631640565849e-23 6.652882722506978e-15 6.634573183840114e-15 1.8309538666862663e-17
3.3482140837626964 7.568351891475573e-23 6.7264197991017306e-15 6.7080009381902576e-15 1.8418860911473113e-17
3.3513546224236106 7.644870065155233e-23 6.8007987982856536e-15 6.782270097673905e-15 1.8528700611747385e-17
3.3576445397418455 8.194437146423569e-23 7.303369587682216e-15 7.284611315796723e-15 1.8758271885494585e-17
3.3702598118196083 1.0210099368492921e-22 9.134037359541639e-15 9.114797501273057e-15 1.9239858268583285e-17
3.382922481734668 1.0677600388819812e-22 9.588157128742138e-15 9.568448281476097e-15 1.970884726604182e-17
3.389271646505754 1.0919494509984412e-22 9.823773615876275e-15 9.803826877616724e-15 1.99467382595508e-17
3.395632727569191 1.1181476898663863e-22 1.0078347173810518e-14 1.0058155268048864e-14 2.0191905761655398e-17
3.421196662673239 1.244205527590909e-22 1.1298989347470089e-14 1.127778155807741e-14 2.1207789392682907e-17
3.4276182099114902 1.2198593240762154e-22 1.1098687531440854e-14 1.1077252052242562e-14 2.1435479198288794e-17
3.4340518103208963 1.1115144228472795e-22 1.0131911289277821e-14 1.0110259980111216e-14 2.165130916660415e-17
3.4469541582030403 9.569911691719618e-23 8.756143511864289e-15 8.734076975977821e-15 2.206653588646831e-17
3.472904465399547 9.144230361693422e-23 8.429647766847357e-15 8.406626113992038e-15 2.302165285532186e-17
3.4990501388274233 8.490909913176386e-23 7.886309768243765e-15 7.862308499171568e-15 2.4001269072196914e-17
3.5253949054701885 6.148030948856235e-23 5.753250060130943e-15 5.728293551767033e-15 2.4956508363912414e-17
3.5519380250092896 3.9377736626978895e-23 3.712663278378861e-15 3.686743783620244e-15 2.5919494758616802e-17
3.578680990867387 3.0685935025297144e-23 2.914954502942231e-15 2.8879790683172183e-15 2.6975434625012595e-17
3.605625307711299 2.725218364215791e-23 2.608262715246875e-15 2.580173393815543e-15 2.8089321431332223e-17
3.660119384959845 2.4916550139983706e-23 2.4207647995104253e-15 2.390327377576782e-15 3.043742193364348e-17
3.715437065384467 2.3322205976827502e-23 2.3001119218835895e-15 2.267187574845675e-15 3.292434703791477e-17
3.8285932144167436 2.2897234965235056e-23 2.326974901787419e-15 2.2886649181028277e-15 3.8309983684591626e-17
3.94519561050918 2.322728366225324e-23 2.4324078597851403e-15 2.3881633386517128e-15 4.4244521133428026e-17
4.06534921144712 2.386653033403686e-23 2.5754704839620337e-15 2.5247338119560193e-15 5.0736672006014347e-17
4.189162171576248 2.4683801609977993e-23 2.7447870335952094e-15 2.686972855870423e-15 5.781417772478659e-17
4.316745939156006 2.5628272255852086e-23 2.9366030880671483e-15 2.871133979696732e-15 6.54691083704158e-17
4.448215356677963 2.6680995933624397e-23 3.1503388923719793e-15 3.0767219500272197e-15 7.361694234475979e-17
4.58368876423945 2.784198949319935e-23 3.387543020930833e-15 3.305258180193216e-15 8.228484073761749e-17
4.723288106065518 2.9125104051188675e-23 3.651584505871198e-15 3.5600409038914524e-15 9.154360197974471e-17
4.867139040275056 3.0557105238582597e-23 3.947802301807363e-15 3.84661765651589e-15 1.011846452914731e-16
4.940699165968905 3.136837885355747e-23 4.113863888876971e-15 4.0076823112986055e-15 1.0618157757836508e-16
5.015371051989984 3.219403214860699e-23 4.285957649684682e-15 4.174673010584321e-15 1.1128463910036057e-16
5.091171501069577 3.3151447501995366e-23 4.4801200941450175e-15 4.3635218409622044e-15 1.165982531828124e-16
5.129500256944802 3.363665730831215e-23 4.579913963394405e-15 4.460621781549953e-15 1.192921818444513e-16
5.168117569889187 3.41363658666303e-23 4.682945489211345e-15 4.5609115541665045e-15 1.2203393504484138e-16
5.20702561229733 3.472880168673292e-23 4.800085191062369e-15 4.675074967261784e-15 1.2501022380058555e-16
5.246226572918644 3.533072050638292e-23 4.920043812183346e-15 4.792023765654463e-15 1.2802004652888294e-16
5.265937586045735 3.563532872886887e-23 4.9811074458038886e-15 4.8515701341678015e-15 1.2953731163608886e-16
5.285722656980489 3.594242089285917e-23 5.042908990104224e-15 4.911846298739108e-15 1.3106269136511715e-16
5.305582063971359 3.62520368173343e-23 5.105460045226651e-15 4.972863952298158e-15 1.3259609292849168e-16
5.3255160863122235 3.6581076599762773e-23 5.171155729320552e-15 5.037007542694709e-15 1.3414818662584154e-16
5.365609099470188 3.7379872288131915e-23 5.323855705776297e-15 5.18649604481499e-15 1.3735966096130673e-16
5.406003951863644 3.820077344072363e-23 5.481733877137444e-15 5.341126898574567e-15 1.4060697856287882e-16
5.446702915881641 3.904486445466842e-23 5.645040217795655e-15 5.501150785398494e-15 1.438894323971617e-16
5.487708281020852 3.9946192518316464e-23 5.818832295805245e-15 5.6716134644838326e-15 1.4721883132141207e-16
5.529022354014368 4.117100988794224e-23 6.0423975951401334e-15 5.891705179970823e-15 1.5069241516931141e-16
5.570647458961463 4.2454392981098317e-23 6.277659321033261e-15 6.12345448536179e-15 1.5420483567146912e-16
5.612585937458331 4.3800585406189007e-23 6.525478330751991e-15 6.367722927707195e-15 1.5775540304479744e-16
5.654840148729818 4.5265319589684457e-23 6.794466423706272e-15 6.633107311880908e-15 1.613591118253641e-16
5.67608639626678 4.6253851311799564e-23 6.968933659555208e-15 6.80569039007785e-15 1.6324326947735953e-16
5.686739436050992 4.6761367824970377e-23 7.0586227067955245e-15 6.89443328815734e-15 1.64189418638185e-16
5.6974124697621304 4.72779992428915e-23 7.15000234402928e-15 6.984864076068461e-15 1.6513826796081716e-16
5.718818669136295 4.8339482707502983e-23 7.338000853284451e-15 7.170956826926195e-15 1.6704402635825752e-16
5.740305295436557 4.950456540303702e-23 7.543096713404655e-15 7.374123173218665e-15 1.6897354018599084e-16
5.7835210386641895 5.251035203485436e-23 8.061329680391145e-15 7.888362887185626e-15 1.7296679320551922e-16
5.827062130521658 5.594040035044632e-23 8.652560646181829e-15 8.475521319670915e-15 1.7703932651091413e-16
5.8489554468988025 5.834423441751457e-23 9.05827897297921e-15 8.879046124353432e-15 1.7923284862577779e-16
5.870931020387893 6.090946580654629e-23 9.492075881894643e-15 9.310634276410634e-15 1.8144160548401062e-16
5.892989160043636 6.364892894047484e-23 9.956258758366895e-15 9.772593209682203e-15 1.8366554868468969e-16
5.915130176081913 6.675545001834351e-23 1.048142829795143e-14 1.0295458860345035e-14 1.8596943760639662e-16
5.95966208400165 7.543340631207406e-23 1.1933141438345607e-14 1.1741955338006759e-14 1.9118610033884598e-16
6.004529249263818 8.788746827600637e-23 1.4007974804516967e-14 1.3810935233262631e-14 1.970395712543364e-16
6.027089341400364 9.653331373832846e-23 1.5443803844082685e-14 1.5243398757833804e-14 2.0040508624887916e-16
6.049734195844842 1.067141206794491e-22 1.7136716690558772e-14 1.6932749607426495e-14 2.0396708313227615e-16
6.095279466722835 1.3608922905240694e-22 2.2018453356274757e-14 2.1805788428104534e-14 2.1266492817022854e-16
6.141167624020661 1.811511476282827e-22 2.9529865877965446e-14 2.930598319909424e-14 2.2388267887120903e-16
6.164241091010745 2.0992526850438578e-22 3.4348973786191276e-14 3.4118085012947317e-14 2.308887732439548e-16
6.187401249150058 2.4257322078168764e-22 3.9840113620887935e-14 3.960202051682401e-14 2.380931040639126e-16
6.1990139391386085 2.5850373268205105e-22 4.2536217154662504e-14 4.229445615724833e-14 2.4176099741416614e-16
6.204828454712694 2.668840380475956e-22 4.3956369164181663e-14 4.37127544806161e-14 2.436146835655588e-16
6.210648424152782 2.7299753766233767e-22 4.5005449959689537e-14 4.4760247802872744e-14 2.452021568167919e-16
6.233982942956859 2.9371601353119815e-22 4.8602954235393154e-14 4.8352182601490236e-14 2.5077163390290726e-16
6.239830258556775 2.9633709053574473e-22 4.908267474592958e-14 4.88311041988614e-14 2.515705470681646e-16
6.245683058788269 2.965244838665734e-22 4.9159780331542856e-14 4.8907409197718516e-14 2.523711338243287e-16
6.257405133728602 2.9586358624659363e-22 4.91422712032611e-14 4.888848341150819e-14 2.537877917529155e-16
6.269149208991335 2.9167677849558017e-22 4.8537778348231145e-14 4.82833960084658e-14 2.5438233976535877e-16
6.280915325867298 2.813135580739629e-22 4.690110073821583e-14 4.664714172722039e-14 2.5395901099543387e-16
6.304513850009849 2.5581289242928296e-22 4.2809826172778975e-14 4.255763635178901e-14 2.5218982098997335e-16
6.32820103803542 2.24310524951023e-22 3.7678998639470467e-14 3.742955962536423e-14 2.4943901410624036e-16
6.3519772230701035 1.9545211132246523e-22 3.295480387317559e-14 3.270780441564109e-14 2.469994575345029e-16
6.375842739491607 1.711444110190587e-22 2.896474776275638e-14 2.871986994937683e-14 2.448778133795526e-16
6.399797922933955 1.5172773064077447e-22 2.5775117656011185e-14 2.553119163356074e-14 2.439260224504401e-16
6.42384311029221 1.3555883485624197e-22 2.3114908894074864e-14 2.2871702077306577e-14 2.4320681676828605e-16
6.447978639727206 1.2380236560569019e-22 2.118956135060777e-14 2.0946157985685055e-14 2.4340336492271826e-16
6.472204850670314 1.1399607644810168e-22 1.9584459561140616e-14 1.9340676367960014e-14 2.4378319318060237e-16
6.496522083828205 1.0763586149574644e-22 1.8561255259591667e-14 1.8316347040294797e-14 2.449082192968733e-16
