Dust emission spectrum from A.P. Jones, M. Kohler, N. Ysard, M. Bocchio, and L. Verstraete (2017), A&A, 602A, 46J 
inside the DustPedia framework.

lambda    nu*dP/dnu     j_nu    j_nu(carb.) j_nu(sil)
 (um)   (erg s-1 H-1) (Jy cm2 sr-1 H-1)
0.9927057738263894 2.390901746518904e-21 6.300161902585432e-14 6.300161661067994e-14 2.415174367777639e-21
1.0001793341362166 2.4311003159248713e-21 6.454315483287565e-14 6.454315192643908e-14 2.906436587532863e-21
1.0077091589558085 2.4714585711646266e-21 6.610860207285014e-14 6.61085985798852e-14 3.492964943471408e-21
1.0114953028030835 2.4916957324023897e-21 6.690033796803189e-14 6.69003341407232e-14 3.827308703588219e-21
1.0152956718711033 2.5119706283775865e-21 6.769810699392802e-14 6.769810280167292e-14 4.192255096640586e-21
1.0229392996569957 2.5526110942359953e-21 6.931128480319169e-14 6.931127977830217e-14 5.024889517599584e-21
1.0267826658714554 2.572930501311579e-21 7.012550742102063e-14 7.012550192226967e-14 5.498750950653055e-21
1.0306404723013447 2.5932839356500085e-21 7.094580087516733e-14 7.094579485987698e-14 6.015290332006187e-21
1.03451277320114 2.6136707721076134e-21 7.177218562111256e-14 7.177217904295637e-14 6.578156168852623e-21
1.0383996230291617 2.634090404743257e-21 7.260468259578195e-14 7.260467540449104e-14 7.191290923440149e-21
1.0403485208654093 2.6443123356415494e-21 7.302322984874444e-14 7.302322233071747e-14 7.51802695605862e-21
1.0423010764483396 2.654542247304149e-21 7.344331323960415e-14 7.344330538065103e-14 7.858953136722632e-21
1.0462171883269815 2.6750257337084014e-21 7.4288099518881e-14 7.428809093313991e-14 8.585741089339524e-21
1.0471985131304309 2.6801514852816458e-21 7.45002605328192e-14 7.450025175556947e-14 8.777249713452565e-21
1.048180758391296 2.6852791720846507e-21 7.471280803565235e-14 7.471279906280907e-14 8.972843268037093e-21
1.0501480137395462 2.6955403185240826e-21 7.51390639484651e-14 7.5139054571847e-14 9.376618096929257e-21
1.0521189612883777 2.7058091081522418e-21 7.556687016115721e-14 7.556686036340975e-14 9.797747461814781e-21
1.0531058218030118 2.7109395475482436e-21 7.578116541367158e-14 7.578115539861665e-14 1.001505493331017e-20
1.0540936079674168 2.7160495908100025e-21 7.599522550461991e-14 7.599521526760175e-14 1.023701814749518e-20
1.058054026499678 2.7365075808293605e-21 7.685531960085317e-14 7.685530842800627e-14 1.1172846876524111e-20
1.0590464539527713 2.741626495530736e-21 7.707130842417404e-14 7.707129700488915e-14 1.1419284888036096e-20
1.06003981227728 2.7467471626014073e-21 7.728768412241434e-14 7.728767245149788e-14 1.167091647053544e-20
1.0620293250338977 2.756993725545529e-21 7.772159767443118e-14 7.772158548425305e-14 1.2190178148647083e-20
1.0660195594769086 2.777507573562598e-21 7.859408426164352e-14 7.859407096591149e-14 1.3295732014024055e-20
1.070024785945596 2.798048696700921e-21 7.94728045704922e-14 7.947279007374304e-14 1.44967491654235e-20
1.0740450607676866 2.818616690447252e-21 8.035778450515999e-14 8.035776870413151e-14 1.5801028481792797e-20
1.07808044048254 2.8392111743996447e-21 8.124905069074906e-14 8.124903347378202e-14 1.721696705933113e-20
1.0861967418109137 2.8804466868653535e-21 8.304964305853985e-14 8.304962263787728e-14 2.0420662559033943e-20
1.0902777775684922 2.9010153970908192e-21 8.395694497658514e-14 8.395692274797638e-14 2.2228608776679597e-20
1.0943741465085532 2.9216080887764717e-21 8.487058896872366e-14 8.487056478004144e-14 2.418868223779364e-20
1.1026131145906286 2.9628644538158837e-21 8.671702506528737e-14 8.671699645083024e-14 2.8614457134601e-20
1.1109141095355224 3.0042141275660724e-21 8.858920408372632e-14 8.858917027787493e-14 3.380585138569993e-20
1.1192775983109025 3.0456235107351646e-21 9.048643145093759e-14 9.048639156373408e-14 3.98872035073069e-20
1.1277040513999907 3.086942978619505e-21 9.240451269879633e-14 9.240446569715411e-14 4.7001642198203225e-20
1.1361939428280308 3.1283486807093906e-21 9.434894658236099e-14 9.434889126866212e-14 5.531369883622401e-20
1.1447477501889525 3.16984084899652e-21 9.632004780825873e-14 9.63199827960076e-14 6.501225113731261e-20
1.1533659546722406 3.211434973448623e-21 9.831860170698096e-14 9.831852539304034e-14 7.631394065133935e-20
1.1707974979042381 3.2950553148214432e-21 1.0240329435131819e-13 1.0240318959602609e-13 1.0475529211106187e-19
1.1884924949847024 3.379097227848909e-21 1.0660229749548876e-13 1.0660215442009375e-13 1.4307539503176158e-19
1.2064549276569216 3.4641291060559224e-21 1.1093653684613934e-13 1.1093634239867251e-13 1.9444746683959573e-19
1.2246888378427687 3.549601020621007e-21 1.1539174293684712e-13 1.1539147996803976e-13 2.629688073543254e-19
1.2431983285522175 3.635444325708293e-21 1.1996853313275585e-13 1.1996817922157432e-13 3.539111815622943e-19
1.2619875648066055 3.721785195450127e-21 1.2467397678673932e-13 1.2467350276377566e-13 4.740229636792689e-19
1.3004222497298317 3.8954334268048375e-21 1.344651099087195e-13 1.344642715195072e-13 8.383892122545599e-19
1.3400274889804893 4.071075922860348e-21 1.4480792894604889e-13 1.4480647332035241e-13 1.4556256964246508e-18
1.3808389325824078 4.249365732903113e-21 1.5575305286309615e-13 1.55750570783211e-13 2.482079885140159e-18
1.4228933163050095 4.4318080114893544e-21 1.67387379601857e-13 1.6738322088665842e-13 4.158715198549586e-18
1.466228494730424 4.6215831956474826e-21 1.7987129599310211e-13 1.7986444588537793e-13 6.8501077241783215e-18
1.5108834753276823 4.818317597873128e-21 1.9323946540462883e-13 1.9322836798760591e-13 1.1097417022874871e-17
1.5568984535646726 5.0218485268023695e-21 2.0753594616717866e-13 2.075182454277888e-13 1.7700739389894547e-17
1.6043148490894465 5.2333683659150755e-21 2.2286421559874086e-13 2.2283636602673208e-13 2.784957200880168e-17
1.6531753430134553 5.454131947142181e-21 2.3933928676202475e-13 2.392961162470782e-13 4.317051494652819e-17
1.7035239163302658 5.685601635564924e-21 2.570952752888621e-13 2.570293277314248e-13 6.594755743730445e-17
1.755405889504358 5.932020035528202e-21 2.7640735387970696e-13 2.7630802641200693e-13 9.932746770005407e-17
1.8088679632656115 6.193323749027988e-21 2.973720063247746e-13 2.9722445203980913e-13 1.4755428496535433e-16
1.8639582606462262 6.4693183883115126e-21 3.2008412967456717e-13 3.1986784911044546e-13 2.1628056412165188e-16
1.9207263702978936 6.760697230694489e-21 3.4468820237139125e-13 3.443752859497841e-13 3.129164216070821e-16
1.979223391128241 7.068531971144767e-21 3.7135859043759203e-13 3.70911546305336e-13 4.47044132256033e-16
2.039501978296691 7.393700217165126e-21 4.002721756387454e-13 3.996413105953286e-13 6.308650434168425e-16
2.1016163906111602 7.739284089880256e-21 4.3174137343580234e-13 4.30861614353968e-13 8.797590818341263e-16
2.1656225393682647 8.10661181297236e-21 4.660060694017787e-13 4.64793296681389e-13 1.2127727203897644e-15
2.231578038680979 8.494496432460402e-21 5.031751099120449e-13 5.015219446537762e-13 1.6531652582686302e-15
2.299542257339062 8.902917657063847e-21 5.434294675654203e-13 5.412004953311329e-13 2.228972234287382e-15
2.369576372248914 9.332666184993385e-21 5.870105083617285e-13 5.84036910286374e-13 2.973598075354481e-15
2.4417434235010123 9.78476439345192e-21 6.341906465841794e-13 6.302644058348244e-13 3.9262407493551294e-15
2.5161083711144245 1.0261930089893325e-20 6.853743189846e-13 6.80241857055498e-13 5.1324619291020525e-15
2.5927381535095444 1.076908877467065e-20 7.411515969620352e-13 7.345071078601613e-13 6.6444891018738414e-15
2.6717017477616296 1.1310403667547625e-20 8.021129218087983e-13 7.935918770133883e-13 8.521044795409889e-15
2.753070231689431 1.1892301969760125e-20 8.690657844429227e-13 8.582384429091123e-13 1.0827341533810347e-14
2.836916847834745 1.2533303702262961e-20 9.438035422543049e-13 9.30168231656275e-13 1.3635310598030002e-14
2.9233170693905177 1.3274772237237572e-20 1.0300835076635236e-12 1.0130638613947643e-12 1.7019646268759313e-14
2.967498994190263 1.372272706991441e-20 1.0809371405057072e-12 1.0620217860307965e-12 1.8915354474910478e-14
3.0123486681368425 1.4201645432274543e-20 1.135568500186675e-12 1.1145736428726589e-12 2.0994857314016083e-14
3.0578761833420214 1.4961330822008742e-20 1.214393839755717e-12 1.1911141306940033e-12 2.3279709061713805e-14
3.1040917844459814 1.5845169081710918e-20 1.305572113848159e-12 1.2798101931957226e-12 2.5761920652436096e-14
3.127460860933648 1.6642085781721832e-20 1.3815578430196326e-12 1.3544685490496993e-12 2.7089293969933348e-14
3.1510058709225794 1.7647374731866552e-20 1.4760421287979283e-12 1.4475704479407194e-12 2.847168085720892e-14
3.162844764501044 1.854406132793791e-20 1.5568693356449665e-12 1.5276827316544452e-12 2.9186603990520794e-14
3.1747281389236908 1.955689357124548e-20 1.6480707315544787e-12 1.618154994733342e-12 2.991573682113691e-14
3.1986289994194426 2.2288587496236823e-20 1.8924126828672433e-12 1.860991564893766e-12 3.1421117973476945e-14
3.2227097969389145 2.8569384129506623e-20 2.443945465408245e-12 2.4109304246466307e-12 3.301504076161482e-14
3.2348180950136065 3.444689122317705e-20 2.9578035816065536e-12 2.923938242303475e-12 3.3865339303078654e-14
3.240889293275058 3.883309895372603e-20 3.340686165319499e-12 3.306372314313034e-12 3.431385100646476e-14
3.2469718861334385 4.3914911848970657e-20 3.784948517823627e-12 3.750170590575692e-12 3.47779272479355e-14
3.2714166318528037 7.056790005165608e-20 6.127911496756702e-12 6.091216776885921e-12 3.669471987078001e-14
3.2744851364798273 7.223594083454109e-20 6.278643000846384e-12 6.241722670952017e-12 3.6920329894366905e-14
3.2775565192852394 7.394846039097336e-20 6.433521534765902e-12 6.396374492888098e-12 3.714704187780452e-14
3.283707930232385 7.231799463119548e-20 6.3034792790322515e-12 6.265927367014741e-12 3.755191201751083e-14
3.2898708863219004 6.711407017849937e-20 5.860866982375594e-12 5.822947134562258e-12 3.7919847813334393e-14
3.29141343181113 6.588432813749753e-20 5.756175036326531e-12 5.718162811185162e-12 3.801222514136845e-14
3.292184975758714 6.527969840155448e-20 5.704686737969825e-12 5.666628265098801e-12 3.8058472871023484e-14
3.295272960557952 6.150696322166059e-20 5.3800351484308685e-12 5.341796878604587e-12 3.823826982628141e-14
3.3076538914384823 4.8340349642242114e-20 4.244233604097388e-12 4.2052734431374975e-12 3.896016095988999e-14
3.310756385682612 4.5633473005084653e-20 4.010330646455673e-12 3.971188580460942e-12 3.914206599472998e-14
3.313861789986515 4.3125370892918935e-20 3.793470121048353e-12 3.7541455763838736e-12 3.9324544664480177e-14
3.3200813396944477 3.962585958197255e-20 3.492181867674681e-12 3.4524645884600362e-12 3.9717279214645686e-14
3.345076488085796 3.3539663894236336e-20 2.9780651331179647e-12 2.9365970313180355e-12 4.1468101799929286e-14
3.3482140837626964 3.379439910796721e-20 3.003498232086796e-12 2.9617929272686435e-12 4.170530481815272e-14
3.3513546224236106 3.4051411189531526e-20 3.0291789700024733e-12 2.9872354217119053e-12 4.194354829056705e-14
3.3576445397418455 3.582669719705749e-20 3.1930882629356426e-12 3.1506465117870512e-12 4.244175114859151e-14
3.3702598118196083 4.223909041233904e-20 3.778743143773247e-12 3.735256440497303e-12 4.348670327594406e-14
3.382922481734668 4.3788157029810794e-20 3.932041982199205e-12 3.8875404069293534e-12 4.4501575269852447e-14
3.389271646505754 4.4586414857430413e-20 4.01123738376754e-12 3.966221563782036e-12 4.501581998550345e-14
3.395632727569191 4.5463746113154073e-20 4.097843436094726e-12 4.052297655908361e-12 4.554578018636544e-14
3.421196662673239 4.971079213077847e-20 4.514380448281091e-12 4.466641753965685e-12 4.7738694315404874e-14
3.4276182099114902 4.896411696412298e-20 4.454918888694496e-12 4.406691687852926e-12 4.822720084157002e-14
3.4340518103208963 4.553397933351624e-20 4.150609562700963e-12 4.101920747222305e-12 4.8688815478659e-14
3.4469541582030403 4.061803759740754e-20 3.716412207658435e-12 3.666838249030648e-12 4.957395862778815e-14
3.472904465399547 3.929625010548938e-20 3.6225415791676188e-12 3.570927336326016e-12 5.161424284160313e-14
3.4990501388274233 3.72734599931197e-20 3.461938174421386e-12 3.408238042881899e-12 5.3700131539486735e-14
3.5253949054701885 2.997567720964147e-20 2.805086183584017e-12 2.749362765693139e-12 5.5723417890877614e-14
3.5519380250092896 2.3031638636316366e-20 2.171499083757875e-12 2.1137446230959184e-12 5.77544606619565e-14
3.578680990867387 2.0360655882046443e-20 1.934123418344616e-12 1.8741432272673e-12 5.99801910773166e-14
3.605625307711299 1.9371652243793934e-20 1.8540297153309273e-12 1.7917069807503291e-12 6.232273458059764e-14
3.660119384959845 1.8834763974322373e-20 1.829889506371145e-12 1.762652484671883e-12 6.723702169926226e-14
3.715437065384467 1.851690832258512e-20 1.8261978147144853e-12 1.753790751292395e-12 7.240706342209088e-14
3.8285932144167436 1.8758465688476604e-20 1.906364629589563e-12 1.82288318825182e-12 8.348144133774293e-14
3.94519561050918 1.922199922707535e-20 2.0129664183119677e-12 1.9174651788496e-12 9.550123946236758e-14
4.06534921144712 1.9763480720686938e-20 2.132704693312347e-12 2.024266291369533e-12 1.0843840194281383e-13
4.189162171576248 2.0339155609130352e-20 2.2616714990793525e-12 2.13936903964499e-12 1.2230245943436349e-13
4.316745939156006 2.0929178895820026e-20 2.3981597652233716e-12 2.2611351316167464e-12 1.3702463360662502e-13
4.448215356677963 2.152286520747958e-20 2.5412964158865255e-12 2.38891562192023e-12 1.5238079396629575e-13
4.58368876423945 2.211690368961757e-20 2.6909701534318785e-12 2.522596973628005e-12 1.6837317980387315e-13
4.723288106065518 2.2712540175896734e-20 2.8476038969514585e-12 2.6625178821297882e-12 1.8508601482167062e-13
4.867139040275056 2.3310668934381174e-20 3.0116043963360733e-12 2.8095607494947647e-12 2.0204364684130877e-13
4.940699165968905 2.3621998703741338e-20 3.0979505795977474e-12 2.8872881559381318e-12 2.1066242365961722e-13
5.015371051989984 2.39244935078661e-20 3.1850426654092478e-12 2.9656980580698786e-12 2.1934460733936833e-13
5.091171501069577 2.4255684573089678e-20 3.277937708348985e-12 3.0496547928803963e-12 2.2828291546858807e-13
5.129500256944802 2.4417449684801594e-20 3.3246412607791495e-12 3.0918763975953063e-12 2.327648631838429e-13
5.168117569889187 2.458008821640089e-20 3.3719820582873924e-12 3.1346806306017027e-12 2.3730142768568957e-13
5.20702561229733 2.4770120048136512e-20 3.4236334295783897e-12 3.18136228563732e-12 2.422711439410704e-13
5.246226572918644 2.4958428068765032e-20 3.475631343531924e-12 3.2283696331622084e-12 2.472617103697151e-13
5.265937586045735 2.5051938007146418e-20 3.501760735495127e-12 3.251996669190977e-12 2.497640663041498e-13
5.285722656980489 2.5145020415673176e-20 3.527977425019394e-12 3.2757066900924754e-12 2.5227073492691836e-13
5.305582063971359 2.5237677063593265e-20 3.554281723031284e-12 3.2995003113337105e-12 2.5478141169757413e-13
5.3255160863122235 2.5335257610714248e-20 3.5814299283992846e-12 3.324112721667696e-12 2.573172067315885e-13
5.365609099470188 2.557056683644718e-20 3.641906721959988e-12 3.379341898287857e-12 2.6256482367213117e-13
5.406003951863644 2.580642478465062e-20 3.703169864069091e-12 3.435337224088295e-12 2.6783263998079684e-13
5.446702915881641 2.6042996472697085e-20 3.765252217765291e-12 3.492134003629099e-12 2.7311821413619155e-13
5.487708281020852 2.6290582888280336e-20 3.829663933946257e-12 3.5512206333521923e-12 2.7844330059406523e-13
5.529022354014368 2.6629281482072058e-20 3.9082040208760124e-12 3.624210167667764e-12 2.839938532082486e-13
5.570647458961463 2.6975872237989482e-20 3.988876625163704e-12 3.699312158202094e-12 2.895644669616105e-13
5.612585937458331 2.7331166589485613e-20 4.071839078859904e-12 3.776686424239237e-12 2.951526546206675e-13
5.654840148729818 2.771123499930854e-20 4.159543276595886e-12 3.858757694565234e-12 3.0078558203065205e-13
5.67608639626678 2.79725049228742e-20 4.214536207698713e-12 3.9108001799047084e-12 3.0373602779400366e-13
5.686739436050992 2.8105535009602364e-20 4.242527043862013e-12 3.937313674736448e-12 3.052133691255664e-13
5.6974124697621304 2.824021926879195e-20 4.270858268143034e-12 3.964166197946843e-12 3.066920701961919e-13
5.718818669136295 2.8514729278446845e-20 4.3285756498991426e-12 4.0189222568295974e-12 3.09653393069544e-13
5.740305295436557 2.881532473406565e-20 4.390641136380606e-12 4.077997843510297e-12 3.126432928703098e-13
5.7835210386641895 2.959702992341399e-20 4.54370246108185e-12 4.224881647168858e-12 3.1882081391299277e-13
5.827062130521658 3.047499769109899e-20 4.713708948498462e-12 4.388628329011382e-12 3.2508061948707964e-13
5.8489554468988025 3.110073893718949e-20 4.828569135775462e-12 4.500097167761274e-12 3.284719680141895e-13
5.870931020387893 3.176113274442764e-20 4.949626106762444e-12 4.6177522475519984e-12 3.3187385921044623e-13
5.892989160043636 3.2458943909264646e-20 5.077377576709697e-12 4.742091597460475e-12 3.3528597924922163e-13
5.915130176081913 3.3248442468392684e-20 5.2204151968904485e-12 4.88158873164393e-12 3.388264652465199e-13
5.95966208400165 3.5473220427822694e-20 5.611664345204882e-12 5.26470513933085e-12 3.469592058740328e-13
6.004529249263818 3.8656804350651797e-20 6.161328252925734e-12 5.805180686620753e-12 3.561475663049791e-13
6.027089341400364 4.086989605592394e-20 6.538537147151987e-12 6.177047937551076e-12 3.61489209600912e-13
6.049734195844842 4.3458386323096825e-20 6.978777030687604e-12 6.611622603893731e-12 3.671544267938739e-13
6.095279466722835 5.0923816659830906e-20 8.239180202984208e-12 7.857989463948243e-12 3.811907390359643e-13
6.141167624020661 6.22967525643903e-20 1.0155137143453744e-11 9.755591529718163e-12 3.9954561373557917e-13
6.164241091010745 6.954111453213561e-20 1.1378648874168034e-11 1.096751699624977e-11 4.1113187791826206e-13
6.187401249150058 7.767645284021262e-20 1.275754469866541e-11 1.2334528226448658e-11 4.2301647221675265e-13
6.1990139391386085 8.162535963196548e-20 1.3431272293863415e-11 1.3002210979221314e-11 4.290613146420992e-13
6.204828454712694 8.36956633724294e-20 1.3784853914655943e-11 1.3352740768622795e-11 4.321131460331505e-13
6.210648424152782 8.519078753310374e-20 1.404426486106209e-11 1.3609566338542279e-11 4.346985225198121e-13
6.233982942956859 9.019030641449962e-20 1.492433212081029e-11 1.4480682382805745e-11 4.436497380045432e-13
6.239830258556775 9.078345093045361e-20 1.5036574011969772e-11 1.4591729374517782e-11 4.448446374519913e-13
6.245683058788269 9.076372310811456e-20 1.5047407323287395e-11 1.4601366360029502e-11 4.4604096325789377e-13
6.257405133728602 9.046228642074369e-20 1.5025580773059578e-11 1.4577473436870705e-11 4.4810733618887054e-13
6.269149208991335 8.927274588374128e-20 1.485583039758052e-11 1.4407097282854058e-11 4.4873311472645913e-13
6.280915325867298 8.65344813645922e-20 1.4427183871254878e-11 1.397960460239858e-11 4.4757926885629577e-13
6.304513850009849 7.988398216219569e-20 1.3368440338863497e-11 1.292477634393731e-11 4.436639949261818e-13
6.32820103803542 7.17961791097969e-20 1.2060103446273344e-11 1.1622064888801796e-11 4.3803855747154825e-13
6.3519772230701035 6.442314381599336e-20 1.0862262141782362e-11 1.0429302270964895e-11 4.329598708174664e-13
6.375842739491607 5.820198831322954e-20 9.850195520529476e-12 9.421752149454902e-12 4.2844337107457297e-13
6.399797922933955 5.3267078455681705e-20 9.048874642683224e-12 8.622924156607202e-12 4.2595048607602195e-13
6.42384311029221 4.914443615201569e-20 8.379897669592684e-12 7.956035592806597e-12 4.238620767860861e-13
6.447978639727206 4.6148494743909165e-20 7.898608042182021e-12 7.475259990781187e-12 4.2334805140083496e-13
6.472204850670314 4.3639362386890026e-20 7.497217049650842e-12 7.074071756847028e-12 4.231452928038139e-13
6.496522083828205 4.1998019411223285e-20 7.242344213687617e-12 6.8181293126296324e-12 4.2421490105798533e-13
