Dust emission spectrum from A.P. Jones, M. Kohler, N. Ysard, M. Bocchio, and L. Verstraete (2017), A&A, 602A, 46J 
inside the DustPedia framework.

lambda    nu*dP/dnu     j_nu    j_nu(carb.) j_nu(sil)
 (um)   (erg s-1 H-1) (Jy cm2 sr-1 H-1)
0.9927057738263894 7.543271970422159e-23 1.987695009135687e-15 1.9876949584413876e-15 5.0694299098162037e-23
1.0001793341362166 7.670264653001689e-23 2.036374541457302e-15 2.0363744804353837e-15 6.102191793008451e-23
1.0077091589558085 7.797654006481948e-23 2.0857804853810076e-15 2.085780412024579e-15 7.335642850832672e-23
1.0114953028030835 7.861489826754494e-23 2.11075662049248e-15 2.1107565401031217e-15 8.038935827276848e-23
1.0152956718711033 7.925415772134477e-23 2.1359152804261023e-15 2.1359151923587492e-15 8.80673529924521e-23
1.0229392996569957 8.053464237655891e-23 2.186764582700979e-15 2.1867644771113843e-15 1.0558959411595039e-22
1.0267826658714554 8.117440076442959e-23 2.2124173351363943e-15 2.2124172195720937e-15 1.1556430042952023e-22
1.0306404723013447 8.181491381408602e-23 2.2382526279823813e-15 2.238252501543038e-15 1.2643934280360684e-22
1.03451277320114 8.245615427437061e-23 2.264270800033094e-15 2.264270661741197e-15 1.3829189669822324e-22
1.0383996230291617 8.309809543466247e-23 2.2904721996190286e-15 2.2904720484136527e-15 1.51205375621856e-22
1.0403485208654093 8.341932058171234e-23 2.303641721350052e-15 2.3036415632622027e-15 1.580878497331254e-22
1.0423010764483396 8.374071113977145e-23 2.316857185223307e-15 2.3168570199534052e-15 1.6526990246278771e-22
1.0462171883269815 8.438397580473349e-23 2.343426126107027e-15 2.3434259455242125e-15 1.8058281373112626e-22
1.0471985131304309 8.454489042819709e-23 2.3500971486906232e-15 2.3500969640723846e-15 1.846182383528115e-22
1.048180758391296 8.470584366139694e-23 2.3567796982757915e-15 2.356779509535856e-15 1.8873993561088835e-22
1.0501480137395462 8.502786442950125e-23 2.3701794029435653e-15 2.370179205694366e-15 1.9724919880111886e-22
1.0521189612883777 8.535003507782588e-23 2.3836252895832125e-15 2.3836250834581676e-15 2.061250454254451e-22
1.0531058218030118 8.551095722621243e-23 2.390359460468817e-15 2.3903592497634086e-15 2.107054076707417e-22
1.0540936079674168 8.56712000545517e-23 2.3970851597946774e-15 2.3970849444105586e-15 2.1538411888002843e-22
1.058054026499678 8.631249827984222e-23 2.4241024170066094e-15 2.4241021818939683e-15 2.3511264137119808e-22
1.0590464539527713 8.64729027724129e-23 2.4308853779938727e-15 2.4308851376853654e-15 2.403085073676574e-22
1.06003981227728 8.663333853162468e-23 2.4376798105294107e-15 2.4376795649152786e-15 2.4561413197952156e-22
1.0620293250338977 8.695430245465333e-23 2.4513031164422086e-15 2.4513028598786973e-15 2.5656351176473706e-22
1.0660195594769086 8.759659029649597e-23 2.4786876782355273e-15 2.4786873983563717e-15 2.7987915538548607e-22
1.070024785945596 8.82393401873991e-23 2.506256537425773e-15 2.5062562322127017e-15 3.052130707399998e-22
1.0740450607676866 8.888253118775396e-23 2.5340101446448737e-15 2.534009811914242e-15 3.327306313967207e-22
1.07808044048254 8.952614305001293e-23 2.561948966813231e-15 2.5619486042032907e-15 3.6260994127655007e-22
1.0861967418109137 9.081354441933869e-23 2.6183551611276478e-15 2.6183547308921894e-15 4.30235458271868e-22
1.0902777775684922 9.145500605450948e-23 2.6467570350890283e-15 2.646756566678862e-15 4.684101659167105e-22
1.0943741465085532 9.20967747707708e-23 2.6753442896540476e-15 2.675343779848519e-15 5.098055287802983e-22
1.1026131145906286 9.338116868147915e-23 2.7330771526684427e-15 2.73307654936428e-15 6.033041632036416e-22
1.1109141095355224 9.466660447290587e-23 2.7915583868045077e-15 2.79155767378144e-15 7.1302306814134715e-22
1.1192775983109025 9.595193967803181e-23 2.8507622763146266e-15 2.850761434709256e-15 8.416053706118618e-22
1.1277040513999907 9.723232742443535e-23 2.9105512788716162e-15 2.9105502867763336e-15 9.920952822476722e-22
1.1361939428280308 9.851331667286046e-23 2.9710970870137326e-15 2.9710959190196877e-15 1.1679940441387154e-21
1.1447477501889525 9.979484097470032e-23 3.032405824646898e-15 3.032404451323695e-15 1.3733232026819019e-21
1.1533659546722406 1.0107734073540237e-22 3.0944991530353386e-15 3.094497540337367e-15 1.612697970992181e-21
1.1707974979042381 1.0364916535479956e-22 3.221195086271611e-15 3.2211928707598936e-15 2.2155117172525163e-21
1.1884924949847024 1.0622434580096654e-22 3.3511197070665146e-15 3.351116678625842e-15 3.0284406722154402e-21
1.2064549276569216 1.0882062209230302e-22 3.484911382563146e-15 3.4849072633034223e-15 4.119259724333257e-21
1.2246888378427687 1.1141953267864678e-22 3.6220673811809735e-15 3.622061805599294e-15 5.575581679260808e-21
1.2431983285522175 1.1401840024545953e-22 3.762571779978016e-15 3.7625642697120186e-15 7.510265996985783e-21
1.2619875648066055 1.166203475136516e-22 3.906599047294024e-15 3.906588979341206e-15 1.0067952818217307e-20
1.3004222497298317 1.2181392785486243e-22 4.204852554970266e-15 4.204834716189527e-15 1.7838780738446125e-20
1.3400274889804893 1.2701150640492258e-22 4.517791744323993e-15 4.517760715372787e-15 3.1028951206076874e-20
1.3808389325824078 1.3222810189734044e-22 4.846589312220283e-15 4.846536303162697e-15 5.300905758599486e-20
1.4228933163050095 1.3750633624329664e-22 5.1935519866263864e-15 5.1934629991945e-15 8.898743188868662e-20
1.466228494730424 1.4294272132668603e-22 5.5633083835916336e-15 5.563161518117935e-15 1.4686547370017524e-19
1.5108834753276823 1.485197987811174e-22 5.956412364999499e-15 5.956173960589363e-15 2.384044101349114e-19
1.5568984535646726 1.542278994790806e-22 6.373715350619766e-15 6.373334312000119e-15 3.810386196470564e-19
1.6043148490894465 1.601016471086158e-22 6.8179660792307176e-15 6.817365331977772e-15 6.007472529449809e-19
1.6531753430134553 1.66178287413699e-22 7.292268168497364e-15 7.291334975810745e-15 9.331926866205724e-19
1.7035239163302658 1.7250362034526777e-22 7.800382194132627e-15 7.798953597935322e-15 1.428596197305986e-18
1.755405889504358 1.7921311042049774e-22 8.350582320221499e-15 8.348425952476837e-15 2.156367744660665e-18
1.8088679632656115 1.8630596631470911e-22 8.945467932622774e-15 8.94225749476787e-15 3.2104378549011415e-18
1.8639582606462262 1.937800795014297e-22 9.587706829756496e-15 9.582990486343123e-15 4.7163434133720105e-18
1.9207263702978936 2.0166272123741017e-22 1.0281596482838714e-14 1.027475722873677e-14 6.839254101944537e-18
1.979223391128241 2.0999462651010256e-22 1.1032461735846221e-14 1.1022668175561926e-14 9.793560284295957e-18
2.039501978296691 2.1881289430632212e-22 1.1845856700879863e-14 1.1832003362884117e-14 1.3853337995748574e-17
2.1016163906111602 2.282248447613256e-22 1.273168251547567e-14 1.2712317045860165e-14 1.9365469615504927e-17
2.1656225393682647 2.3828407974805165e-22 1.3697686526289346e-14 1.3670925101245787e-14 2.6761425043560103e-17
2.231578038680979 2.4896773537256467e-22 1.4747709720840726e-14 1.471113916609848e-14 3.6570554742248266e-17
2.299542257339062 2.6028885204927393e-22 1.588789627523082e-14 1.5838462239508556e-14 4.9434035722259644e-17
2.369576372248914 2.722893250788034e-22 1.7126584404464443e-14 1.7060464635065464e-14 6.611976939897236e-17
2.4417434235010123 2.8501914356350743e-22 1.847325777883566e-14 1.8385723919231193e-14 8.753385960446136e-17
2.5161083711144245 2.985848647211469e-22 1.9941901428359092e-14 1.98271657790371e-14 1.1473564932200224e-16
2.5927381535095444 3.131696716282957e-22 2.155300296096649e-14 2.1404055799995063e-14 1.4894716097142908e-16
2.6717017477616296 3.2894445758349066e-22 2.3328132906711135e-14 2.313658078960582e-14 1.9155211710531535e-16
2.753070231689431 3.461676038223785e-22 2.5297240259254058e-14 2.5053141234253774e-14 2.4409902500028753e-16
2.836916847834745 3.6552508402125146e-22 2.7525373778325548e-14 2.7217064171492395e-14 3.083096068331531e-16
2.9233170693905177 3.885405823718844e-22 3.014961302586876e-14 2.9763616646277815e-14 3.859963795909383e-16
2.967498994190263 4.029009018624474e-22 3.173644324102124e-14 3.130675299032641e-14 4.2969025069482887e-16
3.0123486681368425 4.1841425778918406e-22 3.345654934424639e-14 3.297884954581187e-14 4.776997984345203e-16
3.0578761833420214 4.440346191157219e-22 3.6041774124743944e-14 3.5511243594374565e-14 5.305305303693731e-16
3.1040917844459814 4.7433078903562335e-22 3.9082766975285344e-14 3.849472166586035e-14 5.880453094249872e-16
3.127460860933648 5.023352985511769e-22 4.170182035122183e-14 4.108297101666565e-14 6.188493345561736e-16
3.1510058709225794 5.380145069661286e-22 4.500001219742091e-14 4.434904731181686e-14 6.509648856040579e-16
3.162844764501044 5.700629494586125e-22 4.7859716903672e-14 4.7192129577286215e-14 6.675873263857818e-16
3.1747281389236908 6.064745532344406e-22 5.110796134248259e-14 5.0423411803642056e-14 6.845495388405368e-16
3.1986289994194426 7.053410971282746e-22 5.988699096245592e-14 5.916739225120168e-14 7.195987112542358e-16
3.2227097969389145 9.337256741156357e-22 7.987482743225569e-14 7.911808229862312e-14 7.567451336325576e-16
3.2348180950136065 1.1480265104214088e-21 9.857600508283359e-14 9.779943472696396e-14 7.765703558696319e-16
3.240889293275058 1.30801241816887e-21 1.125240865955556e-13 1.1173705890248308e-13 7.870276930724711e-16
3.2469718861334385 1.4933296799851701e-21 1.2870744175282654e-13 1.279095937266221e-13 7.978480262044208e-16
3.2714166318528037 2.4690457903812673e-21 2.1440476581874752e-13 2.1356219677128e-13 8.425690474675263e-16
3.2744851364798273 2.530173473742916e-21 2.1991900137676195e-13 2.1907116021091123e-13 8.47841165850762e-16
3.2775565192852394 2.5929605023608468e-21 2.25587755884803e-13 2.247346160804484e-13 8.531398043545374e-16
3.283707930232385 2.5333771506253267e-21 2.2081766033998956e-13 2.1995504102709186e-13 8.62619312897707e-16
3.2898708863219004 2.3429544383438474e-21 2.0460306270172997e-13 2.0373181297311757e-13 8.712497286123575e-16
3.29141343181113 2.297973247675223e-21 2.007690844901548e-13 1.9989566752857623e-13 8.734169615785406e-16
3.292184975758714 2.2758599013305565e-21 1.9888369760434704e-13 1.980091955800876e-13 8.745020242594463e-16
3.295272960557952 2.1374747827511962e-21 1.8696565165545823e-13 1.8608692827614808e-13 8.787233793101321e-16
3.3076538914384823 1.6552162818010933e-21 1.453263085033717e-13 1.444306283616582e-13 8.956801417135222e-16
3.310756385682612 1.5562716104788934e-21 1.3676723077853441e-13 1.358672761854868e-13 8.999545930475765e-16
3.313861789986515 1.4646706131323128e-21 1.2883794604088404e-13 1.2793370286470438e-13 9.042431761796607e-16
3.3200813396944477 1.3367426545265064e-21 1.1780560747781284e-13 1.1689214165065382e-13 9.13465827159009e-16
3.345076488085796 1.1131854766996122e-21 9.884233978331873e-14 9.788777864074752e-14 9.545611425712028e-16
3.3482140837626964 1.1223930007368109e-21 9.975337577832092e-14 9.879324783586117e-14 9.60127942459749e-16
3.3513546224236106 1.131687222310069e-21 1.0067374639369059e-13 9.970802637733394e-14 9.65720016356624e-16
3.3576445397418455 1.1964155938604896e-21 1.0663167105068424e-13 1.0565425998995789e-13 9.774110607263808e-16
3.3702598118196083 1.431146145545632e-21 1.2803149008242565e-13 1.270295562480024e-13 1.00193383442327e-15
3.382922481734668 1.487379612577326e-21 1.3356211991611433e-13 1.3253634037556788e-13 1.0257795405464248e-15
3.389271646505754 1.5163940351627051e-21 1.3642308900180775e-13 1.353852209979387e-13 1.0378680038690302e-15
3.395632727569191 1.5481515129711922e-21 1.3954157010553907e-13 1.3849124414854185e-13 1.050325956997224e-15
3.421196662673239 1.7016252195352136e-21 1.545294953490714e-13 1.5342758833695287e-13 1.1019070121185644e-15
3.4276182099114902 1.6741413804652652e-21 1.523189739875129e-13 1.5120554486498355e-13 1.1134291225293452e-15
3.4340518103208963 1.5485276093446882e-21 1.4115466290295326e-13 1.4003033056194757e-13 1.1243323410056817e-15
3.4469541582030403 1.3687722966954478e-21 1.2523800690135535e-13 1.2409273644024986e-13 1.145270461105508e-15
3.472904465399547 1.320438203128388e-21 1.217251590345962e-13 1.205316724143417e-13 1.193486620254548e-15
3.4990501388274233 1.2461648043704428e-21 1.1574309196588515e-13 1.1450024106971167e-13 1.242850896173506e-15
3.5253949054701885 9.775307006814267e-22 9.147609387883015e-14 9.018524720214129e-14 1.2908466766888745e-15
3.5519380250092896 7.223611367148862e-22 6.810659768017061e-14 6.676747990155921e-14 1.339117778611411e-15
3.578680990867387 6.2365761646415265e-22 5.924321927644427e-14 5.78511906666275e-14 1.3920286098167554e-15
3.605625307711299 5.865088491550297e-22 5.61338197151634e-14 5.468604808042546e-14 1.4477716347379548e-15
3.660119384959845 5.650705121384336e-22 5.489936597727341e-14 5.3334403961385796e-14 1.56496201588762e-15
3.715437065384467 5.518323692106764e-22 5.442350575944112e-14 5.2734889656082144e-14 1.6886161033589592e-15
3.8285932144167436 5.576758603074743e-22 5.667486629885653e-14 5.4720101109629635e-14 1.9547651892268746e-15
3.94519561050918 5.719980137882926e-22 5.990078240535688e-14 5.765521941522332e-14 2.2455629901335703e-15
4.06534921144712 5.895537259912433e-22 6.361956257357097e-14 6.105876602703555e-14 2.5607965465354183e-15
4.189162171576248 6.087712456499614e-22 6.769408731636246e-14 6.479292581291358e-14 2.9011615034488665e-15
4.316745939156006 6.28974290023465e-22 7.20707125302208e-14 6.880520038259744e-14 3.2655121476233586e-15
4.448215356677963 6.498375116109399e-22 7.672908431316099e-14 7.308015129666897e-14 3.648933016492018e-15
4.58368876423945 6.712840864744278e-22 8.167533152592503e-14 7.762336024638326e-14 4.0519712795417665e-15
4.723288106065518 6.934023869812177e-22 8.693590959141588e-14 8.245870104053306e-14 4.4772085508828035e-15
4.867139040275056 7.163318532618293e-22 9.254595672872575e-14 8.763235224756958e-14 4.9136044811561924e-15
4.940699165968905 7.285402942421908e-22 9.554576033612429e-14 9.040844541767225e-14 5.13731491845204e-15
5.015371051989984 7.406213461790989e-22 9.859814109409166e-14 9.323411491599329e-14 5.364026178098389e-15
5.091171501069577 7.539810104890557e-22 1.0189375518195603e-13 9.62951776163919e-14 5.598577565564151e-15
5.129500256944802 7.606029543892806e-22 1.035624931299483e-13 9.784573420818782e-14 5.716758921760498e-15
5.168117569889187 7.673119809041913e-22 1.0526252834973524e-13 9.942586654889168e-14 5.83666180084352e-15
5.20702561229733 7.750803838879946e-22 1.071287142626918e-13 1.0116128417738169e-13 5.967430085310136e-15
5.246226572918644 7.828495320135089e-22 1.0901713694624046e-13 1.0291798791749646e-13 6.099149028743994e-15
5.265937586045735 7.86734703358506e-22 1.0996980324182237e-13 1.0380445401670758e-13 6.165349225114791e-15
5.285722656980489 7.906204629665461e-22 1.1092817182068224e-13 1.0469640379955547e-13 6.231768021126752e-15
5.305582063971359 7.945069666167826e-22 1.1189229433245621e-13 1.0559389541183185e-13 6.2983989206243536e-15
5.3255160863122235 7.98596665420292e-22 1.1289081967126176e-13 1.0652506268534386e-13 6.365756985917911e-15
5.365609099470188 8.083534891568487e-22 1.1513033812312527e-13 1.0862522027859166e-13 6.505117844533638e-15
5.406003951863644 8.182141017169857e-22 1.1741207195957292e-13 1.1076661446773946e-13 6.645457491833441e-15
5.446702915881641 8.281862321002091e-22 1.1973775945510656e-13 1.1295103515127477e-13 6.786724303831774e-15
5.487708281020852 8.386661510442566e-22 1.2216577794885848e-13 1.152363148508755e-13 6.9294630979829645e-15
5.529022354014368 8.527420090588769e-22 1.2515132076761052e-13 1.1807304391954076e-13 7.078276848069784e-15
5.570647458961463 8.672406637878312e-22 1.2823741088538602e-13 1.210092943204282e-13 7.228116564957791e-15
5.612585937458331 8.821974437920633e-22 1.3143112699348715e-13 1.2405219715849747e-13 7.378929834989696e-15
5.654840148729818 8.982400152568037e-22 1.3482864319558665e-13 1.272972410781925e-13 7.531402117394164e-15
5.67608639626678 9.090809871012553e-22 1.369685963567631e-13 1.2935741245345278e-13 7.611183903310307e-15
5.686739436050992 9.14611528283247e-22 1.3806049740892441e-13 1.3040931547481338e-13 7.651181934111055e-15
5.6974124697621304 9.202178955993423e-22 1.3916748204065048e-13 1.3147623174328382e-13 7.691250297366627e-15
5.718818669136295 9.316657628240534e-22 1.4142816140474914e-13 1.3365656668725505e-13 7.771594717494087e-15
5.740305295436557 9.441787866755703e-22 1.4386616354785664e-13 1.3601335361461487e-13 7.852809933241756e-15
5.7835210386641895 9.7643655694635e-22 1.4990143262238714e-13 1.418807207430603e-13 8.020711879326819e-15
5.827062130521658 1.012743436186967e-21 1.5664571482746631e-13 1.4845439752565727e-13 8.191317301809059e-15
5.8489554468988025 1.0383477619497612e-21 1.6120948012450105e-13 1.529259987642458e-13 8.28348136025523e-15
5.870931020387893 1.0654295486649622e-21 1.6603557409058193e-13 1.5765949001761847e-13 8.376084072963512e-15
5.892989160043636 1.0941054157855365e-21 1.711450107617495e-13 1.6267589135727968e-13 8.469119404469823e-15
5.915130176081913 1.1265187292735894e-21 1.768773228842879e-13 1.683117509981032e-13 8.565571886184762e-15
5.95966208400165 1.2173290417570946e-21 1.9257462101334245e-13 1.8378898012186485e-13 8.785640891477613e-15
6.004529249263818 1.3470529639933584e-21 2.1470050679705732e-13 2.0566705252108637e-13 9.033454275970918e-15
6.027089341400364 1.4370620274167267e-21 2.299072020190239e-13 2.207304151715595e-13 9.176786847464394e-15
6.049734195844842 1.5424561878496432e-21 2.476957550742299e-13 2.3836710688354913e-13 9.328648190680718e-15
6.095279466722835 1.846191899038655e-21 2.9870321478609317e-13 2.8900077909345273e-13 9.702435692640492e-15
6.141167624020661 2.3095095938441748e-21 3.764784791208527e-13 3.6629027947083256e-13 1.0188199650020082e-14
6.164241091010745 2.604939706292855e-21 4.2623266042978883e-13 4.1573927218714313e-13 1.049338824264566e-14
6.187401249150058 2.9376150155664216e-21 4.82472531870789e-13 4.716657766849081e-13 1.0806755185880903e-14
6.1990139391386085 3.099448594639776e-21 5.100074072952259e-13 4.990412041869186e-13 1.096620310830726e-14
6.204828454712694 3.1843677074013426e-21 5.244721397540816e-13 5.134254027958678e-13 1.1046736958213784e-14
6.210648424152782 3.2459841161527944e-21 5.351219537011069e-13 5.240066714267605e-13 1.1115282274346466e-14
6.233982942956859 3.453110979105151e-21 5.714070297680736e-13 5.600530592386136e-13 1.1353970529459947e-14
6.239830258556775 3.4783501752206225e-21 5.761233937815408e-13 5.647365216569798e-13 1.1386872124561034e-14
6.245683058788269 3.478646708198978e-21 5.767129438898384e-13 5.6529311827568e-13 1.1419825614158436e-14
6.257405133728602 3.4685978105684665e-21 5.761262359603935e-13 5.646488590046776e-13 1.1477376955716011e-14
6.269149208991335 3.42242677562082e-21 5.69524228513968e-13 5.580263233266099e-13 1.1497905187358223e-14
6.280915325867298 3.313136497131768e-21 5.523720565596827e-13 5.408994011472513e-13 1.1472655412431128e-14
6.304513850009849 3.0463268418122568e-21 5.097973027278321e-13 4.984165628948796e-13 1.1380739832952559e-14
6.32820103803542 2.7199775912246792e-21 4.568935496072781e-13 4.4564879064455757e-13 1.1244758962720475e-14
6.3519772230701035 2.4219610370617844e-21 4.0836218357939077e-13 3.9723938241517656e-13 1.1122801164214156e-14
6.375842739491607 2.1705615720273464e-21 3.6734923485349956e-13 3.5633401186936965e-13 1.1015222984129897e-14
6.399797922933955 1.970863780059426e-21 3.348052831243701e-13 3.2384537085124104e-13 1.0959912273129026e-14
6.42384311029221 1.8041645585100678e-21 3.076383729920996e-13 2.9672335867319187e-13 1.0915014318907854e-14
6.447978639727206 1.6831719798489802e-21 2.8808557700931885e-13 2.771746965570807e-13 1.0910880452238196e-14
6.472204850670314 1.5819834002491276e-21 2.7178382707478437e-13 2.6086899211349526e-13 1.0914834961289092e-14
6.496522083828205 1.516174959506454e-21 2.614566376905198e-13 2.5050481408261557e-13 1.0951823607904249e-14
6.520930681187647 1.4604943908851961e-21 2.528010712945238e-13 2.418072555178348e-13 1.0993815776689045e-14
