Dust emission spectrum from A.P. Jones, M. Kohler, N. Ysard, M. Bocchio, and L. Verstraete (2017), A&A, 602A, 46J 
inside the DustPedia framework.

lambda    nu*dP/dnu     j_nu    j_nu(carb.) j_nu(sil)
 (um)   (erg s-1 H-1) (Jy cm2 sr-1 H-1)
0.9927057738263894 4.854992188576411e-23 1.2793180174949996e-15 1.2793179545096374e-15 6.298536237076331e-23
1.0001793341362166 4.936720345777866e-23 1.310647296440049e-15 1.3106472206230899e-15 7.581695933783414e-23
1.0077091589558085 5.0187022880040244e-23 1.3424436741556062e-15 1.3424435830135784e-15 9.114202807844857e-23
1.0114953028030835 5.059783520772331e-23 1.358517507506338e-15 1.3585174076262143e-15 9.988012363597344e-23
1.0152956718711033 5.100922367069589e-23 1.3747087018952614e-15 1.3747085924755783e-15 1.0941968307960355e-22
1.0229392996569957 5.183325390529595e-23 1.4074331306553386e-15 1.4074329994650668e-15 1.311902712195912e-22
1.0267826658714554 5.22449516373946e-23 1.4239419766260171e-15 1.423941833042627e-15 1.4358339042389467e-22
1.0306404723013447 5.2657131032982246e-23 1.4405681852138458e-15 1.4405680281187093e-15 1.570951362595144e-22
1.03451277320114 5.306977452970271e-23 1.4573119725193865e-15 1.4573118006979907e-15 1.7182139572758317e-22
1.0383996230291617 5.348286491699747e-23 1.4741735608691709e-15 1.4741733730033647e-15 1.878658063209178e-22
1.0403485208654093 5.368957241492259e-23 1.4826486017146337e-15 1.4826484052976657e-15 1.9641696756818736e-22
1.0423010764483396 5.389638534592402e-23 1.4911531792206492e-15 1.4911529738803076e-15 2.0534034163176356e-22
1.0462171883269815 5.43103193389219e-23 1.508251063573447e-15 1.5082508392075086e-15 2.2436593784959577e-22
1.0471985131304309 5.44138655617409e-23 1.5125440420848057e-15 1.5125438127050362e-15 2.2937976951584653e-22
1.048180758391296 5.451743637665057e-23 1.5168444312784408e-15 1.51684419677765e-15 2.3450079101137714e-22
1.0501480137395462 5.472465079952283e-23 1.5254674573868858e-15 1.5254672123137222e-15 2.4507316374518414e-22
1.0521189612883777 5.493196065660924e-23 1.5341201735662979e-15 1.5341199174652982e-15 2.561009997331715e-22
1.0531058218030118 5.503551012773569e-23 1.538453743975091e-15 1.538453482183199e-15 2.617918916271641e-22
1.0540936079674168 5.513862196168503e-23 1.5427818491129185e-15 1.5427815815079407e-15 2.676049776385606e-22
1.058054026499678 5.55512771223127e-23 1.5601678531352593e-15 1.560167561018489e-15 2.9211677009356546e-22
1.0590464539527713 5.565449171626668e-23 1.5645327703271537e-15 1.5645324717547564e-15 2.9857239742126973e-22
1.06003981227728 5.575772617654012e-23 1.5689050622464814e-15 1.5689047570820866e-15 3.051643948396464e-22
1.0620293250338977 5.596425379895757e-23 1.5776717870664258e-15 1.577671468297925e-15 3.187685015296611e-22
1.0660195594769086 5.637753766604e-23 1.5952939203349636e-15 1.5952935725978346e-15 3.477371289391619e-22
1.070024785945596 5.679111483178564e-23 1.6130345321324861e-15 1.613034152919119e-15 3.792133672393409e-22
1.0740450607676866 5.720497184747175e-23 1.6308939118690373e-15 1.630893498466352e-15 4.134026855720972e-22
1.07808044048254 5.761909571659512e-23 1.6488723596344218e-15 1.6488719091080515e-15 4.505263699636153e-22
1.0861967418109137 5.844744576525393e-23 1.6851690158411209e-15 1.6851684812931201e-15 5.34548000980006e-22
1.0902777775684922 5.886017347580283e-23 1.7034450595387621e-15 1.703444477560422e-15 5.819783400355373e-22
1.0943741465085532 5.927309502003044e-23 1.7218402781927626e-15 1.7218396447825661e-15 6.334101968086954e-22
1.1026131145906286 6.009947823646808e-23 1.7589896675598492e-15 1.7589889179818485e-15 7.495780001927123e-22
1.1109141095355224 6.09265178175381e-23 1.796620178143398e-15 1.7966192922446455e-15 8.858987524146375e-22
1.1192775983109025 6.175347921240666e-23 1.8347152705888835e-15 1.8347142249324646e-15 1.0456564186541948e-21
1.1277040513999907 6.257724341190706e-23 1.8731864253926577e-15 1.873185192759365e-15 1.2326332934931517e-21
1.1361939428280308 6.340138375845675e-23 1.9121441949105073e-15 1.9121427437309976e-15 1.4511795098403393e-21
1.1447477501889525 6.422585897196853e-23 1.9515925566625454e-15 1.951590850370889e-15 1.7062916562985473e-21
1.1533659546722406 6.505095459573234e-23 1.991545507984744e-15 1.9915435042808186e-15 2.0037039253832007e-21
1.1707974979042381 6.670552765773017e-23 2.0730655879640975e-15 2.073062835291493e-15 2.7526726048152658e-21
1.1884924949847024 6.836225809506621e-23 2.1566629438339102e-15 2.1566591811340305e-15 3.762699880483471e-21
1.2064549276569216 7.003259444436627e-23 2.2427494057384453e-15 2.242744287745475e-15 5.117992970649982e-21
1.2246888378427687 7.170468082568402e-23 2.331002287056597e-15 2.330995359649793e-15 6.927406803988415e-21
1.2431983285522175 7.337683656806892e-23 2.421412806886574e-15 2.421403475722445e-15 9.331164129619513e-21
1.2619875648066055 7.505111806033559e-23 2.5140949462402945e-15 2.5140824372665465e-15 1.2508973747901307e-20
1.3004222497298317 7.839372758628454e-23 2.706045782610183e-15 2.7060236187359595e-15 2.2163874223568485e-20
1.3400274889804893 8.174039215664974e-23 2.907500897484083e-15 2.907462345422599e-15 3.8552061483583095e-20
1.3808389325824078 8.51017114750995e-23 3.1192540720813847e-15 3.1191882107368083e-15 6.586134457686229e-20
1.4228933163050095 8.850643241773889e-23 3.3428478313832635e-15 3.3427372685439766e-15 1.105628392869094e-19
1.466228494730424 9.20184804458538e-23 3.581344883869994e-15 3.5811624101945445e-15 1.824736754491371e-19
1.5108834753276823 9.562902926076795e-23 3.8352188530850325e-15 3.8349226464418736e-15 2.962066431584272e-19
1.5568984535646726 9.933506046176338e-23 4.1051807218950135e-15 4.104707298729831e-15 4.734231651818301e-19
1.6043148490894465 1.0316306691914642e-22 4.3932233277211404e-15 4.392476926565722e-15 7.464011554181717e-19
1.6531753430134553 1.0714239529862234e-22 4.70164358348236e-15 4.700484133986574e-15 1.1594494957852043e-18
1.7035239163302658 1.1130936024982243e-22 5.033259881706751e-15 5.03148491586701e-15 1.774965839740481e-18
1.755405889504358 1.1575971642088242e-22 5.3939192231525036e-15 5.3912400342453035e-15 2.679188907200594e-18
1.8088679632656115 1.205034635552382e-22 5.785965368293491e-15 5.781976545186018e-15 3.988823107471562e-18
1.8639582606462262 1.2555202476444568e-22 6.211969818677626e-15 6.206109976363186e-15 5.859842314440721e-18
1.9207263702978936 1.3093825668376093e-22 6.6757718587159866e-15 6.6672743963657746e-15 8.497462350210954e-18
1.979223391128241 1.3670653130947063e-22 7.182134137320126e-15 7.169966083823373e-15 1.2168053496752765e-17
2.039501978296691 1.4290188144829824e-22 7.736268080951726e-15 7.71905593818162e-15 1.7212142770104152e-17
2.1016163906111602 1.4961785317693823e-22 8.34653653631766e-15 8.322475820558425e-15 2.4060715759236606e-17
2.1656225393682647 1.5691685847633183e-22 9.020317011407376e-15 8.987067157204508e-15 3.3249854202868387e-17
2.231578038680979 1.6481523671688228e-22 9.76290066275021e-15 9.717463410760843e-15 4.5437251989366417e-17
2.299542257339062 1.7335576082692169e-22 1.0581545560047493e-14 1.0520126017637019e-14 6.141954241047513e-17
2.369576372248914 1.826030319045519e-22 1.1485452973668099e-14 1.1403302165597449e-14 8.215080807064724e-17
2.4417434235010123 1.926295337808518e-22 1.2485108855706425e-14 1.237635201391117e-14 1.0875684179525222e-16
2.5161083711144245 2.0354710527775021e-22 1.3594514622392533e-14 1.3451960793302797e-14 1.425538290897306e-16
2.5927381535095444 2.155187265093462e-22 1.4832457199472862e-14 1.4647397122207783e-14 1.8506007726507272e-16
2.6717017477616296 2.287005493801885e-22 1.621902022904506e-14 1.5981025430347697e-14 2.3799479869736545e-16
2.753070231689431 2.4330477855244354e-22 1.7780229493756782e-14 1.7476947550464444e-14 3.032819432923338e-16
2.836916847834745 2.598199253705786e-22 1.9565389281097967e-14 1.9182328608501914e-14 3.830606725960553e-16
2.9233170693905177 2.7926952428389122e-22 2.1670498447492565e-14 2.1190915490912977e-14 4.795829565795907e-16
2.967498994190263 2.910184614252502e-22 2.2923480291103858e-14 2.2389609685734366e-14 5.338706053694938e-16
3.0123486681368425 3.036781284550622e-22 2.4282208601371935e-14 2.3688688315156224e-14 5.935202862157054e-16
3.0578761833420214 3.230529185741878e-22 2.6221830056353632e-14 2.5562669987069954e-14 6.591600692836766e-16
3.1040917844459814 3.45613860936392e-22 2.8477059264629e-14 2.7746439696636832e-14 7.306195679921631e-16
3.127460860933648 3.652604146524585e-22 3.0322424558221266e-14 2.9553532389164635e-14 7.688921690566387e-16
3.1510058709225794 3.899064214473552e-22 3.2612120107921804e-14 3.180332582646268e-14 8.087942814591208e-16
3.162844764501044 4.114206101188515e-22 3.454087648973547e-14 3.371142958115823e-14 8.294469085772316e-16
3.1747281389236908 4.357633766479437e-22 3.672203176442862e-14 3.587151007787334e-14 8.505216865552833e-16
3.1986289994194426 5.013005295056251e-22 4.2562925090012154e-14 4.1668856399850355e-14 8.940686901618034e-16
3.2227097969389145 6.50518512065525e-22 5.5648093795787196e-14 5.470787236426413e-14 9.402214315230645e-16
3.2348180950136065 7.897924428648959e-22 6.78160157065147e-14 6.685116233749148e-14 9.648533690232291e-16
3.240889293275058 8.935528126618156e-22 7.686946444317278e-14 7.5891618307999e-14 9.77846135173798e-16
3.2469718861334385 1.0136684459962642e-21 8.736628905081292e-14 8.637499914354575e-14 9.91289907267189e-16
3.2714166318528037 1.6454861174636638e-21 1.4288923560964739e-13 1.4184238186618995e-13 1.0468537434574018e-15
3.2744851364798273 1.6851829548965657e-21 1.4647365345655727e-13 1.4542024934564538e-13 1.053404110911823e-15
3.2775565192852394 1.725951764687775e-21 1.5015793144817704e-13 1.4909794401976644e-13 1.0599874284106074e-15
3.283707930232385 1.6879443670182143e-21 1.4712689968685648e-13 1.4605513439996007e-13 1.0717652868963774e-15
3.2898708863219004 1.5654592844498956e-21 1.367067830647678e-13 1.356242948786319e-13 1.082488186135902e-15
3.29141343181113 1.5365321822055111e-21 1.3424358174019066e-13 1.3315840086560344e-13 1.085180874587225e-15
3.292184975758714 1.522312155051789e-21 1.33032384870323e-13 1.3194585585467506e-13 1.0865290156479357e-15
3.295272960557952 1.4332031387675963e-21 1.2536276963671784e-13 1.2427099577929672e-13 1.0917738574211126e-15
3.3076538914384823 1.12278187245786e-21 9.857910810377853e-14 9.746626623982335e-14 1.1128418639551644e-15
3.310756385682612 1.0591324059396053e-21 9.307797251637323e-14 9.195981984092629e-14 1.118152675446945e-15
3.313861789986515 1.0002233087543536e-21 8.798341110055887e-14 8.685993005550344e-14 1.1234810450554318e-15
3.3200813396944477 9.181065944137927e-22 8.091168836279408e-14 7.977674859310202e-14 1.134939769692047e-15
3.345076488085796 7.757944829571684e-22 6.888460502900417e-14 6.769860619784884e-14 1.1859988311553305e-15
3.3482140837626964 7.820055742425778e-22 6.950123161579968e-14 6.830831628881423e-14 1.1929153269854417e-15
3.3513546224236106 7.882735798466699e-22 7.012401739796879e-14 6.892415417334666e-14 1.1998632246221218e-15
3.3576445397418455 8.306141830933861e-22 7.402927443954281e-14 7.28148856236912e-14 1.2143888158516126e-15
3.3702598118196083 9.832935286325126e-22 8.796623325371826e-14 8.672137600619479e-14 1.244857247523451e-15
3.382922481734668 1.0206986360955685e-21 9.165560189182928e-14 9.0381117438321e-14 1.274484453508254e-15
3.389271646505754 1.0399861905205717e-21 9.356283745525006e-14 9.227333363552752e-14 1.2895038197225401e-15
3.395632727569191 1.061061761701109e-21 9.563807092922256e-14 9.433308866899667e-14 1.304982260225879e-15
3.421196662673239 1.1625217900515592e-21 1.0557195761240246e-13 1.0420288823573004e-13 1.3690693766724181e-15
3.4276182099114902 1.1452764751709328e-21 1.0420107863386704e-13 1.0281769355873105e-13 1.3833850751359904e-15
3.4340518103208963 1.0646040512624558e-21 9.704303951329856e-14 9.564610768479746e-14 1.3969318285010926e-15
3.4469541582030403 9.494324811768472e-22 8.686984089103998e-14 8.544689440003137e-14 1.422946491008606e-15
3.472904465399547 9.203291031515247e-22 8.484093097266599e-14 8.33580780955123e-14 1.482852877153676e-15
3.4990501388274233 8.744943115476326e-22 8.122254389637918e-14 7.967835815017933e-14 1.5441857461998331e-15
3.5253949054701885 7.0303989923911855e-22 6.578958980882148e-14 6.418577148691572e-14 1.6038183219057294e-15
3.5519380250092896 5.4029475352217e-22 5.0940776761866824e-14 4.9276983789922144e-14 1.6637929719446784e-15
3.578680990867387 4.788046505092804e-22 4.5483175626915507e-14 4.375364335218422e-14 1.729532274731285e-15
3.605625307711299 4.571649674043383e-22 4.3754524586176244e-14 4.195573413669583e-14 1.7987904494804303e-15
3.660119384959845 4.481773400406339e-22 4.354262217736095e-14 4.159822800600706e-14 1.9443941713538956e-15
3.715437065384467 4.446454404137544e-22 4.385238169678396e-14 4.1754352942241016e-14 2.0980287545429467e-15
3.8285932144167436 4.589300287364488e-22 4.663963400680125e-14 4.421092711040191e-14 2.428706896399346e-15
3.94519561050918 4.792744133563637e-22 5.019058048257547e-14 4.740057053618643e-14 2.7900099463890142e-15
4.06534921144712 5.022424672768184e-22 5.419768320571483e-14 5.101600989372897e-14 3.1816733119858702e-15
4.189162171576248 5.267666004736644e-22 5.857534254880245e-14 5.49707812482644e-14 3.604561300538045e-15
4.316745939156006 5.523413349720939e-22 6.328976271803906e-14 5.923251230258491e-14 4.057250415454147e-15
4.448215356677963 5.786631918132992e-22 6.832522906148901e-14 6.379159564350913e-14 4.533633417979883e-15
4.58368876423945 6.056154776326639e-22 7.36854126434942e-14 6.865102250208934e-14 5.034390141404869e-15
4.723288106065518 6.331920258864779e-22 7.938698474362673e-14 7.382425661961771e-14 5.562728124009012e-15
4.867139040275056 6.613545569356295e-22 8.544320614783385e-14 7.93382759141745e-14 6.104930233659349e-15
4.940699165968905 6.759283669566111e-22 8.864587211445992e-14 8.22629918296367e-14 6.382880284823211e-15
5.015371051989984 6.904013592167961e-22 9.191240703336268e-14 8.524784831181618e-14 6.664558721546481e-15
5.091171501069577 7.057158109065881e-22 9.537114736869785e-14 8.841516920775607e-14 6.955978160941792e-15
5.129500256944802 7.133201904269071e-22 9.712454690615269e-14 9.002173378098041e-14 7.102813125172291e-15
5.168117569889187 7.209756441475238e-22 9.890594838896877e-14 9.165416138556499e-14 7.251787003403787e-15
5.20702561229733 7.293638917442785e-22 1.0080995155657163e-13 9.339569090254562e-14 7.414260654025991e-15
5.246226572918644 7.37739228742399e-22 1.0273521953007449e-13 9.515730407479847e-14 7.577915455276048e-15
5.265937586045735 7.419217726603562e-22 1.037058502847106e-13 9.604568409388596e-14 7.66016619082463e-15
5.285722656980489 7.461007635467951e-22 1.0468182594682362e-13 9.693913742031283e-14 7.742688526510782e-15
5.305582063971359 7.50276108214095e-22 1.0566315798133617e-13 9.783768359017906e-14 7.825474391157106e-15
5.3255160863122235 7.545842426580233e-22 1.0666915772788797e-13 9.875999400161217e-14 7.909163726275799e-15
5.365609099470188 7.642506958331987e-22 1.088489654617389e-13 1.0076665220168465e-13 8.082313260054217e-15
5.406003951863644 7.73966258492528e-22 1.110625957750095e-13 1.028059168806328e-13 8.256678894376664e-15
5.446702915881641 7.837343996267806e-22 1.1331098898037341e-13 1.0487879249158046e-13 8.432196488792984e-15
5.487708281020852 7.938193545980675e-22 1.1563309057434e-13 1.0702354762010106e-13 8.609542954238977e-15
5.529022354014368 8.062896643189422e-22 1.1833381648707052e-13 1.0953937921058836e-13 8.794437276482173e-15
5.570647458961463 8.19011676843874e-22 1.2110587211700639e-13 1.1212526580103795e-13 8.980606315968466e-15
5.612585937458331 8.320067570049198e-22 1.239536415672584e-13 1.1478565661613998e-13 9.167984951118454e-15
5.654840148729818 8.456930046068733e-22 1.2694117210815278e-13 1.175837472742637e-13 9.357424833889134e-15
5.67608639626678 8.54408987149355e-22 1.2873132465085428e-13 1.1927477457306566e-13 9.456550077788616e-15
5.686739436050992 8.58835932700871e-22 1.2964117813373913e-13 1.2013493232008488e-13 9.506245813654248e-15
5.6974124697621304 8.633104061411069e-22 1.305611812340362e-13 1.210051522996271e-13 9.556028934409126e-15
5.718818669136295 8.724067975760058e-22 1.324325678816221e-13 1.2277671465579176e-13 9.655853225830355e-15
5.740305295436557 8.822023567089475e-22 1.344227071437104e-13 1.2466594770241386e-13 9.756759441296552e-15
5.7835210386641895 9.065790157525156e-22 1.3917698213972397e-13 1.2921161215899205e-13 9.965369980731908e-15
5.827062130521658 9.335840345417724e-22 1.444017637802864e-13 1.3422442431329725e-13 1.0177339466989167e-14
5.8489554468988025 9.520415015608225e-22 1.478099353104739e-13 1.3751808618801782e-13 1.0291849122456069e-14
5.870931020387893 9.714498373371008e-22 1.513898611546668e-13 1.4098295736867833e-13 1.0406903785988463e-14
5.892989160043636 9.918843008076092e-22 1.5515511292323571e-13 1.4463261696443612e-13 1.0522495958799646e-14
5.915130176081913 1.0147830992571994e-21 1.5933345202398506e-13 1.4869111823839372e-13 1.0642333785591251e-14
5.95966208400165 1.077827285065179e-21 1.7050622618817262e-13 1.5959046666063944e-13 1.0915759527533182e-14
6.004529249263818 1.1665769313684198e-21 1.8593527134972442e-13 1.74711614948608e-13 1.1223656401116441e-14
6.027089341400364 1.2276041719436789e-21 1.9639725702431911e-13 1.8499551641339888e-13 1.1401740610920226e-14
6.049734195844842 1.2987332039615098e-21 2.0855743205496998e-13 1.969670106224711e-13 1.1590421432498905e-14
6.095279466722835 1.5024468712962971e-21 2.430872493456407e-13 2.310324139175933e-13 1.2054835428047481e-14
6.141167624020661 1.8113367511581774e-21 2.952701764345854e-13 2.8261180134829993e-13 1.2658375086285428e-14
6.164241091010745 2.007982186903413e-21 3.285556235915612e-13 3.155180655370826e-13 1.3037558054478602e-14
6.187401249150058 2.228748343732573e-21 3.660485974524964e-13 3.5262169519946886e-13 1.3426902253027451e-14
6.1990139391386085 2.336132806982931e-21 3.844054836228556e-13 3.707804745658474e-13 1.3625009057008174e-14
6.204828454712694 2.392421984960516e-21 3.9403699350754827e-13 3.803119247985004e-13 1.3725068709047764e-14
6.210648424152782 2.4333412921535167e-21 4.0115240854045876e-13 3.8734217538835366e-13 1.3810233152105089e-14
6.233982942956859 2.5709022777172155e-21 4.254226531448052e-13 4.113158606729007e-13 1.4106792471904477e-14
6.239830258556775 2.5877026811514924e-21 4.286043600161764e-13 4.1445668880618765e-13 1.414767120998892e-14
6.245683058788269 2.588082694566428e-21 4.2906938100262357e-13 4.1488076657798233e-13 1.4188614424641299e-14
6.257405133728602 2.5818048324405908e-21 4.288319319023544e-13 4.145718125488014e-13 1.4260119353552988e-14
6.269149208991335 2.5516632758609117e-21 4.246209353444813e-13 4.1033531059525257e-13 1.4285624749228685e-14
6.280915325867298 2.4798672886473647e-21 4.134479202444854e-13 3.9919366719445524e-13 1.4254253050030114e-14
6.304513850009849 2.3044051076400903e-21 3.856380386184308e-13 3.7149798650341637e-13 1.4140052115014516e-14
6.32820103803542 2.089953220443278e-21 3.5106397511589454e-13 3.370928730596357e-13 1.3971102056258825e-14
6.3519772230701035 1.894319511920407e-21 3.193975627383841e-13 3.055779877112207e-13 1.3819575027163444e-14
6.375842739491607 1.7291699638320735e-21 2.926474288181871e-13 2.7896151479688116e-13 1.3685914021306029e-14
6.399797922933955 1.5986532085855713e-21 2.7157510606950024e-13 2.5795791309722996e-13 1.3617192972270244e-14
6.42384311029221 1.4896898444598382e-21 2.540154986698911e-13 2.4045408936893734e-13 1.3561409300953733e-14
6.447978639727206 1.4111056979912472e-21 2.415197045185011e-13 2.279634313608651e-13 1.3556273157636002e-14
6.472204850670314 1.3454773671134151e-21 2.311522282844448e-13 2.1759104183041577e-13 1.3561186454029019e-14
6.496522083828205 1.3033379401122774e-21 2.2475397938716162e-13 2.1114683622051126e-13 1.3607143166650339e-14
