Dust emission spectrum from A.P. Jones, M. Kohler, N. Ysard, M. Bocchio, and L. Verstraete (2017), A&A, 602A, 46J 
inside the DustPedia framework.

lambda    nu*dP/dnu     j_nu    j_nu(carb.) j_nu(sil)
 (um)   (erg s-1 H-1) (Jy cm2 sr-1 H-1)
0.9927057738263894 6.00281810760608e-23 1.5817766666803836e-15 1.5817766666803795e-15 4.3672808982374146e-30
1.0001793341362166 6.102022163918052e-23 1.6200226652085742e-15 1.6200226652085693e-15 5.262973071982311e-30
1.0077091589558085 6.201085652208542e-23 1.6587172796845075e-15 1.6587172796845012e-15 6.334378580787154e-30
1.0114953028030835 6.250552484332242e-23 1.6782308861025018e-15 1.678230886102495e-15 6.945995008145643e-30
1.0152956718711033 6.299969574135654e-23 1.6978543039883742e-15 1.697854303988367e-15 7.614251751193897e-30
1.0229392996569957 6.398586751169893e-23 1.7374141703360605e-15 1.7374141703360514e-15 9.141222555898814e-30
1.0267826658714554 6.447667273318763e-23 1.757318897626269e-15 1.7573188976262593e-15 1.0011532209907492e-29
1.0306404723013447 6.496676354807624e-23 1.777329125755995e-15 1.777329125755984e-15 1.0961210067276499e-29
1.03451277320114 6.545609266464377e-23 1.7974439944366973e-15 1.7974439944366854e-15 1.1997147774245357e-29
1.0383996230291617 6.594461305298411e-23 1.8176626326081784e-15 1.817662632608165e-15 1.312680292654804e-29
1.0403485208654093 6.61885553510371e-23 1.827810590151974e-15 1.8278105901519598e-15 1.3729270462427937e-29
1.0423010764483396 6.64322779540256e-23 1.837984158644634e-15 1.8379841586446198e-15 1.4358242672053022e-29
1.0462171883269815 6.691904088835223e-23 1.8584076805609844e-15 1.8584076805609686e-15 1.5700190432823224e-29
1.0471985131304309 6.704058527015515e-23 1.8635293923971553e-15 1.863529392397139e-15 1.6054033028563382e-29
1.048180758391296 6.716206967177401e-23 1.868657408446982e-15 1.8686574084469655e-15 1.6415522582658584e-29
1.0501480137395462 6.740485566482449e-23 1.8789322962193556e-15 1.8789322962193383e-15 1.716207595095452e-29
1.0521189612883777 6.764739314003636e-23 1.8892322295583993e-15 1.8892322295583816e-15 1.7941148408742996e-29
1.0531058218030118 6.776838075228081e-23 1.8943863489135503e-15 1.894386348913532e-15 1.8343324343880045e-29
1.0540936079674168 6.788869422028688e-23 1.8995296123979332e-15 1.8995296123979143e-15 1.8754226647103264e-29
1.058054026499678 6.836926599430777e-23 1.9201634322809943e-15 1.9201634322809738e-15 2.0487876784709182e-29
1.0590464539527713 6.848923489869912e-23 1.9253370053208135e-15 1.9253370053207922e-15 2.094472858826458e-29
1.06003981227728 6.860913278607315e-23 1.9305165960964325e-15 1.9305165960964112e-15 2.141134035945734e-29
1.0620293250338977 6.884871271736177e-23 1.9408937715890053e-15 1.940893771588983e-15 2.2374642177435228e-29
1.0660195594769086 6.932698973255318e-23 1.961719681526399e-15 1.9617196815263736e-15 2.4427365691221445e-29
1.070024785945596 6.980405271998466e-23 1.982640204434098e-15 1.9826402044340714e-15 2.6659906140824913e-29
1.0740450607676866 7.027985770404716e-23 2.003654373996839e-15 2.00365437399681e-15 2.9087213442202705e-29
1.07808044048254 7.07543610605102e-23 2.0247612154501086e-15 2.0247612154500767e-15 3.172540890583887e-29
1.0861967418109137 7.169845194740149e-23 2.0672248055254177e-15 2.0672248055253798e-15 3.770533222617174e-29
1.0902777775684922 7.216604785685242e-23 2.0885242164420305e-15 2.088524216441989e-15 4.1085974727561785e-29
1.0943741465085532 7.263213794774549e-23 2.1099107540684143e-15 2.10991075406837e-15 4.475551187987124e-29
1.1026131145906286 7.355963496567007e-23 2.1529411178078116e-15 2.1529411178077583e-15 5.30565960451662e-29
1.1109141095355224 7.44806155839324e-23 2.19630764455269e-15 2.1963076445526263e-15 6.281780624281508e-29
1.1192775983109025 7.539390414135435e-23 2.2399765811035746e-15 2.2399765811035004e-15 7.428109661801754e-29
1.1277040513999907 7.629526003124223e-23 2.2838213641275915e-15 2.2838213641275047e-15 8.772590547639688e-29
1.1361939428280308 7.71890350715985e-23 2.3279707251375814e-15 2.327970725137478e-15 1.0347447760963154e-28
1.1447477501889525 7.8074931118999e-23 2.3724159843511275e-15 2.3724159843510053e-15 1.2189798544077326e-28
1.1533659546722406 7.895313951045968e-23 2.4171631501878754e-15 2.4171631501877318e-15 1.434235898665735e-28
1.1707974979042381 8.068932729301562e-23 2.5076522681211168e-15 2.5076522681209184e-15 1.978179558759297e-28
1.1884924949847024 8.239102363823589e-23 2.5992363701331738e-15 2.5992363701329016e-15 2.7150691511115633e-28
1.2064549276569216 8.407152676190532e-23 2.692337306374844e-15 2.6923373063744737e-15 3.7084730569879443e-28
1.2246888378427687 8.571249005313233e-23 2.7863733307575374e-15 2.7863733307570325e-15 5.041059938095096e-28
1.2431983285522175 8.731007358224609e-23 2.8812052989793215e-15 2.8812052989786403e-15 6.8199779643595165e-28
1.2619875648066055 8.886367761127264e-23 2.9767940646429908e-15 2.9767940646420726e-15 9.183393604469619e-28
1.3004222497298317 9.181312458700298e-23 3.1692652744884994e-15 3.169265274486857e-15 1.642129199966188e-27
1.3400274889804893 9.454927067467483e-23 3.3631119461263648e-15 3.363111946123482e-15 2.8835788462147053e-27
1.3808389325824078 9.706194992084905e-23 3.557635649000486e-15 3.557635648995512e-15 4.974801887161074e-27
1.4228933163050095 9.936335268785352e-23 3.752908788412411e-15 3.752908788403975e-15 8.43629978713564e-27
1.466228494730424 1.0150878897452479e-22 3.950706209234448e-15 3.950706209220379e-15 1.4069467647504923e-26
1.5108834753276823 1.0345656401760101e-22 4.149143496100315e-15 4.149143496077227e-15 2.308585104482765e-26
1.5568984535646726 1.0517293203085906e-22 4.346440129308123e-15 4.346440129270816e-15 3.730842923899959e-26
1.6043148490894465 1.0666099519223953e-22 4.542183421163224e-15 4.542183421103734e-15 5.949078306826393e-26
1.6531753430134553 1.079252429404519e-22 4.735996657088691e-15 4.735996656995196e-15 9.349636983098079e-26
1.7035239163302658 1.0898064583930512e-22 4.927958541441183e-15 4.9279585412963225e-15 1.4486272505810837e-25
1.755405889504358 1.0991384057822844e-22 5.1215258288113446e-15 5.121525828589953e-15 2.2139289157157676e-25
1.8088679632656115 1.107034070428873e-22 5.315416340781188e-15 5.315416340447315e-15 3.3387485519064388e-25
1.8639582606462262 1.1133482765668517e-22 5.5085419010052934e-15 5.508541900508236e-15 4.970567576584734e-25
1.9207263702978936 1.1181859148997133e-22 5.700972544280009e-15 5.70097254354918e-15 7.30828980649966e-25
1.979223391128241 1.1217914371837995e-22 5.8935418072399125e-15 5.893541806178201e-15 1.061711233250934e-24
2.039501978296691 1.124457462450156e-22 6.087466649827451e-15 6.087466648302819e-15 1.5246322543900968e-24
2.1016163906111602 1.127003998659076e-22 6.287070594616704e-15 6.287070592451444e-15 2.1652600102037245e-24
2.1656225393682647 1.1299064863894832e-22 6.495232443119484e-15 6.495232440076932e-15 3.0425515493952554e-24
2.231578038680979 1.1331988536175383e-22 6.712551618036907e-15 6.712551613804964e-15 4.231942950275824e-24
2.299542257339062 1.1371657550624293e-22 6.941200678374119e-15 6.941200672544841e-15 5.829278679747684e-24
2.369576372248914 1.1424367743938057e-22 7.185753550109612e-15 7.18575354215385e-15 7.95576097200826e-24
2.4417434235010123 1.1497553763642893e-22 7.452035391246319e-15 7.4520353804826e-15 1.0763717616873639e-23
2.5161083711144245 1.1603948956370944e-22 7.750051446303963e-15 7.750051431859483e-15 1.4444482738453553e-23
2.5927381535095444 1.1764391200146313e-22 8.096504270428593e-15 8.09650425119066e-15 1.9237932358663367e-23
2.6717017477616296 1.200375894607042e-22 8.512843965549388e-15 8.512843940105856e-15 2.544353230676224e-23
2.753070231689431 1.23595097469927e-22 9.032083999307337e-15 9.032083965871503e-15 3.3435834498685165e-23
2.836916847834745 1.2916505924367335e-22 9.726600690898053e-15 9.726600647211533e-15 4.368652248296718e-23
2.9233170693905177 1.3861647894048479e-22 1.0756233424965704e-14 1.0756233368182047e-14 5.678365883407234e-23
2.967498994190263 1.4664294352057451e-22 1.1551042532354201e-14 1.1551042467809839e-14 6.454436476364928e-23
3.0123486681368425 1.5601691721031187e-22 1.2475166875919338e-14 1.247516680258806e-14 7.333127467238369e-23
3.0578761833420214 1.769914551924883e-22 1.436619077755944e-14 1.4366190694249394e-14 8.331004362237787e-23
3.1040917844459814 2.0401916337731784e-22 1.6810280093729155e-14 1.681027999915257e-14 9.457658531828973e-23
3.127460860933648 2.3261099896519356e-22 1.9310413022023577e-14 1.93104129212284e-14 1.0079517852066532e-22
3.1510058709225794 2.707054315930735e-22 2.2642043227216026e-14 2.2642043119795953e-14 1.074200648370187e-22
3.162844764501044 3.0616578433901006e-22 2.5704192454485322e-14 2.5704192343551035e-14 1.1093428062025005e-22
3.1747281389236908 3.474029852894031e-22 2.927585048332673e-14 2.927585036876547e-14 1.1456126590532051e-22
3.1986289994194426 4.624246907294944e-22 3.9262171717037166e-14 3.926217159481571e-14 1.2222145016043942e-22
3.2227097969389145 7.335594144613593e-22 6.27517623919927e-14 6.27517622611866e-14 1.3080610921019988e-22
3.2348180950136065 9.90679863233306e-22 8.506533807978006e-14 8.506533794410189e-14 1.356781700440154e-22
3.240889293275058 1.1829109884020902e-21 1.0176201436996336e-13 1.0176201423157409e-13 1.3838926569635755e-22
3.2469718861334385 1.4052929555852896e-21 1.2111971231191716e-13 1.2111971217062336e-13 1.4129382767406993e-22
3.2714166318528037 2.591516551496135e-21 2.2503977103362536e-13 2.2503977087976148e-13 1.5386387431898726e-22
3.2744851364798273 2.665671764033653e-21 2.316963158566723e-13 2.316963157013807e-13 1.5529162161180051e-22
3.2775565192852394 2.7419569246211204e-21 2.385504556644396e-13 2.3855045550770505e-13 1.5673459364730663e-22
3.283707930232385 2.668596866573968e-21 2.3260386489316745e-13 2.326038647341896e-13 1.5897781731497698e-22
3.2898708863219004 2.4359456176601845e-21 2.1272369867355762e-13 2.1272369851284065e-13 1.6071695869067837e-22
3.29141343181113 2.381080611619072e-21 2.0802999990345506e-13 2.080299997423009e-13 1.6115414971506202e-22
3.292184975758714 2.354121885823018e-21 2.057228852224491e-13 2.0572288506107594e-13 1.6137310723123975e-22
3.295272960557952 2.183955580036439e-21 1.9103134292069745e-13 1.9103134275854817e-13 1.6214923738654476e-22
3.3076538914384823 1.5944459349286091e-21 1.3999073376637257e-13 1.3999073360114117e-13 1.6523137644562624e-22
3.310756385682612 1.4744653739644597e-21 1.2957798929063627e-13 1.2957798912462603e-13 1.6601019573700538e-22
3.313861789986515 1.3637645207805553e-21 1.1996186594133895e-13 1.199618657745466e-13 1.667923540956115e-22
3.3200813396944477 1.208519035877859e-21 1.0650540602410978e-13 1.0650540585541943e-13 1.6869038917428986e-22
3.345076488085796 9.315764328387502e-22 8.271684839239676e-14 8.271684821399543e-14 1.7840135838986877e-22
3.3482140837626964 9.419616586482711e-22 8.371742806862438e-14 8.371742788876798e-14 1.798563903381029e-22
3.3513546224236106 9.524617051079895e-22 8.47300263353788e-14 8.473002615405529e-14 1.8132356526859107e-22
3.3576445397418455 1.0291977242169615e-21 9.172822030904835e-14 9.172822012447017e-14 1.8457813968021596e-22
3.3702598118196083 1.3122321859475662e-21 1.173933512128714e-13 1.1739335102106812e-13 1.9180326339618548e-22
3.382922481734668 1.3766974520434153e-21 1.236232019204663e-13 1.2362320172205633e-13 1.9840995886740996e-22
3.389271646505754 1.4100949572083426e-21 1.2685984340975943e-13 1.2685984320795675e-13 2.0180270669564933e-22
3.395632727569191 1.4460825330498306e-21 1.3034165291528762e-13 1.303416527099245e-13 2.0536310704277292e-22
3.421196662673239 1.6188817958739057e-21 1.470153263328595e-13 1.4701532611236132e-13 2.2049820246898945e-22
3.4276182099114902 1.5840605181930403e-21 1.441231162915503e-13 1.4412311606790713e-13 2.236430926254508e-22
3.4340518103208963 1.4314711724802765e-21 1.3048448706204e-13 1.3048448683560992e-13 2.264301206609029e-22
3.4469541582030403 1.2141556180443865e-21 1.1109110700082741e-13 1.1109110676932601e-13 2.3150139300213707e-22
3.472904465399547 1.1532521981219106e-21 1.063130458440227e-13 1.063130455986748e-13 2.453478980927869e-22
3.4990501388274233 1.0601022211329108e-21 9.846170301352146e-14 9.846170275377083e-14 2.5975061978062513e-22
3.5253949054701885 7.285970161575257e-22 6.818119267599564e-14 6.818119240319306e-14 2.7280254411477427e-22
3.5519380250092896 4.1701786183271022e-22 3.9317823589525995e-14 3.931782330371977e-14 2.858062228837925e-22
3.578680990867387 2.934723521254805e-22 2.787787152687336e-14 2.7877871225092443e-14 3.0178091291824314e-22
3.605625307711299 2.4349835439501494e-22 2.3304836314474423e-14 2.3304835994777242e-14 3.196971739339787e-22
3.660119384959845 2.0703646735994815e-22 2.0114606138660223e-14 2.0114605778942746e-14 3.5971747896892787e-22
3.715437065384467 1.8121196201006405e-22 1.787171396313868e-14 1.7871713558432923e-14 4.0470575484041225e-22
3.8285932144167436 1.6809080217535693e-22 1.7082546363228726e-14 1.7082545850284424e-14 5.129443049420972e-22
3.94519561050918 1.6555835946421427e-22 1.7337604373787655e-14 1.733760372361433e-14 6.501733296834538e-22
4.06534921144712 1.6737988942357561e-22 1.8062196673995273e-14 1.8062195849695716e-14 8.242995590417631e-22
4.189162171576248 1.7172896664513742e-22 1.9095901368358863e-14 1.9095900322741738e-14 1.045617124691209e-21
4.316745939156006 1.7792694263776556e-22 2.038767202034457e-14 2.0387670693494e-14 1.326850577652266e-21
4.448215356677963 1.8574836048785169e-22 2.1932100499357903e-14 2.193209881610899e-14 1.6832489108707071e-21
4.58368876423945 1.952247245305614e-22 2.375304944562902e-14 2.3753047310217806e-14 2.1354112291527966e-21
4.723288106065518 2.0657780785516459e-22 2.5899867038928914e-14 2.5899864329196636e-14 2.70973227577023e-21
4.867139040275056 2.2024780383332634e-22 2.8454749890489115e-14 2.845474645440821e-14 3.436080908562621e-21
4.940699165968905 2.284994868034818e-22 2.99669865559902e-14 2.996698268664972e-14 3.869340469631533e-21
5.015371051989984 2.3705240557145004e-22 3.155853750612202e-14 3.155853315012063e-14 4.3560013952321034e-21
5.091171501069577 2.4748659430018063e-22 3.344558828355893e-14 3.3445583377254236e-14 4.9063046904792624e-21
5.129500256944802 2.5284508152545926e-22 3.442698567933755e-14 3.44269804731722e-14 5.206165348429736e-21
5.168117569889187 2.5843285320266174e-22 3.545271833849395e-14 3.5452712814207007e-14 5.524286936420576e-21
5.20702561229733 2.652850059350486e-22 3.6666702176659894e-14 3.6666696310472685e-14 5.866187192711843e-21
5.246226572918644 2.7231410269744504e-22 3.7921596184396363e-14 3.79215899560217e-14 6.2283746616189775e-21
5.265937586045735 2.758967847606796e-22 3.8564861834190125e-14 3.856485541676688e-14 6.417423266382308e-21
5.285722656980489 2.795258691585427e-22 3.9218936385733764e-14 3.92189297737667e-14 6.611967084287042e-21
5.305582063971359 2.832021106239508e-22 3.988402273229175e-14 3.988401592013728e-14 6.812154474055947e-21
5.3255160863122235 2.8715075891365913e-22 4.059206098228236e-14 4.0592053963323935e-14 7.018958434470992e-21
5.365609099470188 2.969762750323018e-22 4.2297063620864657e-14 4.2297056163574903e-14 7.457289755924737e-21
5.406003951863644 3.071775752835687e-22 4.407936198835715e-14 4.407935406661676e-14 7.921740390398817e-21
5.446702915881641 3.177728145815899e-22 4.594305406074255e-14 4.5943045646994525e-14 8.413748019543848e-21
5.487708281020852 3.2922076610912977e-22 4.7956521147970616e-14 4.79565122111225e-14 8.936848118210437e-21
5.529022354014368 3.4511350459776376e-22 5.06500330185643e-14 5.0650023509253915e-14 9.509310365484169e-21
5.570647458961463 3.61943878223265e-22 5.3520029407341326e-14 5.352001929063089e-14 1.0116710436734226e-20
5.612585937458331 3.7977929109190333e-22 5.658010073395945e-14 5.65800899729481e-14 1.0761011352232547e-20
5.654840148729818 3.993824493263472e-22 5.994855811829593e-14 5.994854667008984e-14 1.1448206094204299e-20
5.67608639626678 4.127218111128532e-22 6.218359855286711e-14 6.218358672815154e-14 1.1824715582435297e-20
5.686739436050992 4.1959752975960836e-22 6.333819537449253e-14 6.333818335710454e-14 1.2017387987708654e-20
5.6974124697621304 4.2661498573540595e-22 6.451834250293065e-14 6.451833028986848e-14 1.2213062189246256e-20
5.718818669136295 4.410887510261887e-22 6.695788722004593e-14 6.695787460645658e-14 1.261358933274937e-20
5.740305295436557 4.570406787457612e-22 6.964008296349745e-14 6.964006993101967e-14 1.3032477755960907e-20
5.7835210386641895 4.984041034223774e-22 7.651443260332148e-14 7.651441864527853e-14 1.3958042918091597e-20
5.827062130521658 5.460481138194033e-22 8.445978918557902e-14 8.445977422595078e-14 1.4959628246608943e-20
5.8489554468988025 5.794561070075523e-22 8.996390341348319e-14 8.996388786976804e-14 1.554371516205382e-20
5.870931020387893 6.153054208972631e-22 9.588863846299284e-14 9.58886223128884e-14 1.6150104442954615e-20
5.892989160043636 6.537924953968272e-22 1.0226923479791467e-13 1.0226921801831696e-13 1.6779597710941635e-20
5.915130176081913 6.975591519067584e-22 1.0952538305533732e-13 1.0952536560089105e-13 1.745444627766582e-20
5.95966208400165 8.198986995824788e-22 1.2970337182913757e-13 1.2970335274196836e-13 1.908716918986745e-20
6.004529249263818 9.961988108898498e-22 1.5877949515408302e-13 1.5877947401606513e-13 2.11380178623945e-20
6.027089341400364 1.118733707936135e-21 1.7897970420825763e-13 1.7897968177172257e-13 2.243653501750825e-20
6.049734195844842 1.2635311484106907e-21 2.0290450019310565e-13 2.029044763061363e-13 2.3886969340420278e-20
6.095279466722835 1.6817542044674514e-21 2.7209814300238055e-13 2.720981152045314e-13 2.779784911812091e-20
6.141167624020661 2.3253449675031587e-21 3.790598398596586e-13 3.7905980640948247e-13 3.345017607350027e-20
6.164241091010745 2.7363382128178614e-21 4.477327108445288e-13 4.4773267368516833e-13 3.715936046977223e-20
6.187401249150058 3.2045158025433783e-21 5.263081937150789e-13 5.263081524667289e-13 4.124835010374724e-20
6.1990139391386085 3.433123888234996e-21 5.649129384465662e-13 5.649128950926379e-13 4.335392825864656e-20
6.204828454712694 3.553545531550452e-21 5.852765132349474e-13 5.852764687865969e-13 4.444835069954261e-20
6.210648424152782 3.6414610773382285e-21 6.003189468287728e-13 6.003189014687298e-13 4.536004306120591e-20
6.233982942956859 3.9401710153772666e-21 6.520037816040373e-13 6.520037330015814e-13 4.860245601739673e-20
6.239830258556775 3.97837090815747e-21 6.589424393373663e-13 6.589423902827261e-13 4.9054639850449357e-20
6.245683058788269 3.981710881593028e-21 6.60114233167012e-13 6.601141836562297e-13 4.951078235364255e-20
6.257405133728602 3.973568334661556e-21 6.600006956715409e-13 6.600006453606919e-13 5.031084892304016e-20
6.269149208991335 3.9149024376716764e-21 6.514768428078244e-13 6.514767922274338e-13 5.0580390778154756e-20
6.280915325867298 3.767691428348564e-21 6.281562696136672e-13 6.281562194235909e-13 5.019007626380528e-20
6.304513850009849 3.404629562035871e-21 5.697586167348931e-13 5.697585679398151e-13 4.8795078106000866e-20
6.32820103803542 2.9545786187478765e-21 4.963011155197336e-13 4.963010688856092e-13 4.663412446682729e-20
6.3519772230701035 2.541854986132564e-21 4.2857727130842214e-13 4.2857722671522786e-13 4.459319412073632e-20
6.375842739491607 2.1946476733313525e-21 3.7142560430491584e-13 3.7142556150107604e-13 4.280383973762541e-20
6.399797922933955 1.9164007775484627e-21 3.2555324797106446e-13 3.255532063578337e-13 4.161323075694776e-20
6.42384311029221 1.6850799489088612e-21 2.8733257806152593e-13 2.8733253744941894e-13 4.0612106976711884e-20
6.447978639727206 1.5165466535140574e-21 2.595665938892046e-13 2.595665537208297e-13 4.016837490518529e-20
6.472204850670314 1.3761705572783673e-21 2.3642530048409705e-13 2.3642526062048745e-13 3.9863609608312594e-20
6.496522083828205 1.2849844868316143e-21 2.2158901999069835e-13 2.215889799461179e-13 4.0044580414399055e-20
