Dust emission spectrum from A.P. Jones, M. Kohler, N. Ysard, M. Bocchio, and L. Verstraete (2017), A&A, 602A, 46J 
inside the DustPedia framework.

lambda    nu*dP/dnu     j_nu    j_nu(carb.) j_nu(sil)
 (um)   (erg s-1 H-1) (Jy cm2 sr-1 H-1)
0.9927057738263894 4.381250299465372e-21 1.154484338914029e-13 1.1544842448342765e-13 9.407975230033778e-21
1.0001793341362166 4.454851489516768e-21 1.1827161864193225e-13 1.1827160732127485e-13 1.1320657426556468e-20
1.0077091589558085 4.528756278642265e-21 1.211388894812028e-13 1.2113887587719882e-13 1.3604004003985845e-20
1.0114953028030835 4.5658193538323476e-21 1.2258914838605041e-13 1.2258913348055615e-13 1.490549425590369e-20
1.0152956718711033 4.602954586258517e-21 1.240505396633487e-13 1.240505233373171e-13 1.6326031612513953e-20
1.0229392996569957 4.6774005847285605e-21 1.2700589008595908e-13 1.2700587051921255e-13 1.9566746532859493e-20
1.0267826658714554 4.7146269098928296e-21 1.2849768160799458e-13 1.284976601970748e-13 2.1410919788920372e-20
1.0306404723013447 4.751918973176788e-21 1.3000068855222687e-13 1.3000066513115576e-13 2.342107108122517e-20
1.03451277320114 4.789275725198959e-21 1.3151495207733657e-13 1.3151492646595893e-13 2.5611377709503793e-20
1.0383996230291617 4.826696153190014e-21 1.330405143109733e-13 1.330404863138152e-13 2.7997158051541226e-20
1.0403485208654093 4.845429939422134e-21 1.338075458837831e-13 1.338075166153122e-13 2.926847085975953e-20
1.0423010764483396 4.864179281917026e-21 1.3457741839227676e-13 1.345773877973194e-13 3.059495733690382e-20
1.0462171883269815 4.9017241746030694e-21 1.3612570851503874e-13 1.3612567509239937e-13 3.342263937182885e-20
1.0471985131304309 4.911119942350275e-21 1.3651456539762368e-13 1.365145312299178e-13 3.416770589159284e-20
1.048180758391296 4.9205195004284025e-21 1.369041374516728e-13 1.3690410252301943e-13 3.492865340179357e-20
1.0501480137395462 4.939329933841645e-21 1.376854299714974e-13 1.376853934720128e-13 3.649948459006837e-20
1.0521189612883777 4.9581553689677414e-21 1.3846959191496257e-13 1.3846955377718103e-13 3.813778152690331e-20
1.0531058218030118 4.9675612611836206e-21 1.388624036182436e-13 1.3886236463510157e-13 3.898314202469784e-20
1.0540936079674168 4.976930180798451e-21 1.3925479589558244e-13 1.3925475604898098e-13 3.9846601442970296e-20
1.058054026499678 5.014441091897919e-21 1.4083150196158622e-13 1.4083145847465682e-13 4.348692939129241e-20
1.0590464539527713 5.023827568285866e-21 1.4122746647525147e-13 1.4122742202972677e-13 4.444552476614845e-20
1.06003981227728 5.0332175208898995e-21 1.4162414770841807e-13 1.4162410228411108e-13 4.542430702069162e-20
1.0620293250338977 5.052007809648267e-21 1.424196634150384e-13 1.4241961597098378e-13 4.744405465654273e-20
1.0660195594769086 5.0896296153165266e-21 1.4401932965160576e-13 1.44019277907532e-13 5.1744073758820326e-20
1.070024785945596 5.1273058344410925e-21 1.4563055140324332e-13 1.4563049498814043e-13 5.641510284271736e-20
1.0740450607676866 5.165035837702021e-21 1.472533807857457e-13 1.4725331929832257e-13 6.148742311816806e-20
1.07808044048254 5.202819041783333e-21 1.4888787134688354e-13 1.4888780435324765e-13 6.699363592172716e-20
1.0861967418109137 5.2784853401114984e-21 1.5219039650515397e-13 1.5219031705439772e-13 7.945075621378978e-20
1.0902777775684922 5.316236517674621e-21 1.5385474246172977e-13 1.5385465598169832e-13 8.648003146589923e-20
1.0943741465085532 5.354036787261054e-21 1.5553087261794763e-13 1.555307785176663e-13 9.410028133151825e-20
1.1026131145906286 5.429783334734848e-21 1.5891873046398265e-13 1.5891861915916325e-13 1.1130481938301913e-19
1.1109141095355224 5.505722965339096e-21 1.6235447764172623e-13 1.6235434615880204e-13 1.3148292420902763e-19
1.1192775983109025 5.5817953099695356e-21 1.6583689248143667e-13 1.6583673736444067e-13 1.5511699605933084e-19
1.1277040513999907 5.657727973197976e-21 1.6935835872793025e-13 1.693581759656889e-13 1.8276224135305898e-19
1.1361939428280308 5.7338440620210574e-21 1.729289802173005e-13 1.7292876516051529e-13 2.1505678521908036e-19
1.1447477501889525 5.8101451723532025e-21 1.7654938762971268e-13 1.7654913489666066e-13 2.5273305199580123e-19
1.1533659546722406 5.886660604774082e-21 1.802210675819614e-13 1.8022077095097784e-13 2.9663098357781945e-19
1.1707974979042381 6.0405683442006366e-21 1.877279860577857e-13 1.877275789789902e-13 4.070787955364236e-19
1.1884924949847024 6.195375014261537e-21 1.9544901073676855e-13 1.9544845488984167e-13 5.558469269684574e-19
1.2064549276569216 6.352128535549067e-21 2.0342288631894202e-13 2.0342213109059703e-13 7.552283449705148e-19
1.2246888378427687 6.5098393743217045e-21 2.116242662986601e-13 2.116232452084986e-13 1.0210901615261678e-18
1.2431983285522175 6.668394080658696e-21 2.200549326393308e-13 2.200535587991598e-13 1.3738401709804167e-18
1.2619875648066055 6.828041016325247e-21 2.287286832697717e-13 2.28726843676965e-13 1.8395928067214852e-18
1.3004222497298317 7.149719193440073e-21 2.467986670101978e-13 2.4679541520876503e-13 3.2518014327340127e-18
1.3400274889804893 7.476001175039636e-21 2.659209180739353e-13 2.6591527548853506e-13 5.642585400278915e-18
1.3808389325824078 7.808275673328847e-21 2.861986588494346e-13 2.8618904297629266e-13 9.615873141990559e-18
1.4228933163050095 8.149530835587204e-21 3.0780408537937644e-13 3.077879836907325e-13 1.610168864397923e-17
1.466228494730424 8.505871542368375e-21 3.3104719164582704e-13 3.3102068566646696e-13 2.6505979360045553e-17
1.5108834753276823 8.876992289212747e-21 3.560133199035444e-13 3.5597040603608105e-13 4.291386746327687e-17
1.5568984535646726 9.263059731316415e-21 3.828108027316251e-13 3.8274239704176445e-13 6.840568986069609e-17
1.6043148490894465 9.66682842821167e-21 4.1166414904262115e-13 4.1155659130105583e-13 1.0755774156537455e-16
1.6531753430134553 1.0091303966411411e-20 4.4282857789775735e-13 4.426619573563525e-13 1.6662054140487658e-16
1.7035239163302658 1.0540027865572262e-20 4.766059142626393e-13 4.763515513206127e-13 2.5436294202657565e-16
1.755405889504358 1.1021820527481191e-20 5.135707952252124e-13 5.131879405672862e-13 3.8285465792637325e-16
1.8088679632656115 1.1537860971266561e-20 5.539895869742534e-13 5.53421229688762e-13 5.683572854915737e-16
1.8639582606462262 1.2089329121614473e-20 5.981468460777569e-13 5.97314339465802e-13 8.325066119551526e-16
1.9207263702978936 1.2679316060527151e-20 6.464437780706333e-13 6.452401436456782e-13 1.2036344249551217e-15
1.979223391128241 1.3311925225296042e-20 6.993669700946335e-13 6.976486341707011e-13 1.7183359239322978e-15
2.039501978296691 1.3991222980648005e-20 7.574417541719107e-13 7.550186013681826e-13 2.423152803728196e-15
2.1016163906111602 1.4725682249130576e-20 8.214824788938866e-13 8.181057991880165e-13 3.376679705869914e-15
2.1656225393682647 1.5520930749868267e-20 8.922158972296129e-13 8.875645127626146e-13 4.651384466998506e-15
2.231578038680979 1.637829451964028e-20 9.701752435376348e-13 9.638396023025e-13 6.3356412351347346e-15
2.299542257339062 1.7301592543043177e-20 1.0560802184034364e-12 1.0475444022046107e-12 8.535816198825672e-15
2.369576372248914 1.8296409113366017e-20 1.1508163050019947e-12 1.1394378539375928e-12 1.1378451064402053e-14
2.4417434235010123 1.936897631801999e-20 1.2553826664461236e-12 1.2403708771396622e-12 1.5011789306461623e-14
2.5161083711144245 2.0528839399572405e-20 1.3710811903584524e-12 1.3514733454364835e-12 1.9607844921968872e-14
2.5927381535095444 2.1789585526089538e-20 1.4996056256668756e-12 1.4742421960991805e-12 2.536342956769512e-14
2.6717017477616296 2.3163250322678202e-20 1.6426948976384774e-12 1.6101955289853717e-12 3.249936865310556e-14
2.753070231689431 2.4665619072000653e-20 1.8025144031900948e-12 1.7612540672264809e-12 4.126033596361347e-14
2.836916847834745 2.633397425705685e-20 1.9830444371148825e-12 1.9311288573942788e-12 5.191557972060424e-14
2.9233170693905177 2.8245154092347297e-20 2.19174136339053e-12 2.126997838725203e-12 6.474352466532673e-14
2.967498994190263 2.935647571131645e-20 2.3124051618198922e-12 2.2404849375186457e-12 7.192022430124635e-14
3.0123486681368425 3.054100856362963e-20 2.4420696498993434e-12 2.3622806694480803e-12 7.978898045126351e-14
3.0578761833420214 3.224708879816802e-20 2.617458730940155e-12 2.529027701853969e-12 8.843102908618533e-14
3.1040917844459814 3.41899399671997e-20 2.8171004023453903e-12 2.719286591841878e-12 9.781381050351169e-14
3.127460860933648 3.5799834836365225e-20 2.971955753966234e-12 2.8691267293864427e-12 1.0282902457979103e-13
3.1510058709225794 3.7783602734250275e-20 3.1602541602299405e-12 3.0522037126627974e-12 1.0805044756714282e-13
3.162844764501044 3.9478877267045633e-20 3.3144548184898194e-12 3.2037046614586257e-12 1.1075015703119321e-13
3.1747281389236908 4.138018295177435e-20 3.4871319486781757e-12 3.373628866007803e-12 1.1350308267037293e-13
3.1986289994194426 4.643711939268986e-20 3.94274395851168e-12 3.823558484251222e-12 1.191854742604576e-13
3.2227097969389145 5.780163575897289e-20 4.94459540905618e-12 4.8193949973895575e-12 1.2520041166662184e-13
3.2348180950136065 6.834434762046479e-20 5.868429602679536e-12 5.740020859791565e-12 1.2840874288797098e-13
3.240889293275058 7.618656719912355e-20 6.5540844764560205e-12 6.423983413646155e-12 1.3010106280986787e-13
3.2469718861334385 8.526415196062955e-20 7.348766330142088e-12 7.216914221250827e-12 1.3185210889125928e-13
3.2714166318528037 1.3276170999377444e-19 1.1528641328485122e-11 1.1389558178108396e-11 1.390831503767243e-13
3.2744851364798273 1.3574631040130453e-19 1.1798872027486978e-11 1.1658938167162606e-11 1.3993386032436885e-13
3.2775565192852394 1.388095163984275e-19 1.2076438214645153e-11 1.1935649525138664e-11 1.4078868950649202e-13
3.283707930232385 1.3596781318284466e-19 1.1851411220461015e-11 1.1709096757545115e-11 1.4231446291590138e-13
3.2898708863219004 1.267864913661268e-19 1.1071877462991854e-11 1.0928177160832054e-11 1.4370030215980327e-13
3.29141343181113 1.2461735044919497e-19 1.088755553903197e-11 1.0743507314059316e-11 1.4404822497265436e-13
3.292184975758714 1.2355092143831245e-19 1.0796914205355905e-11 1.0652691799325988e-11 1.442224060299155e-13
3.295272960557952 1.168877237615843e-19 1.0224209249139766e-11 1.007930982181347e-11 1.4489942732629756e-13
3.3076538914384823 9.363932082434279e-20 8.221437268220358e-12 8.073819943598364e-12 1.4761732462199396e-13
3.310756385682612 8.886210264933235e-20 7.809320441672272e-12 7.661018325350288e-12 1.4830211632198145e-13
3.313861789986515 8.443670750429261e-20 7.427370951372546e-12 7.278381914094094e-12 1.4898903727845318e-13
3.3200813396944477 7.82810161553322e-20 6.8988167849150736e-12 6.7483489898899985e-12 1.504677950250742e-13
3.345076488085796 6.77232071391201e-20 6.0133018184060515e-12 5.8562407090363925e-12 1.5706110936965692e-13
3.3482140837626964 6.820677568954907e-20 6.0619195963630786e-12 5.903965175188498e-12 1.5795442117458063e-13
3.3513546224236106 6.869444095856215e-20 6.110987728218609e-12 5.95213611654805e-12 1.588516116705608e-13
3.3576445397418455 7.190919398562031e-20 6.408974906330607e-12 6.248246998187517e-12 1.6072790814308787e-13
3.3702598118196083 8.341272866222697e-20 7.462170076553835e-12 7.297506802115854e-12 1.6466327443798093e-13
3.382922481734668 8.629007288754171e-20 7.748583458533134e-12 7.580099453412996e-12 1.684840051201394e-13
3.389271646505754 8.77710195601151e-20 7.896360270201283e-12 7.725940527011553e-12 1.7041974318973033e-13
3.395632727569191 8.93958329168379e-20 8.057631815485051e-12 7.885217176030067e-12 1.7241463945498485e-13
3.421196662673239 9.721877580613058e-20 8.828717505655765e-12 8.648049659268529e-12 1.8066784638723738e-13
3.4276182099114902 9.595141123941918e-20 8.729979847090623e-12 8.547474950230326e-12 1.8250489686029854e-13
3.4340518103208963 8.991479688623761e-20 8.196103684477017e-12 8.011863587625822e-12 1.8424009685119234e-13
3.4469541582030403 8.129047229654232e-20 7.437801564999091e-12 7.2502356958317476e-12 1.8756586916734684e-13
3.472904465399547 7.917964889824643e-20 7.299209710539864e-12 7.103975556316897e-12 1.95234154222969e-13
3.4990501388274233 7.582965430036269e-20 7.0430159964774e-12 6.839945383066661e-12 2.0307061341073718e-13
3.5253949054701885 6.312155466859347e-20 5.9068357204708665e-12 5.69616906287181e-12 2.1066665759905667e-13
3.5519380250092896 5.103750861957945e-20 4.811985154627583e-12 4.593697524439751e-12 2.182876301878308e-13
3.578680990867387 4.6558477551564514e-20 4.422737768205047e-12 4.196099141023837e-12 2.266386271812099e-13
3.605625307711299 4.5074276085234155e-20 4.313986551447989e-12 4.078561116566339e-12 2.354254348816495e-13
3.660119384959845 4.4676147950553857e-20 4.3405064396483625e-12 4.086658996875862e-12 2.53847442772501e-13
3.715437065384467 4.46786538174479e-20 4.406354373223868e-12 4.133142592115571e-12 2.732117811082966e-13
3.8285932144167436 4.6277156413106726e-20 4.7030037322362166e-12 4.3883701739015105e-12 3.146335583347058e-13
3.94519561050918 4.831040497273701e-20 5.05916277055055e-12 4.69965663990858e-12 3.5950613064197104e-13
4.06534921144712 5.0514458267815504e-20 5.4510854515183936e-12 5.043380307744307e-12 4.0770514377408614e-13
4.189162171576248 5.280303005368314e-20 5.871586334874002e-12 5.412339260543614e-12 4.592470743303852e-13
4.316745939156006 5.513023158264191e-20 6.317070721553428e-12 5.803216540231127e-12 5.138541813223019e-13
4.448215356677963 5.74634810391428e-20 6.784958089984612e-12 6.214288273305026e-12 5.706698166795862e-13
4.58368876423945 5.978717150144875e-20 7.274322677637592e-12 6.6446391812917354e-12 6.296834963458542e-13
4.723288106065518 6.209463362252436e-20 7.785167106536212e-12 7.093977889555139e-12 6.911892169810741e-13
4.867139040275056 6.437005685129025e-20 8.3162412349234e-12 7.562846587837212e-12 7.533946470861884e-13
4.940699165968905 6.551408617670082e-20 8.59196564136555e-12 7.80703178545713e-12 7.849338559084191e-13
5.015371051989984 6.66292397894567e-20 8.870280636178505e-12 8.053629525668423e-12 8.166511105100844e-13
5.091171501069577 6.778539041789195e-20 9.160586115655559e-12 8.311327128517614e-12 8.492589871379416e-13
5.129500256944802 6.835065431760715e-20 9.306516793480421e-12 8.440929635222183e-12 8.655871582582368e-13
5.168117569889187 6.891407593914691e-20 9.453872808935092e-12 8.571769220886436e-12 8.821035880486562e-13
5.20702561229733 6.952899105085008e-20 9.610037320124138e-12 8.709814800754172e-12 9.002225193699649e-13
5.246226572918644 7.01363950491526e-20 9.766971392731383e-12 8.848569582688936e-12 9.18401810042448e-13
5.265937586045735 7.043723048648306e-20 9.845718441592228e-12 8.918207204371177e-12 9.275112372210487e-13
5.285722656980489 7.073612971710994e-20 9.924647689673641e-12 8.988015374352539e-12 9.366323153211033e-13
5.305582063971359 7.103307479565403e-20 1.0003755846496322e-11 9.057991963967326e-12 9.457638825289996e-13
5.3255160863122235 7.133807372252173e-20 1.0084456854156733e-11 9.129472255690485e-12 9.549845984662457e-13
5.365609099470188 7.201958593418238e-20 1.0257442308733611e-11 9.283374015567497e-12 9.740682931661114e-13
5.406003951863644 7.269690388657345e-20 1.0431858962656794e-11 9.438650505337176e-12 9.932084573196191e-13
5.446702915881641 7.337014850524361e-20 1.06077315130292e-11 9.595335746039655e-12 1.012395766989544e-12
5.487708281020852 7.40581914600092e-20 1.0787816536928648e-11 9.756105745878808e-12 1.03171079104984e-12
5.529022354014368 7.490861157997096e-20 1.0993842893289435e-11 9.941999216224011e-12 1.051843677065423e-12
5.570647458961463 7.576691495673278e-20 1.1203525630806536e-11 1.0131494780688496e-11 1.07203085011804e-12
5.612585937458331 7.663433942998887e-20 1.1417101317354191e-11 1.032483849952532e-11 1.092262817828876e-12
5.654840148729818 7.754016460914248e-20 1.1639021875933883e-11 1.0526381904216e-11 1.1126399717178836e-12
5.67608639626678 7.812101726870635e-20 1.1770267152298676e-11 1.0646950103138831e-11 1.1233170491598483e-12
5.686739436050992 7.841499026516901e-20 1.1836733110773214e-11 1.0708071720847943e-11 1.1286613899252725e-12
5.6974124697621304 7.871142304859017e-20 1.1903779100464322e-11 1.0769769702674242e-11 1.1340093977900838e-12
5.718818669136295 7.931196558505175e-20 1.2039666925282247e-11 1.0894951115920234e-11 1.144715809362009e-12
5.740305295436557 7.995789526815874e-20 1.2183323539913367e-11 1.102780144836729e-11 1.1555220915460775e-12
5.7835210386641895 8.157142610294145e-20 1.2522752806513322e-11 1.1344906428325522e-11 1.1778463781877962e-12
5.827062130521658 8.334821614880956e-20 1.289185437466918e-11 1.1691403348089566e-11 1.2004510265796118e-12
5.8489554468988025 8.457308812756567e-20 1.3130459822022648e-11 1.1917751283771595e-11 1.2127085382510472e-12
5.870931020387893 8.585600106445612e-20 1.3379721299940497e-11 1.215472275165224e-11 1.2249985482882534e-12
5.892989160043636 8.720168082596721e-20 1.364048873909257e-11 1.2403168897427217e-11 1.237319841665357e-12
5.915130176081913 8.870967638779224e-20 1.3928512385694674e-11 1.2678404005091207e-11 1.2501083806034686e-12
5.95966208400165 9.288567310750847e-20 1.4693992078287165e-11 1.3414447474268783e-11 1.279544604018381e-12
6.004529249263818 9.876818845967322e-20 1.574220218843872e-11 1.4429366522245307e-11 1.3128356661934101e-12
6.027089341400364 1.0282040092142982e-19 1.6449638383956267e-11 1.5117419561866623e-11 1.3322188220896483e-12
6.049734195844842 1.0753379431259249e-19 1.7268344208458603e-11 1.5915561582290262e-11 1.3527826261683429e-12
6.095279466722835 1.210416003861646e-19 1.9583833715784262e-11 1.8180003727896632e-11 1.4038299878876338e-12
6.141167624020661 1.414774855569292e-19 2.3062570830744442e-11 2.159186762493401e-11 1.4707032058104293e-12
6.164241091010745 1.544716652893502e-19 2.5275390711825394e-11 2.376241780970755e-11 1.5129729021178478e-12
6.187401249150058 1.6899673958812849e-19 2.7755946369735984e-11 2.6199627127647454e-11 1.5563192420885297e-12
6.1990139391386085 1.7604171622163887e-19 2.8967274831165466e-11 2.738891048871878e-11 1.5783643424466807e-12
6.204828454712694 1.7972943727639245e-19 2.960182089714493e-11 2.8012328004942878e-11 1.5894928922020508e-12
6.210648424152782 1.8239362234512247e-19 3.0068795175629096e-11 2.846988696589513e-11 1.5989082097339608e-12
6.233982942956859 1.9128374641900808e-19 3.1652871293618064e-11 3.002141718104481e-11 1.6314541125732564e-12
6.239830258556775 1.9232860461849247e-19 3.185562201397561e-11 3.021986321842156e-11 1.6357587955540512e-12
6.245683058788269 1.9228840190065335e-19 3.187883669664536e-11 3.023876853073173e-11 1.6400681659136422e-12
6.257405133728602 1.9174026585981299e-19 3.184762364644257e-11 3.020013622054633e-11 1.6474874258962359e-12
6.269149208991335 1.8960886843583105e-19 3.155271145157944e-11 2.9903096027795813e-11 1.649615423783631e-12
6.280915325867298 1.8472373716227316e-19 3.079747263055699e-11 2.915226415440289e-11 1.645208476154103e-12
6.304513850009849 1.7286625675967035e-19 2.8928856293144924e-11 2.7298362233578237e-11 1.6304940595666879e-12
6.32820103803542 1.5849147685890038e-19 2.662291545275498e-11 2.5013412514180136e-11 1.609502938574837e-12
6.3519772230701035 1.4540722898537862e-19 2.4516832693862585e-11 2.292631106975977e-11 1.5905216241028139e-12
6.375842739491607 1.3434869828064273e-19 2.2737383796425183e-11 2.1163775448545837e-11 1.5736083478793469e-12
6.399797922933955 1.2563179971562932e-19 2.1342007854011685e-11 1.9777889331899427e-11 1.564118522112257e-12
6.42384311029221 1.183395092570621e-19 2.0178743627793614e-11 1.862262942589089e-11 1.55611420190272e-12
6.447978639727206 1.1307206938565343e-19 1.9353002986377186e-11 1.7799121250913305e-11 1.5538817354638804e-12
6.472204850670314 1.0865982226877926e-19 1.866769420009342e-11 1.7114904442475634e-11 1.5527897576177833e-12
6.496522083828205 1.0580269877835929e-19 1.8245135700023366e-11 1.668877652245634e-11 1.5563591775670243e-12
