Dust emission spectrum from A.P. Jones, M. Kohler, N. Ysard, M. Bocchio, and L. Verstraete (2017), A&A, 602A, 46J 
inside the DustPedia framework.

lambda    nu*dP/dnu     j_nu    j_nu(carb.) j_nu(sil)
 (um)   (erg s-1 H-1) (Jy cm2 sr-1 H-1)
0.9927057738263894 3.355925423270319e-24 8.843054103075993e-17 8.843054101223188e-17 1.852807711512177e-26
1.0001793341362166 3.4113056695984884e-24 9.05665753786056e-17 9.056657535629044e-17 2.2315163015020088e-26
1.0077091589558085 3.4666072046120606e-24 9.27276543925966e-17 9.272765436575511e-17 2.684150072150272e-26
1.0114953028030835 3.494221674323994e-24 9.381747855791017e-17 9.38174785284864e-17 2.9423780953057994e-26
1.0152956718711033 3.5218083508367525e-24 9.491343404004866e-17 9.491343400780467e-17 3.2243991779676785e-26
1.0229392996569957 3.57686049810491e-24 9.712282346701848e-17 9.712282342833457e-17 3.8683914642163515e-26
1.0267826658714554 3.6042591588825524e-24 9.823448486644228e-17 9.823448482409028e-17 4.2352020834355575e-26
1.0306404723013447 3.631617963337404e-24 9.935203829388488e-17 9.935203824753209e-17 4.63528245936234e-26
1.03451277320114 3.658934284396149e-24 1.0047543609456581e-16 1.0047543604385079e-16 5.0715015530083416e-26
1.0383996230291617 3.686205509803354e-24 1.0160463002338803e-16 1.0160462996791841e-16 5.546961918619217e-26
1.0403485208654093 3.699823399483901e-24 1.0217138530071861e-16 1.0217138524271416e-16 5.800445356615123e-26
1.0423010764483396 3.713429042625785e-24 1.0273957125661854e-16 1.0273957119596835e-16 6.065017511053995e-26
1.0462171883269815 3.740602301745701e-24 1.0388021040358751e-16 1.0388021033729461e-16 6.629292750360628e-26
1.0471985131304309 3.747387460329929e-24 1.0416625464834926e-16 1.0416625458056891e-16 6.778035506103575e-26
1.048180758391296 3.754169276511369e-24 1.0445265110800023e-16 1.0445265103870046e-16 6.929974316358531e-26
1.0501480137395462 3.767722722343063e-24 1.0502649751840137e-16 1.0502649744596439e-16 7.243702924508824e-26
1.0521189612883777 3.781262321262096e-24 1.0560174330672396e-16 1.0560174323101375e-16 7.571017014559514e-26
1.0531058218030118 3.788016428648849e-24 1.0588959824971358e-16 1.0588959817231408e-16 7.739953610031295e-26
1.0540936079674168 3.794732880664794e-24 1.0617684668633515e-16 1.0617684660720982e-16 7.912535384012622e-26
1.058054026499678 3.821560689773447e-24 1.0732923608330753e-16 1.0732923599690298e-16 8.640451976261172e-26
1.0590464539527713 3.828257947237031e-24 1.0761817828204339e-16 1.0761817819372124e-16 8.832213477283387e-26
1.06003981227728 3.8349512489978246e-24 1.0790745678852032e-16 1.0790745669823986e-16 9.028047103622295e-26
1.0620293250338977 3.848325830439829e-24 1.0848701944520488e-16 1.0848701935088227e-16 9.432261355207452e-26
1.0660195594769086 3.875025824344776e-24 1.0965014427087902e-16 1.0965014416794619e-16 1.029328173077254e-25
1.070024785945596 3.901658212190783e-24 1.1081855757689038e-16 1.1081855746459791e-16 1.1229248078663927e-25
1.0740450607676866 3.928220554110372e-24 1.1199220590929398e-16 1.1199220578683054e-16 1.224634261416627e-25
1.07808044048254 3.954710430063344e-24 1.1317103535540763e-16 1.1317103522189534e-16 1.3351227320321038e-25
1.0861967418109137 4.007416370033484e-24 1.1554266934911256e-16 1.1554266919057631e-16 1.585362662853945e-25
1.0902777775684922 4.03352119406972e-24 1.167322714977648e-16 1.1673227132509286e-16 1.7267193403892902e-25
1.0943741465085532 4.059542218418671e-24 1.1792674737729054e-16 1.1792674718928326e-16 1.8800726777252696e-25
1.1026131145906286 4.1113236831514666e-24 1.203300942181778e-16 1.203300939955084e-16 2.2266938697772133e-25
1.1109141095355224 4.162742619895818e-24 1.227522539482718e-16 1.2275225368488862e-16 2.6338317469641326e-25
1.1192775983109025 4.213733495179713e-24 1.251913461135787e-16 1.2519134580243639e-16 3.1114235057779355e-25
1.1277040513999907 4.2640595434570765e-24 1.2764030529906642e-16 1.2764030493197357e-16 3.6709285387141926e-25
1.1361939428280308 4.3139640700237735e-24 1.30106329933977e-16 1.3010632950142275e-16 4.325542401424573e-25
1.1447477501889525 4.363430579537184e-24 1.3258894122778752e-16 1.3258894071874344e-16 5.090440787891455e-25
1.1533659546722406 4.412469900770917e-24 1.3508848047826681e-16 1.3508847987996063e-16 5.983061631294335e-25
1.1707974979042381 4.509425753313565e-24 1.4014333862465287e-16 1.4014333780120734e-16 8.234455433367605e-25
1.1884924949847024 4.60446596082852e-24 1.4525970017043882e-16 1.4525969904275114e-16 1.1276876975287983e-24
1.2064549276569216 4.698334531434471e-24 1.504611825670088e-16 1.504611810302153e-16 1.5367934991668622e-24
1.2246888378427687 4.790008327978298e-24 1.5571536249748103e-16 1.5571536041332763e-16 2.084153362709007e-24
1.2431983285522175 4.879274179436533e-24 1.610145318194321e-16 1.6101452900653436e-16 2.812897711388399e-24
1.2619875648066055 4.966100504408574e-24 1.6635659139171983e-16 1.663565876132665e-16 3.778453327581711e-24
1.3004222497298317 5.130999165783966e-24 1.7711517337740794e-16 1.7711516665491744e-16 6.722490529652099e-24
1.3400274889804893 5.28407331330256e-24 1.8795417412918593e-16 1.8795416238617673e-16 1.1743009156782304e-23
1.3808389325824078 5.424771323785638e-24 1.9883548460455787e-16 1.9883546445514254e-16 2.0149415306300763e-23
1.4228933163050095 5.5537911026763716e-24 2.0976417234750477e-16 2.0976413836992896e-16 3.39775758331168e-23
1.466228494730424 5.6742394380722704e-24 2.2084051250282438e-16 2.2084045616692165e-16 5.633590272681016e-23
1.5108834753276823 5.783808498809638e-24 2.319606459329443e-16 2.319605540506549e-16 9.1882289466329e-23
1.5568984535646726 5.8806356026873326e-24 2.4302669970119993e-16 2.430265521358739e-16 1.475653260652695e-22
1.6043148490894465 5.964916840437644e-24 2.540173784467415e-16 2.540171446489265e-16 2.337978150800103e-22
1.6531753430134553 6.036927621603375e-24 2.6491364073903515e-16 2.6491327573261083e-16 3.6500642427059323e-22
1.7035239163302658 6.097528664291294e-24 2.75722062678761e-16 2.757215010248021e-16 5.616539588980817e-22
1.755405889504358 6.1515843105528326e-24 2.866381319119106e-16 2.8663727966949174e-16 8.522424188662329e-22
1.8088679632656115 6.197926326039397e-24 2.975929987378327e-16 2.975917230689569e-16 1.2756688756688502e-21
1.8639582606462262 6.235770856404742e-24 3.0852883837477803e-16 3.085269540042493e-16 1.884370528672734e-21
1.9207263702978936 6.2657316412524414e-24 3.194528171087754e-16 3.194500691340899e-16 2.7479746854571157e-21
1.979223391128241 6.289202586984731e-24 3.304150589136911e-16 3.30411101189205e-16 3.957724486059083e-21
2.039501978296691 6.30784506368831e-24 3.414873193496496e-16 3.4148168789322204e-16 5.6314564274485134e-21
2.1016163906111602 6.3262688576427354e-24 3.52915330875918e-16 3.529074109955673e-16 7.919880350700146e-21
2.1656225393682647 6.347158593163713e-24 3.64864445974432e-16 3.6485343337249167e-16 1.1012601940414424e-20
2.231578038680979 6.3707277420187534e-24 3.7737276803841226e-16 3.773576229733006e-16 1.5145065111799932e-20
2.299542257339062 6.3985934518068655e-24 3.9056681939814245e-16 3.905462132650589e-16 2.0606133083469524e-20
2.369576372248914 6.434295163089121e-24 4.047073794097172e-16 4.0467963291877e-16 2.774649094731791e-20
2.4417434235010123 6.4820077160447774e-24 4.2012546233132533e-16 4.200884762500094e-16 3.698608131595666e-20
2.5161083711144245 6.548863082681569e-24 4.37385807162805e-16 4.3733698361676625e-16 4.882354603872518e-20
2.5927381535095444 6.646511302961289e-24 4.574270460099006e-16 4.573632020946501e-16 6.384391525035639e-20
2.6717017477616296 6.788834471938812e-24 4.814515921821057e-16 4.813688699139853e-16 8.272226812045037e-20
2.753070231689431 6.996710246109122e-24 5.113056743779697e-16 5.111994445753681e-16 1.0622980260167806e-19
2.836916847834745 7.317422227730287e-24 5.510286180534567e-16 5.50893375406166e-16 1.3524264729066452e-19
2.9233170693905177 7.855055375565835e-24 6.095293274755162e-16 6.093586123219896e-16 1.7071515352676154e-19
2.967498994190263 8.307930080177853e-24 6.54414398729626e-16 6.542235162865652e-16 1.9088244306061707e-19
3.0123486681368425 8.83602678843814e-24 7.065317702519873e-16 7.063186222979724e-16 2.1314795401480191e-19
3.0578761833420214 1.0010310790567315e-23 8.125252962271554e-16 8.122875362679168e-16 2.3775995923857613e-19
3.1040917844459814 1.1521667937506362e-23 9.493346701859556e-16 9.490699579470221e-16 2.6471223893353366e-19
3.127460860933648 1.3116958976916804e-23 1.0889162445629007e-15 1.0886370342005228e-15 2.7921036237784444e-19
3.1510058709225794 1.5241257514468422e-23 1.2747923432820952e-15 1.274497971224005e-15 2.943720580897222e-19
3.162844764501044 1.7217410563020234e-23 1.445490179888047e-15 1.445187942524718e-15 3.022373633288133e-19
3.1747281389236908 1.9514999813915274e-23 1.6445403203959155e-15 1.644230044394623e-15 3.1027600129260817e-19
3.1986289994194426 2.592180168250988e-23 2.2008907596783996e-15 2.200563834776609e-15 3.2692490179051263e-19
3.2227097969389145 4.1019695975664235e-23 3.5089975869872113e-15 3.5086529680800153e-15 3.4461890719532547e-19
3.2348180950136065 5.53354043913615e-23 4.751408660886427e-15 4.751054585820037e-15 3.54075066390501e-19
3.240889293275058 6.60379367605038e-23 5.68103055553055e-15 5.680671492184648e-15 3.5906334590145173e-19
3.2469718861334385 7.841921452179779e-23 6.7588132886148266e-15 6.758449063470288e-15 3.6422514453823397e-19
3.2714166318528037 1.4445576842192489e-22 1.254411940042933e-14 1.254373380113008e-14 3.855992992518063e-19
3.2744851364798273 1.4858410556788478e-22 1.2914714526909458e-14 1.2914326396821439e-14 3.881300880156499e-19
3.2775565192852394 1.5283096258342144e-22 1.329630507195069e-14 1.3295914397290392e-14 3.9067466030210043e-19
3.283707930232385 1.487479099294115e-22 1.296536737254797e-14 1.2964972123490033e-14 3.9524905793651357e-19
3.2898708863219004 1.3579751829373544e-22 1.1858782951764279e-14 1.1858383517674126e-14 3.9943409015245163e-19
3.29141343181113 1.3274345751524183e-22 1.1597516404664198e-14 1.1597115919090858e-14 4.004855733426887e-19
3.292184975758714 1.3124279493465012e-22 1.1469094527862638e-14 1.1468693515762338e-14 4.010121003022584e-19
3.295272960557952 1.2177099160584876e-22 1.0651350360734962e-14 1.065094729639124e-14 4.0306434372257064e-19
3.3076538914384823 8.8956322719699e-23 7.810274790688644e-15 7.809863471916162e-15 4.113187724829062e-19
3.310756385682612 8.227730086128412e-23 7.2306392527892e-15 7.230225850994935e-15 4.134017942646777e-19
3.313861789986515 7.611470598507483e-23 6.695336340264885e-15 6.6949208476539365e-15 4.154926109487619e-19
3.3200813396944477 6.747277268896555e-23 5.946298599749181e-15 5.945878620049303e-15 4.1997969987689257e-19
3.345076488085796 5.2059974429061784e-23 4.622526784021959e-15 4.622086832461363e-15 4.39951560595219e-19
3.3482140837626964 5.2638683494516074e-23 4.678295723207061e-15 4.677853066976178e-15 4.4265623088214e-19
3.3513546224236106 5.322378148328504e-23 4.734733567304827e-15 4.734288192931726e-15 4.453743731016532e-19
3.3576445397418455 5.749684683109457e-23 5.124460838864467e-15 5.1240097852700344e-15 4.510535944322812e-19
3.3702598118196083 7.325476145240675e-23 6.553430125620405e-15 6.552967156601497e-15 4.629690189112145e-19
3.382922481734668 7.684602262852372e-23 6.900536757796747e-15 6.900062163362896e-15 4.745944338526693e-19
3.389271646505754 7.870647166713128e-23 7.080864036840671e-15 7.080383541069857e-15 4.804957708139268e-19
3.395632727569191 8.071143405221626e-23 7.27486950647414e-15 7.274382928554245e-15 4.865779198946819e-19
3.421196662673239 9.033872152722119e-23 8.203919927735236e-15 8.203408122125744e-15 5.118056094938007e-19
3.4276182099114902 8.840143270294887e-23 8.043057584895958e-15 8.042540101434472e-15 5.17483461485425e-19
3.4340518103208963 7.990760521251974e-23 7.28390698951033e-15 7.283384112562742e-15 5.228769475870625e-19
3.4469541582030403 6.781062145187654e-23 6.2044410877384124e-15 6.203907811130053e-15 5.332766083578605e-19
3.472904465399547 6.442339767814848e-23 5.938898397018871e-15 5.938341229012126e-15 5.571680067454596e-19
3.4990501388274233 5.924143166699576e-23 5.502311130579403e-15 5.501729401910275e-15 5.817286691267488e-19
3.5253949054701885 4.0791640700573274e-23 3.817230447694367e-15 3.816624681710661e-15 6.057659837061824e-19
3.5519380250092896 2.344951305686092e-23 2.210897666536416e-15 2.210267595823273e-15 6.300707131424978e-19
3.578680990867387 1.6575924184665032e-23 1.5745997246844683e-15 1.5739429876101695e-15 6.567370742988497e-19
3.605625307711299 1.3798539034909892e-23 1.3206360034195139e-15 1.3199510890391584e-15 6.849143803554722e-19
3.660119384959845 1.177841704116979e-23 1.1443308647075894e-15 1.1435863443170298e-15 7.445203905594224e-19
3.715437065384467 1.0350440171783849e-23 1.020794124686027e-15 1.0199861666765343e-15 8.079580094927834e-19
3.8285932144167436 9.640376947515943e-24 9.797215792517995e-16 9.787751480595757e-16 9.464311922241316e-19
3.94519561050918 9.520807298253717e-24 9.970380885048144e-16 9.959373794922882e-16 1.1007090125258945e-18
4.06534921144712 9.644661519650907e-24 1.0407688392074661e-15 1.0394973415159508e-15 1.2714976915151843e-18
4.189162171576248 9.910295964680533e-24 1.102004152065064e-15 1.1005441152352756e-15 1.460036829788493e-18
4.316745939156006 1.0279930024272973e-23 1.1779207725367014e-15 1.176254044961339e-15 1.666727575362607e-18
4.448215356677963 1.074100355957268e-23 1.2682360636389895e-15 1.2663460413744435e-15 1.890022264546115e-18
4.58368876423945 1.129528239326363e-23 1.3743003189513187e-15 1.3721690053312837e-15 2.1313136200353587e-18
4.723288106065518 1.1955139052011673e-23 1.498885650370056e-15 1.4964924087941631e-15 2.393241575893166e-18
4.867139040275056 1.2745046228753003e-23 1.6465866922166031e-15 1.6439155176192104e-15 2.6711745973933608e-18
4.940699165968905 1.3219318556004517e-23 1.7336719088031788e-15 1.7308546190990653e-15 2.817289704113202e-18
5.015371051989984 1.3710576645788952e-23 1.825274652934392e-15 1.8223066521881976e-15 2.968000746194395e-18
5.091171501069577 1.4306964422271826e-23 1.9334576202315122e-15 1.9303313531455187e-15 3.126267085992572e-18
5.129500256944802 1.461309480765535e-23 1.9896958352472297e-15 1.9864886880859847e-15 3.2071471612449916e-18
5.168117569889187 1.493205359962688e-23 2.0484310873112093e-15 2.0451412766744816e-15 3.2898106367278522e-18
5.20702561229733 1.5321625818409398e-23 2.1176978652287185e-15 2.114318730297647e-15 3.3791349310716562e-18
5.246226572918644 1.5721080294217125e-23 2.1892676603758076e-15 2.1857977269700864e-15 3.4699334057217196e-18
5.265937586045735 1.592461183291325e-23 2.2259427765065196e-15 2.222426891131489e-15 3.515885375030024e-18
5.285722656980489 1.613073378407638e-23 2.2632260264043048e-15 2.2596638206708168e-15 3.562205733488099e-18
5.305582063971359 1.633948790548661e-23 2.301128708471286e-15 2.297519814096793e-15 3.608894374493017e-18
5.3255160863122235 1.6563448256289817e-23 2.3414338316213766e-15 2.3377775953645665e-15 3.656236256809355e-18
5.365609099470188 1.7118982789895443e-23 2.4381836700926263e-15 2.434429416741226e-15 3.7542533513993336e-18
5.406003951863644 1.7695441171813765e-23 2.5392600883576963e-15 2.5354061920349687e-15 3.8538963227266814e-18
5.446702915881641 1.829382963289591e-23 2.6448908315483175e-15 2.6409356642789203e-15 3.955167269397405e-18
5.487708281020852 1.8939753888049357e-23 2.758892516423221e-15 2.7548341084610186e-15 4.058407962202566e-18
5.529022354014368 1.9833687617905552e-23 2.910859526919004e-15 2.906693239787646e-15 4.166287131358597e-18
5.570647458961463 2.0779754537533775e-23 3.0726671753241347e-15 3.0683911957449264e-15 4.275979579208363e-18
5.612585937458331 2.1781693985121122e-23 3.245070146639983e-15 3.2406826558693393e-15 4.387490770643046e-18
5.654840148729818 2.2882054971875805e-23 3.4346682100360515e-15 3.430166950399969e-15 4.501259636082292e-18
5.67608639626678 2.3629574515531254e-23 3.560199475978445e-15 3.5556387512115805e-15 4.560724766865876e-18
5.686739436050992 2.4014785076661183e-23 3.625028845935867e-15 3.6204381963673354e-15 4.590649568531068e-18
5.6974124697621304 2.44078725238619e-23 3.6912802689005474e-15 3.686659566161559e-15 4.62070273898938e-18
5.718818669136295 2.5218435175286688e-23 3.828193610479605e-15 3.823512415664134e-15 4.681194815471758e-18
5.740305295436557 2.6111363250616273e-23 3.978633823258561e-15 3.973891246859778e-15 4.742576398782692e-18
5.7835210386641895 2.8424605064063596e-23 4.363713126589551e-15 4.358843289141481e-15 4.869837448070083e-18
5.827062130521658 3.10872878945143e-23 4.808414708287894e-15 4.8034144358837645e-15 5.000272404129525e-18
5.8489554468988025 3.295318854210597e-23 5.116172623459267e-15 5.11110229156888e-15 5.070331890388927e-18
5.870931020387893 3.495477410116643e-23 5.447320277878675e-15 5.442179196410643e-15 5.141081468031712e-18
5.892989160043636 3.7102952300093576e-23 5.803814768737879e-15 5.798602244188613e-15 5.212524549264937e-18
5.915130176081913 3.954514048896381e-23 6.209074381995687e-15 6.203787879355521e-15 5.2865026401652e-18
5.95966208400165 4.636923574846438e-23 7.335352804899772e-15 7.329900164784258e-15 5.452640115512404e-18
6.004529249263818 5.619897094873445e-23 8.957292598500882e-15 8.951654181370973e-15 5.638417129908923e-18
6.027089341400364 6.302955459753435e-23 1.0083732132337717e-14 1.0077987601301247e-14 5.744531036465807e-18
6.049734195844842 7.109933826868734e-23 1.1417506971327542e-14 1.1411650236847545e-14 5.856734479993659e-18
6.095279466722835 9.440413632142442e-23 1.527404546786154e-14 1.5267917281523808e-14 6.128186337736152e-18
6.141167624020661 1.3025943893618885e-22 2.1233891209001283e-14 2.122741605625594e-14 6.475152745348146e-18
6.164241091010745 1.5315643180539552e-22 2.5060185935454524e-14 2.5053495647680125e-14 6.69028777441062e-18
6.187401249150058 1.7923413014420567e-22 2.9437330661131393e-14 2.9430418672602966e-14 6.9119885284290395e-18
6.1990139391386085 1.9196780008448968e-22 3.15878766870265e-14 3.1580851719628466e-14 7.024967398042756e-18
6.204828454712694 1.986749327883611e-22 3.2722184335942736e-14 3.2715102220821923e-14 7.082115120812463e-18
6.210648424152782 2.0357197693289322e-22 3.3560187024032454e-14 3.355305557658837e-14 7.131447444080884e-18
6.233982942956859 2.202101270254947e-22 3.643949336406673e-14 3.6432187153186135e-14 7.3062108806103e-18
6.239830258556775 2.223377772400967e-22 3.682607797855891e-14 3.681874545673732e-14 7.332521821593959e-18
6.245683058788269 2.2252397941546774e-22 3.68914897141764e-14 3.6884130807868267e-14 7.35890630813821e-18
6.257405133728602 2.2207084603098075e-22 3.688546427912347e-14 3.68780579722771e-14 7.406306846365282e-18
6.269149208991335 2.188039313885878e-22 3.64110464269331e-14 3.640361685431003e-14 7.429572623081998e-18
6.280915325867298 2.1060565119963038e-22 3.5112551739701034e-14 3.510512884320777e-14 7.422896493265555e-18
6.304513850009849 1.9038624825783925e-22 3.1860795271914395e-14 3.1853412916428254e-14 7.38235548613519e-18
6.32820103803542 1.6532384061458102e-22 2.777059510225367e-14 2.776328221970067e-14 7.31288255299471e-18
6.3519772230701035 1.4234092093877832e-22 2.3999828402597922e-14 2.399257582495073e-14 7.25257764718873e-18
6.375842739491607 1.230050564108608e-22 2.0817568106781155e-14 2.081036651601374e-14 7.201590767417e-18
6.399797922933955 1.0751288642385203e-22 1.8264013344225476e-14 1.8256827958878933e-14 7.185385346542895e-18
6.42384311029221 9.463258558254543e-23 1.6136341068961006e-14 1.6129164957010074e-14 7.176111950931142e-18
6.447978639727206 8.525055293279202e-23 1.4591173704192976e-14 1.4583979478866485e-14 7.194225326495468e-18
6.472204850670314 7.743587346960151e-23 1.3303437976108226e-14 1.3296220051947136e-14 7.217924161084276e-18
6.496522083828205 7.236167758351237e-23 1.2478402179118738e-14 1.2471138123158278e-14 7.264055960460311e-18
