Dust emission spectrum from A.P. Jones, M. Kohler, N. Ysard, M. Bocchio, and L. Verstraete (2017), A&A, 602A, 46J 
inside the DustPedia framework.

lambda    nu*dP/dnu     j_nu    j_nu(carb.) j_nu(sil)
 (um)   (erg s-1 H-1) (Jy cm2 sr-1 H-1)
0.9927057738263894 2.404026170359243e-24 6.334745504857116e-17 6.334745475933264e-17 2.892385123060537e-25
1.0001793341362166 2.4438307466025032e-24 6.488113436952137e-17 6.488113402122968e-17 3.4829169604731607e-25
1.0077091589558085 2.4836040765070272e-24 6.643348001700118e-17 6.643347959814694e-17 4.188542600695689e-25
1.0114953028030835 2.5034744880535234e-24 6.721658955672165e-17 6.721658909761916e-17 4.5910249885493205e-25
1.0152956718711033 2.5233316618142995e-24 6.800428909990947e-17 6.800428859685612e-17 5.030533463650863e-25
1.0229392996569957 2.5629796672259302e-24 6.95928236232379e-17 6.959282301984388e-17 6.033940155493674e-25
1.0267826658714554 2.582722777198643e-24 7.039239699111862e-17 7.039239633058319e-17 6.605354401751434e-25
1.0306404723013447 2.602444529016781e-24 7.119641193397317e-17 7.119641121112226e-17 7.228508821299541e-25
1.03451277320114 2.6221431738593545e-24 7.200484032180092e-17 7.200483953101533e-17 7.907855805878259e-25
1.0383996230291617 2.641816974275286e-24 7.281765369480611e-17 7.281765282998517e-17 8.64820933752088e-25
1.0403485208654093 2.6516440180718846e-24 7.322569576930614e-17 7.322569486501877e-17 9.04287352345132e-25
1.0423010764483396 2.6614642045612576e-24 7.36348232732385e-17 7.363482232776124e-17 9.45477246720541e-25
1.0462171883269815 2.6810831511326098e-24 7.445631996729257e-17 7.445631893397589e-17 1.0333166725943991e-24
1.0471985131304309 2.6859832688177308e-24 7.466236681494366e-17 7.466236575847464e-17 1.056469004817173e-24
1.048180758391296 2.6908814859334916e-24 7.486868180978176e-17 7.486868072966381e-17 1.0801179384946298e-24
1.0501480137395462 2.7006721128872358e-24 7.528211438706305e-17 7.528211325811669e-17 1.1289463592133235e-24
1.0521189612883777 2.7104548213650326e-24 7.569661398014993e-17 7.569661280026452e-17 1.1798854107609598e-24
1.0531058218030118 2.715335751658262e-24 7.590405619194616e-17 7.590405498577104e-17 1.2061751200110034e-24
1.0540936079674168 2.72019041537475e-24 7.611108601675411e-17 7.611108478372298e-17 1.233031120381396e-24
1.058054026499678 2.739586967593761e-24 7.694180474549906e-17 7.694180339920532e-17 1.3462937504008604e-24
1.0590464539527713 2.74443045103387e-24 7.715013189620495e-17 7.715013052007621e-17 1.3761287291135234e-24
1.06003981227728 2.749271621239787e-24 7.735871707531212e-17 7.735871566871601e-17 1.4065961045231078e-24
1.0620293250338977 2.7589469196178782e-24 7.77766595929494e-17 7.777665812347013e-17 1.4694792757951978e-24
1.0660195594769086 2.778268635080839e-24 7.861561973238797e-17 7.861561812897622e-17 1.6034117452705754e-24
1.070024785945596 2.797550492143318e-24 7.945865409716799e-17 7.94586523481884e-17 1.748979604800993e-24
1.0740450607676866 2.816790883809549e-24 8.030573139100727e-17 8.030572948386688e-17 1.9071403902919137e-24
1.07808044048254 2.8359882182368124e-24 8.115682009831931e-17 8.115681801939357e-17 2.0789257352513587e-24
1.0861967418109137 2.874214049086174e-24 8.286994233877498e-17 8.286993987087514e-17 2.467899840252115e-24
1.0902777775684922 2.893163541742133e-24 8.372970806218103e-17 8.372970537460802e-17 2.687573021702106e-24
1.0943741465085532 2.9120624401043774e-24 8.459329482102421e-17 8.459329189517347e-17 2.925850720466932e-24
1.1026131145906286 2.949702461092945e-24 8.633180026993966e-17 8.633179680564935e-17 3.464290288109683e-24
1.1109141095355224 2.9871222991246858e-24 8.808519491072347e-17 8.808519081419726e-17 4.096526199972907e-24
1.1192775983109025 3.024276363296042e-24 8.985220099316277e-17 8.985219615524393e-17 4.83791883306959e-24
1.1277040513999907 3.0609969418848512e-24 9.162784435813168e-17 9.162783865195803e-17 5.706173679959253e-24
1.1361939428280308 3.0974587325597207e-24 9.341732598460709e-17 9.341731926293702e-17 6.721670071189725e-24
1.1447477501889525 3.1336511793971972e-24 9.522037407950503e-17 9.522036617167009e-17 7.907834961364397e-24
1.1533659546722406 3.1695828610694595e-24 9.703729250980796e-17 9.703728321823247e-17 9.291575508918607e-24
1.1707974979042381 3.2407790817097627e-24 1.0071650473943659e-16 1.0071649195967969e-16 1.2779756907253276e-23
1.1884924949847024 3.3108011095424804e-24 1.044477211010937e-16 1.0444770361102858e-16 1.7490065143436805e-23
1.2064549276569216 3.3801865660527e-24 1.0824833025887717e-16 1.0824830643972194e-16 2.3819155235841107e-23
1.2246888378427687 3.4482211760716664e-24 1.1209604945094417e-16 1.120960171702754e-16 3.228066877087972e-23
1.2431983285522175 3.514761131699791e-24 1.1598602522950115e-16 1.1598598169207294e-16 4.353742819340159e-23
1.2619875648066055 3.579800146383552e-24 1.1991769995135647e-16 1.1991764151096132e-16 5.844039512126459e-23
1.3004222497298317 3.704401275034084e-24 1.278709375870472e-16 1.2787083376413103e-16 1.038229161859947e-22
1.3400274889804893 3.821683915173568e-24 1.3593707003476479e-16 1.359368889485764e-16 1.8108618837107485e-22
1.3808389325824078 3.931376481820969e-24 1.4409771422039084e-16 1.4409740398522973e-16 3.102351610829705e-22
1.4228933163050095 4.034106409920105e-24 1.5236637039352562e-16 1.523658480889848e-16 5.223045407912808e-22
1.466228494730424 4.1322345093286315e-24 1.6082592156738821e-16 1.6082505699788823e-16 8.64569499972879e-22
1.5108834753276823 4.224279084787055e-24 1.6941544750485732e-16 1.6941403980482717e-16 1.4077000301760035e-21
1.5568984535646726 4.3090771284819e-24 1.7807952473952312e-16 1.7807726786120114e-16 2.256878321940381e-21
1.6043148490894465 4.386945368297122e-24 1.8681909432322438e-16 1.8681552492328176e-16 3.569399942617532e-21
1.6531753430134553 4.4582739614157365e-24 1.9563885150854287e-16 1.9563328904296503e-16 5.562465577812391e-21
1.7035239163302658 4.5238689588055264e-24 2.0456328281242345e-16 2.0455473946965623e-16 8.543342767150733e-21
1.755405889504358 4.58742637841649e-24 2.137549062177372e-16 2.1374196742171296e-16 1.2938796024235333e-20
1.8088679632656115 4.648328449817052e-24 2.2318916517089373e-16 2.2316983573374326e-16 1.932943715047235e-20
1.8639582606462262 4.706210329765062e-24 2.328503788266128e-16 2.328218833309634e-16 2.849549564934227e-20
1.9207263702978936 4.761723147775087e-24 2.427722668225796e-16 2.427307973505991e-16 4.146947198046812e-20
1.979223391128241 4.816083696049277e-24 2.530219938305912e-16 2.5296239420754666e-16 5.959962304452366e-20
2.039501978296691 4.870683554050133e-24 2.6368381808358113e-16 2.6359919749063556e-16 8.462059294553014e-20
2.1016163906111602 4.9290773480242694e-24 2.749720257445965e-16 2.7485328346046213e-16 1.187422841343517e-19
2.1656225393682647 4.993417969884127e-24 2.870450855069018e-16 2.86880352374704e-16 1.647331321977557e-19
2.231578038680979 5.06401315220826e-24 2.999689734074545e-16 2.9974295808435086e-16 2.260153231036776e-19
2.299542257339062 5.1422212621796714e-24 3.138785137917896e-16 3.1357174650363645e-16 3.0676728815300955e-19
2.369576372248914 5.230745196396203e-24 3.2900591706413644e-16 3.2859388126005874e-16 4.120358040777562e-19
2.4417434235010123 5.3327377209658345e-24 3.456365679674845e-16 3.4508873717089786e-16 5.478307965866279e-19
2.5161083711144245 5.453462363308048e-24 3.642261271143832e-16 3.6350488047018255e-16 7.212466442006861e-19
2.5927381535095444 5.601346778786106e-24 3.854966002323104e-16 3.845560466456182e-16 9.405535866922033e-19
2.6717017477616296 5.7861574436897835e-24 4.103435906996284e-16 4.0912836398206577e-16 1.2152267175627028e-18
2.753070231689431 6.022393181461338e-24 4.4010452036780686e-16 4.3854851437239027e-16 1.5560059954166097e-18
2.836916847834745 6.342852467621073e-24 4.776399558447104e-16 4.75664962648438e-16 1.9749931962724626e-18
2.9233170693905177 6.819299517733814e-24 5.291577016538841e-16 5.266724955187443e-16 2.485206135139978e-18
2.967498994190263 7.186346648974712e-24 5.660674411033044e-16 5.632933401454665e-16 2.774100957838098e-18
3.0123486681368425 7.606655446814937e-24 6.082308108852e-16 6.051383548841562e-16 3.0924560010437183e-18
3.0578761833420214 8.474586242581483e-24 6.878723189738102e-16 6.844285825049771e-16 3.443736468833238e-18
3.1040917844459814 9.573859672852066e-24 7.888438517957088e-16 7.850163075489124e-16 3.827544246796201e-18
3.127460860933648 1.0702473286109703e-23 8.884755253678997e-16 8.844418709582041e-16 4.0336544096954285e-18
3.1510058709225794 1.2193815125645386e-23 1.0199015496466593e-15 1.0156526069223676e-15 4.2489427242915694e-18
3.162844764501044 1.3570452394741023e-23 1.1393092823939374e-15 1.1349487550168278e-15 4.360527377109803e-18
3.1747281389236908 1.516579514530362e-23 1.2780303277037337e-15 1.273555825818908e-15 4.4745018848254405e-18
3.1986289994194426 1.9596319976062157e-23 1.6638256895591073e-15 1.6591153468348797e-15 4.710342724227936e-18
3.2227097969389145 2.999727241334713e-23 2.5660930441093702e-15 2.5611323269792227e-15 4.960717130147657e-18
3.2348180950136065 3.984246732811478e-23 3.4210980549632015e-15 3.4160036028630066e-15 5.094452100195346e-18
3.240889293275058 4.7200214901725565e-23 4.06048214463122e-15 4.055317148109772e-15 5.164996521447889e-18
3.2469718861334385 5.571305579058443e-23 4.80180966008111e-15 4.796571667822988e-15 5.2379922581225954e-18
3.2714166318528037 1.0104837649436438e-22 8.77474754945444e-15 8.769207515926951e-15 5.5400335274895735e-18
3.2744851364798273 1.0388479130997506e-22 9.029515090649623e-15 9.023939353835724e-15 5.575736813899959e-18
3.2775565192852394 1.0680211518954818e-22 9.291791937217673e-15 9.286180308454794e-15 5.6116287628773166e-18
3.283707930232385 1.0400921985547532e-22 9.065792898860152e-15 9.06011686487299e-15 5.676033987163291e-18
3.2898708863219004 9.513150248854715e-23 8.307543864289804e-15 8.301809015940597e-15 5.734848349207029e-18
3.29141343181113 9.303751607722555e-23 8.128491898223606e-15 8.122742275895143e-15 5.749622328462284e-18
3.292184975758714 9.200854575282908e-23 8.040477263043776e-15 8.034720243148949e-15 5.7570198948259184e-18
3.295272960557952 8.551882543431903e-23 7.480360963864514e-15 7.474575130780958e-15 5.78583308355471e-18
3.3076538914384823 6.30205116482206e-23 5.5331369190399346e-15 5.527235253569085e-15 5.9016654708508406e-18
3.310756385682612 5.84372157928106e-23 5.135540688768951e-15 5.129609805064977e-15 5.930883703974768e-18
3.313861789986515 5.420673562916427e-23 4.768228718064568e-15 4.7622685117541705e-15 5.9602063103968015e-18
3.3200813396944477 4.82782325257144e-23 4.254705639404814e-15 4.248682455844029e-15 6.0231835607858265e-18
3.345076488085796 3.7738421451354056e-23 3.3508826283289588e-15 3.3445790258156678e-15 6.303602513291935e-18
3.3482140837626964 3.8141348497245235e-23 3.3898360617358918e-15 3.3834944807750472e-15 6.341580960844592e-18
3.3513546224236106 3.854863705518219e-23 3.4292476173708468e-15 3.4228678753284303e-15 6.379742042416083e-18
3.3576445397418455 4.149488443123605e-23 3.6982708096277696e-15 3.691811317017698e-15 6.459492610071259e-18
3.3702598118196083 5.233174322635049e-23 4.6816400161047745e-15 4.675013218683728e-15 6.626797421048403e-18
3.382922481734668 5.482384537352242e-23 4.923012893361302e-15 4.916223073738778e-15 6.789819622523941e-18
3.389271646505754 5.611421292641088e-23 5.0483410556971425e-15 5.041468525370457e-15 6.872530326686895e-18
3.395632727569191 5.750723266726795e-23 5.183374799934354e-15 5.176417027907986e-15 6.957772026368648e-18
3.421196662673239 6.419893598842588e-23 5.830090590070437e-15 5.822779499478106e-15 7.311090592330455e-18
3.4276182099114902 6.288007655674547e-23 5.721039368083676e-15 5.713648986306817e-15 7.390381776859033e-18
3.4340518103208963 5.705217294781155e-23 5.200540301465663e-15 5.193074709338083e-15 7.46559212758027e-18
3.4469541582030403 4.874960164480699e-23 4.4604226444167245e-15 4.452812257314513e-15 7.610387102210955e-18
3.472904465399547 4.6452464750996713e-23 4.282240278997944e-15 4.274296965123534e-15 7.94331387440948e-18
3.4990501388274233 4.29258248363911e-23 3.986926668387084e-15 3.978641648119944e-15 8.285020267139703e-18
3.5253949054701885 3.029455874986438e-23 2.83492671717475e-15 2.826308117980759e-15 8.61859919399066e-18
3.5519380250092896 1.8405834850850757e-23 1.7353629998084073e-15 1.7264078081909934e-15 8.955191617413999e-18
3.578680990867387 1.3717544500740334e-23 1.3030731531817242e-15 1.2937488179707336e-15 9.324335210990644e-18
3.605625307711299 1.1849110789227248e-23 1.1340593578182603e-15 1.1243454228169934e-15 9.713935001266925e-18
3.660119384959845 1.0545243888376983e-23 1.0245220571796276e-15 1.0139859634979632e-15 1.0536093681664631e-17
3.715437065384467 9.646607564515801e-24 9.51379860332297e-16 9.399717121660756e-16 1.1408148166221259e-17
3.8285932144167436 9.333140088555839e-24 9.484980511363024e-16 9.351968386605267e-16 1.330121247577532e-17
3.94519561050918 9.432079850343458e-24 9.877463717111572e-16 9.723521564505108e-16 1.539421526064672e-17
4.06534921144712 9.704569156041023e-24 1.0472335555749993e-15 1.0295414100601748e-15 1.7692145514824576e-17
4.189162171576248 1.0080569408742553e-23 1.1209382023710796e-15 1.1007313759156817e-15 2.0206826455397702e-17
4.316745939156006 1.0533591138065179e-23 1.2069864076543655e-15 1.1840485816200545e-15 2.2937826034310837e-17
4.448215356677963 1.1054287663109022e-23 1.305226852820462e-15 1.279369031152933e-15 2.5857821667528704e-17
4.58368876423945 1.164341801760648e-23 1.416658082388737e-15 1.387679103541723e-15 2.897897884701385e-17
4.723288106065518 1.23091171954183e-23 1.5432659589041963e-15 1.5109367127903815e-15 3.232924611381473e-17
4.867139040275056 1.3067024744549671e-23 1.6881844651689205e-15 1.6523465315854861e-15 3.583793358343397e-17
4.940699165968905 1.3501753434103976e-23 1.77071235170898e-15 1.7330479732567107e-15 3.766437845227001e-17
5.015371051989984 1.3948156039114676e-23 1.8569033477661428e-15 1.8173680649541184e-15 3.9535282812024054e-17
5.091171501069577 1.4468227295187086e-23 1.955250847732173e-15 1.913762456415526e-15 4.148839131664728e-17
5.129500256944802 1.473351723503988e-23 2.0060923621562213e-15 1.9636113613124817e-15 4.248100084373935e-17
5.168117569889187 1.500765113717011e-23 2.0588018206463484e-15 2.0153093073800325e-15 4.349251326631556e-17
5.20702561229733 1.533168725615246e-23 2.119088519554972e-15 2.074499676632324e-15 4.458884292264788e-17
5.246226572918644 1.5662243235516115e-23 2.1810741986393946e-15 2.135374930903654e-15 4.5699267735739734e-17
5.265937586045735 1.583002552217358e-23 2.2127214988165847e-15 2.1664617918203504e-15 4.625970699623449e-17
5.285722656980489 1.599951010962585e-23 2.244814660915773e-15 2.1979910625094528e-15 4.6823598406320336e-17
5.305582063971359 1.6170722296041408e-23 2.277361048729233e-15 2.2299701317182785e-15 4.739091701095412e-17
5.3255160863122235 1.6352549415022062e-23 2.3116208558235042e-15 2.2636554023635876e-15 4.7965453459917096e-17
5.365609099470188 1.6791675747483427e-23 2.3915667246987468e-15 2.3424123273537047e-15 4.9154397345042436e-17
5.406003951863644 1.7244621568102267e-23 2.4745683852439444e-15 2.42420981601619e-15 5.0358569227754076e-17
5.446702915881641 1.7712032597314193e-23 2.5607756038397893e-15 2.5091978156289547e-15 5.1577788210834725e-17
5.487708281020852 1.8211926385335126e-23 2.6528722448634995e-15 2.6000559030739624e-15 5.2816341789536887e-17
5.529022354014368 1.8885335604174164e-23 2.7716761563212596e-15 2.7175671023359878e-15 5.410905398527157e-17
5.570647458961463 1.9593373375693476e-23 2.8972389984982194e-15 2.8418205715285083e-15 5.5418426969710735e-17
5.612585937458331 2.0338497889981022e-23 3.030060580933771e-15 2.973316286485766e-15 5.67442944480043e-17
5.654840148729818 2.1150470737471615e-23 3.174751986155914e-15 3.1166598665078103e-15 5.809211964810332e-17
5.67608639626678 2.169412788480785e-23 3.2685913441453188e-15 3.2097946521380793e-15 5.879669200723929e-17
5.686739436050992 2.1973598108449173e-23 3.316911924793483e-15 3.257761195140423e-15 5.915072965305983e-17
5.6974124697621304 2.225832388286711e-23 3.3661971844248753e-15 3.3066912523808953e-15 5.950593204397978e-17
5.718818669136295 2.2844044038682746e-23 3.4677577263834267e-15 3.4075379041952784e-15 6.021982218814972e-17
5.740305295436557 2.3486500888140595e-23 3.578678980743872e-15 3.5177358931676684e-15 6.094308757620401e-17
5.7835210386641895 2.513722241956039e-23 3.859037871977921e-15 3.796597195761691e-15 6.244067621622984e-17
5.827062130521658 2.702502196100821e-23 4.180085233876124e-15 4.116114952825511e-15 6.397028105061228e-17
5.8489554468988025 2.834063632164721e-23 4.400047282069793e-15 4.33525393615509e-15 6.479334591470322e-17
5.870931020387893 2.974741166230422e-23 4.635809640579739e-15 4.570186791309548e-15 6.56228492701925e-17
5.892989160043636 3.125262994880432e-23 4.8886803883342945e-15 4.822221599091465e-15 6.645878924283084e-17
5.915130176081913 3.295949766230341e-23 5.175047301591142e-15 5.107722694325738e-15 6.732460726540467e-17
5.95966208400165 3.771373586979483e-23 5.966101311145943e-15 5.896821538618206e-15 6.927977252773582e-17
6.004529249263818 4.453446246875496e-23 7.098140843423703e-15 7.026669857459388e-15 7.147098596431619e-17
6.027089341400364 4.92649481758148e-23 7.881612746440844e-15 7.808884606223268e-15 7.272814021757834e-17
6.049734195844842 5.484189225769459e-23 8.806800490979902e-15 8.732742259632524e-15 7.40582313473774e-17
6.095279466722835 7.092506072605329e-23 1.1475266281258567e-14 1.1397969812831771e-14 7.729646842679679e-17
6.141167624020661 9.561702173137326e-23 1.558675097754183e-14 1.550529005885757e-14 8.14609186842621e-17
6.164241091010745 1.11381809375288e-22 1.8224822946506755e-14 1.8140767014677066e-14 8.40559318296931e-17
6.187401249150058 1.2930200064400405e-22 2.1236500799490287e-14 2.1149774779689444e-14 8.672601980084826e-17
6.1990139391386085 1.3805083420124261e-22 2.2715959266974614e-14 2.262787348286067e-14 8.808578411394898e-17
6.204828454712694 1.4265602609873214e-22 2.3495751160557263e-14 2.340697800308598e-14 8.877315747128349e-17
6.210648424152782 1.4601922350994503e-22 2.4072234911356013e-14 2.3982871655215135e-14 8.936325614088367e-17
6.233982942956859 1.5743758995853857e-22 2.6052144340685273e-14 2.5960704634241584e-14 9.14397064436919e-17
6.239830258556775 1.5889400941028878e-22 2.6317809116848143e-14 2.6226066998090402e-14 9.174211875774613e-17
6.245683058788269 1.590174609319128e-22 2.6362961150317866e-14 2.627091592224365e-14 9.204522807421196e-17
6.257405133728602 1.5869720262935046e-22 2.6359245724515753e-14 2.626666153187931e-14 9.258419263645175e-17
6.269149208991335 1.5644489749857509e-22 2.6033912598951193e-14 2.5941089844515854e-14 9.282275443534455e-17
6.280915325867298 1.508070713191118e-22 2.5142825295726864e-14 2.5050136131804346e-14 9.268916392251505e-17
6.304513850009849 1.369086198452797e-22 2.2911410607468618e-14 2.2819326130004068e-14 9.208447746455311e-17
6.32820103803542 1.1970072569557349e-22 2.010696324486744e-14 2.0015842572627843e-14 9.112067223959999e-17
6.3519772230701035 1.0392862524710958e-22 1.7523205242723818e-14 1.743293457655747e-14 9.027066616634637e-17
6.375842739491607 9.065219974183328e-23 1.534212004953412e-14 1.525258334615899e-14 8.953670337512904e-17
6.399797922933955 8.003626645892435e-23 1.3596355630011994e-14 1.350712387331216e-14 8.923175669983255e-17
6.42384311029221 7.120510149347112e-23 1.2141587345158209e-14 1.20525752391575e-14 8.90121060007081e-17
6.447978639727206 6.47848252007621e-23 1.1088334390573664e-14 1.0999205555900482e-14 8.912883467318282e-17
6.472204850670314 5.943622554568155e-23 1.0211108942825524e-14 1.0121795734437652e-14 8.931320838787125e-17
6.496522083828205 5.597407763514797e-23 9.652444161904528e-15 9.56267234239818e-15 8.977181950634858e-17
