Dust emission spectrum from A.P. Jones, M. Kohler, N. Ysard, M. Bocchio, and L. Verstraete (2017), A&A, 602A, 46J 
inside the DustPedia framework.

lambda    nu*dP/dnu     j_nu    j_nu(carb.) j_nu(sil)
 (um)   (erg s-1 H-1) (Jy cm2 sr-1 H-1)
0.9927057738263894 4.944062191362268e-25 1.3027884691365892e-17 1.3027884675790436e-17 1.5575457718815807e-26
1.0001793341362166 5.025549924451479e-25 1.3342306147116729e-17 1.3342306128357692e-17 1.875903667009389e-26
1.0077091589558085 5.10693324692946e-25 1.3660444151195097e-17 1.3660444128631034e-17 2.2564060857456188e-26
1.0114953028030835 5.147575995457882e-25 1.3820891906421852e-17 1.3820891881687021e-17 2.4734830998080374e-26
1.0152956718711033 5.188180964471601e-25 1.3982250670801396e-17 1.398225064369578e-17 2.710561530641285e-26
1.0229392996569957 5.269222190536063e-25 1.4307567680961332e-17 1.4307567648442048e-17 3.2519277265705804e-26
1.0267826658714554 5.309560157056395e-25 1.447126535311434e-17 1.4471265317511502e-17 3.560283701934624e-26
1.0306404723013447 5.349842955724378e-25 1.4635840211423054e-17 1.4635840172456977e-17 3.8966075924629195e-26
1.03451277320114 5.390066813327019e-25 1.4801285608146875e-17 1.4801285565513757e-17 4.263311163858726e-26
1.0383996230291617 5.430227979192503e-25 1.4967594815350852e-17 1.4967594768720824e-17 4.6630025498302925e-26
1.0403485208654093 5.450283886987549e-25 1.5051071223923328e-17 1.5051071175162415e-17 4.876091071989731e-26
1.0423010764483396 5.470322725940989e-25 1.5134761026727676e-17 1.5134760975742662e-17 5.098501221700665e-26
1.0462171883269815 5.510347350219905e-25 1.5302777359425624e-17 1.530277730369708e-17 5.572854014867866e-26
1.0471985131304309 5.520342118013283e-25 1.5344913460332494e-17 1.5344913403353558e-17 5.697893245256109e-26
1.048180758391296 5.530332215882981e-25 1.5387102149899808e-17 1.5387102091643616e-17 5.825619209492086e-26
1.0501480137395462 5.550298173423601e-25 1.5471636855881774e-17 1.547163679498825e-17 6.089352280174703e-26
1.0521189612883777 5.570244766998282e-25 1.5556380596304105e-17 1.5556380532659047e-17 6.364505861340601e-26
1.0531058218030118 5.580195377261701e-25 1.5598787855941627e-17 1.5598787790876422e-17 6.506520857477283e-26
1.0540936079674168 5.590090904809756e-25 1.5641106861220777e-17 1.564110679470478e-17 6.651600139421927e-26
1.058054026499678 5.629619713021023e-25 1.5810890688063237e-17 1.581089061542807e-17 7.263516531765993e-26
1.0590464539527713 5.63948831015086e-25 1.5853463030602242e-17 1.5853462956355054e-17 7.424719074949554e-26
1.06003981227728 5.6493513539229645e-25 1.589608570033108e-17 1.589608562443763e-17 7.589344812850049e-26
1.0620293250338977 5.669060559500563e-25 1.598148156504436e-17 1.5981481485752925e-17 7.929143807951815e-26
1.0660195594769086 5.70840989580198e-25 1.6152872187318598e-17 1.6152872100789067e-17 8.652952672265102e-26
1.070024785945596 5.7476642022842985e-25 1.6325055186620968e-17 1.6325055092223323e-17 9.439764179319024e-26
1.0740450607676866 5.786819988727256e-25 1.649802313313164e-17 1.649802303018389e-17 1.0294775351566319e-25
1.07808044048254 5.825873794930848e-25 1.6671768537341463e-17 1.66717684251056e-17 1.1223586523814484e-25
1.0861967418109137 5.903592909286802e-25 1.7021362905791364e-17 1.7021362772519304e-17 1.3327205500482938e-25
1.0902777775684922 5.942094847057313e-25 1.719674189321178e-17 1.7196741748056702e-17 1.451550741682922e-25
1.0943741465085532 5.980478546973275e-25 1.737285498853477e-17 1.737285483048819e-17 1.5804658151068762e-25
1.1026131145906286 6.05687813911954e-25 1.7727252177566505e-17 1.772725199038153e-17 1.8718497341000373e-25
1.1109141095355224 6.132765838796341e-25 1.8084491365167687e-17 1.8084491143757043e-17 2.2141064481885313e-25
1.1192775983109025 6.208046121447055e-25 1.8444300086092452e-17 1.8444299824533493e-17 2.615589570261404e-25
1.1277040513999907 6.282371657516025e-25 1.880564349993626e-17 1.880564319134303e-17 3.085932333286226e-25
1.1361939428280308 6.356101156342702e-25 1.9169584649236514e-17 1.9169584285613764e-17 3.6362274598290008e-25
1.1447477501889525 6.4292112616219e-25 1.9536057663111297e-17 1.9536057235188072e-17 4.279232257542062e-25
1.1533659546722406 6.501718597579234e-25 1.9905116762174732e-17 1.990511625921416e-17 5.029605764664337e-25
1.1707974979042381 6.645160358832512e-25 2.0651741692357966e-17 2.0651741000136038e-17 6.922219269774813e-25
1.1884924949847024 6.785898835739398e-25 2.1407860078719446e-17 2.140785913073915e-17 9.479802973315363e-25
1.2064549276569216 6.925033784761997e-25 2.2176981345209917e-17 2.2176980053318584e-17 1.2918913290102176e-24
1.2246888378427687 7.0610715971181e-25 2.2954392729208078e-17 2.295439097718371e-17 1.752024367002325e-24
1.2431983285522175 7.193705592960316e-25 2.373900493189946e-17 2.373900256726285e-17 2.3646366051412813e-24
1.2619875648066055 7.322900934487534e-25 2.4530571571782286e-17 2.4530568395460225e-17 3.176322058542579e-24
1.3004222497298317 7.5689035758449185e-25 2.6126834672907804e-17 2.612682902170793e-17 5.6511998708672026e-24
1.3400274889804893 7.798235110379981e-25 2.7738276002847833e-17 2.7738266131195128e-17 9.871652705768129e-24
1.3808389325824078 8.010177714823954e-25 2.935990242966022e-17 2.935988549123947e-17 1.6938420762008158e-23
1.4228933163050095 8.205857461549239e-25 3.099315165084227e-17 3.099312308790548e-17 2.85629367950405e-23
1.466228494730424 8.389952083816238e-25 3.2653562442785987e-17 3.265351508452722e-17 4.735825876511723e-23
1.5108834753276823 8.559196637911709e-25 3.432680700278541e-17 3.432672976278342e-17 7.724000199457955e-23
1.5568984535646726 8.710985808248263e-25 3.599954622515868e-17 3.599942217572391e-17 1.2404943477058807e-22
1.6043148490894465 8.845750562282995e-25 3.7669835612663056e-17 3.76696390726793e-17 1.9653998376470436e-22
1.6531753430134553 8.964053042735509e-25 3.9336233199664935e-17 3.933592636037049e-17 3.0683929443562335e-22
1.7035239163302658 9.067318442631853e-25 4.100119706871771e-17 4.100072491948218e-17 4.721492355363803e-22
1.755405889504358 9.162880972001e-25 4.2695197727193714e-17 4.269448129744325e-17 7.164297504667422e-22
1.8088679632656115 9.249207927126723e-25 4.441000712479068e-17 4.4408934745487536e-17 1.072379303145863e-21
1.8639582606462262 9.325322612562505e-25 4.613913851835763e-17 4.6137554439617765e-17 1.5840787398586019e-21
1.9207263702978936 9.39231745753384e-25 4.7885904516481554e-17 4.7883594456871357e-17 2.310059610189806e-21
1.979223391128241 9.45244121958436e-25 4.966017359514819e-17 4.965684657053943e-17 3.3270246087549086e-21
2.039501978296691 9.508328389471978e-25 5.147516371174775e-17 5.147042967986704e-17 4.734031880707732e-21
2.1016163906111602 9.566988581450457e-25 5.337011462340525e-17 5.336345684917812e-17 6.657774227151761e-21
2.1656225393682647 9.632588272301856e-25 5.537263535621529e-17 5.53633777143649e-17 9.257641850384132e-21
2.231578038680979 9.7056101088946e-25 5.749159437685431e-17 5.747886281846861e-17 1.2731558385709664e-20
2.299542257339062 9.788633426200694e-25 5.97493097869182e-17 5.973198743309318e-17 1.732235382501137e-20
2.369576372248914 9.887046900618963e-25 6.218802121799777e-17 6.216469638999402e-17 2.3324828003761757e-20
2.4417434235010123 1.000717335574585e-24 6.486058821413787e-17 6.482949621291459e-17 3.109200122325985e-20
2.5161083711144245 1.01596877069445e-24 6.785457494103512e-17 6.781353188982477e-17 4.104305121032635e-20
2.5927381535095444 1.0361874957109723e-24 7.131262758317879e-17 7.125895780653133e-17 5.366977664745778e-20
2.6717017477616296 1.0634132840370365e-24 7.541530447729667e-17 7.534576480303358e-17 6.953967426309819e-20
2.753070231689431 1.1006972999715776e-24 8.04367703465993e-17 8.034746930569664e-17 8.930104090267852e-20
2.836916847834745 1.1549380409481221e-24 8.697105248748363e-17 8.685736210695182e-17 1.1369038053183098e-19
2.9233170693905177 1.2412835619364578e-24 9.631997465823612e-17 9.617646470658062e-17 1.435099516554523e-19
2.967498994190263 1.311411971762543e-24 1.0329972312061701e-16 1.0313925976743525e-16 1.6046335318179915e-19
3.0123486681368425 1.3926110207335437e-24 1.1135366079228656e-16 1.1117448019783278e-16 1.7918059445374567e-19
3.0578761833420214 1.5679673510086605e-24 1.2727008811288049e-16 1.270702177319501e-16 1.998703809303587e-19
3.1040917844459814 1.7923217951338806e-24 1.47679418420974e-16 1.4745689093963855e-16 2.2252748133546247e-19
3.127460860933648 2.0266429140030763e-24 1.68243599363987e-16 1.6800888421932628e-16 2.3471514466072186e-19
3.1510058709225794 2.3377866784877326e-24 1.9553455842695166e-16 1.9528709779904952e-16 2.474606279021208e-19
3.162844764501044 2.6263733822645102e-24 2.2049755501193966e-16 2.2024348251959476e-16 2.5407249234491925e-19
3.1747281389236908 2.961509526193453e-24 2.495681204971844e-16 2.493072904316279e-16 2.6083006555639083e-19
3.1986289994194426 3.894663707379866e-24 3.30676450295148e-16 3.304016245595006e-16 2.748257356473884e-19
3.2227097969389145 6.090530887686505e-24 5.210096681614167e-16 5.207199682185585e-16 2.8969994285803978e-19
3.2348180950136065 8.1713299077448e-24 7.01636287322046e-16 7.013386382077294e-16 2.976491143168588e-19
3.240889293275058 9.72674659301535e-24 8.3676061535998425e-16 8.364587729323934e-16 3.0184242759088426e-19
3.2469718861334385 1.1526233320686614e-23 9.934256471528062e-16 9.931194655498159e-16 3.061816029903798e-19
3.2714166318528037 2.1118651021429882e-23 1.8338823217848575e-15 1.8335581723939934e-15 3.2414939086460645e-19
3.2744851364798273 2.1718532339591662e-23 1.8877432686171682e-15 1.8874169917629593e-15 3.26276854208996e-19
3.2775565192852394 2.233559517460061e-23 1.9431984356113376e-15 1.9428700197071704e-15 3.2841590416739056e-19
3.283707930232385 2.1743382194886596e-23 1.8952262133444718e-15 1.8948939520393585e-15 3.322613051135373e-19
3.2898708863219004 1.9863333129842284e-23 1.7346042788195401e-15 1.7342684994153576e-15 3.357794041820892e-19
3.29141343181113 1.9419934936724808e-23 1.696678828636936e-15 1.6963421653155318e-15 3.3666332140361897e-19
3.292184975758714 1.9202059427485284e-23 1.678036762422837e-15 1.6776996564826145e-15 3.3710594022253146e-19
3.295272960557952 1.782725017534402e-23 1.559355681365271e-15 1.5590168502272135e-15 3.388311380577385e-19
3.3076538914384823 1.3063075219896288e-23 1.1469247374389525e-15 1.1465789672964253e-15 3.457701425271965e-19
3.310756385682612 1.209305989842413e-23 1.0627542794007958e-15 1.0624067581864528e-15 3.475212143430898e-19
3.313861789986515 1.1197919482946045e-23 9.85011191716753e-16 9.84661912877881e-16 3.4927883887200687e-19
3.3200813396944477 9.942964717960699e-24 8.762621546962792e-16 8.759091038387782e-16 3.5305085750069804e-19
3.345076488085796 7.707479671330727e-24 6.8436513096215e-16 6.839952910434733e-16 3.6983991867660885e-19
3.3482140837626964 7.792003540937273e-24 6.925191593094998e-16 6.921470457535451e-16 3.721135559546051e-19
3.3513546224236106 7.877454031818425e-24 7.007703133807731e-16 7.003959148627395e-16 3.743985180336086e-19
3.3576445397418455 8.499208550348458e-24 7.574999983137957e-16 7.571208256580142e-16 3.791726557815628e-19
3.3702598118196083 1.0789814096862331e-23 9.652654837755692e-16 9.64876294642515e-16 3.8918913305461485e-19
3.382922481734668 1.1313681808434889e-23 1.0159338702865163e-15 1.0155349084493003e-15 3.989618372157257e-19
3.389271646505754 1.158502092049127e-23 1.0422517521670449e-15 1.0418478294742184e-15 4.0392269282618475e-19
3.395632727569191 1.1877626985054095e-23 1.0705817258424952e-15 1.0701726902999509e-15 4.0903554254450536e-19
3.421196662673239 1.3282869209244213e-23 1.2062556737686806e-15 1.2058254310336663e-15 4.3024273501417146e-19
3.4276182099114902 1.3002403551489374e-23 1.1830020997295015e-15 1.1825670840017882e-15 4.350157277133912e-19
3.4340518103208963 1.176886060124825e-23 1.0727800659776742e-15 1.0723405162965776e-15 4.3954968109664555e-19
3.4469541582030403 1.0011851626860481e-23 9.160503512287874e-16 9.156020592158679e-16 4.482920129196024e-19
3.472904465399547 9.522277096081549e-24 8.778151761633928e-16 8.773468002606983e-16 4.683759026943829e-19
3.4990501388274233 8.772171534172277e-24 8.147543993052799e-16 8.142653769116999e-16 4.890223935799572e-19
3.5253949054701885 6.094851177631298e-24 5.703485098870536e-16 5.69839280901785e-16 5.092289852686244e-19
3.5519380250092896 3.57690353890636e-24 3.37242298738486e-16 3.3671263835283824e-16 5.296603856477181e-19
3.578680990867387 2.580855165657035e-24 2.451636354040296e-16 2.446115584132771e-16 5.520769907525055e-19
3.605625307711299 2.1805172404934724e-24 2.08693802045794e-16 2.0811803833860455e-16 5.757637071894421e-19
3.660119384959845 1.8938842691775876e-24 1.840001263182347e-16 1.8337425602467626e-16 6.258702935584733e-19
3.715437065384467 1.6932018203897758e-24 1.6698907886771407e-16 1.6630988110176047e-16 6.7919776595353685e-19
3.8285932144167436 1.6045860064040088e-24 1.63069094164886e-16 1.622734922269292e-16 7.956019379567917e-19
3.94519561050918 1.6025361894860884e-24 1.678208127810822e-16 1.6689552144056015e-16 9.252913405220732e-19
4.06534921144712 1.636620775696648e-24 1.766100242578836e-16 1.7554116487256906e-16 1.0688593853145248e-18
4.189162171576248 1.6920922282041536e-24 1.8815711133185242e-16 1.8692976354654415e-16 1.2273477853082722e-18
4.316745939156006 1.7634624809928817e-24 2.020654890690786e-16 2.0066439575297016e-16 1.4010933161084105e-18
4.448215356677963 1.8489045353882956e-24 2.1830803769870585e-16 2.1671924331865314e-16 1.588794380052692e-18
4.58368876423945 1.9486899930713136e-24 2.370976825344647e-16 2.3530606149951e-16 1.7916210349547394e-18
4.723288106065518 2.0646456367951265e-24 2.588566895481343e-16 2.5684489794505615e-16 2.011791603078279e-18
4.867139040275056 2.2003202022062366e-24 2.842687188842482e-16 2.820233074153448e-16 2.245411468903421e-18
4.940699165968905 2.2800437713297065e-24 2.990205448525557e-16 2.966523164648362e-16 2.3682283877194797e-18
5.015371051989984 2.3623981810020825e-24 3.145035859046678e-16 3.120086789245244e-16 2.494906980143254e-18
5.091171501069577 2.4603664302850112e-24 3.3249640404438665e-16 3.298684693660152e-16 2.6279346783714688e-18
5.129500256944802 2.5105541798622095e-24 3.4183307927472785e-16 3.391371630948829e-16 2.6959161798448115e-18
5.168117569889187 2.5626582677514743e-24 3.5155438110323846e-16 3.487889848580727e-16 2.7653962451658725e-18
5.20702561229733 2.6252202534282285e-24 3.628481332418612e-16 3.6000765834196277e-16 2.8404748998983466e-18
5.246226572918644 2.68924562956729e-24 3.7449579656331316e-16 3.7157900446566373e-16 2.9167920976493896e-18
5.265937586045735 2.721820991450131e-24 3.804562295415064e-16 3.7750081447609506e-16 2.9554150654114034e-18
5.285722656980489 2.754779126552283e-24 3.8650986989588053e-16 3.835155223735976e-16 2.994347522282876e-18
5.305582063971359 2.7881259345416343e-24 3.926583665240038e-16 3.8962477715081357e-16 3.0335893731900748e-18
5.3255160863122235 2.8237199692511767e-24 3.991652803647875e-16 3.9609190023104335e-16 3.0733801337441465e-18
5.365609099470188 2.910795834816177e-24 4.1457223005163035e-16 4.114164671213571e-16 3.155762930273284e-18
5.406003951863644 3.0009248626747294e-24 4.306266601642001e-16 4.273871485850768e-16 3.239511579123277e-18
5.446702915881641 3.0942504842136103e-24 4.473614820099864e-16 4.4403685421850256e-16 3.324627791483927e-18
5.487708281020852 3.1945547181353388e-24 4.653404240236299e-16 4.619290252773201e-16 3.4113987463097222e-18
5.529022354014368 3.331439379867064e-24 4.889333866731146e-16 4.85431319438039e-16 3.502067235075662e-18
5.570647458961463 3.475877867440154e-24 5.1397218429253815e-16 5.103779255038663e-16 3.59425878867162e-18
5.612585937458331 3.628405750704217e-24 5.405654486538145e-16 5.368774707253856e-16 3.6879779284288255e-18
5.654840148729818 3.7952931549496854e-24 5.696854047022901e-16 5.65901811284651e-16 3.783593417639049e-18
5.67608639626678 3.907800816007214e-24 5.887770178947816e-16 5.849434484851287e-16 3.83356940965298e-18
5.686739436050992 3.965710214902823e-24 5.986234679075443e-16 5.947647490600248e-16 3.858718847519694e-18
5.6974124697621304 4.0247582123478325e-24 6.086769980386783e-16 6.047930219498874e-16 3.883976088790879e-18
5.718818669136295 4.1463786823098604e-24 6.294260634300837e-16 6.254912489260726e-16 3.934814504011104e-18
5.740305295436557 4.280066234675962e-24 6.52161134737643e-16 6.481747347335664e-16 3.986400004076598e-18
5.7835210386641895 4.624917651575675e-24 7.100121116930407e-16 7.059187628171745e-16 4.093348875866215e-18
5.827062130521658 5.020581524870457e-24 7.765565825575129e-16 7.723536194784354e-16 4.2029630790772825e-18
5.8489554468988025 5.297038182269907e-24 8.22395735663636e-16 8.181338981705954e-16 4.261837493040829e-18
5.870931020387893 5.593118340117589e-24 8.716264869147293e-16 8.673051957116965e-16 4.321291203033073e-18
5.892989160043636 5.910391841369656e-24 9.245307268414478e-16 9.201493997942228e-16 4.381327047224874e-18
5.915130176081913 6.270612958636871e-24 9.845635089284409e-16 9.801200166762468e-16 4.44349225219405e-18
5.95966208400165 7.275455580747507e-24 1.1509362326060622e-15 1.1463531364579857e-15 4.5830961480768374e-18
6.004529249263818 8.719867154424487e-24 1.3898190697030248e-15 1.3850798754422597e-15 4.7391942607653555e-18
6.027089341400364 9.722583425848882e-24 1.5554596177394162e-15 1.5506312668035856e-15 4.8283509358308674e-18
6.049734195844842 1.090592184880862e-23 1.7513304873100988e-15 1.7464078662751159e-15 4.922621034982932e-18
6.095279466722835 1.4320973367929532e-23 2.3170509989205688e-15 2.3119003275455728e-15 5.150671374994866e-18
6.141167624020661 1.9569791698755477e-23 3.1901168261422915e-15 3.1846746890886236e-15 5.442137053667744e-18
6.164241091010745 2.2921835930427663e-23 3.75058013318291e-15 3.744957282094432e-15 5.622851088477992e-18
6.187401249150058 2.673590043607193e-23 4.391091925552996e-15 4.385282855456893e-15 5.809070096102283e-18
6.1990139391386085 2.8598447435882245e-23 4.705811238381985e-15 4.699907271773027e-15 5.90396660895899e-18
6.204828454712694 2.9579170396752385e-23 4.871752327495912e-15 4.865800360831838e-15 5.951966664072524e-18
6.210648424152782 3.0295566105935333e-23 4.9944244774382085e-15 4.988431073795471e-15 5.993403642736708e-18
6.233982942956859 3.2729383003614634e-23 5.415927736294055e-15 5.40978753941814e-15 6.140196875917149e-18
6.239830258556775 3.304064035637467e-23 5.4725616731853466e-15 5.466399374846302e-15 6.162298339041559e-18
6.245683058788269 3.306815308047964e-23 5.482256035686044e-15 5.476071574207166e-15 6.184461478876945e-18
6.257405133728602 3.300250215858687e-23 5.481640819805882e-15 5.475416540764397e-15 6.224279041486568e-18
6.269149208991335 3.252560482736475e-23 5.412568686117434e-15 5.406324858275805e-15 6.243827841627916e-18
6.280915325867298 3.1327911439624766e-23 5.223045559579584e-15 5.216807328574843e-15 6.238231004740799e-18
6.304513850009849 2.8373620795491017e-23 4.748274266446915e-15 4.742070062024932e-15 6.204204421983594e-18
6.32820103803542 2.4712514479975324e-23 4.1511328978976545e-15 4.144987012540219e-15 6.14588535743557e-18
6.3519772230701035 2.1355633355320002e-23 3.600732189845248e-15 3.594636920935691e-15 6.0952689095567605e-18
6.375842739491607 1.8530421724067232e-23 3.1361175511325232e-15 3.1300650750409345e-15 6.052476091588415e-18
6.399797922933955 1.6269168590796723e-23 2.763764625110501e-15 2.7577257253536096e-15 6.03889975689163e-18
6.42384311029221 1.43884504556893e-23 2.4534566246668633e-15 2.447425481033861e-15 6.031143633002274e-18
6.447978639727206 1.3020079603353704e-23 2.2284693365534508e-15 2.222422947415136e-15 6.0463891383141245e-18
6.472204850670314 1.1880178283419015e-23 2.0410077120214356e-15 2.0349413872177918e-15 6.0663248036436344e-18
6.496522083828205 1.1141538391158319e-23 1.921301462068961e-15 1.9151963616904894e-15 6.10510037847156e-18
6.520930681187647 1.051975457261657e-23 1.8208938304111433e-15 1.814746858506937e-15 6.146971904205686e-18
6.57002334288761 9.888449703566838e-24 1.7245053837165367e-15 1.7182478071252351e-15 6.257576591301469e-18
