Dust emission spectrum from A.P. Jones, M. Kohler, N. Ysard, M. Bocchio, and L. Verstraete (2017), A&A, 602A, 46J 
inside the DustPedia framework.

lambda    nu*dP/dnu     j_nu    j_nu(carb.) j_nu(sil)
 (um)   (erg s-1 H-1) (Jy cm2 sr-1 H-1)
0.9927057738263894 2.585870430824807e-22 6.8139154597316754e-15 6.813915254302119e-15 2.0542955568682627e-22
1.0001793341362166 2.629401959719013e-22 6.980785477766171e-15 6.980785230507842e-15 2.4725832913360196e-22
1.0077091589558085 2.6730859569365364e-22 7.150189685371432e-15 7.150189388161767e-15 2.972096665542883e-22
1.0114953028030835 2.694982783677449e-22 7.235845721508522e-15 7.235845395819904e-15 3.256886157208379e-22
1.0152956718711033 2.7169149421032364e-22 7.322139692481279e-15 7.32213933570345e-15 3.567778268702536e-22
1.0229392996569957 2.7608603503464783e-22 7.496589608844375e-15 7.49658918112318e-15 4.277211966701863e-22
1.0267826658714554 2.7828234622780027e-22 7.58461634528753e-15 7.584615877184729e-15 4.681028031306776e-22
1.0306404723013447 2.804817313642931e-22 7.673282816794843e-15 7.673282304668234e-15 5.121266069532351e-22
1.03451277320114 2.8268410804214795e-22 7.762590641123147e-15 7.762590081018622e-15 5.6010452637525575e-22
1.0383996230291617 2.8488939580465284e-22 7.852541476957013e-15 7.852540864583348e-15 6.123736639396689e-22
1.0403485208654093 2.8599310674460825e-22 7.897758554267464e-15 7.897757914037328e-15 6.402301353777198e-22
1.0423010764483396 2.870975161922386e-22 7.94313702614167e-15 7.943136356843464e-15 6.692982068058716e-22
1.0462171883269815 2.893083927940233e-22 8.034379035948641e-15 8.034378304677184e-15 7.312714595299573e-22
1.0471985131304309 2.8986153384774993e-22 8.057290757141908e-15 8.057290009539239e-15 7.47602670839407e-22
1.048180758391296 2.9041484136963325e-22 8.080243022593943e-15 8.080242258311185e-15 7.642827534403493e-22
1.0501480137395462 2.9152195129900216e-22 8.126269301373593e-15 8.126268502655576e-15 7.987180177071899e-22
1.0521189612883777 2.9262971362969703e-22 8.172458104501192e-15 8.172457269865595e-15 8.346355971544525e-22
1.0531058218030118 2.9318309341585395e-22 8.195592748917011e-15 8.195591895746674e-15 8.531703390276433e-22
1.0540936079674168 2.937341979193333e-22 8.21869994009985e-15 8.218699067997094e-15 8.72102757770242e-22
1.058054026499678 2.9594009333905716e-22 8.311532047496209e-15 8.311531095565253e-15 9.519309568676023e-22
1.0590464539527713 2.9649193131311544e-22 8.334841059043876e-15 8.334840086089568e-15 9.7295430709725e-22
1.06003981227728 2.9704391287350977e-22 8.358190524864595e-15 8.358189530443193e-15 9.944214023906786e-22
1.0620293250338977 2.9814830270364296e-22 8.405010941931645e-15 8.405009903209054e-15 1.0387225922971592e-21
1.0660195594769086 3.0035876137069196e-22 8.499138589066754e-15 8.49913745601384e-15 1.1330529149230716e-21
1.070024785945596 3.02571407073775e-22 8.593917014862885e-15 8.593915779321038e-15 1.2355418462952867e-21
1.0740450607676866 3.0478617997070274e-22 8.689348308070337e-15 8.689346961213127e-15 1.3468572088428125e-21
1.07808044048254 3.0700302269128317e-22 8.785434622745744e-15 8.785433155027575e-15 1.4677181708301415e-21
1.0861967418109137 3.114392651244754e-22 8.979482217443553e-15 8.979480476210778e-15 1.7412327739783924e-21
1.0902777775684922 3.1365075085110337e-22 9.077221326532074e-15 9.0772194309158e-15 1.895616272814542e-21
1.0943741465085532 3.1586396676377558e-22 9.175618385033163e-15 9.175616322020398e-15 2.0630127658580276e-21
1.1026131145906286 3.2029541733775216e-22 9.374396354110269e-15 9.374393913044077e-15 2.4410661926406985e-21
1.1109141095355224 3.2473330118001064e-22 9.575836964166407e-15 9.575834079525028e-15 2.8846413776501233e-21
1.1192775983109025 3.2917382154772966e-22 9.779857665904345e-15 9.779854261501461e-15 3.404402880935782e-21
1.1277040513999907 3.3360054408440974e-22 9.985994534294515e-15 9.985990521663232e-15 4.0126312810091485e-21
1.1361939428280308 3.3803250697895236e-22 1.0194838938742155e-14 1.0194834215293822e-14 4.723448332174327e-21
1.1447477501889525 3.424695903594843e-22 1.0406417510438401e-14 1.0406411957367102e-14 5.553071299679467e-21
1.1533659546722406 3.4691337465963204e-22 1.0620809137342691e-14 1.0620802617234724e-14 6.520107967544314e-21
1.1707974979042381 3.5583453400477138e-22 1.1058578701896337e-14 1.1058569747087782e-14 8.95480855599197e-21
1.1884924949847024 3.6478206437422377e-22 1.1507986756626786e-14 1.1507974519503727e-14 1.2237123059449326e-20
1.2064549276569216 3.738170818785817e-22 1.1971254883382544e-14 1.1971238243315727e-14 1.6640066813656803e-20
1.2246888378427687 3.828779219430408e-22 1.2446737108869793e-14 1.244671459244219e-14 2.251642760009895e-20
1.2431983285522175 3.9195616004014426e-22 1.2934431491590076e-14 1.2934401171121318e-14 3.032046875886431e-20
1.2619875648066055 4.01063780856432e-22 1.343500870647352e-14 1.3434968072335848e-14 4.06341376749389e-20
1.3004222497298317 4.1930452013116576e-22 1.4473826711218195e-14 1.447375475838826e-14 7.19528299352292e-20
1.3400274889804893 4.376469389153361e-22 1.5567075641610863e-14 1.556695056518252e-14 1.2507642834185417e-19
1.3808389325824078 4.561510767215771e-22 1.6719418198356788e-14 1.671920465929301e-14 2.1353906378066092e-19
1.4228933163050095 4.749707391610592e-22 1.7939429508140772e-14 1.7939071272915045e-14 3.582352257266921e-19
1.466228494730424 4.944432552898598e-22 1.924365425419447e-14 1.9243063420358098e-14 5.908338363731914e-19
1.5108834753276823 5.145179522749558e-22 2.0634831975913013e-14 2.0633873547329123e-14 9.584285838866979e-19
1.5568984535646726 5.351693817360351e-22 2.2116733192072837e-14 2.2115202426120766e-14 1.530765952078432e-18
1.6043148490894465 5.565219857375182e-22 2.3699618896052747e-14 2.3697207203114035e-14 2.411692938723399e-18
1.6531753430134553 5.787084761049359e-22 2.5394998737914276e-14 2.5391255163861532e-14 3.743574052745304e-18
1.7035239163302658 6.018881902064623e-22 2.7216576164304228e-14 2.7210849474253817e-14 5.7266900504130806e-18
1.755405889504358 6.265255041703107e-22 2.9193471314775285e-14 2.9184833771671124e-14 8.637543104160519e-18
1.8088679632656115 6.526180638012995e-22 3.1335410655197956e-14 3.1322560780649026e-14 1.2849874548934976e-17
1.8639582606462262 6.801549348868206e-22 3.365220063530236e-14 3.363333805207132e-14 1.8862583231042285e-17
1.9207263702978936 7.092240657608345e-22 3.6159165240493883e-14 3.613183400014013e-14 2.7331240353748234e-17
1.979223391128241 7.399573968159682e-22 3.8875050291516904e-14 3.8835944631444696e-14 3.910566007220379e-17
2.039501978296691 7.724707062229419e-22 4.1819186755668504e-14 4.176391602529361e-14 5.527073037488254e-17
2.1016163906111602 8.0711988173541565e-22 4.502574685473037e-14 4.494854927912458e-14 7.719757560578069e-17
2.1656225393682647 8.44073910462658e-22 4.8521327328126894e-14 4.841473828765742e-14 1.0658904046949091e-16
2.231578038680979 8.832346623652934e-22 5.231878097158245e-14 5.21732501038618e-14 1.455308677206606e-16
2.299542257339062 9.246283493768105e-22 5.6438833981471045e-14 5.624228890655373e-14 1.965450749173062e-16
2.369576372248914 9.683751485799547e-22 6.090932397933897e-14 6.06466773084621e-14 2.6264667087688457e-16
2.4417434235010123 1.0146215472577185e-21 6.576177710770702e-14 6.54143907871209e-14 3.473863205861096e-16
2.5161083711144245 1.063703570988053e-21 7.104268925837149e-14 7.058778259650496e-14 4.5490666186654345e-16
2.5927381535095444 1.1162099547070368e-21 7.681994343122515e-14 7.622996758832225e-14 5.899758429029218e-16
2.6717017477616296 1.1726691158041173e-21 8.316352611635202e-14 8.240554662683692e-14 7.579794895151145e-16
2.753070231689431 1.23388567165189e-21 9.016991175247308e-14 8.920498352192707e-14 9.649282305460034e-16
2.836916847834745 1.3020644776878939e-21 9.805021050143798e-14 9.683272431210964e-14 1.217486189328359e-15
2.9233170693905177 1.382114279225866e-21 1.0724802650422631e-13 1.0572539100130221e-13 1.5226355029241124e-15
2.967498994190263 1.4313362711331837e-21 1.127461420851865e-13 1.1105212639642881e-13 1.6940156887576759e-15
3.0123486681368425 1.4842633158554204e-21 1.1868221013584995e-13 1.1679999869852803e-13 1.8822114373219513e-15
3.0578761833420214 1.5700599139950963e-21 1.2743993901921095e-13 1.2535074644238112e-13 2.0891925768298148e-15
3.1040917844459814 1.6707897552749881e-21 1.376657138425865e-13 1.3535135745183226e-13 2.314356390754223e-15
3.127460860933648 1.762861691923742e-21 1.46345562003474e-13 1.4391067800715988e-13 2.4348839963141148e-15
3.1510058709225794 1.879656581821764e-21 1.5721614940443792e-13 1.546556548089351e-13 2.5604945955028238e-15
3.162844764501044 1.9842332130854646e-21 1.6658658476107193e-13 1.6396109502349296e-13 2.6254897375789753e-15
3.1747281389236908 2.1027481298682662e-21 1.7719980098281563e-13 1.7450800066912925e-13 2.6918003136864034e-15
3.1986289994194426 2.4236109973365937e-21 2.0577670928993018e-13 2.029479308799234e-13 2.8287784100067756e-15
3.2227097969389145 3.1632811214283393e-21 2.7060039227593275e-13 2.676264894173482e-13 2.9739028585845583e-15
3.2348180950136065 3.856523925435525e-21 3.311428077878229e-13 3.2809146397688717e-13 3.0513438109357418e-15
3.240889293275058 4.3739801252748815e-21 3.762793927237223e-13 3.7318720072389304e-13 3.0921919998291133e-15
3.2469718861334385 4.9734321023957784e-21 4.286513093592963e-13 4.2551685142392154e-13 3.134457935374794e-15
3.2714166318528037 8.124489459422564e-21 7.05507069464026e-13 7.021979651765699e-13 3.3091042874561587e-15
3.2744851364798273 8.3218434311655e-21 7.233225373627635e-13 7.1999285580002e-13 3.3296815627434644e-15
3.2775565192852394 8.524515097975523e-21 7.416334453253479e-13 7.382830840516686e-13 3.350361273679363e-15
3.283707930232385 8.332044279699639e-21 7.262489610906631e-13 7.228616263792699e-13 3.3873347113931967e-15
3.2898708863219004 7.717068355975979e-21 6.739080346041148e-13 6.704870598648281e-13 3.420974739286511e-15
3.29141343181113 7.57177480565294e-21 6.615300231342859e-13 6.581006014156252e-13 3.4294217186606433e-15
3.292184975758714 7.50034277897603e-21 6.554427644297054e-13 6.520091136689736e-13 3.4336507607318278e-15
3.295272960557952 7.053856626114828e-21 6.170032560984106e-13 6.135531566496925e-13 3.4500994487181214e-15
3.3076538914384823 5.496904254901616e-21 4.826226109207194e-13 4.791064496760492e-13 3.5161612446700677e-15
3.310756385682612 5.177181784211802e-21 4.549776601308264e-13 4.514448483198865e-13 3.5328118109401064e-15
3.313861789986515 4.8810792147110605e-21 4.293581197354265e-13 4.258086032186873e-13 3.5495165167392395e-15
3.3200813396944477 4.4677209129246025e-21 3.937351549351453e-13 3.901497047027914e-13 3.585450232353933e-15
3.345076488085796 3.746908101564311e-21 3.326967261643743e-13 3.2895113212936067e-13 3.745594035013696e-15
3.3482140837626964 3.7768258457300596e-21 3.3566774524704073e-13 3.319004569386477e-13 3.7672883083929594e-15
3.3513546224236106 3.807019325034703e-21 3.386685742214841e-13 3.3487949433896526e-13 3.789079882518834e-15
3.3576445397418455 4.016474628231973e-21 3.579720989418932e-13 3.541374567505806e-13 3.834642191312692e-15
3.3702598118196083 4.7747118740557115e-21 4.271495806716074e-13 4.232193705843857e-13 3.9302100872216354e-15
3.382922481734668 4.9570969382621805e-21 4.4513207664365264e-13 4.411089772949621e-13 4.023099348690477e-15
3.389271646505754 5.051152083087889e-21 4.544292276372795e-13 4.5035904638929646e-13 4.0701812479829765e-15
3.395632727569191 5.154280413926505e-21 4.645775143436598e-13 4.604588122647252e-13 4.118702078934459e-15
3.421196662673239 5.653026886532634e-21 5.133676804632848e-13 5.090481262404447e-13 4.31955422283995e-15
3.4276182099114902 5.564525439889884e-21 5.062791085755774e-13 5.019147319921794e-13 4.364376583398065e-15
3.4340518103208963 5.1588925579768145e-21 4.702542825709997e-13 4.658475124205308e-13 4.40677015046882e-15
3.4469541582030403 4.57806341049793e-21 4.1887722186004465e-13 4.1438908388097596e-13 4.488137979068635e-15
3.472904465399547 4.4220538677450626e-21 4.0764892218017857e-13 4.0297334742362124e-13 4.6755747565572946e-15
3.4990501388274233 4.182619397743172e-21 3.884793567539833e-13 3.8361198002165254e-13 4.8673767323307215e-15
3.5253949054701885 3.316986027981144e-21 3.1039938191082564e-13 3.0534567700222317e-13 5.0537049086025266e-15
3.5519380250092896 2.4940373308582434e-21 2.3514609031234797e-13 2.2990511502936007e-13 5.240975282987874e-15
3.578680990867387 2.1765058914722274e-21 2.067532126297275e-13 2.013069857190519e-13 5.446226910675553e-15
3.605625307711299 2.057873193005524e-21 1.9695573729068457e-13 1.912933495112783e-13 5.662387779406299e-15
3.660119384959845 1.9912593500562587e-21 1.9346059202541557e-13 1.8734411056785337e-13 6.116481457562126e-15
3.715437065384467 1.950885752639377e-21 1.9240270763139305e-13 1.8580759482227333e-13 6.595112809119741e-15
3.8285932144167436 1.9743455305539046e-21 2.0064660663309657e-13 1.930230836877728e-13 7.623522945323801e-15
3.94519561050918 2.0247855153641326e-21 2.1203961141416765e-13 2.032951193523507e-13 8.744492061817026e-15
4.06534921144712 2.08522728659896e-21 2.250197768097399e-13 2.1506323775051157e-13 9.956539059228307e-15
4.189162171576248 2.150556408844791e-21 2.391373678690623e-13 2.278756890561928e-13 1.1261678812869533e-14
4.316745939156006 2.218524487676726e-21 2.542085473583344e-13 2.4155380055670996e-13 1.2654746801624393e-14
4.448215356677963 2.2879976690322414e-21 2.701536352068833e-13 2.560375817602241e-13 1.4116053446659213e-14
4.58368876423945 2.3586698293287666e-21 2.869800493594193e-13 2.7133307108346865e-13 1.564697827595072e-14
4.723288106065518 2.4307699746677767e-21 3.0475983746645245e-13 2.875031758621584e-13 1.7256661604294087e-14
4.867139040275056 2.504612646765303e-21 3.2358155312275066e-13 3.046797205771535e-13 1.8901832545597213e-14
4.940699165968905 2.5435773479538853e-21 3.335821417218772e-13 3.138395466000092e-13 1.974259512186794e-14
5.015371051989984 2.581884645885005e-21 3.437235881965494e-13 3.2313079330038736e-13 2.059279489616217e-14
5.091171501069577 2.624046121642735e-21 3.546162428300402e-13 3.3314541649845686e-13 2.147082633158333e-14
5.129500256944802 2.6448350617509425e-21 3.601165513909404e-13 3.3820408930713155e-13 2.1912462083808794e-14
5.168117569889187 2.6658358547002955e-21 3.6570864161466615e-13 3.433484949212425e-13 2.2360146693423728e-14
5.20702561229733 2.6901938712330078e-21 3.718285438948902e-13 3.4897940348623014e-13 2.284914040865996e-14
5.246226572918644 2.7144720448397107e-21 3.780087469528251e-13 3.546676025778042e-13 2.334114437502109e-14
5.265937586045735 2.7265818572279337e-21 3.8112170351972385e-13 3.575334928261954e-13 2.3588210693528454e-14
5.285722656980489 2.7386725761034674e-21 3.8425003691746156e-13 3.604140852519814e-13 2.3835951665480102e-14
5.305582063971359 2.7507445617099717e-21 3.873938594181156e-13 3.6330951860486133e-13 2.4084340813254256e-14
5.3255160863122235 2.763445290311129e-21 3.90644761552725e-13 3.663094046398572e-13 2.43353569128677e-14
5.365609099470188 2.7938181301701687e-21 3.9791159473624443e-13 3.7305687107023423e-13 2.4854723666010203e-14
5.406003951863644 2.824416938364578e-21 4.0529812932239536e-13 3.799209889963837e-13 2.537714032601168e-14
5.446702915881641 2.8552642041136455e-21 4.1280925135153497e-13 3.869068557938896e-13 2.5902395557645354e-14
5.487708281020852 2.887619125946189e-21 4.206301118770241e-13 3.941975508425228e-13 2.64325610345013e-14
5.529022354014368 2.9312867054120885e-21 4.302056176823481e-13 4.032203902947875e-13 2.6985227387560656e-14
5.570647458961463 2.9761434182722222e-21 4.4007729609434323e-13 4.1253625010175804e-13 2.7541045992585013e-14
5.612585937458331 3.0222955548008404e-21 4.502662229074741e-13 4.221664211696504e-13 2.8099801737823586e-14
5.654840148729818 3.0717253189152073e-21 4.610756033847613e-13 4.324115092510287e-13 2.866409413373251e-14
5.67608639626678 3.105298816013472e-21 4.678663684892463e-13 4.38906910406514e-13 2.895945808273219e-14
5.686739436050992 3.1224114659123397e-21 4.713276257389185e-13 4.422201560720468e-13 2.910746966687172e-14
5.6974124697621304 3.1397488355741212e-21 4.748342123930621e-13 4.455785159172326e-13 2.9255696475829423e-14
5.718818669136295 3.1751209606801632e-21 4.819877874931425e-13 4.5243500536075624e-13 2.955278213238622e-14
5.740305295436557 3.2137971617427137e-21 4.89691861971249e-13 4.598389043074619e-13 2.985295766378709e-14
5.7835210386641895 3.3137566223538023e-21 5.087241577744929e-13 4.782507757445125e-13 3.0473382029980455e-14
5.827062130521658 3.426118986258292e-21 5.299336816311929e-13 4.988305181719968e-13 3.110316345919604e-14
5.8489554468988025 3.505632513986014e-21 5.442696712959029e-13 5.12825956972626e-13 3.144371432327675e-14
5.870931020387893 3.5896441022795614e-21 5.594068796474511e-13 5.276211985707277e-13 3.1785681076723297e-14
5.892989160043636 3.678509908520791e-21 5.754094704201678e-13 5.432804325600302e-13 3.2129037860137575e-14
5.915130176081913 3.778970671726467e-21 5.933449647164134e-13 5.60859858613977e-13 3.248510610243621e-14
5.95966208400165 4.060953831380302e-21 6.424201002400713e-13 6.091206654295652e-13 3.329943481050628e-14
6.004529249263818 4.463890541799292e-21 7.11478751933932e-13 6.772612809022582e-13 3.421747103167373e-14
6.027089341400364 4.74361807070989e-21 7.58903886733579e-13 7.241544795162088e-13 3.4749407217370184e-14
6.049734195844842 5.070963320166735e-21 8.143220523452962e-13 7.790088617170219e-13 3.531319062827416e-14
6.095279466722835 6.014491588573093e-21 9.73110094214038e-13 9.364059707571993e-13 3.670412345683875e-14
6.141167624020661 7.45277739804541e-21 1.2148944120089734e-12 1.1763786591585869e-12 3.851575285038681e-14
6.164241091010745 8.369506863993519e-21 1.3694586360319712e-12 1.329802768681074e-12 3.965586735089702e-14
6.187401249150058 9.400581814677295e-21 1.54394721062907e-12 1.5031211218843863e-12 4.082608874468349e-14
6.1990139391386085 9.901740125045572e-21 1.6293094254310466e-12 1.587887989234196e-12 4.1421436196850655e-14
6.204828454712694 1.0164612609178279e-20 1.6741333334451976e-12 1.6324112468740978e-12 4.172208657109946e-14
6.210648424152782 1.035501738217338e-20 1.7070931137904265e-12 1.665115568617223e-12 4.197754517320353e-14
6.233982942956859 1.099377556861208e-20 1.819206125030293e-12 1.7763408767245579e-12 4.286524830573555e-14
6.239830258556775 1.1070830293190415e-20 1.8336751618424394e-12 1.7906889474921218e-12 4.298621435031745e-14
6.245683058788269 1.1070441209207577e-20 1.8353305970605313e-12 1.7922232428915e-12 4.3107354169031475e-14
6.257405133728602 1.1036598247484039e-20 1.8331539582814786e-12 1.7898358649130397e-12 4.331809336843963e-14
6.269149208991335 1.0890585253917002e-20 1.8122965285875454e-12 1.7689072598841421e-12 4.338926870340329e-14
6.280915325867298 1.0548715256057074e-20 1.7587007191207205e-12 1.7154127825995394e-12 4.328793652118044e-14
6.304513850009849 9.715781877998506e-21 1.625918574235786e-12 1.5829892876084076e-12 4.2929286627378524e-14
6.32820103803542 8.699295388769293e-21 1.4612811377859287e-12 1.4188764570686797e-12 4.240468071724904e-14
6.3519772230701035 7.77169867079677e-21 1.3103711375876513e-12 1.2684381703798448e-12 4.1932967207806384e-14
6.375842739491607 6.989109127981554e-21 1.182847758644133e-12 1.141332212332028e-12 4.1515546312104995e-14
6.399797922933955 6.367883602130335e-21 1.0817597308779988e-12 1.0404649536153678e-12 4.1294777262631446e-14
6.42384311029221 5.849142434264833e-21 9.973705853984279e-13 9.562573595360167e-13 4.1113225862411407e-14
6.447978639727206 5.4725148682624234e-21 9.366556848557509e-13 8.955707808847669e-13 4.1084903970984024e-14
6.472204850670314 5.157363254498876e-21 8.860320043192836e-13 8.449450670394567e-13 4.1086937279826716e-14
6.496522083828205 4.951997974487852e-21 8.539467903369939e-13 8.127337750227557e-13 4.121301531423832e-14
