Dust emission spectrum from A.P. Jones, M. Kohler, N. Ysard, M. Bocchio, and L. Verstraete (2017), A&A, 602A, 46J 
inside the DustPedia framework.

lambda    nu*dP/dnu     j_nu    j_nu(carb.) j_nu(sil)
 (um)   (erg s-1 H-1) (Jy cm2 sr-1 H-1)
0.9927057738263894 1.0925757086562731e-23 2.878999049370642e-16 2.8789990107171953e-16 3.865344652582086e-24
1.0001793341362166 1.1108814024703324e-23 2.9492732114317436e-16 2.949273164895202e-16 4.653654014876371e-24
1.0077091589558085 1.1292150122699322e-23 3.020516984254516e-16 3.0205169283007936e-16 5.5953722779709034e-24
1.0114953028030835 1.1383907675279706e-23 3.056501887326322e-16 3.0565018260021237e-16 6.132419924161062e-24
1.0152956718711033 1.1475716902728212e-23 3.0927284815216613e-16 3.092728414333684e-16 6.718797867359758e-24
1.0229392996569957 1.1659377300905199e-23 3.1658814872180253e-16 3.165881406645564e-16 8.057246209365739e-24
1.0267826658714554 1.1751013971455317e-23 3.2027519477877104e-16 3.202751859594597e-16 8.819311353522392e-24
1.0306404723013447 1.1842674247670171e-23 3.2398612332979507e-16 3.239861136795268e-16 9.65026835730104e-24
1.03451277320114 1.1934352438540458e-23 3.2772090793822285e-16 3.2772089738218906e-16 1.0556033751775495e-23
1.0383996230291617 1.2026042918615762e-23 3.3147952227344063e-16 3.314795107304372e-16 1.1543003399866535e-23
1.0403485208654093 1.2071891027565578e-23 3.333677574064052e-16 3.3336774533732663e-16 1.2069078479780537e-23
1.0423010764483396 1.2117740129983004e-23 3.352619401805639e-16 3.3526192756247507e-16 1.2618088814956177e-23
1.0462171883269815 1.2209438584224981e-23 3.3906813575104182e-16 3.3906812196228573e-16 1.3788756024248298e-23
1.0471985131304309 1.2232362755584862e-23 3.400233968966348e-16 3.4002338279934627e-16 1.4097288540655253e-23
1.048180758391296 1.2255286581773812e-23 3.40980142148553e-16 3.4098012773612525e-16 1.4412427732060112e-23
1.0501480137395462 1.2301132864358549e-23 3.4289808339416423e-16 3.4289806833109698e-16 1.506306713916637e-23
1.0521189612883777 1.2346976766332451e-23 3.448219563505781e-16 3.448219406087956e-16 1.5741782439512878e-23
1.0531058218030118 1.2369865120124047e-23 3.4578520781133157e-16 3.457851917192819e-16 1.6092049727403863e-23
1.0540936079674168 1.2392646159377174e-23 3.467469602423439e-16 3.467469437924942e-16 1.644984962457161e-23
1.058054026499678 1.2483755868633566e-23 3.5060858366490553e-16 3.506085657062058e-16 1.7958699684349293e-23
1.0590464539527713 1.2506529281509475e-23 3.5157764091588464e-16 3.5157762255976807e-16 1.835611663763514e-23
1.06003981227728 1.252930092870059e-23 3.5254815792180976e-16 3.52548139159867e-16 1.8761942718764281e-23
1.0620293250338977 1.2574838608727449e-23 3.544935696126883e-16 3.5449355001318627e-16 1.9599502038250247e-23
1.0660195594769086 1.2665889308112004e-23 3.5840189276372076e-16 3.5840187138053e-16 2.1383190790386602e-23
1.070024785945596 1.2756902977340433e-23 3.6233352851873987e-16 3.623335051971878e-16 2.33215522656046e-23
1.0740450607676866 1.2847874710854535e-23 3.6628845307813744e-16 3.662884276508505e-16 2.542728691182847e-23
1.07808044048254 1.2938799688749562e-23 3.7026664351972796e-16 3.702666158056526e-16 2.771407534111377e-23
1.0861967418109137 1.3120341984157918e-23 3.7828845212062936e-16 3.782884192297612e-16 3.289086804419631e-23
1.0902777775684922 1.3210612286631735e-23 3.8232222068451774e-16 3.8232218487071573e-16 3.581380204960503e-23
1.0943741465085532 1.33008115194137e-23 3.863788958386169e-16 3.8637885685482073e-16 3.8983796136025335e-23
1.1026131145906286 1.3480979544717276e-23 3.9456089176751764e-16 3.945608456221332e-16 4.61453844558143e-23
1.1109141095355224 1.3660812575126286e-23 4.028343060046345e-16 4.028342514527552e-16 5.455187933188966e-23
1.1192775983109025 1.3840126664189546e-23 4.1119451181580384e-16 4.1119444740917284e-16 6.44066309341102e-23
1.1277040513999907 1.4018192723628544e-23 4.1962040650455805e-16 4.1962033056061977e-16 7.594393839372499e-23
1.1361939428280308 1.4195810730547732e-23 4.28136350838628e-16 4.28136261405251e-16 8.943337690866487e-23
1.1447477501889525 1.4372954172916235e-23 4.3674231579149023e-16 4.367422106067855e-16 1.051847047507815e-22
1.1533659546722406 1.454967585233273e-23 4.454406820995113e-16 4.454405585459641e-16 1.2355354723329968e-22
1.1707974979042381 1.4902399902890594e-23 4.631348180810303e-16 4.631346482467795e-16 1.698342508297218e-22
1.1884924949847024 1.5253130822818168e-23 4.811991724626329e-16 4.811989401756872e-16 2.3228694553041353e-22
1.2064549276569216 1.5604384782657042e-23 4.99720522649199e-16 4.997202065054597e-16 3.161437392792914e-22
1.2246888378427687 1.5953235033018362e-23 5.186136653800871e-16 5.186132372062561e-16 4.281738309776658e-22
1.2431983285522175 1.6299175864601397e-23 5.378677390054871e-16 5.378671619010041e-16 5.771044829402294e-22
1.2619875648066055 1.6642451064756323e-23 5.574960533075393e-16 5.5749527917755e-16 7.741299892371541e-22
1.3004222497298317 1.7317472465913863e-23 5.977758013901735e-16 5.977744279881056e-16 1.373402067978655e-21
1.3400274889804893 1.797855257663017e-23 6.394960480718042e-16 6.394936559939827e-16 2.392077821378336e-21
1.3808389325824078 1.8626407317668657e-23 6.827183127907419e-16 6.827142206641672e-16 4.0921265747327846e-21
1.4228933163050095 1.9265816999262222e-23 7.276611746346089e-16 7.276542955132417e-16 6.87912136708997e-21
1.466228494730424 1.9909446920133897e-23 7.748725638874156e-16 7.748611943301513e-16 1.1369557264138574e-20
1.5108834753276823 2.0553029744305285e-23 8.242828330760371e-16 8.242643501086017e-16 1.8482967435628018e-20
1.5568984535646726 2.1193591024362834e-23 8.758591467755879e-16 8.758295617079105e-16 2.9585067677290154e-20
1.6043148490894465 2.183475687933807e-23 9.298382274017545e-16 9.297915129968047e-16 4.671440494971704e-20
1.6531753430134553 2.248054947990307e-23 9.864958770125892e-16 9.864231997423395e-16 7.267727024953235e-20
1.7035239163302658 2.3136552621623346e-23 1.0462038578790566e-15 1.0460924236931132e-15 1.114341859433837e-19
1.755405889504358 2.3821491473918743e-23 1.109981993374637e-15 1.1098135216122788e-15 1.6847176235851785e-19
1.8088679632656115 2.4534365026673112e-23 1.1780158195397442e-15 1.1777645858397495e-15 2.512336999946475e-19
1.8639582606462262 2.52745742429845e-23 1.2505166099225497e-15 1.2501469156929884e-15 3.6969422956180067e-19
1.9207263702978936 2.6045963623925403e-23 1.3279305483170206e-15 1.3273935358212212e-15 5.370124957995309e-19
1.979223391128241 2.6854606962829357e-23 1.4108571665492168e-15 1.4100868488796288e-15 7.703176695881104e-19
2.039501978296691 2.7706615653238146e-23 1.4999509043335716e-15 1.498859330559572e-15 1.0915737739993466e-18
2.1016163906111602 2.8618184996250716e-23 1.596485456797894e-15 1.5949567911797462e-15 1.5286656181478325e-18
2.1656225393682647 2.9598267263148156e-23 1.7014472268588495e-15 1.6993308325594606e-15 2.1163942993896093e-18
2.231578038680979 3.0645771081904317e-23 1.8153152873842774e-15 1.812417679954446e-15 2.8976074298312875e-18
2.299542257339062 3.1764592436040306e-23 1.9388942164655322e-15 1.9349698168069877e-15 3.924399658544196e-18
2.369576372248914 3.296360909211486e-23 2.073360875342758e-15 2.0681014656244895e-15 5.259409718268533e-18
2.4417434235010123 3.425317955119336e-23 2.2200888252018245e-15 2.213111957324854e-15 6.97686787697054e-18
2.5161083711144245 3.5652468712452735e-23 2.3811589291553106e-15 2.3719949789088346e-15 9.163950246476852e-18
2.5927381535095444 3.7193200563776246e-23 2.5597151783916895e-15 2.5477934632808773e-15 1.1921715110812608e-17
2.6717017477616296 3.890855408422425e-23 2.759322736588028e-15 2.7439575143544327e-15 1.5365222233594857e-17
2.753070231689431 4.084819496136949e-23 2.9851048760323446e-15 2.9654808704364776e-15 1.9624005595867837e-17
2.836916847834745 4.31333417593539e-23 3.248098163806037e-15 3.2232551753967654e-15 2.4842988409272136e-17
2.9233170693905177 4.60316642886999e-23 3.571922543505796e-15 3.5407462344139423e-15 3.11763090918535e-17
2.967498994190263 4.7973465053582e-23 3.7788626029631315e-15 3.744112975117777e-15 3.474962784535385e-17
3.0123486681368425 5.011601283308349e-23 4.007293788568134e-15 3.968612649356585e-15 3.868113921154779e-17
3.0578761833420214 5.398114854509526e-23 4.381587108525716e-15 4.338574265511083e-15 4.301284301463261e-17
3.1040917844459814 5.868911748049947e-23 4.8357246788448335e-15 4.787988204302206e-15 4.7736474542627716e-17
3.127460860933648 6.325376109902409e-23 5.2510683392118284e-15 5.200798841351876e-15 5.026949785995348e-17
3.1510058709225794 6.916985635780118e-23 5.7854283471781295e-15 5.7325156948033026e-15 5.291265237482675e-17
3.162844764501044 7.455531371718478e-23 6.259302085072578e-15 6.205020503716997e-15 5.428158135558091e-17
3.1747281389236908 8.073186094495024e-23 6.80332061135337e-15 6.747641502465956e-15 5.567910888741533e-17
3.1986289994194426 9.768691360501204e-23 8.294108107456052e-15 8.235539385755157e-15 5.856872170089474e-17
3.2227097969389145 1.371712391633356e-22 1.1734205624384716e-14 1.1672572010249782e-14 6.163361413493014e-17
3.2348180950136065 1.7438270171137263e-22 1.4973478342367343e-14 1.4910208373063262e-14 6.32699693040815e-17
3.240889293275058 2.021793434773902e-22 1.739283636552241e-14 1.7328703248120566e-14 6.413311740184269e-17
3.2469718861334385 2.3436140440313624e-22 2.019919459889582e-14 2.013416835988496e-14 6.502623901086174e-17
3.2714166318528037 4.0475869552318015e-22 3.514806961654136e-14 3.5079350111168107e-14 6.871950537325478e-17
3.2744851364798273 4.1543139671862006e-22 3.6108693279342834e-14 3.603953783367703e-14 6.91554456657987e-17
3.2775565192852394 4.264011255974747e-22 3.7096929530051916e-14 3.70273359002335e-14 6.9593629818409e-17
3.283707930232385 4.159624434082245e-22 3.6256683502508574e-14 3.618630484251408e-14 7.037865999449517e-17
3.2898708863219004 3.826629442981413e-22 3.3416787413589015e-14 3.334569302702927e-14 7.109438655973937e-17
3.29141343181113 3.7480236815467207e-22 3.274569379573147e-14 3.2674419652269236e-14 7.12741434622422e-17
3.292184975758714 3.7093880451863056e-22 3.241573920453995e-14 3.23443750586523e-14 7.136414588764388e-17
3.295272960557952 3.4666658815049423e-22 3.0323045251231856e-14 3.0251330766842994e-14 7.171448438886001e-17
3.3076538914384823 2.6228655330877477e-22 2.3028493002111232e-14 2.2955370722426824e-14 7.312227968440868e-17
3.310756385682612 2.4503199678645634e-22 2.1533739629360715e-14 2.1460262365630792e-14 7.347726372991839e-17
3.313861789986515 2.2908038215831907e-22 2.01507735943579e-14 2.0076940129494518e-14 7.383346486338069e-17
3.3200813396944477 2.067656580137004e-22 1.8222021916762798e-14 1.81474229028805e-14 7.459901388230008e-17
3.345076488085796 1.6744286187468017e-22 1.4867642988639623e-14 1.4789633942735327e-14 7.800904590429625e-17
3.3482140837626964 1.6900662563924176e-22 1.5020568932049627e-14 1.4942098006441717e-14 7.847092560790892e-17
3.3513546224236106 1.705861933634597e-22 1.5175174580377703e-14 1.5096239620987173e-14 7.893495939052709e-17
3.3576445397418455 1.8178476362193161e-22 1.6201738940908956e-14 1.612183402858684e-14 7.990491232211312e-17
3.3702598118196083 2.2267320305455e-22 1.992052459298718e-14 1.9838585020726506e-14 8.193957226067745e-17
3.382922481734668 2.3228685563040395e-22 2.0858646040526015e-14 2.0774726088562552e-14 8.391995196346162e-17
3.389271646505754 2.3725584399394326e-22 2.134483146915823e-14 2.125990719715058e-14 8.492427200764987e-17
3.395632727569191 2.426598377425596e-22 2.1871977307418883e-14 2.1786018005542904e-14 8.595930187597709e-17
3.421196662673239 2.6870676444226714e-22 2.440203649396257e-14 2.431178961617987e-14 9.024687778270164e-17
3.4276182099114902 2.638343183553813e-22 2.400452742134482e-14 2.391332072020989e-14 9.120670113492484e-17
3.4340518103208963 2.4190069747912697e-22 2.2050243859136117e-14 2.1958127885586803e-14 9.211597354931946e-17
3.4469541582030403 2.1057929560229693e-22 1.9267288897936326e-14 1.917342474577037e-14 9.386415216595364e-17
3.472904465399547 2.0204979299387546e-22 1.8626046358562816e-14 1.8528159432798304e-14 9.788692576451249e-17
3.4990501388274233 1.8893884015889348e-22 1.754853409095139e-14 1.744652387179561e-14 1.0201021915578041e-16
3.5253949054701885 1.4170294912809334e-22 1.3260383810260468e-14 1.3154357098211017e-14 1.0602671204944616e-16
3.5519380250092896 9.701319386809455e-23 9.146724856338125e-15 9.03665250303605e-15 1.1007235330207335e-16
3.578680990867387 7.955400710079419e-23 7.557087995995088e-15 7.44258012423742e-15 1.145078717576684e-16
3.605625307711299 7.278727232909662e-23 6.966352900499923e-15 6.847168277627306e-15 1.191846228726167e-16
3.660119384959845 6.845821277743834e-23 6.65105043828214e-15 6.522016726634608e-15 1.2903371164753316e-16
3.715437065384467 6.560429079719642e-23 6.4701088541657645e-15 6.3306578922771935e-15 1.3945096188856984e-16
3.8285932144167436 6.552265971360346e-23 6.658864482257702e-15 6.49690398134372e-15 1.619605009139832e-16
3.94519561050918 6.696108805868784e-23 7.012299813533896e-15 6.82561163323716e-15 1.8668818029673638e-16
4.06534921144712 6.901187467538194e-23 7.44716738385114e-15 7.233517261720565e-15 2.136501221305744e-16
4.189162171576248 7.140650039579426e-23 7.940253268020089e-15 7.69731253837444e-15 2.4294072964565125e-16
4.316745939156006 7.403691437313004e-23 8.483483756087014e-15 8.208981149790792e-15 2.74502606296221e-16
4.448215356677963 7.685869134760076e-23 9.075033224828684e-15 8.767074880390601e-15 3.079583444380817e-16
4.58368876423945 7.986740690304602e-23 9.717490803605897e-15 9.374095557260685e-15 3.4339524634520943e-16
4.723288106065518 8.308705269179657e-23 1.0417109367734107e-14 1.0036030587700736e-14 3.8107878003336797e-16
4.867139040275056 8.656212416361195e-23 1.1183328733343505e-14 1.0763216725748667e-14 4.201120075948399e-16
4.940699165968905 8.847499045267966e-23 1.1603215773158625e-14 1.1162953252475554e-14 4.402625206830702e-16
5.015371051989984 9.04007711046565e-23 1.2034959605709449e-14 1.1574175818951912e-14 4.607837867575341e-16
5.091171501069577 9.258245665559762e-23 1.2511686688887048e-14 1.20295849296645e-14 4.82101759222543e-16
5.129500256944802 9.367886110767809e-23 1.2755165298661142e-14 1.2262279754780501e-14 4.928855438806396e-16
5.168117569889187 9.480025229826824e-23 1.3005028584786958e-14 1.250118041593415e-14 5.038481688528081e-16
5.20702561229733 9.611077382048604e-23 1.3284072001064775e-14 1.2768304798427328e-14 5.157672026374481e-16
5.246226572918644 9.743412243486526e-23 1.3568366121901412e-14 1.3040562910528097e-14 5.278032113733114e-16
5.265937586045735 9.810074239846931e-23 1.3712525065162085e-14 1.3178661082911899e-14 5.338639822501877e-16
5.285722656980489 9.877073548652536e-23 1.3858049000899743e-14 1.3318096335714539e-14 5.399526651852017e-16
5.305582063971359 9.944416113655547e-23 1.4004956300027777e-14 1.3458887496846612e-14 5.460688031811602e-16
5.3255160863122235 1.0015610007927434e-22 1.415821618423064e-14 1.360595959304697e-14 5.522565911836661e-16
5.365609099470188 1.0186526962481522e-22 1.450823568181902e-14 1.3943176726295337e-14 5.650589555236824e-16
5.406003951863644 1.0361006727133214e-22 1.4867835507442334e-14 1.4289850565346413e-14 5.779849420959202e-16
5.446702915881641 1.0539235864542453e-22 1.523744829214358e-14 1.4646417303411903e-14 5.910309887316836e-16
5.487708281020852 1.0728210601678237e-22 1.5627436406266155e-14 1.5023191271989154e-14 6.042451342770021e-16
5.529022354014368 1.0982574282003992e-22 1.6118399964112612e-14 1.5500372727161635e-14 6.180272369509775e-16
5.570647458961463 1.1247231160484183e-22 1.663109058274955e-14 1.5999148647584705e-14 6.319419351648425e-16
5.612585937458331 1.1522948240828924e-22 1.7167064858745294e-14 1.6521079187480386e-14 6.459856712649082e-16
5.654840148729818 1.1821035594876121e-22 1.7743745138855962e-14 1.708352589473098e-14 6.602192441249798e-16
5.67608639626678 1.2021650100314474e-22 1.8112671626568882e-14 1.7445008833929337e-14 6.676627926395468e-16
5.686739436050992 1.2124371884587257e-22 1.8301724408600547e-14 1.7630325975524686e-14 6.713984330758635e-16
5.6974124697621304 1.2228755034999065e-22 1.849393556516662e-14 1.7818792319450495e-14 6.751432457161234e-16
5.718818669136295 1.2442666460872659e-22 1.8888141120477e-14 1.8205480950950356e-14 6.826601695266412e-16
5.740305295436557 1.2676905792394932e-22 1.9316021793191692e-14 1.862575551480643e-14 6.902662783852621e-16
5.7835210386641895 1.3279947522701971e-22 2.0387224798595118e-14 1.968122377403572e-14 7.060010245593962e-16
5.827062130521658 1.396389489382719e-22 2.159860256073133e-14 2.0876576092192965e-14 7.22026468538361e-16
5.8489554468988025 1.4443634748696112e-22 2.2424576180269526e-14 2.1693909635723383e-14 7.306665445461385e-16
5.870931020387893 1.4953651554904073e-22 2.3303634893364318e-14 2.2564275162602046e-14 7.3935973076227e-16
5.892989160043636 1.549633890352528e-22 2.424008738232417e-14 2.3491981691289252e-14 7.4810569103491e-16
5.915130176081913 1.6110688899672563e-22 2.5295766935301713e-14 2.4538598798463496e-14 7.571681368382206e-16
5.95966208400165 1.7827239243026714e-22 2.820169176268686e-14 2.7423949564664172e-14 7.77742198022691e-16
6.004529249263818 2.028451860876899e-22 3.233055077898567e-14 3.1529695270869254e-14 8.008555081164089e-16
6.027089341400364 2.1989361928392974e-22 3.5179502197468144e-14 3.436532988381691e-14 8.1417231365123e-16
6.049734195844842 2.399200636932113e-22 3.8527630024160006e-14 3.769935848639696e-14 8.282715377630469e-16
6.095279466722835 2.9766345637951696e-22 4.816023263410503e-14 4.729743590117967e-14 8.62796732925358e-16
6.141167624020661 3.8603471455190916e-22 6.292840809569771e-14 6.20209631437396e-14 9.074449519581004e-16
6.164241091010745 4.424419611264307e-22 7.239446414868025e-14 7.145907471921495e-14 9.353894294652952e-16
6.187401249150058 5.062523489777734e-22 8.314665171662885e-14 8.218254279758207e-14 9.641089190467752e-16
6.1990139391386085 5.373597306816502e-22 8.842135452859826e-14 8.744262717563198e-14 9.787273529662776e-16
6.204828454712694 5.537075135406648e-22 9.119680611934538e-14 9.021069252803208e-14 9.861135913132794e-16
6.210648424152782 5.656161439634987e-22 9.324556287766708e-14 9.225313794500326e-14 9.924249326638221e-16
6.233982942956859 6.058678526700065e-22 1.0025659534865102e-13 9.924208794607528e-14 1.0145074025757325e-15
6.239830258556775 6.109008220510423e-22 1.0118425032972883e-13 1.0016662001111337e-13 1.0176303186154823e-15
6.245683058788269 6.111694402137299e-22 1.0132369183982205e-13 1.0030293265674891e-13 1.0207591830731489e-15
6.257405133728602 6.096774747006649e-22 1.0126604692504426e-13 1.0023977663008599e-13 1.0262702949582605e-15
6.269149208991335 6.012847333781098e-22 1.0005947426947535e-13 9.903101231858527e-14 1.028461950890076e-15
6.280915325867298 5.80812327079371e-22 9.683407244518595e-14 9.580752666837298e-14 1.0265457768129543e-15
6.304513850009849 5.30563463953608e-22 8.878883878677199e-14 8.776984611145653e-14 1.0189926753154528e-15
6.32820103803542 4.686965399253685e-22 7.873021693488722e-14 7.772273637099477e-14 1.0074805638924776e-15
6.3519772230701035 4.120834816881717e-22 6.948060180329269e-14 6.848337679486963e-14 9.972250084230885e-16
6.375842739491607 3.643641295620311e-22 6.166555509303339e-14 6.06773002963075e-14 9.882547967258712e-16
6.399797922933955 3.2633575953006166e-22 5.54370816839377e-14 5.445308804011514e-14 9.839936438225586e-16
6.42384311029221 2.946356675951285e-22 5.02400055343403e-14 4.9259336417687047e-14 9.806691166532552e-16
6.447978639727206 2.716124002737242e-22 4.648818777434884e-14 4.550716214598037e-14 9.810256283684724e-16
6.472204850670314 2.5238946116878387e-22 4.336036247851431e-14 4.2378246319283625e-14 9.821161592306866e-16
6.496522083828205 2.39922482376519e-22 4.1373408230503506e-14 4.038721085453778e-14 9.861973759657202e-16
