Dust emission spectrum from A.P. Jones, M. Kohler, N. Ysard, M. Bocchio, and L. Verstraete (2017), A&A, 602A, 46J 
inside the DustPedia framework.

lambda    nu*dP/dnu     j_nu    j_nu(carb.) j_nu(sil)
 (um)   (erg s-1 H-1) (Jy cm2 sr-1 H-1)
0.9927057738263894 4.889338222042002e-24 1.2883683923947586e-16 1.2883683787601828e-16 1.3634575340283199e-24
1.0001793341362166 4.970766856510592e-24 1.3196862867250115e-16 1.3196862703082377e-16 1.641677414785013e-24
1.0077091589558085 5.052217653372846e-24 1.3514086391295061e-16 1.3514086193886993e-16 1.9740807093514483e-24
1.0114953028030835 5.0929432245087186e-24 1.3674206627272415e-16 1.3674206410906146e-16 2.163662705891978e-24
1.0152956718711033 5.133664609875037e-24 1.3835328013159464e-16 1.3835327776092282e-16 2.370671787148451e-24
1.0229392996569957 5.215042248914181e-24 1.4160452385064733e-16 1.4160452100741681e-16 2.8432305379338266e-24
1.0267826658714554 5.2556019116183295e-24 1.4324201554113032e-16 1.4324201242881592e-16 3.11231439194231e-24
1.0306404723013447 5.296142637610875e-24 1.4488929492413845e-16 1.448892915183952e-16 3.405743270448079e-24
1.03451277320114 5.336661320992666e-24 1.4654632519704627e-16 1.4654632147143622e-16 3.725610019459227e-24
1.0383996230291617 5.377154881677938e-24 1.4821306920581516e-16 1.482130651316379e-16 4.074177241519954e-24
1.0403485208654093 5.397391285743983e-24 1.4905007216058314e-16 1.4905006790060296e-16 4.259980162708919e-24
1.0423010764483396 5.417620266218514e-24 1.4988948947005596e-16 1.4988948501616583e-16 4.453890176818892e-24
1.0462171883269815 5.458054448616574e-24 1.5157554820835166e-16 1.5157554334096115e-16 4.8673904884757954e-24
1.0471985131304309 5.4681577669508356e-24 1.5199856445039205e-16 1.519985594740177e-16 4.976374299566399e-24
1.048180758391296 5.478258901091206e-24 1.5242218012255467e-16 1.5242217503486092e-16 5.087693748065949e-24
1.0501480137395462 5.498454431125824e-24 1.5327120736383578e-16 1.5327120204630475e-16 5.317531009804453e-24
1.0521189612883777 5.5186406685459754e-24 1.5412262513628573e-16 1.5412261957899125e-16 5.557294460323526e-24
1.0531058218030118 5.528715373997968e-24 1.545488148789467e-16 1.545488091979133e-16 5.681033367568806e-24
1.0540936079674168 5.5387390852855556e-24 1.5497424171551984e-16 1.5497423590808437e-16 5.807435464561066e-24
1.058054026499678 5.5788064025250925e-24 1.5668180569315518e-16 1.5668179935265535e-16 6.34049980299527e-24
1.0590464539527713 5.588816124216258e-24 1.5711015776132709e-16 1.571101512804169e-16 6.480910142814619e-24
1.06003981227728 5.598822913037671e-24 1.5753909302316997e-16 1.5753908639887593e-16 6.624294056977582e-24
1.0620293250338977 5.618827513429725e-24 1.583987106515444e-16 1.5839870373132119e-16 6.920223237564105e-24
1.0660195594769086 5.6587995618351314e-24 1.6012491696365064e-16 1.6012490941317434e-16 7.550476298677925e-24
1.070024785945596 5.6987197242878435e-24 1.6186038487619147e-16 1.6186037664075994e-16 8.235431584382953e-24
1.0740450607676866 5.7385852107657686e-24 1.6360507453677255e-16 1.636050655571868e-16 8.979585736299336e-24
1.07808044048254 5.778393265386395e-24 1.6535894602124346e-16 1.6535893623346063e-16 9.787782887748823e-24
1.0861967418109137 5.8577589611060685e-24 1.6889213505015063e-16 1.6889212343257727e-16 1.1617573327113847e-23
1.0902777775684922 5.8971582928034474e-24 1.7066693089723438e-16 1.7066691824640491e-16 1.2650829492840568e-23
1.0943741465085532 5.93648684310798e-24 1.7245062290016163e-16 1.7245060912865517e-16 1.3771506503289756e-23
1.1026131145906286 6.0149214065051986e-24 1.760445334250372e-16 1.7604451712142395e-16 1.6303613256056153e-23
1.1109141095355224 6.093042655300122e-24 1.796735440155009e-16 1.79673524739161e-16 1.927633995659796e-23
1.1192775983109025 6.170762489913661e-24 1.8333529245340238e-16 1.833352696916518e-16 2.276175058231238e-23
1.1277040513999907 6.2477463496137134e-24 1.870199614635962e-16 1.8701993462070243e-16 2.6842893859928435e-23
1.1361939428280308 6.324350816750711e-24 1.9073827705242119e-16 1.9073824543708006e-16 3.161534101976558e-23
1.1447477501889525 6.400558708304306e-24 1.944899287226374e-16 1.944898915337054e-16 3.71889319774359e-23
1.1533659546722406 6.476390237437716e-24 1.9827573577485223e-16 1.9827569208505512e-16 4.3689797085468365e-23
1.1707974979042381 6.627162996799479e-24 2.0595809728074207e-16 2.059580372076682e-16 6.00730738878515e-23
1.1884924949847024 6.77622163057696e-24 2.137733085052356e-16 2.1377322631653357e-16 8.218870195463195e-23
1.2064549276569216 6.924674644709849e-24 2.2175831221978126e-16 2.2175820032560737e-16 1.1189417394535377e-22
1.2246888378427687 7.071133067809441e-24 2.298710093029426e-16 2.298708577092131e-16 1.515937295062111e-22
1.2431983285522175 7.215334229115521e-24 2.381037875916049e-16 2.3810358320315433e-16 2.0438845061901496e-22
1.2619875648066055 7.357320380727978e-24 2.4645871327577957e-16 2.4645843901796964e-16 2.7425780989700346e-22
1.3004222497298317 7.632847739792478e-24 2.6347561305637925e-16 2.6347512616039845e-16 4.868959808259794e-22
1.3400274889804893 7.897390921317387e-24 2.8090972633833853e-16 2.8090887771305207e-16 8.486252865220778e-22
1.3808389325824078 8.150801101693825e-24 2.9875332806465354e-16 2.987518752831819e-16 1.4527814716506665e-21
1.4228933163050095 8.394761442998127e-24 3.1706633425529106e-16 3.1706389024563645e-16 2.44400965457003e-21
1.466228494730424 8.634493363060945e-24 3.360531328139431e-16 3.3604909040537893e-16 4.0424085641923306e-21
1.5108834753276823 8.86751625643183e-24 3.556332819605184e-16 3.55626705337009e-16 6.5766235094844115e-21
1.5568984535646726 9.091979740769443e-24 3.7574064768434693e-16 3.757301124140875e-16 1.0535270259297752e-20
1.6043148490894465 9.309036732385017e-24 3.964275060121993e-16 3.9641085765948358e-16 1.6648352715799354e-20
1.6531753430134553 9.520021449991319e-24 4.1775944657774184e-16 4.177335242633671e-16 2.592231437473609e-20
1.7035239163302658 9.727072257105217e-24 4.3984515271911763e-16 4.3980537351506626e-16 3.977920405135929e-20
1.755405889504358 9.938239854539495e-24 4.630804622982878e-16 4.630202707974963e-16 6.01915007914096e-20
1.8088679632656115 1.0152798939404546e-23 4.874859304580381e-16 4.873960915398263e-16 8.983891821173952e-20
1.8639582606462262 1.0370421833036027e-23 5.131000280930414e-16 5.129677109178675e-16 1.3231717517376948e-19
1.9207263702978936 1.0592851185075769e-23 5.40067201411467e-16 5.398748242362297e-16 1.9237717523735528e-19
1.979223391128241 1.0822953299055905e-23 5.686041596637735e-16 5.683279470072773e-16 2.762126564962959e-19
2.039501978296691 1.1063841033174436e-23 5.989623045560726e-16 5.985705259615905e-16 3.9177859448197496e-19
2.1016163906111602 1.1323132362732337e-23 6.316688547812539e-16 6.311196633898359e-16 5.491913914179471e-19
2.1656225393682647 1.1605463299534187e-23 6.671364634912195e-16 6.663753637677159e-16 7.61099723503894e-19
2.231578038680979 1.1911419675667741e-23 7.05578011853565e-16 7.045349048334622e-16 1.04310702010238e-18
2.299542257339062 1.224381611642983e-23 7.473561734945581e-16 7.459419503331951e-16 1.414223161362883e-18
2.369576372248914 1.2608025644812822e-23 7.930256366717494e-16 7.911282812424298e-16 1.897355429319901e-18
2.4417434235010123 1.3010263127597912e-23 8.432484271816794e-16 8.407287129006145e-16 2.5197142810649755e-18
2.5161083711144245 1.3460932704639465e-23 8.990294715051703e-16 8.957161364197017e-16 3.3133350854687066e-18
2.5927381535095444 1.397655360238247e-23 9.618961491705274e-16 9.575806940241772e-16 4.315455146350073e-18
2.6717017477616296 1.4575453884173322e-23 1.0336642480116358e-15 1.0280956488309354e-15 5.568599180700178e-18
2.753070231689431 1.528459538801021e-23 1.1169678431098312e-15 1.1098470438103652e-15 7.120799299466172e-18
2.836916847834745 1.6165915652755322e-23 1.2173524889610683e-15 1.2083265098187074e-15 9.025979142360727e-18
2.9233170693905177 1.735454687554005e-23 1.3466620895627051e-15 1.3353202810981892e-15 1.134180846451566e-17
2.967498994190263 1.8195743565594656e-23 1.4332759748818413e-15 1.4206252979329135e-15 1.2650676948928002e-17
3.0123486681368425 1.9139658310723532e-23 1.5304137246378752e-15 1.5163218899743319e-15 1.4091834663543746e-17
3.0578761833420214 2.0935958022099053e-23 1.6993473878687899e-15 1.6836665750593821e-15 1.5680812809408144e-17
3.1040917844459814 2.3164112855449408e-23 1.908620831380923e-15 1.8912056552206276e-15 1.7415176160295835e-17
3.127460860933648 2.5374623104585598e-23 2.1064973479652602e-15 2.0881514874763803e-15 1.8345860488880382e-17
3.1510058709225794 2.826511591957872e-23 2.364119451564591e-15 2.344801972111346e-15 1.9317479453245665e-17
3.162844764501044 3.0908315913059835e-23 2.5949121074666527e-15 2.575091230933641e-15 1.9820876533012583e-17
3.1747281389236908 3.395626606312747e-23 2.8615141790104378e-15 2.8411792616624568e-15 2.0334917347980853e-17
3.1986289994194426 4.237091339893944e-23 3.597502709149273e-15 3.576104539756783e-15 2.139816939249013e-17
3.2227097969389145 6.202715246494376e-23 5.306063907843261e-15 5.283537499048949e-15 2.252640879431247e-17
3.2348180950136065 8.058849395897599e-23 6.9197807872937224e-15 6.896651880606584e-15 2.3128906687135763e-17
3.240889293275058 9.445457985708424e-23 8.12562264360184e-15 8.102175926988543e-15 2.3446716613296242e-17
3.2469718861334385 1.105012773608029e-22 9.523909495771694e-15 9.500133929843667e-15 2.3775565928028244e-17
3.2714166318528037 1.9574274094385117e-22 1.699773114629255e-14 1.697259530820819e-14 2.513583808435514e-17
3.2744851364798273 2.0108053070041307e-22 1.7477627509281753e-14 1.7452330997932977e-14 2.5296511348775467e-17
3.2775565192852394 2.0656895301500148e-22 1.79715142223337e-14 1.7946056200149412e-14 2.5458022184287555e-17
3.283707930232385 2.013396683360304e-22 1.7549441655229892e-14 1.7523694054216225e-14 2.5747601013669226e-17
3.2898708863219004 1.846749076706913e-22 1.6127096240203272e-14 1.6101084418650344e-14 2.601182155293295e-17
3.29141343181113 1.8074293925974998e-22 1.5791130066440292e-14 1.576505187955084e-14 2.6078186889452557e-17
3.292184975758714 1.788106102612394e-22 1.5625968592730097e-14 1.5599857176566974e-14 2.6111416163127166e-17
3.295272960557952 1.6664145594389436e-22 1.457618525130041e-14 1.4549944449953982e-14 2.6240801346433922e-17
3.3076538914384823 1.2440535995755602e-22 1.0922664258106533e-14 1.089590342956905e-14 2.6760828537480556e-17
3.310756385682612 1.1578783760344149e-22 1.0175590044969287e-14 1.01486980660585e-14 2.689197891078701e-17
3.313861789986515 1.078285114806982e-22 9.485002169947985e-15 9.457978581972492e-15 2.7023587975494922e-17
3.3200813396944477 9.668505067180962e-23 8.520743383063636e-15 8.493437034068362e-15 2.7306348995276008e-17
3.345076488085796 7.696469261098275e-23 6.8338749090833246e-15 6.8053092711640844e-15 2.856563791923818e-17
3.3482140837626964 7.773646965006145e-23 6.908877072105835e-15 6.880140875019986e-15 2.8736197085849646e-17
3.3513546224236106 7.851634182357234e-23 6.984734057853394e-15 6.955826494292163e-15 2.890756356123065e-17
3.3576445397418455 8.408929016226983e-23 7.494537494731335e-15 7.465271765407338e-15 2.926572932399722e-17
3.3702598118196083 1.0451089963026847e-22 9.349629491834075e-15 9.319612415220748e-15 3.001707661332269e-17
3.382922481734668 1.0926481468551591e-22 9.811644692608823e-15 9.780895922525052e-15 3.074877008377334e-17
3.389271646505754 1.1172430324707939e-22 1.0051328488578412e-14 1.0020208572716007e-14 3.1119915862400975e-17
3.395632727569191 1.143874904687989e-22 1.0310237652266272e-14 1.0278735238175924e-14 3.1502414090352445e-17
3.421196662673239 1.2719430696300984e-22 1.1550881968966986e-14 1.1517794623410036e-14 3.3087345556950956e-17
3.4276182099114902 1.2474098027549347e-22 1.1349350987596576e-14 1.1315908411650528e-14 3.3442575946049224e-17
3.4340518103208963 1.1378551105083882e-22 1.0372017495005026e-14 1.0338238191802263e-14 3.3779303202764626e-17
3.4469541582030403 9.816630899676307e-23 8.981883190723758e-15 8.947456071300724e-15 3.4427119423033427e-17
3.472904465399547 9.390239624500324e-23 8.656432455204653e-15 8.620515209460074e-15 3.5917245744575865e-17
3.4990501388274233 8.733535687494787e-23 8.111659234155024e-15 8.074213639572162e-15 3.744559458286265e-17
3.5253949054701885 6.366783310889203e-23 5.957955770054882e-15 5.919019858308389e-15 3.893591174649276e-17
3.5519380250092896 4.1342612204939624e-23 3.8979182480583604e-15 3.8574799325007835e-15 4.0438315557576415e-17
3.578680990867387 3.2594043128026493e-23 3.096211756520008e-15 3.0541260157357896e-15 4.208574078421756e-17
3.605625307711299 2.916907602960962e-23 2.791725406126312e-15 2.747901834161786e-15 4.3823571964526333e-17
3.660119384959845 2.690942145128897e-23 2.614382001460884e-15 2.5668950390654243e-15 4.7486962395460536e-17
3.715437065384467 2.5404126137980465e-23 2.5054376697067437e-15 2.4540707295929232e-15 5.13669401138205e-17
3.8285932144167436 2.5203489262886762e-23 2.561352365962592e-15 2.501583021549422e-15 5.97693444131699e-17
3.94519561050918 2.5783695956181813e-23 2.700120496657463e-15 2.6310923800236456e-15 6.902811663381747e-17
4.06534921144712 2.669327960661548e-23 2.8805089296511765e-15 2.801352079873524e-15 7.915684977765173e-17
4.189162171576248 2.77991493925491e-23 3.0912071812633948e-15 3.0010083566215865e-15 9.01988246418075e-17
4.316745939156006 2.904923045051211e-23 3.328591915807703e-15 3.2264502464498965e-15 1.0214166935780669e-16
4.448215356677963 3.042324386597869e-23 3.5922020535344525e-15 3.4773485360316994e-15 1.148535175027529e-16
4.58368876423945 3.1920587424067344e-23 3.883787226441708e-15 3.755410481974245e-15 1.2837674446746295e-16
4.723288106065518 3.355471860712352e-23 4.206951170004129e-15 4.0641293635372635e-15 1.428218064668651e-16
4.867139040275056 3.535092434202826e-23 4.567136166820708e-15 4.409272880750375e-15 1.578632860703333e-16
4.940699165968905 3.6349732625227e-23 4.767152715011776e-15 4.601493461986106e-15 1.6565925302566922e-16
5.015371051989984 3.736548354370507e-23 4.974427536416536e-15 4.8008067388446475e-15 1.736207975718868e-16
5.091171501069577 3.851781869713848e-23 5.205336916805765e-15 5.023426080982035e-15 1.8191083582372942e-16
5.129500256944802 3.9101345259573237e-23 5.3239772162964415e-15 5.1378634460280605e-15 1.8611377026838083e-16
5.168117569889187 3.970018157255018e-23 5.446209093914817e-15 5.255817775718482e-15 1.9039131819633616e-16
5.20702561229733 4.039460938922919e-23 5.583191959141528e-15 5.388157182227494e-15 1.9503477691403502e-16
5.246226572918644 4.109912498982004e-23 5.723333481290948e-15 5.523602927611481e-15 1.997305536794673e-16
5.265937586045735 4.1455252261550514e-23 5.794616552545052e-15 5.592518836783104e-15 2.020977157619494e-16
5.285722656980489 4.181400732038436e-23 5.8667231697279316e-15 5.662245631851315e-15 2.0447753787661735e-16
5.305582063971359 4.217542754935272e-23 5.93966516498217e-15 5.732795289721136e-15 2.0686987526103362e-16
5.3255160863122235 4.2556748873042305e-23 6.0158857040723556e-15 5.8065943288826846e-15 2.09291375189673e-16
5.365609099470188 4.346315558519513e-23 6.190271787706207e-15 5.97597002887318e-15 2.1430175883302803e-16
5.406003951863644 4.439237338739365e-23 6.370215971197907e-15 6.150847907828045e-15 2.1936806336986278e-16
5.446702915881641 4.5345476385823586e-23 6.55597199448009e-15 6.331482808758497e-15 2.24489185721593e-16
5.487708281020852 4.635713748392233e-23 6.752693854585658e-15 6.523010305101586e-15 2.2968354948407074e-16
5.529022354014368 4.769863644639568e-23 7.000414294903515e-15 6.765311431460388e-15 2.351028634431269e-16
5.570647458961463 4.9099821484732376e-23 7.260307599779637e-15 7.019724831347624e-15 2.4058276843201313e-16
5.612585937458331 5.056496391261193e-23 7.533245805896975e-15 7.28712361761175e-15 2.461221882852243e-16
5.654840148729818 5.215079944400293e-23 7.827998542894806e-15 7.576254026157454e-15 2.5174451673735275e-16
5.67608639626678 5.320463868411276e-23 8.016188638449639e-15 7.761504552002262e-15 2.5468408644737885e-16
5.686739436050992 5.37450090843176e-23 8.112802493705417e-15 7.85664227206766e-15 2.561602216377563e-16
5.6974124697621304 5.429463069482705e-23 8.211149857289835e-15 7.953509287802612e-15 2.576405694872234e-16
5.718818669136295 5.542251251058614e-23 8.413214650117161e-15 8.152600810503731e-15 2.606138396134312e-16
5.740305295436557 5.665579186930012e-23 8.632741525258154e-15 8.369117353469456e-15 2.636241717887004e-16
5.7835210386641895 5.980988280167814e-23 9.181945363646637e-15 8.912091115723786e-15 2.6985424792285243e-16
5.827062130521658 6.339474437709902e-23 9.8055585397266e-15 9.529350526483242e-15 2.762080132433569e-16
5.8489554468988025 6.588840699275677e-23 1.0229555286553196e-14 9.949925048444367e-15 2.796302381088278e-16
5.870931020387893 6.854558917707832e-23 1.068208241892142e-14 1.0399006187452963e-14 2.8307623146845865e-16
5.892989160043636 7.137927595567222e-23 1.116547525982999e-14 1.087892934202047e-14 2.8654591780952007e-16
5.915130176081913 7.458601310005335e-23 1.1710923199880397e-14 1.1420782868364393e-14 2.9014033151600706e-16
5.95966208400165 8.350696342810051e-23 1.3210332853744868e-14 1.291205374268486e-14 2.982791110600066e-16
6.004529249263818 9.626569885326284e-23 1.5343342009134494e-14 1.503593060185529e-14 3.0741140727920685e-16
6.027089341400364 1.0510431952294405e-22 1.6815029247604124e-14 1.6502367130053337e-14 3.126621175507809e-16
6.049734195844842 1.1550100999111853e-22 1.8547761749700376e-14 1.8229542380539277e-14 3.1821936916109725e-16
6.095279466722835 1.454552511494274e-22 2.3533821781190068e-14 2.3202032463787648e-14 3.3178931740241814e-16
6.141167624020661 1.913427385420065e-22 3.119122059034579e-14 3.084192989234483e-14 3.4929069800096047e-16
6.164241091010745 2.206329320542066e-22 3.610101277227679e-14 3.5740791511866734e-14 3.6022126041005467e-16
6.187401249150058 2.538454871570189e-22 4.169146543833477e-14 4.132000433680158e-14 3.714611015331836e-16
6.1990139391386085 2.700515968998601e-22 4.443639265675261e-14 4.405920908917174e-14 3.7718356758085913e-16
6.204828454712694 2.7857502119214002e-22 4.58818989738819e-14 4.5501823376721265e-14 3.8007559716063363e-16
6.210648424152782 2.847960662777286e-22 4.695051544908863e-14 4.656796315456678e-14 3.82552294521844e-16
6.233982942956859 3.058815255570208e-22 5.061605463510417e-14 5.022481311750926e-14 3.9124151759491924e-16
6.239830258556775 3.0855195621713117e-22 5.1105837888352315e-14 5.071334994589531e-14 3.9248794245700266e-16
6.245683058788269 3.0875083838583868e-22 5.118674584408751e-14 5.0793008865714554e-14 3.937369783729597e-16
6.257405133728602 3.0809615894357014e-22 5.1174073807341603e-14 5.077812662923725e-14 3.959471781043529e-16
6.269149208991335 3.0385927183262683e-22 5.056506061722859e-14 5.016818585467996e-14 3.968747625486182e-16
6.280915325867298 2.9334801528125973e-22 4.890750701907052e-14 4.851129271316052e-14 3.9621430591000504e-16
6.304513850009849 2.67474408650148e-22 4.4761359880034506e-14 4.436790577699065e-14 3.9345410304384624e-16
6.32820103803542 2.3551240486632925e-22 3.956065630212581e-14 3.917149387211951e-14 3.8916243000630123e-16
6.3519772230701035 2.0623969021803005e-22 3.47736767641582e-14 3.438832040982533e-14 3.8535635433286697e-16
6.375842739491607 1.8158187167056352e-22 3.0731199925899844e-14 3.0349153655989446e-14 3.820462699103977e-16
6.399797922933955 1.619075197675908e-22 2.750443411878943e-14 2.712387278607764e-14 3.8056133271178605e-16
6.42384311029221 1.4552612313169033e-22 2.4814487978332244e-14 2.4435048714804158e-14 3.7943926352808504e-16
6.447978639727206 1.3363368723666053e-22 2.2872254503018976e-14 2.2492508594767864e-14 3.797459082511094e-16
6.472204850670314 1.2371926945456898e-22 2.1254898458456675e-14 2.0874559960917344e-14 3.8033849753932837e-16
6.496522083828205 1.1730999547905311e-22 2.0229510316822206e-14 1.9847416609101356e-14 3.8209370772085205e-16
