Dust emission spectrum from A.P. Jones, M. Kohler, N. Ysard, M. Bocchio, and L. Verstraete (2017), A&A, 602A, 46J 
inside the DustPedia framework.

lambda    nu*dP/dnu     j_nu    j_nu(carb.) j_nu(sil)
 (um)   (erg s-1 H-1) (Jy cm2 sr-1 H-1)
0.9927057738263894 2.513133972019817e-24 6.622250759432143e-17 6.622250740989674e-17 1.8442468991846621e-25
1.0001793341362166 2.554628963688976e-24 6.782271042616311e-17 6.78227102040638e-17 2.220993330677372e-25
1.0077091589558085 2.5960708110581042e-24 6.944183252900238e-17 6.944183226188001e-17 2.671223995431048e-25
1.0114953028030835 2.616766806098163e-24 7.025841134411158e-17 7.025841105130598e-17 2.928056005701565e-25
1.0152956718711033 2.6374435323778486e-24 7.1079626659759e-17 7.107962633890564e-17 3.208533590880194e-25
1.0229392996569957 2.678710967258197e-24 7.27352863020585e-17 7.273528591716502e-17 3.8489347759285523e-25
1.0267826658714554 2.699251679850863e-24 7.356840521346897e-17 7.35684047921027e-17 4.213662968253884e-25
1.0306404723013447 2.7197642178192545e-24 7.440598693117864e-17 7.440598647003427e-17 4.611443931341387e-25
1.03451277320114 2.740246646460511e-24 7.524799720616736e-17 7.524799670165486e-17 5.045124895619209e-25
1.0383996230291617 2.760697042370369e-24 7.609440137038551e-17 7.609440081860707e-17 5.517784614793493e-25
1.0403485208654093 2.7709096301709133e-24 7.651924021485879e-17 7.651923963788267e-17 5.7697612365809925e-25
1.0423010764483396 2.7811134938255454e-24 7.694516434588756e-17 7.694516374261248e-17 6.032750987397939e-25
1.0462171883269815 2.8014941011581598e-24 7.780025065399309e-17 7.780024999463109e-17 6.593619919961111e-25
1.0471985131304309 2.8065834309074195e-24 7.801469355666804e-17 7.801469288252224e-17 6.741457961319123e-25
1.048180758391296 2.811670373019033e-24 7.822940386336852e-17 7.822940317412156e-17 6.892469789299826e-25
1.0501480137395462 2.821836977122152e-24 7.865962442447157e-17 7.865962370404402e-17 7.204275511546037e-25
1.0521189612883777 2.8319936795614736e-24 7.909090779385415e-17 7.909090704089706e-17 7.529571171046294e-25
1.0531058218030118 2.8370604707914772e-24 7.930672929246195e-17 7.93067285227158e-17 7.697461279404502e-25
1.0540936079674168 2.842099229312793e-24 7.952210172043252e-17 7.952210093353543e-17 7.868970861795801e-25
1.058054026499678 2.8622270055153286e-24 8.038617280658305e-17 8.038617194735e-17 8.592330281660234e-25
1.0590464539527713 2.867251991666141e-24 8.060283300433659e-17 8.060283212604835e-17 8.78288220774733e-25
1.06003981227728 2.8722741374777294e-24 8.081974900089229e-17 8.081974810314463e-17 8.97747682436573e-25
1.0620293250338977 2.882309794169059e-24 8.125434603633479e-17 8.125434509842257e-17 9.37912198961199e-25
1.0660195594769086 2.9023457735769304e-24 8.212658372425108e-17 8.21265827007891e-17 1.0234619715695907e-24
1.070024785945596 2.9223331365311967e-24 8.30028478500929e-17 8.300284673364193e-17 1.116450988560201e-24
1.0740450607676866 2.9422700906263574e-24 8.388310006814498e-17 8.38830988506528e-17 1.2174921744619708e-24
1.07808044048254 2.9621548585640448e-24 8.476730171654426e-17 8.476730038929831e-17 1.3272459507997135e-24
1.0861967418109137 3.0017257725542246e-24 8.654638709579465e-17 8.654638552000319e-17 1.5757914547397731e-24
1.0902777775684922 3.021328781192135e-24 8.74388789846123e-17 8.743887726843826e-17 1.7161740518571015e-24
1.0943741465085532 3.040871260394972e-24 8.833509731822615e-17 8.833509544976808e-17 1.8684581085958934e-24
1.1026131145906286 3.079767897691838e-24 9.013855143979072e-17 9.013854922717179e-17 2.2126189372035212e-24
1.1109141095355224 3.1184023908182214e-24 9.195642323910873e-17 9.195642062230987e-17 2.616798878167039e-24
1.1192775983109025 3.1567259999533332e-24 9.378732131445249e-17 9.378731822361254e-17 3.0908399361796388e-24
1.1277040513999907 3.1945618888597876e-24 9.562597581839566e-17 9.562597217230646e-17 3.646089187844498e-24
1.1361939428280308 3.2320923676309227e-24 9.747778820924678e-17 9.747778391363675e-17 4.295610040600998e-24
1.1447477501889525 3.269305399158803e-24 9.934241728459723e-17 9.934241223017447e-17 5.054422784006475e-24
1.1533659546722406 3.3062093056299917e-24 1.012201332325528e-16 1.0122012729276996e-16 5.939782853948246e-24
1.1707974979042381 3.379209057653754e-24 1.0501861326850283e-16 1.0501860509626578e-16 8.172237058795778e-24
1.1884924949847024 3.450821668939113e-24 1.0886502913392192e-16 1.0886501794597725e-16 1.1187944687841961e-23
1.2064549276569216 3.521605583571672e-24 1.1277718457331709e-16 1.127771693317732e-16 1.5241543910428135e-23
1.2246888378427687 3.5907992795514e-24 1.167310311769406e-16 1.1673101051401204e-16 2.0662928515456914e-23
1.2431983285522175 3.658245511469702e-24 1.2072096517803296e-16 1.2072093730002247e-16 2.7878010474022606e-23
1.2619875648066055 3.723924813962108e-24 1.2474565065685447e-16 1.2474561322299783e-16 3.743385660366804e-23
1.3004222497298317 3.848922172726341e-24 1.328596041263277e-16 1.328595375748834e-16 6.655144427458278e-23
1.3400274889804893 3.965349073542618e-24 1.4104723119101053e-16 1.410471150267436e-16 1.161642669818897e-22
1.3808389325824078 4.072826995654834e-24 1.4928233487756044e-16 1.4928213571350604e-16 1.9916405436922973e-22
1.4228933163050095 4.171915915278673e-24 1.5757137294020555e-16 1.5757103736801618e-16 3.355721893670502e-22
1.466228494730424 4.26498389398717e-24 1.6599250688025367e-16 1.6599195095847845e-16 5.559217752134872e-22
1.5108834753276823 4.350356236569799e-24 1.7447179360810927e-16 1.7447088769846638e-16 9.059096428825172e-22
1.5568984535646726 4.426695551394476e-24 1.8294029474394935e-16 1.829388411183998e-16 1.4536255495618404e-21
1.6043148490894465 4.494212290851547e-24 1.9138708130279237e-16 1.9138478030534663e-16 2.30099744575578e-21
1.6531753430134553 4.5531862480236175e-24 1.9980381106614689e-16 1.9980022206367824e-16 3.589002468606892e-21
1.7035239163302658 4.604342139150986e-24 2.0820217202422982e-16 2.0819665469123e-16 5.517332999909263e-21
1.755405889504358 4.6514168820174354e-24 2.167365963785649e-16 2.167282326508062e-16 8.363727758770918e-21
1.8088679632656115 4.693642154852481e-24 2.2536489954656066e-16 2.2535239292741876e-16 1.2506619141799155e-20
1.8639582606462262 4.730544092562643e-24 2.340543466666936e-16 2.340358913299224e-16 1.8455336771242903e-20
1.9207263702978936 4.76271256277327e-24 2.4282271127608573e-16 2.4279582627339025e-16 2.688500269541817e-20
1.979223391128241 4.7913389787620486e-24 2.517219836771287e-16 2.516833049569205e-16 3.8678720208278504e-20
2.039501978296691 4.8178280701742346e-24 2.6082238484933573e-16 2.6076741008873514e-16 5.497476060057898e-20
2.1016163906111602 4.845824305190419e-24 2.7032769654846377e-16 2.7025047053736654e-16 7.722601109727375e-20
2.1656225393682647 4.877546103664981e-24 2.8038422716351524e-16 2.8027697084430224e-16 1.0725631921304758e-19
2.231578038680979 4.913363751612217e-24 2.9104519207376326e-16 2.908978669029545e-16 1.4732517080876155e-19
2.299542257339062 4.954732476521864e-24 3.0243429574000644e-16 3.0223409793648067e-16 2.00197803525672e-19
2.369576372248914 5.004563305840148e-24 3.1477942016328106e-16 3.145101977715481e-16 2.6922239173295813e-19
2.4417434235010123 5.066264910017077e-24 3.28365373948159e-16 3.2800697712316024e-16 3.5839682499867537e-19
2.5161083711144245 5.1454853773444834e-24 3.436569442054494e-16 3.431844904086431e-16 4.72453796806233e-19
2.5927381535095444 5.251262440936534e-24 3.614030514188879e-16 3.607861238939967e-16 6.169275248912627e-19
2.6717017477616296 5.394263543657987e-24 3.825511996910319e-16 3.8175301925367846e-16 7.981804373534312e-19
2.753070231689431 5.590344778234639e-24 4.0853128203074705e-16 4.0750783049176937e-16 1.0234515389777429e-18
2.836916847834745 5.875015723823842e-24 4.424101404279801e-16 4.41109210429193e-16 1.3009299987871924e-18
2.9233170693905177 6.3259133986114234e-24 4.908723815643662e-16 4.892329027128838e-16 1.6394788514822828e-18
2.967498994190263 6.689779498451305e-24 5.269529215897141e-16 5.251213711487052e-16 1.83155044100873e-18
3.0123486681368425 7.110914418766316e-24 5.685911861398291e-16 5.665477880287208e-16 2.043398111108181e-18
3.0578761833420214 8.013577931146673e-24 6.50452809964688e-16 6.481754559913196e-16 2.277353973368366e-18
3.1040917844459814 9.16740027245852e-24 7.553533881831894e-16 7.528201357211968e-16 2.5332524619926414e-18
3.127460860933648 1.0368226180161227e-23 8.607276987561112e-16 8.580569143393048e-16 2.670784416806293e-18
3.1510058709225794 1.1961665573413129e-23 1.0004843544840481e-15 9.976698321431686e-16 2.8145223408794717e-18
3.162844764501044 1.3437399627065003e-23 1.1281388181491166e-15 1.1252497644315363e-15 2.8890537175806007e-18
3.1747281389236908 1.5151152055156447e-23 1.2767963460285177e-15 1.2738311425290877e-15 2.965203499429842e-18
3.1986289994194426 1.9921786087836838e-23 1.6914593921376075e-15 1.6883365482509066e-15 3.1228438867005568e-18
3.2227097969389145 3.114082987254833e-23 2.663917766342779e-15 2.660627481093269e-15 3.2902852495101594e-18
3.2348180950136065 4.176992413298618e-23 3.5866003234815495e-15 3.5832205782776395e-15 3.3797452039107497e-18
3.240889293275058 4.9714407576188306e-23 4.276770025609604e-15 4.2733430899552996e-15 3.426935654303455e-18
3.2469718861334385 5.890488871870756e-23 5.076908090245064e-15 5.0734323235823346e-15 3.4757666627282865e-18
3.2714166318528037 1.0790177028429773e-22 9.369876362503878e-15 9.366198472307945e-15 3.677890195931733e-18
3.2744851364798273 1.109661443549378e-22 9.645016006379614e-15 9.641314204630642e-15 3.7018017489713086e-18
3.2775565192852394 1.1411832494484674e-22 9.928302728175574e-15 9.924576886666414e-15 3.725841509160053e-18
3.283707930232385 1.1109497243666319e-22 9.683410890062026e-15 9.679641872945319e-15 3.769017116708931e-18
3.2898708863219004 1.014945216007134e-22 8.863206909662176e-15 8.859398429669487e-15 3.808479992690316e-18
3.29141343181113 9.923040773690605e-23 8.669551803998664e-15 8.665733410080977e-15 3.8183939176885455e-18
3.292184975758714 9.811788934809636e-23 8.574362869733285e-15 8.570539511608572e-15 3.8233581247127674e-18
3.295272960557952 9.109647202273363e-23 7.968239622140206e-15 7.96439692205706e-15 3.842700083145737e-18
3.3076538914384823 6.676784692205949e-23 5.8621491502867756e-15 5.858228674418377e-15 3.9204758684002565e-18
3.310756385682612 6.181523788131172e-23 5.432405788306975e-15 5.428465689870417e-15 3.940098436560248e-18
3.313861789986515 5.724525758290227e-23 5.035508558330176e-15 5.0315487656344e-15 3.959792695777905e-18
3.3200813396944477 5.083862574292827e-23 4.4803501771283415e-15 4.476348102087644e-15 4.002075040696777e-18
3.345076488085796 3.942819769562807e-23 3.50092180975046e-15 3.4967315005931173e-15 4.1903091573427004e-18
3.3482140837626964 3.9860542224174795e-23 3.5426304731101205e-15 3.5384146716065245e-15 4.2158015035966745e-18
3.3513546224236106 4.0297626987328986e-23 3.584835986138186e-15 3.580594567600961e-15 4.241418537224522e-18
3.3576445397418455 4.3474007807527417e-23 3.874662051861971e-15 3.870367103648759e-15 4.2949482132111744e-18
3.3702598118196083 5.517500358927823e-23 4.936000384604493e-15 4.931593133667283e-15 4.407250937209588e-18
3.382922481734668 5.785263259976634e-23 5.194988681715032e-15 5.190471934770668e-15 4.516746944364397e-18
3.389271646505754 5.923952838168145e-23 5.3295115025773e-15 5.324939188019762e-15 4.572314557539303e-18
3.395632727569191 6.073462553631273e-23 5.474273632846134e-15 5.469644049338316e-15 4.629583507818212e-18
3.421196662673239 6.791222446666206e-23 6.167305029560288e-15 6.1624379920703745e-15 4.867037489912492e-18
3.4276182099114902 6.648117821101201e-23 6.048679623323156e-15 6.043759222975363e-15 4.9204003477940625e-18
3.4340518103208963 6.018395779331979e-23 5.486015375648791e-15 5.481044323241639e-15 4.971052407152095e-18
3.4469541582030403 5.1216505484416904e-23 4.686135950301074e-15 4.6810673095899555e-15 5.0686407111195365e-18
3.472904465399547 4.8724432837138924e-23 4.491682626206598e-15 4.4863896956546985e-15 5.292930551899159e-18
3.4990501388274233 4.490186883974436e-23 4.170460533255221e-15 4.16493722206974e-15 5.523311185482282e-18
3.5253949054701885 3.1237318964065066e-23 2.923149032647124e-15 2.91740054644088e-15 5.74848620624274e-18
3.5519380250092896 1.8389841194156035e-23 1.7338550649451115e-15 1.7278791438543534e-15 5.975921090757975e-18
3.578680990867387 1.3313142734972493e-23 1.2646577440651063e-15 1.2584323452376197e-15 6.225398827486284e-18
3.605625307711299 1.1277903217582818e-23 1.0793899987918475e-15 1.0729011496564141e-15 6.488849135433005e-18
3.660119384959845 9.832639002118776e-24 9.55289004653435e-16 9.482435610718418e-16 7.045443581593164e-18
3.715437065384467 8.827938731840568e-24 8.706400733678148e-16 8.630033023812328e-16 7.636770986582021e-18
3.8285932144167436 8.418478680147783e-24 8.555438518964976e-16 8.466200353764245e-16 8.923816520072871e-18
3.94519561050918 8.456129014487036e-24 8.855428373495874e-16 8.751908217084024e-16 1.0352015641185129e-17
4.06534921144712 8.683695828138817e-24 9.370696948429434e-16 9.251434507706576e-16 1.1926244072285783e-17
4.189162171576248 9.02618996860889e-24 1.0036934172485809e-15 9.900372597386552e-16 1.3656157509925867e-17
4.316745939156006 9.455923520087117e-24 1.0835023887836937e-15 1.0679590694665851e-15 1.554331931710895e-17
4.448215356677963 9.963841043527572e-24 1.1764731734499806e-15 1.1589021038578272e-15 1.7571069592153035e-17
4.58368876423945 1.055179602124688e-23 1.2838401141840653e-15 1.2640903109189657e-15 1.9749803265100257e-17
4.723288106065518 1.1229649780191457e-23 1.4079268205063615e-15 1.3858257945331111e-15 2.2101025973250518e-17
4.867139040275056 1.2015841686294443e-23 1.5523776580581104e-15 1.5277987559754663e-15 2.457890208264392e-17
4.940699165968905 1.2472673854504109e-23 1.6357518125921658e-15 1.6098769441348848e-15 2.587486845728144e-17
5.015371051989984 1.2945180472293092e-23 1.7233782651289925e-15 1.696171485466855e-15 2.7206779662137736e-17
5.091171501069577 1.349962723803644e-23 1.8243532578465604e-15 1.7957521214087202e-15 2.8601136437840586e-17
5.129500256944802 1.3783920511899686e-23 1.8767967769249084e-15 1.8474851226494604e-15 2.9311654275448207e-17
5.168117569889187 1.4078630406648092e-23 1.9313555231588124e-15 1.9013188064643733e-15 3.003671669443993e-17
5.20702561229733 1.4427379627046666e-23 1.994098498367639e-15 1.9632771264685055e-15 3.082137189913379e-17
5.246226572918644 1.4784284735210165e-23 2.0588124891448578e-15 2.0271950087956583e-15 3.1617480349199763e-17
5.265937586045735 1.4965871690326686e-23 2.09193004719612e-15 2.0599102407265006e-15 3.20198064696198e-17
5.285722656980489 1.514959004534537e-23 2.1255664459497765e-15 2.0931414783720345e-15 3.242496757774206e-17
5.305582063971359 1.5335471985434485e-23 2.1597307729449005e-15 2.126897819369526e-15 3.283295357537422e-17
5.3255160863122235 1.5532973404410405e-23 2.1957643645217787e-15 2.1625179904936094e-15 3.3246374028169393e-17
5.365609099470188 1.6009396460880644e-23 2.280150023983771e-15 2.246047946118111e-15 3.4102077865659793e-17
5.406003951863644 1.650219027565991e-23 2.3680309934410438e-15 2.3330607090652148e-15 3.497028437582894e-17
5.446702915881641 1.7012108196716324e-23 2.459581722237799e-15 2.423730790644669e-15 3.585093159312989e-17
5.487708281020852 1.7558398262649063e-23 2.557674922997117e-15 2.5209278728421496e-15 3.6747050154968484e-17
5.529022354014368 1.829162196509438e-23 2.6845407211026003e-15 2.6468578901124854e-15 3.7682830990114605e-17
5.570647458961463 1.9064348309702597e-23 2.819012956306154e-15 2.780380534279521e-15 3.863242202663273e-17
5.612585937458331 1.9879345413662826e-23 2.961655341438908e-15 2.922059561604496e-15 3.959577983441297e-17
5.654840148729818 2.076853700129708e-23 3.1174225346013527e-15 3.0768457539517303e-15 4.0576780649621703e-17
5.67608639626678 2.1361389993767788e-23 3.2184586909085722e-15 3.177369148960158e-15 4.108954194841376e-17
5.686739436050992 2.1666377468290592e-23 3.270537007046496e-15 3.2291896271119124e-15 4.134737993458377e-17
5.6974124697621304 2.197725165051868e-23 3.323689735879768e-15 3.282083546707502e-15 4.160618917226566e-17
5.718818669136295 2.2617218942014645e-23 3.4333253605476526e-15 3.3911986401575555e-15 4.2126720390096314e-17
5.740305295436557 2.331893402618725e-23 3.553146526607869e-15 3.5104920526300966e-15 4.2654473977772557e-17
5.7835210386641895 2.511765798150128e-23 3.8560343616395895e-15 3.81228648015841e-15 4.3747881481180854e-17
5.827062130521658 2.7176965555142294e-23 4.2035870528621845e-15 4.1587205435959204e-15 4.4866509266264333e-17
5.8489554468988025 2.860734875433781e-23 4.441455925871419e-15 4.395988057856434e-15 4.546786801498461e-17
5.870931020387893 3.013836750137551e-23 4.69673584378633e-15 4.650661333110358e-15 4.607451067597284e-17
5.892989160043636 3.177806785141018e-23 4.970871806271429e-15 4.924185356379673e-15 4.6686449891755624e-17
5.915130176081913 3.3637162563828545e-23 5.281449042174454e-15 5.234128880099209e-15 4.7320162075246054e-17
5.95966208400165 3.880571554042019e-23 6.138846365286297e-15 6.090099106328608e-15 4.874725895768968e-17
6.004529249263818 4.62171284601762e-23 7.366333149728665e-15 7.315988365412564e-15 5.034478431610117e-17
6.027089341400364 5.1353455512983125e-23 8.21574089757411e-15 8.164481596814323e-15 5.125930075978624e-17
6.049734195844842 5.74118567928061e-23 9.219498959210553e-15 9.167272396431803e-15 5.22265627787524e-17
6.095279466722835 7.487534720319575e-23 1.2114399878726367e-14 1.2059825741913886e-14 5.457413681248315e-17
6.141167624020661 1.0169237535210415e-22 1.6577108366552292e-14 1.6519524282304912e-14 5.758408424737906e-17
6.164241091010745 1.1881123417933485e-22 1.9440460871654167e-14 1.938100572846737e-14 5.945514318680126e-17
6.187401249150058 1.3828727998048646e-22 2.271223892312698e-14 2.2650857231000846e-14 6.138169212613992e-17
6.1990139391386085 1.4779813411349008e-22 2.4319855897159594e-14 2.4257492791280612e-14 6.236310587896892e-17
6.204828454712694 1.5280584095817653e-22 2.5167447273122332e-14 2.5104587910978867e-14 6.285936214346036e-17
6.210648424152782 1.5646524945992296e-22 2.5794331389569804e-14 2.5731044864472086e-14 6.328652509772655e-17
6.233982942956859 1.6890081221118528e-22 2.7949032630285958e-14 2.7884238135531094e-14 6.479449475486043e-17
6.239830258556775 1.7049385999349347e-22 2.8239106556353583e-14 2.8174088868369935e-14 6.501768798364687e-17
6.245683058788269 1.7064004565449113e-22 2.828982973262284e-14 2.8224588285196232e-14 6.524144742660317e-17
6.257405133728602 1.7031694898604469e-22 2.8289259262233924e-14 2.822361792525295e-14 6.564133698098453e-17
6.269149208991335 1.678965685535557e-22 2.793957911875584e-14 2.7873751266887966e-14 6.582785186787043e-17
6.280915325867298 1.6180040243800976e-22 2.6975653168603272e-14 2.6909903315438024e-14 6.574985316524629e-17
6.304513850009849 1.4675769293869864e-22 2.4559635226205604e-14 2.4494281410058015e-14 6.535381614759197e-17
6.32820103803542 1.2811215014348553e-22 2.1519888698981048e-14 2.1455186328209486e-14 6.470237077156716e-17
6.3519772230701035 1.1101917416664965e-22 1.8718729033260332e-14 1.865459718518918e-14 6.413184807115407e-17
6.375842739491607 9.663697473744709e-23 1.6354992729001883e-14 1.629134903146904e-14 6.36436975328381e-17
6.399797922933955 8.513335864889064e-23 1.4462236575736822e-14 1.439877500921521e-14 6.346156652160692e-17
6.42384311029221 7.557028765151707e-23 1.2885920095258288e-14 1.282257977800852e-14 6.33403172497644e-17
6.447978639727206 6.862121358049133e-23 1.1744956633123887e-14 1.1681497165126131e-14 6.345946799775397e-17
6.472204850670314 6.283743808287464e-23 1.0795435276406207e-14 1.0731808016291273e-14 6.362726011493623e-17
6.496522083828205 5.910090072621185e-23 1.0191648853893877e-14 1.0127657388519407e-14 6.399146537447141e-17
