Dust emission spectrum from A.P. Jones, M. Kohler, N. Ysard, M. Bocchio, and L. Verstraete (2017), A&A, 602A, 46J 
inside the DustPedia framework.

lambda    nu*dP/dnu     j_nu    j_nu(carb.) j_nu(sil)
 (um)   (erg s-1 H-1) (Jy cm2 sr-1 H-1)
0.9927057738263894 9.338219649529266e-24 2.4606739176796947e-16 2.460673917643799e-16 3.5895100707156254e-27
1.0001793341362166 9.49241068907082e-24 2.520135137281908e-16 2.520135137238668e-16 4.324028884196495e-27
1.0077091589558085 9.646379616803217e-24 2.5802927832627545e-16 2.5802927832107336e-16 5.202159842834946e-27
1.0114953028030835 9.723261826400752e-24 2.610629756590298e-16 2.6106297565332657e-16 5.703234746591017e-27
1.0152956718711033 9.800065813512379e-24 2.641137187257635e-16 2.64113718719513e-16 6.250554202444794e-27
1.0229392996569957 9.953333718817097e-24 2.702637897656813e-16 2.702637897581807e-16 7.500619933337788e-27
1.0267826658714554 1.0029611668100165e-23 2.733581832477723e-16 2.733581832395595e-16 8.212791724620998e-27
1.0306404723013447 1.010577767106447e-23 2.764689513878259e-16 2.7646895137883625e-16 8.989670773650304e-27
1.03451277320114 1.0181824378113266e-23 2.7959596022043514e-16 2.7959596021059824e-16 9.836849275804225e-27
1.0383996230291617 1.0257744480557218e-23 2.827390741101319e-16 2.8273907409937146e-16 1.0760375979840264e-26
1.0403485208654093 1.0295654782618067e-23 2.8431662761654845e-16 2.843166276052957e-16 1.1252793523867553e-26
1.0423010764483396 1.0333530712015747e-23 2.8589815578349947e-16 2.858981557717327e-16 1.1766791107834721e-26
1.0462171883269815 1.0409175849787504e-23 2.890730663613271e-16 2.8907306634846396e-16 1.2863163750696733e-26
1.0471985131304309 1.0428064246199173e-23 2.898692508469068e-16 2.898692508337546e-16 1.3152194750271434e-26
1.048180758391296 1.0446943263720451e-23 2.906664136584948e-16 2.9066641364504733e-16 1.3447447638393995e-26
1.0501480137395462 1.0484672716189687e-23 2.9226366539078934e-16 2.9226366537673223e-16 1.405713189953262e-26
1.0521189612883777 1.0522363317233678e-23 2.938648037610132e-16 2.938648037463199e-16 1.4693267201025604e-26
1.0531058218030118 1.0541164815235957e-23 2.9466601541838884e-16 2.9466601540336715e-16 1.5021614754645232e-26
1.0540936079674168 1.0559861399339816e-23 2.9546553606962416e-16 2.954655360542671e-16 1.5357059774798663e-26
1.058054026499678 1.0634541159205824e-23 2.986730478383997e-16 2.9867304782162764e-16 1.6772043413706912e-26
1.0590464539527713 1.0653183908959034e-23 2.994772716434104e-16 2.994772716262656e-16 1.7144841701594865e-26
1.06003981227728 1.0671815564894704e-23 3.002824292029449e-16 3.002824291854194e-16 1.752557170112836e-26
1.0620293250338977 1.0709045161462072e-23 3.018955363606337e-16 3.018955363423223e-16 1.8311472348203804e-26
1.0660195594769086 1.078336646786025e-23 3.051328539537065e-16 3.0513285393372074e-16 1.9985730106874595e-26
1.070024785945596 1.0857498192739144e-23 3.0838485156223914e-16 3.0838485154043325e-16 2.1806016339446622e-26
1.0740450607676866 1.0931433504156877e-23 3.1165137879040146e-16 3.1165137876661705e-16 2.3784406708134488e-26
1.07808044048254 1.1005165624992065e-23 3.1493228393416017e-16 3.1493228390822618e-16 2.5933916834971075e-26
1.0861967418109137 1.1151863085784336e-23 3.215328556280234e-16 3.215328555972198e-16 3.080347685135323e-26
1.0902777775684922 1.1224518668454276e-23 3.2484360378821056e-16 3.248436037546556e-16 3.355490581406168e-26
1.0943741465085532 1.1296939340658722e-23 3.281678672334088e-16 3.2816786719686847e-16 3.654035416596057e-26
1.1026131145906286 1.1441050215877369e-23 3.348563033538968e-16 3.348563033106067e-16 4.329007308462143e-26
1.1109141095355224 1.1584144859423638e-23 3.4159688008602507e-16 3.415968800348039e-16 5.1221006785209487e-26
1.1192775983109025 1.1726040490989452e-23 3.4838434735576227e-16 3.4838434729523455e-16 6.052767318053876e-26
1.1277040513999907 1.1866077642227322e-23 3.5519902044528483e-16 3.5519902037385027e-16 7.143449223803344e-26
1.1361939428280308 1.2004933258249839e-23 3.620609216906666e-16 3.620609216064665e-16 8.420000197675657e-26
1.1447477501889525 1.2142561050190914e-23 3.6896870113821066e-16 3.68968701039089e-16 9.91216793779593e-26
1.1533659546722406 1.2278990869175694e-23 3.7592329367134076e-16 3.759232935547993e-16 1.1654150989484496e-25
1.1707974979042381 1.2548697751001195e-23 3.8998677313286163e-16 3.899867729723575e-16 1.6050410136323405e-25
1.1884924949847024 1.2813031911766086e-23 4.04219987640543e-16 4.042199874205838e-16 2.199591825877695e-25
1.2064549276569216 1.3074062253105486e-23 4.186885489731924e-16 4.1868854867322206e-16 2.9997034934005868e-25
1.2246888378427687 1.3328936098705914e-23 4.3330198492405513e-16 4.333019845169475e-16 4.0710758823198213e-25
1.2431983285522175 1.357705715627569e-23 4.480386674552189e-16 4.480386669053525e-16 5.498662831667558e-25
1.2619875648066055 1.3818332896408396e-23 4.628925164365634e-16 4.628925156973881e-16 7.391752851748597e-25
1.3004222497298317 1.4276336500148722e-23 4.927998880373468e-16 4.927998867201728e-16 1.3171740003977623e-24
1.3400274889804893 1.4701156594649108e-23 5.229192675156385e-16 5.229192652110344e-16 2.304604222979041e-24
1.3808389325824078 1.5091220146508153e-23 5.531422233317327e-16 5.531422193707124e-16 3.96102035763721e-24
1.4228933163050095 1.5448430681673152e-23 5.834802238865914e-16 5.834802171956388e-16 6.690952664089145e-24
1.466228494730424 1.5781395530258702e-23 6.142094486756701e-16 6.142094375620658e-16 1.1113604547580576e-23
1.5108834753276823 1.6083639443529862e-23 6.450371576170953e-16 6.450371394578037e-16 1.8159291357669604e-23
1.5568984535646726 1.634992449433859e-23 6.756868574558713e-16 6.756868282365105e-16 2.921936074228237e-23
1.6043148490894465 1.6580741904112113e-23 7.060947711176432e-16 7.060947247340576e-16 4.638358553069527e-23
1.6531753430134553 1.6776798659247487e-23 7.362027659338753e-16 7.362026933759473e-16 7.255792815217159e-23
1.7035239163302658 1.6940431101130913e-23 7.660235585647935e-16 7.660234466885209e-16 1.1187627282924158e-22
1.755405889504358 1.7085115974070777e-23 7.960950348847423e-16 7.960948647698809e-16 1.7011486127638875e-22
1.8088679632656115 1.7207531910935355e-23 8.262184403092964e-16 8.262181851254565e-16 2.5518384007056797e-22
1.8639582606462262 1.730543156378431e-23 8.562252880836199e-16 8.562249102985823e-16 3.7778503725665083e-22
1.9207263702978936 1.7380454654924636e-23 8.861271947224956e-16 8.861266425397406e-16 5.52182755011602e-22
1.979223391128241 1.7436410627407075e-23 9.16054549844e-16 9.160537526995858e-16 7.971444143227994e-22
2.039501978296691 1.7477857493589015e-23 9.461974165819205e-16 9.461962795708081e-16 1.1370111121145088e-21
2.1016163906111602 1.7517550026208162e-23 9.772287746142813e-16 9.772271715611972e-16 1.6030530845432632e-21
2.1656225393682647 1.7562887884759853e-23 1.009597170722323e-15 1.0095949359203747e-15 2.2348019485524927e-21
2.231578038680979 1.7614409157278074e-23 1.0433970199669563e-15 1.0433939383660837e-15 3.0816008726715074e-21
2.299542257339062 1.7676549851170232e-23 1.0789674176525023e-15 1.0789632133285553e-15 4.204323947040296e-21
2.369576372248914 1.775910755098432e-23 1.1170208539459623e-15 1.1170151766361291e-15 5.6773098333319194e-21
2.4417434235010123 1.7873651612227543e-23 1.1584645492705644e-15 1.1584569591193086e-15 7.590151256035967e-21
2.5161083711144245 1.8039988445686803e-23 1.2048556837889323e-15 1.2048456338321203e-15 1.0049956812073696e-20
2.5927381535095444 1.829052359029568e-23 1.2587927402087927e-15 1.2587795568806164e-15 1.3183328176047153e-20
2.6717017477616296 1.8663947306418867e-23 1.323612644294161e-15 1.3235955067235554e-15 1.713757060568435e-20
2.753070231689431 1.921850457031815e-23 1.4044501050085875e-15 1.4044280225162028e-15 2.2082492384403822e-20
2.836916847834745 2.0086122884503738e-23 1.5125584106868024e-15 1.5125301978353198e-15 2.821285148304777e-20
2.9233170693905177 2.155731910928099e-23 1.6727849251996666e-15 1.6727491814005906e-15 3.5743799076511334e-20
2.967498994190263 2.2806033853952697e-23 1.7964278451922697e-15 1.7963877996258464e-15 4.004556642406686e-20
3.0123486681368425 2.4264292885182506e-23 1.9401812847051124e-15 1.9401364790867845e-15 4.480561832745204e-20
3.0578761833420214 2.752550494541881e-23 2.234213255461866e-15 2.234163176738495e-15 5.0078723370656194e-20
3.1040917844459814 3.172767244681378e-23 2.6142204081419585e-15 2.6141645392375626e-15 5.586890439543751e-20
3.127460860933648 3.617205517891329e-23 3.0028559632503073e-15 3.002796973446815e-15 5.898980349327342e-20
3.1510058709225794 4.209334461116675e-23 3.5207248065004265e-15 3.520662548326037e-15 6.225817438941574e-20
3.162844764501044 4.7604709359852424e-23 3.9966602204333115e-15 3.996596264946769e-15 6.395548654274181e-20
3.1747281389236908 5.401393070807449e-23 4.551785178555844e-15 4.551719487090746e-15 6.569146509665397e-20
3.1986289994194426 7.189080279034719e-23 6.103889131822769e-15 6.1038198410467954e-15 6.929077597448325e-20
3.2227097969389145 1.1402943335087427e-22 9.75455807159374e-15 9.754484950450955e-15 7.312114278504211e-20
3.2348180950136065 1.5398955813946011e-22 1.3222408479301296e-14 1.3222333309655481e-14 7.516964581442673e-20
3.240889293275058 1.8386476986860557e-22 1.5817292710057286e-14 1.5817216459664758e-14 7.625039252401655e-20
3.2469718861334385 2.18425726889018e-22 1.8825726761933952e-14 1.8825649393102457e-14 7.73688314935795e-20
3.2714166318528037 4.0277892400126576e-22 3.4976152007242947e-14 3.497607000287205e-14 8.200437090010988e-20
3.2744851364798273 4.143033674201243e-22 3.6010646612020094e-14 3.6010564057737546e-14 8.255428254617035e-20
3.2775565192852394 4.261588147998861e-22 3.707584847270265e-14 3.707576536540454e-14 8.310729810410394e-20
3.283707930232385 4.1475753744405774e-22 3.6151659852211845e-14 3.615157574879347e-14 8.410341837387756e-20
3.2898708863219004 3.7860070155997645e-22 3.3062044149245426e-14 3.3061959132678466e-14 8.50165669645942e-20
3.29141343181113 3.700740271482659e-22 3.233258859706399e-14 3.2332503351013514e-14 8.524605047894744e-20
3.292184975758714 3.6588432280348256e-22 3.197403626298608e-14 3.197395090201397e-14 8.536097211598507e-20
3.295272960557952 3.394385111604245e-22 2.9690802880201505e-14 2.9690717070968705e-14 8.580923280283088e-20
3.3076538914384823 2.4782235330698087e-22 2.1758550931804943e-14 2.1758463318540464e-14 8.761326448071329e-20
3.310756385682612 2.291761806266466e-22 2.0140309296693137e-14 2.014022122794917e-14 8.806874396386194e-20
3.313861789986515 2.119722022981327e-22 1.8645873629873313e-14 1.8645785103853143e-14 8.852602016353389e-20
3.3200813396944477 1.8784562330783438e-22 1.6554620809692302e-14 1.655453130307319e-14 8.950661911873666e-20
3.345076488085796 1.4480679746641276e-22 1.2857733933562358e-14 1.2857640063619047e-14 9.386994331293594e-20
3.3482140837626964 1.4642084712720946e-22 1.3013243824286422e-14 1.3013149363422942e-14 9.446086347548649e-20
3.3513546224236106 1.48052740282806e-22 1.3170621470565966e-14 1.3170526415715897e-14 9.505485006843247e-20
3.3576445397418455 1.5997833906406515e-22 1.425822073354169e-14 1.425812443786033e-14 9.62956813628478e-20
3.3702598118196083 2.039645221241445e-22 1.8246830886406807e-14 1.82467319868446e-14 9.889956221192318e-20
3.382922481734668 2.1398304388410348e-22 1.9215019975795156e-14 1.9214918532058268e-14 1.014437368893929e-19
3.389271646505754 2.191733180993082e-22 1.9718028684196994e-14 1.9717925948156602e-14 1.0273604038691912e-19
3.395632727569191 2.247660637658332e-22 2.025913431698445e-14 2.0259030248943475e-14 1.0406804097484118e-19
3.421196662673239 2.516200219670334e-22 2.285034011479241e-14 2.2850230517015305e-14 1.0959777710849414e-19
3.4276182099114902 2.4620866124972256e-22 2.2400886272803628e-14 2.2400775426421044e-14 1.108463825806214e-19
3.4340518103208963 2.2249562054907266e-22 2.0281391256096743e-14 2.0281279221722904e-14 1.1203437384084026e-19
3.4469541582030403 1.8872411819961512e-22 1.726761454377571e-14 1.7267500214728756e-14 1.143290469556506e-19
3.472904465399547 1.7926052600433413e-22 1.6525208059571192e-14 1.6525088462943922e-14 1.1959662727267067e-19
3.4990501388274233 1.6478586679463905e-22 1.5305219396503114e-14 1.5305094374358287e-14 1.250221448258298e-19
3.5253949054701885 1.132703521820361e-22 1.0599697137562197e-14 1.0599566790112873e-14 1.3034744933100286e-19
3.5519380250092896 6.485232635031319e-23 6.11449187237662e-15 6.114356127285597e-15 1.3574509102122116e-19
3.578680990867387 4.565550915119307e-23 4.336961929779155e-15 4.3368202585854376e-15 1.4167119371674686e-19
3.605625307711299 3.7891950507046567e-23 3.626577708900381e-15 3.626429766453727e-15 1.479424466540897e-19
3.660119384959845 3.223101119793277e-23 3.131400491730876e-15 3.1312392438158603e-15 1.6124791501526975e-19
3.715437065384467 2.8223936821525353e-23 2.7835365844114913e-15 2.783361117344301e-15 1.7546706719011993e-19
3.8285932144167436 2.619907463918241e-23 2.662530616818819e-15 2.662323902258934e-15 2.0671455988639288e-19
3.94519561050918 2.582336724028926e-23 2.7042749533160146e-15 2.7040330968306867e-15 2.418564853281895e-19
4.06534921144712 2.6128927660134444e-23 2.819608926157347e-15 2.8193277714696593e-15 2.811546876867273e-19
4.189162171576248 2.683314901346381e-23 2.9837899626008716e-15 2.983464957630087e-15 3.2500497078376193e-19
4.316745939156006 2.7832042943101533e-23 3.189121078392884e-15 3.1887474430753345e-15 3.736353175495695e-19
4.448215356677963 2.9092340017376825e-23 3.4350565644122068e-15 3.434629718361354e-15 4.2684605085316964e-19
4.58368876423945 3.062104256672833e-23 3.7256712228083955e-15 3.7251861005097935e-15 4.851222986017398e-19
4.723288106065518 3.245508887544055e-23 4.069084164160936e-15 4.068534898236624e-15 5.492659243126482e-19
4.867139040275056 3.466576434360776e-23 4.478617434507824e-15 4.477999000134167e-15 6.184343736552409e-19
4.940699165968905 3.5998517009813195e-23 4.721091895477369e-15 4.720436653030199e-15 6.552424471708076e-19
5.015371051989984 3.738350981401656e-23 4.97682735482947e-15 4.976133821641637e-15 6.935331878330643e-19
5.091171501069577 3.9066837322375485e-23 5.279531848258944e-15 5.2787978062512905e-15 7.340420076536413e-19
5.129500256944802 3.9932855042147526e-23 5.4371942708035175e-15 5.436439386158482e-15 7.54884645032439e-19
5.168117569889187 4.083618990189482e-23 5.602050670677719e-15 5.601274403985845e-15 7.762666918743081e-19
5.20702561229733 4.1937845846724825e-23 5.796492335375421e-15 5.795693027404848e-15 7.993079705723125e-19
5.246226572918644 4.306882584321242e-23 5.997627759943847e-15 5.996804925701117e-15 8.228342427283509e-19
5.265937586045735 4.3645611773761933e-23 6.100785078680325e-15 6.0999502976845915e-15 8.347809957335735e-19
5.285722656980489 4.4230093023990976e-23 6.205712587049032e-15 6.2048657359526215e-15 8.468510964140596e-19
5.305582063971359 4.482239634610827e-23 6.312444038094627e-15 6.311584992843465e-15 8.590452511654588e-19
5.3255160863122235 4.545755864804455e-23 6.425948514737944e-15 6.425077084194614e-15 8.714305433296171e-19
5.365609099470188 4.7029266994991145e-23 6.698177818795145e-15 6.697280719750583e-15 8.970990445632445e-19
5.406003951863644 4.866152723613065e-23 6.982830930830776e-15 6.981907616109812e-15 9.233147209644865e-19
5.446702915881641 5.0357243212438866e-23 7.280564733976068e-15 7.279614649293703e-15 9.500846823649049e-19
5.487708281020852 5.218785682832736e-23 7.602035829129126e-15 7.601058331770064e-15 9.774973590603766e-19
5.529022354014368 5.471217582935065e-23 8.029745215284926e-15 8.02873901565424e-15 1.006199630685275e-18
5.570647458961463 5.738475472313971e-23 8.48538667207687e-15 8.484351146002196e-15 1.0355260746773847e-18
5.612585937458331 6.021616113678843e-23 8.97109595717095e-15 8.970030471328574e-15 1.065485842375552e-18
5.654840148729818 6.3325139562058e-23 9.505302037654654e-15 9.504205843621437e-15 1.0961940332200342e-18
5.67608639626678 6.543100806283697e-23 9.858300261180829e-15 9.857188005903041e-15 1.1122552777878774e-18
5.686739436050992 6.651623873865893e-23 1.0040618035142508e-14 1.0039497682087548e-14 1.1203530549595751e-18
5.6974124697621304 6.76236829264993e-23 1.0226944861865342e-14 1.022581636601967e-14 1.1284958456737932e-18
5.718818669136295 6.990733800919376e-23 1.0612031350568973e-14 1.0610886433364936e-14 1.1449172040345095e-18
5.740305295436557 7.24216598575455e-23 1.1035014245721418e-14 1.1033852629960657e-14 1.161615760763206e-18
5.7835210386641895 7.892420345473623e-23 1.2116354188381497e-14 1.2115157870975732e-14 1.1963174057649453e-18
5.827062130521658 8.640653416473335e-23 1.3364898577826729e-14 1.3363666526300307e-14 1.2320515264178015e-18
5.8489554468988025 9.164053817128382e-23 1.422772221243247e-14 1.4226470978990117e-14 1.251233442354984e-18
5.870931020387893 9.725486672940137e-23 1.5156110181807118e-14 1.515483952572513e-14 1.270656081985866e-18
5.892989160043636 1.0328005584632644e-22 1.6155542248735573e-14 1.6154251926755332e-14 1.2903219802368692e-18
5.915130176081913 1.1012735000126454e-22 1.7291351078668057e-14 1.7290040384457614e-14 1.3106942104427598e-18
5.95966208400165 1.2924009055979407e-22 2.044505684622335e-14 2.0443700604440106e-14 1.3562417832442038e-18
6.004529249263818 1.5675120903263036e-22 2.4983846158942223e-14 2.4982439000838522e-14 1.407158103698746e-18
6.027089341400364 1.7585829288642545e-22 2.813454624644096e-14 2.813311008758673e-14 1.436158854242838e-18
6.049734195844842 1.984288592392037e-22 3.186475343996204e-14 3.186328660100352e-14 1.466838958517199e-18
6.095279466722835 2.635866346461217e-22 4.264679916775837e-14 4.264525844621979e-14 1.5407215385777025e-18
6.141167624020661 3.638105285014806e-22 5.930559233157805e-14 5.930395754131072e-14 1.6347902673452422e-18
6.164241091010745 4.278080177667735e-22 6.99999885315681e-14 6.999829565258119e-14 1.6928789869061259e-18
6.187401249150058 5.006961722303779e-22 8.223410781668536e-14 8.223235486466217e-14 1.752952023170705e-18
6.1990139391386085 5.362900276406131e-22 8.824533726040462e-14 8.824355366053474e-14 1.7835998698759915e-18
6.204828454712694 5.550380895467885e-22 9.141595481985983e-14 9.141415569485219e-14 1.7991250076593595e-18
6.210648424152782 5.687305708783948e-22 9.375899675649139e-14 9.37571841574262e-14 1.8125990651758475e-18
6.233982942956859 6.152634447527123e-22 1.0181134044586265e-13 1.018094797452517e-13 1.860700610931229e-18
6.239830258556775 6.212217427311974e-22 1.0289371704517358e-13 1.0289184885316418e-13 1.8681920093977206e-18
6.245683058788269 6.21756912564313e-22 1.0307895268113308e-13 1.0307707697151318e-13 1.8757096199362823e-18
6.257405133728602 6.205214468474206e-22 1.030672061245151e-13 1.0306531677150973e-13 1.8893530053348325e-18
6.269149208991335 6.114262830689476e-22 1.0174712418641556e-13 1.017452275114519e-13 1.8966749636653987e-18
6.280915325867298 5.885553705713737e-22 9.812500653782335e-14 9.81231103981571e-14 1.8961396662046175e-18
6.304513850009849 5.321321354015585e-22 8.905135312438508e-14 8.904946520313082e-14 1.8879212542522975e-18
6.32820103803542 4.621765916188489e-22 7.76350158807931e-14 7.763314382448516e-14 1.8720563079611964e-18
6.3519772230701035 3.9802683175335694e-22 6.711053714355903e-14 6.710867856476341e-14 1.8585787956220805e-18
6.375842739491607 3.4406166049650594e-22 5.822953347864005e-14 5.822768591309871e-14 1.847565541343993e-18
6.399797922933955 3.008344406327601e-22 5.110498304787749e-14 5.110313733434437e-14 1.8457135331368046e-18
6.42384311029221 2.649021114122217e-22 4.516996754682289e-14 4.516812182171605e-14 1.8457251068479558e-18
6.447978639727206 2.3874378946140455e-22 4.08625162299524e-14 4.086066320835972e-14 1.853021592681062e-18
6.472204850670314 2.169637909113735e-22 3.727425295439913e-14 3.727239110910682e-14 1.8618452923168377e-18
6.496522083828205 2.0284189616160779e-22 3.4979050287472955e-14 3.497717360380736e-14 1.876683665593287e-18
