Dust emission spectrum from A.P. Jones, M. Kohler, N. Ysard, M. Bocchio, and L. Verstraete (2017), A&A, 602A, 46J 
inside the DustPedia framework.

lambda    nu*dP/dnu     j_nu    j_nu(carb.) j_nu(sil)
 (um)   (erg s-1 H-1) (Jy cm2 sr-1 H-1)
0.9927057738263894 2.492289681264043e-23 6.567324869358599e-16 6.567324781185686e-16 8.817291576075322e-24
1.0001793341362166 2.534047054633867e-23 6.7276282401701e-16 6.727628134014949e-16 1.0615515052694811e-23
1.0077091589558085 2.5758681075474992e-23 6.890143403607965e-16 6.890143275971146e-16 1.2763681711694535e-23
1.0114953028030835 2.5967990507912757e-23 6.972229067692011e-16 6.972228927804526e-16 1.398874858471977e-23
1.0152956718711033 2.6177417816612616e-23 7.054866056767509e-16 7.054865903504077e-16 1.532634348599422e-23
1.0229392996569957 2.659636811141307e-23 7.221736397931078e-16 7.221736214136111e-16 1.8379496659048996e-23
1.0267826658714554 2.6805401798166304e-23 7.305842119569621e-16 7.305841918391083e-16 2.0117854083788463e-23
1.0306404723013447 2.7014489332130475e-23 7.390492628109665e-16 7.390492407976048e-16 2.2013361689974083e-23
1.03451277320114 2.72236177314649e-23 7.47568732050106e-16 7.475687079705906e-16 2.4079515759124208e-23
1.0383996230291617 2.743277416387624e-23 7.561425596112508e-16 7.561425332803449e-16 2.633090598331596e-23
1.0403485208654093 2.7537358924397437e-23 7.60449839098066e-16 7.60449811567123e-16 2.7530943182433584e-23
1.0423010764483396 2.764194595113145e-23 7.647706858321291e-16 7.647706570488309e-16 2.8783298312082565e-23
1.0462171883269815 2.785112057352555e-23 7.734530516123838e-16 7.734530201586604e-16 3.1453723604167147e-23
1.0471985131304309 2.7903413220414094e-23 7.756321111294601e-16 7.75632078971939e-16 3.2157521428778486e-23
1.048180758391296 2.795570507992841e-23 7.778145560621657e-16 7.778145231857759e-16 3.287638983183512e-23
1.0501480137395462 2.8060285674302763e-23 7.821895985766898e-16 7.821895642161174e-16 3.436057245433643e-23
1.0521189612883777 2.8164860838232565e-23 7.865781719994239e-16 7.865781360906243e-16 3.590879938833079e-23
1.0531058218030118 2.8217071781166736e-23 7.887754583358105e-16 7.887754216280113e-16 3.670779898202364e-23
1.0540936079674168 2.826903792741106e-23 7.909693252145553e-16 7.909692876905743e-16 3.75239813157543e-23
1.058054026499678 2.84768695554105e-23 7.997781282409512e-16 7.99778087275111e-16 4.0965840222889887e-23
1.0590464539527713 2.852881830501943e-23 8.019886582463638e-16 8.019886163739701e-16 4.1872393575656495e-23
1.06003981227728 2.8580763026900183e-23 8.042025181191348e-16 8.042024753210056e-16 4.279812910718313e-23
1.0620293250338977 2.868463966367735e-23 8.0864022384934e-16 8.086401791406425e-16 4.4708697347775515e-23
1.0660195594769086 2.889233668343545e-23 8.175555542774192e-16 8.175555054999245e-16 4.8777494627740255e-23
1.070024785945596 2.9099949233188144e-23 8.265240634114675e-16 8.265240102123496e-16 5.319911801271098e-23
1.0740450607676866 2.9307466122798245e-23 8.355456969618662e-16 8.355456389593276e-16 5.800253867151223e-23
1.07808044048254 2.9514876357513833e-23 8.446204026404992e-16 8.446203394215353e-16 6.32189636390334e-23
1.0861967418109137 2.9928995018559014e-23 8.629190620768231e-16 8.629189870490054e-16 7.502781764678313e-23
1.0902777775684922 3.0134911864044047e-23 8.721205477850773e-16 8.721204660897144e-16 8.169536315688356e-23
1.0943741465085532 3.0340666591464176e-23 8.813742860356154e-16 8.813741971091349e-16 8.89264808621912e-23
1.1026131145906286 3.075165038581384e-23 9.000383510191062e-16 9.000382457562262e-16 1.0526287982242689e-22
1.1109141095355224 3.116187001863914e-23 9.189109515799854e-16 9.189108271409332e-16 1.2443905248419072e-22
1.1192775983109025 3.157090588712578e-23 9.379815336104486e-16 9.379813866915847e-16 1.4691886375497328e-22
1.1277040513999907 3.1977094857837e-23 9.572019594553786e-16 9.572017862186019e-16 1.7323677664957046e-22
1.1361939428280308 3.238226176969869e-23 9.766277988016738e-16 9.766275947939508e-16 2.0400772291029069e-22
1.1447477501889525 3.2786346145747655e-23 9.962589854365272e-16 9.96258745498231e-16 2.3993829644957904e-22
1.1533659546722406 3.3189468432446734e-23 1.0161009500908558e-15 1.0161006682511368e-15 2.8183971912741677e-22
1.1707974979042381 3.399407218171019e-23 1.0564632903627794e-15 1.056462902951502e-15 3.8741127732804897e-22
1.1884924949847024 3.479412937290548e-23 1.0976701409885689e-15 1.097669611115579e-15 5.298729898999834e-22
1.2064549276569216 3.559537967773443e-23 1.1399194511163112e-15 1.1399187299564198e-15 7.211598912180192e-22
1.2246888378427687 3.639114684736262e-23 1.183016862400287e-15 1.1830158856869921e-15 9.76713295269366e-22
1.2431983285522175 3.7180277301253696e-23 1.226937598179687e-15 1.2269362817386053e-15 1.3164410817920273e-21
1.2619875648066055 3.7963327146130963e-23 1.27171201958411e-15 1.2717102537053989e-15 1.7658787110557886e-21
1.3004222497298317 3.950312787518654e-23 1.3635947144993475e-15 1.3635915816127433e-15 3.1328866046817424e-21
1.3400274889804893 4.1011126932252786e-23 1.4587633508516054e-15 1.4587578942495373e-15 5.456602067726714e-21
1.3808389325824078 4.248895741416419e-23 1.5573582614892907e-15 1.55734892688231e-15 9.33460698039503e-21
1.4228933163050095 4.3947523753238206e-23 1.6598780502165216e-15 1.659862358156865e-15 1.569205965639413e-20
1.466228494730424 4.541571693896638e-23 1.7675726084431749e-15 1.7675466731875894e-15 2.5935255584991096e-20
1.5108834753276823 4.688380269175492e-23 1.8802830623473098e-15 1.8802409005926103e-15 4.216175469946053e-20
1.5568984535646726 4.834499595814025e-23 1.9979345105834404e-15 1.9978670236730985e-15 6.74869103417031e-20
1.6043148490894465 4.9807568328799044e-23 2.1210669439542786e-15 2.1209603830738742e-15 1.0656088040412183e-19
1.6531753430134553 5.128069483332686e-23 2.250309498379568e-15 2.2501437132451644e-15 1.6578513440328782e-19
1.7035239163302658 5.2777112745635197e-23 2.386510205958564e-15 2.3862560118834383e-15 2.5419407512576075e-19
1.755405889504358 5.433953631074643e-23 2.5319954000064787e-15 2.531611096720597e-15 3.843032858811228e-19
1.8088679632656115 5.59656821105289e-23 2.6871883093717655e-15 2.6866152166761093e-15 5.730926956563278e-19
1.8639582606462262 5.765418367355404e-23 2.8525708730906525e-15 2.851727558429473e-15 8.433146611807072e-19
1.9207263702978936 5.941381074481682e-23 3.029160887236069e-15 3.02793590054509e-15 1.2249866909791257e-18
1.979223391128241 6.125841833896869e-23 3.218325952214872e-15 3.216568769839317e-15 1.7571823755545374e-18
2.039501978296691 6.32019472410204e-23 3.4215589195835877e-15 3.4190689154294377e-15 2.49000415414956e-18
2.1016163906111602 6.52813407780971e-23 3.641765233055602e-15 3.638278172602009e-15 3.487060453594215e-18
2.1656225393682647 6.751702010102707e-23 3.881194990076156e-15 3.876367253533907e-15 4.827736542250173e-18
2.231578038680979 6.990649566586594e-23 4.140941010443112e-15 4.1343312377376535e-15 6.609772705457887e-18
2.299542257339062 7.245865465493991e-23 4.422838628457761e-15 4.413886625684264e-15 8.952002773496476e-18
2.369576372248914 7.51937482653164e-23 4.7295723987023234e-15 4.717575085869419e-15 1.1997312832903454e-17
2.4417434235010123 7.813540541818963e-23 5.064275570747516e-15 5.048360540164691e-15 1.5915030582824972e-17
2.5161083711144245 8.132734343226143e-23 5.431694830449998e-15 5.4107908157826734e-15 2.0904014667322805e-17
2.5927381535095444 8.484192833857521e-23 5.839001979942043e-15 5.8118071893950405e-15 2.71947905470004e-17
2.6717017477616296 8.875484516883351e-23 6.294329563791478e-15 6.259279741138713e-15 3.5049822652761255e-17
2.753070231689431 9.317938701537737e-23 6.809364349841093e-15 6.7645997570864175e-15 4.4764592754675686e-17
2.836916847834745 9.839206723485114e-23 7.409282005127612e-15 7.352612317916334e-15 5.66696872112778e-17
2.9233170693905177 1.0500347116378171e-22 8.147962312289138e-15 8.076845598972231e-15 7.111671331690718e-17
2.967498994190263 1.094329399603544e-22 8.6200161669918e-15 8.540748306448518e-15 7.926786054328027e-17
3.0123486681368425 1.1432033557070903e-22 9.141093729170483e-15 9.052857643238236e-15 8.823608593224511e-17
3.0578761833420214 1.2313715052953644e-22 9.994899439571666e-15 9.896782243703342e-15 9.811719586832271e-17
3.1040917844459814 1.3387656410468392e-22 1.103083898262876e-14 1.0921946645026968e-14 1.0889233760179083e-16
3.127460860933648 1.4428903630131387e-22 1.1978285196845083e-14 1.1863614744439752e-14 1.1467045240532828e-16
3.1510058709225794 1.577843236759153e-22 1.3197221260847907e-14 1.3076521471828915e-14 1.2069978901899588e-16
3.162844764501044 1.7006916554027152e-22 1.4278181250914748e-14 1.4154358778912703e-14 1.238224720020479e-16
3.1747281389236908 1.8415857353244833e-22 1.5519149495699924e-14 1.5392139104161245e-14 1.270103915386785e-16
3.1986289994194426 2.228349805357955e-22 1.89198056370155e-14 1.8786203709402178e-14 1.3360192761331838e-16
3.2227097969389145 3.129032260413697e-22 2.676706004332838e-14 2.66264667468543e-14 1.4059329647408605e-16
3.2348180950136065 3.977868120468435e-22 3.415621020094743e-14 3.4011884191883593e-14 1.4432600906383852e-16
3.240889293275058 4.6119411910883245e-22 3.967504151727658e-14 3.9528746569053266e-14 1.4629494822330292e-16
3.2469718861334385 5.346050669558169e-22 4.607666440853504e-14 4.5928332148157876e-14 1.4833226037717617e-16
3.2714166318528037 9.233007033397992e-22 8.017675162244998e-14 8.00199946006835e-14 1.567570217664554e-16
3.2744851364798273 9.476463508311963e-22 8.236804365229261e-14 8.221029220104714e-14 1.5775145124548043e-16
3.2775565192852394 9.726695523122711e-22 8.462232314137483e-14 8.446357214214986e-14 1.587509992249859e-16
3.283707930232385 9.488577288384915e-22 8.270562621357577e-14 8.254508447107153e-14 1.6054174250422893e-16
3.2898708863219004 8.728977771703446e-22 7.622749965245978e-14 7.60653252561092e-14 1.6217439635057745e-16
3.29141343181113 8.549669073405066e-22 7.46966586446494e-14 7.453407420232244e-14 1.625844423269746e-16
3.292184975758714 8.461536784660923e-22 7.394399462658909e-14 7.378120487847475e-14 1.627897481143358e-16
3.295272960557952 7.907859873153221e-22 6.91703212742061e-14 6.900673236405236e-14 1.6358891015373751e-16
3.3076538914384823 5.9830551344559e-22 5.2530616441042667e-14 5.236381618941334e-14 1.6680025162932561e-16
3.310756385682612 5.589459040064875e-22 4.9120913683215065e-14 4.895330367253047e-14 1.676100106845817e-16
3.313861789986515 5.225584534872904e-22 4.5966210580017566e-14 4.5797788033961426e-14 1.6842254605613457e-16
3.3200813396944477 4.7165602513815045e-22 4.156650823838031e-14 4.139633938778414e-14 1.7016885059616605e-16
3.345076488085796 3.819562466429267e-22 3.391478770004547e-14 3.3736840177862636e-14 1.7794752218282752e-16
3.3482140837626964 3.855233699676296e-22 3.4263629201589624e-14 3.4084628079175557e-14 1.7900112241407823e-16
3.3513546224236106 3.891265439250368e-22 3.461630230144016e-14 3.443624266509518e-14 1.800596363449796e-16
3.3576445397418455 4.146717586675701e-22 3.6958012576192726e-14 3.677574036669281e-14 1.8227220949991159e-16
3.3702598118196083 5.079429479073854e-22 4.544098637295244e-14 4.525407287230026e-14 1.869135006521759e-16
3.382922481734668 5.298727848278182e-22 4.75809482858427e-14 4.738951731344085e-14 1.9143097240184892e-16
3.389271646505754 5.412076134595119e-22 4.868999264529608e-14 4.8496270704439615e-14 1.9372194085647022e-16
3.395632727569191 5.535347389397736e-22 4.9892472366206315e-14 4.969638940428724e-14 1.9608296191907894e-16
3.421196662673239 6.12950746570184e-22 5.5663825649692064e-14 5.545796223859651e-14 2.0586341109555574e-16
3.4276182099114902 6.018361418717178e-22 5.4757062162233136e-14 5.4549009284707335e-14 2.0805287752578074e-16
3.4340518103208963 5.518030535012312e-22 5.02991186826486e-14 5.008899165114164e-14 2.1012703150696416e-16
3.4469541582030403 4.803553670096893e-22 4.395088132182433e-14 4.373676649570256e-14 2.14114826121767e-16
3.472904465399547 4.608985996947467e-22 4.248813402531552e-14 4.226484279425421e-14 2.2329123106132055e-16
3.4990501388274233 4.309910223952725e-22 4.003020576942727e-14 3.9797508836325844e-14 2.32696933101429e-16
3.5253949054701885 3.232405728212442e-22 3.024844638048798e-14 3.000658736945049e-14 2.4185901103748785e-16
3.5519380250092896 2.212981490511852e-22 2.086472158972794e-14 2.0613634010026396e-14 2.5108757970154823e-16
3.578680990867387 1.8147175470738247e-22 1.7238578785525868e-14 1.6977373282837063e-14 2.612055026888087e-16
3.605625307711299 1.6603606168058642e-22 1.58910447234023e-14 1.5619171018543812e-14 2.7187370485848806e-16
3.660119384959845 1.5616098358330296e-22 1.5171803881018035e-14 1.4877463282443075e-14 2.9434059857495853e-16
3.715437065384467 1.4965086236594823e-22 1.475905551087585e-14 1.444095197754298e-14 3.1810353333287297e-16
3.8285932144167436 1.494646525630968e-22 1.5189628605670922e-14 1.48201782490483e-14 3.694503566226238e-16
3.94519561050918 1.527458715150545e-22 1.5995854867297354e-14 1.5569997856491438e-14 4.2585701080591744e-16
4.06534921144712 1.5742394945763213e-22 1.6987837344695635e-14 1.650047707248007e-14 4.873602722155634e-16
4.189162171576248 1.6288636357336705e-22 1.811262242947721e-14 1.755844694410121e-14 5.541754853759971e-16
4.316745939156006 1.6888663756923449e-22 1.9351793069306214e-14 1.8725621347079694e-14 6.261717222265188e-16
4.448215356677963 1.7532343236577186e-22 2.070118480959605e-14 1.9998696736667783e-14 7.024880729282743e-16
4.58368876423945 1.8218665536559234e-22 2.2166703749428228e-14 2.138338006551266e-14 7.833236839155638e-16
4.723288106065518 1.895310342613093e-22 2.3762613409859872e-14 2.289332929187969e-14 8.692841179801935e-16
4.867139040275056 1.9745806824370703e-22 2.551044708707168e-14 2.4552123729515555e-14 9.583233575561237e-16
4.940699165968905 2.018215342041068e-22 2.6468257267489084e-14 2.54639682935971e-14 1.004288973891982e-15
5.015371051989984 2.0621445929778543e-22 2.7453114143118487e-14 2.6402013823084863e-14 1.0511003200336252e-15
5.091171501069577 2.1119113262421396e-22 2.85405829388909e-14 2.7440853894660808e-14 1.099729044230099e-15
5.129500256944802 2.1369215610548175e-22 2.909598539012681e-14 2.7971657304369962e-14 1.124328085756843e-15
5.168117569889187 2.162501771843189e-22 2.9665952015601187e-14 2.851661693318386e-14 1.1493350824173364e-15
5.20702561229733 2.1923962609941036e-22 3.030248184278286e-14 2.9125958086229035e-14 1.1765237565538222e-15
5.246226572918644 2.2225833507326157e-22 3.095098912533685e-14 2.974700986145449e-14 1.2039792638823614e-15
5.265937586045735 2.2377897116598436e-22 3.12798321006144e-14 3.0062027527787977e-14 1.2178045728264176e-15
5.285722656980489 2.253073017399214e-22 3.161178877926137e-14 3.038009522690594e-14 1.2316935523554308e-15
5.305582063971359 2.268434623788329e-22 3.1946901067424416e-14 3.0701255907417686e-14 1.2456451600067315e-15
5.3255160863122235 2.284674762266334e-22 3.2296504325966834e-14 3.1036744116479944e-14 1.2597602094868832e-15
5.365609099470188 2.323662867055166e-22 3.3094938681745826e-14 3.180597482047755e-14 1.2889638612682752e-15
5.406003951863644 2.3634636894224877e-22 3.391522685737035e-14 3.259677734792327e-14 1.3184495094470782e-15
5.446702915881641 2.404119786436758e-22 3.4758355733544194e-14 3.341014670523357e-14 1.3482090283106191e-15
5.487708281020852 2.447227077185729e-22 3.56479630577256e-14 3.4269611057785276e-14 1.3783519999403128e-15
5.529022354014368 2.5052503309283835e-22 3.676790687434431e-14 3.53581163278499e-14 1.409790546494414e-15
5.570647458961463 2.5656215804524056e-22 3.7937412592242076e-14 3.649588103365893e-14 1.4415315585831509e-15
5.612585937458331 2.628515788043436e-22 3.9160030985552355e-14 3.768646406475925e-14 1.4735669207930937e-15
5.654840148729818 2.696512909956463e-22 4.047550441235579e-14 3.896946909007289e-14 1.506035322282914e-15
5.67608639626678 2.7422753644806277e-22 4.131706776690148e-14 3.9794052862327044e-14 1.523014904574433e-15
5.686739436050992 2.7657073739016453e-22 4.174831870369127e-14 4.021678237763677e-14 1.5315363260545008e-15
5.6974124697621304 2.7895183598688455e-22 4.218677425266426e-14 4.06466955822874e-14 1.54007867037686e-15
5.718818669136295 2.83831399345152e-22 4.308600204073702e-14 4.152877641065808e-14 1.5572256300789408e-15
5.740305295436557 2.8917466539320595e-22 4.4062046608605615e-14 4.2487470577568e-14 1.5745760310376313e-15
5.7835210386641895 3.0293073437687663e-22 4.650558271851004e-14 4.489511393860713e-14 1.6104687799029103e-15
5.827062130521658 3.1853235321278755e-22 4.92688734202573e-14 4.7621848776673716e-14 1.6470246435835794e-15
5.8489554468988025 3.29475765925591e-22 5.1153013359175686e-14 4.948627971775433e-14 1.666733641421362e-15
5.870931020387893 3.4110983039647915e-22 5.315824644509693e-14 5.1471682655401065e-14 1.6865637896958628e-15
5.892989160043636 3.534891471651507e-22 5.529440127330473e-14 5.35878869516983e-14 1.7065143216064194e-15
5.915130176081913 3.675031705774557e-22 5.770252661945876e-14 5.597533982638548e-14 1.7271867930733019e-15
5.95966208400165 4.0665963977420693e-22 6.433127225643456e-14 6.255715368555815e-14 1.7741185708764292e-15
6.004529249263818 4.627129819700954e-22 7.374967012139466e-14 7.192282745662704e-14 1.8268426647676215e-15
6.027089341400364 5.016024006163917e-22 8.024845292102236e-14 7.839123310549176e-14 1.8572198155306134e-15
6.049734195844842 5.472850021589846e-22 8.788591398473189e-14 8.599653223251416e-14 1.8893817522177543e-15
6.095279466722835 6.790042602507211e-22 1.0985897809212347e-13 1.0789084043588466e-13 1.9681376562387957e-15
6.141167624020661 8.805891693040704e-22 1.4354686902948614e-13 1.4147688369834439e-13 2.0699853311417787e-15
6.164241091010745 1.0092605258722076e-21 1.6514002146386597e-13 1.6300629159549193e-13 2.1337298683740335e-15
6.187401249150058 1.1548192912185005e-21 1.8966698642775973e-13 1.8746774413130587e-13 2.1992422964538444e-15
6.1990139391386085 1.225778773309736e-21 2.016991845499144e-13 1.994665959400425e-13 2.2325886098719092e-15
6.204828454712694 1.2630699287036045e-21 2.0803030586779012e-13 2.057808684066489e-13 2.2494374611412e-15
6.210648424152782 1.2902348715864355e-21 2.1270375347213504e-13 2.1043991912224896e-13 2.2638343498860892e-15
6.233982942956859 1.382053605489878e-21 2.2869671738667296e-13 2.2638251040680593e-13 2.3142069798670035e-15
6.239830258556775 1.3935343821125807e-21 2.3081280409699983e-13 2.2849147338981606e-13 2.321330707183707e-15
6.245683058788269 1.3941471307484526e-21 2.311308860697105e-13 2.2880241806619106e-13 2.3284680035194526e-15
6.257405133728602 1.3907437874162212e-21 2.309993914509488e-13 2.2865835197327455e-13 2.341039477674272e-15
6.269149208991335 1.3715989881771386e-21 2.2824706174478307e-13 2.2590102285020756e-13 2.3460388945755167e-15
6.280915325867298 1.324899096751085e-21 2.2088955267615e-13 2.1854788479297633e-13 2.34166788317367e-15
6.304513850009849 1.2102757145256002e-21 2.0253745801455127e-13 2.0021301961650588e-13 2.324438398045437e-15
6.32820103803542 1.0691502116011736e-21 1.7959259547498306e-13 1.7729441751480177e-13 2.2981779601812907e-15
6.3519772230701035 9.400093751799649e-22 1.584931694439132e-13 1.5621838557429195e-13 2.2747838696212647e-15
6.375842739491607 8.311560957611365e-22 1.4066615743892324e-13 1.3841183564426355e-13 2.2543217946596826e-15
6.399797922933955 7.444090507050712e-22 1.2645829991058033e-13 1.2421369829121565e-13 2.244601619364667e-15
6.42384311029221 6.720975290424467e-22 1.1460317705020196e-13 1.1236615905611242e-13 2.2370179940895577e-15
6.447978639727206 6.195788329745191e-22 1.0604485325156112e-13 1.0380702201362764e-13 2.2378312379334807e-15
6.472204850670314 5.757291185838047e-22 9.890992736235894e-14 9.666960849927192e-14 2.2403188630870173e-15
6.496522083828205 5.472905194511981e-22 9.437745832590978e-14 9.212782974242979e-14 2.249628583479974e-15
