Dust emission spectrum from A.P. Jones, M. Kohler, N. Ysard, M. Bocchio, and L. Verstraete (2017), A&A, 602A, 46J 
inside the DustPedia framework.

lambda    nu*dP/dnu     j_nu    j_nu(carb.) j_nu(sil)
 (um)   (erg s-1 H-1) (Jy cm2 sr-1 H-1)
0.9927057738263894 1.1596060129192756e-19 3.055627708348928e-12 3.0556275493557727e-12 1.5899315546924753e-19
1.0001793341362166 1.1790328522307893e-19 3.130208138105088e-12 3.13020794683494e-12 1.912701471152157e-19
1.0077091589558085 1.1985450430780466e-19 3.2059666402539e-12 3.2059664104635773e-12 2.2979032258856544e-19
1.0114953028030835 1.2083324100145473e-19 3.2442904467215673e-12 3.2442901949801274e-12 2.5174143905856533e-19
1.0152956718711033 1.218140249076935e-19 3.2829121480963684e-12 3.2829118723997602e-12 2.756966085243433e-19
1.0229392996569957 1.2378066708652934e-19 3.3610278858916142e-12 3.361027555558728e-12 3.3033288732747883e-19
1.0267826658714554 1.2476429762084885e-19 3.4004648295899507e-12 3.4004644681729403e-12 3.614170100710059e-19
1.0306404723013447 1.2574982283524856e-19 3.44020250475232e-12 3.440202109459166e-12 3.9529315434259037e-19
1.03451277320114 1.2673721930277273e-19 3.480242165912599e-12 3.4802417337133706e-12 4.3219922804180925e-19
1.0383996230291617 1.2772646459285343e-19 3.5205850961479775e-12 3.520584623755747e-12 4.723922317265328e-19
1.0403485208654093 1.2822177381501337e-19 3.5408706962128946e-12 3.5408702024056793e-12 4.938072155856554e-19
1.0423010764483396 1.2871753729471544e-19 3.5612326082083528e-12 3.561232092058664e-12 5.161496887528576e-19
1.0462171883269815 1.2971041704058852e-19 3.6021860456603695e-12 3.602185481889195e-12 5.637711742125606e-19
1.0471985131304309 1.2995891704200908e-19 3.612472366342858e-12 3.6124717900252213e-12 5.763176372554357e-19
1.048180758391296 1.3020752848096381e-19 3.6227779149840715e-12 3.6227773258530968e-12 5.891309744335994e-19
1.0501480137395462 1.3070508452871274e-19 3.643446784045846e-12 3.643446168465896e-12 6.155799488558279e-19
1.0521189612883777 1.3120308294141757e-19 3.664192829976901e-12 3.664192186814411e-12 6.43162492297408e-19
1.0531058218030118 1.3145192118955957e-19 3.674585732691871e-12 3.674585075297715e-12 6.573941554979001e-19
1.0540936079674168 1.3169980070187737e-19 3.684968082732185e-12 3.684967410802279e-12 6.719299061121757e-19
1.058054026499678 1.3269236876020766e-19 3.726689624798794e-12 3.7266888915932095e-12 7.332055842026648e-19
1.0590464539527713 1.329407720532318e-19 3.7371681597638615e-12 3.7371674104245086e-12 7.493393538483535e-19
1.06003981227728 1.3318927938396287e-19 3.747666000597779e-12 3.747665234785621e-12 7.658121569341673e-19
1.0620293250338977 1.3368660524776891e-19 3.768719693212813e-12 3.7687188934107704e-12 7.998020429909902e-19
1.0660195594769086 1.3468249566805377e-19 3.811059783907693e-12 3.811058911751256e-12 8.721564379496954e-19
1.070024785945596 1.3568002671277693e-19 3.8537114310331276e-12 3.8537104802934765e-12 9.507396502691182e-19
1.0740450607676866 1.3667918628322056e-19 3.8966762081951834e-12 3.8966751721364776e-12 1.0360587063798312e-18
1.07808044048254 1.37679963511274e-19 3.939955729708394e-12 3.939954601049038e-12 1.1286593567676929e-18
1.0861967418109137 1.3968481803302892e-19 4.027421972862371e-12 4.027420634763504e-12 1.3380988681443448e-18
1.0902777775684922 1.4068543425615904e-19 4.071512090110275e-12 4.071510633861431e-12 1.4562488443903472e-18
1.0943741465085532 1.416875786538454e-19 4.1159210559757736e-12 4.115919471667349e-12 1.5843084237403512e-18
1.1026131145906286 1.4369643683286512e-19 4.205702862505091e-12 4.205700989153298e-12 1.8733517934505153e-18
1.1109141095355224 1.457113759930677e-19 4.296782545133863e-12 4.2967803329088475e-12 2.2122250165321224e-18
1.1192775983109025 1.477308437710045e-19 4.389129786054035e-12 4.389127177066532e-12 2.6089875029381387e-18
1.1277040513999907 1.497477079344904e-19 4.482546025400312e-12 4.482542952489766e-12 3.072910545911794e-18
1.1361939428280308 1.517705095285229e-19 4.5772991305551085e-12 4.577295515909927e-12 3.614645181066527e-18
1.1447477501889525 1.5379932660609276e-19 4.673407655865918e-12 4.673403409455492e-12 4.246410424761036e-18
1.1533659546722406 1.5583495355182609e-19 4.77091233575089e-12 4.7709073535386896e-12 4.982212202370526e-18
1.1707974979042381 1.5993282872439773e-19 4.97037135086485e-12 4.97036451849915e-12 6.832365700005463e-18
1.1884924949847024 1.6405948105157354e-19 5.1756775335963624e-12 5.175668211169898e-12 9.322426463244073e-18
1.2064549276569216 1.6824259047246579e-19 5.387862220380343e-12 5.387849563469265e-12 1.26569110784482e-17
1.2246888378427687 1.7245650310410827e-19 5.606279792678022e-12 5.60626269314811e-12 1.709952991363985e-17
1.2431983285522175 1.766983316636305e-19 5.8309900406908016e-12 5.830967051584179e-12 2.298910662137553e-17
1.2619875648066055 1.8097490706122221e-19 6.062376031135854e-12 6.0623452723715266e-12 3.075876432690124e-17
1.3004222497298317 1.8960926492422445e-19 6.5450561861250624e-12 6.545001900978257e-12 5.428514680391745e-17
1.3400274889804893 1.9838955049414047e-19 7.056704536084759e-12 7.0566104924982724e-12 9.404358648609599e-17
1.3808389325824078 2.073514333545678e-19 7.600103354353732e-12 7.59994335466374e-12 1.5999968999235255e-16
1.4228933163050095 2.165707527235365e-19 8.17977915623017e-12 8.179511690970996e-12 2.6746525917212697e-16
1.466228494730424 2.2620289401102155e-19 8.80378129760195e-12 8.803341763935264e-12 4.3953366668453505e-16
1.5108834753276823 2.362325595991626e-19 9.474147895161497e-12 9.473437523598267e-12 7.103715632295194e-16
1.5568984535646726 2.466532187222762e-19 1.0193339932397802e-11 1.0192209592496005e-11 1.1303399017964411e-15
1.6043148490894465 2.5752192634280073e-19 1.0966631450532282e-11 1.0964857338774558e-11 1.7741117577208633e-15
1.6531753430134553 2.6889763873658514e-19 1.179981886960557e-11 1.1797075527877359e-11 2.743341728209924e-15
1.7035239163302658 2.8084702910336107e-19 1.2699525730000149e-11 1.269534543971966e-11 4.180290280489345e-15
1.755405889504358 2.935686307941736e-19 1.3679071873310163e-11 1.3672791622724188e-11 6.280250585976561e-15
1.8088679632656115 3.0705321094658047e-19 1.4743138432248012e-11 1.473383283904364e-11 9.305593204378361e-15
1.8639582606462262 3.21282615832754e-19 1.589618261086017e-11 1.5882578220519204e-11 1.360439034096403e-14
1.9207263702978936 3.3628020329617492e-19 1.714495041147369e-11 1.7125319352694038e-11 1.9631058779658126e-14
1.979223391128241 3.5208628480708027e-19 1.8497513624061682e-11 1.8469542896029552e-11 2.7970728032128908e-14
2.039501978296691 3.687298118568137e-19 1.996189724762489e-11 1.9922532121586214e-11 3.9365126038676153e-14
2.1016163906111602 3.863452955735364e-19 2.155254240498624e-11 2.1497797445579495e-11 5.474495940675025e-14
2.1656225393682647 4.0498184472878944e-19 2.328025591889632e-11 2.320499875262915e-11 7.525716626716888e-14
2.231578038680979 4.245660178290064e-19 2.5149348685305408e-11 2.5047053512056434e-11 1.0229517324896985e-13
2.299542257339062 4.450820401448415e-19 2.7167576452527848e-11 2.703004698129041e-11 1.375294712374472e-13
2.369576372248914 4.665509997269691e-19 2.934534827429863e-11 2.916240907742585e-11 1.8293919687277795e-13
2.4417434235010123 4.89005249256484e-19 3.1694432562583224e-11 3.145359997823761e-11 2.408325843456173e-13
2.5161083711144245 5.125562614319522e-19 3.4232634167542696e-11 3.391875857093498e-11 3.138755966077022e-13
2.5927381535095444 5.374155754390864e-19 3.6986083066357786e-11 3.6580979854981656e-11 4.051032113761235e-13
2.6717017477616296 5.637493294841465e-19 3.9980060405600526e-11 3.946215877241537e-11 5.179016331851508e-13
2.753070231689431 5.918191587397724e-19 4.3248967504052126e-11 4.2592967610350355e-11 6.559998937017818e-13
2.836916847834745 6.224263233151688e-19 4.687097533837885e-11 4.604749955666377e-11 8.234757817150754e-13
2.9233170693905177 6.573643143640933e-19 5.1009548537000165e-11 4.9985050887237465e-11 1.0244976497627092e-12
2.967498994190263 6.781353372851558e-19 5.341661818575114e-11 5.2280029348748196e-11 1.136588837002934e-12
3.0123486681368425 7.002271294460684e-19 5.59904044194786e-11 5.473106845203263e-11 1.2593359674459603e-12
3.0578761833420214 7.346779843565061e-19 5.963295839259443e-11 5.823896363865267e-11 1.3939947539417734e-12
3.1040917844459814 7.744237537174418e-19 6.380910496702217e-11 6.22691469068537e-11 1.539958060168456e-12
3.127460860933648 8.0985907294848645e-19 6.723118536027816e-11 6.561330171450824e-11 1.6178836457699058e-12
3.1510058709225794 8.543349743424809e-19 7.145733761509013e-11 6.97583921929533e-11 1.698945422136846e-12
3.162844764501044 8.938885848190051e-19 7.504654469035542e-11 7.330571264531672e-11 1.7408320450387118e-12
3.1747281389236908 9.384256000313954e-19 7.908166803275688e-11 7.729814188619665e-11 1.7835261465602138e-12
3.1986289994194426 1.0581229321121532e-18 8.983993521795837e-11 8.796833829445975e-11 1.8715969234986434e-12
3.2227097969389145 1.3327188005528593e-18 1.1400638020444877e-10 1.1204162670290978e-10 1.964753501538979e-12
3.2348180950136065 1.5893163438894864e-18 1.364676290758929e-10 1.344532030998205e-10 2.014425976072418e-12
3.240889293275058 1.7807682870911765e-18 1.531937481325937e-10 1.51153120782119e-10 2.0406273504747375e-12
3.2469718861334385 2.002590785300594e-18 1.725997549692998e-10 1.7053201698982413e-10 2.0677379794756625e-12
3.2714166318528037 3.1633383077279807e-18 2.7469511165653937e-10 2.7251547491714495e-10 2.1796367393944616e-12
3.2744851364798273 3.2358738486491034e-18 2.8125745240833913e-10 2.7906466751199265e-10 2.1927848963465176e-12
3.2775565192852394 3.3103225011498046e-18 2.879983029473194e-10 2.8579230769491745e-10 2.205995252401909e-12
3.283707930232385 3.2390407082513215e-18 2.8232566586680305e-10 2.800961252125833e-10 2.229540654219803e-12
3.2898708863219004 3.012131398874278e-18 2.6304024499313705e-10 2.6078934923790313e-10 2.2508957552339433e-12
3.29141343181113 2.9585010480675957e-18 2.5847800773337917e-10 2.5622175141756264e-10 2.25625631581655e-12
3.292184975758714 2.932131112117066e-18 2.5623417201456655e-10 2.539752321483913e-10 2.2589398661752374e-12
3.295272960557952 2.767899467137313e-18 2.421091148144604e-10 2.398397501570273e-10 2.2693646574330492e-12
3.3076538914384823 2.1943576386673084e-18 1.926623720839023e-10 1.9035117214903057e-10 2.311199934871766e-12
3.310756385682612 2.076327862977143e-18 1.8247046986888884e-10 1.8014873231050728e-10 2.3217375583815384e-12
3.313861789986515 1.9669197710027682e-18 1.7301767445259045e-10 1.706853677315893e-10 2.332306721001203e-12
3.3200813396944477 1.8143257412204097e-18 1.5989446089966543e-10 1.5753938690391356e-10 2.3550739957519125e-12
3.345076488085796 1.5495137747906413e-18 1.375849489888002e-10 1.3512832148006289e-10 2.456627508737305e-12
3.3482140837626964 1.5606441874312862e-18 1.387032224745587e-10 1.3623283377978154e-10 2.4703886947771703e-12
3.3513546224236106 1.5718708179037823e-18 1.3983203217781918e-10 1.3734782415682508e-10 2.4842080209940976e-12
3.3576445397418455 1.6492404727955621e-18 1.469901165456708e-10 1.4447700239976444e-10 2.5131141459063687e-12
3.3702598118196083 1.9281793275754513e-18 1.7249647998841858e-10 1.6992273984308117e-10 2.5737401453374284e-12
3.382922481734668 1.9956911724399343e-18 1.7920693643707984e-10 1.7657439164395473e-10 2.632544793125159e-12
3.389271646505754 2.030453293408049e-18 1.8267066734465127e-10 1.800083402599548e-10 2.6623270846964878e-12
3.395632727569191 2.068747133614682e-18 1.8646509773575232e-10 1.8377207797211815e-10 2.6930197636342165e-12
3.421196662673239 2.2542984934811454e-18 2.0471934981015628e-10 2.0189940753394001e-10 2.819942276216248e-12
3.4276182099114902 2.221772669171373e-18 2.021442975787569e-10 1.992961649136707e-10 2.8481326650861384e-12
3.4340518103208963 2.0724724769291268e-18 1.8891439331868117e-10 1.8603966287350553e-10 2.87473044517562e-12
3.4469541582030403 1.858305100357432e-18 1.7002859244394137e-10 1.6710294327887319e-10 2.9256491650681758e-12
3.472904465399547 1.8003791071374154e-18 1.6596871600628622e-10 1.6292556708778243e-10 3.0431489185037877e-12
3.4990501388274233 1.7121830388272774e-18 1.5902660565472368e-10 1.558635101039125e-10 3.163095550811124e-12
3.5253949054701885 1.3955936834985514e-18 1.3059790216248245e-10 1.2731875186078326e-10 3.279150301699194e-12
3.5519380250092896 1.0942597138263295e-18 1.0317042584283402e-10 9.977500914499164e-11 3.395416697842364e-12
3.578680990867387 9.786461500399034e-19 9.296470840774944e-11 8.944190474366586e-11 3.5228036640835763e-12
3.605625307711299 9.361228058862623e-19 8.959480985253219e-11 8.593806916868365e-11 3.6567406838485425e-12
3.660119384959845 9.135907915184428e-19 8.875981694254565e-11 8.482272268182008e-11 3.937094260725588e-12
3.715437065384467 9.004603347366384e-19 8.88063313208405e-11 8.45751948156352e-11 4.23113650520529e-12
3.8285932144167436 9.12033736300673e-19 9.26871570815138e-11 8.782930682393042e-11 4.857850257583369e-12
3.94519561050918 9.328661663207332e-19 9.769162111597777e-11 9.215820445842651e-11 5.533416657551259e-12
4.06534921144712 9.566706107105814e-19 1.0323565622126556e-10 9.698043289489448e-11 6.255223326371076e-12
4.189162171576248 9.815168452220703e-19 1.0914261719441914e-10 1.0211980402382594e-10 7.0228131705932234e-12
4.316745939156006 1.0064988274109137e-18 1.1532917768328827e-10 1.0749793752216152e-10 7.831240161126791e-12
4.448215356677963 1.031093935351981e-18 1.2174565500887474e-10 1.1307875450304073e-10 8.666900505834006e-12
4.58368876423945 1.0551256257399618e-18 1.2837744409585875e-10 1.188484600850232e-10 9.528984010835593e-12
4.723288106065518 1.0786191839051163e-18 1.3523279067985375e-10 1.248115699652012e-10 1.0421220714652514e-11
4.867139040275056 1.1015239326132282e-18 1.4231055863157124e-10 1.3099446891840416e-10 1.1316089713167081e-11
4.940699165968905 1.113225878284672e-18 1.4599606062585177e-10 1.342291092686059e-10 1.1766951357245858e-11
5.015371051989984 1.1243695147744141e-18 1.4968613128903045e-10 1.3746776220452367e-10 1.2218369084506808e-11
5.091171501069577 1.136540510474696e-18 1.5359323234622098e-10 1.409124051741399e-10 1.2680827172081114e-11
5.129500256944802 1.142389686733823e-18 1.5554596968281605e-10 1.4263439135491274e-10 1.2911578327903302e-11
5.168117569889187 1.1482292722489751e-18 1.575180882483773e-10 1.4437347952432845e-10 1.3144608724048826e-11
5.20702561229733 1.1552014901371491e-18 1.5966763309368185e-10 1.4626636513397986e-10 1.3401267959701992e-11
5.246226572918644 1.162046762857386e-18 1.6182293774708807e-10 1.481647241815856e-10 1.3658213565502457e-11
5.265937586045735 1.1654218521886634e-18 1.6290270561575307e-10 1.4911595658127666e-10 1.3786749034476414e-11
5.285722656980489 1.1687653024807048e-18 1.6398386376841995e-10 1.5006856150630817e-10 1.3915302262111775e-11
5.305582063971359 1.1720771760565828e-18 1.6506639950827966e-10 1.5102254436887975e-10 1.4043855139399898e-11
5.3255160863122235 1.1755809779942044e-18 1.661818862289693e-10 1.520082988844069e-10 1.4173587344562448e-11
5.365609099470188 1.1842198082008094e-18 1.6866337407966223e-10 1.542211749397792e-10 1.4442199139882995e-11
5.406003951863644 1.1928173495277834e-18 1.7116688185096295e-10 1.5645588770203951e-10 1.4710994148923422e-11
5.446702915881641 1.2013800464080382e-18 1.7369348757003332e-10 1.5871366066517078e-10 1.4979826904862494e-11
5.487708281020852 1.2103331070928467e-18 1.763052979080516e-10 1.6105540814075675e-10 1.524988976729479e-11
5.529022354014368 1.2229755906682183e-18 1.7948806182024093e-10 1.639566320966518e-10 1.5531429723589157e-11
5.570647458961463 1.2358601871357323e-18 1.8274455665214007e-10 1.6693148720185236e-10 1.5813069450287744e-11
5.612585937458331 1.2490187073224172e-18 1.8608072092535645e-10 1.6998605954934363e-10 1.6094661376012885e-11
5.654840148729818 1.263107846239526e-18 1.8959644886170637e-10 1.732187661186319e-10 1.637768274307447e-11
5.67608639626678 1.2730339611915058e-18 1.9180433564547685e-10 1.7527819702590422e-10 1.6526138619572635e-11
5.686739436050992 1.2780843559962527e-18 1.9292667593050672e-10 1.763262947257099e-10 1.6600381204796846e-11
5.6974124697621304 1.2831952281380183e-18 1.9406169964803465e-10 1.773870692230856e-10 1.667463042494896e-11
5.718818669136295 1.2936054238338607e-18 1.963711064378621e-10 1.7954796708314684e-10 1.6823139354715247e-11
5.740305295436557 1.3050500051640095e-18 1.9885273862392996e-10 1.8187982343424496e-10 1.697291518968503e-11
5.7835210386641895 1.3351863930897006e-18 2.0497630052687673e-10 1.876940447460139e-10 1.72822557808628e-11
5.827062130521658 1.3690791435045262e-18 2.1176180800252493e-10 1.941669156432783e-10 1.7594892359246654e-11
5.8489554468988025 1.3935427483833864e-18 2.16355550838105e-10 1.9859069816206212e-10 1.7764852676042916e-11
5.870931020387893 1.4193514449521007e-18 2.2119044125837946e-10 2.0325537414939997e-10 1.7935067108979482e-11
5.892989160043636 1.4466139963937077e-18 2.262860272957726e-10 2.0818051100651675e-10 1.8105516289255883e-11
5.915130176081913 1.4775276844036213e-18 2.3199005441592043e-10 2.1370747461646404e-10 1.8282579799456345e-11
5.95966208400165 1.5652496164266493e-18 2.476137028979123e-10 2.2892129618030544e-10 1.869240671760691e-11
6.004529249263818 1.6912325528289752e-18 2.695576906847237e-10 2.5040047801416564e-10 1.9157212670558094e-11
6.027089341400364 1.779046398762548e-18 2.8461929408625975e-10 2.6519035270498927e-10 1.942894138127054e-11
6.049734195844842 1.8817687946852268e-18 3.0218436422786504e-10 2.824668903360394e-10 1.9717473891825614e-11
6.095279466722835 2.1784556739936247e-18 3.5246157966013087e-10 3.3202422809239963e-10 2.043735156773116e-11
6.141167624020661 2.6304543787101412e-18 4.2879642783609885e-10 4.0741157513005324e-10 2.1384852706045586e-11
6.164241091010745 2.918192066884694e-18 4.774885058984673e-10 4.55502658028256e-10 2.198584787021116e-11
6.187401249150058 3.240877757739136e-18 5.322802644234955e-10 5.096785200591458e-10 2.2601744364349857e-11
6.1990139391386085 3.397251595140608e-18 5.590102320017993e-10 5.360953224059252e-10 2.291490959587431e-11
6.204828454712694 3.479200333744929e-18 5.730317009028557e-10 5.49958746626921e-10 2.307295427593479e-11
6.210648424152782 3.538147594283591e-18 5.832870357295314e-10 5.600808097905039e-10 2.3206225939027563e-11
6.233982942956859 3.734468105967954e-18 6.179648847393077e-10 5.942998556354687e-10 2.3665029103838926e-11
6.239830258556775 3.7572586210670396e-18 6.223193407911547e-10 5.985950667878407e-10 2.3724274003313855e-11
6.245683058788269 3.755644547332491e-18 6.226354685547588e-10 5.988519006296144e-10 2.3783567925144432e-11
6.257405133728602 3.741966034570044e-18 6.215320784727011e-10 5.976473045962366e-10 2.388477387646456e-11
6.269149208991335 3.6928821186803215e-18 6.145305590220918e-10 5.90621096364082e-10 2.3909462658009984e-11
6.280915325867298 3.582162289242212e-18 5.972245189270771e-10 5.733848149940034e-10 2.383970393307369e-11
6.304513850009849 3.314278080032386e-18 5.546384591764096e-10 5.310234493398528e-10 2.3615009836556908e-11
6.32820103803542 2.9898207310067265e-18 5.022209781750558e-10 4.789212552137156e-10 2.3299722961340255e-11
6.3519772230701035 2.6943607494793244e-18 4.5429097420278306e-10 4.3127740257949365e-10 2.301357162328925e-11
6.375842739491607 2.445039003858934e-18 4.138022246545264e-10 3.9104477206791067e-10 2.2757452586615727e-11
6.399797922933955 2.247318688697942e-18 3.817687338175728e-10 3.591603573619469e-10 2.2608376455625928e-11
6.42384311029221 2.0820568580248596e-18 3.550233714871174e-10 3.3254257814898174e-10 2.2480793338135574e-11
6.447978639727206 1.961740774135353e-18 3.3576439581069916e-10 3.133280825899961e-10 2.2436313220703003e-11
6.472204850670314 1.8608536233813676e-18 3.1969356904056204e-10 2.972853255866494e-10 2.2408243453912596e-11
