Dust emission spectrum from A.P. Jones, M. Kohler, N. Ysard, M. Bocchio, and L. Verstraete (2017), A&A, 602A, 46J 
inside the DustPedia framework.

lambda    nu*dP/dnu     j_nu    j_nu(carb.) j_nu(sil)
 (um)   (erg s-1 H-1) (Jy cm2 sr-1 H-1)
0.9927057738263894 5.752155946094352e-24 1.5157257633893889e-16 1.5157257584612303e-16 4.928158529507897e-25
1.0001793341362166 5.847953503625961e-24 1.5525701097874902e-16 1.552570103853718e-16 5.9337723049357465e-25
1.0077091589558085 5.943777015628549e-24 1.589890253959538e-16 1.5898902468243083e-16 7.1352296957752305e-25
1.0114953028030835 5.991688925211436e-24 1.608727778770483e-16 1.6087277709500178e-16 7.820465656540361e-25
1.0152956718711033 6.03959587437777e-24 1.6276830751312964e-16 1.627683066562606e-16 8.568691064386832e-25
1.0229392996569957 6.135333029668039e-24 1.665932644193213e-16 1.6659326339164787e-16 1.0276734314913302e-24
1.0267826658714554 6.1830495941626734e-24 1.6851970544053417e-16 1.6851970431560154e-16 1.1249326315169338e-24
1.0306404723013447 6.230743833874419e-24 1.7045765998293286e-16 1.7045765875194165e-16 1.2309912357874877e-24
1.03451277320114 6.278412091829582e-24 1.7240708465254132e-16 1.7240708330593559e-16 1.3466056944782485e-24
1.0383996230291617 6.326050741246322e-24 1.7436793563574294e-16 1.7436793416314917e-16 1.4725938155332733e-24
1.0403485208654093 6.3498578378755915e-24 1.7535263219560005e-16 1.7535263065584855e-16 1.5397514811013055e-24
1.0423010764483396 6.3736561864947356e-24 1.7634016872839775e-16 1.763401671185583e-16 1.609839420486531e-24
1.0462171883269815 6.421224864043009e-24 1.7832373936524487e-16 1.7832373760594754e-16 1.759297327094411e-24
1.0471985131304309 6.433110874007327e-24 1.7882139826126052e-16 1.7882139646257147e-16 1.7986890561948843e-24
1.048180758391296 6.44499431033239e-24 1.7931976224465195e-16 1.793197604057269e-16 1.8389249913766972e-24
1.0501480137395462 6.468753243389459e-24 1.8031860264958565e-16 1.80318600727587e-16 1.921998679670374e-24
1.0521189612883777 6.492501227213053e-24 1.8132025492108668e-16 1.8132025291242655e-16 2.0086601461444206e-24
1.0531058218030118 6.504353550025755e-24 1.8182164656872782e-16 1.8182164451534273e-16 2.0533850411964247e-24
1.0540936079674168 6.516145875315261e-24 1.823221405423238e-16 1.8232213844325125e-16 2.0990725347115063e-24
1.058054026499678 6.5632827455238614e-24 1.8433100517306974e-16 1.8433100288132343e-16 2.291746343808406e-24
1.0590464539527713 6.575058589532465e-24 1.8483493987490546e-16 1.8483493753240846e-16 2.342497056356631e-24
1.06003981227728 6.586830978308505e-24 1.853395605357056e-16 1.8533955814138311e-16 2.39432255454349e-24
1.0620293250338977 6.610365179704612e-24 1.8635085681104015e-16 1.8635085430975522e-16 2.5012848822317586e-24
1.0660195594769086 6.657389812977761e-24 1.8838164867815402e-16 1.883816459490669e-16 2.729087136527125e-24
1.070024785945596 6.704353318679319e-24 1.9042333383802572e-16 1.9042333086136448e-16 2.976661274285979e-24
1.0740450607676866 6.751252409194882e-24 1.924758652273287e-16 1.9247586198169613e-16 3.245632587253858e-24
1.07808044048254 6.79808383677834e-24 1.9453919568739293e-16 1.9453919214964091e-16 3.5377519665551164e-24
1.0861967418109137 6.891451775950848e-24 1.9869578310810516e-16 1.9869577890898335e-16 4.199121839537275e-24
1.0902777775684922 6.937802028417963e-24 2.007837199838525e-16 2.0078371541126472e-16 4.572587830168339e-24
1.0943741465085532 6.984068887194843e-24 2.0288211897119876e-16 2.0288211399354717e-16 4.9776517085827475e-24
1.1026131145906286 7.076340402458379e-24 2.071101117231943e-16 2.071101058303236e-16 5.892870788006684e-24
1.1109141095355224 7.168242734111672e-24 2.113793796078009e-16 2.1137937264045083e-16 6.967350049703048e-24
1.1192775983109025 7.259672165556878e-24 2.1568714105650456e-16 2.156871328293678e-16 8.227136707906016e-24
1.1277040513999907 7.350235017734364e-24 2.2002184353243597e-16 2.2002183383018758e-16 9.70224836718192e-24
1.1361939428280308 7.440350713583176e-24 2.243961027613795e-16 2.2439609133415067e-16 1.1427228837082533e-23
1.1447477501889525 7.52999894232679e-24 2.2880954996546904e-16 2.288095365236897e-16 1.344177928200021e-23
1.1533659546722406 7.619203378232643e-24 2.3326314512434375e-16 2.3326312933285476e-16 1.5791488974584226e-23
1.1707974979042381 7.796561316306641e-24 2.4230050397351656e-16 2.4230048226036277e-16 2.171315380828166e-23
1.1884924949847024 7.971897012445064e-24 2.514939581851136e-16 2.514939284783613e-16 2.9706752315946267e-23
1.2064549276569216 8.14651325705874e-24 2.608869185993525e-16 2.608868781556853e-16 4.044366721872407e-23
1.2246888378427687 8.318774371378773e-24 2.7042979428821344e-16 2.7042973949531286e-16 5.479290058112144e-23
1.2431983285522175 8.488369394392265e-24 2.8011355248462424e-16 2.8011347860929906e-16 7.387532512839382e-23
1.2619875648066055 8.655345718226118e-24 2.8994052974215695e-16 2.899404306128529e-16 9.912930409609657e-23
1.3004222497298317 8.979313073291862e-24 3.0995378100848323e-16 3.0995360502202813e-16 1.7598645509709164e-22
1.3400274889804893 9.290265867384149e-24 3.304542054987892e-16 3.3045389876683465e-16 3.067319545900131e-22
1.3808389325824078 9.587988316235115e-24 3.514309063835446e-16 3.514303812819391e-16 5.251016054657379e-22
1.4228933163050095 9.874404487571256e-24 3.7295178130875584e-16 3.72950897931993e-16 8.833767627352276e-22
1.466228494730424 1.0155580937606399e-23 3.952536235916849e-16 3.9525216248052097e-16 1.4611111639481693e-21
1.5108834753276823 1.0428497288091334e-23 4.182366977664417e-16 4.182343206742013e-16 2.377092240480044e-21
1.5568984535646726 1.0690841975407393e-23 4.418161943452181e-16 4.418123864171607e-16 3.807928057402239e-21
1.6043148490894465 1.0943795151522598e-23 4.660440755522704e-16 4.660380580768897e-16 6.017475380859083e-21
1.6531753430134553 1.1188700980994532e-23 4.909847687106183e-16 4.909753992017408e-16 9.369508877405738e-21
1.7035239163302658 1.1427788237803752e-23 5.167492468277814e-16 5.167348688058151e-16 1.4378021966224985e-20
1.755405889504358 1.1670167298769504e-23 5.437810464338964e-16 5.437592904751938e-16 2.175595870248096e-20
1.8088679632656115 1.191453966336834e-23 5.720757880109227e-16 5.720433161208916e-16 3.247189003084495e-20
1.8639582606462262 1.2159976302371384e-23 6.016422748090734e-16 6.015944493360273e-16 4.782547304619305e-20
1.9207263702978936 1.2407871809776727e-23 6.32604431677421e-16 6.325348977760441e-16 6.953390137700583e-20
1.979223391128241 1.2660814754507947e-23 6.6515965977361e-16 6.650598238986306e-16 9.9835874979439e-20
2.039501978296691 1.292154685673616e-23 6.995327807524852e-16 6.9939117406698975e-16 1.416066854954103e-19
2.1016163906111602 1.319795429939142e-23 7.362571071932788e-16 7.360586043303438e-16 1.9850286293496322e-19
2.1656225393682647 1.3494251394917464e-23 7.757128621851771e-16 7.754377659683475e-16 2.7509621682972844e-19
2.231578038680979 1.380973272160793e-23 8.180253927116387e-16 8.176483661721233e-16 3.7702653951526254e-19
2.299542257339062 1.414614323421696e-23 8.634732322583316e-16 8.6296206738804e-16 5.111648702916882e-19
2.369576372248914 1.450806503824029e-23 9.125352246217182e-16 9.11849433674135e-16 6.857909475834672e-19
2.4417434235010123 1.4900914451713498e-23 9.657892812576863e-16 9.648785413837814e-16 9.107398739046683e-19
2.5161083711144245 1.5334861488090306e-23 1.0241855242683997e-15 1.0229879335730499e-15 1.1975906953499016e-18
2.5927381535095444 1.582713726835337e-23 1.0892572535354728e-15 1.0876974508604778e-15 1.559802674994946e-18
2.6717017477616296 1.6396996919660732e-23 1.1628447131251389e-15 1.1608319669365062e-15 2.012746188632543e-18
2.753070231689431 1.7073800225737077e-23 1.2477193754693427e-15 1.2451455932334635e-15 2.5737822358792422e-18
2.836916847834745 1.7927947750611885e-23 1.3500399411308056e-15 1.346777539846758e-15 3.262401284047728e-18
2.9233170693905177 1.9116088022825192e-23 1.4833525315123677e-15 1.4792530836946338e-15 4.099447817733555e-18
2.967498994190263 1.9991292295053788e-23 1.5747110773488551e-15 1.5701385446550272e-15 4.572532693828184e-18
3.0123486681368425 2.097924274881873e-23 1.677507535090791e-15 1.6724141021484117e-15 5.093432942379832e-18
3.0578761833420214 2.2960572170456015e-23 1.8636829659598865e-15 1.8580152037107767e-15 5.667762249109865e-18
3.1040917844459814 2.5441588422846953e-23 2.096274782905919e-15 2.0899801424939306e-15 6.2946404119882085e-18
3.127460860933648 2.796840240794553e-23 2.3218222889984724e-15 2.3151912567445874e-15 6.631032253884618e-18
3.1510058709225794 3.1292841577629475e-23 2.6173611202902758e-15 2.6103789005467065e-15 6.982219743569131e-18
3.162844764501044 3.436312537944783e-23 2.8849611330602025e-15 2.877796962610398e-15 7.164170449804418e-18
3.1747281389236908 3.790900339692728e-23 3.194613640109733e-15 3.1872636718214496e-15 7.349968288283223e-18
3.1986289994194426 4.772650469711959e-23 4.0522192271269484e-15 4.044484950966848e-15 7.734276160101128e-18
3.2227097969389145 7.076386936657732e-23 6.053439474551764e-15 6.045297401119461e-15 8.142073432304407e-18
3.2348180950136065 9.255358225120326e-23 7.947170480479637e-15 7.938810636779068e-15 8.35984370056903e-18
3.240889293275058 1.0884147161149152e-22 9.363280506116727e-15 9.354805791387228e-15 8.474714729499624e-18
3.2469718861334385 1.2769414073957852e-22 1.1005731957044978e-14 1.0997138381147098e-14 8.593575897880216e-18
3.2714166318528037 2.278731897311408e-22 1.9787846005533906e-14 1.9778760765124126e-14 9.08524040978098e-18
3.2744851364798273 2.341409524489593e-22 2.0351191322785566e-14 2.0342048007716415e-14 9.143315069149176e-18
3.2775565192852394 2.4058588589099975e-22 2.0930989903738624e-14 2.0921788211273647e-14 9.201692464980872e-18
3.283707930232385 2.3441294510156608e-22 2.0432219528765165e-14 2.0422913169279584e-14 9.306359485578565e-18
3.2898708863219004 2.1478896779472376e-22 1.875686523226117e-14 1.874746337139974e-14 9.401860861437084e-18
3.29141343181113 2.1015851275971198e-22 1.8361106791502194e-14 1.8351680943175723e-14 9.425848326471396e-18
3.292184975758714 2.0788287724360026e-22 1.8166546750380456e-14 1.8157108891476135e-14 9.437858904314994e-18
3.295272960557952 1.9355719429860915e-22 1.6930514107896254e-14 1.6921029483274722e-14 9.484624621529616e-18
3.3076538914384823 1.4383140905281495e-22 1.2628251639561795e-14 1.2618579053351936e-14 9.672586209857258e-18
3.310756385682612 1.3368401880912128e-22 1.174833038703496e-14 1.1738610397087567e-14 9.719989947394192e-18
3.313861789986515 1.2431095160924524e-22 1.0934859709837067e-14 1.0925092150360105e-14 9.767559476962498e-18
3.3200813396944477 1.1118080210623027e-22 9.798237445063318e-15 9.788367682833673e-15 9.869762229645919e-18
3.345076488085796 8.788783298548571e-23 7.803766068280374e-15 7.793441141493208e-15 1.0324926787166357e-17
3.3482140837626964 8.878291005599241e-23 7.890636331208739e-15 7.88024975654544e-15 1.0386574663300692e-17
3.3513546224236106 8.96874623036173e-23 7.978505594697053e-15 7.968057080359341e-15 1.0448514337712514e-17
3.3576445397418455 9.621638171816006e-23 8.575375996189386e-15 8.564798024379424e-15 1.057797180996255e-17
3.3702598118196083 1.20183758846185e-22 1.0751736135876943e-14 1.0740886592825477e-14 1.084954305146446e-17
3.382922481734668 1.2572267605178222e-22 1.1289510084050558e-14 1.1278396073545768e-14 1.1114010504787552e-17
3.389271646505754 1.285889390417159e-22 1.1568563228787547e-14 1.1557315069239682e-14 1.1248159547862672e-17
3.395632727569191 1.3169386291358792e-22 1.1870135610278369e-14 1.185874919839352e-14 1.1386411884848296e-17
3.421196662673239 1.4664250463777414e-22 1.3317028907569129e-14 1.3305069629032339e-14 1.1959278536787653e-17
3.4276182099114902 1.4373240153029447e-22 1.3077253919720504e-14 1.3065166244689634e-14 1.2087675030868612e-17
3.4340518103208963 1.3082505221739567e-22 1.1925241780366122e-14 1.1913032396718674e-14 1.2209383647447006e-17
3.4469541582030403 1.1240990643770157e-22 1.0285123882338435e-14 1.0272680348308465e-14 1.2443534029970393e-17
3.472904465399547 1.0729246916886484e-22 9.890802039695855e-15 9.877819905925277e-15 1.2982133770576692e-17
3.4990501388274233 9.946462574277917e-23 9.238218961347432e-15 9.224684412472205e-15 1.3534548875227107e-17
3.5253949054701885 7.152728819209931e-23 6.693433694714175e-15 6.67936047711929e-15 1.4073217594883992e-17
3.5519380250092896 4.516843988935886e-23 4.258629938725134e-15 4.244013683743931e-15 1.4616254981203016e-17
3.578680990867387 3.4767677880980927e-23 3.30269223057605e-15 3.2874805208425147e-15 1.5211709733534843e-17
3.605625307711299 3.062312155422444e-23 2.930889767335795e-15 2.9150499260073737e-15 1.5839841328420702e-17
3.660119384959845 2.772399500035795e-23 2.69352180866213e-15 2.6763578506415095e-15 1.7163958020620588e-17
3.715437065384467 2.5702504307360735e-23 2.53486469669138e-15 2.5162983374364097e-15 1.8566359254969493e-17
3.8285932144167436 2.4934422690021278e-23 2.5340079655177976e-15 2.5124045934199064e-15 2.1603372097890386e-17
3.94519561050918 2.504593349940704e-23 2.6228605283973917e-15 2.597910612960001e-15 2.4949915437391803e-17
4.06534921144712 2.5506682238461485e-23 2.7524615572323496e-15 2.7238506548268917e-15 2.8610902405458196e-17
4.189162171576248 2.6160916826308553e-23 2.9090391515214604e-15 2.8764371748616673e-15 3.260197665979363e-17
4.316745939156006 2.694886767670276e-23 3.0879228708539827e-15 3.0510042044121583e-15 3.691866644182517e-17
4.448215356677963 2.784924479522428e-23 3.2882790140159868e-15 3.2467657048150106e-15 4.151330920097578e-17
4.58368876423945 2.886277597297e-23 3.5117424110732746e-15 3.4653411897335384e-15 4.6401221339735715e-17
4.723288106065518 3.000658895337099e-23 3.7621014195725556e-15 3.7104790927913256e-15 5.162232678123057e-17
4.867139040275056 3.1314601689585345e-23 4.045666487879011e-15 3.988607483082203e-15 5.705900479680792e-17
4.940699165968905 3.2077116108292523e-23 4.206812543079598e-15 4.1469357196057986e-15 5.987682347379961e-17
5.015371051989984 3.285401574546445e-23 4.373820571997755e-15 4.31106608253992e-15 6.275448945783492e-17
5.091171501069577 3.378405660607279e-23 4.5656115273243914e-15 4.499860639247521e-15 6.575088807687075e-17
5.129500256944802 3.425592686769615e-23 4.664232725396567e-15 4.596962704767676e-15 6.727002062888916e-17
5.168117569889187 3.4744327955796916e-23 4.766347844757853e-15 4.697531722854783e-15 6.881612190307038e-17
5.20702561229733 3.5341106822873547e-23 4.884715718856331e-15 4.814221238800188e-15 7.049448005614286e-17
5.246226572918644 3.594861281405346e-23 5.006089530509439e-15 4.933897782167217e-15 7.21917483422228e-17
5.265937586045735 3.625650709674254e-23 5.067935778914824e-15 4.994888430033797e-15 7.304734888102692e-17
5.285722656980489 3.6567227852971104e-23 5.13057266322242e-15 5.056665137888486e-15 7.3907525333935e-17
5.305582063971359 3.688082581198566e-23 5.194013885807982e-15 5.119241660430794e-15 7.477222537718743e-17
5.3255160863122235 3.721726626927543e-23 5.26108845301891e-15 5.185440986922471e-15 7.564746609643957e-17
5.365609099470188 3.8056097530202743e-23 5.4201675814734166e-15 5.342709133789956e-15 7.745844768346082e-17
5.406003951863644 3.8920739146399e-23 5.585047502588035e-15 5.50575786095147e-15 7.928964163656623e-17
5.446702915881641 3.981250858166372e-23 5.756024902474845e-15 5.6748842532220926e-15 8.114064925275272e-17
5.487708281020852 4.0771686329091846e-23 5.939079301672567e-15 5.856061172011181e-15 8.30181296613864e-17
5.529022354014368 4.2113116131215185e-23 6.180664315199049e-15 6.095687397849388e-15 8.497691734966134e-17
5.570647458961463 4.3523783445986195e-23 6.435788281273405e-15 6.348830675868714e-15 8.695760540468891e-17
5.612585937458331 4.500876626139349e-23 6.705474965891765e-15 6.6165151610406824e-15 8.895980485108259e-17
5.654840148729818 4.6634024357339097e-23 6.999913301627257e-15 6.908921330373808e-15 9.099197125344861e-17
5.67608639626678 4.7749660152904895e-23 7.194302840399614e-15 7.102248374335876e-15 9.205446606373784e-17
5.686739436050992 4.832320420049507e-23 7.294381715082935e-15 7.201793706312688e-15 9.258800877024754e-17
5.6974124697621304 4.8907567560206114e-23 7.396447148698276e-15 7.303324074574035e-15 9.312307412424035e-17
5.718818669136295 5.0109796546555066e-23 7.606736961615397e-15 7.512539211810593e-15 9.419774980480299e-17
5.740305295436557 5.143471225606308e-23 7.837196545711354e-15 7.741910724307989e-15 9.528582140336422e-17
5.7835210386641895 5.488443429762542e-23 8.425796096382094e-15 8.328258440794407e-15 9.753765558768922e-17
5.827062130521658 5.883756325297264e-23 9.100678242032703e-15 9.000844045337036e-15 9.983419669566373e-17
5.8489554468988025 6.162931465099715e-23 9.568306630391954e-15 9.467235485258972e-15 1.010711451329822e-16
5.870931020387893 6.461297618399785e-23 1.0069227578542365e-14 9.966910893952226e-15 1.0231668459013848e-16
5.892989160043636 6.78038294282492e-23 1.0606187438395952e-14 1.050261665062257e-14 1.0357078777338171e-16
5.915130176081913 7.142980193924678e-23 1.1215359152808624e-14 1.1110489179682991e-14 1.048699731256287e-16
5.95966208400165 8.160106276588323e-23 1.290883006762403e-14 1.2801018367687805e-14 1.0781169993622059e-16
6.004529249263818 9.62485725096326e-23 1.534061232087777e-14 1.522949979180801e-14 1.1111252906975992e-16
6.027089341400364 1.0643856220306864e-22 1.7028486979803216e-14 1.6915476604121804e-14 1.1301037568140914e-16
6.049734195844842 1.1845036139665022e-22 1.9021384163826036e-14 1.8906365143486437e-14 1.1501902033960304e-16
6.095279466722835 1.5315852546951758e-22 2.4780167193597224e-14 2.4660243373914663e-14 1.1992381968255472e-16
6.141167624020661 2.0647324927470282e-22 3.365767999980238e-14 3.3531430381484934e-14 1.2624961831744484e-16
6.164241091010745 2.405298440344779e-22 3.9356640419704156e-14 3.922643999668438e-14 1.3020042301977727e-16
6.187401249150058 2.7919538517032643e-22 4.5854920966828695e-14 4.5720657951647536e-14 1.3426301518116327e-16
6.1990139391386085 2.9806205387700686e-22 4.904545136634845e-14 4.8909119990462335e-14 1.3633137588612426e-16
6.204828454712694 3.079890616244433e-22 5.072645404473221e-14 5.058907735721112e-14 1.373766875211002e-16
6.210648424152782 3.1522730545488753e-22 5.196730652979408e-14 5.1829034650679475e-14 1.382718791146072e-16
6.233982942956859 3.3975463325514405e-22 5.6221241371330784e-14 5.607982880996287e-14 1.4141256136789716e-16
6.239830258556775 3.428542199041299e-22 5.678736377684039e-14 5.664550070057475e-14 1.418630762656599e-16
6.245683058788269 3.4306672668427302e-22 5.687585963541907e-14 5.673354510050145e-14 1.4231453491759898e-16
6.257405133728602 3.4226384547823574e-22 5.684924911152753e-14 5.670613570943685e-14 1.4311340209067484e-16
6.269149208991335 3.3727982049207524e-22 5.612655643282076e-14 5.5983107759328024e-14 1.4344867349273595e-16
6.280915325867298 3.2497084070452435e-22 5.417972116672137e-14 5.4036511212435944e-14 1.4320995428544718e-16
6.304513850009849 2.9469217444393686e-22 4.931620389660656e-14 4.9173991605758244e-14 1.4221229084829973e-16
6.32820103803542 2.5728604927461266e-22 4.321812675838352e-14 4.307746567426942e-14 1.4066108411409737e-16
6.3519772230701035 2.2301164876592577e-22 3.760156437701207e-14 3.746227898255649e-14 1.3928539445557382e-16
6.375842739491607 1.9414332709440448e-22 3.2857120285894217e-14 3.2719031307195843e-14 1.3808897869836376e-16
6.399797922933955 1.7105853956205064e-22 2.905898588647601e-14 2.892143363193213e-14 1.3755225454389007e-16
6.42384311029221 1.5183272635780425e-22 2.5889862808436798e-14 2.575271612096635e-14 1.3714668747045016e-16
6.447978639727206 1.3783236748052885e-22 2.3590885299642e-14 2.3453627776757195e-14 1.372575228847983e-16
6.472204850670314 1.2614836986103728e-22 2.167221649397772e-14 2.153474478224712e-14 1.374717117306073e-16
6.496522083828205 1.1854621897370408e-22 2.0442690752443366e-14 2.0304584627552735e-14 1.3810612489062695e-16
