Dust emission spectrum from A.P. Jones, M. Kohler, N. Ysard, M. Bocchio, and L. Verstraete (2017), A&A, 602A, 46J 
inside the DustPedia framework.

lambda    nu*dP/dnu     j_nu    j_nu(carb.) j_nu(sil)
 (um)   (erg s-1 H-1) (Jy cm2 sr-1 H-1)
0.9927057738263894 3.036264251594482e-25 8.000728759318081e-18 8.00072875314057e-18 6.177510778559412e-27
1.0001793341362166 3.086198183753042e-25 8.193531378121375e-18 8.193531370679044e-18 7.442329368270662e-27
1.0077091589558085 3.136057147184307e-25 8.388583018942912e-18 8.388583009988265e-18 8.954647644234165e-27
1.0114953028030835 3.1609524163854914e-25 8.486942535040866e-18 8.48694252522318e-18 9.817688014495954e-27
1.0152956718711033 3.185821644747125e-25 8.585852562653596e-18 8.585852551893152e-18 1.076044583541506e-26
1.0229392996569957 3.235447830184001e-25 8.785241376178829e-18 8.785241363264908e-18 1.2913920725045284e-26
1.0267826658714554 3.260144405126055e-25 8.885559892065679e-18 8.885559877924777e-18 1.4140903163894628e-26
1.0306404723013447 3.2848040927337315e-25 8.98640730671127e-18 8.986407291231801e-18 1.5479468499306006e-26
1.03451277320114 3.309424532619358e-25 9.087779317464878e-18 9.087779300525604e-18 1.6939271042704162e-26
1.0383996230291617 3.3340033780840003e-25 9.189671569478553e-18 9.189671550947798e-18 1.85307544043152e-26
1.0403485208654093 3.346276473419443e-25 9.240811411057065e-18 9.240811391677693e-18 1.937937063967753e-26
1.0423010764483396 3.358538296569312e-25 9.292079656771226e-18 9.292079636506012e-18 2.026521196828831e-26
1.0462171883269815 3.383026970099469e-25 9.394999123294542e-18 9.394999101139692e-18 2.2154851664386334e-26
1.0471985131304309 3.389141642493501e-25 9.420808366056196e-18 9.420808343403161e-18 2.2653032055593548e-26
1.048180758391296 3.3952532447328333e-25 9.446649217824912e-18 9.446649194662966e-18 2.3161946828476198e-26
1.0501480137395462 3.4074670957130933e-25 9.498425463999948e-18 9.498425439787085e-18 2.4212865315198286e-26
1.0521189612883777 3.4196682375853165e-25 9.55032729120754e-18 9.550327265898119e-18 2.530942201106656e-26
1.0531058218030118 3.425754542787842e-25 9.576298811547819e-18 9.576298785672382e-18 2.587543765779765e-26
1.0540936079674168 3.431806731511008e-25 9.60221519267892e-18 9.602215166225219e-18 2.645369940366741e-26
1.058054026499678 3.455980673075932e-25 9.706185395734336e-18 9.706185366841272e-18 2.889306547981399e-26
1.0590464539527713 3.462015280081267e-25 9.732253749929347e-18 9.732253720393561e-18 2.9535785114108183e-26
1.06003981227728 3.4680462659425875e-25 9.75835227841775e-18 9.758352248225559e-18 3.019219291935819e-26
1.0620293250338977 3.4800972351895334e-25 9.810639562764378e-18 9.81063953121719e-18 3.154718840780329e-26
1.0660195594769086 3.5041541942725877e-25 9.915572963036042e-18 9.915572928602032e-18 3.443400977502456e-26
1.070024785945596 3.5281493442004358e-25 1.0020980823448551e-17 1.0020980785875669e-17 3.757288351216573e-26
1.0740450607676866 3.5520804966683484e-25 1.0126858329607216e-17 1.0126858288622535e-17 4.098467973553067e-26
1.07808044048254 3.575945481546933e-25 1.0233200626895864e-17 1.023320058220397e-17 4.469189563862291e-26
1.0861967418109137 3.623426004547568e-25 1.044713785882243e-17 1.0447137805730994e-17 5.309143604931223e-26
1.0902777775684922 3.6469409831540482e-25 1.0554443239514192e-17 1.0554443181676175e-17 5.783801454870423e-26
1.0943741465085532 3.670379627261919e-25 1.066218572919472e-17 1.0662185666205952e-17 6.298876588449513e-26
1.1026131145906286 3.7170196844764554e-25 1.0878961699776132e-17 1.0878961625140581e-17 7.463555323213079e-26
1.1109141095355224 3.7633299272719353e-25 1.1097424777493863e-17 1.1097424689170816e-17 8.832305022949338e-26
1.1192775983109025 3.8092512581821807e-25 1.1317405176245768e-17 1.1317405071857953e-17 1.0438781525117057e-25
1.1277040513999907 3.854569760006812e-25 1.1538264321818828e-17 1.1538264198600588e-17 1.2321823956361857e-25
1.1361939428280308 3.899505623093728e-25 1.1760653471896793e-17 1.1760653326634927e-17 1.45261867355565e-25
1.1447477501889525 3.944044103306293e-25 1.1984529655758757e-17 1.1984529484724978e-17 1.710337780553837e-25
1.1533659546722406 3.988195195066826e-25 1.2209924166466814e-17 1.2209923965340546e-17 2.0112626630177967e-25
1.1707974979042381 4.075479699439417e-25 1.2665722041365242e-17 1.2665721764270955e-17 2.770942927488849e-25
1.1884924949847024 4.161029599655458e-25 1.3127036168544347e-17 1.3127035788668911e-17 3.7987544165879645e-25
1.2064549276569216 4.2455192118482895e-25 1.3596005924052787e-17 1.359600540580279e-17 5.182500001259976e-25
1.2246888378427687 4.328024751630477e-25 1.406970295149064e-17 1.4069702247874145e-17 7.0361649261207155e-25
1.2431983285522175 4.408355344356808e-25 1.4547435658704322e-17 1.4547434707982243e-17 9.507220818278882e-25
1.2619875648066055 4.486483862450178e-25 1.5029018482984862e-17 1.5029017204436134e-17 1.2785487271505616e-24
1.3004222497298317 4.63484477123937e-25 1.5998859261361974e-17 1.599885698117534e-17 2.2801866314523298e-24
1.3400274889804893 4.772551864520327e-25 1.6975938655627474e-17 1.6975934662669878e-17 3.992957595988988e-24
1.3808389325824078 4.899122719885144e-25 1.7956875635925972e-17 1.7956868766983966e-17 6.868942005579308e-24
1.4228933163050095 5.015205822248041e-25 1.8942205045293903e-17 1.8942193431654854e-17 1.1613639041478623e-23
1.466228494730424 5.123627017057469e-25 1.994107630933351e-17 1.994105700094365e-17 1.930838986540004e-23
1.5108834753276823 5.222322739476988e-25 2.0944216188497547e-17 2.0944184608357258e-17 3.1580140294802823e-23
1.5568984535646726 5.309636296717854e-25 2.194292374136159e-17 2.19428728759559e-17 5.086540568580382e-23
1.6043148490894465 5.385774610643506e-25 2.2935447116816938e-17 2.2935366288513424e-17 8.082830351827416e-23
1.6531753430134553 5.451021102613539e-25 2.392027760728943e-17 2.392015103322987e-17 1.2657405955197693e-22
1.7035239163302658 5.506193684772656e-25 2.4898268853824892e-17 2.4898073477187672e-17 1.9537663721858724e-22
1.755405889504358 5.555734105432472e-25 2.5887400139320204e-17 2.5887102721934218e-17 2.9741738598496227e-22
1.8088679632656115 5.5986432434215825e-25 2.6881846347112314e-17 2.68813996820245e-17 4.466650878069851e-22
1.8639582606462262 5.634279844793672e-25 2.7876871290213854e-17 2.7876209234942924e-17 6.620552709308739e-22
1.9207263702978936 5.663275505277058e-25 2.8873712086754055e-17 2.887274320742724e-17 9.688793268251373e-22
1.979223391128241 5.686980107808217e-25 2.9877617096499535e-17 2.987621661074631e-17 1.4004857532272571e-21
2.039501978296691 5.706999375775154e-25 3.089593829091362e-17 3.089393806225547e-17 2.0002286581463884e-21
2.1016163906111602 5.727619991308229e-25 3.195192853560222e-17 3.194910459561617e-17 2.823939986052539e-21
2.1656225393682647 5.751410148298413e-25 3.306180311282636e-17 3.305786072219438e-17 3.942390631974913e-21
2.231578038680979 5.778725165331094e-25 3.4230524355812396e-17 3.4225080186967654e-17 5.444168844747447e-21
2.299542257339062 5.811212433991744e-25 3.5471338729141703e-17 3.546389983012826e-17 7.43889901344024e-21
2.369576372248914 5.8522828184331925e-25 3.680996881522462e-17 3.6799907925828133e-17 1.0060889396493898e-20
2.4417434235010123 5.905951392630793e-25 3.8278889319949193e-17 3.826541673749194e-17 1.3472582457254808e-20
2.5161083711144245 5.978943006028425e-25 3.9932195552962167e-17 3.991432664281518e-17 1.7868910146984547e-20
2.5927381535095444 6.082107046487639e-25 4.1858354450571616e-17 4.183487322373351e-17 2.348122683811528e-20
2.6717017477616296 6.228350575689862e-25 4.4170311026567694e-17 4.4139731074579484e-17 3.057995198822532e-20
2.753070231689431 6.436948109498129e-25 4.7039937031738645e-17 4.7000458665861855e-17 3.947836587678588e-20
2.836916847834745 6.751107497036159e-25 5.0838305056725546e-17 5.078776740204132e-17 5.0537654684215796e-20
2.9233170693905177 7.26544212282102e-25 5.637770632032468e-17 5.631354649842006e-17 6.41598219046235e-20
2.967498994190263 7.690608162769972e-25 6.05788044450721e-17 6.05068432538552e-17 7.196119121690935e-20
3.0123486681368425 8.185081084069923e-25 6.544819256943636e-17 6.536758786298863e-17 8.06047064477357e-20
3.0578761833420214 9.265080095006163e-25 7.5203578652692e-17 7.511338700576594e-17 9.019164692608117e-20
3.1040917844459814 1.065134600906383e-24 8.77623978177207e-17 8.766166313292698e-17 1.0073468479371591e-19
3.127460860933648 1.2104077615084927e-24 1.0048309797805164e-16 1.0037667423847082e-16 1.0642373958084617e-19
3.1510058709225794 1.4035515435066483e-24 1.1739430026462917e-16 1.1728191392254353e-16 1.1238634208561661e-19
3.162844764501044 1.5827754696189185e-24 1.3288214217391023e-16 1.3276665755109942e-16 1.1548462281083171e-19
3.1747281389236908 1.7910644063113453e-24 1.5093403334314625e-16 1.50815378570814e-16 1.1865477233221011e-19
3.1986289994194426 2.3714571771317412e-24 2.013485888075396e-16 2.0122335721452845e-16 1.252315930111425e-19
3.2227097969389145 3.737635101491743e-24 3.1973305116532733e-16 3.1960081561179206e-16 1.3223555353532774e-19
3.2348180950136065 5.032508275732531e-24 4.3211943005211014e-16 4.319834474819877e-16 1.3598257012241653e-19
3.240889293275058 6.000425223280454e-24 5.161972149926452e-16 5.160592555738739e-16 1.379594187711466e-19
3.2469718861334385 7.120146785816118e-24 6.136728479916795e-16 6.135328427698608e-16 1.400052218188158e-19
3.2714166318528037 1.3091440065807712e-23 1.1368226350740292e-15 1.1366741467708218e-15 1.4848830320725739e-19
3.2744851364798273 1.3464838733452215e-23 1.1703442150073035e-15 1.1701947192121342e-15 1.4949579516946025e-19
3.2775565192852394 1.3848950172818203e-23 1.2048596914615645e-15 1.2047091823806135e-15 1.5050908095078182e-19
3.283707930232385 1.3480202513641383e-23 1.1749797219244633e-15 1.1748273852768423e-15 1.523366476211215e-19
3.2898708863219004 1.2309802312104461e-23 1.0749774784736045e-15 1.074823464288452e-15 1.5401418515256174e-19
3.29141343181113 1.2033789603961869e-23 1.0513668617242434e-15 1.0512124258975667e-15 1.544358266766868e-19
3.292184975758714 1.1898166270336002e-23 1.039761411136198e-15 1.0396067641493235e-15 1.546469868744774e-19
3.295272960557952 1.1042105077682536e-23 9.658567147349911e-16 9.657012436816364e-16 1.5547105335483664e-19
3.3076538914384823 8.07625179294469e-24 7.090867051738143e-16 7.089279164945687e-16 1.5878867924574695e-19
3.310756385682612 7.47257559723622e-24 6.566999387097741e-16 6.565403121598442e-16 1.5962654992977e-19
3.313861789986515 6.915570969851389e-24 6.083196805254184e-16 6.081592127023417e-16 1.60467823076571e-19
3.3200813396944477 6.134596529646241e-24 5.40635004321191e-16 5.404727334368094e-16 1.6227088438166425e-19
3.345076488085796 4.742744839061225e-24 4.211193971717347e-16 4.2094910577171154e-16 1.7029140002332231e-19
3.3482140837626964 4.79527733615053e-24 4.261832546712899e-16 4.260118771688408e-16 1.713775024491526e-19
3.3513546224236106 4.848388424055875e-24 4.31307712059482e-16 4.3113524269319574e-16 1.7246936628628666e-19
3.3576445397418455 5.235164451681467e-24 4.665889817656689e-16 4.664142319312082e-16 1.747498344607839e-19
3.3702598118196083 6.660708937193613e-24 5.958724012138543e-16 5.956928656504274e-16 1.795355634268772e-19
3.382922481734668 6.986320911506801e-24 6.273501555788054e-16 6.271659397125445e-16 1.8421586626105588e-19
3.389271646505754 7.15499315966714e-24 6.437022607543175e-16 6.435156667167455e-16 1.8659403757210476e-19
3.395632727569191 7.336769617385566e-24 6.612946751883245e-16 6.611056298708707e-16 1.8904531745367449e-19
3.421196662673239 8.209417315657802e-24 7.455208704799504e-16 7.453216440071837e-16 1.9922647276660093e-19
3.4276182099114902 8.034725911246624e-24 7.310261972808113e-16 7.308246674070481e-16 2.015298737632948e-19
3.4340518103208963 7.267147030089262e-24 6.624303519732179e-16 6.622266283110263e-16 2.0372366219169261e-19
3.4469541582030403 6.1741236617054035e-24 5.649113030861754e-16 5.647033375041656e-16 2.079655820098525e-19
3.472904465399547 5.869655269730321e-24 5.410966749473158e-16 5.40878977952107e-16 2.176969952086684e-19
3.4990501388274233 5.402971461599446e-24 5.018249757782921e-16 5.015972447012755e-16 2.2773107701645097e-19
3.5253949054701885 3.7366245991709006e-24 3.496686317733345e-16 3.494310345784195e-16 2.3759719491499545e-19
3.5519380250092896 2.1702497944639092e-24 2.0461833022914402e-16 2.0437071877892861e-16 2.4761145021546374e-19
3.578680990867387 1.5506838687125383e-24 1.473043895197299e-16 1.470457806139496e-16 2.586089057803214e-19
3.605625307711299 1.3016599316020219e-24 1.2457978091254045e-16 1.2430952496416427e-16 2.702559483761784e-19
3.660119384959845 1.1235087271724781e-24 1.0915437182924859e-16 1.0885936477655952e-16 2.9500705268906345e-19
3.715437065384467 9.992075673583178e-25 9.854510505570111e-17 9.822358673449328e-17 3.2151832120785545e-19
3.8285932144167436 9.458237549515076e-25 9.612113177106919e-17 9.574113667983013e-17 3.799950912390894e-19
3.94519561050918 9.475576072601261e-25 9.923013835855238e-17 9.878403829738657e-17 4.46100061165814e-19
4.06534921144712 9.733135718361418e-25 1.0503162130478164e-16 1.0451118808694865e-16 5.204332178329924e-19
4.189162171576248 1.0142397326931648e-24 1.1278133373620776e-16 1.1217747222875988e-16 6.0386150744790085e-19
4.316745939156006 1.0673092149523808e-24 1.2229710630750738e-16 1.2160014415830863e-16 6.969621491987531e-19
4.448215356677963 1.1318334726096968e-24 1.3364040147981083e-16 1.3284087497006075e-16 7.995265097500323e-19
4.58368876423945 1.2084990304714808e-24 1.4703843119671097e-16 1.4612577747216286e-16 9.126537245481444e-19
4.723288106065518 1.299033434965501e-24 1.628674134654316e-16 1.6182933586139566e-16 1.0380776040359618e-18
4.867139040275056 1.4063298591875522e-24 1.8168973179406346e-16 1.805152817560104e-16 1.174450038053018e-18
4.940699165968905 1.4692953836657076e-24 1.9269345251071165e-16 1.9144598288035468e-16 1.2474696303569652e-18
5.015371051989984 1.5353273831779968e-24 2.0439652020993663e-16 2.0307276326508563e-16 1.3237569448510202e-18
5.091171501069577 1.6126085485182218e-24 2.1792954777530203e-16 2.1652478337307293e-16 1.4047644022291046e-18
5.129500256944802 1.6526172419461545e-24 2.250177451689042e-16 2.235711600614709e-16 1.446585107433303e-18
5.168117569889187 1.6942502758269216e-24 2.3242315007335486e-16 2.309335817364988e-16 1.4895683368560811e-18
5.20702561229733 1.7428368768452638e-24 2.4088840030948226e-16 2.393525682885696e-16 1.535832020912658e-18
5.246226572918644 1.792805951271143e-24 2.496604569783258e-16 2.4807728306650673e-16 1.583173911819178e-18
5.265937586045735 1.8183227366626296e-24 2.5416521316182686e-16 2.5255795863340806e-16 1.6072545284187884e-18
5.285722656980489 1.8442019234714833e-24 2.587511421994823e-16 2.571195310556142e-16 1.6316111438681034e-18
5.305582063971359 1.870449315700427e-24 2.634197988942752e-16 2.617635529499395e-16 1.656245944335751e-18
5.3255160863122235 1.898224751642716e-24 2.68335891460859e-16 2.6665460436662783e-16 1.6812870942312457e-18
5.365609099470188 1.9640740845775663e-24 2.7973469093594403e-16 2.7800148156223234e-16 1.7332093737115756e-18
5.406003951863644 2.0323809150254453e-24 2.916425587673007e-16 2.898562004906867e-16 1.786358276614073e-18
5.446702915881641 2.1032538804484284e-24 3.040848754168631e-16 3.0224412047627073e-16 1.8407549405923084e-18
5.487708281020852 2.1790733140323173e-24 3.1741854167464467e-16 3.1552196541191337e-16 1.896576262731118e-18
5.529022354014368 2.27835471430148e-24 3.3437909548590675e-16 3.3242402608941967e-16 1.9550693964870783e-18
5.570647458961463 2.3830159072813653e-24 3.523725337252102e-16 3.5035756204411574e-16 2.0149716810945426e-18
5.612585937458331 2.4934151302331866e-24 3.7147280683620193e-16 3.693964973674156e-16 2.076309468786293e-18
5.654840148729818 2.613500383221482e-24 3.922946035310567e-16 3.9015529048355785e-16 2.1393130474989383e-18
5.67608639626678 2.692009897173658e-24 4.0559732545954265e-16 4.0342506255217435e-16 2.1722629073683725e-18
5.686739436050992 2.7323738186224767e-24 4.124514909780534e-16 4.1026260110975864e-16 2.1888898682947733e-18
5.6974124697621304 2.7734996376690223e-24 4.1944518016970644e-16 4.1723956130968673e-16 2.2056188600197304e-18
5.718818669136295 2.8581068738408867e-24 4.338646072389042e-16 4.316252222549732e-16 2.2393849839308535e-18
5.740305295436557 2.9504769103356536e-24 4.495692973796683e-16 4.472955479770303e-16 2.273749402638144e-18
5.7835210386641895 3.184422226718491e-24 4.888688880642777e-16 4.865236914842814e-16 2.3451965799962137e-18
5.827062130521658 3.451126166935527e-24 5.338016580139911e-16 5.313827502270549e-16 2.418907786936114e-18
5.8489554468988025 3.634198513613498e-24 5.642302844171899e-16 5.617718689001816e-16 2.4584155170083185e-18
5.870931020387893 3.8298317678565876e-24 5.968375075041024e-16 5.943390461456217e-16 2.4984613584807535e-18
5.892989160043636 4.039016727689385e-24 6.318016082855992e-16 6.292625565968379e-16 2.5390516887612736e-18
5.915130176081913 4.275445450543938e-24 6.712976231808037e-16 6.68716535910646e-16 2.581087270157537e-18
5.95966208400165 4.92793813746707e-24 7.795721507063821e-16 7.768974288219921e-16 2.6747218843901854e-18
6.004529249263818 5.858117800288469e-24 9.336981501233667e-16 9.309190192521103e-16 2.779130871256557e-18
6.027089341400364 6.500278898358915e-24 1.0399418433952046e-15 1.0371034788704683e-15 2.838364524736678e-18
6.049734195844842 7.256408832130064e-24 1.1652724265105504e-15 1.162371467244415e-15 2.9009592661353483e-18
6.095279466722835 9.430143296784922e-24 1.5257428656847367e-15 1.5226920197724832e-15 3.0508459122534156e-18
6.141167624020661 1.2760669376031802e-23 2.0801461106970545e-15 2.0769056059597334e-15 3.240504737321567e-18
6.164241091010745 1.4886149264513012e-23 2.435742750298807e-15 2.4323856436389263e-15 3.357106659880863e-18
6.187401249150058 1.7302387242166457e-23 2.8417360804262036e-15 2.8382584485019184e-15 3.477631924285878e-18
6.1990139391386085 1.848308764391061e-23 3.0413511694898245e-15 3.0378120300701352e-15 3.539139419690399e-18
6.204828454712694 1.9104556321702698e-23 3.1465610927428404e-15 3.142990803195294e-15 3.570289547546826e-18
6.210648424152782 1.9559792065847362e-23 3.224561109888978e-15 3.2209636584775836e-15 3.597451411395332e-18
6.233982942956859 2.1109208735049273e-23 3.4930676532077595e-15 3.4893728059794868e-15 3.6948472282739566e-18
6.239830258556775 2.1309410438583227e-23 3.5295037138064085e-15 3.525793357374774e-15 3.710356431634714e-18
6.245683058788269 2.1330884408404328e-23 3.536374393510573e-15 3.5326484703645853e-15 3.725923145986851e-18
6.257405133728602 2.1297843513962448e-23 3.5375235434867854e-15 3.533769186707283e-15 3.754356779501881e-18
6.269149208991335 2.1005784059362984e-23 3.495561408635133e-15 3.4917909349426673e-15 3.770473692465581e-18
6.280915325867298 2.025946324305239e-23 3.377694032844151e-15 3.3739227685886786e-15 3.7712642554706104e-18
6.304513850009849 1.8413897787045745e-23 3.081532583994628e-15 3.077773675480658e-15 3.758908513970528e-18
6.32820103803542 1.6122736104405187e-23 2.708248094355207e-15 2.7045163646877143e-15 3.7317296674920284e-18
6.3519772230701035 1.402267787517979e-23 2.3643366962194246e-15 2.3606274042208716e-15 3.7092919985526814e-18
6.375842739491607 1.2255939403838715e-23 2.0742143509920595e-15 2.0705227132822683e-15 3.691637709790945e-18
6.399797922933955 1.0846133808520484e-23 1.8425133879404942e-15 1.838821277112932e-15 3.6921108275624046e-18
6.42384311029221 9.675042496711142e-24 1.649746592281831e-15 1.6460503520720662e-15 3.6962402097649465e-18
6.447978639727206 8.827872223035261e-24 1.5109464116470344e-15 1.5072316398279865e-15 3.714771819048128e-18
6.472204850670314 8.124274990327686e-24 1.3957457130912351e-15 1.3920093616290548e-15 3.7363514621802296e-18
6.496522083828205 7.674622768493918e-24 1.323449547832337e-15 1.3196796986985547e-15 3.769849133782197e-18
6.520930681187647 7.298597094480174e-24 1.2633346460943186e-15 1.2595291650873077e-15 3.805481007011217e-18
