Dust emission spectrum from A.P. Jones, M. Kohler, N. Ysard, M. Bocchio, and L. Verstraete (2017), A&A, 602A, 46J 
inside the DustPedia framework.

lambda    nu*dP/dnu     j_nu    j_nu(carb.) j_nu(sil)
 (um)   (erg s-1 H-1) (Jy cm2 sr-1 H-1)
0.9927057738263894 1.35610696791299e-22 3.573418885788794e-15 3.573418885788247e-15 5.463514795191488e-28
1.0001793341362166 1.378515332538087e-22 3.659813129251733e-15 3.6598131292510744e-15 6.583411139122424e-28
1.0077091589558085 1.4008918588935663e-22 3.747220508861251e-15 3.747220508860457e-15 7.922817169178932e-28
1.0114953028030835 1.4120654270565865e-22 3.791299759219684e-15 3.7912997592188154e-15 8.687341261229216e-28
1.0152956718711033 1.423227737561722e-22 3.835627000002356e-15 3.835627000001404e-15 9.522604242291604e-28
1.0229392996569957 1.4455032748807577e-22 3.924988393078875e-15 3.9249883930777316e-15 1.1430965825302801e-27
1.0267826658714554 1.4565894911811295e-22 3.969950883676567e-15 3.969950883675315e-15 1.2518529822810526e-27
1.0306404723013447 1.4676595484466945e-22 4.0151516247501964e-15 4.015151624748826e-15 1.3705180824867565e-27
1.03451277320114 1.478712378424403e-22 4.0605886723419105e-15 4.06058867234041e-15 1.4999512208184583e-27
1.0383996230291617 1.4897469187796285e-22 4.106260058169173e-15 4.106260058167532e-15 1.641082197149204e-27
1.0403485208654093 1.4952570000377825e-22 4.129183006296126e-15 4.1291830062944095e-15 1.7163455296332034e-27
1.0423010764483396 1.500762113299886e-22 4.152163790090362e-15 4.152163790088566e-15 1.794916691903548e-27
1.0462171883269815 1.511756912094071e-22 4.198297852570966e-15 4.198297852569003e-15 1.9625420711205964e-27
1.0471985131304309 1.5145023025439968e-22 4.20986711895598e-15 4.209867118953974e-15 2.0067389438055822e-27
1.048180758391296 1.5172463367794318e-22 4.2214506216348415e-15 4.22145062163279e-15 2.05189000129817e-27
1.0501480137395462 1.5227302717871783e-22 4.244660207150161e-15 4.244660207148016e-15 2.1451336034862545e-27
1.0521189612883777 1.5282085877447842e-22 4.267926350803679e-15 4.267926350801436e-15 2.242434612930955e-27
1.0531058218030118 1.5309413930264888e-22 4.279568795567636e-15 4.2795687955653455e-15 2.2926621248197026e-27
1.0540936079674168 1.5336589675137415e-22 4.291186710204015e-15 4.291186710201671e-15 2.3439784040862055e-27
1.058054026499678 1.5445138444233792e-22 4.337795589264373e-15 4.3377955892618136e-15 2.5604765026361677e-27
1.0590464539527713 1.547223629003408e-22 4.349481948269807e-15 4.349481948267191e-15 2.6175250214531638e-27
1.06003981227728 1.5499318080705764e-22 4.361181896334032e-15 4.361181896331355e-15 2.6757910103291663e-27
1.0620293250338977 1.5553432865921253e-22 4.384622425726461e-15 4.384622425723665e-15 2.7960748561265136e-27
1.0660195594769086 1.5661462853213824e-22 4.431665075776061e-15 4.431665075773007e-15 3.0523733583124786e-27
1.070024785945596 1.5769218395290787e-22 4.478921375585732e-15 4.4789213755824e-15 3.3310982513593936e-27
1.0740450607676866 1.5876689559143094e-22 4.526389141783237e-15 4.526389141779603e-15 3.634111452650063e-27
1.07808044048254 1.5983866491174723e-22 4.574066171919132e-15 4.574066171915168e-15 3.9634205179239014e-27
1.0861967418109137 1.6197109286487519e-22 4.669984523431067e-15 4.6699845234263576e-15 4.709749866477796e-27
1.0902777775684922 1.630272523247906e-22 4.7180963144291145e-15 4.718096314423982e-15 5.131614544619148e-27
1.0943741465085532 1.640800082575397e-22 4.766404841329101e-15 4.766404841323514e-15 5.5894858759280925e-27
1.1026131145906286 1.6617493525965252e-22 4.863602858232291e-15 4.863602858225667e-15 6.625111238950737e-27
1.1109141095355224 1.6825513434485578e-22 4.9615599293806986e-15 4.961559929372856e-15 7.842657911035768e-27
1.1192775983109025 1.7031794976254682e-22 5.060199802021114e-15 5.06019980201184e-15 9.272222521703083e-27
1.1277040513999907 1.723538019170041e-22 5.159236561294675e-15 5.159236561283727e-15 1.0948554859735653e-26
1.1361939428280308 1.7437252196525289e-22 5.2589610172867796e-15 5.2589610172738675e-15 1.2911717317660408e-26
1.1447477501889525 1.7637343653226095e-22 5.359353560060363e-15 5.359353560045154e-15 1.5207842216844894e-26
1.1533659546722406 1.783569780334173e-22 5.4604277620161035e-15 5.460427761998214e-15 1.7890005700212466e-26
1.1707974979042381 1.8227834469360711e-22 5.664822348070956e-15 5.664822348046292e-15 2.466544372950212e-26
1.1884924949847024 1.8612177011778696e-22 5.871689084576544e-15 5.871689084542703e-15 3.3840126974061224e-26
1.2064549276569216 1.8991729673691753e-22 6.081980937241117e-15 6.0819809371949125e-15 4.620285666741213e-26
1.2246888378427687 1.9362348001443968e-22 6.294383707511757e-15 6.29438370744898e-15 6.277882107499589e-26
1.2431983285522175 1.9723164716901967e-22 6.508583072198352e-15 6.508583072113458e-15 8.489594932203066e-26
1.2619875648066055 2.0074044457488178e-22 6.724490590613374e-15 6.72449059049911e-15 1.1426551406507253e-25
1.3004222497298317 2.0740160371411394e-22 7.159223732784441e-15 7.159223732580305e-15 2.0413683671649293e-25
1.3400274889804893 2.135808558728532e-22 7.597058366757799e-15 7.597058366399675e-15 3.5812100964666336e-25
1.3808389325824078 2.192552498997962e-22 8.03641688540273e-15 8.036416884785509e-15 6.172192353005346e-25
1.4228933163050095 2.2445233702710985e-22 8.477463022558784e-15 8.477463021513191e-15 1.0455929537807966e-24
1.466228494730424 2.2929707125184027e-22 8.924206192443741e-15 8.92420619070187e-15 1.7418694442466486e-24
1.5108834753276823 2.336952778798797e-22 9.37238977045183e-15 9.372389767596938e-15 2.8548935784734418e-24
1.5568984535646726 2.375707411799068e-22 9.817991978305285e-15 9.817991973697044e-15 4.608237160330284e-24
1.6043148490894465 2.4093048182262072e-22 1.0260080906006759e-14 1.0260080898667727e-14 7.339032659239512e-24
1.6531753430134553 2.437846534211715e-22 1.0697805927471734e-14 1.06978059159527e-14 1.1519035841687262e-23
1.7035239163302658 2.4616708456563295e-22 1.1131345182112752e-14 1.113134516428996e-14 1.782279263316798e-23
1.755405889504358 2.4827348611680916e-22 1.1568507342360458e-14 1.1568507315162319e-14 2.7198141509366787e-23
1.8088679632656115 2.5005548131180276e-22 1.2006396433234791e-14 1.2006396392283682e-14 4.095110953400705e-23
1.8639582606462262 2.5148028760277296e-22 1.2442554865297416e-14 1.2442554804437244e-14 6.086016662292287e-23
1.9207263702978936 2.5257160789997832e-22 1.2877141295699228e-14 1.2877141206386665e-14 8.931256417220383e-23
1.979223391128241 2.533846707550916e-22 1.3312039126968112e-14 1.331203899749509e-14 1.2947302231980438e-22
2.039501978296691 2.53985586682139e-22 1.3749998022116519e-14 1.3749997836636193e-14 1.8548032524690108e-22
2.1016163906111602 2.5455959489234267e-22 1.4200784961982435e-14 1.4200784699283436e-14 2.6269899863083596e-22
2.1656225393682647 2.5521411271553057e-22 1.4670904228090788e-14 1.4670903860111665e-14 3.6797911855788097e-22
2.231578038680979 2.559568466544725e-22 1.516171270093767e-14 1.5161712190971177e-14 5.09966493910942e-22
2.299542257339062 2.568521637093887e-22 1.5678122604770065e-14 1.567812190530952e-14 6.994605480655019e-22
2.369576372248914 2.5804238755546866e-22 1.623047370336403e-14 1.6230472753530325e-14 9.498337030847894e-22
2.4417434235010123 2.5969563803622523e-22 1.6831937691979747e-14 1.683193641451955e-14 1.2774601973210547e-21
2.5161083711144245 2.6209983380397906e-22 1.7505137291502085e-14 1.7505135589234016e-14 1.70226806723284e-21
2.5927381535095444 2.6572613374655905e-22 1.828783776432679e-14 1.828783551602433e-14 2.2483024621821862e-21
2.6717017477616296 2.711372362642954e-22 1.922855162235532e-14 1.9228548678128696e-14 2.9442266218837772e-21
2.753070231689431 2.7918036645919275e-22 2.040194613245385e-14 2.040194230843708e-14 3.824016773059161e-21
2.836916847834745 2.917740941698883e-22 2.1971654893023994e-14 2.1971649965127425e-14 4.927896559794729e-21
2.9233170693905177 3.131426308925033e-22 2.4298952468947062e-14 2.429894616664881e-14 6.302298250231075e-21
2.967498994190263 3.3128647735593038e-22 2.609538582942622e-14 2.6095378731880248e-14 7.097545965689252e-21
3.0123486681368425 3.5247741745790153e-22 2.8184216695250616e-14 2.8184208711272048e-14 7.98397857371242e-21
3.0578761833420214 3.9987565337262556e-22 3.2457442182192855e-14 3.245743320873413e-14 8.973458725541728e-21
3.1040917844459814 4.609519104601675e-22 3.798040633194977e-14 3.79803962622438e-14 1.006970597422409e-20
3.127460860933648 5.255502403232865e-22 4.3629029794867895e-14 4.362901912999061e-14 1.0664877288560937e-20
3.1510058709225794 6.116148505351718e-22 5.1156010438096275e-14 5.115599914665934e-14 1.129143692698113e-20
3.162844764501044 6.917216306820979e-22 5.8073588981764e-14 5.807357736313443e-14 1.1618629563299585e-20
3.1747281389236908 7.848778486631106e-22 6.614211022393673e-14 6.614209826973266e-14 1.1954204090148325e-20
3.1986289994194426 1.0447103679038896e-21 8.870114135667063e-14 8.870112870312624e-14 1.2653544376830995e-20
3.2227097969389145 1.6571741600349553e-21 1.4176165840502798e-13 1.4176164499810216e-13 1.3406925827476615e-20
3.2348180950136065 2.2379721796955703e-21 1.9216486288276628e-13 1.9216484906749584e-13 1.3815270475878218e-20
3.240889293275058 2.672191640361687e-21 2.298800220573734e-13 2.298800080241119e-13 1.4033261517792768e-20
3.2469718861334385 3.1745160976938075e-21 2.7360592320203095e-13 2.7360590894137605e-13 1.4260654847644564e-20
3.2714166318528037 5.853994045743203e-21 5.083438417268475e-13 5.083438265130456e-13 1.5213801838921207e-20
3.2744851364798273 6.0214994306668665e-21 5.233799798019504e-13 5.233799644759312e-13 1.5326019176694692e-20
3.2775565192852394 6.193815979152116e-21 5.388624492460212e-13 5.388624338069932e-13 1.5439028045473452e-20
3.283707930232385 6.028115653286552e-21 5.254308046826103e-13 5.254307890458701e-13 1.5636740228606325e-20
3.2898708863219004 5.502607395332186e-21 4.805259152738704e-13 4.805258994610763e-13 1.581279406018538e-20
3.29141343181113 5.378679510401181e-21 4.699239045370382e-13 4.699238886799821e-13 1.5857056098523273e-20
3.292184975758714 5.3177857494493994e-21 4.647126531382156e-13 4.64712637258991e-13 1.5879224515545796e-20
3.295272960557952 4.933415999458786e-21 4.3152758791336877e-13 4.3152757194898076e-13 1.596438813845467e-20
3.3076538914384823 3.601841729538954e-21 3.162380458206475e-13 3.1623802951396453e-13 1.63066830296042e-20
3.310756385682612 3.330832740251394e-21 2.9271803649395084e-13 2.9271802010077045e-13 1.639318047341908e-20
3.313861789986515 3.08078493421592e-21 2.7099745127624997e-13 2.709974347962003e-13 1.648004966193838e-20
3.3200813396944477 2.7301235810761766e-21 2.4060268135313195e-13 2.4060266468304513e-13 1.6670086806688663e-20
3.345076488085796 2.104598931582684e-21 1.8687225719100845e-13 1.868722396529707e-13 1.7538037709164378e-20
3.3482140837626964 2.1280617000815643e-21 1.891328066981295e-13 1.8913278904003212e-13 1.765809739648137e-20
3.3513546224236106 2.1517838805847207e-21 1.9142050949892586e-13 1.9142049172002932e-13 1.7778896528989008e-20
3.3576445397418455 2.3251248261060877e-21 2.0722894860398685e-13 2.0722893056940767e-13 1.8034579192619193e-20
3.3702598118196083 2.9644633387395653e-21 2.652032846085371e-13 2.6520326603017965e-13 1.8578357415201467e-20
3.382922481734668 3.1100977045219973e-21 2.7927721951386066e-13 2.7927720041128415e-13 1.9102576538923997e-20
3.389271646505754 3.18554645418744e-21 2.865891564868736e-13 2.865891371171328e-13 1.9369740812727438e-20
3.395632727569191 3.2668458862562963e-21 2.944549034390975e-13 2.944548837928169e-13 1.9646280529615688e-20
3.421196662673239 3.6572099832481574e-21 3.32121789574375e-13 3.321217687723502e-13 2.0802024732493598e-20
3.4276182099114902 3.578567532719219e-21 3.255900256030535e-13 3.255900045438306e-13 2.1059222854329846e-20
3.4340518103208963 3.2339110304627318e-21 2.947842961329471e-13 2.947842748321588e-13 2.1300788240516973e-20
3.4469541582030403 2.7430642041108353e-21 2.5098103939908304e-13 2.509810176361823e-13 2.176290075700027e-20
3.472904465399547 2.605550650466255e-21 2.401937982022038e-13 2.401937753400454e-13 2.2862158421412093e-20
3.4990501388274233 2.3952037232690507e-21 2.2246518586232646e-13 2.22465161862489e-13 2.399983747588999e-20
3.5253949054701885 1.6464660700186614e-21 1.5407422466050977e-13 1.5407419955909178e-13 2.5101417933255722e-20
3.5519380250092896 9.427438832638005e-22 8.88850120936555e-14 8.888498587602236e-14 2.6217633166583025e-20
3.578680990867387 6.637586462983434e-22 6.305254356105318e-14 6.30525160863096e-14 2.747474359490105e-20
3.605625307711299 5.5096342747433055e-22 5.2731824510490174e-14 5.2731795684603544e-14 2.882588663843571e-20
3.660119384959845 4.687977498634091e-22 4.554599591770677e-14 4.554596417790499e-14 3.173980179698566e-20
3.715437065384467 4.1069427214048495e-22 4.050400689103816e-14 4.050397198053528e-14 3.491050287954281e-20
3.8285932144167436 3.8163809280072054e-22 3.8784694521484466e-14 3.8784652414004416e-14 4.210748005431954e-20
3.94519561050918 3.7670885072925426e-22 3.9449708484576864e-14 3.9449657908296987e-14 5.0576279895308485e-20
4.06534921144712 3.8188619724215424e-22 4.120987070445749e-14 4.120981016883392e-14 6.05356235750589e-20
4.189162171576248 3.9312185244022606e-22 4.371432651462734e-14 4.3714254239463854e-14 7.227516346620198e-20
4.316745939156006 4.089770039664258e-22 4.6862430709585325e-14 4.6862344601456006e-14 8.610812931869834e-20
4.448215356677963 4.290557366429922e-22 5.0660439269371556e-14 5.0660336942262473e-14 1.0232710907550565e-19
4.58368876423945 4.535644205910183e-22 5.518531597359225e-14 5.5185194528577105e-14 1.2144501513392353e-19
4.723288106065518 4.831631725743165e-22 6.057699061534989e-14 6.057684646898375e-14 1.4414636614928353e-19
4.867139040275056 5.190329758926875e-22 6.705607618734379e-14 6.705590528308325e-14 1.7090426055072616e-19
4.940699165968905 5.406250320797766e-22 7.090126675907952e-14 7.090108063147602e-14 1.8612760350252145e-19
5.015371051989984 5.632390774230106e-22 7.498342616232205e-14 7.498322344579452e-14 2.0271652757100495e-19
5.091171501069577 5.904823293878823e-22 7.979837830517e-14 7.979815730184403e-14 2.210033259555297e-19
5.129500256944802 6.045738800083442e-22 8.231782158298799e-14 8.231759082365963e-14 2.3075932836613693e-19
5.168117569889187 6.192902000524783e-22 8.495638522797516e-14 8.495614424421705e-14 2.409837581173302e-19
5.20702561229733 6.369800560676514e-22 8.80410030185539e-14 8.804075104752147e-14 2.519710324312297e-19
5.246226572918644 6.551856602918519e-22 9.123907204688378e-14 9.123880858695357e-14 2.6345993022065493e-19
5.265937586045735 6.644873712714429e-22 9.288206705952001e-14 9.288179765974827e-14 2.6939977172945883e-19
5.285722656980489 6.739247081935669e-22 9.45551491852322e-14 9.455487371133865e-14 2.754738935587997e-19
5.305582063971359 6.834999905762775e-22 9.625891947487476e-14 9.625863778947895e-14 2.8168539579642075e-19
5.3255160863122235 6.937243887993696e-22 9.806591771365533e-14 9.806562964967577e-14 2.8806397959087717e-19
5.365609099470188 7.186416231803905e-22 1.0235305986296794e-13 1.0235275839362075e-13 3.0146934718908287e-19
5.406003951863644 7.445456390694497e-22 1.0684079627589439e-13 1.0684048077273609e-13 3.155031583040996e-19
5.446702915881641 7.7148285674588e-22 1.1153968170965597e-13 1.1153935151431435e-13 3.301953416209055e-19
5.487708281020852 8.004996233173156e-22 1.1660618365074263e-13 1.1660583802213847e-13 3.456286041318732e-19
5.529022354014368 8.397523510392734e-22 1.2324491432791007e-13 1.2324455207380467e-13 3.622541053982592e-19
5.570647458961463 8.812886291495236e-22 1.30314659775357e-13 1.3031428008150585e-13 3.796938511864414e-19
5.612585937458331 9.252670072511642e-22 1.3784769655439534e-13 1.3784729856622468e-13 3.9798817064099187e-19
5.654840148729818 9.734254372646513e-22 1.461142108225282e-13 1.4611379355251519e-13 4.1727001301005245e-19
5.67608639626678 1.0056035271296948e-21 1.5151136758624469e-13 1.5151093992040783e-13 4.2766583684446904e-19
5.686739436050992 1.0221764539246638e-21 1.5429740967011443e-13 1.5429697670657998e-13 4.3296353446328095e-19
5.6974124697621304 1.039082013177843e-21 1.5714368096863351e-13 1.5714324263973106e-13 4.383289024730509e-19
5.718818669136295 1.0739223070829842e-21 1.6302290310841467e-13 1.6302245384226164e-13 4.492661530457391e-19
5.740305295436557 1.1121657757398658e-21 1.6946263318230968e-13 1.694621725739747e-13 4.6060833490171e-19
5.7835210386641895 1.2102842636178434e-21 1.8580146729042816e-13 1.8580098209806358e-13 4.851923645858089e-19
5.827062130521658 1.3228494693743485e-21 2.046112503275941e-13 2.0461073889244723e-13 5.114351468929635e-19
5.8489554468988025 1.4010027406434358e-21 2.1751375767212095e-13 2.1751323132307462e-13 5.263490462924663e-19
5.870931020387893 1.4847397114383186e-21 2.313804893741195e-13 2.313799476378274e-13 5.417362919500507e-19
5.892989160043636 1.57450551980563e-21 2.462914087104648e-13 2.462908510980191e-13 5.576124456213585e-19
5.915130176081913 1.6763155266342177e-21 2.632021953612955e-13 2.632016208919109e-13 5.74469384660442e-19
5.95966208400165 1.9592161614230053e-21 3.0993699881230316e-13 3.0993638450687576e-13 6.143054275178121e-19
6.004529249263818 2.3649518003098744e-21 3.769386680772313e-13 3.7693800521567963e-13 6.628615516616787e-19
6.027089341400364 2.64608083281232e-21 4.233310942615533e-13 4.233304014451174e-13 6.928164357965243e-19
6.049734195844842 2.977806551875656e-21 4.781918916997654e-13 4.78191165819644e-13 7.2588012137070385e-19
6.095279466722835 3.9338749534242085e-21 6.364783074642344e-13 6.364774946267361e-13 8.128374984018947e-19
6.141167624020661 5.402379623160659e-21 8.806543473913962e-13 8.806534119716748e-13 9.354197216890454e-19
6.164241091010745 6.339862771372e-21 1.037358588098494e-12 1.0373575731655428e-12 1.0149329513547382e-18
6.187401249150058 7.406982332239175e-21 1.216519353428132e-12 1.2165182516823603e-12 1.1017457712255532e-18
6.1990139391386085 7.928247995440557e-21 1.3045756627617661e-12 1.3045745163657205e-12 1.1463960460620344e-18
6.204828454712694 8.202749574584077e-21 1.3510103155642808e-12 1.3510091460466373e-12 1.1695176437300353e-18
6.210648424152782 8.403481725466357e-21 1.385369551392909e-12 1.3853683624612399e-12 1.1889316695018772e-18
6.233982942956859 9.08616337007036e-21 1.503542068209119e-12 1.5035408100562172e-12 1.2581529018835704e-18
6.239830258556775 9.173952920440046e-21 1.5194930425832597e-12 1.5194917745009532e-12 1.2680823062817955e-18
6.245683058788269 9.182539709724345e-21 1.522341862396897e-12 1.5223405843061091e-12 1.278090788328558e-18
6.257405133728602 9.166044104798052e-21 1.5224591541441323e-12 1.5224578583358344e-12 1.2958082977930028e-18
6.269149208991335 9.034768101092265e-21 1.503470978321748e-12 1.503469675637053e-12 1.302684695422455e-18
6.280915325867298 8.702257481135698e-21 1.4508559685748532e-12 1.4508546725023161e-12 1.2960725369310187e-18
6.304513850009849 7.88107600442282e-21 1.318883855304783e-12 1.318882584980761e-12 1.2703240220457306e-18
6.32820103803542 6.86224872644022e-21 1.1526996358450177e-12 1.1526984066160684e-12 1.229228948942937e-18
6.3519772230701035 5.928136232668804e-21 9.995316272575447e-13 9.995304364593702e-13 1.1907981745681692e-18
6.375842739491607 5.142403551893618e-21 8.703084190012735e-13 8.703072615978589e-13 1.1574034145502057e-18
6.399797922933955 4.513933990640504e-21 7.66815526791782e-13 7.66814390073001e-13 1.1367187806478736e-18
6.42384311029221 3.991758674438995e-21 6.806575033242236e-13 6.806563834825471e-13 1.1198416765193212e-18
6.447978639727206 3.61261608669577e-21 6.183221930430884e-13 6.183210784973809e-13 1.1145457073665252e-18
6.472204850670314 3.2973256094701216e-21 5.664786198846082e-13 5.664775077940807e-13 1.1120905275502397e-18
6.496522083828205 3.0941471305653552e-21 5.335698892829155e-13 5.335687696122232e-13 1.1196706923697786e-18
