Dust emission spectrum from A.P. Jones, M. Kohler, N. Ysard, M. Bocchio, and L. Verstraete (2017), A&A, 602A, 46J 
inside the DustPedia framework.

lambda    nu*dP/dnu     j_nu    j_nu(carb.) j_nu(sil)
 (um)   (erg s-1 H-1) (Jy cm2 sr-1 H-1)
0.9927057738263894 1.966082585493775e-26 5.180739284037579e-19 5.18073928403755e-19 2.7539111623169e-33
1.0001793341362166 1.9984745058967062e-26 5.305739488358978e-19 5.305739488358947e-19 3.3187149015686525e-33
1.0077091589558085 2.0308177219306212e-26 5.432197902404597e-19 5.432197902404558e-19 3.994319587360513e-33
1.0114953028030835 2.0469670796263053e-26 5.495967571626433e-19 5.495967571626389e-19 4.3799914139745155e-33
1.0152956718711033 2.063099490685528e-26 5.560094074418179e-19 5.560094074418129e-19 4.801379370633378e-33
1.0229392996569957 2.0952912964577974e-26 5.689363809566226e-19 5.689363809566167e-19 5.764253452899846e-33
1.0267826658714554 2.1113115529050248e-26 5.754403156084256e-19 5.7544031560841925e-19 6.313051500708174e-33
1.0306404723013447 2.127307775949521e-26 5.819785168833843e-19 5.819785168833774e-19 6.911897377960625e-33
1.03451277320114 2.143278421305104e-26 5.885507016922076e-19 5.885507016921999e-19 7.56513680274848e-33
1.0383996230291617 2.1592219533823923e-26 5.951565834523932e-19 5.951565834523848e-19 8.277472368045647e-33
1.0403485208654093 2.167183074520436e-26 5.98472070193703e-19 5.984720701936944e-19 8.657375073179293e-33
1.0423010764483396 2.1751368455825273e-26 6.0179587215595165e-19 6.017958721559425e-19 9.05399103650409e-33
1.0462171883269815 2.1910215805844172e-26 6.084682744372206e-19 6.084682744372106e-19 9.900193602275486e-33
1.0471985131304309 2.1949878753677507e-26 6.101415143110552e-19 6.101415143110449e-19 1.0123318911712487e-32
1.048180758391296 2.1989521675792612e-26 6.118168005913088e-19 6.118168005912985e-19 1.0351266222875222e-32
1.0501480137395462 2.206874650625357e-26 6.151734936407103e-19 6.151734936406996e-19 1.0822026248721299e-32
1.0521189612883777 2.2147888427908403e-26 6.185383160005915e-19 6.185383160005804e-19 1.1313292088042808e-32
1.0531058218030118 2.2187366756474164e-26 6.202220598341264e-19 6.202220598341148e-19 1.1566895324804436e-32
1.0540936079674168 2.2226623940289092e-26 6.219022304540879e-19 6.219022304540761e-19 1.1826001214784225e-32
1.058054026499678 2.238342556185579e-26 6.286426309833067e-19 6.286426309832939e-19 1.291920257361802e-32
1.0590464539527713 2.2422568042013663e-26 6.303326365007001e-19 6.303326365006869e-19 1.3207283193396675e-32
1.06003981227728 2.246168689483397e-26 6.320245944808214e-19 6.3202459448080805e-19 1.3501518230847696e-32
1.0620293250338977 2.253985280739255e-26 6.354143483552634e-19 6.354143483552493e-19 1.4108954994490468e-32
1.0660195594769086 2.2695891106940728e-26 6.422170708121684e-19 6.422170708121531e-19 1.5403356897627158e-32
1.070024785945596 2.2851526001982872e-26 6.490504837297417e-19 6.490504837297246e-19 1.6811147336808618e-32
1.0740450607676866 2.300674314781233e-26 6.559142696852868e-19 6.559142696852686e-19 1.834175338858024e-32
1.07808044048254 2.316152831583696e-26 6.628081085256285e-19 6.628081085256082e-19 2.0005340783192753e-32
1.0861967418109137 2.3469471982896775e-26 6.766767390071438e-19 6.766767390071198e-19 2.3776147278224868e-32
1.0902777775684922 2.362197862436425e-26 6.83632758927316e-19 6.8363275892729e-19 2.5907905057990007e-32
1.0943741465085532 2.3773986704546067e-26 6.906170137947626e-19 6.906170137947346e-19 2.8221833276321215e-32
1.1026131145906286 2.4076453167697602e-26 7.046688855906034e-19 7.046688855905697e-19 3.345631132967247e-32
1.1109141095355224 2.4376764664408074e-26 7.1882964664232995e-19 7.188296466422906e-19 3.961151163703292e-32
1.1192775983109025 2.467453685679743e-26 7.330882428528709e-19 7.330882428528238e-19 4.684000477040641e-32
1.1277040513999907 2.4968382305872544e-26 7.474032451623668e-19 7.474032451623113e-19 5.531799785634713e-32
1.1361939428280308 2.5259726016335273e-26 7.618167870148875e-19 7.618167870148223e-19 6.524869067311367e-32
1.1447477501889525 2.5548470923490478e-26 7.763260232946832e-19 7.7632602329460655e-19 7.68661354537193e-32
1.1533659546722406 2.5834680266475196e-26 7.9093291950393945e-19 7.909329195038492e-19 9.043968922237094e-32
1.1707974979042381 2.6400422528649545e-26 8.204688482891133e-19 8.204688482889884e-19 1.2473952035611732e-31
1.1884924949847024 2.695480418997646e-26 8.503585015284442e-19 8.503585015282732e-19 1.712060502190243e-31
1.2064549276569216 2.7502181630873986e-26 8.807399182983613e-19 8.807399182981273e-19 2.338477252013251e-31
1.2246888378427687 2.803655468933231e-26 9.114226902549993e-19 9.114226902546815e-19 3.1787738751043725e-31
1.2431983285522175 2.85566726613919e-26 9.42361324615249e-19 9.42361324614819e-19 4.300514597269237e-31
1.2619875648066055 2.906234339090643e-26 9.735430002020567e-19 9.735430002014778e-19 5.7908223743728835e-31
1.3004222497298317 3.002191820213549e-26 1.0363161395449475e-18 1.0363161395439121e-18 1.035483487206547e-30
1.3400274889804893 3.0911540853540153e-26 1.0995216734713498e-18 1.0995216734695317e-18 1.8183009635096183e-30
1.3808389325824078 3.17279303840315e-26 1.1629316770916234e-18 1.1629316770884863e-18 3.136943467862224e-30
1.4228933163050095 3.2475116977620654e-26 1.2265704468819938e-18 1.2265704468766742e-18 5.319590036249438e-30
1.466228494730424 3.317122164854161e-26 1.2910187645689915e-18 1.2910187645601201e-18 8.871489032644247e-30
1.5108834753276823 3.380264715375479e-26 1.3556610440408063e-18 1.35566104402625e-18 1.4556388704926058e-29
1.5568984535646726 3.4358403001931736e-26 1.4199161200784966e-18 1.4199161200549735e-18 2.3523292296400257e-29
1.6043148490894465 3.483954214382413e-26 1.4836500488428713e-18 1.4836500488053632e-18 3.7507350395551925e-29
1.6531753430134553 3.5247567731064575e-26 1.5467406734209023e-18 1.5467406733619598e-18 5.894213399876952e-29
1.7035239163302658 3.55874047508745e-26 1.6092146808194657e-18 1.6092146807281521e-18 9.13138241884583e-29
1.755405889504358 3.5887385128734623e-26 1.6722022349360159e-18 1.6722022347964844e-18 1.3953098976574312e-28
1.8088679632656115 3.6140530506082e-26 1.7352850426916634e-18 1.7352850424812914e-18 2.1037213896120534e-28
1.8639582606462262 3.6342122731974804e-26 1.7981085528589267e-18 1.7981085525458383e-18 3.130891240139196e-28
1.9207263702978936 3.649560620754871e-26 1.86069638513333e-18 1.8606963846731993e-18 4.601313027690394e-28
1.979223391128241 3.660898084297011e-26 1.9233215013669144e-18 1.9233215006988694e-18 6.68045072498466e-28
2.039501978296691 3.6691814734721373e-26 1.9863819306474187e-18 1.9863819296888895e-18 9.585291707285613e-28
2.1016163906111602 3.677088354689242e-26 2.0512894449425634e-18 2.0512894435827744e-18 1.359788692581647e-27
2.1656225393682647 3.68617091156361e-26 2.1189839322170414e-18 2.118983930309092e-18 1.9079497147510135e-27
2.231578038680979 3.6965400787419146e-26 2.1896612414922134e-18 2.1896612388434576e-18 2.6487556449665334e-27
2.299542257339062 3.7091247526064964e-26 2.264030475271658e-18 2.264030471632121e-18 3.6395368083999264e-27
2.369576372248914 3.725979363618106e-26 2.3435843488109555e-18 2.3435843438594254e-18 4.951530098132089e-27
2.4417434235010123 3.7495297640360246e-26 2.4302237742504686e-18 2.4302237675781863e-18 6.6722819039727e-27
2.5161083711144245 3.783930564129851e-26 2.5272135073592856e-18 2.5272134984505538e-18 8.90873164388281e-27
2.5927381535095444 3.8359815901454e-26 2.6400041274988732e-18 2.6400041157084753e-18 1.1790398624064099e-26
2.6717017477616296 3.91380313014116e-26 2.7755968366623533e-18 2.7755968211900757e-18 1.547227765757136e-26
2.753070231689431 4.029621364348918e-26 2.944767178735279e-18 2.9447671585964774e-18 2.0138799882037205e-26
2.836916847834745 4.2111380957343856e-26 3.171140783063083e-18 3.1711407570540098e-18 2.600907332703704e-26
2.9233170693905177 4.5193679667495215e-26 3.506897387325923e-18 3.5068973539887396e-18 3.3337181132427216e-26
2.967498994190263 4.7812386477426324e-26 3.76617446782648e-18 3.766174430238692e-18 3.7587790860790923e-26
3.0123486681368425 5.0871040893523605e-26 4.067666094459135e-18 4.067666052127897e-18 4.233123838709346e-26
3.0578761833420214 5.771679297543979e-26 4.684805026617245e-18 4.684804978985662e-18 4.7631584539163375e-26
3.1040917844459814 6.653951292597289e-26 5.482562672395863e-18 5.482562618884525e-18 5.351133740804931e-26
3.127460860933648 7.587332291042477e-26 6.2986927070155504e-18 6.298692650309375e-18 5.670617367905929e-26
3.1510058709225794 8.83101655775861e-26 7.386340845262412e-18 7.386340785191024e-18 6.007138854703721e-26
3.162844764501044 9.988658832306254e-26 8.38599288754948e-18 8.385992825720538e-18 6.182894097562989e-26
3.1747281389236908 1.1334977375503853e-25 9.552050987722594e-18 9.552050924090591e-18 6.363200339828491e-26
3.1986289994194426 1.5090451908722762e-25 1.281254928652914e-17 1.2812549219138701e-17 6.739044477568125e-26
3.2227097969389145 2.394299789019398e-25 2.0481848980980925e-17 2.0481848909544824e-17 7.143609820578398e-26
3.2348180950136065 3.233805367100223e-25 2.7767269432406435e-17 2.776726935878116e-17 7.362527726778655e-26
3.240889293275058 3.8614403535744547e-25 3.3218725043716535e-17 3.32187249689249e-17 7.479164766638857e-26
3.2469718861334385 4.587511526378148e-25 3.9538949803609295e-17 3.953894972760256e-17 7.600673050599065e-26
3.2714166318528037 8.460529991878388e-25 7.346878533715095e-17 7.346878525605645e-17 8.109452114672996e-26
3.2744851364798273 8.70262705110882e-25 7.564196962364921e-17 7.564196954195377e-17 8.169547073233972e-26
3.2775565192852394 8.951677784240998e-25 7.787966306899594e-17 7.787966298669534e-17 8.230062993571508e-26
3.283707930232385 8.712101504224731e-25 7.593760251340987e-17 7.593760243004271e-17 8.336711588724394e-26
3.2898708863219004 7.9524406684416555e-25 6.944623805263116e-17 6.944623796830723e-17 8.432394567100201e-26
3.29141343181113 7.773294960364338e-25 6.7913641477033e-17 6.791364139246847e-17 8.456455069209396e-26
3.292184975758714 7.685269291829886e-25 6.716031918092425e-17 6.716031909623921e-17 8.468506350962664e-26
3.295272960557952 7.129644742328782e-25 6.236324685925309e-17 6.23632467741033e-17 8.514975594507635e-26
3.3076538914384823 5.204834822584852e-25 4.569792113892185e-17 4.569792105190266e-17 8.701917487171686e-26
3.310756385682612 4.813096943510232e-25 4.229813973345947e-17 4.22981396459677e-17 8.749176091528382e-26
3.313861789986515 4.451661422963659e-25 3.9158491271802777e-17 3.915849118383631e-17 8.796645328935229e-26
3.3200813396944477 3.9447826847877494e-25 3.4764920456135817e-17 3.476492036713574e-17 8.900008813123863e-26
3.345076488085796 3.0405167971767757e-25 2.6997459154287183e-17 2.699745906059063e-17 9.369655222381287e-26
3.3482140837626964 3.0744117717692535e-25 2.7324025770408887e-17 2.7324025676065202e-17 9.434369113405122e-26
3.3513546224236106 3.1086814805433647e-25 2.7654514853684305e-17 2.7654514758689447e-17 9.499484246015748e-26
3.3576445397418455 3.359182844458224e-25 2.9939034722339075e-17 2.9939034625969583e-17 9.63695027342523e-26
3.3702598118196083 4.28317683682514e-25 3.831764592400728e-17 3.8317645824720647e-17 9.928663251333454e-26
3.382922481734668 4.493565818855322e-25 4.035084061081989e-17 4.0350840508709966e-17 1.0210992373882015e-25
3.389271646505754 4.602561471980999e-25 4.140715663399344e-17 4.1407156530444586e-17 1.0354886705349205e-25
3.395632727569191 4.720004509311743e-25 4.254343548523477e-17 4.254343538019747e-17 1.0503729919563667e-25
3.421196662673239 5.283905298825365e-25 4.798466841733778e-17 4.7984668306081723e-17 1.1125603635243436e-25
3.4276182099114902 5.170192168126153e-25 4.7040135054088984e-17 4.7040134941440707e-17 1.126482674618048e-25
3.4340518103208963 4.672039263726239e-25 4.25875601675401e-17 4.2587560053578836e-17 1.139612664103386e-25
3.4469541582030403 3.9625850994255004e-25 3.625630510108709e-17 3.625630498460482e-17 1.164822771702265e-25
3.472904465399547 3.76369459849723e-25 3.46957792098341e-17 3.469577908739975e-17 1.2243434071425348e-25
3.4990501388274233 3.4595411634799545e-25 3.2132025366156547e-17 3.21320252375552e-17 1.286013474834652e-25
3.5253949054701885 2.377326439388591e-25 2.2246721908431188e-17 2.224672177382466e-17 1.3460653557525159e-25
3.5519380250092896 1.3602462033755855e-25 1.2824851201241458e-17 1.2824851060533779e-17 1.4070768418322389e-25
3.578680990867387 9.569581720147359e-26 9.090449844015169e-18 9.090449696464636e-18 1.4755053224405175e-25
3.605625307711299 7.938128554890668e-26 7.597455312362051e-18 7.597455157466883e-18 1.5489517143230098e-25
3.660119384959845 6.74737777904069e-26 6.555407761000421e-18 6.555407590265931e-18 1.707344923462713e-25
3.715437065384467 5.903963388893066e-26 5.8226810065264796e-18 5.822680818541939e-18 1.879845403324223e-25
3.8285932144167436 5.474293311958336e-26 5.5633543357050516e-18 5.56335410853546e-18 2.271695917788837e-25
3.94519561050918 5.389874422379568e-26 5.644384896179953e-18 5.644384622859743e-18 2.733202073959711e-25
4.06534921144712 5.447099728801156e-26 5.878041080281356e-18 5.8780407526641046e-18 3.276172501085169e-25
4.189162171576248 5.586227774551994e-26 6.211768269966018e-18 6.211767878349578e-18 3.9161644035341818e-25
4.316745939156006 5.78495376479965e-26 6.628661081964733e-18 6.628660614983965e-18 4.669807681926119e-25
4.448215356677963 6.035733071278876e-26 7.126647253246908e-18 7.126646698030777e-18 5.552161305047047e-25
4.58368876423945 6.339370956778992e-26 7.713131221090981e-18 7.713130562075424e-18 6.590155588035784e-25
4.723288106065518 6.702840030075134e-26 8.403742268572825e-18 8.403741486588674e-18 7.819841479524698e-25
4.867139040275056 7.140191353082031e-26 9.224716686661446e-18 9.224715760228407e-18 9.264330399451773e-25
4.940699165968905 7.40432108584326e-26 9.710533425684641e-18 9.710532417295163e-18 1.0083894766771448e-24
5.015371051989984 7.677731123774198e-26 1.0221282717948095e-17 1.0221281620422814e-17 1.097525278833563e-24
5.091171501069577 8.011857901625424e-26 1.0827305677782595e-17 1.0827304482171013e-17 1.1956115809625055e-24
5.129500256944802 8.183293476181447e-26 1.1142242736722873e-17 1.1142241488862663e-17 1.2478602112859282e-24
5.168117569889187 8.362034043227013e-26 1.1471329360704193e-17 1.1471328058140548e-17 1.302563648241898e-24
5.20702561229733 8.581796338142395e-26 1.1861438205386526e-17 1.1861436844062663e-17 1.3613238576377351e-24
5.246226572918644 8.807144312868834e-26 1.2264549168112123e-17 1.2264547745406806e-17 1.4227053192908495e-24
5.265937586045735 8.92196865042036e-26 1.2471130774173273e-17 1.2471129319757255e-17 1.4544160136719922e-24
5.285722656980489 9.038257249929618e-26 1.2681146013066735e-17 1.2681144526239663e-17 1.4868270809085812e-24
5.305582063971359 9.156033764098638e-26 1.28946587996953e-17 1.2894657279741051e-17 1.5199542481343325e-24
5.3255160863122235 9.282634868863942e-26 1.3122071559159035e-17 1.3122070005209663e-17 1.553949372971861e-24
5.365609099470188 9.598498604169556e-26 1.3670731982922923e-17 1.3670730357629281e-17 1.6252936453437614e-24
5.406003951863644 9.926395816239443e-26 1.424417762331159e-17 1.4244175923410588e-17 1.6999010099829608e-24
5.446702915881641 1.0266910043846713e-25 1.4843724243759072e-17 1.4843722465836344e-17 1.7779227237390354e-24
5.487708281020852 1.0634975775684228e-25 1.549162425937908e-17 1.5491622399609913e-17 1.8597691685121127e-24
5.529022354014368 1.1147582315200858e-25 1.6360571372023483e-17 1.6360569424367632e-17 1.9476558459114605e-24
5.570647458961463 1.169049433644033e-25 1.728653634767918e-17 1.7286534307950205e-17 2.0397289714472154e-24
5.612585937458331 1.2265899703316359e-25 1.8273925332025e-17 1.827392319583465e-17 2.136190355768014e-24
5.654840148729818 1.2898629849069613e-25 1.9361247908054354e-17 1.9361245670367036e-17 2.2376873196873727e-24
5.67608639626678 1.3330116306380818e-25 2.008409971898376e-17 2.0084097426809793e-17 2.292173965440917e-24
5.686739436050992 1.355254692643085e-25 2.0457552873107663e-17 2.0457550553183605e-17 2.3199240637826005e-24
5.6974124697621304 1.3779578329428272e-25 2.0839295006749005e-17 2.0839292658731332e-17 2.3480176726733695e-24
5.718818669136295 1.424788750529694e-25 2.1628491828097696e-17 2.1628489422844972e-17 2.4052527121501038e-24
5.740305295436557 1.4764270384900782e-25 2.2496575519746002e-17 2.249657305524984e-17 2.464496167189752e-24
5.7835210386641895 1.6104900612984784e-25 2.4724060738543444e-17 2.4724058146313254e-17 2.592230173005615e-24
5.827062130521658 1.7649833524011195e-25 2.7299814446233512e-17 2.7299811718043447e-17 2.7281900676556028e-24
5.8489554468988025 1.873434852947907e-25 2.9086156850161886e-17 2.908615404537629e-17 2.8047855912093574e-24
5.870931020387893 1.9898332442505985e-25 3.100938072044841e-17 3.100937783674172e-17 2.8837066811046167e-24
5.892989160043636 2.114818693748784e-25 3.308096851352496e-17 3.308096554849779e-17 2.9650271736507118e-24
5.915130176081913 2.256992424458061e-25 3.543756241546756e-17 3.5437559364370646e-17 3.051096910356219e-24
5.95966208400165 2.6546674504824288e-25 4.1995348887365056e-17 4.1995345634783784e-17 3.2525812637324797e-24
6.004529249263818 3.228052566567295e-25 5.1450428493541905e-17 5.1450424998132754e-17 3.4954091454686136e-24
6.027089341400364 3.6267106328504597e-25 5.802163568611928e-17 5.802163204251473e-17 3.643604545061617e-24
6.049734195844842 4.0978765229008933e-25 6.580586389010876e-17 6.580586008368919e-17 3.8064195868728665e-24
6.095279466722835 5.45907359551433e-25 8.832466622690264e-17 8.83246619970615e-17 4.229841145815654e-24
6.141167624020661 7.554199136207721e-25 1.231427403183773e-16 1.2314273549840088e-16 4.819976422229173e-24
6.164241091010745 8.892155384493342e-25 1.4549768800144239e-16 1.4549768280087307e-16 5.200569344842879e-24
6.187401249150058 1.041639860412573e-24 1.7107844904376847e-16 1.7107844342920409e-16 5.614564419706482e-24
6.1990139391386085 1.1160633631905225e-24 1.8364575661050516e-16 1.8364575078307544e-16 5.827429621802468e-24
6.204828454712694 1.155267996473168e-24 1.9027509815885961e-16 1.9027509222136141e-16 5.937498236761186e-24
6.210648424152782 1.1838838488828305e-24 1.9517108386846618e-16 1.9517107783812617e-16 6.0303399851912146e-24
6.233982942956859 1.2810991267324e-24 2.119911729666834e-16 2.1199116660448925e-16 6.3621941780928215e-24
6.239830258556775 1.2935223440195185e-24 2.1424768790609505e-16 2.142476814953974e-16 6.410697691076696e-24
6.245683058788269 1.2945919235073344e-24 2.1462596865103016e-16 2.1462596219145358e-16 6.459576635918278e-24
6.257405133728602 1.2919034035965016e-24 2.1458222768597395e-16 2.1458222113934643e-16 6.546627547285905e-24
6.269149208991335 1.2727598581075688e-24 2.1179929441756172e-16 2.1179928783440459e-16 6.5831571453465866e-24
6.280915325867298 1.2247793913792387e-24 2.0419741590295244e-16 2.0419740934615524e-16 6.5567971971411355e-24
6.304513850009849 1.106468120833445e-24 1.8516544443394523e-16 1.8516543798818935e-16 6.445755853377541e-24
6.32820103803542 9.598279080993026e-25 1.6122896797328573e-16 1.6122896170950726e-16 6.263778418707334e-24
6.3519772230701035 8.253484415265792e-25 1.3916041036090505e-16 1.3916040426622254e-16 6.094682455339606e-24
6.375842739491607 7.12216524891965e-25 1.2053663846297256e-16 1.2053663251407562e-16 5.948896920065143e-24
6.399797922933955 6.215351774460223e-25 1.055848015281384e-16 1.0558479566467225e-16 5.8634661454632555e-24
6.42384311029221 5.461435374928255e-25 9.312604468474546e-17 9.312603888900392e-17 5.795741579138633e-24
6.447978639727206 4.911947571473893e-25 8.407110309040094e-17 8.40710973078128e-17 5.782588129624629e-24
6.472204850670314 4.454189885548276e-25 7.652272289465661e-17 7.652271711185528e-17 5.782801297031603e-24
6.496522083828205 4.1565761609411675e-25 7.167803560731611e-17 7.167802977706664e-17 5.830249456997995e-24
6.520930681187647 3.905842335192956e-25 6.760732069952191e-17 6.760731481290945e-17 5.8866124579904595e-24
6.57002334288761 3.649124818772536e-25 6.3639251697432e-17 6.363924562433377e-17 6.073098206701932e-24
