Dust emission spectrum from A.P. Jones, M. Kohler, N. Ysard, M. Bocchio, and L. Verstraete (2017), A&A, 602A, 46J 
inside the DustPedia framework.

lambda    nu*dP/dnu     j_nu    j_nu(carb.) j_nu(sil)
 (um)   (erg s-1 H-1) (Jy cm2 sr-1 H-1)
0.9927057738263894 1.047679539838598e-23 2.7606950944845873e-16 2.7606950612617207e-16 3.3222866380769014e-24
1.0001793341362166 1.0653156820936859e-23 2.8283010192899066e-16 2.828300979298763e-16 3.9991144206646186e-24
1.0077091589558085 1.0830065644784016e-23 2.896914835988892e-16 2.8969147879142393e-16 4.807465268991032e-24
1.0114953028030835 1.091871470850425e-23 2.9316007355006005e-16 2.9316006828168666e-16 5.268373280317798e-24
1.0152956718711033 1.1007487994049969e-23 2.9665398613234117e-16 2.966539803607851e-16 5.771556078348725e-24
1.0229392996569957 1.1185304638900757e-23 3.0371560994462875e-16 3.037156030247402e-16 6.91988850604513e-24
1.0267826658714554 1.1274144238323465e-23 3.072780570820665e-16 3.0727804950847856e-16 7.573587917889172e-24
1.0306404723013447 1.1363087600392495e-23 3.10865825042202e-16 3.1086581675591053e-16 8.28629148832394e-24
1.03451277320114 1.1452130913748123e-23 3.1447895981023327e-16 3.1447895074717644e-16 9.063056965541043e-24
1.0383996230291617 1.1541270441445902e-23 3.181175086642231e-16 3.181174987548722e-16 9.909350912637514e-24
1.0403485208654093 1.1585875138727518e-23 3.1994632852207745e-16 3.1994631816167875e-16 1.0360398706641034e-23
1.0423010764483396 1.1630502522993842e-23 3.2178152025936597e-16 3.2178150942828637e-16 1.0831079596646393e-23
1.0462171883269815 1.1719823576374403e-23 3.2547104471344726e-16 3.254710328788252e-16 1.1834622034393657e-23
1.0471985131304309 1.1742167329435158e-23 3.2639741823061493e-16 3.2639740613152844e-16 1.2099086432523141e-23
1.048180758391296 1.176451637007331e-23 3.2732539034562193e-16 3.273253779764172e-16 1.2369204768713005e-23
1.0501480137395462 1.1809230100050457e-23 3.291861336934785e-16 3.291861207666132e-16 1.2926865332123527e-23
1.0521189612883777 1.1853964341515105e-23 3.310532814718647e-16 3.3105326796331446e-16 1.3508550199380883e-23
1.0531058218030118 1.1876308674871828e-23 3.3198841081065027e-16 3.319883970019228e-16 1.3808727468932133e-23
1.0540936079674168 1.1898558552874802e-23 3.3292236027839864e-16 3.3292234616304846e-16 1.411535010718846e-23
1.058054026499678 1.1987602680784524e-23 3.366740299694381e-16 3.366740145611654e-16 1.5408272740056844e-23
1.0590464539527713 1.2009874615405368e-23 3.3761591964786605e-16 3.3761590389907864e-16 1.5748787481958077e-23
1.06003981227728 1.20321508117661e-23 3.3855939997487747e-16 3.3855938387838217e-16 1.6096495332115283e-23
1.0620293250338977 1.2076715793876672e-23 3.4045113612814104e-16 3.4045111931407044e-16 1.681407065720681e-23
1.0660195594769086 1.2165894764716262e-23 3.4425373574407943e-16 3.4425371740200153e-16 1.83420778027319e-23
1.070024785945596 1.2255136557208199e-23 3.4808188783277844e-16 3.480818678304246e-16 2.000235380949739e-23
1.0740450607676866 1.2344438228475092e-23 3.519356535292695e-16 3.51935631723533e-16 2.1805736550923025e-23
1.07808044048254 1.2433796930712956e-23 3.5581509618268973e-16 3.558150724187914e-16 2.3763898193053607e-23
1.0861967418109137 1.261253456878557e-23 3.6364724220639603e-16 3.6364721401061185e-16 2.819578413493329e-23
1.0902777775684922 1.2701590055295412e-23 3.675908436945789e-16 3.675908129969884e-16 3.069759051902728e-23
1.0943741465085532 1.2790686614839847e-23 3.7156013857096165e-16 3.7156010516049676e-16 3.341046481390097e-23
1.1026131145906286 1.2968993790089871e-23 3.7957610855885127e-16 3.7957606902088765e-16 3.9537963750647756e-23
1.1109141095355224 1.314743884504381e-23 3.876957811810574e-16 3.8769573445258777e-16 4.672846955314705e-23
1.1192775983109025 1.3325862707829116e-23 3.9591556808855925e-16 3.959155129333578e-16 5.515520141433262e-23
1.1277040513999907 1.3503591701586062e-23 4.042163459159808e-16 4.04216280898317e-16 6.501766389014097e-23
1.1361939428280308 1.3681396209035384e-23 4.1262194590332086e-16 4.126218693580076e-16 7.654531328427315e-23
1.1447477501889525 1.3859266541791808e-23 4.211331986321605e-16 4.2113310863045605e-16 9.000170447561194e-23
1.1533659546722406 1.4037263434085985e-23 4.2975309294518e-16 4.2975298725588136e-16 1.0568929871002612e-22
1.1707974979042381 1.4394176721464858e-23 4.473403250994994e-16 4.473401799043769e-16 1.4519512264048063e-22
1.1884924949847024 1.4751513355944956e-23 4.653743616250377e-16 4.6537416315404265e-16 1.9847099493431547e-22
1.2064549276569216 1.5111732579112087e-23 4.839436483879735e-16 4.839433784293828e-16 2.6995859069717177e-22
1.2246888378427687 1.547226293381749e-23 5.02978046472959e-16 5.029776810732821e-16 3.653996769271077e-22
1.2431983285522175 1.5832725494486585e-23 5.224750217284861e-16 5.224745295379084e-16 4.921905779163605e-22
1.2619875648066055 1.619354481526067e-23 5.424583968093991e-16 5.424577369990117e-16 6.598103872781385e-22
1.3004222497298317 1.6913495596652024e-23 5.83831064521591e-16 5.838298954445164e-16 1.169077074567385e-21
1.3400274889804893 1.7633573014433032e-23 6.272251455199836e-16 6.272231120157866e-16 2.0335041971065978e-21
1.3808389325824078 1.8355724892558902e-23 6.727969229370078e-16 6.727934489510402e-16 3.4739859678104464e-21
1.4228933163050095 1.9085687117293532e-23 7.208577506477025e-16 7.208519187936046e-16 5.831854097599766e-21
1.466228494730424 1.9836620677419355e-23 7.720381778978462e-16 7.720285529654662e-16 9.624932379953225e-21
1.5108834753276823 2.0605777536274695e-23 8.263982924484004e-16 8.263826684472732e-16 1.5624001127151483e-20
1.5568984535646726 2.1391397405048542e-23 8.840338127684813e-16 8.840088411338566e-16 2.4971634624900454e-20
1.6043148490894465 2.2197752111738915e-23 9.45296464253949e-16 9.45257093859115e-16 3.937039483386353e-20
1.6531753430134553 2.3029335763971704e-23 1.0105778242567498e-15 1.0105166668159987e-15 6.115744075103003e-20
1.7035239163302658 2.3891657832884774e-23 1.0803487021022172e-15 1.0802550780430639e-15 9.362405915362075e-20
1.755405889504358 2.480247198141342e-23 1.1556915871825128e-15 1.1555502681018212e-15 1.4131908069179777e-19
1.8088679632656115 2.57603733065446e-23 1.2368825212866679e-15 1.236672122978032e-15 2.1039830863552687e-19
1.8639582606462262 2.676350836340505e-23 1.3241849863219321e-15 1.323875897430645e-15 3.090888912872093e-19
1.9207263702978936 2.7813800644326204e-23 1.4180621640150295e-15 1.4176139486748135e-15 4.482153402163839e-19
1.979223391128241 2.891470252442457e-23 1.5190881524234789e-15 1.5184463245443967e-15 6.418278790823385e-19
2.039501978296691 3.0068807175290314e-23 1.6278326836910995e-15 1.6269247954169772e-15 9.078882741225373e-19
2.1016163906111602 3.12880554809292e-23 1.7454260482743127e-15 1.7441569185676531e-15 1.2691297066595264e-18
2.1656225393682647 3.257652099671066e-23 1.8726512203494117e-15 1.8708973914885744e-15 1.753828860837338e-18
2.231578038680979 3.39272963394125e-23 2.0096978320417912e-15 2.007301154949318e-15 2.3966770924728235e-18
2.299542257339062 3.533805447713638e-23 2.157016482576496e-15 2.153776788187413e-15 3.2396943890833173e-18
2.369576372248914 3.6810095126776307e-23 2.3152989965458473e-15 2.310965790834441e-15 4.333205711406702e-18
2.4417434235010123 3.834552437379091e-23 2.485330450317027e-15 2.4795938571040153e-15 5.736593213012388e-18
2.5161083711144245 3.995395739932927e-23 2.6684469786316458e-15 2.660927696948346e-15 7.519281683300631e-18
2.5927381535095444 4.1655453946708065e-23 2.866816948096463e-15 2.8570555908732023e-15 9.761357223261021e-18
2.6717017477616296 4.3468293566204017e-23 3.082691032369705e-15 3.070137529303597e-15 1.2553503066107367e-17
2.753070231689431 4.542300184009427e-23 3.319422667393812e-15 3.3034254656656654e-15 1.5997201728146257e-17
2.836916847834745 4.76095106202165e-23 3.5851700266579496e-15 3.564964739171633e-15 2.020528748631656e-17
2.9233170693905177 5.023500341347488e-23 3.898089368229302e-15 3.872792823309822e-15 2.5296544919479512e-17
2.967498994190263 5.1922346649016675e-23 4.089915410340098e-15 4.061755356767251e-15 2.81600535728469e-17
3.0123486681368425 5.374992503107655e-23 4.2978626697702414e-15 4.266556276632489e-15 3.1306393137752053e-17
3.0578761833420214 5.695987675026209e-23 4.62336701605506e-15 4.588598323646495e-15 3.4768692408564245e-17
3.1040917844459814 6.080052545492125e-23 5.0096953924513854e-15 4.971157428440962e-15 3.853796401042281e-17
3.127460860933648 6.450090161349175e-23 5.354600839987826e-15 5.3140441124690036e-15 4.055672751882209e-17
3.1510058709225794 6.926382622066238e-23 5.793288070141343e-15 5.750626627338333e-15 4.266144280300963e-17
3.162844764501044 7.361894915236619e-23 6.180689463372803e-15 6.136938657191845e-15 4.375080618095681e-17
3.1747281389236908 7.858022870140623e-23 6.622001317840032e-15 6.577138881104943e-15 4.486243673509095e-17
3.1986289994194426 9.212252120071416e-23 7.821663330050514e-15 7.774503921086329e-15 4.7159408964183723e-17
3.2227097969389145 1.2367489655841288e-22 1.0579671625353541e-14 1.0530077799404885e-14 4.959382594865472e-17
3.2348180950136065 1.533744290047402e-22 1.3169590036381816e-14 1.311869695051399e-14 5.089308586781986e-17
3.240889293275058 1.7557280554176723e-22 1.5103961782154773e-14 1.50523833673193e-14 5.157841483547654e-17
3.2469718861334385 2.0129453517936405e-22 1.7349219672656322e-14 1.7296932139658994e-14 5.2287532997332824e-17
3.2714166318528037 3.3681305379354932e-22 2.92478674168906e-14 2.919264906022927e-14 5.521835666132186e-17
3.2744851364798273 3.4528916809308816e-22 3.0012032701027545e-14 2.995646883237029e-14 5.556386865724799e-17
3.2775565192852394 3.539961850819688e-22 3.0797694338850927e-14 3.074178322018295e-14 5.591111866797572e-17
3.283707930232385 3.45649890932675e-22 3.012800529667918e-14 3.007147293173433e-14 5.653236494485508e-17
3.2898708863219004 3.1910108513729697e-22 2.7866124181521428e-14 2.7809026216197e-14 5.709796532442472e-17
3.29141343181113 3.1282916698536557e-22 2.733122568811826e-14 2.7273985691653185e-14 5.723999646508089e-17
3.292184975758714 3.0974571404840163e-22 2.7068174491333646e-14 2.7010863384520642e-14 5.731110681300255e-17
3.295272960557952 2.904623665147771e-22 2.5406842726314008e-14 2.5349254970021098e-14 5.758775629291126e-17
3.3076538914384823 2.23251941584075e-22 1.9601293736260402e-14 1.9542594706586434e-14 5.86990296739647e-17
3.310756385682612 2.0945876208377432e-22 1.840751618137046e-14 1.8348537022514214e-14 5.897915885624257e-17
3.313861789986515 1.9668777123849612e-22 1.730139748180904e-14 1.724213726763317e-14 5.92602141758693e-17
3.3200813396944477 1.7883266097046629e-22 1.5760318705444424e-14 1.5700454078333297e-14 5.986462711112776e-17
3.345076488085796 1.4748013083391704e-22 1.3095105450345308e-14 1.3032547612760189e-14 6.255783758512159e-17
3.3482140837626964 1.4872794379907772e-22 1.321828847541549e-14 1.3155365813674207e-14 6.2922661741282e-17
3.3513546224236106 1.4998771538369435e-22 1.334275489113008e-14 1.3279465748882682e-14 6.328914224740104e-17
3.3576445397418455 1.5892410376242046e-22 1.4164261015470592e-14 1.410020569238637e-14 6.405532308422023e-17
3.3702598118196083 1.9144099163135221e-22 1.7126465733570806e-14 1.7060803293219838e-14 6.566244035096919e-17
3.382922481734668 1.9912687802210925e-22 1.788098192016046e-14 1.78137567346437e-14 6.72251855167569e-17
3.389271646505754 2.0309413692199669e-22 1.827145773102571e-14 1.8203440319540816e-14 6.801741148489459e-17
3.395632727569191 2.0744010091706178e-22 1.8697470591405168e-14 1.862863673917717e-14 6.883385222800099e-17
3.421196662673239 2.284888156636114e-22 2.0749728537197557e-14 2.0677514284149228e-14 7.221425304833169e-17
3.4276182099114902 2.246031953322778e-22 2.0435148827049323e-14 2.0362179464370327e-14 7.296936267900128e-17
3.4340518103208963 2.0707591388884313e-22 1.8875821550685934e-14 1.8802137637895634e-14 7.368391279029699e-17
3.4469541582030403 1.8196239440658795e-22 1.66489398284117e-14 1.6573883721156114e-14 7.505610725558759e-17
3.472904465399547 1.749812133042365e-22 1.6130717792821842e-14 1.605250180557636e-14 7.821598724548245e-17
3.4990501388274233 1.6438857473833655e-22 1.526831913190836e-14 1.5186868022030836e-14 8.145110987751956e-17
3.5253949054701885 1.2676994897149692e-22 1.1862972431502577e-14 1.1778375884304483e-14 8.459654719809444e-17
3.5519380250092896 9.102670435065356e-23 8.582298820165807e-15 8.494538792264613e-15 8.776002790119141e-17
3.578680990867387 7.702032744329185e-23 7.316405712057478e-15 7.225178135522638e-15 9.122757653484065e-17
3.605625307711299 7.156296795645716e-23 6.849176695862533e-15 6.7542959608815616e-15 9.48807349809713e-17
3.660119384959845 6.798137056575931e-23 6.604722883525636e-15 6.502161994277377e-15 1.0256088924825995e-16
3.715437065384467 6.552184565484305e-23 6.46197784567468e-15 6.351313198607002e-15 1.1066464706768111e-16
3.8285932144167436 6.504002250056104e-23 6.609815560712218e-15 6.481708645620664e-15 1.2810691509155247e-16
3.94519561050918 6.566722843311053e-23 6.876804231335125e-15 6.7296396772954364e-15 1.471645540396916e-16
4.06534921144712 6.667992952871835e-23 7.195523939605478e-15 7.02770033214611e-15 1.6782360745936957e-16
4.189162171576248 6.786594372340586e-23 7.546550782494021e-15 7.356421117555289e-15 1.901296649387336e-16
4.316745939156006 6.91396744767511e-23 7.922335908930513e-15 7.708328267576607e-15 2.1400764135390743e-16
4.448215356677963 7.046735049721348e-23 8.320380373583127e-15 8.081244975181245e-15 2.3913539840188147e-16
4.58368876423945 7.184653785568941e-23 8.741589316041231e-15 8.476040520817358e-15 2.6554879522387396e-16
4.723288106065518 7.32973035870157e-23 9.189711309874626e-15 8.896294290149746e-15 2.9341701972487844e-16
4.867139040275056 7.48548698617868e-23 9.670818791065566e-15 9.348802256236007e-15 3.220165348295581e-16
4.940699165968905 7.573618851464983e-23 9.932562102305201e-15 9.595884546163035e-15 3.3667755614216673e-16
5.015371051989984 7.660254086563685e-23 1.0198015722071198e-14 9.846480483599801e-15 3.5153523847139864e-16
5.091171501069577 7.764520324405879e-23 1.0493051178134659e-14 1.0126144449019711e-14 3.669067291149495e-16
5.129500256944802 7.816058951266801e-23 1.0642222026257844e-14 1.0267570198589271e-14 3.746518276685694e-16
5.168117569889187 7.868885082054772e-23 1.0794810450561995e-14 1.0412300703120813e-14 3.8250974744118043e-16
5.20702561229733 7.935855359098067e-23 1.0968642722323405e-14 1.0577562983102892e-14 3.9107973922051094e-16
5.246226572918644 8.003017720349463e-23 1.1144748040642266e-14 1.0745036007533627e-14 3.9971203310863466e-16
5.265937586045735 8.036681416150514e-23 1.1233675980968498e-14 1.0829625471284158e-14 4.040505096843361e-16
5.285722656980489 8.070405986833735e-23 1.1323200244667026e-14 1.0914796932324534e-14 4.0840331234248764e-16
5.305582063971359 8.104196006157019e-23 1.1413330819617796e-14 1.1000560804264813e-14 4.1277001535297936e-16
5.3255160863122235 8.140796263045553e-23 1.1507951419109505e-14 1.1090767045421859e-14 4.171843736876471e-16
5.365609099470188 8.235558409847398e-23 1.172955442237848e-14 1.1303236936491313e-14 4.2631748588716787e-16
5.406003951863644 8.332009043328094e-23 1.1956264788277012e-14 1.1520750044579795e-14 4.355147436972148e-16
5.446702915881641 8.430275073320638e-23 1.218834858326296e-14 1.174357581935924e-14 4.44772763903718e-16
5.487708281020852 8.53576518246844e-23 1.2433772277641487e-14 1.1979645026138225e-14 4.541272515032609e-16
5.529022354014368 8.690518383639488e-23 1.2754500685008323e-14 1.2290620819377115e-14 4.63879865631208e-16
5.570647458961463 8.851458614374585e-23 1.3088502219312906e-14 1.261480250209067e-14 4.736997172222342e-16
5.612585937458331 9.019097611967411e-23 1.3436789824620549e-14 1.2953206453309891e-14 4.835833713106586e-16
5.654840148729818 9.202011701713989e-23 1.381250814190568e-14 1.3318932391954371e-14 4.935757499513084e-16
5.67608639626678 9.332074203040157e-23 1.4060365609045574e-14 1.3561561303442374e-14 4.988043056031969e-16
5.686739436050992 9.398670137007182e-23 1.4187280981830848e-14 1.368585537704696e-14 5.014256047838868e-16
5.6974124697621304 9.46634384907654e-23 1.4316253182067792e-14 1.3812201668815736e-14 5.040515132520589e-16
5.718818669136295 9.605032564940521e-23 1.4580573313917305e-14 1.4071256372379889e-14 5.093169415374124e-16
5.740305295436557 9.758421524531104e-23 1.4869076565045866e-14 1.4354437127015258e-14 5.146394380306158e-16
5.7835210386641895 1.0164471714823876e-22 1.5604381678077096e-14 1.507873866747955e-14 5.256430105975515e-16
5.827062130521658 1.0626835897579696e-22 1.64370189531718e-14 1.5900195195763482e-14 5.368237574083188e-16
5.8489554468988025 1.0959985594612243e-22 1.70160099017476e-14 1.647314610769356e-14 5.428637940540441e-16
5.870931020387893 1.1313799636973786e-22 1.763132269256666e-14 1.7082390114347023e-14 5.489325782196401e-16
5.892989160043636 1.1689907082207276e-22 1.828589132749876e-14 1.7730861613131915e-14 5.550297143668415e-16
5.915130176081913 1.2117472068473908e-22 1.9025924415645204e-14 1.8464573619775583e-14 5.613507958696243e-16
5.95966208400165 1.3328753309808685e-22 2.1085339535741692e-14 2.0509566362184244e-14 5.757731735574459e-16
6.004529249263818 1.5075114606010047e-22 2.40275240280013e-14 2.343551022923541e-14 5.920137987658776e-16
6.027089341400364 1.6293530235182017e-22 2.6067072095119677e-14 2.546566489501199e-14 6.014072001076884e-16
6.049734195844842 1.7724345527989669e-22 2.8462689464602844e-14 2.785132992406041e-14 6.113595405424405e-16
6.095279466722835 2.186333043528227e-22 3.537360926754187e-14 3.473775329887877e-14 6.358559686630998e-16
6.141167624020661 2.8200011303562374e-22 4.5969488046527416e-14 4.5301797193502094e-14 6.67690853025317e-16
6.164241091010745 3.2244417995206398e-22 5.2759854797813424e-14 5.207216319458788e-14 6.876916032255435e-16
6.187401249150058 3.6807435083890704e-22 6.045236119264014e-14 5.974413286517914e-14 7.082283274610011e-16
6.1990139391386085 3.902737849601955e-22 6.421868765530437e-14 6.350000979548287e-14 7.186778598215051e-16
6.204828454712694 4.0193016262599777e-22 6.619875334566527e-14 6.547479764303021e-14 7.239557026350705e-16
6.210648424152782 4.1037925306159225e-22 6.765373452196617e-14 6.692528665356108e-14 7.284478684050854e-16
6.233982942956859 4.387838774378353e-22 7.260820565397682e-14 7.186411518195532e-14 7.440904720214776e-16
6.239830258556775 4.422425121168764e-22 7.324916817470474e-14 7.250292147337773e-14 7.462467013270145e-16
6.245683058788269 4.422643048537809e-22 7.332148695308887e-14 7.257308062151327e-14 7.484063315755908e-16
6.257405133728602 4.408454677526773e-22 7.322343317022501e-14 7.247125517077457e-14 7.521779994504664e-16
6.269149208991335 4.34459438524949e-22 7.229816524026261e-14 7.154464190863635e-14 7.535233316262531e-16
6.280915325867298 4.1938812798828713e-22 6.992114057303573e-14 6.916927200327897e-14 7.518685697567662e-16
6.304513850009849 3.826131330187419e-22 6.402961774290829e-14 6.328377292569373e-14 7.458448172145685e-16
6.32820103803542 3.37604897873347e-22 5.670984226186392e-14 5.597290904721558e-14 7.369332146483534e-16
6.3519772230701035 2.9647795716239894e-22 4.998857707342456e-14 4.925963644942996e-14 7.289406239945837e-16
6.375842739491607 2.6179962230232144e-22 4.4307377490271564e-14 4.358548707845766e-14 7.21890411813903e-16
6.399797922933955 2.3416933073237125e-22 3.978008519316937e-14 3.906181960799965e-14 7.182655851697264e-16
6.42384311029221 2.111074575290673e-22 3.599713477044152e-14 3.5281811604527744e-14 7.153231659137661e-16
6.447978639727206 1.9430721967379058e-22 3.3256915019357014e-14 3.254186276938895e-14 7.150522499680679e-16
6.472204850670314 1.8024620237547737e-22 3.096619262224168e-14 3.025088121079097e-14 7.153114114507084e-16
6.496522083828205 1.710360290590062e-22 2.9494290748781786e-14 2.877655526027253e-14 7.17735488509259e-16
6.520930681187647 1.6322622034583674e-22 2.8253284383909082e-14 2.7532796908973487e-14 7.204874749355918e-16
6.57002334288761 1.5489957574986232e-22 2.701385559150804e-14 2.628486620296081e-14 7.289893885472209e-16
