Dust emission spectrum from A.P. Jones, M. Kohler, N. Ysard, M. Bocchio, and L. Verstraete (2017), A&A, 602A, 46J 
inside the DustPedia framework.

lambda    nu*dP/dnu     j_nu    j_nu(carb.) j_nu(sil)
 (um)   (erg s-1 H-1) (Jy cm2 sr-1 H-1)
0.9927057738263894 1.6882073880742233e-22 4.448522355840934e-15 4.448522280547386e-15 7.529354731785768e-23
1.0001793341362166 1.7166269542201762e-22 4.557463901047204e-15 4.557463810422677e-15 9.062452889075275e-23
1.0077091589558085 1.745146001807857e-22 4.6680597416680776e-15 4.668059632735504e-15 1.0893257310133518e-22
1.0114953028030835 1.759441296100665e-22 4.723980372617893e-15 4.723980253247284e-15 1.1937060914471438e-22
1.0152956718711033 1.7737596392075244e-22 4.7803174320608455e-15 4.780317301295493e-15 1.3076535214032268e-22
1.0229392996569957 1.8024492085599518e-22 4.894206983581971e-15 4.894206826814626e-15 1.5676734563663659e-22
1.0267826658714554 1.8167876992465574e-22 4.951675112133358e-15 4.951674940565442e-15 1.7156791504174818e-22
1.0306404723013447 1.831146235586231e-22 5.009560828157077e-15 5.009560640453662e-15 1.877034138756113e-22
1.03451277320114 1.8455242781512392e-22 5.0678651830708384e-15 5.0678649777826715e-15 2.0528816566138344e-22
1.0383996230291617 1.8599213001278677e-22 5.126589254710113e-15 5.126589030264389e-15 2.2444572441339375e-22
1.0403485208654093 1.8671267672976642e-22 5.156109028702976e-15 5.156108794047363e-15 2.3465561141488684e-22
1.0423010764483396 1.8743367876505132e-22 5.1857341487682016e-15 5.185733903458628e-15 2.4530957113454354e-22
1.0462171883269815 1.8887702401333875e-22 5.24530100025666e-15 5.245300732232799e-15 2.680238588660325e-22
1.0471985131304309 1.8923813529078472e-22 5.260258779897592e-15 5.260258505888056e-15 2.7400953520834283e-22
1.048180758391296 1.895993550514114e-22 5.275243023109046e-15 5.275242742985968e-15 2.8012307901843817e-22
1.0501480137395462 1.9032211705996833e-22 5.305290974985821e-15 5.305290682241612e-15 2.927442093655772e-22
1.0521189612883777 1.9104530416979593e-22 5.335445006671726e-15 5.335444700763093e-15 3.059086343121908e-22
1.0531058218030118 1.9140657007695622e-22 5.350548285513625e-15 5.350547972811682e-15 3.127019433839431e-22
1.0540936079674168 1.917663503273785e-22 5.3656336344657445e-15 5.365633314824738e-15 3.19641008026669e-22
1.058054026499678 1.9320643364300855e-22 5.426238286566026e-15 5.426237937666579e-15 3.48899447816119e-22
1.0590464539527713 1.935666916175219e-22 5.441455360392933e-15 5.441455003788056e-15 3.566048756451556e-22
1.06003981227728 1.9392704309760042e-22 5.4566988377357885e-15 5.4566984732628454e-15 3.6447294384911326e-22
1.0620293250338977 1.9464802391634817e-22 5.487265082533334e-15 5.4872647018232255e-15 3.8071010956418717e-22
1.0660195594769086 1.96091078716244e-22 5.54871529794362e-15 5.548714882659788e-15 4.152838328358789e-22
1.070024785945596 1.9753555714979432e-22 5.610590247267205e-15 5.6105897944193735e-15 4.528478297886572e-22
1.0740450607676866 1.9898141989320327e-22 5.672891285466551e-15 5.672890791819682e-15 4.9364686909512285e-22
1.07808044048254 2.0042862922227056e-22 5.735619809611736e-15 5.735619271667198e-15 5.379445385801683e-22
1.0861967418109137 2.0332470192553998e-22 5.862300453918953e-15 5.862299815726499e-15 6.381924539563904e-22
1.0902777775684922 2.047683979554644e-22 5.926107506127176e-15 5.926106811350452e-15 6.947767231276524e-22
1.0943741465085532 2.0621321759846582e-22 5.990343912980718e-15 5.990343156850235e-15 7.561304836791646e-22
1.1026131145906286 2.091061141273126e-22 6.120111271620738e-15 6.12011037692702e-15 8.9469371759636e-22
1.1109141095355224 2.120031823718019e-22 6.2516160273671944e-15 6.2516149700953635e-15 1.0572718289585334e-21
1.1192775983109025 2.1490194019586167e-22 6.3848041662616544e-15 6.384802918488089e-15 1.2477735666992292e-21
1.1277040513999907 2.177916544822116e-22 6.519372674416337e-15 6.519371203716357e-15 1.4706999789570825e-21
1.1361939428280308 2.206847503535347e-22 6.6557074826856634e-15 6.655705751458723e-15 1.7312269371998172e-21
1.1447477501889525 2.2358114493901697e-22 6.793825808752766e-15 6.7938237734544106e-15 2.0352983545330517e-21
1.1533659546722406 2.2648186492929203e-22 6.933778966704513e-15 6.933776576970201e-15 2.3897343112606477e-21
1.1707974979042381 2.323050636315624e-22 7.219546119107771e-15 7.219542837012847e-15 3.2820949228980658e-21
1.1884924949847024 2.3814520596776655e-22 7.512901932644665e-15 7.512897447523713e-15 4.485120950734648e-21
1.2064549276569216 2.440421281710122e-22 7.815294325065694e-15 7.815288226188377e-15 6.098877319855521e-21
1.2246888378427687 2.499554956231042e-22 8.125645707513167e-15 8.125637454846207e-15 8.252666960550142e-21
1.2431983285522175 2.5587971586219104e-22 8.443951115778021e-15 8.443940002792639e-15 1.1112985381107819e-20
1.2619875648066055 2.6182250297213176e-22 8.770643909728819e-15 8.77062901660228e-15 1.4893126539262397e-20
1.3004222497298317 2.737223233471986e-22 9.448525558179209e-15 9.448499186200805e-15 2.637197840042527e-20
1.3400274889804893 2.85684133678895e-22 1.0161767678781278e-14 1.016172183606919e-14 4.58427120879469e-20
1.3808389325824078 2.977452195530008e-22 1.0913329149734092e-14 1.0913250883909348e-14 7.82658247457392e-20
1.4228933163050095 3.1000337389108343e-22 1.1708686903592827e-14 1.1708555604078357e-14 1.3129951446857861e-19
1.466228494730424 3.226752854443861e-22 1.2558471701318041e-14 1.2558255150319486e-14 2.1655099855141755e-19
1.5108834753276823 3.357231697750482e-22 1.3464236122565784e-14 1.3463884841623316e-14 3.512809424641524e-19
1.5568984535646726 3.4912424934544748e-22 1.4428119651778756e-14 1.442755859911883e-14 5.610526599253802e-19
1.6043148490894465 3.6295175644473747e-22 1.545638541843746e-14 1.5455501490534335e-14 8.839279031238156e-19
1.6531753430134553 3.7728216494988844e-22 1.655596988526338e-14 1.6554597799493458e-14 1.3720857699170808e-18
1.7035239163302658 3.9220666372628846e-22 1.7735058951385246e-14 1.7732960018703218e-14 2.0989326820275685e-18
1.755405889504358 4.080124100957014e-22 1.901167392375347e-14 1.9008508112201917e-14 3.165811551550031e-18
1.8088679632656115 4.2467830278529475e-22 2.0390898984036385e-14 2.0386189278881528e-14 4.709705154859636e-18
1.8639582606462262 4.421735519452163e-22 2.187753454756715e-14 2.1870621078868377e-14 6.913468698771991e-18
1.9207263702978936 4.605273471020468e-22 2.347958176484764e-14 2.3469564384281586e-14 1.0017380566055761e-17
1.979223391128241 4.797924608140578e-22 2.5206797207374903e-14 2.5192464294775263e-14 1.4332912599641815e-17
2.039501978296691 5.000057682591259e-22 2.7068773525380942e-14 2.7048515830041724e-14 2.0257695339213746e-17
2.1016163906111602 5.213549318595199e-22 2.90841493495351e-14 2.905585507954915e-14 2.829426998595454e-17
2.1656225393682647 5.438995374741374e-22 3.126589646270908e-14 3.122682970361825e-14 3.9066759090835696e-17
2.231578038680979 5.675193907490381e-22 3.361725254555814e-14 3.35639129214797e-14 5.333962407843111e-17
2.299542257339062 5.921696602500053e-22 3.614572835262924e-14 3.607369112386291e-14 7.203722876633314e-17
2.369576372248914 6.178613457454348e-22 3.886253890086462e-14 3.876627427392022e-14 9.626462694440156e-17
2.4417434235010123 6.446182082128149e-22 4.1780345629987917e-14 4.16530224301729e-14 1.2732319981503047e-16
2.5161083711144245 6.725829240058223e-22 4.492050320584023e-14 4.475377190879807e-14 1.6673129704215071e-16
2.5927381535095444 7.020605556844758e-22 4.831730083175179e-14 4.810106430290623e-14 2.1623652884555573e-16
2.6717017477616296 7.333158396491081e-22 5.2005403877610236e-14 5.1727591055745533e-14 2.778128218647153e-16
2.753070231689431 7.667954346553619e-22 5.603588587142606e-14 5.568222269408021e-14 3.536631773458646e-16
2.836916847834745 8.038598879776295e-22 6.053358537960349e-14 6.008735526583748e-14 4.462301137660083e-16
2.9233170693905177 8.476461218683045e-22 6.57748603793133e-14 6.521678767208299e-14 5.580727072303089e-16
2.967498994190263 8.752206810358887e-22 6.894100097235935e-14 6.832011441106475e-14 6.208865612945913e-16
3.0123486681368425 9.049172840991991e-22 7.235750026276686e-14 7.166763664774613e-14 6.898636150207147e-16
3.0578761833420214 9.557229632854634e-22 7.757492250753652e-14 7.68091966624227e-14 7.657258451138251e-16
3.1040917844459814 1.0159824283473615e-21 8.371247537781558e-14 8.286422303245547e-14 8.482523453601278e-16
3.127460860933648 1.0732127191305957e-21 8.90937271199365e-14 8.820129928608841e-14 8.924278338480958e-16
3.1510058709225794 1.1465015326778332e-21 9.589440858350747e-14 9.49559422545557e-14 9.384663289517777e-16
3.162844764501044 1.2132478038671329e-21 1.0185839385321851e-13 1.0089610566090838e-13 9.622881923101453e-16
3.1747281389236908 1.2890738608451857e-21 1.0863099976135852e-13 1.0764440757596845e-13 9.865921853900423e-16
3.1986289994194426 1.495380222678724e-21 1.2696526864180386e-13 1.2592847157356565e-13 1.036797068238209e-15
3.2227097969389145 1.974904676635424e-21 1.6894166521747957e-13 1.6785167748493098e-13 1.0899877325485927e-15
3.2348180950136065 2.4256804840551484e-21 2.0828255232344634e-13 2.0716418111905163e-13 1.1183712043946925e-15
3.240889293275058 2.7625392848291444e-21 2.376523383049461e-13 2.365189955204737e-13 1.1333427844723933e-15
3.2469718861334385 3.1529074013234674e-21 2.7174350791174644e-13 2.705946739180987e-13 1.1488339936477357e-15
3.2714166318528037 5.2060906760375385e-21 4.520817947465564e-13 4.508689497914364e-13 1.2128449551199785e-15
3.2744851364798273 5.3344779805504875e-21 4.636650737680565e-13 4.624446868794239e-13 1.2203868886325996e-15
3.2775565192852394 5.466335530406162e-21 4.755715962873091e-13 4.743436299206958e-13 1.2279663666130975e-15
3.283707930232385 5.339885971984065e-21 4.654423943646918e-13 4.642008765824963e-13 1.2415177821954509e-15
3.2898708863219004 4.937694766035889e-21 4.311938189166698e-13 4.299399714722527e-13 1.2538474444170865e-15
3.29141343181113 4.842663395704297e-21 4.2309330512578153e-13 4.2183636171477343e-13 1.2569434110080321e-15
3.292184975758714 4.795940693676886e-21 4.1910946191897283e-13 4.178509684896229e-13 1.2584934293499952e-15
3.295272960557952 4.504104733566107e-21 3.9397558438173334e-13 3.9271106221877147e-13 1.264522162961729e-15
3.3076538914384823 3.486256548157751e-21 3.060897842837655e-13 3.048010493100289e-13 1.288734973736598e-15
3.310756385682612 3.2771763493944474e-21 2.8800264109531796e-13 2.8670780339602594e-13 1.2948376992919875e-15
3.313861789986515 3.0835157909068944e-21 2.712376677207137e-13 2.699367074527762e-13 1.3009602679375402e-15
3.3200813396944477 2.812884768276474e-21 2.478963305089372e-13 2.465821999018637e-13 1.314130607073482e-15
3.345076488085796 2.3387873988864643e-21 2.076663984577483e-13 2.0629357232878206e-13 1.3728261289661853e-15
3.3482140837626964 2.3578300868526774e-21 2.0955361492885713e-13 2.0817283746692066e-13 1.3807774619364928e-15
3.3513546224236106 2.377051155453205e-21 2.1146005757707308e-13 2.1007129311973038e-13 1.3887644573427346e-15
3.3576445397418455 2.5127524132992412e-21 2.2395143472025088e-13 2.2254597087492768e-13 1.4054638453232603e-15
3.3702598118196083 3.00557296114625e-21 2.688809846322806e-13 2.6744049347129855e-13 1.4404911609820532e-15
3.382922481734668 3.1226123804963685e-21 2.8040099897074323e-13 2.789264622607634e-13 1.4745367099798187e-15
3.389271646505754 3.1829914604457586e-21 2.863592952960894e-13 2.848675022414696e-13 1.4917930546199183e-15
3.395632727569191 3.249256334939173e-21 2.9286948134850835e-13 2.9135990455547294e-13 1.50957679303542e-15
3.421196662673239 3.570421928551896e-21 3.2424031594517945e-13 3.2265712330679755e-13 1.5831926383819178e-15
3.4276182099114902 3.511762560797151e-21 3.195118861465125e-13 3.1791226532420004e-13 1.599620822312401e-15
3.4340518103208963 3.2462685190004378e-21 2.9591073205720233e-13 2.942955732465146e-13 1.6151588106877483e-15
3.4469541582030403 2.865630137419581e-21 2.621954051768316e-13 2.605504236250473e-13 1.644981551784317e-15
3.472904465399547 2.760050888433095e-21 2.544364685466697e-13 2.5272278811741485e-13 1.7136804292548207e-15
3.4990501388274233 2.5999956032661e-21 2.414861414512141e-13 2.397021622224984e-13 1.783979228715648e-15
3.5253949054701885 2.0314876383280715e-21 1.9010405891890624e-13 1.8825178713457535e-13 1.8522717843309597e-15
3.5519380250092896 1.4908372066503824e-21 1.405610638215202e-13 1.3864015414938444e-13 1.9209096721357292e-15
3.578680990867387 1.2796083733015116e-21 1.2155406660031228e-13 1.1955792859460156e-13 1.9961380057107145e-15
3.605625307711299 1.1979897420225093e-21 1.146576736159889e-13 1.1258230884787958e-13 2.0753647681093018e-15
3.660119384959845 1.1458417478551969e-21 1.1132413409696755e-13 1.0908233600465296e-13 2.241798092314551e-15
3.715437065384467 1.1105551567378192e-21 1.0952656701771524e-13 1.0710934211207862e-13 2.417224905636644e-15
3.8285932144167436 1.1071917178354407e-21 1.1252045684912333e-13 1.0972630153055969e-13 2.794155318563641e-15
3.94519561050918 1.1204905148696881e-21 1.1734002024579972e-13 1.1413501001917597e-13 3.205010226623748e-15
4.06534921144712 1.1394733310298242e-21 1.2296215202860748e-13 1.1931290524777452e-13 3.649246780833002e-15
4.189162171576248 1.1609094470214638e-21 1.290906987388293e-13 1.2496309527037826e-13 4.127603468451075e-15
4.316745939156006 1.1834677179053042e-21 1.356070717656323e-13 1.309688843640289e-13 4.638187401603363e-15
4.448215356677963 1.2065884949440907e-21 1.424670455393523e-13 1.3729326353620308e-13 5.173782003149225e-15
4.58368876423945 1.230202554859824e-21 1.496791053694131e-13 1.4394421247504397e-13 5.734892894369126e-15
4.723288106065518 1.2545814235121117e-21 1.5729420500606542e-13 1.5096933484457828e-13 6.32487016148717e-15
4.867139040275056 1.280171348119099e-21 1.6539077754103519e-13 1.5846292327776757e-13 6.927854263267588e-15
4.940699165968905 1.2943492551544585e-21 1.6974981988177723e-13 1.625138113385285e-13 7.236008543248752e-15
5.015371051989984 1.308180031508186e-21 1.7415663211511885e-13 1.6660901039273716e-13 7.547621722381761e-15
5.091171501069577 1.3245466609417371e-21 1.7900057338252253e-13 1.711311376874219e-13 7.869435695100634e-15
5.129500256944802 1.3325860613825407e-21 1.8144280669775327e-13 1.73411503727536e-13 8.031302970217259e-15
5.168117569889187 1.3407853010519778e-21 1.8393359451598935e-13 1.7573820725797422e-13 8.19538725801519e-15
5.20702561229733 1.351098918732421e-21 1.8674384362491323e-13 1.783692315649304e-13 8.374612059982845e-15
5.246226572918644 1.3613973434174828e-21 1.8958386580862208e-13 1.8102892563665985e-13 8.554940171962307e-15
5.265937586045735 1.3665421762051947e-21 1.9101531125729035e-13 1.8236981693171076e-13 8.64549432557953e-15
5.285722656980489 1.371684832964636e-21 1.924545315510804e-13 1.837182357995237e-13 8.736295751556666e-15
5.305582063971359 1.3768258975845242e-21 1.9390164598944575e-13 1.8507431124406635e-13 8.82733474537938e-15
5.3255160863122235 1.3823777507209625e-21 1.9541498747940954e-13 1.8649565091612919e-13 8.919336563280411e-15
5.365609099470188 1.3966796803993554e-21 1.989231270861447e-13 1.8981343346799789e-13 9.109693618146808e-15
5.406003951863644 1.411174717136604e-21 2.0250072332936086e-13 1.9319955481181147e-13 9.301168517549421e-15
5.446702915881641 1.4258802878557118e-21 2.061513513525628e-13 1.9665766754915419e-13 9.493683803408547e-15
5.487708281020852 1.4416035665940285e-21 2.0999371560128083e-13 2.0030571682072843e-13 9.687998780552352e-15
5.529022354014368 1.4646134466560256e-21 2.149516563225258e-13 2.050610955977297e-13 9.89056072479615e-15
5.570647458961463 1.4884525081043606e-21 2.200949561468666e-13 2.1000067812200804e-13 1.0094278024858582e-14
5.612585937458331 1.513192815342905e-21 2.2543778434008076e-13 2.1513871250158327e-13 1.0299071838497465e-14
5.654840148729818 1.5401059921337854e-21 2.3117473923428424e-13 2.2066884430224294e-13 1.0505894932041255e-14
5.67608639626678 1.5592601286437873e-21 2.3492920235457257e-13 2.2431505133739484e-13 1.0614151017177806e-14
5.686739436050992 1.569055329137581e-21 2.368487084450693e-13 2.2618030857758987e-13 1.0668399867479512e-14
5.6974124697621304 1.5790008716910154e-21 2.387973288762326e-13 2.28074601274768e-13 1.0722727601464615e-14
5.718818669136295 1.599358311603003e-21 2.4278482097676244e-13 2.319532062540429e-13 1.0831614722719539e-14
5.740305295436557 1.6218575129833333e-21 2.471252494834488e-13 2.361836151459682e-13 1.0941634337480569e-14
5.7835210386641895 1.681427745089924e-21 2.5813088013444606e-13 2.4696184934849954e-13 1.1169030785946568e-14
5.827062130521658 1.749093099114544e-21 2.7054032543737383e-13 2.5914046867469755e-13 1.1399856762676226e-14
5.8489554468988025 1.7979171886695373e-21 2.79137015471647e-13 2.6761234082425556e-13 1.1524674647391352e-14
5.870931020387893 1.849690548870639e-21 2.882540967222941e-13 2.766040852418181e-13 1.1650011480475949e-14
5.892989160043636 1.9046460567647333e-21 2.9793351278522497e-13 2.861576550012194e-13 1.1775857784005523e-14
5.915130176081913 1.9670905773690893e-21 3.088574616245484e-13 2.969510985636353e-13 1.1906363060913045e-14
5.95966208400165 2.1441174024337346e-21 3.3918733720983466e-13 3.2698250834682053e-13 1.2204828863014253e-14
6.004529249263818 2.3991624516624786e-21 3.8239134468282433e-13 3.6985003938910917e-13 1.2541305293715172e-14
6.027089341400364 2.5770887700850463e-21 4.1229345510573904e-13 3.995571858389291e-13 1.273626926681004e-14
6.049734195844842 2.7858371922301393e-21 4.4736443879505587e-13 4.3442153298666343e-13 1.2942905808392373e-14
6.095279466722835 3.3895248421796256e-21 5.484055950432815e-13 5.349528878755212e-13 1.3452707167760284e-14
6.141167624020661 4.312737500297216e-21 7.030292748240099e-13 6.88912573602378e-13 1.4116701221631858e-14
6.164241091010745 4.901657758256662e-21 8.02032623546325e-13 7.874980502964694e-13 1.4534573249855526e-14
6.187401249150058 5.565172046333965e-21 9.140212836819143e-13 8.990578036976271e-13 1.496347998428742e-14
6.1990139391386085 5.887701783052303e-21 9.688082991584417e-13 9.536266138559836e-13 1.5181685302458145e-14
6.204828454712694 6.0569775584856646e-21 9.97597096955189e-13 9.823052179997098e-13 1.5291878955479246e-14
6.210648424152782 6.179477917756156e-21 1.018727811928352e-12 1.0033423028996297e-12 1.5385509028722456e-14
6.233982942956859 6.5904786071865976e-21 1.0905661093633364e-12 1.074855241514701e-12 1.5710867848635416e-14
6.239830258556775 6.6400369133218125e-21 1.0997974351719861e-12 1.0840422311392454e-12 1.5755204032740614e-14
6.245683058788269 6.6395483018060074e-21 1.1007480116357635e-12 1.0849484077276398e-12 1.5799603908123335e-14
6.257405133728602 6.617261089663123e-21 1.0991120712637418e-12 1.0832352277304372e-12 1.587684353330441e-14
6.269149208991335 6.522639695905262e-21 1.085429019883463e-12 1.0695260893373476e-12 1.5902930546115363e-14
6.280915325867298 6.301632603972554e-21 1.0506194852380178e-12 1.0347536947199354e-12 1.5865790518082346e-14
6.304513850009849 5.763409670908074e-21 9.644962137406516e-13 9.487618747201847e-13 1.5734339020466852e-14
6.32820103803542 5.1062109126890124e-21 8.577257535020586e-13 8.421836917796928e-13 1.5542061722365804e-14
6.3519772230701035 4.506155545089905e-21 7.59774203541141e-13 7.444050331212217e-13 1.5369170419919343e-14
6.375842739491607 4.000144230781917e-21 6.769906651894159e-13 6.617744868735631e-13 1.5216178315852934e-14
6.399797922933955 3.5973796638006624e-21 6.111136289735437e-13 5.959783663994265e-13 1.5135262574117133e-14
6.42384311029221 3.2611282923849837e-21 5.56073556181778e-13 5.410048353907912e-13 1.5068720790986717e-14
6.447978639727206 3.0162156857853855e-21 5.162444756845372e-13 5.011861353651683e-13 1.505834031936866e-14
6.472204850670314 2.8111682005173886e-21 4.82957060084975e-13 4.678979745221333e-13 1.5059085562841766e-14
