Dust emission spectrum from A.P. Jones, M. Kohler, N. Ysard, M. Bocchio, and L. Verstraete (2017), A&A, 602A, 46J 
inside the DustPedia framework.

lambda    nu*dP/dnu     j_nu    j_nu(carb.) j_nu(sil)
 (um)   (erg s-1 H-1) (Jy cm2 sr-1 H-1)
0.9927057738263894 4.730534808223571e-23 1.2465227908682186e-15 1.2465227731071045e-15 1.776111391324088e-23
1.0001793341362166 4.810165157162826e-23 1.2770482257633758e-15 1.277048204383906e-15 2.137946977947196e-23
1.0077091589558085 4.89004234256904e-23 1.308028656098201e-15 1.3080286303972464e-15 2.5700954667151916e-23
1.0114953028030835 4.93006869844393e-23 1.3236899587796472e-15 1.323689930614655e-15 2.8164992417199454e-23
1.0152956718711033 4.9701510570165576e-23 1.3394655742898077e-15 1.3394655434347748e-15 3.085503333437443e-23
1.0229392996569957 5.050437454702795e-23 1.3713499467038229e-15 1.371349909709746e-15 3.6994077095628656e-23
1.0267826658714554 5.090549490163241e-23 1.3874349340860242e-15 1.3874348935972367e-15 4.04887875115551e-23
1.0306404723013447 5.1307082850493604e-23 1.4036342235253379e-15 1.4036341792264005e-15 4.4298937170463717e-23
1.03451277320114 5.170912117128551e-23 1.4199480219987322e-15 1.4199479735471674e-15 4.845156505229872e-23
1.0383996230291617 5.211159297796855e-23 1.4363765423209784e-15 1.4363764893450827e-15 5.297589568235158e-23
1.0403485208654093 5.2312986255855077e-23 1.444633891369988e-15 1.4446338359827677e-15 5.538722020739306e-23
1.0423010764483396 5.251448173000799e-23 1.4529200035257686e-15 1.4529199456222647e-15 5.790350426559519e-23
1.0462171883269815 5.2917771241524984e-23 1.4695786312522677e-15 1.469578567983774e-15 6.326849335152124e-23
1.0471985131304309 5.301865437579396e-23 1.4737613100556017e-15 1.4737612453732682e-15 6.468233352031939e-23
1.048180758391296 5.311956132321257e-23 1.477951204975918e-15 1.4779511388495178e-15 6.612639993052545e-23
1.0501480137395462 5.33214456903758e-23 1.4863526581370114e-15 1.4863525890293292e-15 6.910768176158072e-23
1.0521189612883777 5.352342242355756e-23 1.4947830209736203e-15 1.4947829487562214e-15 7.221739874703222e-23
1.0531058218030118 5.362430779621933e-23 1.4990052223680647e-15 1.499005148545903e-15 7.382216174898425e-23
1.0540936079674168 5.372476658518673e-23 1.5032220934547519e-15 1.50322201799337e-15 7.546138202095977e-23
1.058054026499678 5.412680256170287e-23 1.520161222645395e-15 1.520161140271982e-15 8.237341239792784e-23
1.0590464539527713 5.422736062534619e-23 1.5244139355225726e-15 1.524413851328751e-15 8.419382158560301e-23
1.06003981227728 5.432793786802805e-23 1.528673828496687e-15 1.528673742444001e-15 8.60526854971001e-23
1.0620293250338977 5.45291490056497e-23 1.5372151707409566e-15 1.5372150808520763e-15 8.98888798050238e-23
1.0660195594769086 5.49317917857679e-23 1.5543841944294156e-15 1.5543840963717318e-15 9.805768398371038e-23
1.070024785945596 5.533471718369597e-23 1.5716685595530863e-15 1.5716684526194823e-15 1.0693360424465807e-22
1.0740450607676866 5.573791190247825e-23 1.5890685415320612e-15 1.5890684249574803e-15 1.1657458041225744e-22
1.07808044048254 5.614136307497428e-23 1.6065844257924403e-15 1.606584298749428e-15 1.2704301248184916e-22
1.0861967418109137 5.694835355367255e-23 1.6419468747574554e-15 1.6419467240213543e-15 1.5073610089934346e-22
1.0902777775684922 5.735043232645904e-23 1.6597523391445669e-15 1.6597521750336814e-15 1.641108855032654e-22
1.0943741465085532 5.775269546937488e-23 1.6776737776180882e-15 1.6776735990040389e-15 1.7861404992963342e-22
1.1026131145906286 5.855773347201926e-23 1.713865929546523e-15 1.7138657181745508e-15 2.1137197194981731e-22
1.1109141095355224 5.936338964241605e-23 1.750526166520099e-15 1.750525916707316e-15 2.498127829226884e-22
1.1192775983109025 6.016894568638947e-23 1.78763828166419e-15 1.7876379868016687e-15 2.9486252149355666e-22
1.1277040513999907 6.097135966726991e-23 1.825115921369135e-15 1.8251155737813858e-15 3.4758774919976425e-22
1.1361939428280308 6.177411020507433e-23 1.8630666906956786e-15 1.8630662814805282e-15 4.09215151150729e-22
1.1447477501889525 6.257715358499141e-23 1.9014943374583723e-15 1.9014938563046672e-15 4.8115370517894e-22
1.1533659546722406 6.338076415975601e-23 1.9404123573504575e-15 1.9404117923300726e-15 5.650203845403017e-22
1.1707974979042381 6.499212525032434e-23 2.0198166939990676e-15 2.0198159177785323e-15 7.762205353711764e-22
1.1884924949847024 6.660538191145814e-23 2.1012377740447145e-15 2.101236713008647e-15 1.0610360674788462e-21
1.2064549276569216 6.823164069432687e-23 2.1850750044870114e-15 2.1850735612746087e-15 1.4432124026498446e-21
1.2246888378427687 6.985929166419303e-23 2.2710116936056303e-15 2.27100974016031e-15 1.9534453202750878e-21
1.2431983285522175 7.14866270261272e-23 2.359036479333792e-15 2.3590338480578443e-15 2.631275947477111e-21
1.2619875648066055 7.311556668578178e-23 2.4492570057176473e-15 2.449253478337645e-15 3.527380002458219e-21
1.3004222497298317 7.636582403357161e-23 2.6360452860740404e-15 2.636039036128339e-15 6.249945702086982e-21
1.3400274889804893 7.961669670005017e-23 2.831961176140286e-15 2.831950304923072e-15 1.0871217213446153e-20
1.3808389325824078 8.287705548947364e-23 3.0377132061944033e-15 3.0376946340881307e-15 1.8572106271660472e-20
1.4228933163050095 8.617291031877519e-23 3.2547117595191535e-15 3.2546805821295306e-15 3.117738962247625e-20
1.466228494730424 8.956384264510293e-23 3.4858107641271033e-15 3.4857593087474117e-15 5.145537969190529e-20
1.5108834753276823 9.30376529689724e-23 3.731291256135043e-15 3.731207729427678e-15 8.352670736459179e-20
1.5568984535646726 9.658667515647872e-23 3.991599290332518e-15 3.9914657906994365e-15 1.3349963308085412e-19
1.6043148490894465 1.002305721281101e-22 4.2683423513296714e-15 4.268131875189703e-15 2.104761399691555e-19
1.6531753430134553 1.0399011685494862e-22 4.5633146831741265e-15 4.562987732374827e-15 3.2695079929951593e-19
1.7035239163302658 1.0789080229791698e-22 4.878677279183503e-15 4.878176760185357e-15 5.005189981470277e-19
1.755405889504358 1.120135655393757e-22 5.219364240837916e-15 5.218608741820609e-15 7.554990173077007e-19
1.8088679632656115 1.1635301563573417e-22 5.586681901937786e-15 5.585557101842574e-15 1.1248000952115716e-18
1.8639582606462262 1.2090194753511167e-22 5.9818967516973236e-15 5.980244346710786e-15 1.6524049865389295e-18
1.9207263702978936 1.2567044166845453e-22 6.407196943127811e-15 6.404800761045262e-15 2.3961820825473064e-18
1.979223391128241 1.306757438881329e-22 6.865295404021728e-15 6.861864159425784e-15 3.4312445959436627e-18
2.039501978296691 1.3593149838288344e-22 7.358912993149857e-15 7.35405937610418e-15 4.8536170456755074e-18
2.1016163906111602 1.4149385889219818e-22 7.893333835713274e-15 7.88654900353404e-15 6.7848321792346705e-18
2.1656225393682647 1.4738377439568784e-22 8.472310625485623e-15 8.462934566892525e-15 9.376058593098156e-18
2.231578038680979 1.535729066931668e-22 9.096956461074674e-15 9.084143703028807e-15 1.2812758045865759e-17
2.299542257339062 1.6005390176097834e-22 9.769606994705332e-15 9.752287423170119e-15 1.73195715352103e-17
2.369576372248914 1.668360841716589e-22 1.0493735942271362e-14 1.0470570403401892e-14 2.3165538869469747e-17
2.4417434235010123 1.7393266616531415e-22 1.1273288306390824e-14 1.124262018631875e-14 3.066812007207609e-17
2.5161083711144245 1.8139103851243312e-22 1.2114754086349514e-14 1.2074555622739398e-14 4.019846361012043e-17
2.5927381535095444 1.8930592730678444e-22 1.3028436599743153e-14 1.2976251885876618e-14 5.218471386653203e-17
2.6717017477616296 1.9776414099585264e-22 1.402506732967783e-14 1.3957955661643912e-14 6.711166803391868e-17
2.753070231689431 2.0690778262522291e-22 1.5120409393553437e-14 1.5034887536730005e-14 8.552185682342884e-17
2.836916847834745 2.1714734783889217e-22 1.635198834641422e-14 1.6243969848376343e-14 1.0801849803787607e-16
2.9233170693905177 2.2942252617983864e-22 1.780251715667349e-14 1.7667280536575665e-14 1.3523662009782826e-16
2.967498994190263 2.3726917371590617e-22 1.8689657009131433e-14 1.8539111925639148e-14 1.5054508349228594e-16
3.0123486681368425 2.4576462945669744e-22 1.965142511140541e-14 1.9484059536031825e-14 1.6736557537358385e-16
3.0578761833420214 2.6052260040798775e-22 2.114631678267528e-14 2.096044157870819e-14 1.8587520396709681e-16
3.1040917844459814 2.781454956190508e-22 2.291796324798178e-14 2.2711937325673595e-14 2.0602592230818328e-16
3.127460860933648 2.950047792929951e-22 2.4490089277640127e-14 2.4273270942592284e-14 2.1681833504784088e-16
3.1510058709225794 3.166686740179477e-22 2.6486449731077388e-14 2.6258379480710115e-14 2.2807025036727064e-16
3.162844764501044 3.3641861527568414e-22 2.824407322649293e-14 2.8010179183913537e-14 2.3389404257939136e-16
3.1747281389236908 3.589083587804622e-22 3.0245414961301736e-14 3.000557808504996e-14 2.398368762517778e-16
3.1986289994194426 4.202451360748155e-22 3.5680916323455884e-14 3.542879971644566e-14 2.521166070102174e-16
3.2227097969389145 5.629541297640533e-22 4.815746767354144e-14 4.789233654909619e-14 2.651311244452427e-16
3.2348180950136065 6.972153912038902e-22 5.986683001067291e-14 5.959475297639438e-14 2.720770342785301e-16
3.240889293275058 7.975469035904068e-22 6.861038595433118e-14 6.833464511641696e-14 2.75740837914206e-16
3.2469718861334385 9.13796258983962e-22 7.875848203746749e-14 7.847895021767133e-14 2.7953181979613595e-16
3.2714166318528037 1.5262230585003617e-21 1.3253277793378318e-13 1.322375777811096e-13 2.952001526735716e-16
3.2744851364798273 1.5645382076129256e-21 1.3598738734899242e-13 1.3569034007155604e-13 2.970472774364128e-16
3.2775565192852394 1.6038966533037687e-21 1.395391277115531e-13 1.3924022401783806e-13 2.9890369371508167e-16
3.283707930232385 1.56623113149108e-21 1.3651796532630227e-13 1.3621574041828683e-13 3.022249080154521e-16
3.2898708863219004 1.446328519641009e-21 1.2630345684425147e-13 1.2599820820774253e-13 3.0524863650894416e-16
3.29141343181113 1.4180031897359776e-21 1.23887953219396e-13 1.235819452771608e-13 3.060079422351745e-16
3.292184975758714 1.4040777436281754e-21 1.2270007183371904e-13 1.223936837319349e-13 3.063881017841416e-16
3.295272960557952 1.316978930626699e-21 1.1519659832627395e-13 1.1488873124225195e-13 3.0786708402198247e-16
3.3076538914384823 1.0134156330167668e-21 8.897686335327656e-14 8.866305534504786e-14 3.138080082286817e-16
3.310756385682612 9.511212444030652e-22 8.35858071661489e-14 8.327050157301595e-14 3.1530559313296493e-16
3.313861789986515 8.934450379921955e-22 7.859079206154283e-14 7.827398393232806e-14 3.1680812921477856e-16
3.3200813396944477 8.128218625138764e-22 7.163306486887883e-14 7.13130255172671e-14 3.2003935161171204e-16
3.345076488085796 6.71358657251942e-22 5.961150401756063e-14 5.927706662531189e-14 3.344373922487458e-16
3.3482140837626964 6.770202369958204e-22 6.01705944942971e-14 5.983420673349136e-14 3.363877608057438e-16
3.3513546224236106 6.827359345652447e-22 6.073549561686984e-14 6.039714863257568e-14 3.383469842941506e-16
3.3576445397418455 7.2315907515711015e-22 6.445223634260135e-14 6.41097933164528e-14 3.4244302614853414e-16
3.3702598118196083 8.701690411200014e-22 7.784602523295342e-14 7.749499047588022e-14 3.5103475707318635e-16
3.382922481734668 9.049921624320292e-22 8.126551601204388e-14 8.090612673956236e-14 3.5938927248153784e-16
3.389271646505754 9.229658953308256e-22 8.303505260810406e-14 8.267142805516693e-14 3.636245529371194e-16
3.395632727569191 9.426518175631927e-22 8.496527218654456e-14 8.459728289972907e-14 3.6798928681545843e-16
3.421196662673239 1.0379592718894183e-21 9.426007597711336e-14 9.38740148949992e-14 3.8606108211414615e-16
3.4276182099114902 1.0204497551927422e-21 9.284392676177097e-14 9.245382882503556e-14 3.9009793673542156e-16
3.4340518103208963 9.413030193144714e-22 8.580364313755725e-14 8.540972517946106e-14 3.9391795809619166e-16
3.4469541582030403 8.279249682108026e-22 7.57523169726012e-14 7.535106319286616e-14 4.0125377973504487e-16
3.472904465399547 7.965769987677559e-22 7.343279043924979e-14 7.301464377982962e-14 4.1814665942016797e-16
3.4990501388274233 7.489140652812467e-22 6.955872066711389e-14 6.91232788770038e-14 4.354417901100937e-16
3.5253949054701885 5.791378945105367e-22 5.419499599358259e-14 5.374273853503484e-14 4.522574585477501e-16
3.5519380250092896 4.1783743747172274e-22 3.9395095892087224e-14 3.892592630425809e-14 4.69169587829124e-16
3.578680990867387 3.547621406250904e-22 3.3699983345334565e-14 3.321227606554938e-14 4.877072797851826e-16
3.605625307711299 3.3031968617184186e-22 3.161436649873694e-14 3.110712924746565e-14 5.072372512712833e-16
3.660119384959845 3.1457965043913004e-22 3.056295274213424e-14 3.0014656994205215e-14 5.48295747929022e-16
3.715437065384467 3.0392409794560956e-22 2.997398452474798e-14 2.9382365673953066e-14 5.916188507949135e-16
3.8285932144167436 3.027037313818572e-22 3.076284043346067e-14 3.0077974327667723e-14 6.848661057929504e-16
3.94519561050918 3.065477057251331e-22 3.210229227176805e-14 3.1315543055574084e-14 7.86749216193957e-16
4.06534921144712 3.1218267859205217e-22 3.368806705729658e-14 3.2790873487205606e-14 8.971935700909837e-16
4.189162171576248 3.1864522274284325e-22 3.5432681299304667e-14 3.441623840755379e-14 1.0164428917508834e-15
4.316745939156006 3.2554236156199355e-22 3.7302112866439015e-14 3.615801709416679e-14 1.1440957722722351e-15
4.448215356677963 3.327130130741881e-22 3.9284843327941623e-14 3.8006413284090776e-14 1.2784300438508456e-15
4.58368876423945 3.4014007121019744e-22 4.138494214461454e-14 3.996530473332461e-14 1.419637411289933e-15
4.723288106065518 3.4790843681102293e-22 4.361931394607844e-14 4.2050691584309295e-14 1.5686223617691555e-15
4.867139040275056 3.561655704977084e-22 4.6014543853454603e-14 4.429302702428821e-14 1.7215168291663815e-15
4.940699165968905 3.6075872380339297e-22 4.731236808190382e-14 4.551247268452578e-14 1.799895397378034e-15
5.015371051989984 3.6528274124939075e-22 4.862970726776012e-14 4.6750381942328396e-14 1.8793253254317276e-15
5.091171501069577 3.7060489999860663e-22 5.0083920449398975e-14 4.812241835043112e-14 1.961502098967852e-15
5.129500256944802 3.73237786640426e-22 5.081946565119861e-14 4.8816557860051155e-14 2.002907791147455e-15
5.168117569889187 3.759284181932643e-22 5.157116891477363e-14 4.952625228344849e-14 2.044916631325138e-15
5.20702561229733 3.792625353774765e-22 5.242025037350071e-14 5.0329518128706295e-14 2.0907322447944125e-15
5.246226572918644 3.8260417308611923e-22 5.32802407459481e-14 5.114335981742712e-14 2.136880928520972e-15
5.265937586045735 3.8427824149510453e-22 5.3714425494299307e-14 5.1554350848563115e-14 2.1600746457362e-15
5.285722656980489 3.8595471772266405e-22 5.4151458566983935e-14 5.196811361606349e-14 2.1833449509204535e-15
5.305582063971359 3.8763379084094243e-22 5.4591383134971136e-14 5.2384693566872266e-14 2.2066895680988733e-15
5.3255160863122235 3.8943998409022948e-22 5.505181892234836e-14 5.282152996927465e-14 2.2302889530736983e-15
5.365609099470188 3.9402941641268133e-22 5.6119928410734414e-14 5.384081337366743e-14 2.279115037066994e-15
5.406003951863644 3.986935917883722e-22 5.721172562370316e-14 5.488344157693e-14 2.328284046773176e-15
5.446702915881641 4.034381077849841e-22 5.832839672120599e-14 5.5950618825848504e-14 2.3777778953574835e-15
5.487708281020852 4.085080827044583e-22 5.950604738231914e-14 5.707825991876461e-14 2.427787463554538e-15
5.529022354014368 4.1580958156061666e-22 6.102562998810305e-14 5.854570455160265e-14 2.479925436500411e-15
5.570647458961463 4.233888264013755e-22 6.260579002185434e-14 6.007336715749172e-14 2.532422864362627e-15
5.612585937458331 4.312688145318614e-22 6.425108883497047e-14 6.166582745133069e-14 2.5852613836397887e-15
5.654840148729818 4.398381943975707e-22 6.602109232382246e-14 6.338241117389167e-14 2.638681149930803e-15
5.67608639626678 4.458718870790257e-22 6.71782243767828e-14 6.451159110143257e-14 2.666633275350243e-15
5.686739436050992 4.4895926133674005e-22 6.777034513531507e-14 6.508969826073338e-14 2.6806468745816983e-15
5.6974124697621304 4.520952180021432e-22 6.837179914980798e-14 6.567711403450808e-14 2.6946851152999006e-15
5.718818669136295 4.585177503481248e-22 6.960363361063381e-14 6.688079924692913e-14 2.722834363704702e-15
5.740305295436557 4.656055518586552e-22 7.094512757307272e-14 6.819383887140772e-14 2.7512887016649943e-15
5.7835210386641895 4.842771352275949e-22 7.434567647068402e-14 7.153556210834245e-14 2.810114362341574e-15
5.827062130521658 5.054947868453329e-22 7.818721839864532e-14 7.531733119306146e-14 2.8698872055838623e-15
5.8489554468988025 5.207238700349505e-22 8.084538480549466e-14 7.794320725564094e-14 2.902177549853717e-15
5.870931020387893 5.3688653883891095e-22 8.366791104050372e-14 8.073328946066697e-14 2.9346215798367394e-15
5.892989160043636 5.54056412213522e-22 8.666805708371219e-14 8.370083990274683e-14 2.9672171809653506e-15
5.915130176081913 5.735560991930725e-22 9.005537565686363e-14 8.705436565146029e-14 3.001010005403381e-15
5.95966208400165 6.286905409801356e-22 9.945531447205964e-14 9.637720169917744e-14 3.0781127728822135e-15
6.004529249263818 7.080554807798184e-22 1.1285366992044315e-13 1.0968873393595422e-13 3.164935984488939e-15
6.027089341400364 7.633751264162635e-22 1.2212794998193063e-13 1.189127963942174e-13 3.2151535877132507e-15
6.049734195844842 8.283077347551554e-22 1.3301402750377677e-13 1.297456681958904e-13 3.2683593078863926e-15
6.095279466722835 1.016021676463847e-21 1.6438645473969368e-13 1.6098713627610237e-13 3.399318463591282e-15
6.141167624020661 1.303235165371293e-21 2.1244336646340925e-13 2.088738570821564e-13 3.569509381252786e-15
6.164241091010745 1.4865208499587397e-21 2.432316322453234e-13 2.3955519783199096e-13 3.6764344133323974e-15
6.187401249150058 1.6932486030908953e-21 2.7809836765231125e-13 2.743121428622691e-13 3.786224790042138e-15
6.1990139391386085 1.793822715093616e-21 2.9516955811248266e-13 2.9132746958870857e-13 3.842088523774072e-15
6.204828454712694 1.8466264168415e-21 3.0414330164076393e-13 3.002729974997241e-13 3.8703041410397635e-15
6.210648424152782 1.884908370429437e-21 3.107396135158077e-13 3.068452940271131e-13 3.894319488694586e-15
6.233982942956859 2.0136088699210653e-21 3.3320396316205584e-13 3.292260175154298e-13 3.977945646626084e-15
6.239830258556775 2.0292841242601806e-21 3.3611281145424734e-13 3.32123338495617e-13 3.9894729586303166e-15
6.245683058788269 2.029401138660955e-21 3.3644747604061775e-13 3.3244645758836716e-13 4.0010184522504766e-15
6.257405133728602 2.023011973484317e-21 3.3601770434010394e-13 3.3199652235874194e-13 4.021181981361938e-15
6.269149208991335 1.9941290455146586e-21 3.3184195913089104e-13 3.278135849350058e-13 4.028374195885237e-15
6.280915325867298 1.9259191581735716e-21 3.2109269481924347e-13 3.170731670648511e-13 4.019527754392405e-15
6.304513850009849 1.75946365277119e-21 2.944430689836305e-13 2.9045574451805727e-13 3.9873244655731574e-15
6.32820103803542 1.5557547231891773e-21 2.613309389347378e-13 2.573912563517586e-13 3.9396825829791566e-15
6.3519772230701035 1.3696305060910952e-21 2.3093076048937187e-13 2.2703380670437693e-13 3.896953784995019e-15
6.375842739491607 1.2126795926318961e-21 2.0523579068973214e-13 2.0137652769925564e-13 3.8592629904764836e-15
6.399797922933955 1.087688475363185e-21 1.8477372796109993e-13 1.809338434791248e-13 3.839884481975141e-15
6.42384311029221 9.833626412031053e-22 1.6767876387659844e-13 1.6385460971835981e-13 3.824154158238665e-15
6.447978639727206 9.07409024979388e-22 1.5530881910718662e-13 1.5148611327952995e-13 3.822705827656649e-15
6.472204850670314 8.438482008586511e-22 1.4497262958853983e-13 1.411485382704511e-13 3.824091318088731e-15
6.496522083828205 8.022648738010079e-22 1.383464850979343e-13 1.3450943454015521e-13 3.837050557779065e-15
