Dust emission spectrum from A.P. Jones, M. Kohler, N. Ysard, M. Bocchio, and L. Verstraete (2017), A&A, 602A, 46J 
inside the DustPedia framework.

lambda    nu*dP/dnu     j_nu    j_nu(carb.) j_nu(sil)
 (um)   (erg s-1 H-1) (Jy cm2 sr-1 H-1)
0.9927057738263894 1.0166742811100623e-21 2.6789944766713575e-14 2.6789944312234667e-14 4.544789090614377e-22
1.0001793341362166 1.0337900644844343e-21 2.7446038223775753e-14 2.7446037676757608e-14 5.470181508463418e-22
1.0077091589558085 1.0509659564281932e-21 2.8112099881522063e-14 2.8112099223994833e-14 6.575272217597882e-22
1.0114953028030835 1.0595755213011883e-21 2.8448883046148565e-14 2.844888232561639e-14 7.205321857006201e-22
1.0152956718711033 1.0681990195022652e-21 2.878817558459259e-14 2.878817479528068e-14 7.893119224796215e-22
1.0229392996569957 1.0854780256377939e-21 2.9474085085846446e-14 2.947408413958406e-14 9.462623924546834e-22
1.0267826658714554 1.0941138207246688e-21 2.982019406103565e-14 2.9820193025435623e-14 1.0356000166779993e-21
1.0306404723013447 1.1027617448493315e-21 3.0168819575563655e-14 3.016881844256826e-14 1.1329954000595042e-21
1.03451277320114 1.1114214742487779e-21 3.05199680098766e-14 3.0519966770737986e-14 1.2391386101008032e-21
1.0383996230291617 1.1200926927634662e-21 3.0873645904295665e-14 3.0873644549520234e-14 1.3547754304134128e-21
1.0403485208654093 1.124432513767809e-21 3.105143548874576e-14 3.1051434072342494e-14 1.4164032653524446e-21
1.0423010764483396 1.1287750920386239e-21 3.12298599677013e-14 3.122985848698972e-14 1.480711564842349e-21
1.0462171883269815 1.1374683717241262e-21 3.1588617086340376e-14 3.158861546852324e-14 1.617817134656116e-21
1.0471985131304309 1.1396433572905688e-21 3.167870454297174e-14 3.16787028890245e-14 1.6539472381105843e-21
1.048180758391296 1.1418190000989619e-21 3.1768951494018064e-14 3.17689498031689e-14 1.6908491615859365e-21
1.0501480137395462 1.1461722396728493e-21 3.194992433275461e-14 3.194992256572312e-14 1.7670314873711044e-21
1.0521189612883777 1.1505280552413943e-21 3.2131536517210726e-14 3.213153467071754e-14 1.8464931902830494e-21
1.0531058218030118 1.1527039964142723e-21 3.222250097914282e-14 3.2222499091644576e-14 1.8874982405938465e-21
1.0540936079674168 1.1548709964214167e-21 3.2313357642198566e-14 3.2313355712815476e-14 1.929383085193072e-21
1.058054026499678 1.1635448325380252e-21 3.267837100145322e-14 3.2678368895463456e-14 2.105989770228287e-21
1.0590464539527713 1.165714730004623e-21 3.277002160478349e-14 3.277001945228303e-14 2.1525004548532043e-21
1.06003981227728 1.167885194735783e-21 3.28618313512688e-14 3.286182915127596e-14 2.1999928520258315e-21
1.0620293250338977 1.1722278100557476e-21 3.3045928756295903e-14 3.304592645829399e-14 2.2980019062318138e-21
1.0660195594769086 1.1809196745917599e-21 3.3416038643613675e-14 3.341603613692153e-14 2.5066921405805375e-21
1.070024785945596 1.1896201810348688e-21 3.3788708635403414e-14 3.3788705901971474e-14 2.7334319471540666e-21
1.0740450607676866 1.1983290937314689e-21 3.4163946948407934e-14 3.4163943968709157e-14 2.9796987726029917e-21
1.07808044048254 1.2070461866693058e-21 3.4541762053858893e-14 3.454175880677523e-14 3.2470836577451045e-21
1.0861967418109137 1.2244905522954092e-21 3.5304768444562334e-14 3.530476459237286e-14 3.8521894714416125e-21
1.0902777775684922 1.233186712081994e-21 3.568908632334386e-14 3.568908212960644e-14 4.193737423943175e-21
1.0943741465085532 1.2418897141523366e-21 3.6075992491672174e-14 3.60759879275977e-14 4.564074473472179e-21
1.1026131145906286 1.2593155658955798e-21 3.685760897776785e-14 3.685760357731271e-14 5.400455141271797e-21
1.1109141095355224 1.2767668578359006e-21 3.764969969960138e-14 3.7649693317809523e-14 6.381791860303296e-21
1.1192775983109025 1.2942286533453867e-21 3.8451939942671415e-14 3.84519324109932e-14 7.531678205506284e-21
1.1277040513999907 1.3116363316075485e-21 3.926250562439415e-14 3.926249674711123e-14 8.877282925339955e-21
1.1361939428280308 1.3290647220164666e-21 4.00837212409446e-14 4.0083710791096536e-14 1.044984806513077e-20
1.1447477501889525 1.3465133358998387e-21 4.091569106044819e-14 4.091567877519655e-14 1.2285251641521931e-20
1.1533659546722406 1.3639883628941451e-21 4.1758724586702865e-14 4.175871016204258e-14 1.4424660298490595e-20
1.1707974979042381 1.3990705572701304e-21 4.348013019689159e-14 4.348011038585899e-14 1.9811032593506415e-20
1.1884924949847024 1.4342563881409866e-21 4.524730005201469e-14 4.5247272979404244e-14 2.7072610460140026e-20
1.2064549276569216 1.4697857915269036e-21 4.7068957485623285e-14 4.706892067222811e-14 3.6813395165538696e-20
1.2246888378427687 1.5054160184908843e-21 4.893862076598139e-14 4.893857095211008e-14 4.981387131681386e-20
1.2431983285522175 1.54111346099157e-21 5.085626535355676e-14 5.085619827453536e-14 6.707902140803649e-20
1.2619875648066055 1.5769247046085499e-21 5.2824508587208884e-14 5.282441869090113e-14 8.989630776065949e-20
1.3004222497298317 1.6486393739638748e-21 5.690880842538946e-14 5.690864924165594e-14 1.5918373353588042e-19
1.3400274889804893 1.720736582991393e-21 6.120649812632643e-14 6.120622141541933e-14 2.767109071138985e-19
1.3808389325824078 1.7934417779060733e-21 6.57354649137843e-14 6.573499249393008e-14 4.724198542150607e-19
1.4228933163050095 1.867344762047996e-21 7.052876517261966e-14 7.052797263644327e-14 7.92536176361329e-19
1.466228494730424 1.9437513279239005e-21 7.56504980309032e-14 7.564919090877812e-14 1.3071221251182865e-18
1.5108834753276823 2.0224350200944998e-21 8.111010828160677e-14 8.110798791691164e-14 2.1203646951471865e-18
1.5568984535646726 2.103259654881566e-21 8.692057918143527e-14 8.69171926149911e-14 3.3865664441662354e-18
1.6043148490894465 2.1866671392904535e-21 9.31197314424661e-14 9.31143959707901e-14 5.335471676008882e-18
1.6531753430134553 2.273118893436004e-21 9.974944866622122e-14 9.974116662790502e-14 8.282038316219864e-18
1.7035239163302658 2.3631647513449053e-21 1.0685913844183467e-13 1.0684646908742774e-13 1.2669354406881304e-17
1.755405889504358 2.4585346470722945e-21 1.1455744453808518e-13 1.145383354028207e-13 1.9109135264519236e-17
1.8088679632656115 2.559102038204238e-21 1.2287510524700898e-13 1.228466770252419e-13 2.8428221767068846e-17
1.8639582606462262 2.664681631684079e-21 1.31841138392327e-13 1.3179940804724465e-13 4.17303450823399e-17
1.9207263702978936 2.7754492051090373e-21 1.4150383675499514e-13 1.4144337090694454e-13 6.046584805061047e-17
1.979223391128241 2.891722343744078e-21 1.519220593319005e-13 1.5183554452798963e-13 8.651480391083536e-17
2.039501978296691 3.0137224885449342e-21 1.6315366079635495e-13 1.630313834484835e-13 1.2227734787143367e-16
2.1016163906111602 3.142579201608134e-21 1.753109777178467e-13 1.7514019085211945e-13 1.7078686572716556e-16
2.1656225393682647 3.2786503010280997e-21 1.8847219713667976e-13 1.8823638651698354e-13 2.358106196962259e-16
2.231578038680979 3.421210147681224e-21 2.0265683855176872e-13 2.0233487558117652e-13 3.2196297059216723e-16
2.299542257339062 3.5699870279223614e-21 2.17910153112561e-13 2.1747532964750016e-13 4.348234650608218e-16
2.369576372248914 3.7250448925514815e-21 2.342996580723042e-13 2.3371859576094704e-13 5.810623113571014e-16
2.4417434235010123 3.886524278283603e-21 2.519015528528476e-13 2.511330180844474e-13 7.685347684001595e-16
2.5161083711144245 4.055281451427903e-21 2.708443478679137e-13 2.6983794213083385e-13 1.0064057370798644e-15
2.5927381535095444 4.23314971079516e-21 2.9133436764998356e-13 2.900291436934932e-13 1.3052239564902602e-15
2.6717017477616296 4.4217173691110236e-21 3.135800226588528e-13 3.119031184260053e-13 1.676904232847496e-15
2.753070231689431 4.623665955409053e-21 3.3788831554709126e-13 3.357535714589258e-13 2.1347440881655076e-15
2.836916847834745 4.847174909462006e-21 3.650099732802634e-13 3.6231648648735024e-13 2.69348679291313e-15
2.9233170693905177 5.11110641378309e-21 3.9660691186719865e-13 3.932383326968714e-13 3.368579170327179e-15
2.967498994190263 5.27723770718026e-21 4.156872178471376e-13 4.119394883659941e-13 3.747729481143631e-15
3.0123486681368425 5.456125512235735e-21 4.3627369055977514e-13 4.3210960911696745e-13 4.16408144280764e-15
3.0578761833420214 5.761979255568534e-21 4.6769316152473e-13 4.630711685503467e-13 4.621992974383271e-15
3.1040917844459814 6.124661694713097e-21 5.046451365798879e-13 4.995250059146308e-13 5.120130665257163e-15
3.127460860933648 6.4689989635631275e-21 5.370298153619923e-13 5.316430373075593e-13 5.386778054433026e-15
3.1510058709225794 6.909897829209331e-21 5.779500042680599e-13 5.722853335418962e-13 5.664670726163736e-15
3.162844764501044 7.311407720518175e-21 6.138302866440307e-13 6.080218249177633e-13 5.808461726267336e-15
3.1747281389236908 7.767499542316868e-21 6.545716785960903e-13 6.486165156895296e-13 5.9551629065607595e-15
3.1986289994194426 9.008316916555436e-21 7.648512130728478e-13 7.585930087876103e-13 6.2582042852374896e-15
3.2227097969389145 1.1892241414642948e-20 1.0173124260259893e-12 1.0107331579053105e-12 6.579268120678546e-15
3.2348180950136065 1.4603180481148133e-20 1.2539111076858194e-12 1.2471605142686434e-12 6.750593417175913e-15
3.240889293275058 1.662902609341192e-20 1.4305414429890077e-12 1.4237004797111712e-12 6.840963277836623e-15
3.2469718861334385 1.897668812832152e-20 1.635567158861901e-12 1.6286326891934655e-12 6.934469668435257e-15
3.2714166318528037 3.1323825018197045e-20 2.720069993735065e-12 2.7127491479033375e-12 7.320845831727195e-15
3.2744851364798273 3.2095903223666986e-20 2.7897292650026548e-12 2.7823628953533278e-12 7.366369649327111e-15
3.2775565192852394 3.288884544193977e-20 2.861331991032705e-12 2.8539198709438516e-12 7.41212008885415e-15
3.283707930232385 3.2128434268439724e-20 2.8004222284048095e-12 2.7929283107013e-12 7.493917703509584e-15
3.2898708863219004 2.9709807067983046e-20 2.594466806056914e-12 2.586898465356548e-12 7.568340700366196e-15
3.29141343181113 2.9138319837353506e-20 2.545753656290424e-12 2.5381666280455243e-12 7.587028244901017e-15
3.292184975758714 2.885734433562454e-20 2.5217964168864156e-12 2.514200032585516e-12 7.596384300899797e-15
3.295272960557952 2.7102404599861086e-20 2.37065661702019e-12 2.3630238427181214e-12 7.632774302067837e-15
3.3076538914384823 2.0981473679169955e-20 1.8421520802324022e-12 1.8343731551349722e-12 7.778925097430135e-15
3.310756385682612 1.9724105686757342e-20 1.7333807904719403e-12 1.7255650287510347e-12 7.81576172090566e-15
3.313861789986515 1.855945159225118e-20 1.6325592944595031e-12 1.6247065763403697e-12 7.852718119133355e-15
3.3200813396944477 1.6931926631167618e-20 1.4921914070745364e-12 1.4842591915538931e-12 7.932215520642953e-15
3.345076488085796 1.408098702593358e-20 1.2502837426771418e-12 1.2419972354847083e-12 8.286507192433607e-15
3.3482140837626964 1.4195527398923223e-20 1.2616363235218427e-12 1.2533018213383079e-12 8.33450218353476e-15
3.3513546224236106 1.4311140037442708e-20 1.2731044888826613e-12 1.2647217764462194e-12 8.38271243644187e-15
3.3576445397418455 1.512726619940966e-20 1.3482319033194395e-12 1.3397483918118862e-12 8.483511507552895e-15
3.3702598118196083 1.8090987222373694e-20 1.6184343285636684e-12 1.6097393888956369e-12 8.694939668031536e-15
3.382922481734668 1.879494631896083e-20 1.6877284405694871e-12 1.6788279987765602e-12 8.900441792927112e-15
3.389271646505754 1.915810400029941e-20 1.7235676654836628e-12 1.714563062777023e-12 9.004602706639774e-15
3.395632727569191 1.9556688513959104e-20 1.7627286466719328e-12 1.75361669965332e-12 9.111947018613488e-15
3.421196662673239 2.1488569234974502e-20 1.951438966425988e-12 1.9418826672647378e-12 9.556299161249727e-15
3.4276182099114902 2.1135848582756872e-20 1.9230100922457613e-12 1.9133546310264655e-12 9.655461219295929e-15
3.4340518103208963 1.9539226679261138e-20 1.7810809046295663e-12 1.7713316546560317e-12 9.749249973534214e-15
3.4469541582030403 1.725009580419404e-20 1.578325060048594e-12 1.5683957972144556e-12 9.929262834138122e-15
3.472904465399547 1.661517548522217e-20 1.5316770398907823e-12 1.5213331041929756e-12 1.0343935697806919e-14
3.4990501388274233 1.5652684643594564e-20 1.4538126192159811e-12 1.4430443533754102e-12 1.0768265840571089e-14
3.5253949054701885 1.2233988823609677e-20 1.1448412917987665e-12 1.1336608056913184e-12 1.1180486107448191e-14
3.5519380250092896 8.982668056798382e-21 8.469156608024371e-13 8.353208699706447e-13 1.159479083179239e-14
3.578680990867387 7.712467115138853e-21 7.326317652544853e-13 7.205828891499647e-13 1.2048876104520337e-14
3.605625307711299 7.221749640851956e-21 6.911820562497193e-13 6.786549599813243e-13 1.2527096268394837e-14
3.660119384959845 6.90839568430657e-21 6.711844536946003e-13 6.576527502812945e-13 1.3531703413305647e-14
3.715437065384467 6.6964054599050865e-21 6.604213189523178e-13 6.458307228508466e-13 1.4590596101471166e-14
3.8285932144167436 6.67661444478124e-21 6.78523597521977e-13 6.616578141180753e-13 1.6865783403901993e-14
3.94519561050918 6.756987619024319e-21 7.076053331064038e-13 6.882595909678608e-13 1.9345742138543035e-14
4.06534921144712 6.871501566641157e-21 7.415132915296189e-13 7.194860959116551e-13 2.202719561796382e-14
4.189162171576248 7.0007264031564e-21 7.784661115313692e-13 7.535515101109899e-13 2.491460142037927e-14
4.316745939156006 7.136653730906148e-21 8.177499901445516e-13 7.897534562475332e-13 2.7996533897018232e-14
4.448215356677963 7.275914421581048e-21 8.590982224539187e-13 8.278687893422586e-13 3.1229433111660034e-14
4.58368876423945 7.418089670639821e-21 9.025611441507457e-13 8.679447931092176e-13 3.461635104152802e-14
4.723288106065518 7.564810134368875e-21 9.484444563002822e-13 9.102669471794765e-13 3.8177509120805706e-14
4.867139040275056 7.71875268778136e-21 9.972184665394858e-13 9.554012888677971e-13 4.181717767168856e-14
4.940699165968905 7.804017472561245e-21 1.023472262255391e-12 9.797950364697331e-13 4.367722578565809e-14
5.015371051989984 7.88717585806042e-21 1.0500114290506811e-12 1.004453276912125e-12 4.555815213855629e-14
5.091171501069577 7.985568701117856e-21 1.0791778186729337e-12 1.031677167235912e-12 4.7500651437021705e-14
5.129500256944802 8.033891220614267e-21 1.0938818992751243e-12 1.0454042017961843e-12 4.84776974789399e-14
5.168117569889187 8.083169847894783e-21 1.1088773751025136e-12 1.0594092494854979e-12 4.9468125617015874e-14
5.20702561229733 8.14516231223811e-21 1.1257938971360905e-12 1.0752439538185444e-12 5.054994331754584e-14
5.246226572918644 8.207056411800794e-21 1.1428885835437516e-12 1.091250162843245e-12 5.163842070050666e-14
5.265937586045735 8.237974462800968e-21 1.151504346913954e-12 1.0993193328562075e-12 5.2185014057746415e-14
5.285722656980489 8.268877633559855e-21 1.1601666309749131e-12 1.1074335310008438e-12 5.2733099974069205e-14
5.305582063971359 8.299769420273336e-21 1.1688761482096317e-12 1.1155935283375168e-12 5.3282619872115243e-14
5.3255160863122235 8.333130276703821e-21 1.1779837658969001e-12 1.124145814430425e-12 5.383795146647562e-14
5.365609099470188 8.419082314715566e-21 1.1990939688905714e-12 1.1441070044026407e-12 5.4986964487930676e-14
5.406003951863644 8.506185639485643e-21 1.2206204687855976e-12 1.164477743862094e-12 5.614272492350357e-14
5.446702915881641 8.594544746928507e-21 1.2425846888618121e-12 1.1852799236328636e-12 5.730476522894875e-14
5.487708281020852 8.689014074100783e-21 1.2657004967344705e-12 1.2072228280951287e-12 5.847766863934199e-14
5.529022354014368 8.827294279070584e-21 1.2955237646252508e-12 1.2358234131096237e-12 5.970035151562745e-14
5.570647458961463 8.970543454369427e-21 1.3264590959086016e-12 1.2655290876810528e-12 6.093000822754879e-14
5.612585937458331 9.119193985411861e-21 1.3585914935584548e-12 1.2964253306825354e-12 6.216616287591996e-14
5.654840148729818 9.280892011862775e-21 1.3930909961147357e-12 1.3296764296671972e-12 6.341456644753844e-14
5.67608639626678 9.39599518389621e-21 1.4156673497449645e-12 1.351599339424317e-12 6.406801032064717e-14
5.686739436050992 9.454855485685182e-21 1.4272092696375255e-12 1.36281380817357e-12 6.439546146395567e-14
5.6974124697621304 9.514617796211157e-21 1.4389259409212641e-12 1.3742025521647258e-12 6.472338875653814e-14
5.718818669136295 9.636940440587706e-21 1.4629009913899615e-12 1.3975203497674192e-12 6.53806416225423e-14
5.740305295436557 9.772133829980262e-21 1.4889970243300525e-12 1.4229522940047545e-12 6.604473032529783e-14
5.7835210386641895 1.013011174141417e-20 1.5551632636653558e-12 1.4877459470723664e-12 6.741731659298964e-14
5.827062130521658 1.0536709752882959e-20 1.6297616673618963e-12 1.5609510635479994e-12 6.881060381389681e-14
5.8489554468988025 1.0830127575040153e-20 1.6814397835035928e-12 1.6118757672442548e-12 6.956401625933813e-14
5.870931020387893 1.1141253022030247e-20 1.7362427613530832e-12 1.665922200227552e-12 7.03205611255311e-14
5.892989160043636 1.1471484152569573e-20 1.794422411605718e-12 1.7233422304028916e-12 7.108018120282603e-14
5.915130176081913 1.184671541957982e-20 1.860080311082332e-12 1.7882123878027086e-12 7.186792327962344e-14
5.95966208400165 1.2910539968170102e-20 2.0423749505386985e-12 1.9687054597191963e-12 7.366949081950192e-14
6.004529249263818 1.4443202005637058e-20 2.3020347924477303e-12 2.2263342983759782e-12 7.570049407175132e-14
6.027089341400364 1.5512444675143857e-20 2.4817458701822764e-12 2.404868555308648e-12 7.687731487362868e-14
6.049734195844842 1.6766870880752313e-20 2.692512614461954e-12 2.6143880220706693e-12 7.812459239128506e-14
6.095279466722835 2.0394611507101707e-20 3.2997306643241737e-12 3.2185288631859304e-12 8.120180113824317e-14
6.141167624020661 2.5942314500338724e-20 4.2289164478878275e-12 4.143706716465343e-12 8.520973142248324e-14
6.164241091010745 2.948119440430264e-20 4.823853655129869e-12 4.736121609018138e-12 8.773204611173136e-14
6.187401249150058 3.3468117435966725e-20 5.496788132792908e-12 5.406467165475276e-12 9.032096731763329e-14
6.1990139391386085 3.540609401026664e-20 5.825994417153992e-12 5.7343563421064514e-12 9.163807504753935e-14
6.204828454712694 3.642320009391842e-20 5.998978587035651e-12 5.906675372781977e-12 9.230321425367505e-14
6.210648424152782 3.715922354547874e-20 6.125943809374065e-12 6.033075435232278e-12 9.286837414178698e-14
6.233982942956859 3.9628510879340125e-20 6.557567895360134e-12 6.46273562492078e-12 9.483227043935279e-14
6.239830258556775 3.9926173278198807e-20 6.613020912503953e-12 6.5179210247066004e-12 9.509988779735323e-14
6.245683058788269 3.992309682840697e-20 6.618713721874361e-12 6.523345832272532e-12 9.536788960182995e-14
6.257405133728602 3.978888845812865e-20 6.6088442051667845e-12 6.5130100899563225e-12 9.583411521045997e-14
6.269149208991335 3.92200193583972e-20 6.526582665407712e-12 6.430591086545575e-12 9.599157886213687e-14
6.280915325867298 3.789170071517986e-20 6.317372275095694e-12 6.2216048769194125e-12 9.576739817628194e-14
6.304513850009849 3.465699401931742e-20 5.799785442980217e-12 5.704811498348739e-12 9.497394463147948e-14
6.32820103803542 3.070750402549542e-20 5.158152978558659e-12 5.064339637696407e-12 9.381334086225175e-14
6.3519772230701035 2.7101491890048717e-20 4.5695303256842274e-12 4.476760572905662e-12 9.276975277856453e-14
6.375842739491607 2.4060601962256366e-20 4.072053902941819e-12 3.980207624823162e-12 9.18462781186557e-14
6.399797922933955 2.164025142755761e-20 3.676190399048034e-12 3.5848325359170526e-12 9.135786313098148e-14
6.42384311029221 1.9619564059779446e-20 3.3454435947623913e-12 3.2544873840597755e-12 9.095621070261536e-14
6.447978639727206 1.814777698818288e-20 3.1061073186034075e-12 3.0152137653949853e-12 9.089355320842074e-14
6.472204850670314 1.6915529590393817e-20 2.9060781347958567e-12 2.8151800832240633e-12 9.089805157179255e-14
6.496522083828205 1.6107590860291305e-20 2.7776718783149018e-12 2.6864948999497987e-12 9.117697836510276e-14
6.520930681187647 1.5422073689518206e-20 2.669449999003628e-12 2.5779528079137677e-12 9.149719108986049e-14
6.57002334288761 1.4687384365113137e-20 2.561420057707885e-12 2.4689034099327364e-12 9.251664777514809e-14
