Dust emission spectrum from A.P. Jones, M. Kohler, N. Ysard, M. Bocchio, and L. Verstraete (2017), A&A, 602A, 46J 
inside the DustPedia framework.

lambda    nu*dP/dnu     j_nu    j_nu(carb.) j_nu(sil)
 (um)   (erg s-1 H-1) (Jy cm2 sr-1 H-1)
0.9927057738263894 3.2852820067295863e-21 8.656904688025204e-14 8.656904688025198e-14 6.917284802948072e-29
1.0001793341362166 3.3395753889606815e-21 8.866221191853576e-14 8.866221191853569e-14 8.33596109282575e-29
1.0077091589558085 3.393791839694901e-21 9.077992925560212e-14 9.077992925560201e-14 1.0032947665601886e-28
1.0114953028030835 3.4208645393529325e-21 9.184788931067139e-14 9.184788931067131e-14 1.1001679724926886e-28
1.0152956718711033 3.447910015530803e-21 9.292185923670531e-14 9.29218592367052e-14 1.2060123713501297e-28
1.0229392996569957 3.5018822045346254e-21 9.508693093664353e-14 9.508693093664337e-14 1.4478674795524354e-28
1.0267826658714554 3.5287434805930026e-21 9.617629664270373e-14 9.617629664270358e-14 1.5857148011195667e-28
1.0306404723013447 3.555565657887545e-21 9.727143630334709e-14 9.727143630334692e-14 1.7361331589844378e-28
1.03451277320114 3.5823461481897766e-21 9.837230283584013e-14 9.837230283583995e-14 1.9002141128820588e-28
1.0383996230291617 3.609082377600091e-21 9.947884856792723e-14 9.947884856792703e-14 2.0791388626216297e-28
1.0403485208654093 3.6224330941668986e-21 1.0003423607781603e-13 1.0003423607781583e-13 2.17456298640294e-28
1.0423010764483396 3.635771787041377e-21 1.0059102524910789e-13 1.0059102524910763e-13 2.2741851542573633e-28
1.0462171883269815 3.662411832741793e-21 1.0170878406192849e-13 1.0170878406192823e-13 2.4867346803405673e-28
1.0471985131304309 3.669063834479705e-21 1.0198909019933916e-13 1.0198909019933889e-13 2.5427793925352177e-28
1.048180758391296 3.67571255356185e-21 1.0226974136000443e-13 1.0226974136000414e-13 2.6000352974616992e-28
1.0501480137395462 3.6889999867065855e-21 1.0283207563328332e-13 1.0283207563328306e-13 2.7182810066210836e-28
1.0521189612883777 3.702273818717459e-21 1.033957806251618e-13 1.0339578062516152e-13 2.8416773760836174e-28
1.0531058218030118 3.708895349013564e-21 1.0367786039337795e-13 1.0367786039337766e-13 2.9053775490071778e-28
1.0540936079674168 3.715479984072576e-21 1.0395934603067749e-13 1.0395934603067717e-13 2.970459881099201e-28
1.058054026499678 3.7417811937645494e-21 1.0508861423876634e-13 1.0508861423876596e-13 3.2450506855361243e-28
1.0590464539527713 3.7483469712002755e-21 1.0537175868745407e-13 1.0537175868745375e-13 3.317410904893863e-28
1.06003981227728 3.754908861945424e-21 1.0565523248075005e-13 1.0565523248074972e-13 3.391316994036218e-28
1.0620293250338977 3.7680208305383206e-21 1.0622316485759417e-13 1.0622316485759381e-13 3.54389323498376e-28
1.0660195594769086 3.79419645036675e-21 1.0736294596052604e-13 1.0736294596052565e-13 3.8690216958596837e-28
1.070024785945596 3.820305627666284e-21 1.085079051358364e-13 1.0850790513583595e-13 4.222631149518633e-28
1.0740450607676866 3.846345955695915e-21 1.096579894980545e-13 1.0965798949805406e-13 4.607089495549956e-28
1.07808044048254 3.872315046945237e-21 1.1081314569929135e-13 1.1081314569929082e-13 5.024950169343167e-28
1.0861967418109137 3.923984191195408e-21 1.1313713526868872e-13 1.1313713526868815e-13 5.972103184465865e-28
1.0902777775684922 3.949575244782127e-21 1.1430283060185867e-13 1.1430283060185804e-13 6.507559170557889e-28
1.0943741465085532 3.975083886422151e-21 1.1547329429184866e-13 1.1547329429184793e-13 7.088772840321331e-28
1.1026131145906286 4.025844864819057e-21 1.1782830281076592e-13 1.178283028107651e-13 8.403571789199615e-28
1.1109141095355224 4.0762492071685116e-21 1.2020170919126234e-13 1.2020170919126136e-13 9.949638381477416e-28
1.1192775983109025 4.126232570715098e-21 1.2259166615459723e-13 1.2259166615459604e-13 1.1765295449383706e-27
1.1277040513999907 4.175562871316757e-21 1.2499124701673677e-13 1.2499124701673535e-13 1.3894802897190493e-27
1.1361939428280308 4.224478279596572e-21 1.2740749712388822e-13 1.2740749712388658e-13 1.6389200698104133e-27
1.1447477501889525 4.27296247846356e-21 1.298399414402138e-13 1.298399414402119e-13 1.930727841526643e-27
1.1533659546722406 4.32102593959923e-21 1.3228890880040935e-13 1.3228890880040708e-13 2.2716693560258685e-27
1.1707974979042381 4.416045748862549e-21 1.3724128716611985e-13 1.372412871661167e-13 3.1332153159259278e-27
1.1884924949847024 4.509177876219969e-21 1.4225359290027822e-13 1.4225359290027392e-13 4.300366066564874e-27
1.2064549276569216 4.6011501196422336e-21 1.4734891343685068e-13 1.4734891343684483e-13 5.8738068186999765e-27
1.2246888378427687 4.6909583875497366e-21 1.5249541039654234e-13 1.5249541039653434e-13 7.984475492430287e-27
1.2431983285522175 4.778392524443805e-21 1.5768546855090735e-13 1.5768546855089655e-13 1.0802082812750702e-26
1.2619875648066055 4.863419707256038e-21 1.629169454561379e-13 1.6291694545612333e-13 1.4545469022916718e-26
1.3004222497298317 5.024839966642106e-21 1.7345070095125723e-13 1.7345070095123123e-13 2.600949108629076e-26
1.3400274889804893 5.1745864817150356e-21 1.8405973402797683e-13 1.840597340279312e-13 4.567266588937232e-26
1.3808389325824078 5.312102879967708e-21 1.9470582027604455e-13 1.9470582027596574e-13 7.879530145547781e-26
1.4228933163050095 5.438056327561881e-21 2.0539292235540182e-13 2.0539292235526823e-13 1.33621559204537e-25
1.466228494730424 5.55547388497488e-21 2.1621817572977135e-13 2.1621817572954853e-13 2.228446418066071e-25
1.5108834753276823 5.662073639587044e-21 2.270784482281551e-13 2.2707844822778946e-13 3.6565407702526943e-25
1.5568984535646726 5.756008718278964e-21 2.378762937828383e-13 2.3787629378224745e-13 5.909238187563133e-25
1.6043148490894465 5.8374488998960624e-21 2.4858912639251807e-13 2.485891263915758e-13 9.422675097442564e-25
1.6531753430134553 5.906639886573994e-21 2.5919632882249627e-13 2.591963288210154e-13 1.4808779953303979e-24
1.7035239163302658 5.9644010017144726e-21 2.697022084482685e-13 2.6970220844597395e-13 2.294463648909135e-24
1.755405889504358 6.0154737833180215e-21 2.802959499160948e-13 2.8029594991258817e-13 3.506615947160323e-24
1.8088679632656115 6.058685928615316e-21 2.9090738080126716e-13 2.909073807959789e-13 5.288204527510059e-24
1.8639582606462262 6.093242902609922e-21 3.014769461496036e-13 3.014769461417308e-13 7.872823470872352e-24
1.9207263702978936 6.119718756651275e-21 3.1200847860360803e-13 3.1200847859203255e-13 1.1575514191093875e-23
1.979223391128241 6.1394513414526416e-21 3.2254759623769435e-13 3.225475962208781e-13 1.6816319238476195e-23
2.039501978296691 6.1540421146522314e-21 3.3316090101754e-13 3.331609009933915e-13 2.4148470797088987e-23
2.1016163906111602 6.1679788665228026e-21 3.4408501306181674e-13 3.440850130275214e-13 3.429529840651709e-23
2.1656225393682647 6.1838635805743396e-21 3.554774827491895e-13 3.554774827009988e-13 4.8190615820731646e-23
2.231578038680979 6.201881845102422e-21 3.6737110950402116e-13 3.6737110943699186e-13 6.70292462037435e-23
2.299542257339062 6.223591381609846e-21 3.798847839696157e-13 3.798847838772865e-13 9.232925878397629e-23
2.369576372248914 6.252437560209405e-21 3.932688127879386e-13 3.9326881266192825e-13 1.260103614809172e-22
2.4417434235010123 6.292488830253439e-21 4.0784196730917066e-13 4.078419671386854e-13 1.7048525622538718e-22
2.5161083711144245 6.350713282392042e-21 4.241517680258475e-13 4.2415176779706317e-13 2.2878446168524616e-22
2.5927381535095444 6.438514100243568e-21 4.4311223607719214e-13 4.4311223577248483e-13 3.0470734593332965e-22
2.6717017477616296 6.569505178587717e-21 4.658971641086953e-13 4.658971637056982e-13 4.0299711298606055e-22
2.753070231689431 6.7641838632773716e-21 4.943131086145704e-13 4.943131080849843e-13 5.295862465475623e-22
2.836916847834745 7.068990251120455e-21 5.323207829045117e-13 5.323207822125661e-13 6.919456868163427e-22
2.9233170693905177 7.586206868867734e-21 5.886674695196536e-13 5.886674686202638e-13 8.993896876824245e-22
2.967498994190263 8.025452715050445e-21 6.321636993050317e-13 6.321636982827214e-13 1.0223105953082142e-21
3.0123486681368425 8.538438225483465e-21 6.827364854225852e-13 6.827364842610998e-13 1.1614854269548182e-21
3.0578761833420214 9.6863009647439e-21 7.862257951211806e-13 7.862257938016423e-13 1.3195379736499098e-21
3.1040917844459814 1.1165435633761462e-20 9.199826980218941e-13 9.199826965239066e-13 1.4979874012705722e-21
3.127460860933648 1.2730200332684796e-20 1.0568091249804965e-12 1.0568091233840137e-12 1.5964829669482213e-21
3.1510058709225794 1.4815028565878717e-20 1.2391421746768124e-12 1.2391421729753985e-12 1.701413761429211e-21
3.162844764501044 1.6755715280628465e-20 1.4067284860575393e-12 1.4067284843004643e-12 1.757075011525208e-21
3.1747281389236908 1.9012561923552134e-20 1.602199588800947e-12 1.6021995869864244e-12 1.8145224044855733e-21
3.1986289994194426 2.5307532433659834e-20 2.148736224653897e-12 2.148736222718046e-12 1.9358511611430654e-21
3.2227097969389145 4.0146404057356786e-20 3.434292517600683e-12 3.4342925155288605e-12 2.071822565243417e-21
3.2348180950136065 5.421831422642574e-20 4.655489024208117e-12 4.655489022059127e-12 2.1489905632496645e-21
3.240889293275058 6.473891213615896e-20 5.5692796598286805e-12 5.56927965763675e-12 2.191931288136066e-21
3.2469718861334385 7.69096342537274e-20 6.6287052374403445e-12 6.6287052352024065e-12 2.2379363033750897e-21
3.2714166318528037 1.418303752129247e-19 1.231613787884285e-11 1.2316137876405818e-11 2.437031792434031e-21
3.2744851364798273 1.458888053910059e-19 1.2680442952465608e-11 1.2680442950005962e-11 2.459645713730032e-21
3.2775565192852394 1.500638053542919e-19 1.3055562187926281e-11 1.3055562185443775e-11 2.4825007779332843e-21
3.283707930232385 1.4604886536510049e-19 1.2730109584066923e-11 1.2730109581548896e-11 2.5180309335325093e-21
3.2898708863219004 1.333160805901667e-19 1.1642086568025554e-11 1.1642086565479981e-11 2.545576989049965e-21
3.29141343181113 1.3031336996526958e-19 1.1385204771736172e-11 1.1385204769183664e-11 2.5525016062189105e-21
3.292184975758714 1.288379439967111e-19 1.1258938513230555e-11 1.1258938510674586e-11 2.555969648541901e-21
3.295272960557952 1.1952490541139935e-19 1.0454884431682435e-11 1.0454884429114176e-11 2.5682626827054868e-21
3.3076538914384823 8.726160363075045e-20 7.661480175836805e-12 7.661480173219726e-12 2.617080320431886e-21
3.310756385682612 8.069518006760608e-20 7.091600361215578e-12 7.091600358586163e-12 2.629415947505184e-21
3.313861789986515 7.463662550459084e-20 6.565318811763085e-12 6.56531880912128e-12 2.641804461671215e-21
3.3200813396944477 6.614017804589468e-20 5.828858551796008e-12 5.82885854912414e-12 2.6718672158451056e-21
3.345076488085796 5.098330177414759e-20 4.5269265030086336e-12 4.5269265001829555e-12 2.8256781140722637e-21
3.3482140837626964 5.1551662489768126e-20 4.5816860555644724e-12 4.581686052715748e-12 2.8487241938135193e-21
3.3513546224236106 5.212630707734e-20 4.6371033583216894e-12 4.637103355449727e-12 2.8719626048212188e-21
3.3576445397418455 5.632596572161024e-20 5.020104952877449e-12 5.020104949953939e-12 2.923511425797407e-21
3.3702598118196083 7.181609979084807e-20 6.4247262914053544e-12 6.424726288367405e-12 3.0379493097907777e-21
3.382922481734668 7.53441626818078e-20 6.765674348359186e-12 6.765674345216595e-12 3.1425919816172027e-21
3.389271646505754 7.71719453738291e-20 6.942809670869552e-12 6.94280966767322e-12 3.196329315073328e-21
3.395632727569191 7.91414787345002e-20 7.133362665448486e-12 7.1333626621957625e-12 3.2527220770399534e-21
3.421196662673239 8.859847601219198e-20 8.045883211933385e-12 8.045883208440938e-12 3.49244507178753e-21
3.4276182099114902 8.669271169127798e-20 7.887592440574467e-12 7.887592437032208e-12 3.542256616758249e-21
3.4340518103208963 7.834162368170153e-20 7.141161329852095e-12 7.141161326265697e-12 3.586400025721944e-21
3.4469541582030403 6.644810515581985e-20 6.079775483604898e-12 6.079775479938174e-12 3.666723311342954e-21
3.472904465399547 6.311478417489053e-20 5.8182633029860725e-12 5.818263299100036e-12 3.886036475458756e-21
3.4990501388274233 5.801663054696587e-20 5.388552285699206e-12 5.388552281585046e-12 4.114159488779431e-21
3.5253949054701885 3.9873532565820087e-20 3.731315042820581e-12 3.731315038499694e-12 4.3208873818313185e-21
3.5519380250092896 2.2820957558250437e-20 2.151635374743966e-12 2.1516353702171145e-12 4.526851119056582e-21
3.578680990867387 1.6059248544453532e-20 1.5255190633732364e-12 1.5255190585933637e-12 4.779872353966636e-21
3.605625307711299 1.332401283039202e-20 1.2752198627203542e-12 1.2752198576567083e-12 5.0636459030869034e-21
3.660119384959845 1.1328012415775501e-20 1.1005718508567302e-12 1.1005718451592079e-12 5.697522803332378e-21
3.715437065384467 9.914100932544672e-21 9.77760927605235e-13 9.777609211951477e-13 6.410086808826622e-21
3.8285932144167436 9.19455817894037e-21 9.344144019093723e-13 9.34414393784908e-13 8.124464462010532e-21
3.94519561050918 9.054008618118035e-21 9.481539918962822e-13 9.481539815982635e-13 1.0298018830244275e-20
4.06534921144712 9.151076743762736e-21 9.875054195213597e-13 9.875054064653762e-13 1.3055983678855224e-20
4.189162171576248 9.385613671762052e-21 1.0436605801503756e-12 1.0436605635889689e-12 1.656140654760231e-20
4.316745939156006 9.720245481183785e-21 1.1137895918948282e-12 1.1137895708789981e-12 2.101583010216062e-20
4.448215356677963 1.0142353479158878e-20 1.1975508974652462e-12 1.1975508708044646e-12 2.6660781346681924e-20
4.58368876423945 1.0653328223741189e-20 1.2961935670162833e-12 1.2961935331937563e-12 3.382252707725949e-20
4.723288106065518 1.1264914297979485e-20 1.412348139191969e-12 1.4123480962728385e-12 4.2919130525376036e-20
4.867139040275056 1.2000742276266412e-20 1.5504269010999769e-12 1.5504268466762953e-12 5.442368101418175e-20
4.940699165968905 1.2445061742764027e-20 1.6321305712805424e-12 1.6321305099945139e-12 6.12860281984984e-20
5.015371051989984 1.2905024874243755e-20 1.7180323925820935e-12 1.7180323235879003e-12 6.899419330920628e-20
5.091171501069577 1.3467010305227625e-20 1.8199453726078436e-12 1.8199452948974607e-12 7.771038242074644e-20
5.129500256944802 1.3755369884336133e-20 1.872909368712985e-12 1.8729092862531455e-12 8.245984008233156e-20
5.168117569889187 1.4056014261399735e-20 1.9282529616328454e-12 1.928252874134315e-12 8.749853046514358e-20
5.20702561229733 1.4425566378338774e-20 1.9938478779071642e-12 1.9938477849933156e-12 9.291384837593363e-20
5.246226572918644 1.48045160742211e-20 2.06162984109484e-12 2.061629742444347e-12 9.86504930591293e-20
5.265937586045735 1.4997608753608617e-20 2.096366254966908e-12 2.0963661533220964e-12 1.0164481165511356e-19
5.285722656980489 1.5193164957966152e-20 2.1316802333113276e-12 2.1316801285851596e-12 1.0472616828514628e-19
5.305582063971359 1.539122447620357e-20 2.167582528019454e-12 2.1675824201225414e-12 1.0789691278557256e-19
5.3255160863122235 1.5604109031027415e-20 2.2058202031501523e-12 2.205820091977695e-12 1.111724563695582e-19
5.365609099470188 1.6135128053634054e-20 2.2980574382284445e-12 2.2980573201133102e-12 1.18115134569561e-19
5.406003951863644 1.6686372880846538e-20 2.3944608254966076e-12 2.394460700025094e-12 1.2547151349371892e-19
5.446702915881641 1.7258823754605923e-20 2.4952514387573585e-12 2.495251305492995e-12 1.3326436441245188e-19
5.487708281020852 1.7877563805957415e-20 2.6041667324545342e-12 2.6041665909048493e-12 1.4154968529572136e-19
5.529022354014368 1.873907676907729e-20 2.750210711682842e-12 2.7502105610659953e-12 1.5061684743985148e-19
5.570647458961463 1.965149660643042e-20 2.9058335823700645e-12 2.905833422132678e-12 1.6023738566505092e-19
5.612585937458331 2.061849671663403e-20 3.0717752351790533e-12 3.071775064736661e-12 1.7044239201831925e-19
5.654840148729818 2.1681781498398482e-20 3.254503397576284e-12 3.2545032162494948e-12 1.8132678863962537e-19
5.67608639626678 2.240677573452092e-20 3.3759639292690177e-12 3.3759637419787398e-12 1.8729027810089903e-19
5.686739436050992 2.278050340799938e-20 3.4387141802569618e-12 3.438713989914968e-12 1.9034199364656674e-19
5.6974124697621304 2.316195738647159e-20 3.5028565560645683e-12 3.502856362623314e-12 1.9344125428989128e-19
5.718818669136295 2.3948789683704113e-20 3.6354596551541884e-12 3.6354594553690307e-12 1.9978515656565384e-19
5.740305295436557 2.4816361020394988e-20 3.78131208157462e-12 3.7813118751547386e-12 2.064198809892225e-19
5.7835210386641895 2.7068560019948775e-20 4.1555346296178634e-12 4.155534408538065e-12 2.2107979863438413e-19
5.827062130521658 2.9663844684016317e-20 4.588244158415678e-12 4.5882439214718886e-12 2.3694379074582573e-19
5.8489554468988025 3.148557656131711e-20 4.888317396995255e-12 4.888317150800182e-12 2.4619507464065897e-19
5.870931020387893 3.3440747597036906e-20 5.211375761306466e-12 5.211375505506865e-12 2.55799603076507e-19
5.892989160043636 3.554010516886862e-20 5.559347018890918e-12 5.559346753120845e-12 2.657700728440049e-19
5.915130176081913 3.7928113778648056e-20 5.955181261428159e-12 5.9551809849692395e-12 2.764589198489605e-19
5.95966208400165 4.460739601395577e-20 7.056639648866367e-12 7.05663934654694e-12 3.0231942585065963e-19
6.004529249263818 5.423751981180649e-20 8.644666024481354e-12 8.644665689678775e-12 3.3480257654825503e-19
6.027089341400364 6.09329511869394e-20 9.748308737468726e-12 9.74830838209909e-12 3.5536963690624765e-19
6.049734195844842 6.884601407584154e-20 1.1055656280351297e-11 1.1055655902008401e-11 3.783428954012597e-19
6.095279466722835 9.170665943943843e-20 1.4837609246426517e-11 1.483760880613966e-11 4.402868598102439e-19
6.141167624020661 1.2689301881513303e-19 2.068512331012135e-11 2.0685122780307945e-11 5.298134010627638e-19
6.164241091010745 1.493635454871581e-19 2.4439575783816595e-11 2.4439575195253866e-11 5.88562736068944e-19
6.187401249150058 1.7496253088009222e-19 2.8735765173082975e-11 2.8735764519755215e-11 6.53327761524309e-19
6.1990139391386085 1.8746186007279762e-19 3.0846434229563195e-11 3.084643354288543e-11 6.866777660504268e-19
6.204828454712694 1.940462077334114e-19 3.1959823466543036e-11 3.195982276253085e-11 7.040121942560199e-19
6.210648424152782 1.9885239442041381e-19 3.2782132626857875e-11 3.278213190840549e-11 7.184523822476892e-19
6.233982942956859 2.1518071674829898e-19 3.560724661457993e-11 3.560724584477135e-11 7.698085793629069e-19
6.239830258556775 2.172676293813753e-19 3.5986303187581895e-11 3.598630241061123e-11 7.769706658634029e-19
6.245683058788269 2.174478475939497e-19 3.604993517532062e-11 3.604993439112517e-11 7.841954532742385e-19
6.257405133728602 2.169975348683501e-19 3.604279879191231e-11 3.6042797995044696e-11 7.968676134828352e-19
6.269149208991335 2.1378377758067883e-19 3.5575645288525355e-11 3.557564448738849e-11 8.011368551954418e-19
6.280915325867298 2.0572710876403312e-19 3.4299192398636315e-11 3.42991916036816e-11 7.9495470955061e-19
6.304513850009849 1.8585996918763853e-19 3.110333063295627e-11 3.110332986009677e-11 7.728594979487745e-19
6.32820103803542 1.6123489677464561e-19 2.7083746772620292e-11 2.7083746033987878e-11 7.386324076460561e-19
6.3519772230701035 1.3865170842968405e-19 2.33777973901875e-11 2.3377796683881147e-11 7.063063521532934e-19
6.375842739491607 1.1965316722986338e-19 2.0250289139982227e-11 2.0250288462017246e-11 6.779649787225692e-19
6.399797922933955 1.0442503954244334e-19 1.7739457837226626e-11 1.773945717811956e-11 6.59107063236485e-19
6.42384311029221 9.176437291581825e-20 1.5647265793634697e-11 1.564726515038431e-11 6.432503815339405e-19
6.447978639727206 8.253699458236989e-20 1.412673095414199e-11 1.4126730317919832e-11 6.362221614893114e-19
6.472204850670314 7.485000034040768e-20 1.2859186478101688e-11 1.2859185846706668e-11 6.313950198292128e-19
6.496522083828205 6.985263240355935e-20 1.2045730136587669e-11 1.2045729502326274e-11 6.342613951228751e-19
