Dust emission spectrum from A.P. Jones, M. Kohler, N. Ysard, M. Bocchio, and L. Verstraete (2017), A&A, 602A, 46J 
inside the DustPedia framework.

lambda    nu*dP/dnu     j_nu    j_nu(carb.) j_nu(sil)
 (um)   (erg s-1 H-1) (Jy cm2 sr-1 H-1)
0.9927057738263894 8.227478253790238e-22 2.1679872510172816e-14 2.1679872510171992e-14 8.221904655521683e-28
1.0001793341362166 8.363404646924912e-22 2.2203959150534202e-14 2.2203959150533208e-14 9.906259009420029e-28
1.0077091589558085 8.49913720381702e-22 2.2734189677512066e-14 2.2734189677510874e-14 1.1920483193794084e-27
1.0114953028030835 8.566914077186911e-22 2.3001582402451157e-14 2.300158240244985e-14 1.3070067757201386e-27
1.0152956718711033 8.63462248459886e-22 2.3270478970213663e-14 2.3270478970212234e-14 1.4325927798674844e-27
1.0229392996569957 8.769741016733893e-22 2.38125587808355e-14 2.381255878083378e-14 1.719492031847796e-27
1.0267826658714554 8.83698727449682e-22 2.4085307254948934e-14 2.408530725494705e-14 1.8829760781523832e-27
1.0306404723013447 8.904135334336154e-22 2.4359500466230876e-14 2.4359500466228812e-14 2.061341142599693e-27
1.03451277320114 8.971178716242357e-22 2.4635126617079908e-14 2.463512661707765e-14 2.2558762528518706e-27
1.0383996230291617 9.038110976143935e-22 2.4912173762401433e-14 2.4912173762398962e-14 2.467975974833943e-27
1.0403485208654093 9.071533431702098e-22 2.505122643551241e-14 2.5051226435509837e-14 2.5810792070525052e-27
1.0423010764483396 9.104925707143096e-22 2.5190629812433263e-14 2.519062981243056e-14 2.6991485134095344e-27
1.0462171883269815 9.17161654072414e-22 2.5470482535574783e-14 2.5470482535571842e-14 2.9510243898749127e-27
1.0471985131304309 9.188269147587775e-22 2.5540662499866854e-14 2.554066249986384e-14 3.017431724093203e-27
1.048180758391296 9.204913516608022e-22 2.5610928789099354e-14 2.5610928789096268e-14 3.085271337059143e-27
1.0501480137395462 9.238177147934454e-22 2.575171956121844e-14 2.5751719561215212e-14 3.2253657338297544e-27
1.0521189612883777 9.271406649955394e-22 2.589285328435109e-14 2.589285328434772e-14 3.371550041822955e-27
1.0531058218030118 9.287982845052816e-22 2.5963476942038507e-14 2.5963476942035062e-14 3.447009111504724e-27
1.0540936079674168 9.304466626373679e-22 2.6033951731367403e-14 2.6033951731363878e-14 3.524102319401342e-27
1.058054026499678 9.370308097662998e-22 2.6316682937384443e-14 2.6316682937380596e-14 3.849333059489051e-27
1.0590464539527713 9.386744570444841e-22 2.6387572744391895e-14 2.6387572744387966e-14 3.9350287088636536e-27
1.06003981227728 9.403171293207501e-22 2.6458544949222095e-14 2.6458544949218072e-14 4.022551292612947e-27
1.0620293250338977 9.435995106087527e-22 2.6600735739727583e-14 2.660073573972338e-14 4.203226316691564e-27
1.0660195594769086 9.50152153320962e-22 2.688609712905494e-14 2.6886097129050354e-14 4.588179763693679e-27
1.070024785945596 9.566881306828868e-22 2.7172753974695162e-14 2.7172753974690154e-14 5.006780115363621e-27
1.0740450607676866 9.632068401980624e-22 2.746069302749006e-14 2.74606930274846e-14 5.461817055307341e-27
1.07808044048254 9.697076841907116e-22 2.7749900922632073e-14 2.774990092262612e-14 5.95629811015431e-27
1.0861967418109137 9.826419211434521e-22 2.8331737982670853e-14 2.833173798266378e-14 7.076809214614886e-27
1.0902777775684922 9.89048018807324e-22 2.862358130793729e-14 2.862358130792958e-14 7.710094391365085e-27
1.0943741465085532 9.954334535050353e-22 2.8916617462379506e-14 2.891661746237112e-14 8.397366801125445e-27
1.1026131145906286 1.0081400638608739e-21 2.950621216389145e-14 2.950621216388149e-14 9.951633331910968e-27
1.1109141095355224 1.0207572667829033e-21 3.0100408954617206e-14 3.010040895460542e-14 1.1778575525194841e-26
1.1192775983109025 1.033268951626702e-21 3.0698745210035204e-14 3.069874521002128e-14 1.3923232841628392e-26
1.1277040513999907 1.0456170027721048e-21 3.1299486346178344e-14 3.129948634616191e-14 1.643759446279603e-26
1.1361939428280308 1.0578610648100899e-21 3.190439662649561e-14 3.190439662647622e-14 1.938158243597473e-26
1.1447477501889525 1.0699970538047051e-21 3.2513357069580214e-14 3.25133570695574e-14 2.2824179116465355e-26
1.1533659546722406 1.0820275945979927e-21 3.312645001028997e-14 3.312645001026312e-14 2.6844728634163035e-26
1.1707974979042381 1.105811182612975e-21 3.436625404154469e-14 3.43662540415077e-14 3.699775924200617e-26
1.1884924949847024 1.129121734883009e-21 3.562104401690893e-14 3.56210440168582e-14 5.074010613724388e-26
1.2064549276569216 1.1521415203081833e-21 3.689660122545456e-14 3.6896601225385316e-14 6.924944108855924e-26
1.2246888378427687 1.174619117655146e-21 3.818495275546649e-14 3.818495275537243e-14 9.405546847580897e-26
1.2431983285522175 1.196501926774587e-21 3.9484191803074004e-14 3.9484191802946883e-14 1.271384292150484e-25
1.2619875648066055 1.2177817460710822e-21 4.0793781792293526e-14 4.079378179212247e-14 1.7104868208476797e-25
1.3004222497298317 1.2581786325038536e-21 4.343063006552289e-14 4.343063006521758e-14 3.053112216840208e-25
1.3400274889804893 1.295651542724878e-21 4.608624847406924e-14 4.6086248473534113e-14 5.351208100357991e-25
1.3808389325824078 1.3300613593798775e-21 4.87510678628092e-14 4.87510678618878e-14 9.213958651857941e-25
1.4228933163050095 1.361575336166549e-21 5.142608322846649e-14 5.1426083226907155e-14 1.5593311930948008e-24
1.466228494730424 1.3909515891963741e-21 5.413561855773646e-14 5.413561855514141e-14 2.5950406528942224e-24
1.5108834753276823 1.4176189203947938e-21 5.685385339594424e-14 5.685385339169555e-14 4.248688193940626e-24
1.5568984535646726 1.4411150986766257e-21 5.955639321724025e-14 5.955639321038978e-14 6.850464773459616e-24
1.6043148490894465 1.4614828249921278e-21 6.223758784576792e-14 6.223758783487033e-14 1.0897574677489668e-23
1.6531753430134553 1.4787837988514827e-21 6.489228040729777e-14 6.489228039021354e-14 1.7084214637623066e-23
1.7035239163302658 1.4932233286171213e-21 6.75215548583585e-14 6.752155483195735e-14 2.6401153484092127e-23
1.755405889504358 1.5059886942781115e-21 7.017278219983327e-14 7.017278215959554e-14 4.0237725014785113e-23
1.8088679632656115 1.5167865049267834e-21 7.282839787072494e-14 7.282839781022101e-14 6.05039400194275e-23
1.8639582606462262 1.525417975656366e-21 7.547349748778464e-14 7.547349739799025e-14 8.979440550489824e-23
1.9207263702978936 1.5320269421331487e-21 7.810904624909057e-14 7.810904611750805e-14 1.3158251530411724e-22
1.979223391128241 1.536948455827242e-21 8.074647104394468e-14 8.074647085348543e-14 1.9045926818400842e-22
2.039501978296691 1.5405835438889773e-21 8.340245191901019e-14 8.34024516466014e-14 2.724087868585674e-22
2.1016163906111602 1.5440557814881744e-21 8.613623120940504e-14 8.613623082424606e-14 3.8515893963511467e-22
2.1656225393682647 1.5480166147246133e-21 8.898725566729246e-14 8.89872551287569e-14 5.385355751874175e-22
2.231578038680979 1.5525125547822155e-21 9.196374165361832e-14 9.196374090873857e-14 7.448797446217588e-22
2.299542257339062 1.5579336034136587e-21 9.509545760356678e-14 9.50954565840474e-14 1.0195193800632205e-21
2.369576372248914 1.5651423111553612e-21 9.84450708423587e-14 9.844506946104896e-14 1.3813097517473047e-21
2.4417434235010123 1.5751572068584506e-21 1.0209238846443766e-13 1.0209238661127839e-13 1.8531592818648853e-21
2.5161083711144245 1.5897227014507486e-21 1.061744822208676e-13 1.0617447975817231e-13 2.462695343657876e-21
2.5927381535095444 1.6116935134026747e-21 1.109201759095237e-13 1.109201726666313e-13 3.2428923986253222e-21
2.6717017477616296 1.64447788864047e-21 1.166233321885827e-13 1.166233279560387e-13 4.232543984729808e-21
2.753070231689431 1.6932073300796768e-21 1.237362253567029e-13 1.237362198797788e-13 5.476924100557253e-21
2.836916847834745 1.769508108346647e-21 1.3325042306313376e-13 1.3325041603447483e-13 7.028658960559361e-21
2.9233170693905177 1.8989866903812695e-21 1.4735581417714352e-13 1.4735580523014292e-13 8.94700060363271e-21
2.967498994190263 2.0089488512002146e-21 1.5824459785398397e-13 1.5824458780447147e-13 1.0049512448178677e-20
3.0123486681368425 2.1373722693351926e-21 1.7090502884360658e-13 1.7090501757022944e-13 1.127337721012447e-20
3.0578761833420214 2.4247366678706923e-21 1.9681305811113835e-13 1.968130454776767e-13 1.2633461616941322e-20
3.1040917844459814 2.7950390648514343e-21 2.3029890317789186e-13 2.302988890452414e-13 1.4132650461576917e-20
3.127460860933648 3.1867779192745188e-21 2.6455325889324795e-13 2.6455324395015875e-13 1.4943089271309788e-20
3.1510058709225794 3.7087179298304174e-21 3.102004684228139e-13 3.102004526292084e-13 1.5793605492991168e-20
3.162844764501044 4.1945682653941605e-21 3.5215558195028044e-13 3.521555657141799e-13 1.6236100569664327e-20
3.1747281389236908 4.7595727885664715e-21 4.010919514882846e-13 4.0109193479911406e-13 1.6689170547390008e-20
3.1986289994194426 6.335536153166809e-21 5.379187429908286e-13 5.379187253605988e-13 1.763022983527779e-20
3.2227097969389145 1.0050481996773579e-20 8.597605671104884e-13 8.597605484756363e-13 1.863485208141909e-20
3.2348180950136065 1.3573419112077124e-20 1.1654900119792507e-12 1.1654899928056228e-12 1.9173628246656784e-20
3.240889293275058 1.6207273719860284e-20 1.3942594475398799e-12 1.3942594280814306e-12 1.9458449115220287e-20
3.2469718861334385 1.9254237641287493e-20 1.6594886600899132e-12 1.6594886403363044e-12 1.9753609141049548e-20
3.2714166318528037 3.5507282381247195e-20 3.0833492815197505e-12 3.083349260539532e-12 2.098021644205651e-20
3.2744851364798273 3.6523310410046296e-20 3.174553063537098e-12 3.1745530424113067e-12 2.1125792378511804e-20
3.2775565192852394 3.7568521643370004e-20 3.2684641673952023e-12 3.2684641461229523e-12 2.1272249347285423e-20
3.283707930232385 3.65633492869162e-20 3.1869843152796087e-12 3.186984293744332e-12 2.1535275694297853e-20
3.2898708863219004 3.337564710285518e-20 2.9145934317541833e-12 2.9145934099784634e-12 2.1775719469342552e-20
3.29141343181113 3.262390745008211e-20 2.8502821074487253e-12 2.850282085612564e-12 2.1836162715762345e-20
3.292184975758714 3.225452922252419e-20 2.8186708823828195e-12 2.8186708605163856e-12 2.1866434321674512e-20
3.295272960557952 2.992297738798344e-20 2.617373085269786e-12 2.6173730632854738e-12 2.1984311878648172e-20
3.3076538914384823 2.1845768556638672e-20 1.918036292695699e-12 1.9180362702368287e-12 2.245887058463231e-20
3.310756385682612 2.0201850820122682e-20 1.7753656718180657e-12 1.7753656492393077e-12 2.2578757349721656e-20
3.313861789986515 1.8685080935660525e-20 1.6436101248798051e-12 1.643610102180659e-12 2.2699145669200965e-20
3.3200813396944477 1.655797790921126e-20 1.4592357321684907e-12 1.4592357092105603e-12 2.295793050018735e-20
3.345076488085796 1.2763406563149463e-20 1.1332926944463605e-12 1.1332926703324648e-12 2.4113895400308656e-20
3.3482140837626964 1.290569182362999e-20 1.1470013848238922e-12 1.1470013605529061e-12 2.4270986516947863e-20
3.3513546224236106 1.3049550199544344e-20 1.1608747376849948e-12 1.1608747132560481e-12 2.44289469624663e-20
3.3576445397418455 1.410092616273745e-20 1.256758377114849e-12 1.2567583523552714e-12 2.4759577791929995e-20
3.3702598118196083 1.79788651412382e-20 1.6084037966270112e-12 1.608403771171945e-12 2.5455065310941652e-20
3.382922481734668 1.8862085555202756e-20 1.6937573377294274e-12 1.6937573115954478e-12 2.6133979580944875e-20
3.389271646505754 1.9319655076069008e-20 1.7381016825511256e-12 1.7381016560719086e-12 2.647921654819936e-20
3.395632727569191 1.9812708130269922e-20 1.7858047984170977e-12 1.785804771581764e-12 2.683533355245698e-20
3.421196662673239 2.2180164218247393e-20 2.0142447020980887e-12 2.0142446737815524e-12 2.831653597823816e-20
3.4276182099114902 2.1703044137405198e-20 1.9746154380919415e-12 1.9746154094407885e-12 2.865115281483569e-20
3.4340518103208963 1.9612356668762374e-20 1.7877470040609562e-12 1.7877469750916426e-12 2.8969313446703077e-20
3.4469541582030403 1.6634829234664753e-20 1.5220302628300122e-12 1.5220302332461539e-12 2.958385832149922e-20
3.472904465399547 1.5800314164086126e-20 1.4565587013941934e-12 1.4565586703923657e-12 3.1001828028140907e-20
3.4990501388274233 1.4523979882038002e-20 1.3489791505118377e-12 1.348979118045854e-12 3.2465983784261527e-20
3.5253949054701885 9.981892785506686e-21 9.3409297620925e-13 9.340929423056364e-13 3.390361356478543e-20
3.5519380250092896 5.712854647876524e-21 5.386268354325783e-13 5.386268000687064e-13 3.536387171792629e-20
3.578680990867387 4.020095244909019e-21 3.8188162514010666e-13 3.818815881652932e-13 3.697481352579797e-20
3.605625307711299 3.3353417289178173e-21 3.1922019858569184e-13 3.1922015989939754e-13 3.8686294363285276e-20
3.660119384959845 2.835647470528284e-21 2.7549703076511594e-13 2.754969884280212e-13 4.233709477114489e-20
3.715437065384467 2.4816842324159725e-21 2.447517827002306e-13 2.4475173643525794e-13 4.626497259928294e-20
3.8285932144167436 2.3015444979040648e-21 2.338988218490646e-13 2.3389876685194153e-13 5.499712303095636e-20
3.94519561050918 2.266351420042268e-21 2.3733687878900474e-13 2.3733681381017084e-13 6.497883389072487e-20
4.06534921144712 2.290643465157773e-21 2.4718652234844997e-13 2.471864460043663e-13 7.634408364078574e-20
4.189162171576248 2.3493487406470467e-21 2.6124265875296016e-13 2.6124256947580007e-13 8.927716008035611e-20
4.316745939156006 2.433110637556201e-21 2.7879679677684955e-13 2.787966928416779e-13 1.0393517167244509e-19
4.448215356677963 2.53876979077841e-21 2.9976336830024165e-13 2.9976324792346595e-13 1.2037677566911558e-19
4.58368876423945 2.6666738271602302e-21 3.244549860383382e-13 3.244548471659864e-13 1.3887235177464992e-19
4.723288106065518 2.8197622128242965e-21 3.5353006768640365e-13 3.5352990787347176e-13 1.5981293187876497e-19
4.867139040275056 3.0039496661030155e-21 3.8809302496956774e-13 3.8809284180253077e-13 1.8316703703846852e-19
4.940699165968905 3.115168347417494e-21 4.085444973755791e-13 4.085443014546732e-13 1.9592090584103092e-19
5.015371051989984 3.2303028156486138e-21 4.300468173610308e-13 4.3004660792696574e-13 2.0943406490032588e-19
5.091171501069577 3.3709742053312866e-21 4.555568583616215e-13 4.555566343951483e-13 2.239664730798221e-19
5.129500256944802 3.443153925016405e-21 4.688143829143815e-13 4.68814151359592e-13 2.3155478958811292e-19
5.168117569889187 3.518408635685993e-21 4.826675432897924e-13 4.82667303882786e-13 2.3940700636267815e-19
5.20702561229733 3.610911363757805e-21 4.990866750819707e-13 4.990864272324923e-13 2.478494782692414e-19
5.246226572918644 3.7057664241581025e-21 5.160532506344428e-13 5.160529940793805e-13 2.5655506240241966e-19
5.265937586045735 3.754099543823895e-21 5.247481602402422e-13 5.24747899231187e-13 2.610090553713731e-19
5.285722656980489 3.803049315668896e-21 5.335876412155269e-13 5.335873756836225e-13 2.655319044124327e-19
5.305582063971359 3.8526256996635125e-21 5.425743849360842e-13 5.42574114811409e-13 2.7012467522005116e-19
5.3255160863122235 3.905912878557008e-21 5.521456894548584e-13 5.521454146449317e-13 2.7480992665049315e-19
5.365609099470188 4.0388318517569e-21 5.752335864848298e-13 5.752333019168844e-13 2.84567945310803e-19
5.406003951863644 4.1768135786415676e-21 5.993643172710967e-13 5.993640226316889e-13 2.946394077015802e-19
5.446702915881641 4.320103430603218e-21 6.245932199125941e-13 6.245929148780443e-13 3.050345497791275e-19
5.487708281020852 4.474979832677318e-21 6.518557973083479e-13 6.518554815135477e-13 3.157948001847051e-19
5.529022354014368 4.690623545822417e-21 6.884118827817668e-13 6.884115556045134e-13 3.271772534874798e-19
5.570647458961463 4.9190097821826474e-21 7.273656609133744e-13 7.273653219717122e-13 3.389416622462843e-19
5.612585937458331 5.161058046862268e-21 7.689023362640763e-13 7.689019851626657e-13 3.511014104404217e-19
5.654840148729818 5.427207167531398e-21 8.146408157183003e-13 8.146404520021947e-13 3.637161056576088e-19
5.67608639626678 5.608678696531164e-21 8.450433562905308e-13 8.450429859071841e-13 3.703833466687181e-19
5.686739436050992 5.7022255774786474e-21 8.607502477497622e-13 8.607498739888478e-13 3.7376091425372853e-19
5.6974124697621304 5.797706427899834e-21 8.768056011953636e-13 8.768052240272168e-13 3.771681467197473e-19
5.718818669136295 5.9946566266649446e-21 9.099972316167744e-13 9.0999684754405e-13 3.8407272422267777e-19
5.740305295436557 6.21181633148989e-21 9.465052560881627e-13 9.46504864937996e-13 3.9115016689760323e-19
5.7835210386641895 6.775557827687266e-21 1.040175951996803e-12 1.04017554590284e-12 4.060939632742896e-19
5.827062130521658 7.425176339038382e-21 1.1484863922968226e-12 1.1484859705727975e-12 4.217240253646526e-19
5.8489554468988025 7.88116796356287e-21 1.2235967916896372e-12 1.2235963614037941e-12 4.3028584268259263e-19
5.870931020387893 8.370560491540224e-21 1.304460551534664e-12 1.3044601125050868e-12 4.390295776342678e-19
5.892989160043636 8.89604410073452e-21 1.3915602111009447e-12 1.3915597631412431e-12 4.479597013217525e-19
5.915130176081913 9.493778929556245e-21 1.4906402862897679e-12 1.4906398289897996e-12 4.5729996932564855e-19
5.95966208400165 1.1165646403343352e-20 1.7663425834228062e-12 1.7663421048396386e-12 4.785831675565043e-19
6.004529249263818 1.3576126727986236e-20 2.1638356967039726e-12 2.1638351934870216e-12 5.032169506813362e-19
6.027089341400364 1.5252033764569276e-20 2.440084242024825e-12 2.4400837243167302e-12 5.177080947547956e-19
6.049734195844842 1.7232721150076873e-20 2.767321309270165e-12 2.7673207759395108e-12 5.333306540327607e-19
6.095279466722835 2.2954873015994966e-20 3.7139662287840415e-12 3.7139656563873684e-12 5.723966719514341e-19
6.141167624020661 3.176221234538638e-20 5.177631402431595e-12 5.17763077791183e-12 6.245197635786367e-19
6.164241091010745 3.738670009028323e-20 6.117390205107703e-12 6.117389547666742e-12 6.574409605847487e-19
6.187401249150058 4.379425283130023e-20 7.192747835554196e-12 7.192747143052793e-12 6.925014040297096e-19
6.1990139391386085 4.6922892376992813e-20 7.721058102195864e-12 7.721057391722029e-12 7.104738370860673e-19
6.204828454712694 4.857098452399876e-20 7.99974454082522e-12 7.999743821135964e-12 7.196892584380174e-19
6.210648424152782 4.977399180537612e-20 8.205571803587343e-12 8.205571076016298e-12 7.275710459254983e-19
6.233982942956859 5.386102518283986e-20 8.912707586353183e-12 8.91270683056105e-12 7.557921327785949e-19
6.239830258556775 5.438338105432977e-20 9.007585918616702e-12 9.007585158539003e-12 7.60077699005189e-19
6.245683058788269 5.442848067750546e-20 9.023511714768786e-12 9.023510950379777e-12 7.643890100500581e-19
6.257405133728602 5.431574501502796e-20 9.021722159181095e-12 9.021721387024246e-12 7.72156848144355e-19
6.269149208991335 5.351130478488989e-20 8.90478790999464e-12 8.904787134054737e-12 7.759399027940873e-19
6.280915325867298 5.149465954042401e-20 8.585281957688514e-12 8.585281182925638e-12 7.747628732283657e-19
6.304513850009849 4.6521778749210215e-20 7.785335768613493e-12 7.785335000772254e-12 7.678412392908134e-19
6.32820103803542 4.035797278622006e-20 6.779209321701676e-12 6.779208566084915e-12 7.556167613063244e-19
6.3519772230701035 3.470526990113822e-20 5.851588684405154e-12 5.851587939807009e-12 7.445981463424766e-19
6.375842739491607 2.994982936715368e-20 5.068755958735899e-12 5.068755223425096e-12 7.353108025775572e-19
6.399797922933955 2.6138146492584964e-20 4.440281274301108e-12 4.4402805431092576e-12 7.311918503901925e-19
6.42384311029221 2.2969115947376155e-20 3.9165947617068545e-12 3.916594033315455e-12 7.283913996519572e-19
6.447978639727206 2.0659455454140432e-20 3.5359970439493477e-12 3.5359963139205427e-12 7.300288050745078e-19
6.472204850670314 1.873536259768416e-20 3.218724385875669e-12 3.2187236531791454e-12 7.326965225224225e-19
6.496522083828205 1.748449562349723e-20 3.0151120810769042e-12 3.0151113419356906e-12 7.391412128816054e-19
