Dust emission spectrum from A.P. Jones, M. Kohler, N. Ysard, M. Bocchio, and L. Verstraete (2017), A&A, 602A, 46J 
inside the DustPedia framework.

lambda    nu*dP/dnu     j_nu    j_nu(carb.) j_nu(sil)
 (um)   (erg s-1 H-1) (Jy cm2 sr-1 H-1)
0.9927057738263894 5.0028564009779666e-21 1.3182810773147694e-13 1.318281036277612e-13 4.103715751580741e-21
1.0001793341362166 5.086969566235469e-21 1.350536883208601e-13 1.3505368338242178e-13 4.938438302574478e-21
1.0077091589558085 5.171416774877087e-21 1.3832929983613256e-13 1.383292939011014e-13 5.935031213267113e-21
1.0114953028030835 5.213761773565823e-21 1.399859622507192e-13 1.399859557475916e-13 6.5031275681885175e-21
1.0152956718711033 5.256185702674811e-21 1.4165524789971667e-13 1.4165524077649467e-13 7.123222034920398e-21
1.0229392996569957 5.341223201087604e-21 1.4503072689919584e-13 1.450307183612126e-13 8.53798323567869e-21
1.0267826658714554 5.383740172667279e-21 1.467344381197908e-13 1.4673442877665134e-13 9.343139440063844e-21
1.0306404723013447 5.426328309022408e-21 1.4845085121722043e-13 1.4845084099640904e-13 1.0220811389489642e-20
1.03451277320114 5.468986299789848e-21 1.501800089195309e-13 1.501799977423325e-13 1.1177198402994935e-20
1.0383996230291617 5.5117128746535376e-21 1.5192195495746844e-13 1.519219427384692e-13 1.2218999269968231e-20
1.0403485208654093 5.533101495346635e-21 1.5279773755360922e-13 1.527977247794401e-13 1.2774169042202606e-20
1.0423010764483396 5.5545068043539366e-21 1.5367673411036063e-13 1.536767207569108e-13 1.3353449841296439e-20
1.0462171883269815 5.5973669016903386e-21 1.5544439225263535e-13 1.5544437766427208e-13 1.45883632326461e-20
1.0471985131304309 5.608092129677686e-21 1.5588832461428392e-13 1.5588830970052103e-13 1.4913762908885375e-20
1.048180758391296 5.6188214039672275e-21 1.5633306559158176e-13 1.5633305034547828e-13 1.5246103447757017e-20
1.0501480137395462 5.6402920225154935e-21 1.5722497640096896e-13 1.5722496046879616e-13 1.5932172804704223e-20
1.0521189612883777 5.661778621205668e-21 1.5812013074419434e-13 1.5812011409646441e-13 1.6647729921900756e-20
1.0531058218030118 5.6725136390386504e-21 1.585685283097026e-13 1.585685112927372e-13 1.701696541297314e-20
1.0540936079674168 5.683205975433369e-21 1.590164337034283e-13 1.5901641630931665e-13 1.7394111655693774e-20
1.058054026499678 5.7260125674859796e-21 1.6081611795837313e-13 1.6081609897415885e-13 1.89842142782351e-20
1.0590464539527713 5.7367234493358024e-21 1.612680585881048e-13 1.6126803918515824e-13 1.9402946591364326e-20
1.06003981227728 5.7474379942522146e-21 1.6172080862085105e-13 1.6172078879034757e-13 1.983050350090869e-20
1.0620293250338977 5.768878013835684e-21 1.6262874009098081e-13 1.626287193781798e-13 2.0712801009564257e-20
1.0660195594769086 5.811801366392193e-21 1.6445435132199414e-13 1.64454328730704e-13 2.259129014562739e-20
1.070024785945596 5.8547817254438656e-21 1.6629300427033426e-13 1.6629297963834964e-13 2.463198462627133e-20
1.0740450607676866 5.897818240589421e-21 1.6814475300388695e-13 1.6814472615575116e-13 2.6848135826969398e-20
1.07808044048254 5.9409101116582534e-21 1.7000965309083473e-13 1.7000962383682317e-13 2.9254011577158663e-20
1.0861967418109137 6.027191007191106e-21 1.7377723534178404e-13 1.7377720064425007e-13 3.469753394175557e-20
1.0902777775684922 6.070228699002167e-21 1.7567568148327838e-13 1.7567564371379338e-13 3.776948496539545e-20
1.0943741465085532 6.113316478048695e-21 1.7758739511892556e-13 1.7758735401900432e-13 4.109992124525317e-20
1.1026131145906286 6.1996402611979685e-21 1.8145087914287594e-13 1.8145083052295015e-13 4.8619925763059964e-20
1.1109141095355224 6.286158847368113e-21 1.8536821457643182e-13 1.853681571356082e-13 5.744082360179595e-20
1.1192775983109025 6.372801878702186e-21 1.8933794617588731e-13 1.8933787840200414e-13 6.777388312134994e-20
1.1277040513999907 6.45925621297206e-21 1.9335129508070032e-13 1.9335121521840051e-13 7.986229980422139e-20
1.1361939428280308 6.5458903712865344e-21 1.9741976486919501e-13 1.974196708835597e-13 9.398563524888507e-20
1.1447477501889525 6.6327047675538934e-21 2.0154401143234112e-13 2.0154390096752227e-13 1.104648188542202e-19
1.1533659546722406 6.719731734647355e-21 2.0572567511372754e-13 2.05725545445773e-13 1.296679546182283e-19
1.1707974979042381 6.894687139367987e-21 2.1427217728853448e-13 2.1427199929478463e-13 1.7799374986459996e-19
1.1884924949847024 7.070520422902941e-21 2.230577194874164e-13 2.2305747638250433e-13 2.431049120464721e-19
1.2064549276569216 7.248419934748797e-21 2.3212604973694933e-13 2.3212571934377224e-13 3.303931770602866e-19
1.2246888378427687 7.427233793206858e-21 2.4144726340191584e-13 2.41446816581491e-13 4.468204247742754e-19
1.2431983285522175 7.606816933329773e-21 2.510225951880541e-13 2.510219938439401e-13 6.013441140376722e-19
1.2619875648066055 7.787431669930407e-21 2.608667680316782e-13 2.608659626010108e-13 8.05430667290312e-19
1.3004222497298317 8.150646372700532e-21 2.81349323746816e-13 2.813478992074278e-13 1.424539388205849e-18
1.3400274889804893 8.51796618670647e-21 3.02983551695297e-13 3.0298107838563525e-13 2.4733096618279004e-18
1.3808389325824078 8.890728277475652e-21 3.258740617854609e-13 3.2586984438796887e-13 4.217397491968237e-18
1.4228933163050095 9.272042036097644e-21 3.5020082457477164e-13 3.5019375834166895e-13 7.066233102800729e-18
1.466228494730424 9.668508389870952e-21 3.762968361240598e-13 3.762851968422991e-13 1.1639281760679732e-17
1.5108834753276823 1.0079273869157393e-20 4.042310318030026e-13 4.042121757544928e-13 1.885604850987915e-17
1.5568984535646726 1.0503904531149805e-20 4.340907045856183e-13 4.3406062857784936e-13 3.0076007769068737e-17
1.6043148490894465 1.0944774167656515e-20 4.660857671832598e-13 4.660384469032618e-13 4.7320279998029434e-17
1.6531753430134553 1.1404355094397619e-20 5.004481447692478e-13 5.003747920852537e-13 7.335268399396592e-17
1.7035239163302658 1.1885514250332642e-20 5.374470027982092e-13 5.373349487644116e-13 1.1205403379747136e-16
1.755405889504358 1.2396889099665208e-20 5.776432466269529e-13 5.774744755025141e-13 1.6877112443869199e-16
1.8088679632656115 1.293805486223857e-20 6.21219798646522e-13 6.209690834801539e-13 2.5071516636818955e-16
1.8639582606462262 1.3508252989373503e-20 6.683513072010034e-13 6.679838165677851e-13 3.6749063321812583e-16
1.9207263702978936 1.4108515963608454e-20 7.193102781685614e-13 7.187785898294462e-13 5.316883391151861e-16
1.979223391128241 1.474059409449993e-20 7.744247698804213e-13 7.736651799842767e-13 7.595898961443972e-16
2.039501978296691 1.540575545001911e-20 8.3402018883881e-13 8.329482617554775e-13 1.0719270833325269e-15
2.1016163906111602 1.610979651370366e-20 8.986962607681366e-13 8.972014282418039e-13 1.4948325263326527e-15
2.1656225393682647 1.6854759444241765e-20 9.688906266308218e-13 9.668299578103215e-13 2.0606688205002994e-15
2.231578038680979 1.7637350422222947e-20 1.0447559555556564e-12 1.041946998819102e-12 2.808956736554611e-15
2.299542257339062 1.845663890448509e-20 1.1265836481092846e-12 1.1227963155714278e-12 3.787332537856499e-15
2.369576372248914 1.931331941906087e-20 1.2147784165435037e-12 1.2097258615712795e-12 5.0525549722237905e-15
2.4417434235010123 2.0208517397600066e-20 1.3097967615314562e-12 1.303125534715459e-12 6.671226815997012e-15
2.5161083711144245 2.1146847555801552e-20 1.4123567511440047e-12 1.403635987482445e-12 8.72076366155925e-15
2.5927381535095444 2.2137520514412865e-20 1.5235512516739086e-12 1.5122613444306247e-12 1.1289907243283849e-14
2.6717017477616296 2.3188154112209457e-20 1.6444610283595533e-12 1.6299825930907057e-12 1.4478435268847674e-14
2.753070231689431 2.4311144412301648e-20 1.776610099802929e-12 1.758212946954322e-12 1.8397152848606543e-14
2.836916847834745 2.554420579233448e-20 1.9235719873703568e-12 1.9004037061789984e-12 2.3168281191357544e-14
2.9233170693905177 2.697303871917755e-20 2.0930289303386404e-12 2.0641101941135173e-12 2.89187362251231e-14
2.967498994190263 2.784464353261354e-20 2.1933183692424587e-12 2.161178562220222e-12 3.2139807022235685e-14
3.0123486681368425 2.877688963106207e-20 2.301010087473286e-12 2.2653369171170616e-12 3.5673170356224264e-14
3.0578761833420214 3.0291704720573364e-20 2.4587424772567445e-12 2.419187027330088e-12 3.9555449926656165e-14
3.1040917844459814 3.2062237777283955e-20 2.6417871171792522e-12 2.5980140459746036e-12 4.37730712046496e-14
3.127460860933648 3.368855130986406e-20 2.796685637399508e-12 2.750657175087734e-12 4.602846231177443e-14
3.1510058709225794 3.5749749699000805e-20 2.9901408822254333e-12 2.941763553132122e-12 4.837732909331099e-14
3.162844764501044 3.760421660742947e-20 3.1570674132131065e-12 3.1074753306997176e-12 4.9592082513388466e-14
3.1747281389236908 3.9701441676817025e-20 3.3456634505738817e-12 3.2948324703966573e-12 5.0830980177223493e-14
3.1986289994194426 4.5372170076068667e-20 3.852324429067518e-12 3.798935597817756e-12 5.3388831249763286e-14
3.2227097969389145 5.84663800129176e-20 5.001460432737472e-12 4.945363305912966e-12 5.609712682450628e-14
3.2348180950136065 7.073898191007487e-20 6.0740463543497424e-12 6.016504452537265e-12 5.754190181247623e-14
3.240889293275058 7.990316188736643e-20 6.87381112180843e-12 6.8155071364932e-12 5.830398531522865e-14
3.2469718861334385 9.052255959580869e-20 7.80197917623255e-12 7.74288666110868e-12 5.909251512386946e-14
3.2714166318528037 1.4623577538235805e-19 1.2698690035366191e-11 1.2636340624101064e-11 6.23494112651277e-14
3.2744851364798273 1.4971959247902635e-19 1.3013409399085643e-11 1.2950676645143536e-11 6.273275394210382e-14
3.2775565192852394 1.5329645982796335e-19 1.3336803366726547e-11 1.3273685397725056e-11 6.311796900148736e-14
3.283707930232385 1.498735321668443e-19 1.3063480386962435e-11 1.2999674487519227e-11 6.380589944320795e-14
3.2898708863219004 1.3897464587323592e-19 1.2136231809804999e-11 1.2071800736485723e-11 6.443107331927922e-14
3.29141343181113 1.3639898219075286e-19 1.1916891899211837e-11 1.1852303864018002e-11 6.458803519383368e-14
3.292184975758714 1.3513257877594505e-19 1.1809016415315415e-11 1.1744349798823607e-11 6.466661649181045e-14
3.295272960557952 1.2723342704037135e-19 1.1129151459902487e-11 1.1064179343481884e-11 6.497211642060325e-14
3.3076538914384823 9.966334043242979e-20 8.750340071812048e-12 8.684141362373799e-12 6.619870943825023e-14
3.310756385682612 9.399441136915855e-20 8.260354596883237e-12 8.193846805597013e-12 6.650779128622113e-14
3.313861789986515 8.874139835703315e-20 7.806027778945539e-12 7.739209931126186e-12 6.681784781935272e-14
3.3200813396944477 8.140796922080667e-20 7.17439159670509e-12 7.10690643849142e-12 6.748515821366896e-14
3.345076488085796 6.862318793427724e-20 6.093213216295576e-12 6.02275316802125e-12 7.046004827432446e-14
3.3482140837626964 6.914927557087498e-20 6.145684859306812e-12 6.074821770252e-12 7.086308905481341e-14
3.3513546224236106 6.968010527488821e-20 6.1986714251402426e-12 6.127403527429169e-12 7.126789771107518e-14
3.3576445397418455 7.338002342656129e-20 6.5400639709691e-12 6.467949557601336e-12 7.211441336776409e-14
3.3702598118196083 8.676648118601616e-20 7.762199486076313e-12 7.688309554318706e-12 7.388993175760623e-14
3.382922481734668 8.997910827016285e-20 8.079847503019169e-12 8.004233163184528e-12 7.561433983463972e-14
3.389271646505754 9.163493694940004e-20 8.24397938084853e-12 8.167491268019303e-12 7.648811282922726e-14
3.395632727569191 9.345568572798675e-20 8.423563851799665e-12 8.346175263189887e-12 7.7388588609777e-14
3.421196662673239 1.0227963867482911e-19 9.288309063275277e-12 9.207194409842492e-12 8.111465343278341e-14
3.4276182099114902 1.0070490330920512e-19 9.16246843101557e-12 9.080523737336863e-12 8.194469367870508e-14
3.4340518103208963 9.351812229757997e-20 8.524561621357404e-12 8.441832580476836e-12 8.272904088057002e-14
3.4469541582030403 8.321168312404848e-20 7.613585817394515e-12 7.529352795711587e-12 8.42330216829282e-14
3.472904465399547 8.03936412092029e-20 7.411122109596365e-12 7.323422362455582e-12 8.76997471407834e-14
3.4990501388274233 7.610872347494258e-20 7.0689357857580485e-12 6.977691824824775e-12 9.124396093327477e-14
3.5253949054701885 6.079150454486485e-20 5.6887925595634926e-12 5.594110754894819e-12 9.468180466867398e-14
3.5519380250092896 4.62144263254572e-20 4.357249000246413e-12 4.259116172611027e-12 9.813282763538421e-14
3.578680990867387 4.057080890330469e-20 3.8539500915713606e-12 3.7520354396974675e-12 1.0191465187389263e-13
3.605625307711299 3.844329511550931e-20 3.679346015630899e-12 3.573451057903552e-12 1.0589495772734666e-13
3.660119384959845 3.719950278210479e-20 3.6141137672868982e-12 3.499868755118053e-12 1.1424501216884487e-13
3.715437065384467 3.6410680519807e-20 3.5909399149768982e-12 3.4679102858721668e-12 1.2302962910473267e-13
3.8285932144167436 3.665860689363214e-20 3.725500406729898e-12 3.5836538757493652e-12 1.4184653098053268e-13
3.94519561050918 3.7359855273737505e-20 3.912399182344117e-12 3.7501293496124016e-12 1.6226983273171464e-13
4.06534921144712 3.821482234862582e-20 4.123814632090731e-12 3.939562768512681e-12 1.8425186357805003e-13
4.189162171576248 3.9133728086219716e-20 4.35158858933125e-12 4.143779771908396e-12 2.0780881742285477e-13
4.316745939156006 4.0077216926473846e-20 4.592228372341641e-12 4.35940454198462e-12 2.3282383035702127e-13
4.448215356677963 4.102571076081738e-20 4.844080502786905e-12 4.585164429156465e-12 2.5891607363044036e-13
4.58368876423945 4.197429161494348e-20 5.107024361655207e-12 4.820935009547397e-12 2.860893521078085e-13
4.723288106065518 4.2927412205609e-20 5.382060541711623e-12 5.067573768187316e-12 3.1448677352430647e-13
4.867139040275056 4.389049791927377e-20 5.670399972782814e-12 5.32709983383159e-12 3.4330013895122284e-13
4.940699165968905 4.439980880473758e-20 5.822894800128854e-12 5.464950165666031e-12 3.5794463446282295e-13
5.015371051989984 4.4892725386043645e-20 5.976521328405048e-12 5.603824461391209e-12 3.7269686701384026e-13
5.091171501069577 4.544691274485364e-20 6.141741683913472e-12 5.753857393435831e-12 3.878842904776431e-13
5.129500256944802 4.57169991900332e-20 6.224754173274602e-12 5.829254432880696e-12 3.954997403939061e-13
5.168117569889187 4.598944616739921e-20 6.308992302296578e-12 5.905784310501584e-12 4.0320799179499266e-13
5.20702561229733 4.631832551787094e-20 6.401945866104379e-12 5.990293638087694e-12 4.116522280166859e-13
5.246226572918644 4.6644351562005647e-20 6.495544104018199e-12 6.075412212447704e-12 4.2013189157049544e-13
5.265937586045735 4.680631154523644e-20 6.542587798824393e-12 6.118204057945952e-12 4.2438374087844013e-13
5.285722656980489 4.696757971673673e-20 6.589796238350355e-12 6.161153320309186e-12 4.2864291804116973e-13
5.305582063971359 4.712816448783142e-20 6.637170816356509e-12 6.2042619107542236e-12 4.329089056022868e-13
5.3255160863122235 4.7299117774582e-20 6.686274068637538e-12 6.2490564960658176e-12 4.372175725717199e-13
5.365609099470188 4.7724566592807927e-20 6.797206373588686e-12 6.351072373042046e-12 4.461340005466419e-13
5.406003951863644 4.815203664212064e-20 6.90972005904172e-12 6.454635308996111e-12 4.550847500456095e-13
5.446702915881641 4.858190980001157e-20 7.0238900431269316e-12 6.559824370541308e-12 4.640656725856248e-13
5.487708281020852 4.903553972713516e-20 7.142848021764864e-12 6.669734289764874e-12 4.731137319999907e-13
5.529022354014368 4.967875134326015e-20 7.291022699299715e-12 6.808477809658811e-12 4.825448896409028e-13
5.570647458961463 5.0339451354529437e-20 7.443609573034268e-12 6.951599439098527e-12 4.9201013393574e-13
5.612585937458331 5.101937254992531e-20 7.600944300987774e-12 7.099439062257443e-12 5.015052387303319e-13
5.654840148729818 5.175184283107506e-20 7.768113904155356e-12 7.257037541597166e-12 5.110763625581885e-13
5.67608639626678 5.2266099971238175e-20 7.87478173196618e-12 7.358692153420447e-12 5.16089578545733e-13
5.686739436050992 5.252833766001951e-20 7.929146092241607e-12 7.410546306162338e-12 5.185997860792676e-13
5.6974124697621304 5.27941022963079e-20 7.984220170363469e-12 7.463107866365675e-12 5.211123039977932e-13
5.718818669136295 5.3336589030177115e-20 8.09656855831379e-12 7.570424556612087e-12 5.261440017017043e-13
5.740305295436557 5.39335306892675e-20 8.21794585554658e-12 7.686721599983394e-12 5.312242555631846e-13
5.7835210386641895 5.550290774306406e-20 8.52074343817365e-12 7.979022718774644e-12 5.417207193990055e-13
5.827062130521658 5.727398360857132e-20 8.858832141297566e-12 8.306475145247509e-12 5.523569960500578e-13
5.8489554468988025 5.854726729521992e-20 9.089800998511003e-12 8.531681631612912e-12 5.581193668980919e-13
5.870931020387893 5.989330734441255e-20 9.333718669220383e-12 8.76981901801922e-12 5.638996512011619e-13
5.892989160043636 6.131789362209627e-20 9.591627472483448e-12 9.021930156759088e-12 5.696973157243621e-13
5.915130176081913 6.293335354767741e-20 9.881312051350869e-12 9.305598959561136e-12 5.757130917897289e-13
5.95966208400165 6.750554485013454e-20 1.0678998257570393e-11 1.0089466513073051e-11 5.895317444973407e-13
6.004529249263818 7.407209088995908e-20 1.1806006058177767e-11 1.120086201672384e-11 6.05144041453925e-13
6.027089341400364 7.864665066724842e-20 1.2582220570936666e-11 1.1968000337707394e-11 6.142202332292693e-13
6.049734195844842 8.400340435975059e-20 1.3489710006416434e-11 1.2865863784545906e-11 6.23846221870527e-13
6.095279466722835 9.947507490521162e-20 1.6094494120977616e-11 1.54467982605839e-11 6.476958603937176e-13
6.141167624020661 1.2307883667633315e-19 2.0063364693256216e-11 1.938448135860473e-11 6.788833346514913e-13
6.164241091010745 1.3811916928955002e-19 2.259971731415531e-11 2.190114731196428e-11 6.98570002191029e-13
6.187401249150058 1.5502334813012163e-19 2.5460963017648815e-11 2.474219944373288e-11 7.187635739159308e-13
6.1990139391386085 1.632290685925901e-19 2.6858982017669743e-11 2.612994741926479e-11 7.290345984049597e-13
6.204828454712694 1.675323240529286e-19 2.7592930386082273e-11 2.6858710303466443e-11 7.342200826158366e-13
6.210648424152782 1.7063893628392045e-19 2.813095742130611e-11 2.7392344425965776e-11 7.386129953403295e-13
6.233982942956859 1.810284568086036e-19 2.9955866879004335e-11 2.9202044528815516e-11 7.5382235018881e-13
6.239830258556775 1.82261461050851e-19 3.018818871206324e-11 2.94323360622201e-11 7.558526498431409e-13
6.245683058788269 1.8221849947795052e-19 3.020938200405111e-11 2.945149663097308e-11 7.578853730780359e-13
6.257405133728602 1.8158795985821464e-19 3.016134862626075e-11 2.9399952199381115e-11 7.613964268796263e-13
6.269149208991335 1.7911071630093894e-19 2.980571951064532e-11 2.9043259799360246e-11 7.624597112850776e-13
6.280915325867298 1.7341182465339712e-19 2.8911530297193917e-11 2.815103112984945e-11 7.604991673444581e-13
6.304513850009849 1.5957280383762737e-19 2.6704220922251723e-11 2.595037434757847e-11 7.538465746732521e-13
6.32820103803542 1.4273716297386674e-19 2.3976553800444708e-11 2.3232265623127824e-11 7.442881773168929e-13
6.3519772230701035 1.2738564755133623e-19 2.147824857407535e-11 2.074258978877991e-11 7.356587852954482e-13
6.375842739491607 1.1443632563927594e-19 1.9367382710903483e-11 1.8639398084204697e-11 7.279846266987846e-13
6.399797922933955 1.0415146210504222e-19 1.769298320396569e-11 1.6969234334143064e-11 7.237488698226272e-13
6.42384311029221 9.556117121707771e-20 1.629467949349322e-11 1.5574479120298083e-11 7.20200373195138e-13
6.447978639727206 8.931003544657015e-20 1.5285979925032003e-11 1.4566652952158728e-11 7.193269728732772e-13
6.472204850670314 8.407409004205714e-20 1.4443879718246061e-11 1.372489726031111e-11 7.189824579349502e-13
6.496522083828205 8.064039790277198e-20 1.3906025268051958e-11 1.3185225397552843e-11 7.207998704991216e-13
