Dust emission spectrum from A.P. Jones, M. Kohler, N. Ysard, M. Bocchio, and L. Verstraete (2017), A&A, 602A, 46J 
inside the DustPedia framework.

lambda    nu*dP/dnu     j_nu    j_nu(carb.) j_nu(sil)
 (um)   (erg s-1 H-1) (Jy cm2 sr-1 H-1)
0.9927057738263894 3.923976716621019e-22 1.0339901525724426e-14 1.0339901525723858e-14 5.671907066880249e-28
1.0001793341362166 3.988804843338526e-22 1.0589857066584282e-14 1.0589857066583596e-14 6.833864273060031e-28
1.0077091589558085 4.053540522671707e-22 1.0842742845298813e-14 1.0842742845297992e-14 8.223383230563368e-28
1.0114953028030835 4.085865721883489e-22 1.0970271936953286e-14 1.0970271936952387e-14 9.016427796555436e-28
1.0152956718711033 4.118158267249076e-22 1.1098518264690895e-14 1.1098518264689907e-14 9.882786838977812e-28
1.0229392996569957 4.182601096373113e-22 1.1357055387852847e-14 1.1357055387851659e-14 1.1861970450280021e-27
1.0267826658714554 4.2146732261558154e-22 1.1487138826614388e-14 1.1487138826613094e-14 1.29897703414335e-27
1.0306404723013447 4.246698521861593e-22 1.1617911311872703e-14 1.1617911311871278e-14 1.4220227409363409e-27
1.03451277320114 4.278673892943681e-22 1.174936721693264e-14 1.174936721693108e-14 1.5562234052379686e-27
1.0383996230291617 4.310596265995447e-22 1.1881500844754309e-14 1.1881500844752605e-14 1.7025410727854182e-27
1.0403485208654093 4.326536622652435e-22 1.194782000547254e-14 1.1947820005470757e-14 1.78056569712555e-27
1.0423010764483396 4.342462585339719e-22 1.2014306429300722e-14 1.2014306429298864e-14 1.8620161834989652e-27
1.0462171883269815 4.374269813605106e-22 1.2147778136887106e-14 1.2147778136885067e-14 2.0357735576788266e-27
1.0471985131304309 4.382212033537113e-22 1.2181249455541965e-14 1.2181249455539884e-14 2.081584868321118e-27
1.048180758391296 4.390150324549034e-22 1.221476194562868e-14 1.221476194562655e-14 2.1283842410111816e-27
1.0501480137395462 4.406014932289264e-22 1.2281910067531324e-14 1.2281910067529099e-14 2.2250288060317603e-27
1.0521189612883777 4.421863262551575e-22 1.2349221754960001e-14 1.2349221754957676e-14 2.3258745156711675e-27
1.0531058218030118 4.429769038998043e-22 1.2382904686763314e-14 1.2382904686760935e-14 2.3779301948015256e-27
1.0540936079674168 4.43763074003098e-22 1.2416516617957391e-14 1.241651661795496e-14 2.4311131893748862e-27
1.058054026499678 4.469032877246619e-22 1.2551361176328741e-14 1.2551361176326083e-14 2.655474649445008e-27
1.0590464539527713 4.4768720151570345e-22 1.2585171044202625e-14 1.2585171044199906e-14 2.714592065622081e-27
1.06003981227728 4.4847065029370085e-22 1.2619020210526437e-14 1.2619020210523667e-14 2.7749697982859907e-27
1.0620293250338977 4.50036134563594e-22 1.2686836050955032e-14 1.2686836050952129e-14 2.899609038074798e-27
1.0660195594769086 4.531613227098674e-22 1.2822935037219061e-14 1.2822935037215898e-14 3.16517039738889e-27
1.070024785945596 4.5627856255867195e-22 1.2959651872637298e-14 1.2959651872633841e-14 3.45394318086319e-27
1.0740450607676866 4.593875667580401e-22 1.3096980238215627e-14 1.3096980238211854e-14 3.767851860602627e-27
1.07808044048254 4.624880502551607e-22 1.3234913759802633e-14 1.3234913759798528e-14 4.108971188414508e-27
1.0861967418109137 4.686568474560518e-22 1.3512412528114623e-14 1.3512412528109736e-14 4.881959336317626e-27
1.0902777775684922 4.717121430632077e-22 1.3651602979997893e-14 1.3651602979992574e-14 5.318833128930592e-27
1.0943741465085532 4.747575837678647e-22 1.3791362334508378e-14 1.3791362334502583e-14 5.79295018587964e-27
1.1026131145906286 4.808178177587429e-22 1.407256099776094e-14 1.4072560997754073e-14 6.865165893691019e-27
1.1109141095355224 4.868354101687009e-22 1.4355954560922397e-14 1.4355954560914272e-14 8.125487774206795e-27
1.1192775983109025 4.928026772590084e-22 1.4641322381922378e-14 1.4641322381912773e-14 9.604986442553253e-27
1.1277040513999907 4.9869190162548125e-22 1.4927837176035713e-14 1.4927837176024375e-14 1.1339526800937928e-26
1.1361939428280308 5.045315298928877e-22 1.521634038319111e-14 1.521634038317774e-14 1.337044626418768e-26
1.1447477501889525 5.103196142871046e-22 1.5506775256930263e-14 1.550677525691452e-14 1.5745332529425495e-26
1.1533659546722406 5.160574066886093e-22 1.5799181065674657e-14 1.5799181065656138e-14 1.8518921396921852e-26
1.1707974979042381 5.274006449514566e-22 1.639048766286514e-14 1.6390487662839613e-14 2.5523021841726028e-26
1.1884924949847024 5.385182756653931e-22 1.6988941589521712e-14 1.698894158948671e-14 3.500322353906289e-26
1.2064549276569216 5.494972293457171e-22 1.7597300147848048e-14 1.7597300147800278e-14 4.7771947102782946e-26
1.2246888378427687 5.602175942732806e-22 1.8211760772981653e-14 1.8211760772916768e-14 6.488446396278772e-26
1.2431983285522175 5.706542835684482e-22 1.883141404243408e-14 1.8831414042346367e-14 8.770684961088645e-26
1.2619875648066055 5.808033855996611e-22 1.9456004044089944e-14 1.9456004043971943e-14 1.1799847715889023e-25
1.3004222497298317 6.000700963372308e-22 2.0713610686219573e-14 2.0713610686008953e-14 2.1061991696832237e-25
1.3400274889804893 6.179422589677435e-22 2.198016947482792e-14 2.1980169474458766e-14 3.691547921366829e-25
1.3808389325824078 6.343535234922142e-22 2.325111654036743e-14 2.32511165397318e-14 6.356278670334388e-25
1.4228933163050095 6.493836591560283e-22 2.452692643286768e-14 2.452692643179197e-14 1.0757095812077413e-24
1.466228494730424 6.633942384895561e-22 2.581920012688553e-14 2.5819200125095334e-14 1.790197044927707e-24
1.5108834753276823 6.761128368603245e-22 2.7115622931491183e-14 2.7115622928560215e-14 2.9309710586340397e-24
1.5568984535646726 6.873189998729735e-22 2.8404560232354076e-14 2.840456022762826e-14 4.725814903959673e-24
1.6043148490894465 6.97033093172495e-22 2.968331726235932e-14 2.9683317254841587e-14 7.517726538412046e-24
1.6531753430134553 7.052845435065139e-22 3.094943452836287e-14 3.094943451657727e-14 1.1785599784370754e-23
1.7035239163302658 7.1217126980644785e-22 3.22034290124012e-14 3.220342899418828e-14 1.8212919669367154e-23
1.755405889504358 7.182595281922847e-22 3.3467893634455395e-14 3.3467893606697273e-14 2.775812253104545e-23
1.8088679632656115 7.234093902571926e-22 3.4734451240131854e-14 3.4734451198393015e-14 4.173883538528033e-23
1.8639582606462262 7.275260486118432e-22 3.599599341195472e-14 3.599599335000977e-14 6.194495612491719e-23
1.9207263702978936 7.306781038764438e-22 3.7252980505301564e-14 3.7252980414528955e-14 9.077261652871195e-23
1.979223391128241 7.330253544158354e-22 3.851086243680029e-14 3.8510862305411356e-14 1.313889316923944e-22
2.039501978296691 7.3475906495650795e-22 3.977759455511117e-14 3.977759436718908e-14 1.879220676958031e-22
2.1016163906111602 7.364151094094696e-22 4.108143170129323e-14 4.1081431435590105e-14 2.6570311906029966e-22
2.1656225393682647 7.38304187146774e-22 4.2441187540839314e-14 4.244118716932884e-14 3.715104787332421e-22
2.231578038680979 7.404484835499476e-22 4.386078092524864e-14 4.3860780411390975e-14 5.138576600567546e-22
2.299542257339062 7.430340084437672e-22 4.5354409772758006e-14 4.5354409069439316e-14 7.033186857401036e-22
2.369576372248914 7.464721495084759e-22 4.6951962844811987e-14 4.6951961891911066e-14 9.529009239026533e-22
2.4417434235010123 7.512486900537498e-22 4.869150378414234e-14 4.8691502505734517e-14 1.2784078224265476e-21
2.5161083711144245 7.581956186312529e-22 5.0638408294000005e-14 5.063840659510179e-14 1.698898212579662e-21
2.5927381535095444 7.686744785125525e-22 5.290181269872214e-14 5.2901810461602504e-14 2.237119631464291e-21
2.6717017477616296 7.843108242380512e-22 5.5621873924881406e-14 5.562187100504747e-14 2.91983392458195e-21
2.753070231689431 8.075521139603703e-22 5.901430296523705e-14 5.901429918696355e-14 3.778273503798784e-21
2.836916847834745 8.439434219966073e-22 6.355202188221145e-14 6.355201703346873e-14 4.848742730471169e-21
2.9233170693905177 9.05697518512736e-22 7.027947900565187e-14 7.027947283353506e-14 6.172116812014567e-21
2.967498994190263 9.581431703082252e-22 7.547279293914468e-14 7.547278600645656e-14 6.932688113239742e-21
3.0123486681368425 1.0193938326538812e-21 8.151108483637967e-14 8.151107705940457e-14 7.776975110355936e-21
3.0578761833420214 1.1564493174825407e-21 9.386764746051812e-14 9.386763874528443e-14 8.715233662575628e-21
3.1040917844459814 1.3330611455618409e-21 1.0983836453401204e-13 1.0983835478455818e-13 9.749453853485536e-21
3.127460860933648 1.5198961724631107e-21 1.2617555907254057e-13 1.2617554876400292e-13 1.0308537643044052e-20
3.1510058709225794 1.7688288462540007e-21 1.4794641896448183e-13 1.4794640806921284e-13 1.0895268962655157e-20
3.162844764501044 2.000548644114577e-21 1.679563491194753e-13 1.6795633791894972e-13 1.1200525598142493e-20
3.1747281389236908 2.270019912219522e-21 1.912958908195667e-13 1.9129587930648937e-13 1.1513077362742169e-20
3.1986289994194426 3.021653996030676e-21 2.5655355442736753e-13 2.565535422650975e-13 1.2162270104443368e-20
3.2227097969389145 4.793444990415454e-21 4.100514766053527e-13 4.1005146375004074e-13 1.2855311954984308e-20
3.2348180950136065 6.473659624660638e-21 5.558647803619408e-13 5.558647671349524e-13 1.3226988405528656e-20
3.240889293275058 7.729838881332919e-21 6.649730901411855e-13 6.649730767177124e-13 1.3423472987250896e-20
3.2469718861334385 9.183044671732062e-21 7.9147036521252e-13 7.914703515854299e-13 1.362709006948466e-20
3.2714166318528037 1.6934701077390174e-20 1.4705602596975954e-12 1.4705602452243265e-12 1.4473269015891677e-20
3.2744851364798273 1.741928116927294e-20 1.5140586047566715e-12 1.5140585901829764e-12 1.457369503849144e-20
3.2775565192852394 1.7917779771187418e-20 1.5588481680843526e-12 1.5588481534096243e-12 1.4674728844037102e-20
3.283707930232385 1.7438377753416152e-20 1.5199875686428255e-12 1.5199875537866471e-12 1.4856178405775038e-20
3.2898708863219004 1.5918049667914412e-20 1.390074711224739e-12 1.3900746962026897e-12 1.5022049308443254e-20
3.29141343181113 1.5559518405630717e-20 1.359402364046883e-12 1.3594023489831373e-12 1.5063746274155866e-20
3.292184975758714 1.5383348848789572e-20 1.3443258518664285e-12 1.344325836781799e-12 1.508462923773823e-20
3.295272960557952 1.427134910636125e-20 1.2483197964277266e-12 1.2483197812617792e-12 1.516594744518989e-20
3.3076538914384823 1.0419041916686621e-20 9.147812986991371e-13 9.147812832058138e-13 1.549332327729874e-20
3.310756385682612 9.634999316008779e-21 8.467366275467152e-13 8.467366119706879e-13 1.5576027543356976e-20
3.313861789986515 8.911598045486178e-21 7.838977431703791e-13 7.838977275113012e-13 1.5659077808305728e-20
3.3200813396944477 7.897107434856181e-21 6.959630827448375e-13 6.95963066907236e-13 1.583760134672786e-20
3.345076488085796 6.087343440214673e-21 5.405094490446874e-13 5.4050943240964e-13 1.6635047408287367e-20
3.3482140837626964 6.155204608355476e-21 5.47047636511156e-13 5.470476197677387e-13 1.6743417214547723e-20
3.3513546224236106 6.223816054361515e-21 5.536643577001501e-13 5.536643408477634e-13 1.6852386730099312e-20
3.3576445397418455 6.725255197026485e-21 5.993947283713309e-13 5.993947112908574e-13 1.7080473458994208e-20
3.3702598118196083 8.57478336050706e-21 7.671070450748059e-13 7.671070275145482e-13 1.7560257735178922e-20
3.382922481734668 8.996023805685498e-21 8.078153015834221e-13 8.078152835548131e-13 1.80286089028431e-20
3.389271646505754 9.21425561477201e-21 8.289647576228906e-13 8.289647393561189e-13 1.8266771722330917e-20
3.395632727569191 9.44941081028672e-21 8.517161337194002e-13 8.517161152069602e-13 1.8512440169936725e-20
3.421196662673239 1.0578537673725647e-20 9.606675250725711e-13 9.606675055383189e-13 1.9534252372614887e-20
3.4276182099114902 1.035098283447684e-20 9.4176698784645e-13 9.41766968081361e-13 1.9765088861203938e-20
3.4340518103208963 9.353860279732654e-21 8.526428503174921e-13 8.52642830332919e-13 1.9984572984639966e-20
3.4469541582030403 7.933772900296013e-21 7.259132199269933e-13 7.259131995184744e-13 2.0408518720368042e-20
3.472904465399547 7.535766057783042e-21 6.946878086819211e-13 6.946877872952112e-13 2.138670963070922e-20
3.4990501388274233 6.927040174758391e-21 6.433796277880645e-13 6.433796053913022e-13 2.239676213412481e-20
3.5253949054701885 4.7607607844723984e-21 4.455060083038523e-13 4.455059849153368e-13 2.338851560893978e-20
3.5519380250092896 2.724708357362772e-21 2.5689451779567294e-13 2.5689449339979367e-13 2.4395879338547954e-20
3.578680990867387 1.9173753780302507e-21 1.821375815145369e-13 1.8213755600734424e-13 2.5507192666447456e-20
3.605625307711299 1.5907966954863151e-21 1.5225259608027302e-13 1.522525693924099e-13 2.6687863163575537e-20
3.660119384959845 1.3524852568684685e-21 1.3140056240892365e-13 1.3140053320254424e-13 2.920637943209024e-20
3.715437065384467 1.1836799598847531e-21 1.1673837329670828e-13 1.1673834138066982e-13 3.1916038439908665e-20
3.8285932144167436 1.0977963885048354e-21 1.1156563869839291e-13 1.1156560075845272e-13 3.7939940177714354e-20
3.94519561050918 1.0810542952475334e-21 1.1321018001290888e-13 1.1321013518705374e-13 4.4825855149624743e-20
4.06534921144712 1.0926973929104444e-21 1.1791449548616102e-13 1.1791444281995222e-13 5.266620882375026e-20
4.189162171576248 1.1207721477028554e-21 1.2462751513064828e-13 1.2462745354251554e-13 6.158813272429532e-20
4.316745939156006 1.1608211093712065e-21 1.3301212116219106e-13 1.3301204946218246e-13 7.17000086239687e-20
4.448215356677963 1.2113435452003004e-21 1.4302849458700352e-13 1.4302841154470218e-13 8.304230141459765e-20
4.58368876423945 1.2725125048261282e-21 1.5482696938104546e-13 1.5482687357951205e-13 9.580153339481156e-20
4.723288106065518 1.3457384643288697e-21 1.6872309594710763e-13 1.687229856996485e-13 1.1024745915695668e-19
4.867139040275056 1.433852378535222e-21 1.8524548304680579e-13 1.8524535668844292e-13 1.2635836285212755e-19
4.940699165968905 1.4870552498626992e-21 1.9502260291278306e-13 1.9502246775612323e-13 1.3515665979451985e-19
5.015371051989984 1.5421440280173887e-21 2.0530401297007662e-13 2.053038684913211e-13 1.4447875553456446e-19
5.091171501069577 1.6094326672924725e-21 2.1750035597922008e-13 2.1750020147523663e-13 1.5450398352072424e-19
5.129500256944802 1.643964545847201e-21 2.2383960777786162e-13 2.2383944803905385e-13 1.597388077898422e-19
5.168117569889187 1.6799687320484691e-21 2.304639581875644e-13 2.304637930318799e-13 1.6515568449667946e-19
5.20702561229733 1.7242054305749784e-21 2.383132314298651e-13 2.3831306045011444e-13 1.7097975058295004e-19
5.246226572918644 1.769570267975226e-21 2.464247295948077e-13 2.4642455260948223e-13 1.7698532547527543e-19
5.265937586045735 1.792687009515339e-21 2.5058185036072793e-13 2.5058167030280116e-13 1.8005792668568673e-19
5.285722656980489 1.8160995076792373e-21 2.548082267886142e-13 2.5480804361058577e-13 1.831780284763576e-19
5.305582063971359 1.839812545695028e-21 2.5910515014873016e-13 2.5910496380236413e-13 1.863463660199945e-19
5.3255160863122235 1.8652972098459953e-21 2.636812048785713e-13 2.6368101530006966e-13 1.89578501615314e-19
5.365609099470188 1.9288373023717763e-21 2.747160664057832e-13 2.7471587009568134e-13 1.9631010181223318e-19
5.406003951863644 1.9947994056581586e-21 2.8624968803466265e-13 2.862494847767305e-13 2.0325793216316106e-19
5.446702915881641 2.063300836334544e-21 2.983085321257218e-13 2.983083216966678e-13 2.1042905397509636e-19
5.487708281020852 2.13733654347139e-21 3.113388816832405e-13 3.1133866383119346e-13 2.1785204692792874e-19
5.529022354014368 2.2403649058464462e-21 3.28803581844796e-13 3.288033561405275e-13 2.257042685275898e-19
5.570647458961463 2.3494795220720413e-21 3.474135651375117e-13 3.4741333131752855e-13 2.3381998331296134e-19
5.612585937458331 2.465119274942816e-21 3.67257246956463e-13 3.672570047480388e-13 2.422084242647173e-19
5.654840148729818 2.5922636330770434e-21 3.8910690073534046e-13 3.891066498246286e-13 2.5091071186675764e-19
5.67608639626678 2.6789238625925612e-21 4.036256905734538e-13 4.0362543506332444e-13 2.555101292757285e-19
5.686739436050992 2.7235956918899936e-21 4.111264338302611e-13 4.1112617599010606e-13 2.5784015501269943e-19
5.6974124697621304 2.7691905703681785e-21 4.187935062030623e-13 4.1879324601241706e-13 2.6019064516214885e-19
5.718818669136295 2.863238491067058e-21 4.346435938865733e-13 4.346433289327835e-13 2.6495378990457697e-19
5.740305295436557 2.9669285072529722e-21 4.5207605580946107e-13 4.5207578597327477e-13 2.698361862355039e-19
5.7835210386641895 3.2360488058667926e-21 4.967945419336141e-13 4.967942617884024e-13 2.8014521167743995e-19
5.827062130521658 3.5461409165604315e-21 5.484980291207578e-13 5.48497738193098e-13 2.909276597038313e-19
5.8489554468988025 3.763764291299181e-21 5.843461188495914e-13 5.843458220155347e-13 2.968340566015803e-19
5.870931020387893 3.997321480048044e-21 6.229389522714463e-13 6.229386494054964e-13 3.028659499573404e-19
5.892989160043636 4.248095601982235e-21 6.645066892354207e-13 6.645063802089967e-13 3.090264241750927e-19
5.915130176081913 4.5333353163932815e-21 7.117895101641953e-13 7.117891946943576e-13 3.154698377535116e-19
5.95966208400165 5.3310615711530264e-21 8.433440150099047e-13 8.433436848577847e-13 3.3015211971968996e-19
6.004529249263818 6.481109986992348e-21 1.0329939772298274e-12 1.0329936300840143e-12 3.471458133276419e-19
6.027089341400364 7.280644100245563e-21 1.164787936810728e-12 1.164787579668153e-12 3.5714257513905935e-19
6.049734195844842 8.225555645380607e-21 1.3209031365280183e-12 1.320902768608171e-12 3.6791984732646387e-19
6.095279466722835 1.0955268348769457e-20 1.7724993140343406e-12 1.7724989191646763e-12 3.9486966399199595e-19
6.141167624020661 1.5156599971596144e-20 2.470712276389303e-12 2.470711845562358e-12 4.308269444682944e-19
6.164241091010745 1.7839612157662506e-20 2.919002437034237e-12 2.9190019834965e-12 4.535377368907926e-19
6.187401249150058 2.0896121574473976e-20 3.431969345504021e-12 3.431968867779726e-12 4.777242952705321e-19
6.1990139391386085 2.238854541579517e-20 3.683985603235395e-12 3.683985113112761e-12 4.901226353550197e-19
6.204828454712694 2.317471411998564e-20 3.81692474598572e-12 3.816924249505797e-12 4.9647992307366285e-19
6.210648424152782 2.374858722177813e-20 3.915111700183331e-12 3.915111198266132e-12 5.019171992308206e-19
6.233982942956859 2.569826861871848e-20 4.252446976207328e-12 4.252446454821722e-12 5.213856057209909e-19
6.239830258556775 2.5947479780916473e-20 4.297712811652536e-12 4.297712287310518e-12 5.243420172076988e-19
6.245683058788269 2.596904538658872e-20 4.305319243718883e-12 4.305318716402693e-12 5.273161888391457e-19
6.257405133728602 2.5915379484954353e-20 4.30448580422329e-12 4.304485271548435e-12 5.326748566451306e-19
6.269149208991335 2.5531779267934363e-20 4.24872987604579e-12 4.24872934076118e-12 5.352846089228832e-19
6.280915325867298 2.456996857340309e-20 4.096349209350932e-12 4.096348674878302e-12 5.344726313347874e-19
6.304513850009849 2.2198162563935008e-20 3.714822469238327e-12 3.714821939540607e-12 5.296977201567072e-19
6.32820103803542 1.9258299157029887e-20 3.2349504237248e-12 3.234949902460175e-12 5.212646251532788e-19
6.3519772230701035 1.6562220775187048e-20 2.79252413114142e-12 2.792523617478021e-12 5.136633985884936e-19
6.375842739491607 1.4294100336566503e-20 2.4191558945975384e-12 2.419155387341043e-12 5.072564949645972e-19
6.399797922933955 1.2476172383368762e-20 2.1194201595182166e-12 2.119419655103193e-12 5.044150227025751e-19
6.42384311029221 1.0964764590369284e-20 1.8696644510123104e-12 1.8696639485291874e-12 5.024831228572055e-19
6.447978639727206 9.863286373279085e-21 1.6881641211192237e-12 1.6881636175065317e-12 5.036126921938282e-19
6.472204850670314 8.945712786810148e-21 1.5368682482560943e-12 1.5368677428030688e-12 5.054530255568655e-19
6.496522083828205 8.349278783985965e-21 1.4397905362533915e-12 1.439790026354476e-12 5.098989156910395e-19
