Dust emission spectrum from A.P. Jones, M. Kohler, N. Ysard, M. Bocchio, and L. Verstraete (2017), A&A, 602A, 46J 
inside the DustPedia framework.

lambda    nu*dP/dnu     j_nu    j_nu(carb.) j_nu(sil)
 (um)   (erg s-1 H-1) (Jy cm2 sr-1 H-1)
0.9927057738263894 7.739084804771368e-24 2.0392928031813984e-16 2.0392927609677661e-16 4.22136323900412e-24
1.0001793341362166 7.86875120242853e-24 2.0890706314046482e-16 2.0890705805818475e-16 5.0822800425623505e-24
1.0077091589558085 7.998615494315977e-24 2.1395353133445102e-16 2.1395352522371547e-16 6.110735514099804e-24
1.0114953028030835 8.063611103680017e-24 2.1650248104685103e-16 2.165024743496029e-16 6.697248075070633e-24
1.0152956718711033 8.128643363258834e-24 2.190685519586665e-16 2.1906854462103205e-16 7.337634513037632e-24
1.0229392996569957 8.25873774634057e-24 2.2425026881065443e-16 2.242502600112935e-16 8.79936099180732e-24
1.0267826658714554 8.323647939053136e-24 2.268619517792985e-16 2.2686194214768215e-16 9.63161634660998e-24
1.0306404723013447 8.388574913132311e-24 2.2949055336061304e-16 2.2949054282150417e-16 1.0539108863894555e-23
1.03451277320114 8.453514641338368e-24 2.3213605495526013e-16 2.3213604342696e-16 1.1528300018386398e-23
1.0383996230291617 8.518463143099809e-24 2.347984380471222e-16 2.347984254409474e-16 1.2606174765643712e-23
1.0403485208654093 8.550939453244242e-24 2.3613595440322995e-16 2.3613594122252577e-16 1.3180704129234008e-23
1.0423010764483396 8.58341648592718e-24 2.3747768425314637e-16 2.3747767047286516e-16 1.3780281205807403e-23
1.0462171883269815 8.648370786813444e-24 2.401737753738613e-16 2.4017376031508823e-16 1.5058773026481695e-23
1.0471985131304309 8.664609061515635e-24 2.408504280608252e-16 2.408504126651022e-16 1.5395723011505076e-23
1.048180758391296 8.680847096960821e-24 2.4152813215267376e-16 2.4152811641278554e-16 1.5739888181065646e-23
1.0501480137395462 8.713322213620505e-24 2.428866934445608e-16 2.4288667699410586e-16 1.6450454901984325e-23
1.0521189612883777 8.745795665948674e-24 2.442494570491223e-16 2.442494398574389e-16 1.7191683453678535e-23
1.0531058218030118 8.762008602543448e-24 2.449317705611958e-16 2.449317529869836e-16 1.757421220229632e-23
1.0540936079674168 8.77814553044029e-24 2.456130224408878e-16 2.456130044759204e-16 1.796496735315057e-23
1.058054026499678 8.842683067360188e-24 2.48348383184471e-16 2.4834836357168064e-16 1.961279044474988e-23
1.0590464539527713 8.858814623272102e-24 2.490348102543471e-16 2.4903479020753545e-16 2.0046811591101536e-23
1.06003981227728 8.874944934772962e-24 2.4972227151512725e-16 2.4972225102511083e-16 2.049001639022941e-23
1.0620293250338977 8.907201600167923e-24 2.511002954989745e-16 2.511002740942552e-16 2.140471933124697e-23
1.0660195594769086 8.971697542641095e-24 2.5386874165454824e-16 2.538687183018531e-16 2.335269520529063e-23
1.070024785945596 9.036167367060072e-24 2.5665370444601095e-16 2.5665367897642095e-16 2.5469589974278708e-23
1.0740450607676866 9.100607605492842e-24 2.594551672480773e-16 2.5945513947880346e-16 2.776927386423372e-23
1.07808044048254 9.165014851063936e-24 2.622731140712063e-16 2.622730838045188e-16 3.0266687543584763e-23
1.0861967418109137 9.293611824215413e-24 2.679553654803661e-16 2.67955329560076e-16 3.5920290100898597e-23
1.0902777775684922 9.357555766202791e-24 2.7081269384721563e-16 2.708126547347739e-16 3.911244171206865e-23
1.0943741465085532 9.421449526047548e-24 2.7368625288466416e-16 2.7368621031025525e-16 4.257440893802768e-23
1.1026131145906286 9.549074332268617e-24 2.7948201179272954e-16 2.794819613971123e-16 5.0395617234639305e-23
1.1109141095355224 9.67646260646815e-24 2.8534255024872563e-16 2.8534249067233113e-16 5.957639453351107e-23
1.1192775983109025 9.803484144602722e-24 2.9126459422977735e-16 2.9126452389095677e-16 7.033882062540984e-23
1.1277040513999907 9.929622611213887e-24 2.9723319964999727e-16 2.972331167112225e-16 8.293877482472595e-23
1.1361939428280308 1.0055444768298486e-23 3.032656260973253e-16 3.032655284266637e-16 9.767066162393663e-23
1.1447477501889525 1.0180931960863625e-23 3.093618575561773e-16 3.093617426834076e-16 1.1487276966203767e-22
1.1533659546722406 1.0306121727980323e-23 3.1552358546710283e-16 3.155234505336237e-16 1.3493347921531408e-22
1.1707974979042381 1.0555996350394403e-23 3.2805786190556125e-16 3.2805767642868205e-16 1.854768791956172e-22
1.1884924949847024 1.0804466507730154e-23 3.4085463520986156e-16 3.408543815280659e-16 2.5368179577663584e-22
1.2064549276569216 1.1053316221929807e-23 3.53975439362955e-16 3.539750941007133e-16 3.4526224158133143e-22
1.2246888378427687 1.1300474451460633e-23 3.673600033896825e-16 3.67359535778788e-16 4.676108943571877e-22
1.2431983285522175 1.1545585500184712e-23 3.8100073402887697e-16 3.810001037700336e-16 6.302588432110401e-22
1.2619875648066055 1.1788825055905546e-23 3.9490718141382176e-16 3.94906335982386e-16 8.454314356142605e-22
1.3004222497298317 1.2267202879376814e-23 4.234473042454088e-16 4.23445804345782e-16 1.4998996268714255e-21
1.3400274889804893 1.2735825089097248e-23 4.530125425112502e-16 4.530099301104716e-16 2.612400778610551e-21
1.3808389325824078 1.319525140759361e-23 4.836488123663304e-16 4.836443433333604e-16 4.4690329697739635e-21
1.4228933163050095 1.3648940319061335e-23 5.155142886214575e-16 5.155067758968066e-16 7.512724650900886e-21
1.466228494730424 1.410596135937731e-23 5.490018124804845e-16 5.489893957271567e-16 1.2416753327940809e-20
1.5108834753276823 1.456342302243027e-23 5.840686136086439e-16 5.840484282626287e-16 2.018534601522533e-20
1.5568984535646726 1.50193912170016e-23 6.207004353952929e-16 6.206681253871715e-16 3.231000812125109e-20
1.6043148490894465 1.5476660174052294e-23 6.590771924718757e-16 6.590261754243649e-16 5.1017047510875193e-20
1.6531753430134553 1.5938367134035646e-23 6.994105494661118e-16 6.993311782367604e-16 7.937122935146293e-20
1.7035239163302658 1.6408833189460827e-23 7.419854144590071e-16 7.418637165980426e-16 1.2169786096448482e-19
1.755405889504358 1.690178128411512e-23 7.875524041752211e-16 7.873684152768557e-16 1.8398889836522344e-19
1.8088679632656115 1.7417067223165872e-23 8.362792636601922e-16 8.360048900141454e-16 2.74373646046786e-19
1.8639582606462262 1.7954954365376086e-23 8.883618947819267e-16 8.87958149768063e-16 4.0374501386354536e-19
1.9207263702978936 1.8518992866681602e-23 9.441745641210116e-16 9.435880899479675e-16 5.8647417304422445e-19
1.979223391128241 1.911447026341776e-23 1.0042145615187045e-15 1.0033732935374442e-15 8.4126798126069945e-19
2.039501978296691 1.9746868784029446e-23 1.0690347049622296e-15 1.0678425914985197e-15 1.1921134637098122e-18
2.1016163906111602 2.0429003540033934e-23 1.139646244260764e-15 1.137976780493576e-15 1.6694637671877646e-18
2.1656225393682647 2.1168757108872504e-23 1.2168794463108297e-15 1.214568120957549e-15 2.3113253532807575e-18
2.231578038680979 2.19670820406423e-23 1.3012294499305064e-15 1.298064957605822e-15 3.164492324684168e-18
2.299542257339062 2.2828666381295092e-23 1.39344993345779e-15 1.3891640759359585e-15 4.285857521831161e-18
2.369576372248914 2.3761927799338058e-23 1.4945891174777954e-15 1.4888452884433705e-15 5.743829034424845e-18
2.4417434235010123 2.4776509171671158e-23 1.6058670132309297e-15 1.5982475391021332e-15 7.619474128796774e-18
2.5161083711144245 2.5888487323883913e-23 1.72904163385631e-15 1.7190336355608156e-15 1.0007998295494458e-17
2.5927381535095444 2.7122974245701694e-23 1.8666607822793017e-15 1.853641014460914e-15 1.3019767818387451e-17
2.6717017477616296 2.850621088710662e-23 2.021607784871626e-15 2.0048273448007266e-15 1.6780440070899644e-17
2.753070231689431 3.007614606779547e-23 2.1979049591822474e-15 2.1764734793867602e-15 2.1431479795487243e-17
2.836916847834745 3.19215051215996e-23 2.4038059177018843e-15 2.376674759307547e-15 2.7131158394336666e-17
2.9233170693905177 3.4234526901922586e-23 2.65649917935406e-15 2.6224513681090097e-15 3.404781124505053e-17
2.967498994190263 3.57510402879487e-23 2.8161040485665378e-15 2.7781537971038487e-15 3.7950251462689075e-17
3.0123486681368425 3.7419490608374017e-23 2.9920754627018643e-15 2.949831586983989e-15 4.224387571787454e-17
3.0578761833420214 4.031948374579105e-23 3.272685649794717e-15 3.2257110975550518e-15 4.6974552239664563e-17
3.1040917844459814 4.382645296874058e-23 3.611106612356026e-15 3.558973357263419e-15 5.2133255092606584e-17
3.127460860933648 4.715012850350269e-23 3.914210675740072e-15 3.8593110925509125e-15 5.489958318915972e-17
3.1510058709225794 5.143387368574359e-23 4.301974971401247e-15 4.2441887852550556e-15 5.778618614619237e-17
3.162844764501044 5.529670881386054e-23 4.642443140796136e-15 4.5831619401051715e-15 5.928120069096337e-17
3.1747281389236908 5.972058632492723e-23 5.032688347708644e-15 4.9718808998447566e-15 6.080744786388782e-17
3.1986289994194426 7.183066459316109e-23 6.0987830977549306e-15 6.034819888528955e-15 6.396320922597715e-17
3.2227097969389145 9.990564328419266e-23 8.54634957359555e-15 8.479039179211354e-15 6.731039438420002e-17
3.2348180950136065 1.2632127435388162e-22 1.084665421028246e-14 1.0777556743805633e-14 6.909746647682584e-17
3.240889293275058 1.4604123144207047e-22 1.2563455778435522e-14 1.2493415663378249e-14 7.004011505727556e-17
3.2469718861334385 1.6886829113103524e-22 1.4554459096308128e-14 1.4483443598441003e-14 7.10154978671253e-17
3.2714166318528037 2.8969418884130968e-22 2.515620202733534e-14 2.5081153093835604e-14 7.504893349973875e-17
3.2744851364798273 2.972686007080362e-22 2.5838154769549727e-14 2.5762629743362077e-14 7.552502618764856e-17
3.2775565192852394 3.050534586170526e-22 2.6539673508972622e-14 2.6463669939565676e-14 7.600356940694669e-17
3.283707930232385 2.9768473073214565e-22 2.594720085123793e-14 2.587033994624394e-14 7.686090499398814e-17
3.2898708863219004 2.741199227182689e-22 2.393805650585524e-14 2.3860413952112366e-14 7.764255374287323e-17
3.29141343181113 2.6855761714261315e-22 2.346331358780043e-14 2.3385474720598243e-14 7.783886720218555e-17
3.292184975758714 2.6582373023392414e-22 2.3229903716390713e-14 2.3151966557066047e-14 7.793715932466373e-17
3.295272960557952 2.486418892400386e-22 2.1748791249257632e-14 2.1670471483411903e-14 7.831976584572869e-17
3.3076538914384823 1.889167683020957e-22 1.6586700392927603e-14 1.6506843166430154e-14 7.98572264974463e-17
3.310756385682612 1.767058819216666e-22 1.5529149262877203e-14 1.5448904356435316e-14 8.024490644188456e-17
3.313861789986515 1.6541794223730707e-22 1.4550785497489178e-14 1.4470151581914696e-14 8.063391557448156e-17
3.3200813396944477 1.4963621218938416e-22 1.3187268931650417e-14 1.3105798955963171e-14 8.146997568724877e-17
3.345076488085796 1.2189494355252897e-22 1.0823336883812691e-14 1.0738142794206683e-14 8.519408960600775e-17
3.3482140837626964 1.2301827202729083e-22 1.0933325411938826e-14 1.084762690107756e-14 8.569851086126896e-17
3.3513546224236106 1.2415285188034535e-22 1.1044511661748496e-14 1.0958306377150945e-14 8.620528459754932e-17
3.3576445397418455 1.3211856122685584e-22 1.177519169152065e-14 1.1687927116221504e-14 8.72645752991498e-17
3.3702598118196083 1.6115168428170684e-22 1.4416759834135106e-14 1.432727319600831e-14 8.948663812679247e-17
3.382922481734668 1.6802671329221907e-22 1.5088282668442997e-14 1.499663324721974e-14 9.164942122325413e-17
3.389271646505754 1.7157943098267868e-22 1.5436222671053932e-14 1.534347642662453e-14 9.274624442940708e-17
3.395632727569191 1.7544147532047506e-22 1.5813296516997186e-14 1.5719419911001055e-14 9.387660599613287e-17
3.421196662673239 1.9403454364069216e-22 1.7620836694741427e-14 1.7522277604531373e-14 9.855909021005571e-17
3.4276182099114902 1.9061195008926523e-22 1.7342511813002934e-14 1.724290449465821e-14 9.960731834472051e-17
3.4340518103208963 1.7509788894333526e-22 1.596089300550127e-14 1.5860292665967145e-14 1.0060033953412517e-16
3.4469541582030403 1.52959410182637e-22 1.3995265475732098e-14 1.389275594112981e-14 1.0250953460229145e-16
3.472904465399547 1.4703939873203304e-22 1.3554889696922718e-14 1.3447986870100944e-14 1.0690282682177021e-16
3.4990501388274233 1.3787501832322149e-22 1.2805754800340941e-14 1.2694348903105023e-14 1.114058972359181e-16
3.5253949054701885 1.0452788061558583e-22 9.78158764065522e-15 9.665795310390692e-15 1.1579233026452673e-16
3.5519380250092896 7.298493160047807e-23 6.8812607995970774e-15 6.761050203227709e-15 1.2021059636936957e-16
3.578680990867387 6.074778683496056e-23 5.7706253575901385e-15 5.645570708170578e-15 1.2505464941955891e-16
3.605625307711299 5.609260435334082e-23 5.3685330488375e-15 5.238370894910826e-15 1.3016215392667347e-16
3.660119384959845 5.331387921256805e-23 5.1797043089055716e-15 5.038785913290502e-15 1.4091839561506915e-16
3.715437065384467 5.159095194570443e-23 5.088067730365703e-15 4.935772600934765e-15 1.5229512943093812e-16
3.8285932144167436 5.21643138104145e-23 5.301297261005388e-15 5.12441934553354e-15 1.7687791547185006e-16
3.94519561050918 5.385633721334859e-23 5.639943948757026e-15 5.4360608044855894e-15 2.0388314427143575e-16
4.06534921144712 5.602222732229159e-23 6.0454364708642095e-15 5.812108048011083e-15 2.333284228531274e-16
4.189162171576248 5.846985208274382e-23 6.501725074150286e-15 6.23640822466885e-15 2.653168494814349e-16
4.316745939156006 6.111986549060849e-23 7.003390004216347e-15 6.7036042631296845e-15 2.997857410866624e-16
4.448215356677963 6.393661586915941e-23 7.54926870497442e-15 7.2129457761802e-15 3.3632292879422076e-16
4.58368876423945 6.691418166917852e-23 8.14146809336635e-15 7.766444337489344e-15 3.7502375587700496e-16
4.723288106065518 7.006692656630973e-23 8.78470006403666e-15 8.368521922684432e-15 4.1617814135223073e-16
4.867139040275056 7.342010595428158e-23 9.485455543716879e-15 9.026649009106725e-15 4.58806534610154e-16
4.940699165968905 7.522788793061738e-23 9.865900084892433e-15 9.385087068883286e-15 4.808130160091426e-16
5.015371051989984 7.704799845148274e-23 1.0257319022100636e-14 9.754094623404909e-15 5.032243986957281e-16
5.091171501069577 7.90547776446962e-23 1.0683542486126803e-14 1.0157036617502184e-14 5.265058686246194e-16
5.129500256944802 8.006287082309528e-23 1.0901233635410133e-14 1.0362950738803645e-14 5.38282896606488e-16
5.168117569889187 8.10894847067952e-23 1.1124137763046657e-14 1.0573882526010037e-14 5.502552370366194e-16
5.20702561229733 8.225402612681648e-23 1.136884411613374e-14 1.080557203956916e-14 5.632720765645815e-16
5.246226572918644 8.342802119422696e-23 1.1617920992163213e-14 1.104150432711078e-14 5.764166650524322e-16
5.265937586045735 8.401863421603305e-23 1.1744127510761983e-14 1.116109184593612e-14 5.830356648258628e-16
5.285722656980489 8.461169774004982e-23 1.1871462205431206e-14 1.1281777057926319e-14 5.896851475048912e-16
5.305582063971359 8.52072436102641e-23 1.1999937548559664e-14 1.1403572934559186e-14 5.963646140004776e-16
5.3255160863122235 8.583048057471633e-23 1.2133125173717797e-14 1.1530002843872477e-14 6.031223298453195e-16
5.365609099470188 8.728196112069355e-23 1.2431197280234793e-14 1.1814093420912878e-14 6.171038593219163e-16
5.406003951863644 8.875882408543327e-23 1.273671208880073e-14 1.2105491691511766e-14 6.312203972889653e-16
5.446702915881641 9.026230880719147e-23 1.3049971372272597e-14 1.2404503318789313e-14 6.454680534832858e-16
5.487708281020852 9.18425304920979e-23 1.3378403518954959e-14 1.2718504227573493e-14 6.598992913814628e-16
5.529022354014368 9.3891398179963e-23 1.3779821289569752e-14 1.3104870491320658e-14 6.749507982490937e-16
5.570647458961463 9.601316347540019e-23 1.419730417301195e-14 1.3507157059608243e-14 6.901471134037094e-16
5.612585937458331 9.821317744713955e-23 1.4631949671043717e-14 1.3926465319530725e-14 7.054843515129917e-16
5.654840148729818 1.0057241087120833e-22 1.5096234269631502e-14 1.437520535828449e-14 7.210289113470175e-16
5.67608639626678 1.0212129843600152e-22 1.5386319924597968e-14 1.465716187474162e-14 7.29158049856347e-16
5.686739436050992 1.029128401540974e-22 1.5534680530551618e-14 1.4801442768113503e-14 7.332377624381139e-16
5.6974124697621304 1.037161448482451e-22 1.5685322785526545e-14 1.4947995293494466e-14 7.373274920320821e-16
5.718818669136295 1.0535917866881156e-22 1.5993670177465262e-14 1.5248133413376954e-14 7.455367640883053e-16
5.740305295436557 1.071473362165936e-22 1.632622593664599e-14 1.5572382501041032e-14 7.538434356049573e-16
5.7835210386641895 1.1168571824285122e-22 1.714586477632622e-14 1.6374837341610034e-14 7.710274347161827e-16
5.827062130521658 1.1679957051143983e-22 1.8065930185824295e-14 1.7277401279394247e-14 7.885289064300521e-16
5.8489554468988025 1.2034256812219996e-22 1.868387794027514e-14 1.788591316136291e-14 7.9796477891223e-16
5.870931020387893 1.241001686701779e-22 1.9339657676765403e-14 1.853219902343293e-14 8.074586533324791e-16
5.892989160043636 1.280893166918932e-22 2.0036321150974234e-14 1.9219310988396632e-14 8.17010162577599e-16
5.915130176081913 1.3258982730506518e-22 2.0818236826415277e-14 1.99913295190788e-14 8.269073073364779e-16
5.95966208400165 1.4507881856978434e-22 2.295065470779635e-14 2.2101278359955775e-14 8.493763478405706e-16
6.004529249263818 1.628549711830957e-22 2.5956696419550137e-14 2.5082077904107214e-14 8.746185154429204e-16
6.027089341400364 1.7514464400705222e-22 2.8020373709730308e-14 2.7131211840874364e-14 8.891618688559486e-16
6.049734195844842 1.895552650216267e-22 3.043978484943807e-14 2.953522514372317e-14 9.045597057149065e-16
6.095279466722835 2.3100540042236034e-22 3.737534314555187e-14 3.6433078292488643e-14 9.422648530632198e-16
6.141167624020661 2.942954079749843e-22 4.797377239825767e-14 4.6982746990198154e-14 9.910254080595042e-16
6.164241091010745 3.3466760013180994e-22 5.4759909113918434e-14 5.373836539489711e-14 1.0215437190213091e-15
6.187401249150058 3.802882172522697e-22 6.245836096495898e-14 6.140545254021051e-14 1.0529084247484517e-15
6.1990139391386085 4.0252777737549973e-22 6.623505498965954e-14 6.516618169628846e-14 1.0688732933710665e-15
6.204828454712694 4.142108456753785e-22 6.822140798494578e-14 6.714446814180101e-14 1.0769398431447657e-15
6.210648424152782 4.2272806646804864e-22 6.968951809930093e-14 6.860568560704964e-14 1.0838324922512793e-15
6.233982942956859 4.515200923264276e-22 7.471574368678694e-14 7.360779481292132e-14 1.1079488738656026e-15
6.239830258556775 4.551252862692714e-22 7.538295781407828e-14 7.427159838716927e-14 1.1113594269090135e-15
6.245683058788269 4.553341014866515e-22 7.548828384983e-14 7.437350737357906e-14 1.114776476250939e-15
6.257405133728602 4.543033266576006e-22 7.545875303675889e-14 7.433795784621237e-14 1.1207951905465213e-15
6.269149208991335 4.48348808346865e-22 7.460948792179381e-14 7.348629921226912e-14 1.1231887095246887e-15
6.280915325867298 4.337776344639748e-22 7.232018489002525e-14 7.119908884429532e-14 1.1210960457299365e-15
6.304513850009849 3.979958866935353e-22 6.660389382658388e-14 6.549104656275254e-14 1.1128472638313497e-15
6.32820103803542 3.5394829172905557e-22 5.945515577306911e-14 5.835488094671285e-14 1.1002748263562581e-15
6.3519772230701035 3.136572441031556e-22 5.2885143541717164e-14 5.179606886146562e-14 1.0890746802515308e-15
6.375842739491607 2.7969089283447927e-22 4.7335324094157326e-14 4.625604582931198e-14 1.0792782648453592e-15
6.399797922933955 2.526739183358701e-22 4.292359706566537e-14 4.184897242833285e-14 1.074624637332531e-15
6.42384311029221 2.3015552896987188e-22 3.924512990428102e-14 3.817413600056761e-14 1.0709939037134234e-15
6.447978639727206 2.1384223953449965e-22 3.660045776830761e-14 3.552907451627361e-14 1.0713832520339894e-15
6.472204850670314 2.002320873064894e-22 3.439975601688369e-14 3.332718179035544e-14 1.0725742265282498e-15
6.496522083828205 1.9145144251041396e-22 3.3014824658538766e-14 3.19377933137341e-14 1.077031344804668e-15
