Dust emission spectrum from A.P. Jones, M. Kohler, N. Ysard, M. Bocchio, and L. Verstraete (2017), A&A, 602A, 46J 
inside the DustPedia framework.

lambda    nu*dP/dnu     j_nu    j_nu(carb.) j_nu(sil)
 (um)   (erg s-1 H-1) (Jy cm2 sr-1 H-1)
0.9927057738263894 6.956143463152966e-25 1.8329833126469087e-17 1.8329825919109937e-17 7.2073591542892e-24
1.0001793341362166 7.073283917977936e-25 1.8778824390932595e-17 1.8778815715265182e-17 8.675667414871599e-24
1.0077091589558085 7.19079505583467e-25 1.9234528730521343e-17 1.92345183012199e-17 1.0429301439037332e-23
1.0114953028030835 7.2496828768088985e-25 1.946490610039076e-17 1.94648946711968e-17 1.1429193963856949e-23
1.0152956718711033 7.308655357896382e-25 1.9696971246840604e-17 1.9696958726043315e-17 1.2520797290344252e-23
1.0229392996569957 7.4267867592142695e-25 2.0166022681749042e-17 2.0166007669762655e-17 1.501198638284098e-23
1.0267826658714554 7.485810708702644e-25 2.0402660473646137e-17 2.0402644043526124e-17 1.64301200219164e-23
1.0306404723013447 7.544906350436151e-25 2.0640987907313755e-17 2.0640969931056644e-17 1.7976257114301957e-23
1.03451277320114 7.604071331127111e-25 2.0881008613557878e-17 2.088098895218795e-17 1.966136992449499e-23
1.0383996230291617 7.663303357303762e-25 2.1122726345698865e-17 2.1122704848381268e-17 2.1497317598882292e-23
1.0403485208654093 7.692943812565025e-25 2.1244222804796612e-17 2.1244200328977215e-17 2.2475819396371675e-23
1.0423010764483396 7.722600197220744e-25 2.1366144987321687e-17 2.1366121490408518e-17 2.3496913176315002e-23
1.0462171883269815 7.781959682786057e-25 2.1611268560220448e-17 2.161124288622516e-17 2.5673995277696283e-23
1.0471985131304309 7.7968090947045455e-25 2.167281633407756e-17 2.167279008635397e-17 2.6247723588491723e-23
1.048180758391296 7.8116622580413365e-25 2.1734470992500384e-17 2.1734444158782848e-17 2.6833717536384884e-23
1.0501480137395462 7.841379711504953e-25 2.1858101232541567e-17 2.1858073189036793e-17 2.804350477166373e-23
1.0521189612883777 7.871111790936431e-25 2.1982159825599224e-17 2.1982130520188964e-17 2.930541026316748e-23
1.0531058218030118 7.885963089736829e-25 2.2044293606249082e-17 2.20442636496351e-17 2.995661397533787e-23
1.0540936079674168 7.90075194311674e-25 2.2106349884213956e-17 2.21063192624137e-17 3.062180025198866e-23
1.058054026499678 7.959939694261488e-25 2.2355637290819243e-17 2.235560386415632e-17 3.3426662923075245e-23
1.0590464539527713 7.974744570116855e-25 2.2418225070753183e-17 2.241819090537855e-17 3.416537463268043e-23
1.06003981227728 7.989552563672551e-25 2.2480919366299796e-17 2.248088444660875e-17 3.4919691050814474e-23
1.0620293250338977 8.019177791161816e-25 2.2606627798584736e-17 2.260659132218783e-17 3.647639691385349e-23
1.0660195594769086 8.078464435174252e-25 2.2859326129879446e-17 2.2859286338628192e-17 3.979125125601053e-23
1.070024785945596 8.137797903986487e-25 2.3113737199078047e-17 2.3113693806028752e-17 4.3393049288384576e-23
1.0740450607676866 8.197176553667112e-25 2.3369866122016378e-17 2.336981881671373e-17 4.7305302662652385e-23
1.07808044048254 8.256598820736858e-25 2.36277182256821e-17 2.362766667234916e-17 5.1553332942531335e-23
1.0861967418109137 8.37547545260897e-25 2.4148346503219017e-17 2.4148285335365357e-17 6.116785366084652e-23
1.0902777775684922 8.43471583023745e-25 2.4410521004560105e-17 2.441045440929482e-17 6.659526529294353e-23
1.0943741465085532 8.493990732352236e-25 2.4674424982562033e-17 2.4674352501994984e-17 7.248056704851744e-23
1.1026131145906286 8.612639761738392e-25 2.5207447378670057e-17 2.52073616051243e-17 8.577354576037927e-23
1.1109141095355224 8.731414797815248e-25 2.574746854312937e-17 2.574736717052083e-17 1.0137260853408726e-22
1.1192775983109025 8.850214354709512e-25 2.629426492508983e-17 2.6294145271553248e-17 1.1965353659260434e-22
1.1277040513999907 8.968595770389909e-25 2.684658341586799e-17 2.6846442366733448e-17 1.4104913455040026e-22
1.1361939428280308 9.087075546479984e-25 2.7406024482229492e-17 2.7405858425045225e-17 1.6605718425809438e-22
1.1447477501889525 9.20565285372105e-25 2.797266377765764e-17 2.7972468528216725e-17 1.9524944091802296e-22
1.1533659546722406 9.32437422301948e-25 2.8546722663838455e-17 2.8546493381775364e-17 2.292820630940636e-22
1.1707974979042381 9.562635792426077e-25 2.9718633354090536e-17 2.971831836820571e-17 3.149858848202095e-22
1.1884924949847024 9.801510402677288e-25 3.092138099016698e-17 3.0920950427756794e-17 4.305624101804588e-22
1.2064549276569216 1.0042708615850912e-24 3.2161137194619334e-17 3.216055154722286e-17 5.856473964770631e-22
1.2246888378427687 1.0284616093297328e-24 3.34336104127641e-17 3.343281771574744e-17 7.926970166545717e-22
1.2431983285522175 1.0527093775636496e-24 3.4739082358743605e-17 3.473801460190806e-17 1.0677568355311377e-21
1.2619875648066055 1.077055784540748e-24 3.607968241800051e-17 3.607825102722876e-17 1.4313907717477685e-21
1.3004222497298317 1.1259287453802715e-24 3.886554226678868e-17 3.886300607431844e-17 2.5361924702349673e-21
1.3400274889804893 1.1753451901010851e-24 4.180695865176982e-17 4.180254717356612e-17 4.411478203694505e-21
1.3808389325824078 1.2256679655127237e-24 4.492471098614645e-17 4.491717453089902e-17 7.536455247420854e-21
1.4228933163050095 1.2775983991116399e-24 4.825431238366236e-17 4.824166077602107e-17 1.265160764127954e-20
1.466228494730424 1.3324437991609224e-24 5.1858504509615426e-17 5.1837624208769915e-17 2.0880300845512015e-20
1.5108834753276823 1.390598457921707e-24 5.577019304827642e-17 5.573629838480586e-17 3.3894663470573586e-20
1.5568984535646726 1.452702583351694e-24 6.00352646094981e-17 5.998109121658596e-17 5.417339291215458e-20
1.6043148490894465 1.520025294745117e-24 6.473063260938291e-17 6.464522258715254e-17 8.541002223037491e-20
1.6531753430134553 1.5941181150502088e-24 6.995340346880578e-17 6.982072869132028e-17 1.3267477748547914e-19
1.7035239163302658 1.676931503516058e-24 7.582859197172524e-17 7.562548420490318e-17 2.031077668220565e-19
1.755405889504358 1.7716249387930223e-24 8.2550321554245e-17 8.224374434377009e-17 3.065772104749307e-19
1.8088679632656115 1.8805298614553798e-24 9.029350967522134e-17 8.983707218472563e-17 4.564374904956968e-19
1.8639582606462262 2.0064607337380646e-24 9.927417374372958e-17 9.860363718478973e-17 6.705365589398467e-19
1.9207263702978936 2.1530593123403895e-24 1.0977183545510696e-16 1.0879947837478253e-16 9.723570803244227e-19
1.979223391128241 2.3247184616799133e-24 1.221334464663793e-16 1.207410668966081e-16 1.392379569771134e-18
2.039501978296691 2.526454147941903e-24 1.3677445240483075e-16 1.3480488217311948e-16 1.9695702317112985e-18
2.1016163906111602 2.764665603031816e-24 1.5422880342439333e-16 1.5147555705954418e-16 2.7532463648491366e-18
2.1656225393682647 3.04600969957629e-24 1.750989242124303e-16 1.712941728853359e-16 3.804751327094386e-18
2.231578038680979 3.37711839267853e-24 2.0004504468663563e-16 1.9484570023985265e-16 5.1993444467829476e-18
2.299542257339062 3.7656922420076204e-24 2.2985589768605437e-16 2.22827713921101e-16 7.028183764953405e-18
2.369576372248914 4.2204079332765145e-24 2.654572399032265e-16 2.5605679579537147e-16 9.40044410785512e-18
2.4417434235010123 4.7506033473998625e-24 3.0790605551715485e-16 2.954611065671286e-16 1.2444948950026235e-17
2.5161083711144245 5.3667825986671566e-24 3.5843695449869706e-16 3.421246462671722e-16 1.6312308231524816e-17
2.5927381535095444 6.0805429294536714e-24 4.184758986443237e-16 3.972996381329696e-16 2.117626051135421e-17
2.6717017477616296 6.90356581191909e-24 4.895881267426421e-16 4.623545930057108e-16 2.7233533736931215e-17
2.753070231689431 7.848236888094744e-24 5.735335484239739e-16 5.388292646343706e-16 3.4704283789603376e-17
2.836916847834745 8.931018844251961e-24 6.725383363704031e-16 6.287050433425567e-16 4.383329302784664e-17
2.9233170693905177 1.017489487994139e-23 7.895420893653466e-16 7.346638369871971e-16 5.4878252378149726e-17
2.967498994190263 1.0863866883076098e-23 8.557451549971089e-16 7.946548151158511e-16 6.10903398812577e-17
3.0123486681368425 1.160037045454033e-23 9.275696496925133e-16 8.596536497355701e-16 6.791599995694335e-17
3.0578761833420214 1.2473580102225527e-23 1.0124660042647451e-15 9.370389021475507e-16 7.542710211719442e-17
3.1040917844459814 1.3427036487858806e-23 1.106328643119619e-15 1.0227244939429918e-15 8.360414917662714e-17
3.127460860933648 1.403856472050904e-23 1.1654241811239668e-15 1.0774405321517038e-15 8.798364897226279e-17
3.1510058709225794 1.4731314302015204e-23 1.232140239141283e-15 1.1395906268362104e-15 9.254961230507271e-17
3.162844764501044 1.5214736277562132e-23 1.2773553722438834e-15 1.1824424981346235e-15 9.491287410925977e-17
3.1747281389236908 1.5741003319690952e-23 1.3265034532185374e-15 1.2291790109565995e-15 9.732444226193837e-17
3.1986289994194426 1.7043823786688626e-23 1.447105982105401e-15 1.3447984948428888e-15 1.0230748726251264e-16
3.2227097969389145 1.9568464204653572e-23 1.6739688591527422e-15 1.5663801546294754e-15 1.0758870452326699e-16
3.2348180950136065 2.177120825146696e-23 1.869398237561826e-15 1.7589909222766994e-15 1.1040731528512698e-16
3.240889293275058 2.33680846063419e-23 2.0102808958781685e-15 1.8983868298858477e-15 1.1189406599232067e-16
3.2469718861334385 2.5201774824957903e-23 2.1720963621263665e-15 2.058663937216828e-15 1.134324249095381e-16
3.2714166318528037 3.471013596289182e-23 3.0141274016272978e-15 2.8943368562227527e-15 1.197905454045453e-16
3.2744851364798273 3.533116261188708e-23 3.070933309403466e-15 2.950393211260704e-15 1.2054009814276203e-16
3.2775565192852394 3.596770934833248e-23 3.1291933790814118e-15 3.007899957756082e-15 1.212934213253307e-16
3.283707930232385 3.551495225203092e-23 3.095602508866139e-15 2.9729613576401524e-15 1.2264115122598596e-16
3.2898708863219004 3.384177497439031e-23 2.9552989566102875e-15 2.831430793534506e-15 1.2386816307578234e-16
3.29141343181113 3.344779680530924e-23 2.9222635857959934e-15 2.798087300768882e-15 1.2417628502711094e-16
3.292184975758714 3.325430337654124e-23 2.9060395206737443e-15 2.7817089690607276e-15 1.2433055161301633e-16
3.295272960557952 3.201806642972869e-23 2.800631241635931e-15 2.675700527430472e-15 1.24930714205459e-16
3.3076538914384823 2.7732378969160763e-23 2.434874708469661e-15 2.3075332009617674e-15 1.273415075078934e-16
3.310756385682612 2.6861004814756535e-23 2.360581032068472e-15 2.232631813111744e-15 1.2794921895672853e-16
3.313861789986515 2.605759625893142e-23 2.292124352507965e-15 2.1635654129426794e-15 1.2855893956528603e-16
3.3200813396944477 2.497022543251425e-23 2.2005975241189875e-15 2.0707273728563254e-15 1.2987015126266198e-16
3.345076488085796 2.3337316462191257e-23 2.0721748636406276e-15 1.9364620692593704e-15 1.3571279438125683e-16
3.3482140837626964 2.3482684673917815e-23 2.0870382005441843e-15 1.9505339576793943e-15 1.3650424286479024e-16
3.3513546224236106 2.3629061027046273e-23 2.1020172804479404e-15 1.964717995818742e-15 1.3729928462919824e-16
3.3576445397418455 2.4355626756372508e-23 2.170718263658468e-15 2.0317568285077886e-15 1.389614351506799e-16
3.3702598118196083 2.679555742973432e-23 2.3971522097836718e-15 2.254704299019621e-15 1.4244791076405013e-16
3.382922481734668 2.7565844170737004e-23 2.475328123088342e-15 2.329489997420142e-15 1.4583812566819993e-16
3.389271646505754 2.7960494963186434e-23 2.515478829675097e-15 2.36792205125184e-15 1.4755677842325728e-16
3.395632727569191 2.8385093862795503e-23 2.5584708809319817e-15 2.409142918289936e-15 1.4932796264204538e-16
3.421196662673239 3.035149148230582e-23 2.7563065051030748e-15 2.5996451105657013e-15 1.5666139453737293e-16
3.4276182099114902 3.020669504087815e-23 2.7483059972518944e-15 2.5900064700360714e-15 1.5829952721582318e-16
3.4340518103208963 2.9130005952644185e-23 2.6553198960053247e-15 2.495470225816659e-15 1.5984967018866494e-16
3.4469541582030403 2.764846565413942e-23 2.529740513279425e-15 2.366914008332605e-15 1.6282650494681928e-16
3.472904465399547 2.766414214648441e-23 2.550230744883312e-15 2.380549205301552e-15 1.696815395817607e-16
3.4990501388274233 2.7442064429694107e-23 2.5488036380745393e-15 2.372103832684644e-15 1.766998053898953e-16
3.5253949054701885 2.537998873976917e-23 2.375027434927998e-15 2.1915039267887554e-15 1.835235081392426e-16
3.5519380250092896 2.344405123237935e-23 2.210382707655519e-15 2.019996353504358e-15 1.9038635415116194e-16
3.578680990867387 2.3020721963284197e-23 2.1868115503906363e-15 1.988902706126558e-15 1.979088442640777e-16
3.605625307711299 2.319633978435934e-23 2.2200844154061872e-15 2.014250419631566e-15 2.0583399577462158e-16
3.660119384959845 2.40773022265084e-23 2.339227757039067e-15 2.1167324565085816e-15 2.224953005304848e-16
3.715437065384467 2.5069823120600486e-23 2.4724676171927854e-15 2.2323920475690407e-15 2.4007556962374466e-16
3.8285932144167436 2.7463248142045846e-23 2.791004645108013e-15 2.513089868996666e-15 2.7791477611134753e-16
3.94519561050918 3.0064888460887297e-23 3.1484555860774135e-15 2.8291972224044406e-15 3.192583636729723e-16
4.06534921144712 3.281474274526801e-23 3.5410845311988078e-15 3.177008475979087e-15 3.6407605521972075e-16
4.189162171576248 3.5686420934669875e-23 3.968255255191619e-15 3.55578850251778e-15 4.124667526738383e-16
4.316745939156006 3.8658291793140295e-23 4.42964152736492e-15 3.965373960783395e-15 4.642675665815261e-16
4.448215356677963 4.17065452527962e-23 4.9244695326673874e-15 4.405689881640458e-15 5.187796510269299e-16
4.58368876423945 4.4815542956045606e-23 5.45272024497604e-15 4.876639446247785e-15 5.760807987282551e-16
4.723288106065518 4.7972051204437725e-23 6.014536414534635e-15 5.377998369091294e-15 6.365380454433406e-16
4.867139040275056 5.1148806249692683e-23 6.608131675780491e-15 5.909549923876037e-15 6.985817519044542e-16
4.940699165968905 5.274644224820588e-23 6.917529434487172e-15 6.187142104782807e-15 7.303873297043651e-16
5.015371051989984 5.4338419252857e-23 7.234016621264783e-15 6.471397077913265e-15 7.62619543351518e-16
5.091171501069577 5.594558132175989e-23 7.56054235771016e-15 6.764575946421637e-15 7.959664112885214e-16
5.129500256944802 5.674503332221284e-23 7.726313827309498e-15 6.913545221321183e-15 8.127686059883149e-16
5.168117569889187 5.754406046668761e-23 7.894094510417796e-15 7.06427895569948e-15 8.298155547183182e-16
5.20702561229733 5.836377505004245e-23 8.066822887794237e-15 7.218415617366526e-15 8.484072704277089e-16
5.246226572918644 5.918039559233178e-23 8.241273740341953e-15 7.374139596188226e-15 8.671341441537268e-16
5.265937586045735 5.958743956316973e-23 8.329134302163497e-15 7.452588279307762e-15 8.765460228557351e-16
5.285722656980489 5.999358320689139e-23 8.417412422063806e-15 7.531423441543788e-15 8.859889805200181e-16
5.305582063971359 6.039878471621581e-23 8.506103635022202e-15 7.610641541453314e-15 8.954620935688876e-16
5.3255160863122235 6.080621449730753e-23 8.595657473844973e-15 7.69061888390305e-15 9.05038589941921e-16
5.365609099470188 6.164279161416959e-23 8.779519772711266e-15 7.854667835229056e-15 9.248519374822109e-16
5.406003951863644 6.247617953799451e-23 8.965205650062833e-15 8.020401207736435e-15 9.44804442326396e-16
5.446702915881641 6.330610719303535e-23 9.152689505470641e-15 8.18780074053115e-15 9.648887649394918e-16
5.487708281020852 6.413814273164453e-23 9.342795215056672e-15 8.35761285141753e-15 9.851823636391433e-16
5.529022354014368 6.501772923078065e-23 9.542223322061366e-15 8.535883665168786e-15 1.006339656892581e-15
5.570647458961463 6.589621458706862e-23 9.743961853547087e-15 8.716319038641269e-15 1.0276428149058196e-15
5.612585937458331 6.677358912798257e-23 9.948031627440728e-15 8.898947241566661e-15 1.0490843858740655e-15
5.654840148729818 6.765854752090519e-23 1.0155760161964877e-14 9.084998338390115e-15 1.0707618235747622e-15
5.67608639626678 6.813880552124411e-23 1.0266276252713833e-14 9.184171615432704e-15 1.0821046372811305e-15
5.686739436050992 6.837943761342242e-23 1.032186767552746e-14 9.234076399286293e-15 1.0877912762411691e-15
5.6974124697621304 6.862042083217023e-23 1.0377684708645164e-14 9.284196794068911e-15 1.0934879145762534e-15
5.718818669136295 6.910349059206966e-23 1.0490006192201862e-14 9.385095472533936e-15 1.1049107196679244e-15
5.740305295436557 6.959887772797467e-23 1.060490202413394e-14 9.488444695767463e-15 1.1164573283664745e-15
5.7835210386641895 7.068228767903253e-23 1.0851064627537121e-14 9.710736180256576e-15 1.1403284472805468e-15
5.827062130521658 7.180546592769391e-23 1.1106483771558451e-14 9.941899844066466e-15 1.1645839274919853e-15
5.8489554468988025 7.246801680595813e-23 1.1251077666893798e-14 1.0073390501147283e-14 1.1776871657465126e-15
5.870931020387893 7.314314735612964e-23 1.1398561713709299e-14 1.0207708944921174e-14 1.1908527687881206e-15
5.892989160043636 7.383189253440055e-23 1.1549124846702322e-14 1.0345044968165121e-14 1.2040798785372048e-15
5.915130176081913 7.456622614247176e-23 1.1707816403700173e-14 1.0490023588999437e-14 1.2177928147007392e-15
5.95966208400165 7.637855995980367e-23 1.2082659439861608e-14 1.0833578760187511e-14 1.2490806796740991e-15
6.004529249263818 7.867681901378225e-23 1.2539932257275882e-14 1.125561921165431e-14 1.284313045621575e-15
6.027089341400364 8.014938234219843e-23 1.2822633878213438e-14 1.1517942814549208e-14 1.304691063664227e-15
6.049734195844842 8.179976468104123e-23 1.313583791693401e-14 1.1809556274357079e-14 1.3262816425769292e-15
6.095279466722835 8.62739172698693e-23 1.3958622857200522e-14 1.2579198733435154e-14 1.379424123765368e-15
6.141167624020661 9.268442399143362e-23 1.510870146436877e-14 1.3660214833421539e-14 1.4484866309472316e-15
6.164241091010745 9.67018797786878e-23 1.5822822841949454e-14 1.4330946640664723e-14 1.491876201284736e-15
6.187401249150058 1.010732477389774e-22 1.6600223474696937e-14 1.5063794962540785e-14 1.536428512156152e-15
6.1990139391386085 1.0319691565457581e-22 1.6980824100414295e-14 1.5421726402616056e-14 1.5590976977982402e-15
6.204828454712694 1.0429789962332968e-22 1.7178086079746144e-14 1.5607538644830963e-14 1.5705474349151794e-15
6.210648424152782 1.0511322452121402e-22 1.7328610385278737e-14 1.5748317658779107e-14 1.5802927264996295e-15
6.233982942956859 1.0785328240116848e-22 1.7847130926431857e-14 1.6232903180349344e-14 1.6142277460825172e-15
6.239830258556775 1.0819411612688168e-22 1.79203237828864e-14 1.6301418319110418e-14 1.6189054637759838e-15
6.245683058788269 1.0823612042890096e-22 1.7944096335118852e-14 1.6320505775653364e-14 1.6235905594654863e-15
6.257405133728602 1.0818551737008895e-22 1.7969369270184173e-14 1.6337596465209568e-14 1.6317728049746065e-15
6.269149208991335 1.0768371614930343e-22 1.791959021601691e-14 1.6284898851264138e-14 1.6346913647527725e-15
6.280915325867298 1.064035648060893e-22 1.7739793083714735e-14 1.6108691554631037e-14 1.6311015290837015e-15
6.304513850009849 1.0323999009081891e-22 1.727702614163265e-14 1.565899252409484e-14 1.6180336175378108e-15
6.32820103803542 9.941185216687839e-23 1.6698900077742277e-14 1.5100199265335535e-14 1.5987008124067426e-15
6.3519772230701035 9.596169511535905e-23 1.6179916504696486e-14 1.4598554795602596e-14 1.5813617090938856e-15
6.375842739491607 9.302442333035442e-23 1.574359887942547e-14 1.4177531880479402e-14 1.5660669989460633e-15
6.399797922933955 9.084101970197301e-23 1.5431839393643176e-14 1.3873636083248383e-14 1.5582033103947913e-15
6.42384311029221 8.901463910838645e-23 1.5178393023304763e-14 1.3626572988824576e-14 1.5518200344801855e-15
6.447978639727206 8.78006893560967e-23 1.502764575325009e-14 1.3476413443037888e-14 1.551232310212203e-15
6.472204850670314 8.680556541195132e-23 1.4913145596430018e-14 1.3361351062028301e-14 1.5517945344017219e-15
6.496522083828205 8.627811926624358e-23 1.4878221558913486e-14 1.33211682386596e-14 1.5570533202538889e-15
6.520930681187647 8.586346078345363e-23 1.4862347302789926e-14 1.3299323831039005e-14 1.5630234717509212e-15
