Dust emission spectrum from A.P. Jones, M. Kohler, N. Ysard, M. Bocchio, and L. Verstraete (2017), A&A, 602A, 46J 
inside the DustPedia framework.

lambda    nu*dP/dnu     j_nu    j_nu(carb.) j_nu(sil)
 (um)   (erg s-1 H-1) (Jy cm2 sr-1 H-1)
0.9927057738263894 3.0041059312198503e-24 7.915989758574793e-17 7.915986065058735e-17 3.693516059882808e-23
1.0001793341362166 3.0546995879496935e-24 8.109905921259867e-17 8.10990147568432e-17 4.445575547984856e-23
1.0077091589558085 3.1054738812896336e-24 8.306776389501157e-17 8.306771045826666e-17 5.343674491727844e-23
1.0114953028030835 3.1309261849657746e-24 8.406324143165686e-17 8.40631828745457e-17 5.855711115491922e-23
1.0152956718711033 3.1564205935258764e-24 8.506616146079901e-17 8.506609731401017e-17 6.414678885662775e-23
1.0229392996569957 3.2075070730422047e-24 8.709373580248424e-17 8.709365890044821e-17 7.690203601773818e-23
1.0267826658714554 3.2330410508698426e-24 8.811689398126581e-17 8.811680981882798e-17 8.416243783708827e-23
1.0306404723013447 3.258612097638204e-24 8.914752520167242e-17 8.914743312398468e-17 9.207768770909944e-23
1.03451277320114 3.2842193420835366e-24 9.018565106055465e-17 9.018555035668778e-17 1.0070386690286384e-22
1.0383996230291617 3.30986194058337e-24 9.123129380798054e-17 9.123118370639586e-17 1.1010158469400272e-22
1.0403485208654093 3.322696241744325e-24 9.175694115558725e-17 9.175682604555455e-17 1.151100326889426e-22
1.0423010764483396 3.335539078028721e-24 9.228447638359834e-17 9.228435604727832e-17 1.2033632003064205e-22
1.0462171883269815 3.3612499687052094e-24 9.334522245393378e-17 9.334509097514676e-17 1.314787870166749e-22
1.0471985131304309 3.3676828761115535e-24 9.361159361328386e-17 9.361145919823042e-17 1.3441505346806845e-22
1.048180758391296 3.3741178342258804e-24 9.387843940355952e-17 9.387830198951435e-17 1.37414045154575e-22
1.0501480137395462 3.386993857183353e-24 9.441355645064329e-17 9.441341284531754e-17 1.4360532572131968e-22
1.0521189612883777 3.399877948028566e-24 9.49505767751303e-17 9.495042671201147e-17 1.5006311881136674e-22
1.0531058218030118 3.406314357406719e-24 9.521956031924733e-17 9.521940692367878e-17 1.5339556854312661e-22
1.0540936079674168 3.412724464311774e-24 9.548822898081211e-17 9.548807218129361e-17 1.5679951849786526e-22
1.058054026499678 3.438383372561904e-24 9.65676305301574e-17 9.656745937794589e-17 1.7115221153718197e-22
1.0590464539527713 3.444802668954671e-24 9.683866470951491e-17 9.683848977741485e-17 1.7493210004670692e-22
1.06003981227728 3.451223773213122e-24 9.71101732447917e-17 9.710999445302008e-17 1.7879177159982e-22
1.0620293250338977 3.4640713666692e-24 9.765461509075693e-17 9.765442833386292e-17 1.8675689404018358e-22
1.0660195594769086 3.4897878303791274e-24 9.87492100495955e-17 9.874900633260237e-17 2.0371699310615625e-22
1.070024785945596 3.515532182630442e-24 9.985144377254149e-17 9.985122162857409e-17 2.221439673902553e-22
1.0740450607676866 3.541303878503353e-24 1.0096134564891994e-16 1.0096110349103204e-16 2.4215788787537517e-22
1.07808044048254 3.5671024101791046e-24 1.0207894613722027e-16 1.02078682249163e-16 2.6388805725731246e-22
1.0861967418109137 3.6187382318387166e-24 1.0433621974220748e-16 1.0433590667765388e-16 3.130645535975282e-22
1.0902777775684922 3.644483954646952e-24 1.0547332466941839e-16 1.0547298384751848e-16 3.40821899926092e-22
1.0943741465085532 3.670253295652668e-24 1.0661818745062807e-16 1.0661781653171344e-16 3.7091891461110297e-22
1.1026131145906286 3.721861677032458e-24 1.0893133228591907e-16 1.0893089339497394e-16 4.388909451520361e-22
1.1109141095355224 3.773561505762401e-24 1.1127595975567715e-16 1.1127544111223172e-16 5.18643445424949e-22
1.1192775983109025 3.8253106740396004e-24 1.1365118205351382e-16 1.1365056995966624e-16 6.120938475969242e-22
1.1277040513999907 3.8769204992207245e-24 1.1605168996761773e-16 1.1605096851748222e-16 7.214501355096802e-22
1.1361939428280308 3.92861457586344e-24 1.1848444166293276e-16 1.1848359241160596e-16 8.492513267910126e-22
1.1447477501889525 3.980394222808749e-24 1.20949845781067e-16 1.2094884736786605e-16 9.984132009859423e-22
1.1533659546722406 4.0322808030707475e-24 1.2344892969204022e-16 1.2344775741069986e-16 1.1722813404224832e-21
1.1707974979042381 4.1365451105238436e-24 1.2855500320286235e-16 1.2855339317507915e-16 1.6100277832053612e-21
1.1884924949847024 4.241276522321229e-24 1.338019568856679e-16 1.3379975671488943e-16 2.2001707785291563e-21
1.2064549276569216 4.347222609542907e-24 1.3921704602719308e-16 1.3921405423013606e-16 2.99179705706318e-21
1.2246888378427687 4.4537118951540495e-24 1.4478291366686695e-16 1.4477886533084857e-16 4.0483360183545e-21
1.2431983285522175 4.560700820193966e-24 1.5050170995244918e-16 1.5049625849061207e-16 5.451461837106136e-21
1.2619875648066055 4.668393388165857e-24 1.5638386912256087e-16 1.5637656331694883e-16 7.305805612054894e-21
1.3004222497298317 4.885486262783587e-24 1.6864039897649278e-16 1.686274622336745e-16 1.2936742818298755e-20
1.3400274889804893 5.106342781211879e-24 1.8163230965153988e-16 1.8160982156333623e-16 2.2488088203709467e-20
1.3808389325824078 5.3327835129425486e-24 1.9546383262975455e-16 1.9542543942197835e-16 3.8393207776225966e-20
1.4228933163050095 5.56813454781322e-24 2.1030591776826673e-16 2.102415089467116e-16 6.440882155508308e-20
1.466228494730424 5.8183937856273975e-24 2.264509771899473e-16 2.26344748353689e-16 1.0622883625827244e-19
1.5108834753276823 6.085734618633511e-24 2.4406944548825233e-16 2.4389712503733176e-16 1.7232045092055186e-19
1.5568984535646726 6.3734815949629716e-24 2.6339435093076715e-16 2.631191272119103e-16 2.7522371885683086e-19
1.6043148490894465 6.687785607667386e-24 2.8480091393007185e-16 2.8436730414247833e-16 4.3360978759357975e-19
1.6531753430134553 7.0361607184812e-24 3.087621832813655e-16 3.0808910822948483e-16 6.730750518807651e-19
1.7035239163302658 7.42799707695045e-24 3.358840586716009e-16 3.3485442972651297e-16 1.0296289450879678e-18
1.755405889504358 7.878095489908295e-24 3.6708634072968197e-16 3.655333556167811e-16 1.5529851129007959e-18
1.8088679632656115 8.3979194291766e-24 4.0322551360244837e-16 4.009151733081665e-16 2.3103402942818964e-18
1.8639582606462262 9.001233005409106e-24 4.45356320341244e-16 4.4196492644654375e-16 3.391393894700295e-18
1.9207263702978936 9.70563720316822e-24 4.948333768357934e-16 4.899193626451101e-16 4.914014190683341e-18
1.979223391128241 1.0532261446549177e-23 5.533321177406034e-16 5.46301124414152e-16 7.030993326451527e-18
2.039501978296691 1.1505186979338838e-23 6.228554158388964e-16 6.129180273458654e-16 9.937388493030891e-18
2.1016163906111602 1.2654791040292462e-23 7.059563650626356e-16 6.92076644380251e-16 1.3879720682384486e-17
2.1656225393682647 1.4012836830289056e-23 8.055235853284527e-16 7.863594328546141e-16 1.916415247383871e-17
2.231578038680979 1.5611150129018444e-23 9.247331191999895e-16 8.985674296847806e-16 2.616568951520856e-17
2.299542257339062 1.748641645107077e-23 1.0673617737094213e-15 1.0320239963253088e-15 3.533777738411243e-17
2.369576372248914 1.967965173624422e-23 1.237820162115086e-15 1.1905976632046956e-15 4.7222498910390225e-17
2.4417434235010123 2.223477092373027e-23 1.4411265495782634e-15 1.3786683044743292e-15 6.24582451039342e-17
2.5161083711144245 2.520072539377972e-23 1.683107354404052e-15 1.6013175138071837e-15 8.178984059686786e-17
2.5927381535095444 2.8630927516182033e-23 1.9704413339996402e-15 1.864366760483759e-15 1.0607457351588104e-16
2.6717017477616296 3.257864471326539e-23 2.3104172642844387e-15 2.1741365130447334e-15 1.3628075123970463e-16
2.753070231689431 3.709941103995741e-23 2.711151200145765e-15 2.5376621467212404e-15 1.7348905342452465e-16
2.836916847834745 4.226518383093083e-23 3.1827227011549642e-15 2.963825046534128e-15 2.1889765462083689e-16
2.9233170693905177 4.8172798529388575e-23 3.738068299501533e-15 3.464306392915743e-15 2.737619065857896e-16
2.967498994190263 5.142311902855057e-23 4.050591326010593e-15 3.7460161575938314e-15 3.0457516841676074e-16
3.0123486681368425 5.489081309324583e-23 4.389088475386694e-15 4.050676694833127e-15 3.384117805535672e-16
3.0578761833420214 5.894593715604992e-23 4.784573231656118e-15 4.408947323840975e-15 3.756259078151422e-16
3.1040917844459814 6.334807653499463e-23 5.219602376188565e-15 4.803493191269031e-15 4.161091849195341e-16
3.127460860933648 6.610891903259916e-23 5.488091864263162e-15 5.050312445705441e-15 4.377794185577218e-16
3.1510058709225794 6.920513509342929e-23 5.788379092024261e-15 5.328015544136113e-15 4.603635478881464e-16
3.162844764501044 7.131703491436905e-23 5.987431922478941e-15 5.515382587690828e-15 4.72049334788113e-16
3.1747281389236908 7.360254507235503e-23 6.202529039684421e-15 5.718557409831589e-15 4.839716298528323e-16
3.1986289994194426 7.919248003256955e-23 6.723838090980349e-15 6.2152385152160176e-15 5.085995757643342e-16
3.2227097969389145 8.976688015600185e-23 7.679037066624188e-15 7.144344873382926e-15 5.3469219324126e-16
3.2348180950136065 9.888465714854974e-23 8.490792135202173e-15 7.942176463411664e-15 5.486156717905115e-16
3.240889293275058 1.0546319736468647e-22 9.07265847637851e-15 8.516698513685527e-15 5.559599626929845e-16
3.2469718861334385 1.1300729963415138e-22 9.739899119564272e-15 9.176339962529462e-15 5.635591570348093e-16
3.2714166318528037 1.519651252955171e-22 1.3196210142611687e-14 1.260125048412292e-14 5.949596584887674e-16
3.2744851364798273 1.5452589714065587e-22 1.3431166415538121e-14 1.2832507070483455e-14 5.986593450546656e-16
3.2775565192852394 1.5714929234235484e-22 1.3672000081034472e-14 1.3069622632019593e-14 6.0237744901488155e-16
3.283707930232385 1.5537956223535792e-22 1.3543404458745702e-14 1.2934379378842104e-14 6.090250799036011e-16
3.2898708863219004 1.486466771013098e-22 1.2980860787400276e-14 1.2365787406274246e-14 6.150733811260314e-16
3.29141343181113 1.470619087791167e-22 1.2848489345482062e-14 1.2231897241605963e-14 6.165921038760968e-16
3.292184975758714 1.4628367912822754e-22 1.2783492950150657e-14 1.2166140486609879e-14 6.173524635407786e-16
3.295272960557952 1.4129928284230982e-22 1.2359496686579833e-14 1.1739186834895067e-14 6.203098516847667e-16
3.3076538914384823 1.2402383484524285e-22 1.0889166740722597e-14 1.0256979323344948e-14 6.321874173776482e-16
3.310756385682612 1.2051361987742e-22 1.0590898112354409e-14 9.955717010172311e-15 6.351811021820987e-16
3.313861789986515 1.1727824089890527e-22 1.031623597635326e-14 9.678051455362295e-15 6.381845209909634e-16
3.3200813396944477 1.1292697870828633e-22 9.952125999956198e-15 9.307480784676632e-15 6.446452152795655e-16
3.345076488085796 1.0661494369542936e-22 9.466589989986614e-15 8.793151755852862e-15 6.734382341337516e-16
3.3482140837626964 1.0724988653748046e-22 9.531900347678898e-15 8.854561596559414e-15 6.773387511194895e-16
3.3513546224236106 1.0788899263231378e-22 9.597695254316798e-15 8.916438492045796e-15 6.81256762271002e-16
3.3576445397418455 1.1093482015308863e-22 9.887170738440183e-15 9.19772211114321e-15 6.894486272969746e-16
3.3702598118196083 1.210350888118471e-22 1.0827896802203567e-14 1.0121265566631785e-14 7.066312355717815e-16
3.382922481734668 1.2434724584391314e-22 1.116600067676392e-14 1.0442668437391867e-14 7.233322393720513e-16
3.389271646505754 1.260421606753816e-22 1.1339441138036888e-14 1.0607643819208138e-14 7.317973188287487e-16
3.395632727569191 1.2786462578039946e-22 1.152498995922639e-14 1.0784468848548096e-14 7.405211106782937e-16
3.421196662673239 1.3626892530800544e-22 1.237497424101302e-14 1.1598340964454524e-14 7.766332765584895e-16
3.4276182099114902 1.3575803836652026e-22 1.2351719726800466e-14 1.156702762404203e-14 7.846921027584387e-16
3.4340518103208963 1.314416742950835e-22 1.1981449419796833e-14 1.1189135175215292e-14 7.923142445815353e-16
3.4469541582030403 1.2554013218678398e-22 1.1486494853207677e-14 1.0679551098248041e-14 8.069437549596386e-16
3.472904465399547 1.2591699873400004e-22 1.1607712242603841e-14 1.0767068334540955e-14 8.406439080628854e-16
3.4990501388274233 1.2533150560762593e-22 1.164072033561789e-14 1.0765591434611406e-14 8.751289010064851e-16
3.5253949054701885 1.172569629015256e-22 1.0972759156156764e-14 1.0064129422752514e-14 9.086297334042507e-16
3.5519380250092896 1.0968378169284814e-22 1.0341349793216983e-14 9.399049825117777e-15 9.422999680992057e-16
3.578680990867387 1.0830113763098035e-22 1.0287869297479083e-14 9.30866615930602e-15 9.792031381730625e-16
3.605625307711299 1.0937131049700117e-22 1.0467752420606717e-14 9.449684687828817e-15 1.0180677327779019e-15
3.660119384959845 1.136830572828707e-22 1.1044865433818065e-14 9.945154030667559e-15 1.0997114031505044e-15
3.715437065384467 1.1845803448811725e-22 1.1682717219791885e-14 1.049695040081799e-14 1.1857668189738974e-15
3.8285932144167436 1.2970160858781352e-22 1.318117180364967e-14 1.181050221635601e-14 1.370669587293659e-15
3.94519561050918 1.418177169444622e-22 1.4851436541978767e-14 1.3279222565396843e-14 1.5722139765819217e-15
4.06534921144712 1.545467141887722e-22 1.6677350884927527e-14 1.488721719201659e-14 1.7901336929109294e-15
4.189162171576248 1.6776559345735177e-22 1.8655182571999088e-14 1.6630391571667268e-14 2.0247910003318234e-15
4.316745939156006 1.8136792586872138e-22 2.0781955407111107e-14 1.8506698062175997e-14 2.2752573449351098e-15
4.448215356677963 1.9523446882710673e-22 2.3052165736530995e-14 2.051417309319393e-14 2.537992643337059e-15
4.58368876423945 2.0928494082716223e-22 2.5463760082882947e-14 2.2650515155425732e-14 2.8132449274572175e-15
4.723288106065518 2.2345033599307735e-22 2.8015274496872857e-14 2.4912616918743774e-14 3.102657578129086e-15
4.867139040275056 2.3759281950146704e-22 3.069562618570545e-14 2.729717546955404e-14 3.398450716151397e-15
4.940699165968905 2.4465905717681185e-22 3.20862632112793e-14 2.853664777752014e-14 3.5496154337591663e-15
5.015371051989984 2.5166945463547346e-22 3.350448987898993e-14 2.980201296873863e-14 3.7024769102512916e-15
5.091171501069577 2.5871309107095487e-22 3.4962748394488394e-14 3.1102406020519374e-14 3.860342373969027e-15
5.129500256944802 2.622041538202719e-22 3.570130213398829e-14 3.176155595964814e-14 3.939746174340151e-15
5.168117569889187 2.6568503052628523e-22 3.6447597266652577e-14 3.242735973899367e-14 4.0202375276589074e-15
5.20702561229733 2.6925037035319107e-22 3.72147800283631e-14 3.310662398606557e-14 4.108156042297528e-15
5.246226572918644 2.7279308814429546e-22 3.798829817490563e-14 3.379168239054955e-14 4.196615784356081e-15
5.265937586045735 2.745554531420318e-22 3.83773704555144e-14 3.4136333438199823e-14 4.241037017314573e-15
5.285722656980489 2.763115524318309e-22 3.876795099533684e-14 3.4482371445900475e-14 4.2855795494363595e-15
5.305582063971359 2.780611853880852e-22 3.9160014078117075e-14 3.482977545793368e-14 4.330238620183402e-15
5.3255160863122235 2.7981794002051696e-22 3.9555482730466016e-14 3.5180112727323065e-14 4.375370003142946e-15
5.365609099470188 2.8341702535227636e-22 4.036587754781943e-14 3.589712811655056e-14 4.468749431268867e-15
5.406003951863644 2.869919603172955e-22 4.118276698712837e-14 3.662008977042039e-14 4.562677216707992e-15
5.446702915881641 2.905413940142377e-22 4.20059815049168e-14 3.734886614242601e-14 4.657115362490799e-15
5.487708281020852 2.9408870681948235e-22 4.2838948024599495e-14 3.808651167989697e-14 4.75243634470254e-15
5.529022354014368 2.9782554508624276e-22 4.370989106894501e-14 3.885808820207627e-14 4.851802866868722e-15
5.570647458961463 3.0154515228113297e-22 4.458897190622547e-14 3.963723575876287e-14 4.9517361474625936e-15
5.612585937458331 3.0524719344021476e-22 4.547619461806396e-14 4.042399710754865e-14 5.052197510515313e-15
5.654840148729818 3.089678931353814e-22 4.637704969148216e-14 4.122339535706004e-14 5.153654334422113e-15
5.67608639626678 3.109815754640982e-22 4.685469225349451e-14 4.1647933024555856e-14 5.206759228938664e-15
5.686739436050992 3.119890503338484e-22 4.709470867492679e-14 4.1861337736639446e-14 5.233370938287343e-15
5.6974124697621304 3.1299700171739903e-22 4.733553305536771e-14 4.20755117114343e-14 5.260021343933379e-15
5.718818669136295 3.1501450684623515e-22 4.781964122416777e-14 4.25062054316982e-14 5.3134357924695636e-15
5.740305295436557 3.1707939355021957e-22 4.831393856111444e-14 4.294653277676006e-14 5.3674057843544e-15
5.7835210386641895 3.215818061991372e-22 4.936887410821732e-14 4.388991926504798e-14 5.4789548431693216e-15
5.827062130521658 3.2622957175047144e-22 5.045943783858457e-14 4.4867251585572584e-14 5.5921862530119906e-15
5.8489554468988025 3.2896619286758765e-22 5.1073899202265566e-14 4.5420483683556404e-14 5.653415518709156e-15
5.870931020387893 3.3174761011943043e-22 5.169924653242312e-14 4.598434717850976e-14 5.714899353913384e-15
5.892989160043636 3.3457775035316575e-22 5.2336193440485356e-14 4.6559560331245404e-14 5.77663310923996e-15
5.915130176081913 3.375900510424408e-22 5.300579822517555e-14 4.716514590673177e-14 5.840652318443785e-15
5.95966208400165 3.450166500052064e-22 5.457969730365089e-14 4.859263293906929e-14 5.987064364581604e-15
6.004529249263818 3.544045050615653e-22 5.648688572890701e-14 5.0334763249313215e-14 6.15212247959379e-15
6.027089341400364 3.604117111611455e-22 5.76601750704523e-14 5.1412413244518816e-14 6.247761825933481e-15
6.049734195844842 3.671279346417207e-22 5.895534129024342e-14 5.2606214153315176e-14 6.3491271369282376e-15
6.095279466722835 3.8531268607133596e-22 6.234137311906977e-14 5.574216352849669e-14 6.599209590573064e-15
6.141167624020661 4.1128882231954233e-22 6.704513837872164e-14 6.012020729070536e-14 6.9249310880162784e-15
6.164241091010745 4.27559790690779e-22 6.995937243333894e-14 6.282945471634653e-14 7.129917716992413e-15
6.187401249150058 4.451925142514927e-22 7.311821269385234e-14 6.577789528583571e-14 7.340317408016611e-15
6.1990139391386085 4.537477900856709e-22 7.466319473332864e-14 6.721583696470121e-14 7.447357768627447e-15
6.204828454712694 4.581769567850427e-22 7.546272007235198e-14 6.796130693763776e-14 7.501413134714235e-15
6.210648424152782 4.614497612229926e-22 7.60730456232872e-14 6.852570236694322e-14 7.547343256343999e-15
6.233982942956859 4.724032512613029e-22 7.817140552081351e-14 7.046445788038945e-14 7.70694764042403e-15
6.239830258556775 4.737372288246302e-22 7.846567662319882e-14 7.073697992012974e-14 7.728696703069063e-15
6.245683058788269 4.738704481885346e-22 7.856136139179758e-14 7.081088438240293e-14 7.750477009394623e-15
6.257405133728602 4.735903633831115e-22 7.866228612948068e-14 7.087391931336026e-14 7.78836681612041e-15
6.269149208991335 4.714806199081248e-22 7.845884044188303e-14 7.065767667249881e-14 7.801163769384225e-15
6.280915325867298 4.662260718153667e-22 7.773004653848225e-14 6.994710176589428e-14 7.782944772587954e-15
6.304513850009849 4.532832049742692e-22 7.585612682657475e-14 6.813766543057042e-14 7.718461396004327e-15
6.32820103803542 4.377042882868696e-22 7.352423291975418e-14 6.590009292476576e-14 7.624139994988399e-15
6.3519772230701035 4.2368000897382795e-22 7.1435869923565e-14 6.389654155235913e-14 7.539328371205862e-15
6.375842739491607 4.117071162755482e-22 6.967795620112357e-14 6.221367792548849e-14 7.464278275635078e-15
6.399797922933955 4.0284252727102575e-22 6.843385512592137e-14 6.10092699716006e-14 7.424585154320766e-15
6.42384311029221 3.9540002716420603e-22 6.742191030417005e-14 6.002996714278404e-14 7.391943161386012e-15
6.447978639727206 3.9045468738849833e-22 6.682880018142958e-14 5.944194914807721e-14 7.386851033352371e-15
6.472204850670314 3.8638194311066007e-22 6.63801928608541e-14 5.899297624916606e-14 7.387216611688033e-15
6.496522083828205 3.842095352732015e-22 6.62549744878179e-14 5.88450897043996e-14 7.409884783418286e-15
6.520930681187647 3.8248613806893955e-22 6.620559864014822e-14 5.876969040819395e-14 7.43590823195429e-15
6.57002334288761 3.817299768343451e-22 6.657215437313342e-14 5.905339565878684e-14 7.518758714346583e-15
