Dust emission spectrum from A.P. Jones, M. Kohler, N. Ysard, M. Bocchio, and L. Verstraete (2017), A&A, 602A, 46J 
inside the DustPedia framework.

lambda    nu*dP/dnu     j_nu    j_nu(carb.) j_nu(sil)
 (um)   (erg s-1 H-1) (Jy cm2 sr-1 H-1)
0.9927057738263894 3.1202658749878474e-20 8.222077808156555e-13 8.2220775571482e-13 2.510083537958005e-20
1.0001793341362166 3.1726333539153864e-20 8.423007658234142e-13 8.423007356219898e-13 3.020142447551407e-20
1.0077091589558085 3.2252223522799685e-20 8.627089426907317e-13 8.627089064008992e-13 3.628983251257674e-20
1.0114953028030835 3.25159776194344e-20 8.730319130914754e-13 8.730318733315711e-13 3.975990454965852e-20
1.0152956718711033 3.2780260033084005e-20 8.834345138986755e-13 8.834344703514976e-13 4.354717797669972e-20
1.0229392996569957 3.331011973390537e-20 9.044727576866354e-13 9.044727055001572e-13 5.218647815167199e-20
1.0267826658714554 3.3575096249879713e-20 9.150929883384746e-13 9.150929312360837e-13 5.71023910209863e-20
1.0306404723013447 3.3840556952716544e-20 9.25793501462621e-13 9.257934390021802e-13 6.246044075679897e-20
1.03451277320114 3.4106494757025835e-20 9.365746056121762e-13 9.365745373138142e-13 6.829836197357099e-20
1.0383996230291617 3.437290283668387e-20 9.474366163967454e-13 9.47436541739822e-13 7.465692338165384e-20
1.0403485208654093 3.450628116903692e-20 9.528980624070844e-13 9.528979843620148e-13 7.804506975476298e-20
1.0423010764483396 3.4639774631082045e-20 9.583798567770022e-13 9.583797751968466e-13 8.158015558302082e-20
1.0462171883269815 3.4907103851324507e-20 9.69404657363115e-13 9.694045682475202e-13 8.911559464853282e-20
1.0471985131304309 3.4974006918562147e-20 9.721736407879542e-13 9.721735496869171e-13 9.110103703674164e-20
1.048180758391296 3.5040938106666816e-20 9.749477482150013e-13 9.74947655086232e-13 9.312876901415473e-20
1.0501480137395462 3.5174884486371043e-20 9.805113567169572e-13 9.80511259402415e-13 9.731454246874339e-20
1.0521189612883777 3.5308942283470347e-20 9.860955264818602e-13 9.860954248018981e-13 1.0167996179214123e-19
1.0531058218030118 3.537592456863669e-20 9.888928706735456e-13 9.88892766741079e-13 1.039324666473275e-19
1.0540936079674168 3.5442645571253676e-20 9.916872842754214e-13 9.916871780422572e-13 1.0623316407457299e-19
1.058054026499678 3.570979230990124e-20 1.0029160964450056e-12 1.0029159805125122e-12 1.159324935335147e-19
1.0590464539527713 3.577664428138085e-20 1.005736116968218e-12 1.0057359984817272e-12 1.184864908491311e-19
1.06003981227728 3.58435222136397e-20 1.0085612758252013e-12 1.0085611547309682e-12 1.2109423311074486e-19
1.0620293250338977 3.5977355662152585e-20 1.0142270315143544e-12 1.0142269050390862e-12 1.2647526835337265e-19
1.0660195594769086 3.624533087438029e-20 1.025620457689093e-12 1.025620319758187e-12 1.3793090588356095e-19
1.070024785945596 3.651371350352364e-20 1.0370967527584277e-12 1.037096602384238e-12 1.5037418995468004e-19
1.0740450607676866 3.6782499422789975e-20 1.0486563044188584e-12 1.0486561405332015e-12 1.6388565683748716e-19
1.07808044048254 3.7051684827274924e-20 1.0602995106010298e-12 1.060299332049023e-12 1.7855200669066475e-19
1.0861967418109137 3.7590831141482897e-20 1.0838267282674175e-12 1.0838265165377596e-12 2.1172965778202078e-19
1.0902777775684922 3.78598554097288e-20 1.095684566391345e-12 1.0956843359420165e-12 2.3044932866464683e-19
1.0943741465085532 3.812925131765247e-20 1.107627004695507e-12 1.1076267539539649e-12 2.5074154217094635e-19
1.1026131145906286 3.866915026041447e-20 1.1317674921196717e-12 1.131767195568035e-12 2.9655163656500733e-19
1.1109141095355224 3.921051597817219e-20 1.1562519363533988e-12 1.1562515860809314e-12 3.5027246735706923e-19
1.1192775983109025 3.975292162280682e-20 1.1810717919393529e-12 1.1810713787532944e-12 4.131860585530363e-19
1.1277040513999907 4.029443339636135e-20 1.206173067741598e-12 1.206172580973919e-12 4.867676788832676e-19
1.1361939428280308 4.083734936826018e-20 1.2316277011798723e-12 1.2316271284672152e-12 5.727126570977938e-19
1.1447477501889525 4.138168240595496e-20 1.2574402998780138e-12 1.2574396269114901e-12 6.729665232672716e-19
1.1533659546722406 4.1927640641914336e-20 1.2836215071666476e-12 1.2836207174066142e-12 7.897600332791563e-19
1.1707974979042381 4.3026087089183406e-20 1.3371590580469081e-12 1.3371579744944644e-12 1.0835524437781139e-18
1.1884924949847024 4.41313397139702e-20 1.3922364134097311e-12 1.3922349342418921e-12 1.4791678394111385e-18
1.2064549276569216 4.5250824687160217e-20 1.4491289517615057e-12 1.4491269425326262e-12 2.0092288800394603e-18
1.2246888378427687 4.637751347283421e-20 1.5076573625086411e-12 1.5076546466802053e-12 2.7158284358037115e-18
1.2431983285522175 4.751056453956413e-20 1.567833867187651e-12 1.567830214101925e-12 3.6530857257681365e-18
1.2619875648066055 4.865172015581238e-20 1.629756450414139e-12 1.629751560185287e-12 4.890228852451832e-18
1.3004222497298317 5.0951779582336626e-20 1.758786735884061e-12 1.7587780962638481e-12 8.639620213373282e-18
1.3400274889804893 5.328506135007395e-20 1.895346469600108e-12 1.895331486338776e-12 1.4983261332361602e-17
1.3808389325824078 5.566040824310958e-20 2.0401347053617383e-12 2.0401091860288005e-12 2.5519332937773074e-17
1.4228933163050095 5.809748377977884e-20 2.1943156260711874e-12 2.1942729190308447e-12 4.2707040342284126e-17
1.466228494730424 6.063739785245724e-20 2.3599980516725876e-12 2.359927790620247e-12 7.026105234085716e-17
1.5108834753276823 6.327493260289982e-20 2.5376521786557916e-12 2.5375384927468596e-12 1.1368590893178402e-16
1.5568984535646726 6.600713610776634e-20 2.727850784984486e-12 2.7276696778653884e-12 1.8110711909793487e-16
1.6043148490894465 6.884808675398288e-20 2.9319118733996346e-12 2.9316272852203166e-12 2.845881793175218e-16
1.6531753430134553 7.181212602946782e-20 3.1512737849628342e-12 3.1508331978221773e-12 4.4058714065723665e-16
1.7035239163302658 7.491546624224478e-20 3.3875768390920074e-12 3.3869046658008532e-12 6.721732911543207e-16
1.755405889504358 7.820960110646116e-20 3.644240707271891e-12 3.643229636567024e-12 1.0110707048684217e-15
1.8088679632656115 8.168935131897733e-20 3.922308485957349e-12 3.920808506827919e-12 1.4999791294305283e-15
1.8639582606462262 8.534670534895037e-20 4.222720889973158e-12 4.220525237143929e-12 2.195652829228529e-15
1.9207263702978936 8.918421267962485e-20 4.546978647243739e-12 4.543806314781314e-12 3.172332462425932e-15
1.979223391128241 9.320826619173241e-20 4.896871159583627e-12 4.892345351418308e-12 4.525808165318991e-15
2.039501978296691 9.742151553247308e-20 5.274101036132926e-12 5.267723269855726e-12 6.377766277198418e-15
2.1016163906111602 1.018542105574976e-19 5.682008341548528e-12 5.6731271133908736e-12 8.881228157652016e-15
2.1656225393682647 1.0651265527668015e-19 6.122847000963406e-12 6.110621793030417e-12 1.222520793298943e-14
2.231578038680979 1.1136935452807773e-19 6.5970110943077665e-12 6.580371190499923e-12 1.6639903807841824e-14
2.299542257339062 1.1641134709911768e-19 7.10568813611944e-12 7.083286139872858e-12 2.2401996246581733e-14
2.369576372248914 1.21635073883229e-19 7.650661144359925e-12 7.62082097550769e-12 2.98401688522352e-14
2.4417434235010123 1.2703944372522702e-19 8.233946543640106e-12 8.194607671857416e-12 3.9338871782689414e-14
2.5161083711144245 1.326444306753207e-19 8.859063114329102e-12 8.807719639571574e-12 5.1343474757529784e-14
2.5927381535095444 1.3849757979169084e-19 9.531698046674134e-12 9.465335394955403e-12 6.636265171873027e-14
2.6717017477616296 1.4463524434446393e-19 1.0257264183288172e-11 1.0172298167734175e-11 8.496601555399761e-14
2.753070231689431 1.5112167591996178e-19 1.1043671625869403e-11 1.0935888285984093e-11 1.0778333988531035e-13
2.836916847834745 1.5817195391476404e-19 1.1910925797089317e-11 1.1775419682130984e-11 1.3550611495833595e-13
2.9233170693905177 1.6628352789909094e-19 1.2903115520466727e-11 1.2734268980982153e-11 1.6884653948457868e-13
2.967498994190263 1.7122923884027966e-19 1.3487701304558198e-11 1.3300223812684799e-11 1.874774918733957e-13
3.0123486681368425 1.7650318701726816e-19 1.4113256123397402e-11 1.3905360142282223e-11 2.0789598111517918e-13
3.0578761833420214 1.8518714196007337e-19 1.5031425150191705e-11 1.480111307701476e-11 2.3031207317694193e-13
3.1040917844459814 1.9533031381748976e-19 1.6094357175631234e-11 1.5839721654680992e-11 2.546355209502411e-13
3.127460860933648 2.047546890180329e-19 1.699789619030804e-11 1.6730265002188252e-11 2.6763118811978766e-13
3.1510058709225794 2.167173474024966e-19 1.8126431815934318e-11 1.7845274628749413e-11 2.811571871849026e-13
3.162844764501044 2.2755216525410893e-19 1.9104174758633237e-11 1.881602555793789e-11 2.8814920069534464e-13
3.1747281389236908 2.3979623579364924e-19 2.0207767471287683e-11 1.9912489506902093e-11 2.9527796438559366e-13
3.1986289994194426 2.7291360429350725e-19 2.3171731550025073e-11 2.2861742177229737e-11 3.0998937279533947e-13
3.2227097969389145 3.495991424319028e-19 2.990618331091813e-11 2.9580625637529975e-11 3.25557673388163e-13
3.2348180950136065 4.215199514619344e-19 3.619407086912558e-11 3.586021015419075e-11 3.338607149348485e-13
3.240889293275058 4.752494954095001e-19 4.088418017530518e-11 4.054593978598524e-11 3.382403893199193e-13
3.2469718861334385 5.375240684784044e-19 4.632824798279882e-11 4.598547593878344e-11 3.427720440153831e-13
3.2714166318528037 8.638864922772479e-19 7.5017394084895e-11 7.46559116491311e-11 3.6148243576391984e-13
3.2744851364798273 8.842616999879423e-19 7.685874191439941e-11 7.649505922519627e-11 3.636826892031142e-13
3.2775565192852394 9.051784553394843e-19 7.875059270258402e-11 7.83846991930646e-11 3.6589350951940146e-13
3.283707930232385 8.85003980529746e-19 7.713991906965712e-11 7.677008147440053e-11 3.698375952565858e-13
3.2898708863219004 8.210003330085099e-19 7.169545419390227e-11 7.132203605853464e-11 3.7341813536763226e-13
3.29141343181113 8.058722667733791e-19 7.040736326229148e-11 7.003304625713272e-11 3.743170051587769e-13
3.292184975758714 7.984337167848836e-19 6.977382473908946e-11 6.939905773835203e-11 3.7476700073742345e-13
3.295272960557952 7.521038551144449e-19 6.578678191611792e-11 6.541026618032092e-11 3.7651573579700285e-13
3.3076538914384823 5.903174300535843e-19 5.182927083192741e-11 5.1445735700787364e-11 3.835351311400438e-13
3.310756385682612 5.570252733703671e-19 4.895212609390101e-11 4.856682256219454e-11 3.8530353170647657e-13
3.313861789986515 5.261655255946285e-19 4.62835022341028e-11 4.589642487627225e-11 3.870773578305398e-13
3.3200813396944477 4.83072455544832e-19 4.2572625245818566e-11 4.2181728450540405e-11 3.908967952781741e-13
3.345076488085796 4.0787422412230457e-19 3.621610548592632e-11 3.580817661930964e-11 4.079288666166837e-13
3.3482140837626964 4.1092739189345574e-19 3.6521427444971455e-11 3.6111190834151445e-11 4.102366108200056e-13
3.3513546224236106 4.14007772466247e-19 3.6829711132732e-11 3.641715685351306e-11 4.1255427921894827e-13
3.3576445397418455 4.356328268219894e-19 3.882618759479219e-11 3.8408786034562046e-11 4.1740156023015275e-13
3.3702598118196083 5.139073189684696e-19 4.5974563825354374e-11 4.554699565226163e-11 4.2756817309274165e-13
3.382922481734668 5.32600953436288e-19 4.782592944583348e-11 4.73884940898188e-11 4.374353560146705e-13
3.389271646505754 5.422331225005492e-19 4.878225303931864e-11 4.8339819194148625e-11 4.42433845170017e-13
3.395632727569191 5.5284480154455295e-19 4.9830285334383537e-11 4.938270023280837e-11 4.4758510157517616e-13
3.421196662673239 6.043594873984751e-19 5.488362861865612e-11 5.4414735411470335e-11 4.688932071857743e-13
3.4276182099114902 5.950591751288411e-19 5.4140471094676095e-11 5.3666838599301586e-11 4.736324953745127e-13
3.4340518103208963 5.528780356588502e-19 5.0397107729256315e-11 4.991900046046596e-11 4.781072687903643e-13
3.4469541582030403 4.92317164089805e-19 4.504534504591406e-11 4.4558664754187504e-11 4.866802917265607e-13
3.472904465399547 4.754506693844552e-19 4.382962277735677e-11 4.332316993211739e-11 5.064528452393817e-13
3.4990501388274233 4.500248303280416e-19 4.1798055233877876e-11 4.1271403975390775e-11 5.266512584870798e-13
3.5253949054701885 3.601501455414766e-19 3.370239778767127e-11 3.3156180420257256e-11 5.462173674140118e-13
3.5519380250092896 2.745829223834974e-19 2.5888586295859336e-11 2.532274872133682e-11 5.658375745225118e-13
3.578680990867387 2.41304653783507e-19 2.2922296046944013e-11 2.2334959905704136e-11 5.873361412398786e-13
3.605625307711299 2.2860455450319834e-19 2.187937465399747e-11 2.1269423915430713e-11 6.099507385667651e-13
3.660119384959845 2.208048412765738e-19 2.1452271053610874e-11 2.0794934805232336e-11 6.573362483785372e-13
3.715437065384467 2.1563537208265967e-19 2.126666279338803e-11 2.0559556440379943e-11 7.071063530080829e-13
3.8285932144167436 2.159034837156586e-19 2.194160074688515e-11 2.1128169132316275e-11 8.13431614568881e-13
3.94519561050918 2.187239182394877e-19 2.290520861521702e-11 2.1976797453790835e-11 9.2841116142618e-13
4.06534921144712 2.223493734534518e-19 2.3994030151929332e-11 2.2942349588771805e-11 1.0516805631575223e-12
4.189162171576248 2.26261182408128e-19 2.515976953196327e-11 2.3976531576162463e-11 1.1832379558008025e-12
4.316745939156006 2.302356672384273e-19 2.6381441739256508e-11 2.5059118153830743e-11 1.3223235854257721e-12
4.448215356677963 2.341659665723407e-19 2.7648973583967364e-11 2.6182276192467573e-11 1.4666973914997887e-12
4.58368876423945 2.3802994274369593e-19 2.896117288999509e-11 2.7344882424956802e-11 1.6162904650382932e-12
4.723288106065518 2.418594851234115e-19 3.0323337108853704e-11 2.8551526184358005e-11 1.7718109244956998e-12
4.867139040275056 2.4569243138646194e-19 3.1742049470688456e-11 2.981341907271287e-11 1.9286303979755856e-12
4.940699165968905 2.4774904764546953e-19 3.2491505709316234e-11 3.048354449579457e-11 2.007961213521659e-12
5.015371051989984 2.497002938455423e-19 3.324233757349099e-11 3.115472327377649e-11 2.0876142997144966e-12
5.091171501069577 2.519892137337902e-19 3.405407682088713e-11 3.188467681438358e-11 2.1694000065035456e-12
5.129500256944802 2.5308948606111467e-19 3.4460263413664875e-11 3.224996186672457e-11 2.2103015469402974e-12
5.168117569889187 2.542004854227959e-19 3.487210739470334e-11 3.262045724914837e-11 2.251650145554977e-12
5.20702561229733 2.556290905454529e-19 3.533209763470543e-11 3.303502495612717e-11 2.2970726785782577e-12
5.246226572918644 2.5703833573488453e-19 3.579434144282032e-11 3.345173111620708e-11 2.342610326613247e-12
5.265937586045735 2.5773584537886884e-19 3.6026325117837464e-11 3.366091024055334e-11 2.365414877284124e-12
5.285722656980489 2.5842869808395674e-19 3.6258893321441094e-11 3.387065408015842e-11 2.3882392412826665e-12
5.305582063971359 2.591169618391645e-19 3.6492054291355266e-11 3.4080973896888376e-11 2.4110803944668916e-12
5.3255160863122235 2.5986320966932703e-19 3.673465218707868e-11 3.4300512609352097e-11 2.434139577726593e-12
5.365609099470188 2.618257964551023e-19 3.72907309482566e-11 3.4808860712843865e-11 2.481870235412738e-12
5.406003951863644 2.637959112654488e-19 3.785418077144464e-11 3.5324477781262234e-11 2.5297029901824176e-12
5.446702915881641 2.657758253928016e-19 3.8425417637243576e-11 3.584780407910729e-11 2.5776135581362874e-12
5.487708281020852 2.67886019213808e-19 3.9022087511375806e-11 3.639628050613777e-11 2.625807005238032e-12
5.529022354014368 2.7105995106995983e-19 3.978168135641496e-11 3.7105638770196564e-11 2.6760425862183925e-12
5.570647458961463 2.743264618700104e-19 4.056419016828432e-11 3.78378189652879e-11 2.7263712029964045e-12
5.612585937458331 2.7769525894198977e-19 4.137146519787084e-11 3.85946970402012e-11 2.776768157669641e-12
5.654840148729818 2.8135337250315975e-19 4.223202354468494e-11 3.940453509479139e-11 2.8274884498935486e-12
5.67608639626678 2.840106203969372e-19 4.279105665846374e-11 3.9936982557101014e-11 2.8540741013627358e-12
5.686739436050992 2.8536705461875097e-19 4.307612170462746e-11 4.02087445975948e-11 2.867377107032668e-12
5.6974124697621304 2.8674269889448515e-19 4.336501125387854e-11 4.0484324877882926e-11 2.8806863759956095e-12
5.718818669136295 2.895537042169877e-19 4.3954655896351555e-11 4.104733376854404e-11 2.907322127807514e-12
5.740305295436557 2.9266743276711474e-19 4.459424564690285e-11 4.166004707410568e-11 2.934198572797168e-12
5.7835210386641895 3.0098854136862556e-19 4.6207419450968605e-11 4.321770357064393e-11 2.9897158803246952e-12
5.827062130521658 3.1042413131501694e-19 4.8014737209868166e-11 4.4968845284740485e-11 3.0458919251276883e-12
5.8489554468988025 3.1730245697427093e-19 4.9263036918380714e-11 4.6186656475085646e-11 3.0763804432950663e-12
5.870931020387893 3.2458199366560247e-19 5.0582563366356375e-11 4.747562633848052e-11 3.1069370278758626e-12
5.892989160043636 3.3229476951499834e-19 5.197907905783101e-11 4.8841520574220666e-11 3.137558483610348e-12
5.915130176081913 3.4106678001619656e-19 5.355168751870614e-11 5.0382337205072805e-11 3.1693503136333406e-12
5.95966208400165 3.6606734432775253e-19 5.790979897885675e-11 5.466712893816812e-11 3.242670040688624e-12
6.004529249263818 4.0213893051378395e-19 6.409505378925972e-11 6.076938092899184e-11 3.3256728602678648e-12
6.027089341400364 4.27342364056104e-19 6.836802124745252e-11 6.49939520101592e-11 3.374069237293326e-12
6.049734195844842 4.568817993809145e-19 7.336849057288095e-11 6.994306146789748e-11 3.4254291049834936e-12
6.095279466722835 5.423487509904793e-19 8.774890386012172e-11 8.419575043731997e-11 3.553153422801762e-12
6.141167624020661 6.728693900603944e-19 1.0968598930791234e-10 1.0596523339580916e-10 3.7207559121031416e-12
6.164241091010745 7.560225094161298e-19 1.2370400925395345e-10 1.1987718157437803e-10 3.826827679575407e-12
6.187401249150058 8.494697790093132e-19 1.3951652372913734e-10 1.355809489916078e-10 3.9355747375295675e-12
6.1990139391386085 8.947907962103243e-19 1.472358453810383e-10 1.4324496855458734e-10 3.990876826450976e-12
6.204828454712694 9.185578697731798e-19 1.51288436422764e-10 1.472696454812782e-10 4.018790941485773e-12
6.210648424152782 9.35674172280348e-19 1.5425207677595329e-10 1.5020969734196395e-10 4.042379433989345e-12
6.233982942956859 9.927984012251718e-19 1.642843189909805e-10 1.6016052138876297e-10 4.1237976022175574e-12
6.239830258556775 9.995022992203397e-19 1.6554878827941787e-10 1.6141431384943657e-10 4.134474429981366e-12
6.245683058788269 9.991255813614307e-19 1.656416140174582e-10 1.614964521512294e-10 4.145161866228874e-12
6.257405133728602 9.953518773953133e-19 1.6532569121523233e-10 1.611621854148884e-10 4.163505800343906e-12
6.269149208991335 9.813389364505738e-19 1.6330409307043494e-10 1.5913560324344394e-10 4.168489826990996e-12
6.280915325867298 9.49472483569525e-19 1.582977546654545e-10 1.5414077736778104e-10 4.156977297673469e-12
6.304513850009849 8.722620418649896e-19 1.4597147952453626e-10 1.4185241601136932e-10 4.119063513166969e-12
6.32820103803542 7.785179208435473e-19 1.307730686586029e-10 1.2670775603024365e-10 4.065312628359278e-12
6.3519772230701035 6.930780933613137e-19 1.1685856182865045e-10 1.1284192136309612e-10 4.016640465554328e-12
6.375842739491607 6.210306835520929e-19 1.0510420407485809e-10 1.0113100652214869e-10 3.973197552709423e-12
6.399797922933955 5.637635232758857e-19 9.577070111861511e-11 9.182222332323318e-11 3.948477795381921e-12
6.42384311029221 5.159337854102399e-19 8.797480782259563e-11 8.404729877568194e-11 3.9275090469136966e-12
6.447978639727206 4.810626310168135e-19 8.233692533696661e-11 7.841583559877664e-11 3.921089738189986e-12
6.472204850670314 4.518393537395071e-19 7.762573789521546e-11 7.370819360792032e-11 3.917544287295129e-12
6.496522083828205 4.325836025230831e-19 7.459683562677657e-11 7.0671093715542e-11 3.925741911234598e-12
6.520930681187647 4.1621087076457227e-19 7.20431072316123e-11 6.810743155696903e-11 3.935675674643259e-12
6.57002334288761 3.983445950572645e-19 6.94696761720747e-11 6.549803024753592e-11 3.971645924538756e-12
