Dust emission spectrum from A.P. Jones, M. Kohler, N. Ysard, M. Bocchio, and L. Verstraete (2017), A&A, 602A, 46J 
inside the DustPedia framework.

lambda    nu*dP/dnu     j_nu    j_nu(carb.) j_nu(sil)
 (um)   (erg s-1 H-1) (Jy cm2 sr-1 H-1)
0.9927057738263894 5.892304473805415e-23 1.5526556964689997e-15 1.552655675775852e-15 2.0693147951621484e-23
1.0001793341362166 5.99136878844951e-23 1.5906453585673655e-15 1.5906453336562837e-15 2.4911082056388445e-23
1.0077091589558085 6.090678950018334e-23 1.62918478892611e-15 1.629184758976864e-15 2.9949245873153784e-23
1.0114953028030835 6.140419344104542e-23 1.6486608860142086e-15 1.6486608531920335e-15 3.282217538552914e-23
1.0152956718711033 6.190213006955487e-23 1.6682746912958156e-15 1.6682746553370133e-15 3.595880222230678e-23
1.0229392996569957 6.289901087771593e-23 1.707902651770487e-15 1.7079026086528008e-15 4.3117686146357324e-23
1.0267826658714554 6.339680446529824e-23 1.7278869676946212e-15 1.7278869205012993e-15 4.719332179062643e-23
1.0306404723013447 6.389500077877555e-23 1.7480083610796174e-15 1.7480083094425038e-15 5.163711339077913e-23
1.03451277320114 6.439357458862486e-23 1.768266928452858e-15 1.7682668719722095e-15 5.648064833039692e-23
1.0383996230291617 6.489250105600709e-23 1.7886627708501393e-15 1.7886627090920693e-15 6.175807008429754e-23
1.0403485208654093 6.514208888371651e-23 1.798912203096038e-15 1.7989121385251337e-15 6.457090460415459e-23
1.0423010764483396 6.539175574394683e-23 1.8091959942501177e-15 1.809195926743846e-15 6.750627161705578e-23
1.0462171883269815 6.589131462842133e-23 1.8298667100148536e-15 1.8298666362497514e-15 7.376510230864407e-23
1.0471985131304309 6.601624910514336e-23 1.835055885736935e-15 1.8350558103223702e-15 7.541456489056399e-23
1.048180758391296 6.614120075247658e-23 1.840253663916457e-15 1.8402535868171376e-15 7.709931906938424e-23
1.0501480137395462 6.639115410935527e-23 1.8506750353364e-15 1.85067495475881e-15 8.057758926794184e-23
1.0521189612883777 6.664117181707751e-23 1.861130839908875e-15 1.8611307557030484e-15 8.420582662914264e-23
1.0531058218030118 6.676603133259053e-23 1.8663668354409817e-15 1.866366749362764e-15 8.607821763514838e-23
1.0540936079674168 6.689034046157355e-23 1.8715956161691758e-15 1.8715955281783323e-15 8.799084331548865e-23
1.058054026499678 6.738769692904681e-23 1.8925958842320033e-15 1.892595788175928e-15 9.605607502579012e-23
1.0590464539527713 6.751206430927262e-23 1.8978672474951244e-15 1.8978671493148344e-15 9.818028998908537e-23
1.06003981227728 6.763644231146084e-23 1.903147133346349e-15 1.903147032996935e-15 1.0034941429917113e-22
1.0620293250338977 6.788522882981187e-23 1.9137324812385416e-15 1.9137323764125237e-15 1.0482601761028257e-22
1.0660195594769086 6.838291456430037e-23 1.9350055425518596e-15 1.935005428192854e-15 1.1435900502103607e-22
1.070024785945596 6.888073301683072e-23 1.956415211848603e-15 1.9564150871306905e-15 1.2471791209991194e-22
1.0740450607676866 6.937866356587279e-23 1.9779616416014882e-15 1.977961505631004e-15 1.3597048390567093e-22
1.07808044048254 6.987668609419106e-23 1.9996449935672663e-15 1.9996448453775798e-15 1.4818968701726735e-22
1.0861967418109137 7.087213615258409e-23 2.043400295206881e-15 2.043400119358627e-15 1.7584825442069177e-22
1.0902777775684922 7.136772265575888e-23 2.0654202559980955e-15 2.065420064534886e-15 1.9146320992055897e-22
1.0943741465085532 7.186329433536959e-23 2.0875764066048193e-15 2.0875761982080585e-15 2.083967609001129e-22
1.1026131145906286 7.285432466875251e-23 2.1322981178832502e-15 2.132297871234888e-15 2.466483627862723e-22
1.1109141095355224 7.384509577635153e-23 2.1775672380628752e-15 2.1775669465203726e-15 2.9154250237588006e-22
1.1192775983109025 7.483467279222491e-23 2.2233616420082296e-15 2.2233612978453456e-15 3.4416288348726954e-22
1.1277040513999907 7.581920707651619e-23 2.2695712009062577e-15 2.2695707951483593e-15 4.0575789760131796e-22
1.1361939428280308 7.680302476039737e-23 2.3163289070575403e-15 2.3163284292939172e-15 4.777636217845757e-22
1.1447477501889525 7.778603501152572e-23 2.3636374720506577e-15 2.3636369102207935e-15 5.618298642021858e-22
1.1533659546722406 7.87685560679488e-23 2.411512098207694e-15 2.4115114383573464e-15 6.598503473021012e-22
1.1707974979042381 8.073512909647738e-23 2.509075690526385e-15 2.5090747837728143e-15 9.067535707938368e-22
1.1884924949847024 8.269879431466684e-23 2.6089457862869574e-15 2.6089445464637666e-15 1.2398231903669474e-21
1.2064549276569216 8.46732810732537e-23 2.7116081064199463e-15 2.711606419525793e-15 1.6868941535271054e-21
1.2246888378427687 8.664358363279286e-23 2.8166416652464485e-15 2.8166393812829202e-15 2.2839635278945425e-21
1.2431983285522175 8.860732753611587e-23 2.9240142763705803e-15 2.924011198949775e-15 3.0774208046222466e-21
1.2619875648066055 9.056646721879215e-23 3.03383485040895e-15 3.033830723665663e-15 4.126743285907517e-21
1.3004222497298317 9.445398935645982e-23 3.260424365806959e-15 3.260417049246126e-15 7.316560833667e-21
1.3400274889804893 9.831162417881115e-23 3.4969386369619655e-15 3.4969259021621768e-15 1.2734799788415983e-20
1.3808389325824078 1.021475416635197e-22 3.7440391005563396e-15 3.744017330197403e-15 2.1770358936430956e-20
1.4228933163050095 1.0599153898673817e-22 4.003252380284384e-15 4.003215808877478e-15 3.657140690665557e-20
1.466228494730424 1.0991559430608054e-22 4.2778977594315216e-15 4.277837359419157e-15 6.04000123663115e-20
1.5108834753276823 1.139014873408276e-22 4.56803896286315e-15 4.567940846226457e-15 9.811663669415726e-20
1.5568984535646726 1.1793722712202893e-22 4.873945099791529e-15 4.873788166738117e-15 1.5693305341283804e-19
1.6043148490894465 1.2204557700545107e-22 5.197339435107702e-15 5.197091830530541e-15 2.4760457716100493e-19
1.6531753430134553 1.2625104664700253e-22 5.540173166013249e-15 5.539788250213069e-15 3.8491580017786035e-19
1.7035239163302658 1.305851217122057e-22 5.904883944950054e-15 5.904294235857805e-15 5.897090922502785e-19
1.755405889504358 1.351492212103431e-22 6.297389150730979e-15 6.2964983274204445e-15 8.90823310532905e-19
1.8088679632656115 1.3993762740797835e-22 6.719095385441511e-15 6.717768051912872e-15 1.327333528639993e-18
1.8639582606462262 1.4494417575848043e-22 7.17144026067321e-15 7.169488731550527e-15 1.9515291226843683e-18
1.9207263702978936 1.5018525915911579e-22 7.657063352461266e-15 7.654231053030516e-15 2.8322994307518944e-18
1.979223391128241 1.556874564965569e-22 8.179332657670909e-15 8.17527347103653e-15 4.059186634377104e-18
2.039501978296691 1.614747334746801e-22 8.741745131692464e-15 8.735998302380446e-15 5.74682931201669e-18
2.1016163906111602 1.6762465085499793e-22 9.351058333220245e-15 9.343017795717693e-15 8.040537502553246e-18
2.1656225393682647 1.741727192306264e-22 1.0012264822623072e-14 1.0001143472547745e-14 1.1121350075329796e-17
2.231578038680979 1.8109574766972848e-22 1.0727283655109637e-14 1.0712071896918339e-14 1.5211758191295223e-17
2.299542257339062 1.883968931757379e-22 1.1499648462797905e-14 1.1479066716253694e-14 2.0581746544207887e-17
2.369576372248914 1.9610244399876076e-22 1.2334545462237763e-14 1.2306990179420841e-14 2.755528281691942e-17
2.4417434235010123 2.042446254040277e-22 1.323793050479651e-14 1.3201415067689687e-14 3.651543710681905e-17
2.5161083711144245 2.1290015295489675e-22 1.4219186455663757e-14 1.4171275413147896e-14 4.791104251586513e-17
2.5927381535095444 2.222082192887085e-22 1.529284232211681e-14 1.523058123254139e-14 6.226108957541884e-17
2.6717017477616296 2.3230498169445115e-22 1.6474639906294134e-14 1.6394485101598785e-14 8.015480469534791e-17
2.753070231689431 2.4340346994655834e-22 1.7787441664626832e-14 1.7685188169986042e-14 1.0225349464079408e-16
2.836916847834745 2.560724759773702e-22 1.9283192655551405e-14 1.915389799841563e-14 1.2929465713577244e-16
2.9233170693905177 2.7159430129132785e-22 2.1074923587074116e-14 2.0912865010277596e-14 1.6205857679651916e-16
2.967498994190263 2.8170326247299937e-22 2.2189723475320266e-14 2.200920913040632e-14 1.8051434491394038e-16
3.0123486681368425 2.9273216275658573e-22 2.3406965383211767e-14 2.3206159359880838e-14 2.0080602333093404e-16
3.0578761833420214 3.121823411373556e-22 2.5339477915964016e-14 2.511632919473587e-14 2.231487212281416e-16
3.1040917844459814 3.3560128608523093e-22 2.7652067215249004e-14 2.7404575309227784e-14 2.4749190602121693e-16
3.127460860933648 3.5812806936428377e-22 2.973032644616705e-14 2.9469788966294296e-14 2.605374798727539e-16
3.1510058709225794 3.871794734047133e-22 3.238403574664204e-14 3.210989159706549e-14 2.741441495765536e-16
3.162844764501044 4.1364630738470863e-22 3.472773522377241e-14 3.444654632559058e-14 2.8118889818182317e-16
3.1747281389236908 4.43876153658205e-22 3.7405700174932127e-14 3.711732100201402e-14 2.8837917291811035e-16
3.1986289994194426 5.265499797318062e-22 4.4706729844419207e-14 4.4403488667150247e-14 3.0324117726896617e-16
3.2227097969389145 7.1897517144666e-22 6.150416480918821e-14 6.118516646251672e-14 3.1899834667146586e-16
3.2348180950136065 9.001442678932825e-22 7.729144329128814e-14 7.696403377418585e-14 3.274095171022628e-16
3.240889293275058 1.0355076202988522e-21 8.908137837099846e-14 8.874953214132281e-14 3.318462296756401e-16
3.2469718861334385 1.192298162043746e-21 1.0276206808182604e-13 1.0242563110572738e-13 3.3643697609865334e-16
3.2714166318528037 2.0201001156965012e-21 1.7541962725991056e-13 1.7506421167308765e-13 3.55415586822866e-16
3.2744851364798273 2.071922565753168e-21 1.800884984049568e-13 1.7973084409715036e-13 3.5765430780640646e-16
3.2775565192852394 2.1251696315057344e-21 1.848899154497014e-13 1.8453001103372942e-13 3.5990441597203927e-16
3.283707930232385 2.0743657734261773e-21 1.8080868719616298e-13 1.8044475450487997e-13 3.639326912830519e-16
3.2898708863219004 1.9124468598357294e-21 1.6700814935747843e-13 1.6664054669568793e-13 3.6760266179049058e-16
3.29141343181113 1.8742078034443753e-21 1.6374558982464355e-13 1.6337706550974568e-13 3.6852431489787563e-16
3.292184975758714 1.855410322952607e-21 1.6214129234684086e-13 1.617723065804553e-13 3.6898576638560936e-16
3.295272960557952 1.7376122192785727e-21 1.5198953621513714e-13 1.516187547325329e-13 3.707814826042073e-16
3.3076538914384823 1.3274893537802608e-21 1.1655221706283018e-13 1.1617422108290172e-13 3.7799597992845196e-16
3.310756385682612 1.2434522923438139e-21 1.0927625067757439e-13 1.088964358056429e-13 3.798148719315201e-16
3.313861789986515 1.1656937474239064e-21 1.0253881438203607e-13 1.0215717449758545e-13 3.816398844505789e-16
3.3200813396944477 1.0569651834014677e-21 9.314913763832372e-14 9.276357420164979e-14 3.8556343667396483e-16
3.345076488085796 8.65848024411576e-22 7.68806694130975e-14 7.647762596136882e-14 4.0304345172868914e-16
3.3482140837626964 8.734807962679811e-22 7.763114884721075e-14 7.722573765819991e-14 4.0541118901084755e-16
3.3513546224236106 8.81188348620201e-22 7.838962089982751e-14 7.798183108309167e-14 4.077898167358385e-16
3.3576445397418455 9.357396060354818e-22 8.339867715858888e-14 8.298591491691863e-14 4.127622416702575e-16
3.3702598118196083 1.134457790459478e-21 1.0148951020845411e-13 1.0106631768466354e-13 4.2319252379057513e-16
3.382922481734668 1.1813989903230372e-21 1.0608600002314386e-13 1.056526605091122e-13 4.333395140316219e-16
3.389271646505754 1.2056423070332785e-21 1.0846616640713558e-13 1.0802768200021819e-13 4.3848440691738996e-16
3.395632727569191 1.2321158317444527e-21 1.1105591169403357e-13 1.1061212511223532e-13 4.4378658179828237e-16
3.421196662673239 1.3600468251714405e-21 1.235097759083843e-13 1.2304403091955963e-13 4.657449888246794e-16
3.4276182099114902 1.336387667366297e-21 1.215890131610204e-13 1.2111835801457052e-13 4.706551464498663e-16
3.4340518103208963 1.229576169711541e-21 1.1208092687645717e-13 1.1160562283062889e-13 4.753040458282748e-16
3.4469541582030403 1.0767720712096426e-21 9.852098001318965e-14 9.803674334531065e-14 4.842366678789863e-16
3.472904465399547 1.0348235221706125e-21 9.539564783154883e-14 9.489084847575562e-14 5.047993557932455e-16
3.4990501388274233 9.707243636683813e-22 9.01603374638364e-14 8.963447417251953e-14 5.258632913168673e-16
3.5253949054701885 7.411904204260337e-22 6.935966761321965e-14 6.88133058577204e-14 5.463617554992569e-16
3.5519380250092896 5.234757952666309e-22 4.9355029737159854e-14 4.8788036933345033e-14 5.669928038148156e-16
3.578680990867387 4.383705678774966e-22 4.16422135984588e-14 4.105260432430802e-14 5.896092741507726e-16
3.605625307711299 4.0538950370007707e-22 3.8799178133294754e-14 3.818573249455462e-14 6.134456387401222e-16
3.660119384959845 3.8421209113371053e-22 3.732808516979495e-14 3.66644859936768e-14 6.635991761181591e-16
3.715437065384467 3.7002905716183777e-22 3.649347092924795e-14 3.5776891127925734e-14 7.16579801322213e-16
3.8285932144167436 3.6890758946216086e-22 3.7490932990848705e-14 3.666010553154959e-14 8.308274592991144e-16
3.94519561050918 3.7485780187576904e-22 3.925586292581355e-14 3.829988285321266e-14 9.55980072600887e-16
4.06534921144712 3.8345821072932145e-22 4.137950886634881e-14 4.02874809589103e-14 1.0920279074385042e-15
4.189162171576248 3.9340382808361168e-22 4.37456816155143e-14 4.2506327480513314e-14 1.2393541350009845e-15
4.316745939156006 4.0416501119624414e-22 4.631105086284416e-14 4.491349046399303e-14 1.3975603988511382e-15
4.448215356677963 4.155246738986513e-22 4.906276902780077e-14 4.749814255739702e-14 1.564626470403756e-15
4.58368876423945 4.27459649395792e-22 5.200914081207997e-14 5.0268257931954336e-14 1.7408828801256402e-15
4.723288106065518 4.400851081724624e-22 5.51760419273636e-14 5.324849464866118e-14 1.927547278702427e-15
4.867139040275056 4.536096721796779e-22 5.860376151376835e-14 5.64837974698228e-14 2.1199640439455496e-15
4.940699165968905 4.610933701508613e-22 6.047094029690627e-14 5.825200534137204e-14 2.218934955534224e-15
5.015371051989984 4.685466884537197e-22 6.237712798269466e-14 6.005765853106269e-14 2.319469451631972e-15
5.091171501069577 4.771501508590298e-22 6.448255324776391e-14 6.205886926575128e-14 2.4236839820126252e-15
5.129500256944802 4.814401352364565e-22 6.555212599448931e-14 6.307583291892391e-14 2.4762930755653803e-15
5.168117569889187 4.858260606663156e-22 6.664731003374444e-14 6.411759105905643e-14 2.5297189746880187e-15
5.20702561229733 4.911049339942621e-22 6.787868876639276e-14 6.529079226485113e-14 2.5878965015416365e-15
5.246226572918644 4.964153211469309e-22 6.912921938970139e-14 6.648265169151472e-14 2.646567698186678e-15
5.265937586045735 4.990829401349799e-22 6.976183012354535e-14 6.70857479540903e-14 2.6760821694550362e-15
5.285722656980489 5.017591843288401e-22 7.039942882706547e-14 6.769371633534182e-14 2.7057124917236598e-15
5.305582063971359 5.04444321161308e-22 7.104208626145593e-14 6.830663018271218e-14 2.7354560787437465e-15
5.3255160863122235 5.073084616579879e-22 7.17138832937605e-14 6.89483477852263e-14 2.765535508534175e-15
5.365609099470188 5.1439146600343615e-22 7.326258153521074e-14 7.043481401872116e-14 2.8277675164895672e-15
5.406003951863644 5.216055710095537e-22 7.484934653334936e-14 7.195883166713823e-14 2.890514866211123e-15
5.446702915881641 5.289589657771952e-22 7.647598927747949e-14 7.352223212616057e-14 2.95375715131893e-15
5.487708281020852 5.367885412363471e-22 7.819224568979979e-14 7.517451295551045e-14 3.017732734289325e-15
5.529022354014368 5.477191232247731e-22 8.03851234641416e-14 7.730068106978884e-14 3.084442394352762e-15
5.570647458961463 5.590784541553095e-22 8.266998589473525e-14 7.95182870765977e-14 3.1516988181375575e-15
5.612585937458331 5.709002712689266e-22 8.505359722108686e-14 8.183411582178589e-14 3.219481399300967e-15
5.654840148729818 5.837232746773164e-22 8.761869410140507e-14 8.433060320981928e-14 3.2880908915857986e-15
5.67608639626678 5.925726396436458e-22 8.928120139242554e-14 8.595722105012538e-14 3.323980342300149e-15
5.686739436050992 5.971022324283124e-22 9.013250835331943e-14 8.679052618076741e-14 3.341982172552019e-15
5.6974124697621304 6.017040517216276e-22 9.09976193814591e-14 8.763759773359906e-14 3.360021647860048e-15
5.718818669136295 6.111314931936118e-22 9.277061249618353e-14 8.937440024870206e-14 3.396212247481497e-15
5.740305295436557 6.2150046987868025e-22 9.4699107315741e-14 9.126629463318115e-14 3.4328126825598704e-15
5.7835210386641895 6.48546302125918e-22 9.9564092637683e-14 9.605559121666047e-14 3.5085014210225024e-15
5.827062130521658 6.792563369106721e-22 1.050637216144989e-13 1.014782274481796e-13 3.585494166319287e-15
5.8489554468988025 7.010845128255705e-22 1.0884741507385046e-13 1.0522036916636397e-13 3.627045907486454e-15
5.870931020387893 7.242680388810311e-22 1.1286927397663849e-13 1.0920045109547468e-13 3.6688228811637984e-15
5.892989160043636 7.48913824857485e-22 1.1714855147009102e-13 1.1343772859545721e-13 3.710822874633791e-15
5.915130176081913 7.768664021452709e-22 1.2197759866701013e-13 1.1822324492215825e-13 3.754353744851876e-15
5.95966208400165 8.555100140063566e-22 1.3533688186933722e-13 1.3148344993555202e-13 3.853431933785216e-15
6.004529249263818 9.68460608831404e-22 1.5435843213816965e-13 1.5039356130336595e-13 3.964870834803686e-15
6.027089341400364 1.0470423192149471e-21 1.6751021557430117e-13 1.6348101139734947e-13 4.029204176951624e-15
6.049734195844842 1.139311281349371e-21 1.8295661836064388e-13 1.7885927680588459e-13 4.097341554759287e-15
6.095279466722835 1.4057818906633252e-21 2.2744741229113985e-13 2.231827771487104e-13 4.264635142429527e-15
6.141167624020661 1.8135788837990567e-21 2.956356716413927e-13 2.911541417853518e-13 4.4815298560407956e-15
6.164241091010745 2.0738755854994685e-21 3.393374157844895e-13 3.347198675987403e-13 4.6175481857491195e-15
6.187401249150058 2.3678437373524704e-21 3.8889356058610693e-13 3.8413628924644156e-13 4.757271339665431e-15
6.1990139391386085 2.511000885448117e-21 4.131796389584089e-13 4.083512614332275e-13 4.828377525181412e-15
6.204828454712694 2.5861929856573e-21 4.2595148978934444e-13 4.2108719165762556e-13 4.86429813171883e-15
6.210648424152782 2.6408287072295224e-21 4.3535808144296853e-13 4.304631528218266e-13 4.894928621141836e-15
6.233982942956859 2.8249649439249962e-21 4.674639296491491e-13 4.624620961437856e-13 5.00183350536364e-15
6.239830258556775 2.847667032639409e-21 4.716625735072709e-13 4.666458206812787e-13 5.016752825992256e-15
6.245683058788269 2.8483215457029268e-21 4.722134903482787e-13 4.671817923494394e-13 5.031697998839173e-15
6.257405133728602 2.8402433841721475e-21 4.717579896835404e-13 4.667000825634635e-13 5.0579071200768145e-15
6.269149208991335 2.8002646851966173e-21 4.659905643071697e-13 4.609227848833725e-13 5.067779423797203e-15
6.280915325867298 2.704478433966755e-21 4.508954930727421e-13 4.4583804921384185e-13 5.057443858900264e-15
6.304513850009849 2.4701123513290657e-21 4.1336884698594265e-13 4.083503670444614e-13 5.018479941481223e-15
6.32820103803542 2.182503638192501e-21 3.6661031234290083e-13 3.6165025996831324e-13 4.960052374587655e-15
6.3519772230701035 1.9195259764875913e-21 3.2364757615869056e-13 3.187397660755618e-13 4.907810083128769e-15
6.375842739491607 1.6977886616996426e-21 2.8733640817006635e-13 2.8247450514409843e-13 4.86190302596797e-15
6.399797922933955 1.5211426210555865e-21 2.58407806296844e-13 2.535686951244334e-13 4.8391111724106095e-15
6.42384311029221 1.3737676763471045e-21 2.342489496465753e-13 2.294280294785571e-13 4.8209201680181805e-15
6.447978639727206 1.2665783580120326e-21 2.1678293214467036e-13 2.1196215600346854e-13 4.8207761412018605e-15
6.472204850670314 1.1769548998523398e-21 2.0220016652887433e-13 1.973759458878446e-13 4.824220641029824e-15
6.496522083828205 1.1185343308425049e-21 1.9288553966007632e-13 1.8804323229159215e-13 4.842307368484178e-15
