Dust emission spectrum from A.P. Jones, M. Kohler, N. Ysard, M. Bocchio, and L. Verstraete (2017), A&A, 602A, 46J 
inside the DustPedia framework.

lambda    nu*dP/dnu     j_nu    j_nu(carb.) j_nu(sil)
 (um)   (erg s-1 H-1) (Jy cm2 sr-1 H-1)
0.9927057738263894 4.2099402426624945e-21 1.1093431659247735e-13 1.1093431373870122e-13 2.8537761423589648e-21
1.0001793341362166 4.280721728178458e-21 1.1364865673721358e-13 1.1364865330296074e-13 3.434252823912105e-21
1.0077091589558085 4.351784255469153e-21 1.16405096572643e-13 1.1640509244534682e-13 4.127296212963405e-21
1.0114953028030835 4.387417649116803e-21 1.1779918379112148e-13 1.1779917926876384e-13 4.522357645668949e-21
1.0152956718711033 4.423117445711528e-21 1.192038930327329e-13 1.1920388807915364e-13 4.953579226863161e-21
1.0229392996569957 4.4946765651060584e-21 1.2204436790459842e-13 1.2204436196717626e-13 5.9374221648892514e-21
1.0267826658714554 4.530454597635751e-21 1.2347804472182665e-13 1.234780382244886e-13 6.497338032858802e-21
1.0306404723013447 4.5662924932684506e-21 1.249224095794949e-13 1.249224024718126e-13 7.107682272496802e-21
1.03451277320114 4.602189147886524e-21 1.2637749838677135e-13 1.2637749061400543e-13 7.77276596913247e-21
1.0383996230291617 4.638143490988072e-21 1.2784334789363612e-13 1.278433393963886e-13 8.497247546130599e-21
1.0403485208654093 4.656141970588175e-21 1.2858031963314026e-13 1.285803107498206e-13 8.883319668779704e-21
1.0423010764483396 4.674154486531915e-21 1.2931999572931718e-13 1.293199864431583e-13 9.286158906254618e-21
1.0462171883269815 4.7102211337763426e-21 1.3080748044125418e-13 1.3080747029632078e-13 1.0144933389539865e-20
1.0471985131304309 4.719246377319691e-21 1.3118104948904917e-13 1.311810391178287e-13 1.0371220464229496e-20
1.048180758391296 4.728275023911608e-21 1.3155529893267322e-13 1.315552883303389e-13 1.0602334303097426e-20
1.0501480137395462 4.746342468111188e-21 1.3230584153458133e-13 1.3230583045514566e-13 1.1079435662299832e-20
1.0521189612883777 4.764423351579709e-21 1.3305911334132155e-13 1.3305910176427835e-13 1.15770431851318e-20
1.0531058218030118 4.7734568212215294e-21 1.3343643951454438e-13 1.3343642768073017e-13 1.1833814243148839e-20
1.0540936079674168 4.782454371957833e-21 1.338133514543458e-13 1.338133393582593e-13 1.2096086538505032e-20
1.058054026499678 4.818475896148299e-21 1.353277833329624e-13 1.353277701310983e-13 1.3201864131985509e-20
1.0590464539527713 4.827489041887e-21 1.3570809060537922e-13 1.3570807711232334e-13 1.3493055909774377e-20
1.06003981227728 4.836505267794884e-21 1.360890789233403e-13 1.3608906513295587e-13 1.3790384424179502e-20
1.0620293250338977 4.854546909951244e-21 1.3685310138028206e-13 1.3685308697633672e-13 1.440394533655365e-20
1.0660195594769086 4.8906666132922405e-21 1.3838934862297115e-13 1.383893329127006e-13 1.5710270580477405e-20
1.070024785945596 4.926834246681386e-21 1.3993656925963428e-13 1.399365521302388e-13 1.7129395484647978e-20
1.0740450607676866 4.9630490919909334e-21 1.4149480870329108e-13 1.4149479003275582e-13 1.8670535224157514e-20
1.07808044048254 4.999310473223041e-21 1.4306411362429948e-13 1.430640932806877e-13 2.0343611829116178e-20
1.0861967418109137 5.07191484011111e-21 1.4623451252032454e-13 1.46234488391218e-13 2.4129106535590474e-20
1.0902777775684922 5.108130472031027e-21 1.478320416374201e-13 1.478320153720397e-13 2.626538035971725e-20
1.0943741465085532 5.144388194086313e-21 1.4944073354434717e-13 1.4944070496293907e-13 2.858140811954531e-20
1.1026131145906286 5.21702818072522e-21 1.5269181920610819e-13 1.5269178539519327e-13 3.381091493299411e-20
1.1109141095355224 5.289831816987716e-21 1.559882120597634e-13 1.5598817211468387e-13 3.9945079512174356e-20
1.1192775983109025 5.3627398628855145e-21 1.5932868632047946e-13 1.5932863918965889e-13 4.713082056237245e-20
1.1277040513999907 5.435488769619936e-21 1.6270585317423805e-13 1.6270579763697874e-13 5.553725931612488e-20
1.1361939428280308 5.5083886100525496e-21 1.6612939149957e-13 1.661293261407635e-13 6.535880646567798e-20
1.1447477501889525 5.581439687349093e-21 1.695998515807402e-13 1.6959977476209985e-13 7.681864039797301e-20
1.1533659546722406 5.654669159872742e-21 1.7311861193230265e-13 1.731185217595573e-13 9.017274531635021e-20
1.1707974979042381 5.801885017701233e-21 1.803102171267671e-13 1.8031009334764897e-13 1.2377911814602213e-19
1.1884924949847024 5.949836940172265e-21 1.8770288179889348e-13 1.8770271274064478e-13 1.6905824869114272e-19
1.2064549276569216 6.0995243079678965e-21 1.9533339619238763e-13 1.953331664327689e-13 2.29759618689388e-19
1.2246888378427687 6.249977059539973e-21 2.0317656604951451e-13 2.0317625532490646e-13 3.107246079722629e-19
1.2431983285522175 6.401072221324663e-21 2.1123339434431745e-13 2.1123297616197e-13 4.181823473830173e-19
1.2619875648066055 6.553029460868259e-21 2.195162267521186e-13 2.1951566664538568e-13 5.601067329655981e-19
1.3004222497298317 6.858591102591107e-21 2.3674931782503384e-13 2.367483271822198e-13 9.906428139781706e-19
1.3400274889804893 7.167564434948487e-21 2.549498415355029e-13 2.5494812156449795e-13 1.719971005026738e-18
1.3808389325824078 7.48105619323557e-21 2.7420500234061164e-13 2.7420206950874067e-13 2.9328318709178227e-18
1.4228933163050095 7.801657658053109e-21 2.9466507315902637e-13 2.946601592106279e-13 4.913948398436755e-18
1.466228494730424 8.134889478888398e-21 3.166086276898254e-13 3.166005335852106e-13 8.094104614830349e-18
1.5108834753276823 8.47998830048889e-21 3.400914058772944e-13 3.400782931412682e-13 1.3112736026107212e-17
1.5568984535646726 8.836529934469708e-21 3.6518377465926694e-13 3.6516285942082827e-13 2.0915238438653953e-17
1.6043148490894465 9.20643543950526e-21 3.920582059633071e-13 3.920252988385736e-13 3.2907124733506406e-17
1.6531753430134553 9.591688494060169e-21 4.2090435384768216e-13 4.208533434580178e-13 5.101038966437722e-17
1.7035239163302658 9.994579842749172e-21 4.5194148671881015e-13 4.518635629181222e-13 7.792380068798173e-17
1.755405889504358 1.0422226504475158e-20 4.856322184320495e-13 4.855148528449577e-13 1.1736558709182298e-16
1.8088679632656115 1.0874086655866947e-20 5.221185096794138e-13 5.219441591630474e-13 1.7435051636641624e-16
1.8639582606462262 1.1349299940081873e-20 5.615322319427325e-13 5.61276674281066e-13 2.555576616665776e-16
1.9207263702978936 1.1848471278730041e-20 6.040838875866931e-13 6.037141447513729e-13 3.6974283532013963e-16
1.979223391128241 1.2372762949399317e-20 6.500263176942617e-13 6.494980892167509e-13 5.282284775106102e-16
2.039501978296691 1.2922883376791835e-20 6.99605135835158e-13 6.988597041040287e-13 7.454317311291505e-16
2.1016163906111602 1.3503298392792921e-20 7.532909409076984e-13 7.52251415351176e-13 1.0395255565220574e-15
2.1656225393682647 1.4115261287754674e-20 8.114114235443868e-13 8.099784082301606e-13 1.4330153142262634e-15
2.231578038680979 1.4755488964469734e-20 8.740476661019111e-13 8.720942818509161e-13 1.953384250995028e-15
2.299542257339062 1.5422637866021104e-20 9.413898012789442e-13 9.387560420485316e-13 2.633759230412441e-15
2.369576372248914 1.6116686573677297e-20 1.0137150725409407e-12 1.0102014615331278e-12 3.5136110078129334e-15
2.4417434235010123 1.6837942275394237e-20 1.0913359861710636e-12 1.0866967301698594e-12 4.639256001204316e-15
2.5161083711144245 1.7589611603945948e-20 1.1747758919280838e-12 1.168711361929649e-12 6.064529998434309e-15
2.5927381535095444 1.8378753788313422e-20 1.26486493011542e-12 1.2570137849848346e-12 7.851145130585246e-15
2.6717017477616296 1.921108914396462e-20 1.3624149320689899e-12 1.3523464439840119e-12 1.0068488084977724e-14
2.753070231689431 2.0096384737501302e-20 1.4686038422816488e-12 1.4558102281365998e-12 1.2793614145049211e-14
2.836916847834745 2.106572241130313e-20 1.586325832696769e-12 1.5702143152024365e-12 1.6111517494332288e-14
2.9233170693905177 2.2190682917136247e-20 1.721932104613604e-12 1.7018216475297677e-12 2.0110457083836475e-14
2.967498994190263 2.2882666213240963e-20 1.8024641645694055e-12 1.7801137338738227e-12 2.235043069558291e-14
3.0123486681368425 2.362306132372357e-20 1.888908186387683e-12 1.8641006098771295e-12 2.480757651055278e-14
3.0578761833420214 2.4850585046117986e-20 2.0170931151350206e-12 1.989585752019658e-12 2.7507363115362945e-14
3.1040917844459814 2.6290730853137808e-20 2.1662403775900807e-12 2.1358000269801515e-12 3.0440350609929765e-14
3.127460860933648 2.763328328683308e-20 2.2940020712570607e-12 2.261993292977471e-12 3.2008778279590385e-14
3.1510058709225794 2.934108455889705e-20 2.4541144261729906e-12 2.4204722160505287e-12 3.3642210122462674e-14
3.162844764501044 3.088786690421413e-20 2.5931953079882e-12 2.558708342882956e-12 3.4486965105244013e-14
3.1747281389236908 3.263876067704419e-20 2.7504872381745084e-12 2.7151387278722043e-12 3.534851030230469e-14
3.1986289994194426 3.738217995135882e-20 3.17393425963494e-12 3.136806987155037e-12 3.7127272479901803e-14
3.2227097969389145 4.8370708646918673e-20 4.1378341766256974e-12 4.098823520947368e-12 3.901065567833137e-14
3.2348180950136065 5.868189559277816e-20 5.0387571939437465e-12 4.998741823357919e-12 4.0015370585828893e-14
3.240889293275058 6.638493180452329e-20 5.710881419206708e-12 5.670336086057609e-12 4.054533314909914e-14
3.2469718861334385 7.531235164220031e-20 6.49103827652655e-12 6.449944589716609e-12 4.109368680994205e-14
3.2714166318528037 1.221594645100558e-19 1.06079731217855e-11 1.056461454796371e-11 4.335857382178821e-14
3.2744851364798273 1.2508702941366305e-19 1.087238281458386e-11 1.0828757659387501e-11 4.3625155196358594e-14
3.2775565192852394 1.2809288440299302e-19 1.1144090436770318e-11 1.1100197398120844e-11 4.389303864947608e-14
3.283707930232385 1.252053655151593e-19 1.091332013800089e-11 1.0868948703770184e-11 4.437143423070719e-14
3.2898708863219004 1.1602762227367639e-19 1.01323382506637e-11 1.0087532062565918e-11 4.4806188097777793e-14
3.29141343181113 1.138586155246919e-19 9.94758752014839e-12 9.90267217876613e-12 4.491534138225929e-14
3.292184975758714 1.1279214369054891e-19 9.856722105250094e-12 9.811752117433485e-12 4.496998781660731e-14
3.295272960557952 1.0614187622968485e-19 9.284266283447411e-12 9.23908384709366e-12 4.518243635375207e-14
3.3076538914384823 8.292912158043365e-20 7.28109265189066e-12 7.23505722714735e-12 4.603542474331017e-14
3.310756385682612 7.815557800548443e-20 6.8684167350560315e-12 6.82216637086341e-12 4.6250364192621635e-14
3.313861789986515 7.37320239677199e-20 6.485746652022242e-12 6.439280670571851e-12 4.646598145039407e-14
3.3200813396944477 6.755403807535716e-20 5.953460425683562e-12 5.906530388095236e-12 4.693003758832574e-14
3.345076488085796 5.676419313875132e-20 5.040225356138392e-12 4.9912265421544374e-12 4.899881398395434e-14
3.3482140837626964 5.720252311485841e-20 5.083909806991561e-12 5.034630713321248e-12 4.927909367031275e-14
3.3513546224236106 5.764482957810352e-20 5.128025517516595e-12 5.07846491475662e-12 4.9560602759975007e-14
3.3576445397418455 6.07490036511577e-20 5.414312390467235e-12 5.3641631099499704e-12 5.014928051726404e-14
3.3702598118196083 7.199411943559836e-20 6.440652072606851e-12 6.389268074012609e-12 5.13839985942408e-14
3.382922481734668 7.467943844897474e-20 6.705984154311848e-12 6.653400980402397e-12 5.2583173909449615e-14
3.389271646505754 7.606368491736233e-20 6.843104507578317e-12 6.789913700812028e-12 5.319080676628942e-14
3.395632727569191 7.758637358447273e-20 6.993194334057217e-12 6.939377324977011e-12 5.381700908020823e-14
3.421196662673239 8.497215729105448e-20 7.716566746992104e-12 7.660158585029857e-12 5.6408161962247584e-14
3.4276182099114902 8.36392111603378e-20 7.609774764379235e-12 7.552789381869952e-12 5.698538250928391e-14
3.4340518103208963 7.758556907788299e-20 7.072243841978957e-12 7.014713014446796e-12 5.75308275321625e-14
3.4469541582030403 6.889997221897571e-20 6.3041129756173065e-12 6.245536260701085e-12 5.857671491621983e-14
3.472904465399547 6.649558646910732e-20 6.129924004678185e-12 6.068936484773843e-12 6.098751990433937e-14
3.4990501388274233 6.285677690012132e-20 5.838102379327979e-12 5.774650168061781e-12 6.345221126619489e-14
3.5253949054701885 4.9937605866950484e-20 4.673098368352841e-12 4.607255436815764e-12 6.584293153707656e-14
3.5519380250092896 3.764123492651106e-20 3.548940153374457e-12 3.480697336561375e-12 6.82428168130821e-14
3.578680990867387 3.2857564268485977e-20 3.1212444672511484e-12 3.0503717217490993e-12 7.087274550204962e-14
3.605625307711299 3.1030597753031796e-20 2.969888659705492e-12 2.896247958874298e-12 7.36407008311933e-14
3.660119384959845 2.990796350345057e-20 2.9057050381149984e-12 2.826257603193276e-12 7.944743492172265e-14
3.715437065384467 2.916607811959572e-20 2.876453628105541e-12 2.790897258806056e-12 8.555636929948564e-14
3.8285932144167436 2.921217991176633e-20 2.9687431510567575e-12 2.8701012687985385e-12 9.864188225821894e-14
3.94519561050918 2.9632716263960374e-20 3.1031976444312273e-12 2.990353138303831e-12 1.128445061273966e-13
4.06534921144712 3.017668550913737e-20 3.2564081056118243e-12 3.128277015571859e-12 1.2813109003996576e-13
4.189162171576248 3.07696570076665e-20 3.4215214057090408e-12 3.2770085102667238e-12 1.44512895442316e-13
4.316745939156006 3.137988183059362e-20 3.595648468494061e-12 3.4337398148087852e-12 1.6190865368527592e-13
4.448215356677963 3.1992639757314697e-20 3.777507314488891e-12 3.5974537828778904e-12 1.8005353161100145e-13
4.58368876423945 3.2605060751263075e-20 3.967067296751395e-12 3.7681171215805855e-12 1.9895017517080914e-13
4.723288106065518 3.322205678936796e-20 4.1652434137923006e-12 3.946545310487897e-12 2.1869810330440339e-13
4.867139040275056 3.385043652227086e-20 4.373281767903603e-12 4.134546483708996e-12 2.3873528419460794e-13
4.940699165968905 3.418932080931064e-20 4.48382152355642e-12 4.2349022708713555e-12 2.489192526850642e-13
5.015371051989984 3.4515729793497736e-20 4.595042816011229e-12 4.335864673127835e-12 2.591781428833943e-13
5.091171501069577 3.489447179504709e-20 4.7156741573398125e-12 4.445934486960707e-12 2.6973967037910554e-13
5.129500256944802 3.5078582181212486e-20 4.776244169426204e-12 4.501208618289277e-12 2.750355511369258e-13
5.168117569889187 3.5265015327394414e-20 4.837777550768105e-12 4.557381583540163e-12 2.8039596722794107e-13
5.20702561229733 3.5498376978606004e-20 4.906453012078742e-12 4.620184815552115e-12 2.86268196526627e-13
5.246226572918644 3.5729813230567175e-20 4.975620196133836e-12 4.683455133691052e-12 2.9216506244278396e-13
5.265937586045735 3.584483118159087e-20 5.010391705677221e-12 4.7152698531323834e-12 2.951218525448382e-13
5.285722656980489 3.5959394946047416e-20 5.0452905382385775e-12 4.747206799708241e-12 2.98083738530337e-13
5.305582063971359 3.607351457428475e-20 5.080318335709301e-12 4.779267975155783e-12 3.010503605535184e-13
5.3255160863122235 3.619640070686753e-20 5.116777369458677e-12 4.812730707078454e-12 3.040466623802232e-13
5.365609099470188 3.6512180306921016e-20 5.200274039434097e-12 4.890026779602627e-12 3.1024725983147036e-13
5.406003951863644 3.6830211799205326e-20 5.285061048178259e-12 4.968589323271072e-12 3.1647172490718765e-13
5.446702915881641 3.715083962694526e-20 5.371205323621182e-12 5.048488150921663e-12 3.2271717269952004e-13
5.487708281020852 3.749190638267714e-20 5.461324395079617e-12 5.132315086751205e-12 3.2900930832841123e-13
5.529022354014368 3.799183439954983e-20 5.575810975626175e-12 5.2402431202882396e-12 3.355678553379342e-13
5.570647458961463 3.850709399955396e-20 5.693978893534755e-12 5.351828786894499e-12 3.421501066402572e-13
5.612585937458331 3.9039165363955847e-20 5.816114676794745e-12 5.467361553480741e-12 3.487531233140038e-13
5.654840148729818 3.961590556307974e-20 5.94647166159421e-12 5.5910626570035885e-12 3.5540900459061983e-13
5.67608639626678 4.0028183659063777e-20 6.030930366253524e-12 5.672035107485518e-12 3.588952587680043e-13
5.686739436050992 4.023868355605466e-20 6.074024320748302e-12 5.713383431725859e-12 3.6064088902244184e-13
5.6974124697621304 4.0452192848168624e-20 6.1177139116989576e-12 5.755325785750963e-12 3.623881259479953e-13
5.718818669136295 4.088855788561299e-20 6.206940079804128e-12 5.841052847258057e-12 3.658872325460712e-13
5.740305295436557 4.1370666533097196e-20 6.3037203986447065e-12 5.9343002929308386e-12 3.694201057138667e-13
5.7835210386641895 4.2649460647295285e-20 6.547496820065247e-12 6.17077733986077e-12 3.7671948020447585e-13
5.827062130521658 4.409815847297856e-20 6.820866282365457e-12 6.436750200059918e-12 3.841160823055378e-13
5.8489554468988025 4.514688229338489e-20 7.009313922044895e-12 6.621190613741014e-12 3.881233083038809e-13
5.870931020387893 4.625698727148701e-20 7.2086469226856935e-12 6.81650393113894e-12 3.921429915467564e-13
5.892989160043636 4.7433348557444383e-20 7.419742953654202e-12 7.023568192438375e-12 3.961747612158269e-13
5.915130176081913 4.876971405446733e-20 7.657446108640255e-12 7.257087900214055e-12 4.0035820842620056e-13
5.95966208400165 5.2564825700992765e-20 8.315460356872806e-12 7.905492481548663e-12 4.099678753241422e-13
6.004529249263818 5.803068818130379e-20 9.249241488896169e-12 8.828416623644068e-12 4.208248652521024e-13
6.027089341400364 6.184472077330687e-20 9.894177454676854e-12 9.467040890194128e-12 4.271365644827265e-13
6.049734195844842 6.631488558186854e-20 1.0649194308566816e-11 1.0215363709118229e-11 4.338305994485885e-13
6.095279466722835 7.924011023694031e-20 1.2820593395574694e-11 1.2370177454074783e-11 4.504159414999108e-13
6.141167624020661 9.898065832128859e-20 1.6135065126598364e-11 1.5662961018723147e-11 4.721041078752222e-13
6.164241091010745 1.1156262415584193e-19 1.8254408723396083e-11 1.7768614256454148e-11 4.857944669419399e-13
6.187401249150058 1.2571272573085248e-19 2.064699994735272e-11 2.0147162613724574e-11 4.998373336281478e-13
6.1990139391386085 1.325818033637086e-19 2.1816042345399554e-11 2.1309062410670656e-11 5.0697993472889e-13
6.204828454712694 1.3618487058732326e-19 2.2429938073123422e-11 2.1919352086703002e-11 5.105859864204284e-13
6.210648424152782 1.3878530522009666e-19 2.2879675628975468e-11 2.2366034755158466e-11 5.136408738170015e-13
6.233982942956859 1.4748287769484608e-19 2.4404878266350635e-11 2.3880660613674e-11 5.242176526766354e-13
6.239830258556775 1.4851533216383516e-19 2.459877611068716e-11 2.4073146561800823e-11 5.256295488863418e-13
6.245683058788269 1.4847811813875635e-19 2.4615679543772564e-11 2.408863641328776e-11 5.27043130484806e-13
6.257405133728602 1.4794764277690806e-19 2.4573768193177627e-11 2.404428343121051e-11 5.294847619671175e-13
6.269149208991335 1.4587048262096074e-19 2.4274229815360453e-11 2.374400563189036e-11 5.302241834700932e-13
6.280915325867298 1.4109426627964795e-19 2.3523489026528016e-11 2.299462823025686e-11 5.288607962711551e-13
6.304513850009849 1.2949713486255007e-19 2.167111196270611e-11 2.1146877464014797e-11 5.242344986913076e-13
6.32820103803542 1.153851892127478e-19 1.9382052573375416e-11 1.8864465105810533e-11 5.175874675648809e-13
6.3519772230701035 1.0251489140052132e-19 1.7284838302975994e-11 1.6773251824408556e-11 5.115864785674398e-13
6.375842739491607 9.166096747108533e-20 1.5512845477580618e-11 1.500659570653426e-11 5.062497710463592e-13
6.399797922933955 8.303219331166905e-20 1.4105295998342697e-11 1.3601991826516593e-11 5.033041718261026e-13
6.42384311029221 7.582622003718743e-20 1.292956058378924e-11 1.2428724081662939e-11 5.008365021263022e-13
6.447978639727206 7.057703948475664e-20 1.2079708661381038e-11 1.1579479532950221e-11 5.002291284308179e-13
6.472204850670314 6.617998042296849e-20 1.1369682104285155e-11 1.0869692555925475e-11 4.999895483596821e-13
6.496522083828205 6.329097395795884e-20 1.0914205608957444e-11 1.0412952208778967e-11 5.012534001784779e-13
