Dust emission spectrum from A.P. Jones, M. Kohler, N. Ysard, M. Bocchio, and L. Verstraete (2017), A&A, 602A, 46J 
inside the DustPedia framework.

lambda    nu*dP/dnu     j_nu    j_nu(carb.) j_nu(sil)
 (um)   (erg s-1 H-1) (Jy cm2 sr-1 H-1)
0.9927057738263894 3.105891312756189e-24 8.1842000202173e-17 8.184200008851244e-17 1.1366055740899458e-25
1.0001793341362166 3.1572933391212832e-24 8.382281533379941e-17 8.382281519692007e-17 1.3687936256151395e-25
1.0077091589558085 3.208655297096464e-24 8.582774508121152e-17 8.582774491658456e-17 1.6462698590909387e-25
1.0114953028030835 3.234315407163849e-24 8.683917182209588e-17 8.683917164164043e-17 1.804554899237789e-25
1.0152956718711033 3.259958510202311e-24 8.785652886474306e-17 8.785652866700181e-17 1.977412658609485e-25
1.0229392996569957 3.311159319585077e-24 8.990821482627534e-17 8.99082145890663e-17 2.372090592947566e-25
1.0267826658714554 3.336655386121774e-24 9.094091423052226e-17 9.094091397083505e-17 2.5968718283710283e-25
1.0306404723013447 3.362123981868547e-24 9.197935299571553e-17 9.197935271151317e-17 2.8420234184926523e-25
1.03451277320114 3.387562854142548e-24 9.302349498848595e-17 9.302349467755597e-17 3.109300105574324e-25
1.0383996230291617 3.412969764923163e-24 9.407330365162595e-17 9.407330331156604e-17 3.400599319198379e-25
1.0403485208654093 3.4256605395007574e-24 9.4600321447673e-17 9.460032109208383e-17 3.555891993400808e-25
1.0423010764483396 3.438342491337058e-24 9.512874201673054e-17 9.512874164493334e-17 3.7179720363923933e-25
1.0462171883269815 3.4636788261343146e-24 9.618977271691382e-17 9.618977231055035e-17 4.063634406960427e-25
1.0471985131304309 3.4700069665069005e-24 9.645589977847665e-17 9.645589936300198e-17 4.154746688046148e-25
1.048180758391296 3.476332661298274e-24 9.672237340969433e-17 9.672237298491279e-17 4.247814967305384e-25
1.0501480137395462 3.488976578155542e-24 9.725635799959714e-17 9.725635755559912e-17 4.4399801931732995e-25
1.0521189612883777 3.501610305400514e-24 9.779172170939514e-17 9.77917212453492e-17 4.640459239649416e-25
1.0531058218030118 3.5079137169868746e-24 9.805965237560838e-17 9.80596519012154e-17 4.74392956842089e-25
1.0540936079674168 3.514183202919443e-24 9.832705038745828e-17 9.832704990249523e-17 4.849630571601031e-25
1.058054026499678 3.5392326983910965e-24 9.940000242725408e-17 9.940000189771055e-17 5.295435495579171e-25
1.0590464539527713 3.545487794095529e-24 9.966907736642039e-17 9.966907682513318e-17 5.412872256047519e-25
1.06003981227728 3.551739912343502e-24 9.993848584526994e-17 9.993848529198989e-17 5.532800518382688e-25
1.0620293250338977 3.564235084661929e-24 1.004783009480273e-16 1.0047830036999393e-16 5.7803336083538405e-25
1.0660195594769086 3.5891882540030034e-24 1.015619063476356e-16 1.0156190571687805e-16 6.307575098914298e-25
1.070024785945596 3.614090117401303e-24 1.0265077871555061e-16 1.0265077802748414e-16 6.880664499727841e-25
1.0740450607676866 3.638938604966133e-24 1.0374487784608127e-16 1.0374487709574336e-16 7.503379252070892e-25
1.07808044048254 3.6637316663263204e-24 1.0484416325164451e-16 1.0484416243366555e-16 8.17978952022938e-25
1.0861967418109137 3.713100288469519e-24 1.0705688635172777e-16 1.0705688538057071e-16 9.711570353467541e-25
1.0902777775684922 3.7375737935601864e-24 1.0816739464621168e-16 1.081673935885371e-16 1.057674541467626e-24
1.0943741465085532 3.761982159601751e-24 1.0928284419863523e-16 1.0928284304710836e-16 1.1515268926960117e-24
1.1026131145906286 3.81059575539813e-24 1.1152839854315912e-16 1.1152839717952662e-16 1.3636325041254101e-24
1.1109141095355224 3.8589258600594006e-24 1.137932104852113e-16 1.137932088724835e-16 1.6127277711619858e-24
1.1192775983109025 3.9069136177109336e-24 1.1607563114995794e-16 1.1607562924507967e-16 1.9048783010730625e-24
1.1277040513999907 3.954342399841926e-24 1.1836923617714187e-16 1.1836923393006456e-16 2.2470772738511962e-24
1.1361939428280308 4.00143794573941e-24 1.206807467860616e-16 1.2068074413868595e-16 2.6473756406562607e-24
1.1447477501889525 4.048186657850624e-24 1.2300981374013306e-16 1.230098106251027e-16 3.115030375076069e-24
1.1533659546722406 4.094599655917097e-24 1.2535683146258634e-16 1.2535682780191036e-16 3.660675966788405e-24
1.1707974979042381 4.1865674025865604e-24 1.3010958939605456e-16 1.301095843595217e-16 5.0365329055973374e-24
1.1884924949847024 4.277023290093023e-24 1.3492968045073882e-16 1.3492967355563144e-16 6.895107320170912e-24
1.2064549276569216 4.366662117014915e-24 1.3983958392082102e-16 1.3983957452748883e-16 9.393332190996349e-24
1.2246888378427687 4.4545613154445826e-24 1.4481052693586285e-16 1.448105142013425e-16 1.2734520382245902e-23
1.2431983285522175 4.540535229461272e-24 1.4983625172418002e-16 1.4983623454301948e-16 1.718116056645785e-23
1.2619875648066055 4.62457592133131e-24 1.549160525893385e-16 1.549160295189296e-16 2.3070408899060244e-23
1.3004222497298317 4.7855995318970094e-24 1.651924436977132e-16 1.6519240268219486e-16 4.10155183443627e-23
1.3400274889804893 4.937192047270966e-24 1.7561562808484543e-16 1.7561555649304636e-16 7.159179902466203e-23
1.3808389325824078 5.07900162127373e-24 1.8616190220688523e-16 1.8616177946248773e-16 1.2274439742586831e-22
1.4228933163050095 5.2118364481227374e-24 1.9684870005718889e-16 1.9684849324473812e-16 2.0681245070127212e-22
1.466228494730424 5.338742294177409e-24 2.077830160736384e-16 2.0778267346019073e-16 3.4261344762355904e-22
1.5108834753276823 5.457797793859904e-24 2.1888592990167207e-16 2.1888537159142076e-16 5.5831025119637145e-22
1.5568984535646726 5.5674890236900065e-24 2.3008541499012824e-16 2.3008451912368943e-16 8.958664388055826e-22
1.6043148490894465 5.668208322953938e-24 2.413819768493405e-16 2.413805587493436e-16 1.4180999967829697e-21
1.6531753430134553 5.76043607965015e-24 2.5278058472056257e-16 2.527783728257177e-16 2.211894844814389e-21
1.7035239163302658 5.845180427642041e-24 2.643112140951788e-16 2.6430781377419185e-16 3.4003209869422026e-21
1.755405889504358 5.927173468659409e-24 2.76181524109143e-16 2.76176369560919e-16 5.154548223972786e-21
1.8088679632656115 6.005557394145003e-24 2.8835641793726207e-16 2.8834871013359993e-16 7.707803662161804e-21
1.8639582606462262 6.079782235764128e-24 3.008109492742667e-16 3.007995752881699e-16 1.1373986096863491e-20
1.9207263702978936 6.150589734604449e-24 3.135824082639714e-16 3.1356583909212034e-16 1.6569171850999396e-20
1.979223391128241 6.2194272483913036e-24 3.2674928057483117e-16 3.2672544295917653e-16 2.3837615654546335e-20
2.039501978296691 6.287938960541288e-24 3.4040966418631877e-16 3.403757833545822e-16 3.388083173650034e-20
2.1016163906111602 6.3605354717251495e-24 3.548269178980667e-16 3.5477932366661015e-16 4.759423145652024e-20
2.1656225393682647 6.439778095534394e-24 3.7018864938338776e-16 3.701225475351891e-16 6.610184819868871e-20
2.231578038680979 6.525801562610729e-24 3.865586317728028e-16 3.8646783557450545e-16 9.079619829745117e-20
2.299542257339062 6.620058811960437e-24 4.040849499019049e-16 4.039615684101458e-16 1.2338149175897125e-19
2.369576372248914 6.725697870188025e-24 4.230361664724287e-16 4.2287024527131265e-16 1.659212011161937e-19
2.4417434235010123 6.846406954069173e-24 4.437436690744665e-16 4.4352278985771025e-16 2.208792167562631e-19
2.5161083711144245 6.988560507801979e-24 4.667523415926176e-16 4.664611693058595e-16 2.9117228675813103e-19
2.5927381535095444 7.162588559466993e-24 4.929445805774144e-16 4.9256436944116015e-16 3.8021113625406413e-19
2.6717017477616296 7.380603118532562e-24 5.23418730765858e-16 5.229268138521853e-16 4.919169136726238e-19
2.753070231689431 7.660801725403277e-24 5.598361593809734e-16 5.59205408382674e-16 6.307509982993906e-19
2.836916847834745 8.045004189930483e-24 6.058181970437828e-16 6.050164366923991e-16 8.017603513836705e-19
2.9233170693905177 8.625413852868062e-24 6.693068926402003e-16 6.682964854073232e-16 1.0104072328772201e-18
2.967498994190263 9.080345355502835e-24 7.152574334077119e-16 7.141286529046842e-16 1.128780503027828e-18
3.0123486681368425 9.602466514285797e-24 7.678165568715976e-16 7.665572151539769e-16 1.2593417176209915e-18
3.0578761833420214 1.0701335019848472e-23 8.686149300401127e-16 8.672114018913793e-16 1.4035281487335398e-18
3.1040917844459814 1.2097338569129504e-23 9.967673936572393e-16 9.952061559020257e-16 1.5612377552133842e-18
3.127460860933648 1.354312955842326e-23 1.1242951818587981e-15 1.1226491835054495e-15 1.645998353348144e-18
3.1510058709225794 1.5457194071036242e-23 1.2928534690577102e-15 1.2911188853875661e-15 1.7345836701440428e-18
3.162844764501044 1.7229938233207542e-23 1.4465419422402515e-15 1.4447614250755557e-15 1.780517164695399e-18
3.1747281389236908 1.928497841260927e-23 1.6251562838799653e-15 1.6233288358031707e-15 1.8274480767943928e-18
3.1986289994194426 2.4996663793112488e-23 2.1223419204757243e-15 2.1204173190451406e-15 1.9246014305831236e-18
3.2227097969389145 3.842492213295601e-23 3.2870297021388576e-15 3.2850019070590417e-15 2.027795079817868e-18
3.2348180950136065 5.114202010580124e-23 4.391341130306557e-15 4.389258201317237e-15 2.0829289893192012e-18
3.240889293275058 6.064821395470105e-23 5.2173700984110304e-15 5.215258086091201e-15 2.1120123198288574e-18
3.2469718861334385 7.164792608973028e-23 6.175207924613376e-15 6.173065817896847e-15 2.142106716529889e-18
3.2714166318528037 1.3022562084315135e-22 1.1308414711970711e-14 1.1306148037182112e-14 2.2666747885990496e-18
3.2744851364798273 1.3388998844081163e-22 1.1637523220370822e-14 1.1635241808967176e-14 2.281411403647706e-18
3.2775565192852394 1.3765888559145424e-22 1.1976333249158526e-14 1.1974037022126487e-14 2.2962270320316786e-18
3.283707930232385 1.3404631501770572e-22 1.1683926987381533e-14 1.1681604151341465e-14 2.3228360400643944e-18
3.2898708863219004 1.2256915882169686e-22 1.0703590679049104e-14 1.0701243522131795e-14 2.347156917309533e-18
3.29141343181113 1.1986189595356346e-22 1.047208149189569e-14 1.0469728225049819e-14 2.3532668458709527e-18
3.292184975758714 1.1853154364943718e-22 1.0358278938861242e-14 1.0355922612586304e-14 2.3563262749360383e-18
3.295272960557952 1.1014288696125867e-22 9.634236063089141e-15 9.631867816407118e-15 2.368246682025216e-18
3.3076538914384823 8.105721371320079e-23 7.116741042258498e-15 7.114324862526286e-15 2.4161797322128565e-18
3.310756385682612 7.513074985284609e-23 6.6025907910294656e-15 6.600162517950429e-15 2.4282730790371186e-18
3.313861789986515 6.966001270790288e-23 6.127557198184417e-15 6.1251167875755025e-15 2.4404106089129122e-18
3.3200813396944477 6.199231691865454e-23 5.463312275425248e-15 5.460845806308208e-15 2.466469117041164e-18
3.345076488085796 4.835246397384369e-23 4.293328266941627e-15 4.29074578964905e-15 2.5824772925801913e-18
3.3482140837626964 4.887124268687388e-23 4.343462079055143e-15 4.3408638909053924e-15 2.5981881497497332e-18
3.3513546224236106 4.939564878079871e-23 4.394186768459809e-15 4.391572792608636e-15 2.613975851175613e-18
3.3576445397418455 5.320013808753e-23 4.74151260942355e-15 4.738865643401811e-15 2.6469660217397527e-18
3.3702598118196083 6.71995015976468e-23 6.0117216883275576e-15 6.009005510509875e-15 2.7161778176839193e-18
3.382922481734668 7.041339436467838e-23 6.322906501010614e-15 6.320122841145142e-15 2.7836598654727387e-18
3.389271646505754 7.207758142998786e-23 6.484492868242665e-15 6.481674962232111e-15 2.8179060105573775e-18
3.395632727569191 7.387486069488349e-23 6.658659676602235e-15 6.6558064759209085e-15 2.8532006813288142e-18
3.421196662673239 8.251348617603993e-23 7.493287729808571e-15 7.4902881870143e-15 2.9995427942675376e-18
3.4276182099114902 8.080507207435533e-23 7.351915325055908e-15 7.348882894893213e-15 3.032430162693538e-18
3.4340518103208963 7.326674002224509e-23 6.678564804030108e-15 6.67550115714586e-15 3.0636468842518694e-18
3.4469541582030403 6.252371812615055e-23 5.720707425979921e-15 5.717583635683163e-15 3.1237902967544863e-18
3.472904465399547 5.95352683151784e-23 5.488284106490533e-15 5.48502208706677e-15 3.2620194237644314e-18
3.4990501388274233 5.495701699401359e-23 5.104377085438812e-15 5.100973083156725e-15 3.4040022820873254e-18
3.5253949054701885 3.8608058607338553e-23 3.612893580920125e-15 3.609350803928407e-15 3.542776991719257e-18
3.5519380250092896 2.321424429655541e-23 2.1887157495001392e-15 2.1850328050384556e-15 3.682944461684082e-18
3.578680990867387 1.7129599784940265e-23 1.6271951298060984e-15 1.6233584330080315e-15 3.836696798067253e-18
3.605625307711299 1.469096646165797e-23 1.406048798732176e-15 1.402049738393429e-15 3.9990603387466534e-18
3.660119384959845 1.295837021921288e-23 1.2589690912048249e-15 1.2546270036673784e-15 4.342087537446416e-18
3.715437065384467 1.1746684275850003e-23 1.1584962662764553e-15 1.153789745838456e-15 4.7065204379994174e-18
3.8285932144167436 1.1235916469955256e-23 1.1418713073374524e-15 1.1363715859021929e-15 5.499721435259579e-18
3.94519561050918 1.1249022413043596e-23 1.1780202511089532e-15 1.1716403369915409e-15 6.379914117412621e-18
4.06534921144712 1.1476989679476721e-23 1.238497919493333e-15 1.2311478164411803e-15 7.350103052152634e-18
4.189162171576248 1.1829158502425954e-23 1.3153776467996104e-15 1.3069614082022603e-15 8.416238597349673e-18
4.316745939156006 1.2271288607032756e-23 1.4060996253755258e-15 1.396520341676868e-15 9.579283698657767e-18
4.448215356677963 1.2791567247469232e-23 1.5103548568555922e-15 1.499525886666235e-15 1.0828970189357225e-17
4.58368876423945 1.3390952432854443e-23 1.62928110681936e-15 1.6171094032692485e-15 1.2171703550111986e-17
4.723288106065518 1.407993064811321e-23 1.765283190337404e-15 1.7516624538078924e-15 1.3620736529511787e-17
4.867139040275056 1.4879401694929292e-23 1.9223331464850157e-15 1.9071853271985678e-15 1.5147819286448504e-17
4.940699165968905 1.5348029212787202e-23 2.0128455932861665e-15 1.9968990891749603e-15 1.5946504111207175e-17
5.015371051989984 1.5829490122927835e-23 2.1073633762245667e-15 2.090596036862618e-15 1.676733936194911e-17
5.091171501069577 1.640407799521883e-23 2.216863666296277e-15 2.199237009312334e-15 1.7626656983942933e-17
5.129500256944802 1.6697313279570922e-23 2.273479720036872e-15 2.255415184240464e-15 1.80645357964069e-17
5.168117569889187 1.7001403454592697e-23 2.3323117032728907e-15 2.3138003256547078e-15 1.8511377618183168e-17
5.20702561229733 1.7369319351307883e-23 2.4007224133188736e-15 2.381727467916667e-15 1.8994945402206755e-17
5.246226572918644 1.7745077335405205e-23 2.4711230535194533e-15 2.451637482604459e-15 1.948557091499428e-17
5.265937586045735 1.7935973903450547e-23 2.5070910342366198e-15 2.487357518151745e-15 1.9733516084875892e-17
5.285722656980489 1.812892457082319e-23 2.543582608740997e-15 2.5235994005291284e-15 1.9983208211868893e-17
5.305582063971359 1.8323962044432956e-23 2.580606892779308e-15 2.5603722517135903e-15 2.0234641065717458e-17
5.3255160863122235 1.8532629925742315e-23 2.6198002991661922e-15 2.5993108762898533e-15 2.0489422876338775e-17
5.365609099470188 1.9047495012618774e-23 2.7128534367912326e-15 2.6918366631897817e-15 2.1016773601450604e-17
5.406003951863644 1.9579623186672373e-23 2.8096364041035143e-15 2.788084575551922e-15 2.1551828551592602e-17
5.446702915881641 2.012984625740951e-23 2.9103389981811897e-15 2.888244448709283e-15 2.2094549471906354e-17
5.487708281020852 2.0721594393638328e-23 3.0184474433450034e-15 2.995800639364832e-15 2.2646803980169876e-17
5.529022354014368 2.153824927989097e-23 3.161026800327695e-15 3.1378033002383125e-15 2.3223500089382313e-17
5.570647458961463 2.2399046394928856e-23 3.312109124866914e-15 3.288300419018693e-15 2.380870584822107e-17
5.612585937458331 2.330715265912432e-23 3.4723353173986144e-15 3.4479329229978263e-15 2.4402394400788963e-17
5.654840148729818 2.4301259927044836e-23 3.6476953244729294e-15 3.622688370081135e-15 2.5006954391793778e-17
5.67608639626678 2.4977032093706403e-23 3.763217002196246e-15 3.737894049943448e-15 2.5322952252797415e-17
5.686739436050992 2.5324737842317735e-23 3.82276605437474e-15 3.79728420523561e-15 2.5481849139129606e-17
5.6974124697621304 2.567919777947734e-23 3.883546834813671e-15 3.857905490342397e-15 2.5641344471273427e-17
5.718818669136295 2.640902742885842e-23 4.008927174086135e-15 3.982965044244869e-15 2.596212984126635e-17
5.740305295436557 2.721235546928558e-23 4.146393922120455e-15 4.1201065566078686e-15 2.6287365512587054e-17
5.7835210386641895 2.929388679855964e-23 4.497164272418158e-15 4.470203081668197e-15 2.6961190749961314e-17
5.827062130521658 3.168190873859175e-23 4.9003874664846966e-15 4.872736910735652e-15 2.7650555749043803e-17
5.8489554468988025 3.335882254910705e-23 5.179149643091563e-15 5.151128496492094e-15 2.8021146599467976e-17
5.870931020387893 3.5153548865742513e-23 5.478297156821507e-15 5.4499021639259e-15 2.839499289560857e-17
5.892989160043636 3.707549111410697e-23 5.79951916348504e-15 5.770747061093468e-15 2.8772102391564456e-17
5.915130176081913 3.925885649621563e-23 6.164124267180839e-15 6.1349616387267236e-15 2.916262845411796e-17
5.95966208400165 4.5365923664601186e-23 7.176634465255813e-15 7.146592391763907e-15 3.0042073491906485e-17
6.004529249263818 5.415480457968231e-23 8.631482428341041e-15 8.600455894368714e-15 3.1026533972327575e-17
6.027089341400364 6.026315332906801e-23 9.641151670839974e-15 9.609561580428689e-15 3.159009041128502e-17
6.049734195844842 6.746951690605051e-23 1.0834611100258203e-14 1.080242495345654e-14 3.2186146801663314e-17
6.095279466722835 8.82824676955619e-23 1.428359474637779e-14 1.424996197166916e-14 3.3632774708627245e-17
6.141167624020661 1.202729599380731e-22 1.9605972262483754e-14 1.9570484721248836e-14 3.548754123492148e-17
6.164241091010745 1.4070971687834544e-22 2.302359506766908e-14 2.298695456645966e-14 3.664050120942088e-17
6.187401249150058 1.6394588062693312e-22 2.6926395629350653e-14 2.6888567987658964e-14 3.782764169168579e-17
6.1990139391386085 1.7529122184317692e-22 2.884378264200287e-14 2.8805350253698623e-14 3.8432388304241626e-17
6.204828454712694 1.8126360622193823e-22 2.98545017881565e-14 2.9815763608430025e-14 3.8738179726479315e-17
6.210648424152782 1.8562422971694086e-22 3.0601382171309653e-14 3.05623807737315e-14 3.900139757816396e-17
6.233982942956859 2.0042713498912081e-22 3.316588275964903e-14 3.312595215199022e-14 3.993060765879863e-17
6.239830258556775 2.0231331926369348e-22 3.3509402512647975e-14 3.34693343719864e-14 4.006814066156969e-17
6.245683058788269 2.0246843791150723e-22 3.356655006026074e-14 3.352634403782375e-14 4.02060224369863e-17
6.257405133728602 2.0204245980575894e-22 3.355879471451144e-14 3.35183422771772e-14 4.0452437334237424e-17
6.269149208991335 1.99108076810925e-22 3.313346969010667e-14 3.3092902315624765e-14 4.056737448191836e-17
6.280915325867298 1.917774708108213e-22 3.197348375030586e-14 3.193296442724069e-14 4.051932306515883e-17
6.304513850009849 1.7370981397855062e-22 2.9070024072313994e-14 2.902974875947548e-14 4.027531283850769e-17
6.32820103803542 1.5133978973936505e-22 2.542159683738583e-14 2.5381722906703633e-14 3.987393068219548e-17
6.3519772230701035 1.3083046185831014e-22 2.2059072076557445e-14 2.2019549660998817e-14 3.952241555863668e-17
6.375842739491607 1.1356162636377363e-22 1.9219347237630745e-14 1.9180125583131023e-14 3.922165449972103e-17
6.399797922933955 9.974225200916462e-23 1.6943957903769337e-14 1.6904848438626325e-14 3.9109465143009925e-17
6.42384311029221 8.824012054410743e-23 1.504632545228245e-14 1.500729066402792e-14 3.9034788254532006e-17
6.447978639727206 7.98666890265646e-23 1.3669691194660982e-14 1.3630582950999373e-14 3.9108243661609033e-17
6.472204850670314 7.288453320059006e-23 1.2521520367847155e-14 1.2482308697641546e-14 3.921167020560703e-17
6.496522083828205 6.835104630707762e-23 1.1786789273907318e-14 1.1747353150603413e-14 3.9436123303902044e-17
6.520930681187647 6.452914144887136e-23 1.1169530119251823e-14 1.1129850056016725e-14 3.9680063235094124e-17
