Dust emission spectrum from A.P. Jones, M. Kohler, N. Ysard, M. Bocchio, and L. Verstraete (2017), A&A, 602A, 46J 
inside the DustPedia framework.

lambda    nu*dP/dnu     j_nu    j_nu(carb.) j_nu(sil)
 (um)   (erg s-1 H-1) (Jy cm2 sr-1 H-1)
0.9927057738263894 2.2642277805751367e-23 5.966368807385977e-16 5.96636872221042e-16 8.517555758189569e-24
1.0001793341362166 2.3023435513912216e-23 6.112479824156653e-16 6.112479721628833e-16 1.0252781825323766e-23
1.0077091589558085 2.3405777999027404e-23 6.260769579536296e-16 6.260769456284278e-16 1.232520186996674e-23
1.0114953028030835 2.359737060001475e-23 6.335733724501732e-16 6.335733589433124e-16 1.3506860803569302e-23
1.0152956718711033 2.378923213529579e-23 6.411245275741199e-16 6.411245127772175e-16 1.4796902273702997e-23
1.0229392996569957 2.41735403311395e-23 6.563863733008388e-16 6.563863555598843e-16 1.774095453269261e-23
1.0267826658714554 2.4365546644770728e-23 6.640856879671228e-16 6.640856685502379e-16 1.9416884937270928e-23
1.0306404723013447 2.4557777722792077e-23 6.718397412279982e-16 6.718397199839101e-16 2.1244088024043962e-23
1.03451277320114 2.4750225340315274e-23 6.796486329672787e-16 6.79648609731748e-16 2.32355306609933e-23
1.0383996230291617 2.4942881433531128e-23 6.87512465876153e-16 6.875124404709251e-16 2.540522782065352e-23
1.0403485208654093 2.503928518371546e-23 6.914650181727136e-16 6.914649916111062e-16 2.656160749331691e-23
1.0423010764483396 2.5135738104123876e-23 6.954313456358071e-16 6.954313178674851e-16 2.776832177226775e-23
1.0462171883269815 2.5328787623653182e-23 7.034053811026478e-16 7.03405350761481e-16 3.0341166803535016e-23
1.0471985131304309 2.5377079247032145e-23 7.05407521122717e-16 7.054074901035261e-16 3.1019190858204736e-23
1.048180758391296 2.54253823341525e-23 7.074131171582778e-16 7.074130854465677e-16 3.171171027041847e-23
1.0501480137395462 2.5522022437902024e-23 7.11434684496094e-16 7.114346513546741e-16 3.314141982303612e-23
1.0521189612883777 2.5618707018554442e-23 7.154700977002202e-16 7.15470063067498e-16 3.463272199840397e-23
1.0531058218030118 2.566700012142769e-23 7.174911678254697e-16 7.174911324231642e-16 3.5402305393599477e-23
1.0540936079674168 2.5715089140574464e-23 7.195096896321965e-16 7.195096534437834e-16 3.61884131869906e-23
1.058054026499678 2.590754202135758e-23 7.276180910562332e-16 7.276180515530727e-16 3.950316047287088e-23
1.0590464539527713 2.5955678900536265e-23 7.296537793032976e-16 7.29653738927138e-16 4.037615958962022e-23
1.06003981227728 2.6003825029112038e-23 7.316929065000333e-16 7.316928652324333e-16 4.126760013160444e-23
1.0620293250338977 2.6100144612134494e-23 7.357814854610886e-16 7.357814423537954e-16 4.310729324300496e-23
1.0660195594769086 2.6292890168454007e-23 7.439999966340469e-16 7.439999496093055e-16 4.702474151846614e-23
1.070024785945596 2.648577214362949e-23 7.522737527588648e-16 7.522737014775691e-16 5.1281295814393827e-23
1.0740450607676866 2.667878419281369e-23 7.606028866186877e-16 7.606028307139458e-16 5.590474187031299e-23
1.07808044048254 2.6871920177026555e-23 7.689875358012629e-16 7.689874748762585e-16 6.092500435436218e-23
1.0861967418109137 2.725823799318433e-23 7.859152353214544e-16 7.859151630341445e-16 7.228730981929566e-23
1.0902777775684922 2.74507208539723e-23 7.944386171185842e-16 7.944385384172356e-16 7.870134861067758e-23
1.0943741465085532 2.764329322919094e-23 8.030175526995756e-16 8.0301746704306e-16 8.5656515514916e-23
1.1026131145906286 2.8028686792181627e-23 8.203427368992093e-16 8.203426355332381e-16 1.0136597094053177e-22
1.1109141095355224 2.841438155225783e-23 8.378921539408397e-16 8.378920341401156e-16 1.1980072410133225e-22
1.1192775983109025 2.880003389551944e-23 8.5565805612084635e-16 8.556579147159783e-16 1.414048679654835e-22
1.1277040513999907 2.9184188101382476e-23 8.735991233709982e-16 8.735989566811131e-16 1.666898849438425e-22
1.1361939428280308 2.9568509225454635e-23 8.917668655783779e-16 8.917666693343313e-16 1.9624404663177464e-22
1.1447477501889525 2.995297651966059e-23 9.101630863539066e-16 9.10162855610861e-16 2.307430452921021e-22
1.1533659546722406 3.0337721413764225e-23 9.287942533596348e-16 9.287939823973149e-16 2.7096231989413407e-22
1.1707974979042381 3.110921128596312e-23 9.66807964049751e-16 9.668075918038591e-16 3.7224589195089217e-22
1.1884924949847024 3.188163529012219e-23 1.0057880376540159e-15 1.0057875288214108e-15 5.08832605339233e-22
1.2064549276569216 3.266031005308836e-23 1.0459257085068587e-15 1.045925016396996e-15 6.921098626205329e-22
1.2246888378427687 3.343968120006499e-23 1.0870695254231529e-15 1.0870685886249588e-15 9.367981939248475e-22
1.2431983285522175 3.4218932518452687e-23 1.1292141405047407e-15 1.1292128786447186e-15 1.2618600222540788e-21
1.2619875648066055 3.499898515356468e-23 1.1724112041525873e-15 1.1724095125550895e-15 1.691597497658211e-21
1.3004222497298317 3.655554979918704e-23 1.2618482933626114e-15 1.261845296125993e-15 2.997236618334901e-21
1.3400274889804893 3.8112564416036144e-23 1.3556616541878217e-15 1.355656440764878e-15 5.213422943359841e-21
1.3808389325824078 3.967429043967809e-23 1.454191576947492e-15 1.454182670470596e-15 8.906476896021719e-21
1.4228933163050095 4.125319235511413e-23 1.5581143746823383e-15 1.5580994231902303e-15 1.495149210806369e-20
1.466228494730424 4.2877803012093045e-23 1.6687973948809543e-15 1.6687727188348615e-15 2.4676046092913305e-20
1.5108834753276823 4.454230220334903e-23 1.786376777957929e-15 1.786336721720986e-15 4.005623694274641e-20
1.5568984535646726 4.6243037978458036e-23 1.9110677252177005e-15 1.911003703863296e-15 6.402135440482181e-20
1.6043148490894465 4.7989437639049433e-23 2.0436414233916356e-15 2.043540487027693e-15 1.009363639416369e-19
1.6531753430134553 4.979145982094238e-23 2.1849585957722524e-15 2.184801802584797e-15 1.5679318745555113e-19
1.7035239163302658 5.166131908929921e-23 2.336055514330707e-15 2.3358154844263007e-15 2.4002990440661807e-19
1.755405889504358 5.363776694125392e-23 2.499295878883235e-15 2.498933570244452e-15 3.623086387829526e-19
1.8088679632656115 5.57182335940364e-23 2.6753070861718633e-15 2.674767674760249e-15 5.394114116141175e-19
1.8639582606462262 5.789927427759535e-23 2.864697283939084e-15 2.8639048532572755e-15 7.924306818088151e-19
1.9207263702978936 6.018571555599488e-23 3.0685157751548506e-15 3.0673666572225767e-15 1.1491179322740196e-18
1.979223391128241 6.258581014051778e-23 3.2880629712159836e-15 3.2864174766085674e-15 1.6454946074153187e-18
2.039501978296691 6.510608003378893e-23 3.5246428090138204e-15 3.5223151985938117e-15 2.327610420008711e-18
2.1016163906111602 6.777339498052583e-23 3.7807862189165425e-15 3.777532471055972e-15 3.2537478605702882e-18
2.1656225393682647 7.059776684340037e-23 4.0582907624355e-15 4.053794360788126e-15 4.4964016473740624e-18
2.231578038680979 7.356560323307676e-23 4.35768980384722e-15 4.351545291650249e-15 6.1445121969721595e-18
2.299542257339062 7.667335680422158e-23 4.680101857564873e-15 4.6717960487637215e-15 8.305808801152203e-18
2.369576372248914 7.992545363393465e-23 5.0271894696221795e-15 5.01608015688692e-15 1.1109312735260443e-17
2.4417434235010123 8.332817592664645e-23 5.4008402905403945e-15 5.386133024769341e-15 1.4707265771053395e-17
2.5161083711144245 8.690415821113534e-23 5.8041594250917344e-15 5.784881768472678e-15 1.9277656619057033e-17
2.5927381535095444 9.06986764952835e-23 6.2420758462805214e-15 6.2170500392139004e-15 2.5025807066622277e-17
2.6717017477616296 9.475318048897289e-23 6.7197204172966314e-15 6.687536209859393e-15 3.2184207437238633e-17
2.753070231689431 9.91355459160156e-23 7.244628600649069e-15 7.203615565791608e-15 4.101303485746258e-17
2.836916847834745 1.0404201575447418e-22 7.834743763100642e-15 7.782942193422219e-15 5.1801569678423477e-17
2.9233170693905177 1.0992187456939882e-22 8.52961603422272e-15 8.464761686807209e-15 6.485434741550954e-17
2.967498994190263 1.1367901066512935e-22 8.954478515664972e-15 8.882282810541433e-15 7.219570512353995e-17
3.0123486681368425 1.177463136705799e-22 9.41503612768308e-15 9.334773953408247e-15 8.026217427483375e-17
3.0578761833420214 1.248084715263844e-22 1.0130558623034196e-14 1.0041419933785582e-14 8.913868924861753e-17
3.1040917844459814 1.3324014938758322e-22 1.0978401214170468e-14 1.0879599005625258e-14 9.880220854520826e-17
3.127460860933648 1.4130449420722394e-22 1.173052072837678e-14 1.1626542888521535e-14 1.039778398552478e-16
3.1510058709225794 1.516660585245242e-22 1.2685484118308392e-14 1.2576110287155386e-14 1.0937383115299884e-16
3.162844764501044 1.611116735472029e-22 1.3526153722442135e-14 1.341398702170167e-14 1.1216670074046252e-16
3.1747281389236908 1.7186700510201025e-22 1.448333191550465e-14 1.4368315257412962e-14 1.150166580916853e-16
3.1986289994194426 2.011984060645114e-22 1.708275212475624e-14 1.696184657411343e-14 1.2090555064281003e-16
3.2227097969389145 2.6943965407801817e-22 2.304900300966028e-14 2.2921856190679737e-14 1.2714681898054252e-16
3.2348180950136065 3.3363984994355937e-22 2.8648191697071114e-14 2.851771388350434e-14 1.304778135667742e-16
3.240889293275058 3.816156703801954e-22 3.282916442046978e-14 3.2696929585811724e-14 1.3223483465805897e-16
3.2469718861334385 4.372032257096156e-22 3.768177212397401e-14 3.754771927836735e-14 1.340528456066522e-16
3.2714166318528037 7.300398803740143e-22 6.339454302537125e-14 6.325297624231933e-14 1.4156678305191942e-16
3.2744851364798273 7.483606119441581e-22 6.504641683915788e-14 6.490396424521398e-14 1.4245259394388675e-16
3.2775565192852394 7.671801248396636e-22 6.674472772123935e-14 6.660138486054532e-14 1.433428606939996e-16
3.283707930232385 7.491703598736774e-22 6.530020452049134e-14 6.515526893154145e-14 1.449355889499044e-16
3.2898708863219004 6.918382914220162e-22 6.041612717801495e-14 6.026974152370508e-14 1.4638565430987072e-16
3.29141343181113 6.782943155770058e-22 5.926114626923553e-14 5.911439648073385e-14 1.4674978850168074e-16
3.292184975758714 6.7163574530331e-22 5.869315610819418e-14 5.854622400960932e-14 1.4693209858487903e-16
3.295272960557952 6.299898309749946e-22 5.510542638212836e-14 5.4957785019826247e-14 1.4764136230209577e-16
3.3076538914384823 4.848397858733245e-22 4.2568440796066656e-14 4.241795039212042e-14 1.5049040394624178e-16
3.310756385682612 4.550527457843961e-22 3.9990643972454775e-14 3.9839435383658915e-14 1.5120858879585424e-16
3.313861789986515 4.274736826387264e-22 3.7602195854755606e-14 3.745026670671343e-14 1.5192914804219033e-16
3.3200813396944477 3.889224187258151e-22 3.427528974600131e-14 3.412181102640261e-14 1.5347871959870058e-16
3.345076488085796 3.212828180651325e-22 2.852745219411922e-14 2.8367068720994123e-14 1.6038347312508842e-16
3.3482140837626964 3.2399036877700137e-22 2.87948454631779e-14 2.863352666735782e-14 1.6131879582008273e-16
3.3513546224236106 3.267237891158501e-22 2.906501658567157e-14 2.8902758220667655e-14 1.6225836500391519e-16
3.3576445397418455 3.460535641448657e-22 3.084235110873606e-14 3.0678128437605376e-14 1.64222671130685e-16
3.3702598118196083 4.1634877813978795e-22 3.724689796716128e-14 3.7078555028148955e-14 1.6834293901233622e-16
3.382922481734668 4.330018967650906e-22 3.888224012929138e-14 3.87098906819507e-14 1.7234944734069142e-16
3.389271646505754 4.415972082333923e-22 3.972849658123976e-14 3.955411605422674e-14 1.7438052701303033e-16
3.395632727569191 4.510117436842494e-22 4.065163281657963e-14 4.047515912894869e-14 1.7647368763093566e-16
3.421196662673239 4.965923288100394e-22 4.509698204061408e-14 4.4911841806231803e-14 1.8514023438226669e-16
3.4276182099114902 4.882206759540211e-22 4.441994762720665e-14 4.4232871470646954e-14 1.8707615655969365e-16
3.4340518103208963 4.503755261520554e-22 4.105358224813086e-14 4.086467415439122e-14 1.889080937396354e-16
3.4469541582030403 3.961612601011719e-22 3.6247407071564537e-14 3.605498099634345e-14 1.9242607522107496e-16
3.472904465399547 3.8117212187134365e-22 3.513851465704104e-14 3.4937987398227616e-14 2.0052725881342173e-16
3.4990501388274233 3.583823225336742e-22 3.328635022469459e-14 3.307752887798236e-14 2.0882134671222234e-16
3.5253949054701885 2.7720443884429987e-22 2.594044284611532e-14 2.5723557343392736e-14 2.168855027225749e-16
3.5519380250092896 2.000767336918124e-22 1.886389634508987e-14 1.8638900427399335e-14 2.2499591769054176e-16
3.578680990867387 1.69917777365878e-22 1.6141029753673126e-14 1.590714386288667e-14 2.338858907864553e-16
3.605625307711299 1.5823233356379185e-22 1.5144162442179447e-14 1.490091071871635e-14 2.4325172346309513e-16
3.660119384959845 1.507104487348383e-22 1.464225774298768e-14 1.4379315923718944e-14 2.629418192687347e-16
3.715437065384467 1.4561917762452728e-22 1.4361437629092617e-14 1.4077719694879411e-14 2.837179342132038e-16
3.8285932144167436 1.4504346786863906e-22 1.4740317331371208e-14 1.4411881554717024e-14 3.284357766541823e-16
3.94519561050918 1.4688875516779706e-22 1.5382485863589968e-14 1.5005190816192637e-14 3.7729504739733374e-16
4.06534921144712 1.4958979042347082e-22 1.6142442346899396e-14 1.571218238149538e-14 4.3025996540401706e-16
4.189162171576248 1.5268587704910212e-22 1.6978349695051754e-14 1.6490902283476383e-14 4.874474115753688e-16
4.316745939156006 1.5598905346261812e-22 1.7873929679297677e-14 1.7325264793854396e-14 5.486648854432799e-16
4.448215356677963 1.5942223807446808e-22 1.8823663035833214e-14 1.8210576535108465e-14 6.130865007247539e-16
4.58368876423945 1.629772091454947e-22 1.9829484798363953e-14 1.914868060660438e-14 6.808041917595672e-16
4.723288106065518 1.666945264752584e-22 2.0899466969140212e-14 2.0147215252893775e-14 7.522517162464374e-16
4.867139040275056 1.706445937892085e-22 2.204630035771243e-14 2.122072626115649e-14 8.255740965559414e-16
4.940699165968905 1.7284141404179341e-22 2.266760596868804e-14 2.1804444487299955e-14 8.631614813880792e-16
5.015371051989984 1.7500487231740462e-22 2.3298214643589638e-14 2.2396961585124383e-14 9.012530584652625e-16
5.091171501069577 1.7754973828426948e-22 2.399425093428175e-14 2.3053589015968616e-14 9.40661918313133e-16
5.129500256944802 1.7880855359829858e-22 2.4346289344180298e-14 2.3385770828322148e-14 9.605185158581522e-16
5.168117569889187 1.8009489856127659e-22 2.470604504716592e-14 2.3725380686890715e-14 9.806643602752027e-16
5.20702561229733 1.8168892258267456e-22 2.511236392594396e-14 2.4109728137346628e-14 1.0026357885973379e-15
5.246226572918644 1.832864287666068e-22 2.5523885354882886e-14 2.449911841012015e-14 1.0247669447627434e-15
5.265937586045735 1.8408669233231826e-22 2.5731644032992377e-14 2.4695754262262907e-14 1.035889770729474e-15
5.285722656980489 1.8488807798658196e-22 2.5940761013871046e-14 2.4893711688494353e-14 1.0470493253766908e-15
5.305582063971359 1.8569067587445726e-22 2.6151256858341823e-14 2.5093012341108574e-14 1.0582445172332508e-15
5.3255160863122235 1.86554039494243e-22 2.6371558188771388e-14 2.5301996302722426e-14 1.0695618860489628e-15
5.365609099470188 1.887479274848018e-22 2.6882561902504344e-14 2.578958488081017e-14 1.092977021694175e-15
5.406003951863644 1.9097739166210182e-22 2.740487019892283e-14 2.6288313587439064e-14 1.1165566114837562e-15
5.446702915881641 1.932451034296938e-22 2.7939048988612152e-14 2.6798757006953847e-14 1.1402919816583127e-15
5.487708281020852 1.9566828015828213e-22 2.850236370656898e-14 2.733808903520015e-14 1.1642746713688244e-15
5.529022354014368 1.9915839713708786e-22 2.922916448220382e-14 2.8039886419042173e-14 1.1892780631616457e-15
5.570647458961463 2.0278103663397836e-22 2.9984889086056337e-14 2.877043525018096e-14 1.2144538358753648e-15
5.612585937458331 2.0654717865195327e-22 3.077171517394457e-14 2.9531921990872894e-14 1.2397931830716695e-15
5.654840148729818 2.106426521307864e-22 3.161812266601619e-14 3.035271139176144e-14 1.265411274254751e-15
5.67608639626678 2.1352658453023457e-22 3.2171431349825863e-14 3.0892615297765334e-14 1.2788160520605369e-15
5.686739436050992 2.1500222456840095e-22 3.245455928557468e-14 3.116902284352173e-14 1.2855364420529496e-15
5.6974124697621304 2.165010606019762e-22 3.274214466725138e-14 3.144987601808531e-14 1.2922686491660644e-15
5.718818669136295 2.1957064711346233e-22 3.33311302817215e-14 3.202536232205627e-14 1.305767959665232e-15
5.740305295436557 2.2295820260982904e-22 3.397252903122417e-14 3.2653115451698295e-14 1.3194135795258773e-15
5.7835210386641895 2.3188257012854485e-22 3.559834913507839e-14 3.4250725002756805e-14 1.347624132321589e-15
5.827062130521658 2.4202339344711317e-22 3.74348784863347e-14 3.605858956844297e-14 1.3762889178917195e-15
5.8489554468988025 2.4930256707906764e-22 3.870566173037562e-14 3.7313887589701605e-14 1.3917741406740199e-15
5.870931020387893 2.5702768642591955e-22 4.005496142506702e-14 3.8647628359783286e-14 1.407333065283727e-15
5.892989160043636 2.652339140661394e-22 4.1489111032906434e-14 4.0066146355252054e-14 1.422964677654369e-15
5.915130176081913 2.7455361061603126e-22 4.3108300263496855e-14 4.1669129830645984e-14 1.4391704328508721e-15
5.95966208400165 3.0090557374942983e-22 4.760157265447175e-14 4.612542666261305e-14 1.4761459918587043e-15
6.004529249263818 3.388384998737882e-22 5.400589255940767e-14 5.248810945275341e-14 1.5177831066542502e-15
6.027089341400364 3.6527906601219763e-22 5.843887488555402e-14 5.689700932365031e-14 1.5418655619037093e-15
6.049734195844842 3.9631352488673475e-22 6.364211740095039e-14 6.20747363964124e-14 1.5673810045379688e-15
6.095279466722835 4.8603137086713885e-22 7.863707615687384e-14 7.700689211517989e-14 1.6301840416939552e-15
6.141167624020661 6.233022533444066e-22 1.016059361680813e-13 9.989413502636768e-14 1.7118011417136385e-15
6.164241091010745 7.109016420368192e-22 1.1632111770466965e-13 1.1455803937876802e-13 1.7630783259016693e-15
6.187401249150058 8.09701542864052e-22 1.3298500701256038e-13 1.31169277392075e-13 1.8157296204853866e-15
6.1990139391386085 8.577676024471198e-22 1.4114376077811381e-13 1.3930124103276637e-13 1.8425197453474107e-15
6.204828454712694 8.83003089527851e-22 1.4543248843333677e-13 1.4357643754965057e-13 1.8560508836862023e-15
6.210648424152782 9.012980373595006e-22 1.485849435364539e-13 1.4671737580419278e-13 1.8675677322610948e-15
6.233982942956859 9.628017601300297e-22 1.5932059448432256e-13 1.57412922823052e-13 1.9076716612705613e-15
6.239830258556775 9.702913919145674e-22 1.607105499754289e-13 1.5879735025315799e-13 1.913199722270917e-15
6.245683058788269 9.703451236950838e-22 1.608702003443954e-13 1.5895146384191236e-13 1.9187365024830252e-15
6.257405133728602 9.672870877094905e-22 1.6066419324753818e-13 1.5873578708235723e-13 1.9284061651809943e-15
6.269149208991335 9.534784799218936e-22 1.5866784924381128e-13 1.5673599396571822e-13 1.931855278093004e-15
6.280915325867298 9.208742664281891e-22 1.535298086330542e-13 1.516021957722762e-13 1.92761286077805e-15
6.304513850009849 8.413115356084308e-22 1.4079196812376091e-13 1.3887979873709627e-13 1.9121693866646178e-15
6.32820103803542 7.439464612505158e-22 1.2496586019500198e-13 1.2307653804559174e-13 1.8893221494102477e-15
6.3519772230701035 6.549873151233601e-22 1.1043614910711489e-13 1.0856731806617724e-13 1.868831040937626e-15
6.375842739491607 5.7997112272654565e-22 9.815521979029921e-14 9.630446382274049e-14 1.8507559675587252e-15
6.399797922933955 5.202317213207144e-22 8.837563027405597e-14 8.653416750302767e-14 1.8414627710283177e-15
6.42384311029221 4.703686162077016e-22 8.02052313433e-14 7.837131223796648e-14 1.8339191053335385e-15
6.447978639727206 4.340662992797654e-22 7.429320460736915e-14 7.245998006628166e-14 1.833224541087494e-15
6.472204850670314 4.0368670292612392e-22 6.935314052169307e-14 6.751925155193513e-14 1.833888969757925e-15
6.496522083828205 3.838110744071128e-22 6.618626194402762e-14 6.434615821506384e-14 1.840103728963798e-15
6.520930681187647 3.669634792995278e-22 6.351873808749096e-14 6.167157891740567e-14 1.8471591700852912e-15
6.57002334288761 3.4905320938660294e-22 6.087345912004856e-14 5.900450305801873e-14 1.868956062029823e-15
