Dust emission spectrum from A.P. Jones, M. Kohler, N. Ysard, M. Bocchio, and L. Verstraete (2017), A&A, 602A, 46J 
inside the DustPedia framework.

lambda    nu*dP/dnu     j_nu    j_nu(carb.) j_nu(sil)
 (um)   (erg s-1 H-1) (Jy cm2 sr-1 H-1)
0.9927057738263894 1.3997482952436634e-19 3.688416262083024e-12 3.6884161543387674e-12 1.0774425557246173e-19
1.0001793341362166 1.42319775050559e-19 3.778440246458398e-12 3.7784401168411225e-12 1.2961727536849986e-19
1.0077091589558085 1.446750155246469e-19 3.869886043323529e-12 3.8698858876024406e-12 1.5572108857132301e-19
1.0114953028030835 1.458564072865216e-19 3.916145464865046e-12 3.916145294268432e-12 1.7059661384827113e-19
1.0152956718711033 1.4704026787890012e-19 3.962764402906597e-12 3.96276421607638e-12 1.8683021770112155e-19
1.0229392996569957 1.4941410664539249e-19 4.0570550377604085e-12 4.057054813905043e-12 2.238553661706852e-19
1.0267826658714554 1.50601395398816e-19 4.1046578076135945e-12 4.1046575626935754e-12 2.449200192699952e-19
1.0306404723013447 1.5179096820179038e-19 4.152623496660744e-12 4.152623228784014e-12 2.6787673042799947e-19
1.03451277320114 1.5298279658605713e-19 4.200953613051047e-12 4.200953320164325e-12 2.9288672173919064e-19
1.0383996230291617 1.5417685327505144e-19 4.2496496989983235e-12 4.249649378874169e-12 3.2012415374342167e-19
1.0403485208654093 1.5477470904256327e-19 4.274135472141785e-12 4.274135137505424e-12 3.346363601788976e-19
1.0423010764483396 1.5537311221157266e-19 4.29871333212172e-12 4.298712982344625e-12 3.497770945831123e-19
1.0462171883269815 1.565715485851949e-19 4.3481461268028975e-12 4.348145744754341e-12 3.8204855611217754e-19
1.0471985131304309 1.5687149511658602e-19 4.360562199763272e-12 4.3605618092124046e-12 3.9055086752698233e-19
1.048180758391296 1.5717157590525921e-19 4.373001474611823e-12 4.373001075377793e-12 3.992340304693469e-19
1.0501480137395462 1.5777213885939993e-19 4.3979497355593544e-12 4.397949318401753e-12 4.1715760114990556e-19
1.0521189612883777 1.5837323470900327e-19 4.422991122396783e-12 4.422990686547432e-12 4.358493530126637e-19
1.0531058218030118 1.5867358792673232e-19 4.435535799509553e-12 4.435535354015886e-12 4.454936672761893e-19
1.0540936079674168 1.5897278357778195e-19 4.448067729679314e-12 4.448067274335263e-12 4.553440512408312e-19
1.058054026499678 1.6017083073066331e-19 4.498427292062704e-12 4.498426795194208e-12 4.96868494862774e-19
1.0590464539527713 1.6047065715689057e-19 4.511075279922262e-12 4.51107477212046e-12 5.078018019911334e-19
1.06003981227728 1.6077060885758733e-19 4.523746562018957e-12 4.523746043054097e-12 5.189648605544693e-19
1.0620293250338977 1.6137088696456238e-19 4.549159120971206e-12 4.549158578972555e-12 5.419986506530218e-19
1.0660195594769086 1.625729344847969e-19 4.6002650121208796e-12 4.600264421090114e-12 5.91030764011697e-19
1.070024785945596 1.6377695691445842e-19 4.651746806751132e-12 4.651746162467197e-12 6.442839351111697e-19
1.0740450607676866 1.6498293931934856e-19 4.703606393087951e-12 4.703605690986195e-12 7.021017585241524e-19
1.07808044048254 1.6619086823250927e-19 4.755845707819863e-12 4.7558449429657915e-12 7.648540707989768e-19
1.0861967418109137 1.6861068958841063e-19 4.861418768840535e-12 4.861417862056429e-12 9.067841065551527e-19
1.0902777775684922 1.6981840339424323e-19 4.91463587683112e-12 4.914634889980793e-12 9.868503282673932e-19
1.0943741465085532 1.7102795409895825e-19 4.968237612106696e-12 4.968236538474744e-12 1.0736319510691218e-18
1.1026131145906286 1.734525460903623e-19 5.076603746615587e-12 5.076602477108771e-12 1.2695068150257721e-18
1.1109141095355224 1.7588444162438716e-19 5.186535324244259e-12 5.1865338250945824e-12 1.499149676359075e-18
1.1192775983109025 1.7832176249220716e-19 5.29799559304905e-12 5.297993825026927e-12 1.768022123168042e-18
1.1277040513999907 1.8075589456486068e-19 5.410744698034709e-12 5.410742615627714e-12 2.0824069956525423e-18
1.1361939428280308 1.831971423737042e-19 5.525105787101181e-12 5.525103337579041e-12 2.449522138504434e-18
1.1447477501889525 1.8564559423783024e-19 5.6411010407797425e-12 5.641098163131781e-12 2.8776479636540944e-18
1.1533659546722406 1.8810220252514049e-19 5.758779387774838e-12 5.758776011499027e-12 3.376275810516109e-18
1.1707974979042381 1.93047332644185e-19 5.999499534826645e-12 5.999494904764715e-12 4.630061929227488e-18
1.1884924949847024 1.9802684841021365e-19 6.247265344228667e-12 6.2472590267372235e-12 6.317491444501386e-18
1.2064549276569216 2.0307408083950956e-19 6.503318600962227e-12 6.503310023803934e-12 8.577158293194666e-18
1.2246888378427687 2.0815796676716225e-19 6.766876179016555e-12 6.76686459124653e-12 1.158777002536137e-17
1.2431983285522175 2.1327490435099494e-19 7.03800557419696e-12 7.03798999526105e-12 1.557893591007538e-17
1.2619875648066055 2.184330004821971e-19 7.317163511980063e-12 7.317142667811302e-12 2.084416876279795e-17
1.3004222497298317 2.2884417261265675e-19 7.899392301403213e-12 7.899355514204962e-12 3.678719825245046e-17
1.3400274889804893 2.3942594694065774e-19 8.516366722058934e-12 8.516302991917924e-12 6.373014100766554e-17
1.3808389325824078 2.5021900961234653e-19 9.171339225931476e-12 9.171230799581683e-12 1.0842634979582542e-16
1.4228933163050095 2.6131167769743396e-19 9.869623610892637e-12 9.869442358780522e-12 1.8125211211730632e-16
1.466228494730424 2.728871851398595e-19 1.0620726615338881e-11 1.062042875831745e-11 2.978570214308351e-16
1.5108834753276823 2.8492135448170223e-19 1.1426820483296963e-11 1.1426339088641742e-11 4.813946552234734e-16
1.5568984535646726 2.9739887012251e-19 1.2290485380136593e-11 1.2289719387217562e-11 7.659929190251416e-16
1.6043148490894465 3.103790115891364e-19 1.3217562785498727e-11 1.321636053028168e-11 1.2022552170490031e-15
1.6531753430134553 3.2392087476386393e-19 1.4214359293954448e-11 1.4212500224540963e-11 1.859069413488179e-15
1.7035239163302658 3.3808982893349777e-19 1.528796831250126e-11 1.5285135471911243e-11 2.8328405900167112e-15
1.755405889504358 3.5310683009945287e-19 1.6453303252531978e-11 1.6449047340243194e-11 4.255912288786803e-15
1.8088679632656115 3.6893811703727215e-19 1.7714537866727356e-11 1.7708231782610043e-11 6.3060841173117886e-15
1.8639582606462262 3.8553470723094727e-19 1.9075199861289416e-11 1.9065980628515037e-11 9.219232774381114e-15
1.9207263702978936 4.028928301153255e-19 2.0541136605004906e-11 2.0527833303940965e-11 1.3303301063941796e-14
1.979223391128241 4.210237805101269e-19 2.2119274314554102e-11 2.21003195031929e-11 1.8954811361199913e-14
2.039501978296691 4.399196915271015e-19 2.381589824606031e-11 2.3789221838588334e-11 2.6676407471978616e-14
2.1016163906111602 4.596941383455246e-19 2.5644358876707842e-11 2.5607260079088432e-11 3.709879761940961e-14
2.1656225393682647 4.803517878951875e-19 2.761287375928734e-11 2.7561874536509354e-11 5.099922277797326e-14
2.231578038680979 5.017445781958213e-19 2.9721053541996625e-11 2.965173158120004e-11 6.932196079659593e-14
2.299542257339062 5.237890419108457e-19 3.1971810941817317e-11 3.187861189526704e-11 9.319904655027206e-14
2.369576372248914 5.46441818819575e-19 3.437035928394921e-11 3.4246387610301326e-11 1.2397167364788805e-13
2.4417434235010123 5.696703097238314e-19 3.6922665435392494e-11 3.6759461381473775e-11 1.632040539187209e-13
2.5161083711144245 5.93534397887071e-19 3.9641006144294876e-11 3.9428303324484494e-11 2.1270281981038057e-13
2.5927381535095444 6.182145456280109e-19 4.254684006645418e-11 4.2272315393924015e-11 2.745246725301729e-13
2.6717017477616296 6.4383829313893285e-19 4.565982167054114e-11 4.530885734278372e-11 3.509643277574248e-13
2.753070231689431 6.706533373335149e-19 4.9010012542657567e-11 4.856546371919465e-11 4.4454882346292877e-13
2.836916847834745 6.995617149618188e-19 5.2679552039200095e-11 5.212151050073901e-11 5.580415384610876e-13
2.9233170693905177 7.326798046014081e-19 5.6853810342669804e-11 5.6159543119130323e-11 6.942672235395076e-13
2.967498994190263 7.5293296561297635e-19 5.930841608199737e-11 5.853818847205137e-11 7.702276099459993e-13
3.0123486681368425 7.744901689459124e-19 6.192850284520696e-11 6.107509367845615e-11 8.534091667508e-13
3.0578761833420214 8.106174746287232e-19 6.579687858645242e-11 6.485221573859526e-11 9.446628478571462e-13
3.1040917844459814 8.528590083441581e-19 7.02718243394155e-11 6.922824712179273e-11 1.0435772176227745e-12
3.127460860933648 8.926436917775568e-19 7.410362556547819e-11 7.30072408280229e-11 1.096384737455289e-12
3.1510058709225794 9.432649218123262e-19 7.889551756942914e-11 7.774420002229246e-11 1.1513175471366882e-12
3.162844764501044 9.894320977426897e-19 8.306791405816389e-11 8.188821137086389e-11 1.1797026873000267e-12
3.1747281389236908 1.0415964921104964e-18 8.77759387749126e-11 8.656730374664359e-11 1.2086350282690006e-12
3.1986289994194426 1.182818210351289e-18 1.0042718872037266e-10 9.915887112104634e-11 1.2683175993263113e-12
3.2227097969389145 1.5108147398670108e-18 1.2924145707279845e-10 1.279100104279292e-10 1.3314466448692511e-12
3.2348180950136065 1.8186908300152502e-18 1.5616301093768093e-10 1.547979029457225e-10 1.3651079919583883e-12
3.240889293275058 2.048798708920212e-18 1.7625154022783666e-10 1.748686764553126e-10 1.3828637725240448e-12
3.2469718861334385 2.3155459365696437e-18 1.995728054906075e-10 1.9817156976659167e-10 1.4012357240158234e-12
3.2714166318528037 3.712580420073772e-18 3.2238970158032894e-10 3.209126358713597e-10 1.4770657089692608e-12
3.2744851364798273 3.799672435999558e-18 3.3026200628358035e-10 3.287760305156921e-10 1.485975767888264e-12
3.2775565192852394 3.889072455229313e-18 3.383495918467675e-10 3.3685466386974266e-10 1.49492797702478e-12
3.283707930232385 3.80222364996858e-18 3.314145824154903e-10 3.2990369852021525e-10 1.5108838952750734e-12
3.2898708863219004 3.527615812741152e-18 3.0805592610331745e-10 3.065305705821749e-10 1.5253555211425673e-12
3.29141343181113 3.462701746462351e-18 3.025289612065844e-10 3.009999730157982e-10 1.5289881907862346e-12
3.292184975758714 3.4307820919273975e-18 2.9981047063502593e-10 2.982796638934043e-10 1.5308067416215497e-12
3.295272960557952 3.2321917008256535e-18 2.827209155854514e-10 2.811830443172454e-10 1.5378712682060826e-12
3.3076538914384823 2.53848009495681e-18 2.2287597425512346e-10 2.2130975264182866e-10 1.56622161329483e-12
3.310756385682612 2.3956570177677473e-18 2.1053354312261325e-10 2.0896018052015316e-10 1.5733626024601326e-12
3.313861789986515 2.263240378005104e-18 1.9908315158681368e-10 1.975026266222058e-10 1.580524964607856e-12
3.3200813396944477 2.078270212430718e-18 1.8315558649182695e-10 1.8155963291922533e-10 1.5959535726016342e-12
3.345076488085796 1.7550689469431643e-18 1.558366730683813e-10 1.5417190013292672e-10 1.664772935454621e-12
3.3482140837626964 1.7680083227663306e-18 1.571328389292623e-10 1.5545874050591935e-10 1.6740984233429743e-12
3.3513546224236106 1.781062360909637e-18 1.5844149946975087e-10 1.5675803615889828e-10 1.6834633108525112e-12
3.3576445397418455 1.873396027802319e-18 1.669681923316433e-10 1.6526514032276807e-10 1.7030520088751726e-12
3.3702598118196083 2.2078683676735412e-18 1.9751768741362494e-10 1.9577355122626574e-10 1.7441361873591924e-12
3.382922481734668 2.2873141452795285e-18 2.0539378351991943e-10 2.0360979742215758e-10 1.7839860977618786e-12
3.389271646505754 2.3282432750158695e-18 2.0946148043326334e-10 2.0765731188912433e-10 1.8041685441390462e-12
3.395632727569191 2.3733966073326665e-18 2.1392446817737447e-10 2.1209950024829387e-10 1.824967929080556e-12
3.421196662673239 2.592900818468881e-18 2.3546880380489014e-10 2.335578248044954e-10 1.91097900039477e-12
3.4276182099114902 2.552769704911778e-18 2.322595133336385e-10 2.3032943066520137e-10 1.9300826684370845e-12
3.4340518103208963 2.371899940872576e-18 2.1620843863099556e-10 2.1426033155133672e-10 1.948107079658834e-12
3.4469541582030403 2.111985494252495e-18 1.9323948515273603e-10 1.9125687218788154e-10 1.9826129648545477e-12
3.472904465399547 2.0383861635969926e-18 1.8790949803626596e-10 1.8584725948358973e-10 2.06223855267626e-12
3.4990501388274233 1.928254823537355e-18 1.7909523250184908e-10 1.7695171019473552e-10 2.143522307113586e-12
3.5253949054701885 1.5428394628874788e-18 1.4437697705931547e-10 1.4215480839347545e-10 2.222168665840022e-12
3.5519380250092896 1.1758435563743941e-18 1.1086242041343414e-10 1.0856146196407441e-10 2.3009584493597394e-12
3.578680990867387 1.0324743085438497e-18 9.8078016276218e-11 9.5690732011091e-11 2.3872842651270008e-12
3.605625307711299 9.770978493942176e-19 9.351646543950282e-11 9.103841661004235e-11 2.4780488294604726e-12
3.660119384959845 9.41534779838548e-19 9.147471217897284e-11 8.880667726269911e-11 2.6680349162737307e-12
3.715437065384467 9.171294324103678e-19 9.045029203040982e-11 8.758299468271368e-11 2.8672973476961265e-12
3.8285932144167436 9.134268756580252e-19 9.28287375092018e-11 8.95367375602666e-11 3.291999948935216e-12
3.94519561050918 9.203352660590317e-19 9.637936003844679e-11 9.262955171002829e-11 3.749808328418487e-12
4.06534921144712 9.304138572506763e-19 1.0040225343526385e-10 9.616330126936569e-11 4.238952165898158e-12
4.189162171576248 9.414777255547835e-19 1.046903509578071e-10 9.993122925312214e-11 4.759121704684964e-12
4.316745939156006 9.52604715373003e-19 1.0915374711742067e-10 1.0384678192838792e-10 5.306965189032771e-12
4.448215356677963 9.63377251903654e-19 1.1375005761586814e-10 1.0787679382431904e-10 5.873263791549155e-12
4.58368876423945 9.73732879908833e-19 1.1847436485786159e-10 1.1201689638647225e-10 6.4574684713893545e-12
4.723288106065518 9.838360199031818e-19 1.2334927148354075e-10 1.1628716453470592e-10 7.062106948834848e-12
4.867139040275056 9.938837414944095e-19 1.2840406484074881e-10 1.207355355978519e-10 7.66852924289691e-12
4.940699165968905 9.994759818604878e-19 1.3107812070145948e-10 1.2310405785201154e-10 7.974062849447916e-12
5.015371051989984 1.0046188857516126e-18 1.3374385595844449e-10 1.2546388266378024e-10 8.279973294664225e-12
5.091171501069577 1.0111645301592691e-18 1.366497957526766e-10 1.280564303359924e-10 8.593365416684195e-12
5.129500256944802 1.014251202779895e-18 1.3809883673706517e-10 1.2934909910779627e-10 8.749737629268876e-12
5.168117569889187 1.017381721418304e-18 1.3956796577983897e-10 1.3066031137431422e-10 8.907654405524768e-12
5.20702561229733 1.0218306050475565e-18 1.412336077503312e-10 1.3215202410741481e-10 9.081583642916349e-12
5.246226572918644 1.026197469607545e-18 1.4290499706929719e-10 1.3364929012567726e-10 9.255706943619952e-12
5.265937586045735 1.028350971318628e-18 1.4374293328702158e-10 1.3440012222638233e-10 9.34281106063922e-12
5.285722656980489 1.0304849868859663e-18 1.4458241474677945e-10 1.3515248753467997e-10 9.429927212099517e-12
5.305582063971359 1.0325998839846271e-18 1.4542348273982704e-10 1.3590643961368562e-10 9.517043126141399e-12
5.3255160863122235 1.0349556251272805e-18 1.4630287591109815e-10 1.3669791768051245e-10 9.604958230585734e-12
5.365609099470188 1.041617992650976e-18 1.4835320598927838e-10 1.3856621867801068e-10 9.786987311267716e-12
5.406003951863644 1.048309221044728e-18 1.504302571159563e-10 1.4046111656629805e-10 9.969140549658258e-12
5.446702915881641 1.0550393082063523e-18 1.5253579207823482e-10 1.4238447271039623e-10 1.0151319367838584e-11
5.487708281020852 1.0623078711907428e-18 1.5474294192465202e-10 1.4440861013728717e-10 1.03343317873648e-11
5.529022354014368 1.0739786463011955e-18 1.5762076294229438e-10 1.4709564109912296e-10 1.052512184317137e-11
5.570647458961463 1.0860266585529007e-18 1.605889260739313e-10 1.4987294656394266e-10 1.0715979509988608e-11
5.612585937458331 1.0984923429116155e-18 1.636550724994162e-10 1.5274826771570474e-10 1.0906804783711411e-11
5.654840148729818 1.1121485071691772e-18 1.6693697865458296e-10 1.5583837991335712e-10 1.1098598741225823e-11
5.67608639626678 1.1223946549081858e-18 1.6910794816126173e-10 1.5790874592014656e-10 1.1199202241115134e-11
5.686739436050992 1.1276315049643753e-18 1.702158366203564e-10 1.5896632270353958e-10 1.1249513916816831e-11
5.6974124697621304 1.1329469653973855e-18 1.7133917652977104e-10 1.6003934644098745e-10 1.129983008878357e-11
5.718818669136295 1.1438223106818272e-18 1.7363382108526927e-10 1.622333515442004e-10 1.1400469541068833e-11
5.740305295436557 1.1559435703948513e-18 1.761331318786151e-10 1.6463116434668027e-10 1.1501967531934769e-11
5.7835210386641895 1.188808298160334e-18 1.825045014341955e-10 1.707929043014366e-10 1.1711597132758944e-11
5.827062130521658 1.2262475374569254e-18 1.8966938238926134e-10 1.7774592207721477e-10 1.1923460312046588e-11
5.8489554468988025 1.253854776644634e-18 1.946681873854549e-10 1.8262955074549648e-10 1.2038636639958484e-11
5.870931020387893 1.283107644437801e-18 1.9995833101418718e-10 1.878043458404487e-10 1.2153985173738518e-11
5.892989160043636 1.3141376946369806e-18 2.0556347372578274e-10 1.9329398093797358e-10 1.2269492787809175e-11
5.915130176081913 1.3495177337119413e-18 2.1189091465683779e-10 1.995014319484607e-10 1.2389482708377083e-11
5.95966208400165 1.4509095376982618e-18 2.2952574428322856e-10 2.1685853580684994e-10 1.2667208476378648e-11
6.004529249263818 1.59775628586136e-18 2.546589432502146e-10 2.416767515832793e-10 1.29821916669353e-11
6.027089341400364 1.700597892741903e-18 2.7206877352577953e-10 2.5890244055057867e-10 1.3166332975200861e-11
6.049734195844842 1.821234541200108e-18 2.924634543291179e-10 2.7910159268184016e-10 1.3361861647277711e-11
6.095279466722835 2.1707554413829357e-18 3.5121572637878377e-10 3.3736602810693714e-10 1.384969827184662e-11
6.141167624020661 2.7050089080423873e-18 4.4094973340771824e-10 4.2645794583020017e-10 1.4491787577517978e-11
6.164241091010745 3.0453291672202602e-18 4.982912847053811e-10 4.833922231394039e-10 1.4899061565977146e-11
6.187401249150058 3.4278227592835913e-18 5.629840250380738e-10 5.476675913589714e-10 1.531643367910247e-11
6.1990139391386085 3.61321029034006e-18 5.945457573891249e-10 5.790171022804761e-10 1.5528655108648884e-11
6.204828454712694 3.7104361446070455e-18 6.11116731167653e-10 5.954809745529675e-10 1.5635756614685713e-11
6.210648424152782 3.780331205068541e-18 6.232126060096575e-10 6.074865357202324e-10 1.5726070289425087e-11
6.233982942956859 4.0132723210749124e-18 6.641002940571888e-10 6.4806330846263e-10 1.6036985594558782e-11
6.239830258556775 4.040398710522422e-18 6.692161801073104e-10 6.531390462587493e-10 1.607713384856098e-11
6.245683058788269 4.038458397143808e-18 6.695222097443945e-10 6.534048944210476e-10 1.611731532334681e-11
6.257405133728602 4.022188656306252e-18 6.680764209156135e-10 6.518905217601369e-10 1.6185899155476612e-11
6.269149208991335 3.963920954554592e-18 6.596339882607251e-10 6.434313583574329e-10 1.6202629903292466e-11
6.280915325867298 3.832445604304605e-18 6.389522019196954e-10 6.227968451324422e-10 1.6155356787253215e-11
6.304513850009849 3.514385326286766e-18 5.881260459305903e-10 5.721229566927751e-10 1.6003089237815146e-11
6.32820103803542 3.1287122160827655e-18 5.255515467177346e-10 5.097621166752585e-10 1.5789430042476036e-11
6.3519772230701035 2.7773141062097505e-18 4.682775798381787e-10 4.5268206482813516e-10 1.559551501004351e-11
6.375842739491607 2.4810984310652375e-18 4.1990497850597246e-10 4.044830266588393e-10 1.542195184713325e-11
6.399797922933955 2.245478514323356e-18 3.8145612971539457e-10 3.661352016935304e-10 1.532092802186408e-11
6.42384311029221 2.048720145635688e-18 3.4933893881608667e-10 3.34104469535022e-10 1.5234469281064576e-11
6.447978639727206 1.905063629948695e-18 3.2606374253121736e-10 3.108594159133788e-10 1.5204326617838576e-11
6.472204850670314 1.78464486104591e-18 3.0660094804283116e-10 2.914156433515529e-10 1.5185304691278284e-11
6.496522083828205 1.7050259118529744e-18 2.9402302108551196e-10 2.788113311683731e-10 1.5211689917138854e-11
