Dust emission spectrum from A.P. Jones, M. Kohler, N. Ysard, M. Bocchio, and L. Verstraete (2017), A&A, 602A, 46J 
inside the DustPedia framework.

lambda    nu*dP/dnu     j_nu    j_nu(carb.) j_nu(sil)
 (um)   (erg s-1 H-1) (Jy cm2 sr-1 H-1)
0.9927057738263894 9.022523869557007e-25 2.3774862865407713e-17 2.3774862865407713e-17 1.2729980419935157e-37
1.0001793341362166 9.17046729917457e-25 2.4346625554827107e-17 2.4346625554827107e-17 1.6951756937897026e-37
1.0077091589558085 9.318168785289158e-25 2.4925002565754166e-17 2.4925002565754166e-17 2.2532932810927623e-37
1.0114953028030835 9.391910603479966e-25 2.5216642038895745e-17 2.5216642038895745e-17 2.596144036268818e-37
1.0152956718711033 9.465570162193395e-25 2.550989945342542e-17 2.550989945342542e-17 2.9898410461792667e-37
1.0229392996569957 9.612540957986354e-25 2.6101021245492562e-17 2.6101021245492562e-17 3.96019510335845e-37
1.0267826658714554 9.685672813358826e-25 2.6398409144923905e-17 2.6398409144923905e-17 4.554779832832065e-37
1.0306404723013447 9.758690085283436e-25 2.6697349799433095e-17 2.6697349799433095e-17 5.236390305005709e-37
1.03451277320114 9.831585734437829e-25 2.6997830170972305e-17 2.6997830170972305e-17 6.01744062736285e-37
1.0383996230291617 9.90435276260645e-25 2.729983706522737e-17 2.729983706522737e-17 6.912070498800654e-37
1.0403485208654093 9.940685868447649e-25 2.7451408793194014e-17 2.7451408793194014e-17 7.406925157613889e-37
1.0423010764483396 9.97698421401403e-25 2.7603357134758877e-17 2.7603357134758877e-17 7.936378902467172e-37
1.0462171883269815 1.004947317662849e-24 2.790837688214489e-17 2.790837688214489e-17 9.10868862674496e-37
1.0471985131304309 1.0067572347672781e-24 2.7984864547901116e-17 2.7984864547901116e-17 9.427274044205414e-37
1.048180758391296 1.0085662076903308e-24 2.80614448768525e-17 2.80614448768525e-17 9.756750801718661e-37
1.0501480137395462 1.012181278343414e-24 2.821488266312699e-17 2.821488266312699e-17 1.0449845574262597e-36
1.0521189612883777 1.015792444508164e-24 2.8368688513008744e-17 2.8368688513008744e-17 1.1191028447160994e-36
1.0531058218030118 1.0175937389194145e-24 2.8445650705383853e-17 2.8445650705383853e-17 1.1580657804689088e-36
1.0540936079674168 1.0193848585888426e-24 2.852244762635241e-17 2.852244762635241e-17 1.1983530334022815e-36
1.058054026499678 1.0265386717648981e-24 2.883052773316844e-17 2.883052773316844e-17 1.3736644815364484e-36
1.0590464539527713 1.0283244064935455e-24 2.8907769757173784e-17 2.8907769757173784e-17 1.4212718805906135e-36
1.06003981227728 1.0301090329894742e-24 2.8985100134929824e-17 2.8985100134929824e-17 1.4704921404526197e-36
1.0620293250338977 1.0336749198302692e-24 2.9140025057293654e-17 2.9140025057293654e-17 1.5739865699245694e-36
1.0660195594769086 1.0407929398732834e-24 2.945092528061146e-17 2.945092528061146e-17 1.802798200186408e-36
1.070024785945596 1.047892074202623e-24 2.97632139577356e-17 2.97632139577356e-17 2.0640499885925867e-36
1.0740450607676866 1.054971670454366e-24 3.007687651915829e-17 3.007687651915829e-17 2.3622266006591595e-36
1.07808044048254 1.062031081696009e-24 3.0391898274391664e-17 3.0391898274391664e-17 2.7024171101744137e-36
1.0861967418109137 1.076074203265196e-24 3.1025597138522794e-17 3.1025597138522794e-17 3.5326981097075935e-36
1.0902777775684922 1.0830280301357622e-24 3.134341335292161e-17 3.134341335292161e-17 4.0367366925679015e-36
1.0943741465085532 1.0899586446660814e-24 3.1662505481049005e-17 3.1662505481049005e-17 4.610930439984664e-36
1.1026131145906286 1.1037477842811015e-24 3.2304455963886443e-17 3.2304455963886443e-17 6.009138326885487e-36
1.1109141095355224 1.117436778680703e-24 3.295132458397953e-17 3.295132458397953e-17 7.819633354693842e-36
1.1192775983109025 1.1310080550160264e-24 3.360260468174626e-17 3.360260468174626e-17 1.016058620968481e-35
1.1277040513999907 1.1443980505553017e-24 3.42563970009922e-17 3.42563970009922e-17 1.318296172147522e-35
1.1361939428280308 1.157672168734989e-24 3.49146341267481e-17 3.49146341267481e-17 1.70798012378091e-35
1.1447477501889525 1.1708260141085916e-24 3.5577186056452495e-17 3.5577186056452495e-17 2.209713135139741e-35
1.1533659546722406 1.1838625559921738e-24 3.624414384246759e-17 3.624414384246759e-17 2.854831238071468e-35
1.1707974979042381 1.209626714147834e-24 3.7592619434011203e-17 3.7592619434011203e-17 4.7454612198563965e-35
1.1884924949847024 1.2348664374421837e-24 3.895703214648433e-17 3.895703214648433e-17 7.84547509387787e-35
1.2064549276569216 1.2597819996525143e-24 4.0343719285241356e-17 4.0343719285241356e-17 1.2902390618762318e-34
1.2246888378427687 1.2840986893541377e-24 4.174395516755052e-17 4.174395516755052e-17 2.1107930807851914e-34
1.2431983285522175 1.3077598104944233e-24 4.3155667395462e-17 4.3155667395461994e-17 3.4354023783082925e-34
1.2619875648066055 1.3307569605821325e-24 4.457827459124563e-17 4.457827459124563e-17 5.5627931274965845e-34
1.3004222497298317 1.3743756686235589e-24 4.7441595090721466e-17 4.7441595090721466e-17 1.436586033954898e-33
1.3400274889804893 1.4147879739220518e-24 5.032392426066201e-17 5.032392426066201e-17 3.636358635497224e-33
1.3808389325824078 1.4518480939167132e-24 5.321494715553849e-17 5.321494715553848e-17 9.023099538545306e-33
1.4228933163050095 1.4857452226884263e-24 5.61159235546886e-17 5.611592355468859e-17 2.1949074066835884e-32
1.466228494730424 1.5173132871743156e-24 5.905359610287443e-17 5.905359610287437e-17 5.23458082508162e-32
1.5108834753276823 1.5459335661798335e-24 6.199993458536822e-17 6.199993458536809e-17 1.2237031156314683e-31
1.5568984535646726 1.5711073423282592e-24 6.492853121316947e-17 6.492853121316919e-17 2.803710013941175e-31
1.6043148490894465 1.592887053455468e-24 6.7833467641575e-17 6.783346764157437e-17 6.29571276849043e-31
1.6531753430134553 1.6113455434259093e-24 7.070938085625136e-17 7.070938085624998e-17 1.3854911344113893e-30
1.7035239163302658 1.6267121070195425e-24 7.355773826182946e-17 7.355773826182649e-17 2.9884439339503773e-30
1.755405889504358 1.6402868786439105e-24 7.643051658863734e-17 7.6430516588631e-17 6.319847490773593e-30
1.8088679632656115 1.651753909105484e-24 7.930884833568993e-17 7.930884833567682e-17 1.310460230374338e-29
1.8639582606462262 1.6609011948808536e-24 8.21768355688614e-17 8.217683556883476e-17 2.6647919935378946e-29
1.9207263702978936 1.667889706127464e-24 8.503588978200213e-17 8.503588978194895e-17 5.315212042849079e-29
1.979223391128241 1.6730889281007142e-24 8.789886620766025e-17 8.789886620755625e-17 1.040245830440264e-28
2.039501978296691 1.6769399351292667e-24 9.078436730385185e-17 9.078436730365204e-17 1.998281658414328e-28
2.1016163906111602 1.6806703566538745e-24 9.375737079136095e-17 9.375737079098399e-17 3.7695083054403405e-28
2.1656225393682647 1.6849935381053463e-24 9.686133168524839e-17 9.686133168454984e-17 6.9855906006145555e-28
2.231578038680979 1.6899639693506023e-24 1.0010573467026399e-16 1.0010573466899187e-16 1.272130785507668e-27
2.299542257339062 1.6960101304193516e-24 1.035235770633094e-16 1.035235770610321e-16 2.2773089160102883e-27
2.369576372248914 1.7040754241128448e-24 1.0718375233474807e-16 1.0718375233073889e-16 4.009193229089112e-27
2.4417434235010123 1.7152737182686168e-24 1.1117391331216926e-16 1.1117391330522514e-16 6.944107302871722e-27
2.5161083711144245 1.731510291707772e-24 1.156441991514655e-16 1.1564419913962644e-16 1.1839035358731769e-26
2.5927381535095444 1.755902423247282e-24 1.2084493983930694e-16 1.208449398194279e-16 1.9879033448686717e-26
2.6717017477616296 1.792174594159786e-24 1.2709770953954773e-16 1.270977095066607e-16 3.288706823321803e-26
2.753070231689431 1.8459326818151336e-24 1.3489709042284395e-16 1.34897090369223e-16 5.362093809591119e-26
2.836916847834745 1.929872398988588e-24 1.4532643982251661e-16 1.4532643973630215e-16 8.621449168023876e-26
2.9233170693905177 2.0719525083415654e-24 1.6077745586607908e-16 1.6077745572930438e-16 1.3677470468068238e-25
2.967498994190263 2.1923895278711656e-24 1.7269419227372976e-16 1.7269419210226675e-16 1.7146304338185286e-25
3.0123486681368425 2.333022964589639e-24 1.8654932637448705e-16 1.865493261602176e-16 2.1426941745863136e-25
3.0578761833420214 2.647146106004138e-24 2.148657737943895e-16 2.148657735271032e-16 2.6728630948121334e-25
3.1040917844459814 3.0519616865206177e-24 2.5146819512664196e-16 2.514681947941917e-16 3.3245017726764615e-25
3.127460860933648 3.4798701872734685e-24 2.88884579311455e-16 2.888845789404694e-16 3.709856809862199e-25
3.1510058709225794 4.0500142114082996e-24 3.387467931688603e-16 3.3874679275487683e-16 4.139835332170842e-25
3.162844764501044 4.5805140335817856e-24 3.8455771442209273e-16 3.8455771398387877e-16 4.382140034476693e-25
3.1747281389236908 5.1975180679263525e-24 4.3799785345610436e-16 4.3799785299233436e-16 4.637699022840515e-25
3.1986289994194426 6.918676591766204e-24 5.874302861554453e-16 5.874302856351726e-16 5.202726054960975e-25
3.2227097969389145 1.0975319906123533e-23 9.38875097705464e-16 9.38875097113257e-16 5.922071161889296e-25
3.2348180950136065 1.4822239744031668e-23 1.2727207665355288e-15 1.2727207658969585e-15 6.385702947904848e-25
3.240889293275058 1.7698222243272316e-23 1.522520936825123e-15 1.5225209361580602e-15 6.670626822496385e-25
3.2469718861334385 2.102525065903156e-23 1.81212913719277e-15 1.812129136493394e-15 6.993766053303136e-25
3.2714166318528037 3.877238062071087e-23 3.3668809301163982e-15 3.3668809292685558e-15 8.478417150541444e-25
3.2744851364798273 3.9881693130510727e-23 3.4664588090482683e-15 3.4664588081848064e-15 8.634613010925115e-25
3.2775565192852394 4.1022866640644847e-23 3.568992438179745e-15 3.568992437300389e-15 8.793567197346143e-25
3.283707930232385 3.9925033065484526e-23 3.479999963029933e-15 3.4799999621324592e-15 8.974741188513354e-25
3.2898708863219004 3.644410595048241e-23 3.182552580990792e-15 3.182552580086078e-15 9.047131269691641e-25
3.29141343181113 3.562322742229926e-23 3.1123263786447757e-15 3.112326377738246e-15 9.065294070439993e-25
3.292184975758714 3.5219878382038596e-23 3.077807925566968e-15 3.0778079246595294e-15 9.074385301772382e-25
3.295272960557952 3.2673887643067e-23 2.8579961478845312e-15 2.857996146975824e-15 9.087075441907948e-25
3.3076538914384823 2.385418367411802e-23 2.0943731002626477e-15 2.0943730993501387e-15 9.125090804347188e-25
3.310756385682612 2.2059236343199482e-23 1.9385951960019473e-15 1.9385951950884846e-15 9.134626420480703e-25
3.313861789986515 2.0403148381141975e-23 1.7947378110987287e-15 1.794737810184311e-15 9.14417603012067e-25
3.3200813396944477 1.8080654502439094e-23 1.5934274858691987e-15 1.5934274849462823e-15 9.229159379846845e-25
3.345076488085796 1.3937502608229008e-23 1.2375434259327887e-15 1.2375434249355285e-15 9.972599665956125e-25
3.3482140837626964 1.409283424890586e-23 1.2525094059654993e-15 1.252509404954168e-15 1.0113312857764013e-24
3.3513546224236106 1.4249882958961475e-23 1.2676551213699223e-15 1.2676551203443333e-15 1.0255888330279499e-24
3.3576445397418455 1.53977098251757e-23 1.3723354471786324e-15 1.3723354461178088e-15 1.060823895842047e-24
3.3702598118196083 1.9631491398325156e-23 1.7562490763720195e-15 1.7562490752260685e-15 1.145950918938277e-24
3.382922481734668 2.0595455406744918e-23 1.849408625412124e-15 1.8494086241964837e-15 1.2156403283027376e-24
3.389271646505754 2.1094849029081716e-23 1.8978078255664794e-15 1.8978078243145126e-15 1.2519665391250038e-24
3.395632727569191 2.163291571197538e-23 1.9498679548595337e-15 1.9498679535683372e-15 1.2911958144037132e-24
3.421196662673239 2.421626291453262e-23 2.1991486988217618e-15 2.199148697358386e-15 1.4633753885893378e-24
3.4276182099114902 2.3695278172044022e-23 2.155875544102137e-15 2.1558755426082272e-15 1.4939096870635659e-24
3.4340518103208963 2.1412983417336316e-23 1.9518815407493616e-15 1.9518815392324953e-15 1.5168665064536955e-24
3.4469541582030403 1.8162692845157864e-23 1.6618245835195992e-15 1.6618245819677802e-15 1.5518190160714613e-24
3.472904465399547 1.7251826686801788e-23 1.590367002494289e-15 1.5903670007990232e-15 1.6952660618622455e-24
3.4990501388274233 1.5858684242932035e-23 1.4729457471035863e-15 1.4729457452580443e-15 1.845542341492041e-24
3.5253949054701885 1.0900763250644952e-23 1.0200797190019608e-15 1.0200797170416654e-15 1.9602951615203424e-24
3.5519380250092896 6.241552645710332e-24 5.884742317038302e-16 5.884742296352237e-16 2.0686063473441428e-24
3.578680990867387 4.39447562074573e-24 4.1744520700452666e-16 4.174452047695746e-16 2.2349519943363727e-24
3.605625307711299 3.647575971652654e-24 3.491036363476771e-16 3.4910363390951377e-16 2.438163248831575e-24
3.660119384959845 3.103097612549185e-24 3.014811210902578e-16 3.0148111817004683e-16 2.9202110471593272e-24
3.715437065384467 2.717893081984523e-24 2.6804746885817156e-16 2.680474653689006e-16 3.4892709844378055e-24
3.8285932144167436 2.523541882814352e-24 2.56459726854975e-16 2.564597218832285e-16 4.971746474446307e-24
3.94519561050918 2.487721834757771e-24 2.605192338378194e-16 2.605192268148863e-16 7.02293305844898e-24
4.06534921144712 2.517243931696926e-24 2.716392938680419e-16 2.7163928403594975e-16 9.832092112785303e-24
4.189162171576248 2.584843612530537e-24 2.8742919521267144e-16 2.87429181568082e-16 1.3644589423118925e-23
4.316745939156006 2.6804252585890093e-24 3.0713522211425266e-16 3.0713520333760233e-16 1.8776650317346537e-23
4.448215356677963 2.8006802161247984e-24 3.306882483661534e-16 3.3068822273446616e-16 2.563168720002184e-23
4.58368876423945 2.946152407890695e-24 3.584592268590021e-16 3.5845919213651696e-16 3.4722485040812676e-23
4.723288106065518 3.120244568550623e-24 3.9120329668258127e-16 3.912032499830258e-16 4.6699555365053984e-23
4.867139040275056 3.329639538449212e-24 4.3017028384879605e-16 4.3017022145998837e-16 6.23888077137489e-23
4.940699165968905 3.45580044711354e-24 4.532173222248931e-16 4.532172502707171e-16 7.195417599250025e-23
5.015371051989984 3.586682815793256e-24 4.774913120662597e-16 4.774912292221946e-16 8.28440650572261e-23
5.091171501069577 3.7459184694212236e-24 5.06227204856526e-16 5.062271095644307e-16 9.529209516617713e-23
5.129500256944802 3.827744342487551e-24 5.211796047917801e-16 5.211795026561163e-16 1.021356638272366e-22
5.168117569889187 3.913064115506251e-24 5.368077557024869e-16 5.368076462696008e-16 1.0943288617490872e-22
5.20702561229733 4.017356480030604e-24 5.552640002082215e-16 5.552638829323557e-16 1.1727586572409583e-22
5.246226572918644 4.124365211796965e-24 5.743459869667788e-16 5.743458613381658e-16 1.256286131450283e-22
5.265937586045735 4.1789156191771964e-24 5.841289655118733e-16 5.84128835506499e-16 1.3000537437329038e-22
5.285722656980489 4.234178470617379e-24 5.940773087831805e-16 5.940771742623441e-16 1.3452083649769266e-22
5.305582063971359 4.2901653800433944e-24 6.04194132472934e-16 6.041939932939805e-16 1.3917895360834717e-22
5.3255160863122235 4.350246038084355e-24 6.149572898010286e-16 6.149571457987868e-16 1.4400224182492107e-22
5.365609099470188 4.499307825788001e-24 6.408172145620377e-16 6.40817060304695e-16 1.5425734261708656e-22
5.406003951863644 4.654069203378094e-24 6.678495360385168e-16 6.678493708634954e-16 1.6517502125692062e-22
5.446702915881641 4.814804400770662e-24 6.961162463433813e-16 6.961160695497112e-16 1.767936701424643e-22
5.487708281020852 4.988381886531712e-24 7.266414092369662e-16 7.266412200338402e-16 1.892031259128198e-22
5.529022354014368 5.228557704427607e-24 7.673609315213192e-16 7.673607286673095e-16 2.0285400952559688e-22
5.570647458961463 5.482842804202186e-24 8.107386967206037e-16 8.107384793212395e-16 2.1739936417113255e-22
5.612585937458331 5.752247542366646e-24 8.569786532015416e-16 8.56978420309787e-16 2.328917545408897e-22
5.654840148729818 6.04819093546313e-24 9.078524267071312e-16 9.078521772223424e-16 2.494847887529185e-22
5.67608639626678 6.2491484969630024e-24 9.41541084016382e-16 9.415408254000301e-16 2.5861635181524256e-22
5.686739436050992 6.3527165126062006e-24 9.589417741918976e-16 9.589415108959053e-16 2.632959920561667e-22
5.6974124697621304 6.45840950281888e-24 9.767258306896103e-16 9.767255626365566e-16 2.680530536134723e-22
5.718818669136295 6.676374404538718e-24 1.0134829405145337e-15 1.0134826627104558e-15 2.7780407797484155e-22
5.740305295436557 6.91648408142828e-24 1.0538767064852698e-15 1.053876418457661e-15 2.880276085315467e-22
5.7835210386641895 7.538360473328333e-24 1.1572805488866814e-15 1.1572802381569773e-15 3.1072970416926453e-22
5.827062130521658 8.254267057495127e-24 1.27672569122376e-15 1.2767253558298282e-15 3.353939318848108e-22
5.8489554468988025 8.755768739492123e-24 1.3593836076011852e-15 1.3593832577442183e-15 3.498569665572051e-22
5.870931020387893 9.293783737348024e-24 1.448334824426331e-15 1.448334459528773e-15 3.64897557799059e-22
5.892989160043636 9.871246301665097e-24 1.5441058330904996e-15 1.544105452553672e-15 3.8053682793648427e-22
5.915130176081913 1.0527724706562498e-23 1.652982514867102e-15 1.6529821175306787e-15 3.973364232484639e-22
5.95966208400165 1.236170399411267e-23 1.9555521802957057e-15 1.9555517421568215e-15 4.381388844027925e-22
6.004529249263818 1.5003224176133358e-23 2.3912941215439667e-15 2.3912936318790347e-15 4.89664931851449e-22
6.027089341400364 1.6838631818009674e-23 2.6939148437915605e-15 2.693914321367072e-15 5.224244879421203e-22
6.049734195844842 1.900705815358597e-23 3.0522537094915535e-15 3.052253150408244e-15 5.590833103838866e-22
6.095279466722835 2.526895826922988e-23 4.088371893108692e-15 4.088371234842399e-15 6.582662928044968e-22
6.141167624020661 3.4903205781042e-23 5.6896519780274345e-15 5.68965117597696e-15 8.0205047444773675e-22
6.164241091010745 4.105575561854647e-23 6.717738572211308e-15 6.717737675685253e-15 8.965260557384495e-22
6.187401249150058 4.806336411666853e-23 7.893904699123895e-15 7.893903698353047e-15 1.000770845842271e-21
6.1990139391386085 5.1485393682170573e-23 8.471807595334412e-15 8.471806540881193e-15 1.054453219962113e-21
6.204828454712694 5.328788695793232e-23 8.776628412240694e-15 8.77662732987504e-15 1.0823656561738487e-21
6.210648424152782 5.46041427754919e-23 9.001854142412558e-15 9.001853036812718e-15 1.1055998401857554e-21
6.233982942956859 5.907692911067314e-23 9.775814561192196e-15 9.775813372975994e-15 1.1882162034883404e-21
6.239830258556775 5.964932019129566e-23 9.87978985847546e-15 9.879788658767004e-15 1.1997084543382616e-21
6.245683058788269 5.970012227022056e-23 9.897479150122657e-15 9.897477938819615e-15 1.2113030418586032e-21
6.257405133728602 5.957994995532305e-23 9.89609467026772e-15 9.896093438642901e-15 1.2316248175331843e-21
6.269149208991335 5.87038159300186e-23 9.768870941674164e-15 9.768869703290144e-15 1.2383840190866161e-21
6.280915325867298 5.650272464306618e-23 9.420235550009892e-15 9.42023432173328e-15 1.228276609726858e-21
6.304513850009849 5.1073193541199774e-23 8.547006825279063e-15 8.547005632912664e-15 1.1923664005931271e-21
6.32820103803542 4.4341948645138596e-23 7.44842544965934e-15 7.448424312775617e-15 1.1368837235514496e-21
6.3519772230701035 3.816897972760121e-23 6.4355981240185034e-15 6.43559703953807e-15 1.0844804325204777e-21
6.375842739491607 3.2975612555129425e-23 5.5808442372993554e-15 5.580843198769886e-15 1.0385294699290045e-21
6.399797922933955 2.881472847415009e-23 4.894972155127219e-15 4.8949711472305394e-15 1.0078966796627631e-21
6.42384311029221 2.5355465673333523e-23 4.323504842952401e-15 4.3235038608259826e-15 9.821264189070946e-22
6.447978639727206 2.2836106954537514e-23 3.908544775819478e-15 3.908543805182655e-15 9.706368241702019e-22
6.472204850670314 2.0737817778319068e-23 3.562745020006835e-15 3.5627440572868045e-15 9.627200307820815e-22
6.496522083828205 1.937596050852841e-23 3.3412855520534455e-15 3.3412845847974356e-15 9.672560105014822e-22
