Dust emission spectrum from A.P. Jones, M. Kohler, N. Ysard, M. Bocchio, and L. Verstraete (2017), A&A, 602A, 46J 
inside the DustPedia framework.

lambda    nu*dP/dnu     j_nu    j_nu(carb.) j_nu(sil)
 (um)   (erg s-1 H-1) (Jy cm2 sr-1 H-1)
0.9927057738263894 6.374519010599254e-22 1.679721965838066e-14 1.6797219658378462e-14 2.201131829514334e-27
1.0001793341362166 6.479832614475924e-22 1.7203273636535594e-14 1.7203273636532946e-14 2.6520597027847713e-27
1.0077091589558085 6.584996037185015e-22 1.7614087800323552e-14 1.761408780032036e-14 3.191298863266373e-27
1.0114953028030835 6.637508478936091e-22 1.782125942313052e-14 1.782125942312702e-14 3.499060541277901e-27
1.0152956718711033 6.689967874370938e-22 1.8029596199443607e-14 1.802959619943977e-14 3.835273818677799e-27
1.0229392996569957 6.794655560618801e-22 1.8449590999783515e-14 1.844959099977891e-14 4.603347764869345e-27
1.0267826658714554 6.8467568899234e-22 1.8660912171918167e-14 1.866091217191312e-14 5.0410199989996104e-27
1.0306404723013447 6.898782137059769e-22 1.887335270344492e-14 1.8873352703439394e-14 5.5185310345534994e-27
1.03451277320114 6.950726281420089e-22 1.9086903453771637e-14 1.90869034537656e-14 6.039331799187248e-27
1.0383996230291617 7.002584330240776e-22 1.9301555168030886e-14 1.9301555168024275e-14 6.60715576291121e-27
1.0403485208654093 7.028479516434821e-22 1.9409290963780636e-14 1.940929096377373e-14 6.909950717228803e-27
1.0423010764483396 7.054351319559836e-22 1.9517298479269085e-14 1.9517298479261855e-14 7.226040624859391e-27
1.0462171883269815 7.10602231515311e-22 1.9734123910638522e-14 1.9734123910630624e-14 7.900351544291458e-27
1.0471985131304309 7.118924489708127e-22 1.9788498228897274e-14 1.9788498228889193e-14 8.078134312622285e-27
1.048180758391296 7.131820281714594e-22 1.9842939430348257e-14 1.9842939430340002e-14 8.259751514058672e-27
1.0501480137395462 7.157592413449306e-22 1.9952021877591183e-14 1.995202187758254e-14 8.634806016376828e-27
1.0521189612883777 7.183338102347e-22 2.0061370037830754e-14 2.006137003782172e-14 9.026164158779108e-27
1.0531058218030118 7.19618107429083e-22 2.0116088122686602e-14 2.0116088122677373e-14 9.228179831620237e-27
1.0540936079674168 7.208952445514846e-22 2.0170690866715683e-14 2.0170690866706254e-14 9.434570346774956e-27
1.058054026499678 7.25996536880148e-22 2.0389746500949177e-14 2.0389746500938874e-14 1.0305263651960382e-26
1.0590464539527713 7.27270008612977e-22 2.04446707940834e-14 2.044467079407287e-14 1.053468424170495e-26
1.06003981227728 7.285427249299872e-22 2.049965892774197e-14 2.0499658927731202e-14 1.0768995819086865e-26
1.0620293250338977 7.310858616742637e-22 2.060982608702482e-14 2.060982608701357e-14 1.1252690976060783e-26
1.0660195594769086 7.361627448870677e-22 2.0830919545513532e-14 2.0830919545501244e-14 1.2283271261990713e-26
1.070024785945596 7.4122671605418415e-22 2.105301670298214e-14 2.1053016702968738e-14 1.3403929548009403e-26
1.0740450607676866 7.462773083709887e-22 2.1276107294195775e-14 2.1276107294181153e-14 1.4622134251273952e-26
1.07808044048254 7.513140587678503e-22 2.150018096431634e-14 2.1500180964300395e-14 1.5945936988617212e-26
1.0861967418109137 7.613352995832386e-22 2.1950979050080264e-14 2.1950979050061316e-14 1.8945719594580723e-26
1.0902777775684922 7.662986420413701e-22 2.217709460970679e-14 2.2177094609686154e-14 2.064112256762338e-26
1.0943741465085532 7.712459751649575e-22 2.2404134354453978e-14 2.2404134354431495e-14 2.248105776518688e-26
1.1026131145906286 7.810908545395092e-22 2.2860942937883862e-14 2.2860942937857215e-14 2.6642071150526073e-26
1.1109141095355224 7.908664624690334e-22 2.3321317147059114e-14 2.332131714702758e-14 3.153307971947025e-26
1.1192775983109025 8.005603166833326e-22 2.378489854789092e-14 2.3784898547853652e-14 3.727466111744032e-26
1.1277040513999907 8.101273901264746e-22 2.4250343212384837e-14 2.4250343212340835e-14 4.4005998474344015e-26
1.1361939428280308 8.196138944772919e-22 2.4719018063761173e-14 2.4719018063709275e-14 5.188751243609874e-26
1.1447477501889525 8.290166655676768e-22 2.519083091714222e-14 2.5190830917081117e-14 6.110387950321052e-26
1.1533659546722406 8.383377370837861e-22 2.5665845564283896e-14 2.566584556421202e-14 7.18675162593234e-26
1.1707974979042381 8.567648825554044e-22 2.6626425985491525e-14 2.662642598539248e-14 9.904875925993169e-26
1.1884924949847024 8.748255275224784e-22 2.7598617279493406e-14 2.759861727935756e-14 1.3583916054854399e-25
1.2064549276569216 8.92660891028001e-22 2.858689869714017e-14 2.8586898696954783e-14 1.8539153072486455e-25
1.2246888378427687 9.10076175912278e-22 2.9585092953755645e-14 2.958509295350385e-14 2.5180112647371613e-25
1.2431983285522175 9.270306284229527e-22 3.059172268835958e-14 3.059172268801921e-14 3.4036936090198645e-25
1.2619875648066055 9.435178941010209e-22 3.160637217076063e-14 3.1606372170302713e-14 4.579239413587824e-25
1.3004222497298317 9.74816759796591e-22 3.3649360259873724e-14 3.3649360259056364e-14 8.17365654447576e-25
1.3400274889804893 1.003850175709778e-21 3.570689116859458e-14 3.570689116716198e-14 1.4326016865377462e-24
1.3808389325824078 1.0305103560245331e-21 3.777155087288804e-14 3.777155087042133e-14 2.4667201231545604e-24
1.4228933163050095 1.054926886366106e-21 3.984411028694955e-14 3.984411028277497e-14 4.174572274528215e-24
1.466228494730424 1.077687143188486e-21 4.194341525713012e-14 4.1943415250182787e-14 6.947327680494371e-24
1.5108834753276823 1.0983485715513718e-21 4.4049460518794445e-14 4.404946050742004e-14 1.1374399496452324e-23
1.5568984535646726 1.116553042473196e-21 4.614334559849142e-14 4.614334558015165e-14 1.8339760300798462e-23
1.6043148490894465 1.1323336403678212e-21 4.822069285247336e-14 4.8220692823298846e-14 2.917450334457805e-23
1.6531753430134553 1.1457381695587445e-21 5.02775068472448e-14 5.0277506801507705e-14 4.573710131249485e-23
1.7035239163302658 1.156925700393114e-21 5.2314627456619804e-14 5.2314627385939816e-14 7.067999655128714e-23
1.755405889504358 1.1668161194377423e-21 5.4368757034930795e-14 5.4368756927208146e-14 1.077226518527038e-22
1.8088679632656115 1.1751821133603449e-21 5.6426286919330104e-14 5.642628675735163e-14 1.619784633458971e-22
1.8639582606462262 1.1818696685340044e-21 5.847566954270918e-14 5.847566930231559e-14 2.4039359777349276e-22
1.9207263702978936 1.1869902290439219e-21 6.051765288704203e-14 6.051765253477515e-14 3.522668709724564e-22
1.979223391128241 1.1908033911254267e-21 6.256109056616818e-14 6.256109005627907e-14 5.098891011151328e-22
2.039501978296691 1.1936198698448586e-21 6.461890638725736e-14 6.461890565797666e-14 7.292807159848214e-22
2.1016163906111602 1.1963102021787187e-21 6.673700096101442e-14 6.673699992988401e-14 1.0311304216882198e-21
2.1656225393682647 1.1993791322983982e-21 6.894593796516826e-14 6.894593652342471e-14 1.4417435442707907e-21
2.231578038680979 1.2028627190694125e-21 7.125208488686645e-14 7.125208289270745e-14 1.99415899811773e-21
2.299542257339062 1.2070631665469282e-21 7.367850845997366e-14 7.36785057305616e-14 2.7294120429343347e-21
2.369576372248914 1.2126488248351162e-21 7.62737666836649e-14 7.627376298568371e-14 3.697981171488806e-21
2.4417434235010123 1.220408929547972e-21 7.909970000351629e-14 7.909969504232049e-14 4.9611957951048606e-21
2.5161083711144245 1.2316951743415784e-21 8.226252117448919e-14 8.226251458147049e-14 6.5930186914556776e-21
2.5927381535095444 1.248719587246386e-21 8.593953821071889e-14 8.593952952899128e-14 8.681727625618364e-21
2.6717017477616296 1.274123188822114e-21 9.035846144579221e-14 9.035845011461332e-14 1.1331178935955543e-20
2.753070231689431 1.3118823404103415e-21 9.586975323739844e-14 9.586973857482024e-14 1.4662578162438953e-20
2.836916847834745 1.3710057199019026e-21 1.0324173782373894e-13 1.0324171900692507e-13 1.8816813871100165e-20
2.9233170693905177 1.4713340269847142e-21 1.1417121803488674e-13 1.1417119408237372e-13 2.3952512991152372e-20
2.967498994190263 1.5565380162223123e-21 1.2260826465262246e-13 1.226082377485137e-13 2.6904108777193142e-20
3.0123486681368425 1.6560471103290934e-21 1.3241810199268544e-13 1.3241807181210022e-13 3.018058520863741e-20
3.0578761833420214 1.8787031213834156e-21 1.5249214956076608e-13 1.5249211573902327e-13 3.382174282855722e-20
3.1040917844459814 2.1656205380593384e-21 1.7843758997375278e-13 1.7843755213844805e-13 3.783530467661888e-20
3.127460860933648 2.469141135346522e-21 2.0497799048764723e-13 2.049779504826717e-13 4.0004975494655804e-20
3.1510058709225794 2.873540310462816e-21 2.40345469027935e-13 2.403454267459952e-13 4.228193978151831e-20
3.162844764501044 3.2499739601813975e-21 2.7285203121217785e-13 2.728519877456098e-13 4.346656796498255e-20
3.1747281389236908 3.6877352422436755e-21 3.1076758158564304e-13 3.1076753690613626e-13 4.4679506804281294e-20
3.1986289994194426 4.9087768870800205e-21 4.167797371656787e-13 4.167796899668099e-13 4.7198868970125417e-20
3.2227097969389145 7.787069531289307e-21 6.661387303115755e-13 6.661386804231764e-13 4.988839906718719e-20
3.2348180950136065 1.0516591734108084e-20 9.03013641954127e-13 9.030135906233406e-13 5.133078670846435e-20
3.240889293275058 1.2557263952542607e-20 1.0802608880252464e-12 1.0802608359319497e-12 5.2093296498801105e-20
3.2469718861334385 1.491800689263911e-20 1.2857566074905046e-12 1.2857565546070182e-12 5.28834858221676e-20
3.2714166318528037 2.751062359094706e-20 2.3889426561157013e-12 2.3889425999483965e-12 5.61673044574857e-20
3.2744851364798273 2.829782791076296e-20 2.459606078337527e-12 2.4596060217804927e-12 5.655703389460333e-20
3.2775565192852394 2.910764293784779e-20 2.5323670929297553e-12 2.5323670359806327e-12 5.694912199234757e-20
3.283707930232385 2.8328854943841354e-20 2.469238134269078e-12 2.4692380766157925e-12 5.76532844567239e-20
3.2898708863219004 2.5859077237380376e-20 2.2581943186008045e-12 2.2581942603038146e-12 5.829698986153425e-20
3.29141343181113 2.527664213014912e-20 2.2083670053988993e-12 2.208366946940093e-12 5.845880583866851e-20
3.292184975758714 2.4990454165272064e-20 2.1838751701260234e-12 2.183875111586176e-12 5.853984763870813e-20
3.295272960557952 2.3184006502009276e-20 2.027912992757443e-12 2.027912933902019e-12 5.885542420339849e-20
3.3076538914384823 1.6925920099375322e-20 1.486078594749365e-12 1.4860785346234732e-12 6.012589171242429e-20
3.310756385682612 1.5652240441869397e-20 1.3755398262746206e-12 1.3755397658277731e-12 6.044684723992296e-20
3.313861789986515 1.447707292880219e-20 1.273457884733613e-12 1.2734578239644677e-12 6.076914550657784e-20
3.3200813396944477 1.2829031005226916e-20 1.1306078891136965e-12 1.1306078276517439e-12 6.146195277246738e-20
3.345076488085796 9.889074660085362e-21 8.780740479949031e-13 8.780739834382528e-13 6.455665070690469e-20
3.3482140837626964 9.99931744010254e-21 8.886955544755413e-13 8.886954894983331e-13 6.49772080734223e-20
3.3513546224236106 1.0110779073646008e-20 8.994446418022579e-13 8.994445764021654e-13 6.540009276863873e-20
3.3576445397418455 1.0925373669843549e-20 9.73734258602793e-13 9.737341923175503e-13 6.628524295347157e-20
3.3702598118196083 1.392995036470308e-20 1.2461846105082483e-12 1.2461845423610776e-12 6.814717127697555e-20
3.382922481734668 1.4614266608013794e-20 1.3123162457520425e-12 1.312316175787312e-12 6.99647304336753e-20
3.389271646505754 1.496878995399004e-20 1.3466740944568792e-12 1.3466740235678962e-12 7.088898352245139e-20
3.395632727569191 1.5350805631419e-20 1.383634290472071e-12 1.3836342186297069e-12 7.184236416348849e-20
3.421196662673239 1.7185099096542157e-20 1.5606284277085412e-12 1.560628351900768e-12 7.580777356914397e-20
3.4276182099114902 1.681544014081366e-20 1.5299249031675898e-12 1.529924826463995e-12 7.670359491539558e-20
3.4340518103208963 1.5195614041194362e-20 1.385142741171966e-12 1.3851426636166056e-12 7.755536044059102e-20
3.4469541582030403 1.28886844214859e-20 1.1792707614147394e-12 1.1792706822141465e-12 7.92005927088468e-20
3.472904465399547 1.224214266617322e-20 1.128547143996302e-12 1.1285470609995836e-12 8.299671828478624e-20
3.4990501388274233 1.1253288573217659e-20 1.045199166017683e-12 1.045199079101192e-12 8.691649110287572e-20
3.5253949054701885 7.734181683712653e-21 7.237549974461585e-13 7.237549066809087e-13 9.0765249756193e-20
3.5519380250092896 4.426630676188541e-21 4.173573843035647e-13 4.173572896289766e-13 9.467458808454194e-20
3.578680990867387 3.115144544138273e-21 2.9591748169856693e-13 2.9591738271123684e-13 9.898733000671974e-20
3.605625307711299 2.5846495324641354e-21 2.473726544642007e-13 2.4737255089497014e-13 1.0356923055754552e-19
3.660119384959845 2.1975882748176908e-21 2.13506456937581e-13 2.1350634359458963e-13 1.133429914044886e-19
3.715437065384467 1.9234535285804105e-21 1.8969725233850602e-13 1.8969712847997443e-13 1.2385853162563674e-19
3.8285932144167436 1.7841652994177337e-21 1.8131918018436083e-13 1.8131903294850358e-13 1.4723585727043783e-19
3.94519561050918 1.7572801006898432e-21 1.8402590638303437e-13 1.8402573242458376e-13 1.7395845064384806e-19
4.06534921144712 1.7766136727934937e-21 1.9171685249772506e-13 1.9171664811273215e-13 2.0438499293954116e-19
4.189162171576248 1.8227777265503412e-21 2.0268906499957854e-13 2.0268882599072725e-13 2.390088512757749e-19
4.316745939156006 1.8885680222920655e-21 2.1640064655631828e-13 2.164003683056888e-13 2.7825062945799836e-19
4.448215356677963 1.9715910645431466e-21 2.3279415903121466e-13 2.3279383676385253e-13 3.222673620785071e-19
4.58368876423945 2.0721810022778697e-21 2.5212286981454604e-13 2.5212249803164837e-13 3.7178289768345425e-19
4.723288106065518 2.192691592144381e-21 2.749105592878282e-13 2.7491013144373875e-13 4.278440894958733e-19
4.867139040275056 2.3377949498217807e-21 3.020296658338882e-13 3.0202917546722467e-13 4.903666634864696e-19
4.940699165968905 2.4253836320236002e-21 3.1808140889383564e-13 3.180808843830806e-13 5.2451075508927925e-19
5.015371051989984 2.516169968239342e-21 3.349750622569622e-13 3.3497450156937726e-13 5.606875848737605e-19
5.091171501069577 2.6269241370178244e-21 3.550051807342575e-13 3.550045811411544e-13 5.995931031734665e-19
5.129500256944802 2.683802117118814e-21 3.654222439083587e-13 3.654216240001514e-13 6.199082073964408e-19
5.168117569889187 2.743113793825415e-21 3.763098982878403e-13 3.7630925735802667e-13 6.409298137016593e-19
5.20702561229733 2.8158454270338515e-21 3.8919563239031573e-13 3.89194968858691e-13 6.635316248535763e-19
5.246226572918644 2.890455255655197e-21 4.025156093946615e-13 4.0251492255683314e-13 6.868378283829309e-19
5.265937586045735 2.9284833841503702e-21 4.0934350572966947e-13 4.0934280696780855e-13 6.987618607126081e-19
5.285722656980489 2.96700405669011e-21 4.162861337515219e-13 4.1628542288129043e-13 7.108702314630264e-19
5.305582063971359 3.006025284629591e-21 4.2334564711351743e-13 4.233449239477238e-13 7.231657936640842e-19
5.3255160863122235 3.047937804619219e-21 4.3086104909967554e-13 4.308603133907346e-13 7.357089408847193e-19
5.365609099470188 3.152228565624593e-21 4.4895846367939043e-13 4.4895770184671487e-13 7.618326754281235e-19
5.406003951863644 3.2605080173504723e-21 4.6787631886884e-13 4.678755300732924e-13 7.887955476176086e-19
5.446702915881641 3.372968863352101e-21 4.876581120956744e-13 4.876572954707137e-13 8.166249607011653e-19
5.487708281020852 3.4944803975043596e-21 5.090296249068819e-13 5.090287794750561e-13 8.454318255987716e-19
5.529022354014368 3.6631678753000236e-21 5.376189901717699e-13 5.376181142673455e-13 8.75904424482379e-19
5.570647458961463 3.841807502898623e-21 5.68081580884333e-13 5.680806734847552e-13 9.073995775635226e-19
5.612585937458331 4.03111471939247e-21 6.005616478919042e-13 6.005607079387883e-13 9.399531158376743e-19
5.654840148729818 4.2391846956628585e-21 6.363149170194906e-13 6.363139432948724e-13 9.737246180935717e-19
5.67608639626678 4.380768852464668e-21 6.600377405304607e-13 6.600367489566008e-13 9.915738598683966e-19
5.686739436050992 4.453747813295586e-21 6.722926832025162e-13 6.722916825863822e-13 1.0006161339267675e-18
5.6974124697621304 4.5282311729125954e-21 6.848188167670726e-13 6.848178070292472e-13 1.009737825488189e-18
5.718818669136295 4.681855878777195e-21 7.107122482320114e-13 7.107112200095572e-13 1.0282224539870644e-18
5.740305295436557 4.851169537575245e-21 7.391811380856542e-13 7.391800909157846e-13 1.0471698694534787e-18
5.7835210386641895 5.290198564959934e-21 8.121452828685542e-13 8.121441956918162e-13 1.0871767379792702e-18
5.827062130521658 5.795888930605187e-21 8.964769675659862e-13 8.964758385451391e-13 1.129020846620543e-18
5.8489554468988025 6.150477431932858e-21 9.5489710254448e-13 9.548959506023157e-13 1.151942164011822e-18
5.870931020387893 6.530977804391953e-21 1.0177816548112856e-12 1.0177804794607823e-12 1.1753505032195064e-18
5.892989160043636 6.939475050072553e-21 1.0855046643497839e-12 1.0855034650919498e-12 1.1992578340796634e-18
5.915130176081913 7.404008738003263e-21 1.1625206134250066e-12 1.1625193891618216e-12 1.2242631851034838e-18
5.95966208400165 8.702501235820803e-21 1.3766868446162805e-12 1.376685563374662e-12 1.2812416189610668e-18
6.004529249263818 1.0573718875988792e-20 1.6852958733518644e-12 1.6852945261617745e-12 1.3471900900139461e-18
6.027089341400364 1.1874280135312258e-20 1.8996970693096347e-12 1.8996956833244973e-12 1.385985137880073e-18
6.049734195844842 1.3411130938381371e-20 2.1536301843443687e-12 2.1536287565352084e-12 1.4278091603249327e-18
6.095279466722835 1.785005931375317e-20 2.8880367766302716e-12 2.888035244235301e-12 1.5323949699346564e-18
6.141167624020661 2.4680980359943697e-20 4.0233034640297635e-12 4.0233017920931646e-12 1.6719365978666677e-18
6.164241091010745 2.904315877452355e-20 4.752180175934651e-12 4.752178415862884e-12 1.7600717656069065e-18
6.187401249150058 3.4012273182890226e-20 5.5861600210624815e-12 5.586158167128452e-12 1.8539340289837536e-18
6.1990139391386085 3.6438656265554425e-20 5.995900251243632e-12 5.995898349194603e-12 1.9020490292320196e-18
6.204828454712694 3.771677798234545e-20 6.212033618810091e-12 6.212031692089946e-12 1.9267201463393445e-18
6.210648424152782 3.8649886929116574e-20 6.371689528890527e-12 6.371687581069608e-12 1.9478209180449747e-18
6.233982942956859 4.182029683685102e-20 6.920255892197474e-12 6.920253868824312e-12 2.023373159451863e-18
6.239830258556775 4.22257343327075e-20 6.9939000224824e-12 6.993897987636115e-12 2.034846287180865e-18
6.245683058788269 4.226117708599256e-20 7.00633605363481e-12 7.006334007246473e-12 2.046388337794923e-18
6.257405133728602 4.217474032923767e-20 7.005128794251451e-12 7.005126727067403e-12 2.0671840492416466e-18
6.269149208991335 4.1552061769864767e-20 6.914656608936276e-12 6.914654531624401e-12 2.077311875276124e-18
6.280915325867298 3.9989588937492404e-20 6.6671359605926e-12 6.667133886431814e-12 2.0741607839536896e-18
6.304513850009849 3.613612205789385e-20 6.047314852531948e-12 6.0473127969014566e-12 2.055630492724928e-18
6.32820103803542 3.1359383632819525e-20 5.267653729104478e-12 5.267651706200815e-12 2.022903662728444e-18
6.3519772230701035 2.697883456455841e-20 4.548849310381852e-12 4.5488473169767374e-12 1.9934051157004136e-18
6.375842739491607 2.3293663471768903e-20 3.9422560334452515e-12 3.9422540649038e-12 1.9685414511006585e-18
6.399797922933955 2.0340423810330334e-20 3.4553790178649396e-12 3.4553770603505664e-12 1.9575143750839508e-18
6.42384311029221 1.7885247726028835e-20 3.049715440336568e-12 3.049713490319434e-12 1.9500171326380944e-18
6.447978639727206 1.6096482758641886e-20 2.7550152799953112e-12 2.7550133255945897e-12 1.9544007217751633e-18
6.472204850670314 1.4606572077812576e-20 2.5094005784930655e-12 2.5093986169504488e-12 1.9615426165462392e-18
6.496522083828205 1.3638750697071035e-20 2.3519329858318022e-12 2.351931007035747e-12 1.9787960555914542e-18
