Dust emission spectrum from A.P. Jones, M. Kohler, N. Ysard, M. Bocchio, and L. Verstraete (2017), A&A, 602A, 46J 
inside the DustPedia framework.

lambda    nu*dP/dnu     j_nu    j_nu(carb.) j_nu(sil)
 (um)   (erg s-1 H-1) (Jy cm2 sr-1 H-1)
0.9927057738263894 1.86567145995037e-20 4.916150264992635e-13 4.916149831143684e-13 4.3384895034728765e-20
1.0001793341362166 1.8969847088916626e-20 5.036294758367998e-13 5.036294236359224e-13 5.22008774192195e-20
1.0077091589558085 1.928430676012019e-20 5.158324629551882e-13 5.158324002309582e-13 6.272423011334733e-20
1.0114953028030835 1.944202148942101e-20 5.220050712893203e-13 5.220050025673332e-13 6.872198711286995e-20
1.0152956718711033 1.9600052917406452e-20 5.28225316211692e-13 5.282252409436891e-13 7.526800271813816e-20
1.0229392996569957 1.9916892640210948e-20 5.408052254013379e-13 5.408051352009585e-13 9.020037949351852e-20
1.0267826658714554 2.007534183981129e-20 5.471556781069582e-13 5.471555794097954e-13 9.869716299135286e-20
1.0306404723013447 2.0234081580843106e-20 5.535541646605585e-13 5.53554056702412e-13 1.0795814661455921e-19
1.03451277320114 2.0393107692672276e-20 5.600008716972213e-13 5.600007536486697e-13 1.1804855178954858e-19
1.0383996230291617 2.0552416163530217e-20 5.664959902069017e-13 5.664958611680576e-13 1.2903884414794448e-19
1.0403485208654093 2.0632175074327015e-20 5.697617646844987e-13 5.697616297894999e-13 1.3489499883509955e-19
1.0423010764483396 2.0712003144453604e-20 5.730397157184452e-13 5.73039574713318e-13 1.4100512725427135e-19
1.0462171883269815 2.0871864953203236e-20 5.796322484863339e-13 5.796320944567704e-13 1.5402956361083144e-19
1.0471985131304309 2.0911872931916237e-20 5.812880317446878e-13 5.812878742834371e-13 1.5746125057691614e-19
1.048180758391296 2.095189781386103e-20 5.829468815096653e-13 5.829467205436335e-13 1.6096603189866432e-19
1.0501480137395462 2.103199807815984e-20 5.862737936801254e-13 5.862736254793008e-13 1.6820082465437544e-19
1.0521189612883777 2.1112165334441728e-20 5.89613011443407e-13 5.896128356972852e-13 1.7574612170382213e-19
1.0531058218030118 2.1152221235441817e-20 5.912857694518793e-13 5.912855898124734e-13 1.7963940594036886e-19
1.0540936079674168 2.119212100934379e-20 5.929567782839999e-13 5.929565946680124e-13 1.836159873918738e-19
1.058054026499678 2.1351878201448958e-20 5.996714333067938e-13 5.996712329262493e-13 2.0038054459166206e-19
1.0590464539527713 2.1391856794895708e-20 6.013577690078486e-13 6.013575642129129e-13 2.0479493573766895e-19
1.06003981227728 2.1431851017580183e-20 6.030471803733876e-13 6.030469710711665e-13 2.0930222095694013e-19
1.0620293250338977 2.1511886178686084e-20 6.064352440508978e-13 6.064350254479645e-13 2.186029332897856e-19
1.0660195594769086 2.1672142201688185e-20 6.132484341509983e-13 6.132481957478619e-13 2.384031361231716e-19
1.070024785945596 2.183264372254731e-20 6.20111233183676e-13 6.201109732732646e-13 2.5991041128549525e-19
1.0740450607676866 2.199338838851458e-20 6.270238768727737e-13 6.270235936088141e-13 2.832639596280608e-19
1.07808044048254 2.2154374045664565e-20 6.339866072972302e-13 6.339862986835944e-13 3.086136358161433e-19
1.0861967418109137 2.247681596354279e-20 6.480562724443778e-13 6.480559064856822e-13 3.659586957844785e-19
1.0902777775684922 2.2637712470335177e-20 6.551475673564603e-13 6.551471690422294e-13 3.9831423073165827e-19
1.0943741465085532 2.2798833874089543e-20 6.622895336740383e-13 6.622891002862515e-13 4.333877866384592e-19
1.1026131145906286 2.3121747353908995e-20 6.767265854028046e-13 6.767260728357354e-13 5.125670691907119e-19
1.1109141095355224 2.344555060128138e-20 6.913697156317523e-13 6.913691102122912e-13 6.054194611468805e-19
1.1192775983109025 2.3769989916619066e-20 7.062138690479326e-13 7.062131548870886e-13 7.141608440139768e-19
1.1277040513999907 2.409391074508618e-20 7.212268243463414e-13 7.21225983005233e-13 8.413411081859555e-19
1.1361939428280308 2.4418688990103976e-20 7.364516613334081e-13 7.364506714429069e-13 9.898905011528783e-19
1.1447477501889525 2.474433440327994e-20 7.518912103937248e-13 7.518900472219999e-13 1.1631717244593715e-18
1.1533659546722406 2.5070973709294573e-20 7.675519195966554e-13 7.675505545561845e-13 1.3650404708966044e-18
1.1707974979042381 2.572823353877086e-20 7.995786475447926e-13 7.995767747063657e-13 1.872838426572073e-18
1.1884924949847024 2.6389685135294934e-20 8.325303700704215e-13 8.325278134407125e-13 2.556629708977935e-18
1.2064549276569216 2.705979714423956e-20 8.66572835779443e-13 8.665693629793254e-13 3.4728001177272385e-18
1.2246888378427687 2.773440088574748e-20 9.016001626446845e-13 9.015954685406899e-13 4.6941039944642255e-18
1.2431983285522175 2.841303405760101e-20 9.376212953219458e-13 9.376149812396305e-13 6.314082315134809e-18
1.2619875648066055 2.90967870162105e-20 9.746968077207876e-13 9.746883553301697e-13 8.452390617725112e-18
1.3004222497298317 3.0475969761969234e-20 1.0519893872193013e-12 1.0519744542893642e-12 1.493292993754504e-17
1.3400274889804893 3.187695927646628e-20 1.1338615494744651e-12 1.1338356520407602e-12 2.5897433704985088e-17
1.3808389325824078 3.330587769345989e-20 1.2207685699713225e-12 1.2207244617349187e-12 4.410823640404691e-17
1.4228933163050095 3.477562130358e-20 1.313459452427083e-12 1.3133856365387081e-12 7.381588837482438e-17
1.466228494730424 3.6312301776298506e-20 1.4132691124432676e-12 1.4131476715296586e-12 1.2144091360869563e-16
1.5108834753276823 3.791482329344259e-20 1.5205805834322536e-12 1.5203840859391881e-12 1.9649749306533645e-16
1.5568984535646726 3.9584060183727354e-20 1.6358747858528747e-12 1.635561755898561e-12 3.1302995431371506e-16
1.6043148490894465 4.1331843207930134e-20 1.760126207774569e-12 1.7596343186361751e-12 4.918891383933623e-16
1.6531753430134553 4.317105331485721e-20 1.894440620300218e-12 1.8936790987587234e-12 7.6152154149481925e-16
1.7035239163302658 4.511678803279795e-20 2.040120603400121e-12 2.0389588027173595e-12 1.161800682761431e-15
1.755405889504358 4.7206537359428166e-20 2.1996274454897752e-12 2.197879886265547e-12 1.747559224227684e-15
1.8088679632656115 4.944533484687579e-20 2.374114291881385e-12 2.3715216914320165e-12 2.5926004493686327e-15
1.8639582606462262 5.183814939196867e-20 2.5648094491758566e-12 2.5610144293652303e-12 3.795019810626666e-15
1.9207263702978936 5.439806499436973e-20 2.773437501425468e-12 2.767954364756257e-12 5.483136669211303e-15
1.979223391128241 5.714245930502963e-20 3.0020863212162255e-12 2.9942638041871943e-12 7.822517029031567e-15
2.039501978296691 6.008850417279556e-20 3.2530066934935284e-12 3.2419832069717465e-12 1.1023486521782679e-14
2.1016163906111602 6.327211510439834e-20 3.529679174212065e-12 3.514328643220867e-12 1.5350530991198314e-14
2.1656225393682647 6.671709887809213e-20 3.835211766316205e-12 3.814081419260826e-12 2.1130347055379722e-14
2.231578038680979 7.042891857721983e-20 4.171886953846719e-12 4.143126138950555e-12 2.8760814896164656e-14
2.299542257339062 7.44236953293099e-20 4.542783690127517e-12 4.504063534362623e-12 3.872015576489548e-14
2.369576372248914 7.872493997956034e-20 4.9516789867033095e-12 4.900102512299355e-12 5.157647440395549e-14
2.4417434235010123 8.335887303302502e-20 5.4028298957020195e-12 5.334835631875042e-12 6.799426382697529e-14
2.5161083711144245 8.83656352215486e-20 5.901768627449304e-12 5.813025315547985e-12 8.874331190131713e-14
2.5927381535095444 9.380218416808184e-20 6.455665845955194e-12 6.340963022901519e-12 1.1470282305367504e-13
2.6717017477616296 9.971837755137626e-20 7.071843015229015e-12 6.924985685160702e-12 1.4685733006831218e-13
2.753070231689431 1.0617926443897789e-19 7.759369546440645e-12 7.573074197433222e-12 1.8629534900742332e-13
2.836916847834745 1.1333929317902949e-19 8.534862708198246e-12 8.300650639749963e-12 2.3421206844828724e-13
2.9233170693905177 1.2151609738677035e-19 9.429293821149166e-12 9.137455351164413e-12 2.9183846998475247e-13
2.967498994190263 1.2624928919549512e-19 9.944637458617598e-12 9.620596796890515e-12 3.2404066172708245e-13
3.0123486681368425 1.3128802751876064e-19 1.049783626924899e-11 1.0138503793559282e-11 3.5933247568970557e-13
3.0578761833420214 1.3849615350294024e-19 1.1241571865814229e-11 1.0843494870809456e-11 3.9807699500477244e-13
3.1040917844459814 1.466824418998617e-19 1.2085986886479725e-11 1.1645868652107045e-11 4.401182343726799e-13
3.127460860933648 1.5342433750396861e-19 1.273666051051737e-11 1.2274080248585408e-11 4.625802619319606e-13
3.1510058709225794 1.6171306812545188e-19 1.352582494320331e-11 1.3039866015151048e-11 4.859589280522642e-13
3.162844764501044 1.6877644375042334e-19 1.4169650607139182e-11 1.3671606512691277e-11 4.980440944479107e-13
3.1747281389236908 1.7668943505299695e-19 1.4889720876422164e-11 1.4379355253238182e-11 5.103656231839812e-13
3.1986289994194426 1.9770250932494201e-19 1.678593298675244e-11 1.6250139807074096e-11 5.357931796783417e-13
3.2227097969389145 2.448416086548558e-19 2.0944782586240118e-11 2.0382080776754248e-11 5.627018094858704e-13
3.2348180950136065 2.8853574131792117e-19 2.4775299563678216e-11 2.4198246575017453e-11 5.770529886607694e-13
3.240889293275058 3.2103027879309956e-19 2.761719872757842e-11 2.703257580307252e-11 5.846229245059005e-13
3.2469718861334385 3.5864198028199163e-19 3.0910717442997036e-11 3.031826189617704e-11 5.924555468199898e-13
3.2714166318528037 5.553038602881563e-19 4.822097451053898e-11 4.759617946705309e-11 6.247950434858843e-13
3.2744851364798273 5.676597456776157e-19 4.934016014583056e-11 4.871156213072779e-11 6.285980151027941e-13
3.2775565192852394 5.803399356972307e-19 5.0489617418032754e-11 4.985719816726539e-11 6.324192507673573e-13
3.283707930232385 5.685771934100866e-19 4.95590976418582e-11 4.8919861337270605e-11 6.392363045876034e-13
3.2898708863219004 5.305718984229804e-19 4.6333225104261034e-11 4.568780010696515e-11 6.454249972958854e-13
3.29141343181113 5.215926392301071e-19 4.557045072694964e-11 4.492347210122072e-11 6.469786257289228e-13
3.292184975758714 5.1717806441106e-19 4.519535042987305e-11 4.454759402082933e-11 6.477564090437186e-13
3.295272960557952 4.89606157626245e-19 4.282601837168488e-11 4.217523940638532e-11 6.507789652995601e-13
3.3076538914384823 3.9339066047025995e-19 3.45393004614706e-11 3.387638900234922e-11 6.629114591213732e-13
3.310756385682612 3.7361528117936722e-19 3.2833810653219864e-11 3.216784264750178e-11 6.659680057180834e-13
3.313861789986515 3.552945710826173e-19 3.125304922986538e-11 3.058401529988466e-11 6.690339299807058e-13
3.3200813396944477 3.2981745437501115e-19 2.9066436563436204e-11 2.8390801024773896e-11 6.756355386623094e-13
3.345076488085796 2.86178365740903e-19 2.541044583968301e-11 2.4705371654215875e-11 7.050741854671275e-13
3.3482140837626964 2.881887869459258e-19 2.5612957618626903e-11 2.4903894671888915e-11 7.090629467379811e-13
3.3513546224236106 2.9021604906063683e-19 2.5817325093473815e-11 2.510425623224363e-11 7.130688612301836e-13
3.3576445397418455 3.035405266953335e-19 2.7053336448657546e-11 2.6331889428904156e-11 7.214470197533883e-13
3.3702598118196083 3.5117427343878593e-19 3.1416334136748274e-11 3.0677314895782634e-11 7.390192409656379e-13
3.382922481734668 3.6311585008144966e-19 3.260668783000348e-11 3.1850613909825666e-11 7.560739201778163e-13
3.389271646505754 3.6926049296308465e-19 3.3220690617494496e-11 3.2455977186955466e-11 7.647134305390291e-13
3.395632727569191 3.760052211216073e-19 3.389097157712484e-11 3.311735458959039e-11 7.736169875344533e-13
3.421196662673239 4.084772438884348e-19 3.7094996968192935e-11 3.6284550532103277e-11 8.104464360896591e-13
3.4276182099114902 4.032428100699159e-19 3.668837758530365e-11 3.5869739648114575e-11 8.186379371890625e-13
3.4340518103208963 3.782676712945235e-19 3.448065459501828e-11 3.365428235050378e-11 8.263722445145024e-13
3.4469541582030403 3.4258359293972654e-19 3.1345232863390445e-11 3.0504042797293806e-11 8.411900660966407e-13
3.472904465399547 3.3387960607992277e-19 3.077883391452839e-11 2.9903468485510546e-11 8.753654290178417e-13
3.4990501388274233 3.200571360110186e-19 2.972672827682356e-11 2.8816451418549758e-11 9.102768582737986e-13
3.5253949054701885 2.6755121367631533e-19 2.5037106172306014e-11 2.4093010774959864e-11 9.440953973461568e-13
3.5519380250092896 2.1762048546030548e-19 2.0517979299955617e-11 1.9539971858922884e-11 9.780074410327395e-13
3.578680990867387 1.9916069444592455e-19 1.8918907395380168e-11 1.7903741308177868e-11 1.0151660872023028e-12
3.605625307711299 1.9309326076864294e-19 1.8480645780222472e-11 1.7426392072371573e-11 1.0542537078508986e-12
3.660119384959845 1.9158850537621356e-19 1.861376102228954e-11 1.747760504551958e-11 1.1361559767699583e-12
3.715437065384467 1.9173561104733623e-19 1.8909590510340034e-11 1.7687410672906953e-11 1.2221798374330824e-12
3.8285932144167436 1.9860759376900052e-19 2.018387314916176e-11 1.877791814079912e-11 1.4059550083626437e-12
3.94519561050918 2.0725471761413445e-19 2.1704130858892946e-11 2.009944240217642e-11 1.6046884567165267e-12
4.06534921144712 2.1658030134821937e-19 2.3371481556933722e-11 2.155373126485444e-11 1.8177502920792747e-12
4.189162171576248 2.2622283193474606e-19 2.5155505039656367e-11 2.3110367746922958e-11 2.0451372927334117e-12
4.316745939156006 2.359869717279281e-19 2.7040452161639784e-11 2.4754915880152637e-11 2.2855362814871375e-12
4.448215356677963 2.457312954343854e-19 2.9014541248975538e-11 2.6479465765801527e-11 2.5350754831740053e-12
4.58368876423945 2.5538707831126047e-19 3.107302066113283e-11 2.827938486730552e-11 2.7936357938273103e-12
4.723288106065518 2.64923277343025e-19 3.3214979527289486e-11 3.015253838466426e-11 3.0624411426252295e-12
4.867139040275056 2.742664209108483e-19 3.543364462459593e-11 3.2100152885707255e-11 3.3334917388886694e-12
4.940699165968905 2.7894020862789353e-19 3.658212803368892e-11 3.311151898163315e-11 3.4706090520557665e-12
5.015371051989984 2.8347870888150623e-19 3.773922245107777e-11 3.41309390654222e-11 3.6082833856555653e-12
5.091171501069577 2.8816985171399137e-19 3.8943564775352156e-11 3.5193920982732364e-11 3.749643792619787e-12
5.129500256944802 2.90456123657223e-19 3.954804558306684e-11 3.5727706572069616e-11 3.8203390109972294e-12
5.168117569889187 2.927307249504987e-19 4.015781976664831e-11 3.6266012831033755e-11 3.891806935614567e-12
5.20702561229733 2.95215502245113e-19 4.08035835293491e-11 3.683326718169165e-11 3.970316347657459e-12
5.246226572918644 2.976647239755011e-19 4.1451843107370106e-11 3.740281838008062e-11 4.049024727289474e-12
5.265937586045735 2.9887578778064517e-19 4.177686764760006e-11 3.7688426979676965e-11 4.088440667923085e-12
5.285722656980489 3.000777125825194e-19 4.2102467138293e-11 3.797457628389835e-11 4.127890854394662e-12
5.305582063971359 3.0127042173709124e-19 4.242862570005533e-11 3.8261255640351764e-11 4.167370059703569e-12
5.3255160863122235 3.024950408027435e-19 4.276115163183321e-11 3.855392551832959e-11 4.207226113503617e-12
5.365609099470188 3.0523435140849327e-19 4.347322620096212e-11 3.91835012565491e-11 4.289724944413017e-12
5.406003951863644 3.079511863892312e-19 4.419037362041795e-11 3.981797337801042e-11 4.3724002424075284e-12
5.446702915881641 3.1064600366372917e-19 4.491267183716849e-11 4.045746180256423e-11 4.4552100346042535e-12
5.487708281020852 3.133960280388279e-19 4.5651382881941664e-11 4.1112874119933814e-11 4.538508762007853e-12
5.529022354014368 3.168048872918918e-19 4.649536395418366e-11 4.187002679085369e-11 4.625337163329962e-12
5.570647458961463 3.2023958771840126e-19 4.7353286471421876e-11 4.264096010143182e-11 4.712326369990052e-12
5.612585937458331 3.237050917343613e-19 4.8226080589511696e-11 4.3426646895979494e-11 4.7994336935322085e-12
5.654840148729818 3.273208628613399e-19 4.913188800276938e-11 4.424478812119963e-11 4.8870998815697455e-12
5.67608639626678 3.2964845984618093e-19 4.966717759687468e-11 4.47341264279876e-11 4.933051168887067e-12
5.686739436050992 3.3082596491699813e-19 4.9938138608376815e-11 4.4982094200582984e-11 4.956044407793836e-12
5.6974124697621304 3.3201299122067975e-19 5.021138168897789e-11 4.523233321664914e-11 4.9790484723287505e-12
5.718818669136295 3.3441680471074096e-19 5.076493708401203e-11 4.57398507297137e-11 5.025086354298317e-12
5.740305295436557 3.3700356475316616e-19 5.134981917322943e-11 4.6278278917012616e-11 5.071540256216818e-12
5.7835210386641895 3.434808348193265e-19 5.2730788141291965e-11 4.756329041898697e-11 5.167497722304986e-12
5.827062130521658 3.5061241199434023e-19 5.4230844596751525e-11 4.8966250830812175e-11 5.264593765939349e-12
5.8489554468988025 3.555441937146766e-19 5.520028715851472e-11 4.988299629542816e-11 5.317290863086571e-12
5.870931020387893 3.6070826323479433e-19 5.6212448434954304e-11 5.084234282707422e-11 5.370105607880078e-12
5.892989160043636 3.661236596786582e-19 5.727074994034904e-11 5.1847717462793866e-11 5.423032477555163e-12
5.915130176081913 3.7219563837358406e-19 5.843930188997303e-11 5.2961319639325727e-11 5.4779822506472754e-12
5.95966208400165 3.8904484250335246e-19 6.154471020763515e-11 5.594000035552697e-11 5.604709852108195e-12
6.004529249263818 4.1280423805981263e-19 6.579494755475096e-11 6.004677360829528e-11 5.7481739464556744e-12
6.027089341400364 4.2918520068433285e-19 6.866284596962259e-11 6.283102254674112e-11 5.831823422881477e-12
6.049734195844842 4.482391258607457e-19 7.198060444664826e-11 6.606000937791972e-11 5.9205950687285525e-12
6.095279466722835 5.028723887406687e-19 8.136185584078041e-11 7.522049895124962e-11 6.141356889530805e-12
6.141167624020661 5.855309262892198e-19 9.544874513409918e-11 8.90177000212036e-11 6.431045112895597e-12
6.164241091010745 6.380849634174025e-19 1.0440650540994439e-10 9.779212327146931e-11 6.614382138475095e-12
6.187401249150058 6.968018403804868e-19 1.1444241207889393e-10 1.076400688776309e-10 6.802343201262992e-12
6.1990139391386085 7.252675714254504e-19 1.1934117389063798e-10 1.1244324521236424e-10 6.897928678273732e-12
6.204828454712694 7.401658222056978e-19 1.2190688645748632e-10 1.1496071034312157e-10 6.946176114364757e-12
6.210648424152782 7.509164119271665e-19 1.2379353781094578e-10 1.1680659077179512e-10 6.9869470391506774e-12
6.233982942956859 7.867448513497588e-19 1.301873995406856e-10 1.2305972735716466e-10 7.127672183520966e-12
6.239830258556775 7.9092645995954305e-19 1.3100211692016026e-10 1.2385599064756827e-10 7.1461262725919656e-12
6.245683058788269 7.907176413141131e-19 1.3109037420588996e-10 1.2392577550826547e-10 7.164598697624498e-12
6.257405133728602 7.884054630064839e-19 1.3095236075758661e-10 1.237560559575916e-10 7.196304799995013e-12
6.269149208991335 7.796812161505293e-19 1.297463385566265e-10 1.2254141924362136e-10 7.204919313005144e-12
6.280915325867298 7.59811808392678e-19 1.2667718687821485e-10 1.1949216610119409e-10 7.185020777020762e-12
6.304513850009849 7.116379953545093e-19 1.1909133503696743e-10 1.1197184536822876e-10 7.119489668738643e-12
6.32820103803542 6.5331080194693345e-19 1.0974115825855543e-10 1.027145729278682e-10 7.026585330687218e-12
6.3519772230701035 6.002349047078555e-19 1.0120445068944124e-10 9.426199151003713e-11 6.942459179404128e-12
6.375842739491607 5.553672304202117e-19 9.399121857990837e-11 8.712384718883232e-11 6.8673713910760775e-12
6.399797922933955 5.200042753568235e-19 8.833699233717444e-11 8.151234717655086e-11 6.82464516062357e-12
6.42384311029221 4.90409652137229e-19 8.362254250671604e-11 7.683414024150134e-11 6.7884022652146805e-12
6.447978639727206 4.690181411803026e-19 8.027543438662092e-11 7.34981274109047e-11 6.77730697571621e-12
6.472204850670314 4.510884029622236e-19 7.749672498890891e-11 7.07255460568458e-11 6.771178932063097e-12
6.496522083828205 4.394527033638043e-19 7.57813770271679e-11 6.899602912228881e-11 6.785347904879105e-12
