Dust emission spectrum from A.P. Jones, M. Kohler, N. Ysard, M. Bocchio, and L. Verstraete (2017), A&A, 602A, 46J 
inside the DustPedia framework.

lambda    nu*dP/dnu     j_nu    j_nu(carb.) j_nu(sil)
 (um)   (erg s-1 H-1) (Jy cm2 sr-1 H-1)
0.9927057738263894 1.5822961398354548e-22 4.169440201092973e-15 4.169440201069125e-15 2.3848039222749797e-26
1.0001793341362166 1.6084227344225294e-22 4.270193085185658e-15 4.270193085156929e-15 2.8728046000456695e-26
1.0077091589558085 1.6345116936368182e-22 4.372126014928011e-15 4.372126014893449e-15 3.4562185237220425e-26
1.0114953028030835 1.6475388469407956e-22 4.423529897429747e-15 4.423529897391855e-15 3.7891233971698004e-26
1.0152956718711033 1.6605527459685553e-22 4.4752226079270215e-15 4.475222607885494e-15 4.152752293410026e-26
1.0229392996569957 1.6865229216495113e-22 4.57943126602869e-15 4.579431265978856e-15 4.9832727821130455e-26
1.0267826658714554 1.6994476871668042e-22 4.631863602118345e-15 4.63186360206378e-15 5.456426512768882e-26
1.0306404723013447 1.7123534841354427e-22 4.6845733952738946e-15 4.684573395214168e-15 5.972570545452702e-26
1.03451277320114 1.7252390672163151e-22 4.737558375540736e-15 4.737558375475382e-15 6.53542023106479e-26
1.0383996230291617 1.7381031980017186e-22 4.7908162446659986e-15 4.790816244594511e-15 7.148994246103487e-26
1.0403485208654093 1.7445268337350577e-22 4.817546786742595e-15 4.817546786667832e-15 7.476147330301175e-26
1.0423010764483396 1.7509446452528008e-22 4.844344676642661e-15 4.8443446765644856e-15 7.817637792825604e-26
1.0462171883269815 1.7637621851317737e-22 4.898141318254365e-15 4.898141318168904e-15 8.546047444132435e-26
1.0471985131304309 1.7669626918792436e-22 4.9116321080986134e-15 4.9116321080112305e-15 8.738074280069785e-26
1.048180758391296 1.7701616094370967e-22 4.925139474987372e-15 4.9251394748980305e-15 8.934234823371268e-26
1.0501480137395462 1.7765546014288528e-22 4.952203789620664e-15 4.95220378952727e-15 9.339297739665818e-26
1.0521189612883777 1.7829410103090653e-22 4.979333960592425e-15 4.9793339604948056e-15 9.761934236628086e-26
1.0531058218030118 1.7861267927145983e-22 4.992909932311461e-15 4.99290993221166e-15 9.980082261933772e-26
1.0540936079674168 1.7892947981900368e-22 5.0064572511042706e-15 5.006457251002239e-15 1.0202945712379536e-25
1.058054026499678 1.801948761416265e-22 5.060806296799522e-15 5.060806296688091e-15 1.114303460070812e-25
1.0590464539527713 1.805107645025044e-22 5.0744333072119574e-15 5.074433307098051e-15 1.1390714869507403e-25
1.06003981227728 1.8082646488614504e-22 5.08807613943508e-15 5.088076139318644e-15 1.164366482042765e-25
1.0620293250338977 1.8145729437039379e-22 5.115409113002595e-15 5.1154091128809376e-15 1.2165802635544655e-25
1.0660195594769086 1.8271661694134107e-22 5.1702631973278946e-15 5.170263197195113e-15 1.3278148440715056e-25
1.070024785945596 1.8397272718154492e-22 5.225366024128991e-15 5.225366023984115e-15 1.4487512855796764e-25
1.0740450607676866 1.8522550932830782e-22 5.280715045046034e-15 5.280715044888013e-15 1.5801918726817834e-25
1.07808044048254 1.864748485478158e-22 5.336307689552158e-15 5.336307689379859e-15 1.7230013391677682e-25
1.0861967418109137 1.8896053440513198e-22 5.4481497630408056e-15 5.448149762836152e-15 2.046525875888356e-25
1.0902777775684922 1.9019163242141229e-22 5.5042480761130305e-15 5.504248075890095e-15 2.2293257135503224e-25
1.0943741465085532 1.9141875003814691e-22 5.560575396064824e-15 5.560575395822057e-15 2.4276733654330324e-25
1.1026131145906286 1.9386060796285726e-22 5.673906269399525e-15 5.673906269111915e-15 2.8761121728011627e-25
1.1109141095355224 1.9628524652483296e-22 5.7881206281061025e-15 5.7881206277658e-15 3.4030286996767776e-25
1.1192775983109025 1.9868956863655993e-22 5.903129513243305e-15 5.90312951284117e-15 4.021346355447028e-25
1.1277040513999907 2.0106240006413008e-22 6.018599380894631e-15 6.018599380420033e-15 4.745975186552972e-25
1.1361939428280308 2.0341521116655928e-22 6.1348694954429954e-15 6.134869494883586e-15 5.59409197951344e-25
1.1447477501889525 2.057472176075498e-22 6.251916982724569e-15 6.2519169820660226e-15 6.5854605532813845e-25
1.1533659546722406 2.0805892518940968e-22 6.3697576835296256e-15 6.3697576827553444e-15 7.742801787143756e-25
1.1707974979042381 2.1262891895121278e-22 6.608053490641793e-15 6.608053489575434e-15 1.066359483415378e-24
1.1884924949847024 2.171078754685227e-22 6.849225331122625e-15 6.849225329661258e-15 1.4613680169202918e-24
1.2064549276569216 2.215308507826844e-22 7.094384948715339e-15 7.0943849467223924e-15 1.9929473704742865e-24
1.2246888378427687 2.258495082216594e-22 7.341999352526562e-15 7.341999349821814e-15 2.7047473166999066e-24
1.2431983285522175 2.300537439522275e-22 7.591702067468793e-15 7.59170206381558e-15 3.653209610751728e-24
1.2619875648066055 2.341419900359436e-22 7.843390066204953e-15 7.84339006129401e-15 4.91094351208295e-24
1.3004222497298317 2.4190253354326546e-22 8.350149314905112e-15 8.350149306154051e-15 8.75105978415868e-24
1.3400274889804893 2.4910080193304804e-22 8.860500739907718e-15 8.860500724596354e-15 1.5311363060631217e-23
1.3808389325824078 2.557101396066471e-22 9.372606971293588e-15 9.372606944977303e-15 2.6316284671186332e-23
1.4228933163050095 2.617627981907249e-22 9.886662227425867e-15 9.886662182972421e-15 4.4453448639844056e-23
1.466228494730424 2.6740461973531095e-22 1.0407346026277573e-14 1.0407345952440847e-14 7.383672755763925e-23
1.5108834753276823 2.7252588141229205e-22 1.0929697879667097e-14 1.0929697759020132e-14 1.2064696407682954e-22
1.5568984535646726 2.770378245133694e-22 1.144903250817258e-14 1.1449032314044566e-14 1.9412801393999207e-22
1.6043148490894465 2.8094876489798302e-22 1.196426884838171e-14 1.1964268540217771e-14 3.0816394026922464e-22
1.6531753430134553 2.8427067215251577e-22 1.2474421334084908e-14 1.2474420852023492e-14 4.820614185237468e-22
1.7035239163302658 2.8704312127566957e-22 1.2979704702228923e-14 1.2979703958943717e-14 7.432852088348912e-22
1.755405889504358 2.8949445005691167e-22 1.3489232069993655e-14 1.3489230939782067e-14 1.1302115899296394e-21
1.8088679632656115 2.9156835983056827e-22 1.3999634389732608e-14 1.3999632694338495e-14 1.6953941087011756e-21
1.8639582606462262 2.9322674535767986e-22 1.4508055091970137e-14 1.450805258203641e-14 2.5099337259885233e-21
1.9207263702978936 2.9449735901283937e-22 1.5014688843095893e-14 1.501468517449607e-14 3.668599820091152e-21
1.979223391128241 2.9544471023788846e-22 1.552174222229857e-14 1.5521736926218912e-14 5.2960796555659234e-21
2.039501978296691 2.9614598390078686e-22 1.603243217887657e-14 1.6032424624785604e-14 7.554090966236865e-21
2.1016163906111602 2.9681724266178e-22 1.65581573848399e-14 1.65581467344525e-14 1.0650387401954294e-20
2.1656225393682647 2.975837977956002e-22 1.7106512452769666e-14 1.7106497605159966e-14 1.4847609694414978e-20
2.231578038680979 2.984546811211391e-22 1.767909000503233e-14 1.7679069531447625e-14 2.0473584704466004e-20
2.299542257339062 2.995049523821191e-22 1.8281626661691396e-14 1.82815987289428e-14 2.793274859768643e-20
2.369576372248914 3.009004941170123e-22 1.8926183420332837e-14 1.8926145701339177e-14 3.771899365586959e-20
2.4417434235010123 3.0283717721525365e-22 1.962811750034533e-14 1.9628067072788008e-14 5.042755732524301e-20
2.5161083711144245 3.056503974015252e-22 2.0413794591405196e-14 2.0413727821355938e-14 6.677004926009099e-20
2.5927381535095444 3.09888971694536e-22 2.132721821297758e-14 2.1327130625390077e-14 8.758758750775005e-20
2.6717017477616296 3.1620812171201904e-22 2.2424895508711223e-14 2.2424781649870346e-14 1.1385884088229454e-19
2.753070231689431 3.255942921641724e-22 2.379378354580262e-14 2.3793636833818502e-14 1.4671198412722238e-19
2.836916847834745 3.40282257622448e-22 2.5624496759970087e-14 2.562430931901701e-14 1.8744095308226848e-19
2.9233170693905177 3.651937553971211e-22 2.8337967523167304e-14 2.833773004799505e-14 2.3747517225290487e-19
2.967498994190263 3.8634224330904733e-22 3.043212020551003e-14 3.0431854150193295e-14 2.6605531673239815e-19
3.0123486681368425 4.110399078192306e-22 3.2866893759957484e-14 3.286659607973867e-14 2.976802188103642e-19
3.0578761833420214 4.662856738353681e-22 3.7847866383586054e-14 3.784753366983525e-14 3.327137508018043e-19
3.1040917844459814 5.37473405752774e-22 4.4285440367800074e-14 4.4285069185160357e-14 3.7118263972131017e-19
3.127460860933648 6.127720084955251e-22 5.0869823976613116e-14 5.086943205929858e-14 3.9191731454577626e-19
3.1510058709225794 7.130951636879452e-22 5.96439141480243e-14 5.964350051625964e-14 4.1363176464903387e-19
3.162844764501044 8.064766255529999e-22 6.770786107929214e-14 6.770743617090032e-14 4.249083918233104e-19
3.1747281389236908 9.150714734322009e-22 7.711360227788973e-14 7.711316583597831e-14 4.364419113922626e-19
3.1986289994194426 1.2179721437721416e-21 1.0341193369218946e-13 1.034114733371241e-13 4.603550653598816e-19
3.2227097969389145 1.9319702184736727e-21 1.6526887080726335e-13 1.6526838500395126e-13 4.858033120944327e-19
3.2348180950136065 2.6090602093566505e-21 2.2402856565093816e-13 2.2402806623775184e-13 4.994131863196764e-19
3.240889293275058 3.115271339180553e-21 2.679967384631882e-13 2.679962318697211e-13 5.06593467029968e-19
3.2469718861334385 3.7008789921215016e-21 3.1897220934995927e-13 3.1897169532579115e-13 5.140241681253605e-19
3.2714166318528037 6.824599838255529e-21 5.926284299093088e-13 5.926278850874766e-13 5.448218322654974e-19
3.2744851364798273 7.019871675642878e-21 6.10157044456178e-13 6.101564959808347e-13 5.48475343258902e-19
3.2775565192852394 7.220752126788342e-21 6.282059702025936e-13 6.282054180531175e-13 5.521494760671609e-19
3.283707930232385 7.027562256574356e-21 6.125459270868239e-13 6.125453683193096e-13 5.587675144055798e-19
3.2898708863219004 6.414907085378001e-21 5.601942637617545e-13 5.6019369892745e-13 5.648343042957299e-19
3.29141343181113 6.270427826546293e-21 5.478340774292662e-13 5.478335110703161e-13 5.663589502065795e-19
3.292184975758714 6.199435853602014e-21 5.417586227098117e-13 5.417580555873435e-13 5.671224682504416e-19
3.295272960557952 5.7513286497419616e-21 5.030706876923555e-13 5.030701175917263e-13 5.701006291223469e-19
3.3076538914384823 4.198951190132395e-21 3.6866365003598357e-13 3.6866306794970253e-13 5.820862810262699e-19
3.310756385682612 3.883003380440207e-21 3.4124353093035976e-13 3.412429458179575e-13 5.851124022420607e-19
3.313861789986515 3.591492537161334e-21 3.159212163883492e-13 3.159206282378887e-13 5.881504605092248e-19
3.3200813396944477 3.1826813060812753e-21 2.804860781554037e-13 2.804854834900256e-13 5.946653781121166e-19
3.345076488085796 2.4534034974503254e-21 2.1784342968571184e-13 2.1784280603121708e-13 6.236544948647805e-19
3.3482140837626964 2.480750332107265e-21 2.2047822815042474e-13 2.2047760056996593e-13 6.275804588365737e-19
3.3513546224236106 2.5083994929753465e-21 2.2314467233656884e-13 2.231440408097732e-13 6.315267956032343e-19
3.3576445397418455 2.71046589699535e-21 2.415728358988674e-13 2.4157219612821873e-13 6.397706486068653e-19
3.3702598118196083 3.455771311616113e-21 3.091560926795662e-13 3.0915543560921624e-13 6.570703500693926e-19
3.382922481734668 3.625518760135101e-21 3.255604469125478e-13 3.2555977293917295e-13 6.739733748004888e-19
3.389271646505754 3.7134594956559606e-21 3.3408309682919856e-13 3.340824142699989e-13 6.825591995758901e-19
3.395632727569191 3.808219629495008e-21 3.432512528354555e-13 3.4325056142669095e-13 6.914087644579181e-19
3.421196662673239 4.26321955774844e-21 3.871552673632225e-13 3.8715453921591657e-13 7.281473058211746e-19
3.4276182099114902 4.171522983637079e-21 3.7953909284312777e-13 3.7953835640031885e-13 7.364428090197755e-19
3.4340518103208963 3.769717983560796e-21 3.436253044489833e-13 3.436245601133807e-13 7.443356026355726e-19
3.4469541582030403 3.197474743138771e-21 2.925580572567813e-13 2.9255729767579603e-13 7.595809852552894e-19
3.472904465399547 3.0370994245038907e-21 2.7997630602912144e-13 2.7997551145130954e-13 7.945778119905424e-19
3.4990501388274233 2.7918137811175697e-21 2.5930210682106524e-13 2.593012761971209e-13 8.306239444326947e-19
3.5253949054701885 1.91889688558138e-21 1.7956795784201435e-13 1.795670918377344e-13 8.660042799688853e-19
3.5519380250092896 1.0984636410233733e-21 1.0356678600637755e-13 1.0356588414116722e-13 9.018652103473342e-19
3.578680990867387 7.731596453999493e-22 7.344489219552392e-14 7.344395095838629e-14 9.412371376401211e-19
3.605625307711299 6.415814427709208e-22 6.140472917498597e-14 6.140374627280686e-14 9.829021791302312e-19
3.660119384959845 5.455932696439641e-22 5.3007056538075466e-14 5.300598523683207e-14 1.0713012433766834e-18
3.715437065384467 4.776187368913834e-22 4.71043156007788e-14 4.710314983012536e-14 1.1657706534353302e-18
3.8285932144167436 4.431177574265761e-22 4.503268196502884e-14 4.5031308591828887e-14 1.3733731999535351e-18
3.94519561050918 4.365012554531002e-22 4.571128936164222e-14 4.5709682512006815e-14 1.6068496353969468e-18
4.06534921144712 4.413524161126359e-22 4.762695309348554e-14 4.762508515388167e-14 1.867939603879226e-18
4.189162171576248 4.528621641483294e-22 5.035732403787167e-14 5.035516476511905e-14 2.159272752588927e-18
4.316745939156006 4.692435928486306e-22 5.3768048429419866e-14 5.376556606566203e-14 2.482363757834579e-18
4.448215356677963 4.899030934500165e-22 5.784494599183721e-14 5.784211010583542e-14 2.8358860017887648e-18
4.58368876423945 5.14923659576059e-22 6.265091256266403e-14 6.264768950007974e-14 3.2230625842981178e-18
4.723288106065518 5.448892559219618e-22 6.831595042006779e-14 6.831230119912992e-14 3.649220937863666e-18
4.867139040275056 5.809587841339945e-22 7.505653455561998e-14 7.505242579233219e-14 4.108763287767166e-18
4.940699165968905 6.027248262903737e-22 7.904545878450494e-14 7.904110547520291e-14 4.3533093020197694e-18
5.015371051989984 6.252850699896797e-22 8.324354391476397e-14 8.323893620888212e-14 4.6077058818292226e-18
5.091171501069577 6.527991520507851e-22 8.821993665186174e-14 8.821505981289354e-14 4.876838968216086e-18
5.129500256944802 6.6692885506647645e-22 9.080797618837079e-14 9.080296087478515e-14 5.015313585621469e-18
5.168117569889187 6.816624760100479e-22 9.351283114516845e-14 9.350767377322902e-14 5.157371939464145e-18
5.20702561229733 6.997250965343452e-22 9.671338803988454e-14 9.670807758596252e-14 5.310453922048684e-18
5.246226572918644 7.182538049804007e-22 1.0002174136620094e-13 1.0001627460808972e-13 5.466758111224684e-18
5.265937586045735 7.276976274146406e-22 1.0171759878483789e-13 1.0171205265471527e-13 5.546130122624627e-18
5.285722656980489 7.372636749877131e-22 1.0344193636137292e-13 1.0343631003973983e-13 5.626321633103766e-18
5.305582063971359 7.4695393462785705e-22 1.0519528842152886e-13 1.0518958108419301e-13 5.707337335823798e-18
5.3255160863122235 7.573614231710087e-22 1.0706174412107177e-13 1.0705595449815176e-13 5.789622920067101e-18
5.365609099470188 7.8325297230504e-22 1.1155537861471987e-13 1.1154941845503793e-13 5.960159681950795e-18
5.406003951863644 8.101339979458035e-22 1.1625259337880522e-13 1.1624645904703105e-13 6.134331774172588e-18
5.446702915881641 8.380522879929909e-22 1.2116417706683713e-13 1.2115786488040398e-13 6.312186433134833e-18
5.487708281020852 8.682156681341877e-22 1.2647016025737256e-13 1.2646366594619921e-13 6.494311173323636e-18
5.529022354014368 9.100810156091173e-22 1.335665886036411e-13 1.3355990359989803e-13 6.685003743063697e-18
5.570647458961463 9.544147140594654e-22 1.411276903314634e-13 1.4112081048826517e-13 6.879843198256579e-18
5.612585937458331 1.001394176143543e-21 1.4918923882790393e-13 1.4918215993756522e-13 7.078890338700438e-18
5.654840148729818 1.053027365118744e-21 1.580627098272757e-13 1.58055426917412e-13 7.282909863730743e-18
5.67608639626678 1.088157828276445e-21 1.6394958476570535e-13 1.6394219514791131e-13 7.389617794026016e-18
5.686739436050992 1.106265412108152e-21 1.6699062753847188e-13 1.669831841205481e-13 7.44341792379393e-18
5.6974124697621304 1.1247460893148063e-21 1.7009893193074957e-13 1.700914344136344e-13 7.497517115190432e-18
5.718818669136295 1.1628626283080482e-21 1.7652416784039352e-13 1.765165612228188e-13 7.606617574741199e-18
5.740305295436557 1.2048705412059244e-21 1.8358821949966932e-13 1.835805019399805e-13 7.717559688841434e-18
5.7835210386641895 1.313789804163554e-21 2.0169152046569973e-13 2.016835723547171e-13 7.948110982692639e-18
5.827062130521658 1.4392418240058311e-21 2.2261419454843888e-13 2.2260600902658552e-13 8.185521853293675e-18
5.8489554468988025 1.5272043685237489e-21 2.371072884399326e-13 2.370989754769871e-13 8.312962945427516e-18
5.870931020387893 1.6215928773560417e-21 2.527075625698416e-13 2.526991205664804e-13 8.44200336113925e-18
5.892989160043636 1.722924382538511e-21 2.6950777113147354e-13 2.6949919847153144e-13 8.572659942009918e-18
5.915130176081913 1.8381541177028213e-21 2.886128485388403e-13 2.8860414052957885e-13 8.708009261397147e-18
5.95966208400165 2.16024264029864e-21 3.41738259322152e-13 3.417292487032639e-13 9.010618888134686e-18
6.004529249263818 2.624380660004417e-21 4.182878274221458e-13 4.182784785246672e-13 9.348897478626546e-18
6.027089341400364 2.9469678968826963e-21 4.714682669822676e-13 4.714587254091806e-13 9.541573086951781e-18
6.049734195844842 3.328158000817301e-21 5.344531763771169e-13 5.344434309711069e-13 9.745406010018955e-18
6.095279466722835 4.4291482400812114e-21 7.166106723604056e-13 7.166004360922354e-13 1.0236268170160368e-17
6.141167624020661 6.1234006751252704e-21 9.981896500293593e-13 9.981787887860007e-13 1.0861243358720087e-17
6.164241091010745 7.205338257635376e-21 1.178971815520093e-12 1.1789605683460543e-12 1.1247174038728203e-17
6.187401249150058 8.437795890453318e-21 1.3858196956046642e-12 1.3858080493165136e-12 1.1646288150917264e-17
6.1990139391386085 9.039596522553118e-21 1.4874456035293821e-12 1.4874337536226215e-12 1.1849906760677776e-17
6.204828454712694 9.356599577825475e-21 1.541051867219483e-12 1.5410399141665858e-12 1.195305289691986e-17
6.210648424152782 9.588033095207834e-21 1.5806506804905673e-12 1.5806386379185316e-12 1.2042572036248731e-17
6.233982942956859 1.0374369917362054e-20 1.7167093487772296e-12 1.716696986627444e-12 1.2362149785649096e-17
6.239830258556775 1.0474928016735205e-20 1.7349751389639937e-12 1.7349627270427458e-12 1.2411921247754656e-17
6.245683058788269 1.0483719550613794e-20 1.7380600193459192e-12 1.7380475574790608e-12 1.2461866858005924e-17
6.257405133728602 1.0462283326978901e-20 1.7377615514713357e-12 1.737748998960355e-12 1.2552510980380777e-17
6.269149208991335 1.0307847956131582e-20 1.7153235232593733e-12 1.7153109221026598e-12 1.2601156713646513e-17
6.280915325867298 9.920323715163631e-21 1.6539341548489152e-12 1.653921557248619e-12 1.259760029658985e-17
6.304513850009849 8.964586429251711e-21 1.5002073707180703e-12 1.5001948277193793e-12 1.2542998691711618e-17
6.32820103803542 7.779863633578588e-21 1.3068377925149895e-12 1.306825354920059e-12 1.2437594930762822e-17
6.3519772230701035 6.693406142919426e-21 1.1285623122254038e-12 1.1285499641725653e-12 1.2348052838233122e-17
6.375842739491607 5.779411462404345e-21 9.781166339523829e-13 9.781043590695634e-13 1.2274882819255685e-17
6.399797922933955 5.046961145616283e-21 8.573648125111948e-13 8.573525499327744e-13 1.226257842018847e-17
6.42384311029221 4.438035953746773e-21 7.567547836205208e-13 7.567425209652072e-13 1.2262655313778974e-17
6.447978639727206 3.99439955650282e-21 6.836668592499557e-13 6.836545481181433e-13 1.2311131812495536e-17
6.472204850670314 3.624882703955906e-21 6.227527380016653e-13 6.227403682468289e-13 1.2369754836489946e-17
6.496522083828205 3.38485827316738e-21 5.837015428940773e-13 5.836890745558405e-13 1.246833823671092e-17
