Dust emission spectrum from A.P. Jones, M. Kohler, N. Ysard, M. Bocchio, and L. Verstraete (2017), A&A, 602A, 46J 
inside the DustPedia framework.

lambda    nu*dP/dnu     j_nu    j_nu(carb.) j_nu(sil)
 (um)   (erg s-1 H-1) (Jy cm2 sr-1 H-1)
0.9927057738263894 2.068677759664196e-24 5.4510833952661973e-17 5.451083395246114e-17 2.0082950047706864e-28
1.0001793341362166 2.1026519354595922e-24 5.582319599937398e-17 5.582319599913196e-17 2.420179213663642e-28
1.0077091589558085 2.1365725699182892e-24 5.715079648611534e-17 5.715079648582407e-17 2.912865223964981e-28
1.0114953028030835 2.1535086397907336e-24 5.78202442399217e-17 5.78202442396023e-17 3.1941171412084786e-28
1.0152956718711033 2.170426335099273e-24 5.849342050264742e-17 5.849342050229727e-17 3.501415114165643e-28
1.0229392996569957 2.2041833195458365e-24 5.985039325593463e-17 5.985039325551428e-17 4.20359287770119e-28
1.0267826658714554 2.220981471489541e-24 6.053309740838132e-17 6.053309740792094e-17 4.603804901224822e-28
1.0306404723013447 2.2377538389909416e-24 6.121938137441146e-17 6.12193813739074e-17 5.040514399037099e-28
1.03451277320114 2.2544988086236823e-24 6.190921546122478e-17 6.190921546067311e-17 5.516890494129596e-28
1.0383996230291617 2.271214776318809e-24 6.260256961740453e-17 6.260256961680088e-17 6.036362561139704e-28
1.0403485208654093 2.2795613858024096e-24 6.29505572341498e-17 6.295055723351848e-17 6.313407331568768e-28
1.0423010764483396 2.2879001476711153e-24 6.329941344011085e-17 6.329941343945059e-17 6.602640276975028e-28
1.0462171883269815 2.3045533382386077e-24 6.399971618228226e-17 6.399971618156027e-17 7.219735105894186e-28
1.0471985131304309 2.3087114229284485e-24 6.417532868862836e-17 6.417532868789013e-17 7.382449661482367e-28
1.048180758391296 2.3128673733863834e-24 6.435115494736089e-17 6.435115494660603e-17 7.548680670870246e-28
1.0501480137395462 2.3211727738350555e-24 6.470344675984119e-17 6.4703446759052e-17 7.891983313016754e-28
1.0521189612883777 2.329469344460673e-24 6.505658768273736e-17 6.505658768191234e-17 8.250239858028129e-28
1.0531058218030118 2.3336078432174503e-24 6.5233296012609e-17 6.52332960117655e-17 8.435180499187992e-28
1.0540936079674168 2.3377230458238987e-24 6.540962677406497e-17 6.540962677320255e-17 8.624133960494943e-28
1.058054026499678 2.3541597069953377e-24 6.611700911778314e-17 6.611700911684101e-17 9.421353121575914e-28
1.0590464539527713 2.3582627153164404e-24 6.629436700209549e-17 6.629436700113235e-17 9.63143645864671e-28
1.06003981227728 2.362363213143852e-24 6.647192879120088e-17 6.647192879021629e-17 9.846007916266614e-28
1.0620293250338977 2.3705565822731426e-24 6.68276620453503e-17 6.68276620443214e-17 1.0288982324562515e-27
1.0660195594769086 2.386912151709381e-24 6.754155292399959e-17 6.754155292287631e-17 1.1232927356993183e-27
1.070024785945596 2.403224907264339e-24 6.82586488287887e-17 6.825864882756273e-17 1.2259561189496057e-27
1.0740450607676866 2.419493353053004e-24 6.897891654982335e-17 6.897891654848577e-17 1.3375758534435712e-27
1.07808044048254 2.435716005584635e-24 6.970232259946674e-17 6.970232259800784e-17 1.458893276859402e-27
1.0861967418109137 2.467989199124536e-24 7.115758225772899e-17 7.115758225599509e-17 1.733880047165347e-27
1.0902777775684922 2.483971211730997e-24 7.188746207822767e-17 7.188746207633832e-17 1.8893388815130353e-27
1.0943741465085532 2.4999004862295318e-24 7.262028998501029e-17 7.26202899829522e-17 2.0580825281319824e-27
1.1026131145906286 2.5315951958433984e-24 7.409464978067981e-17 7.409464977823998e-17 2.439807812081667e-27
1.1109141095355224 2.5630622181719297e-24 7.558037885564386e-17 7.558037885275518e-17 2.8886769308383716e-27
1.1192775983109025 2.5942612496938253e-24 7.707631685558542e-17 7.707631685216957e-17 3.415816118298935e-27
1.1277040513999907 2.6250465101196144e-24 7.857810955994905e-17 7.857810955591498e-17 4.0340753071693174e-27
1.1361939428280308 2.655567983136556e-24 8.009019049946945e-17 8.00901904947112e-17 4.7582728725067315e-27
1.1447477501889525 2.6858155830167805e-24 8.161226310218031e-17 8.161226309657485e-17 5.6054771079801376e-27
1.1533659546722406 2.7157961017633027e-24 8.314453739659673e-17 8.31445373900014e-17 6.595330912536251e-27
1.1707974979042381 2.7750543592924022e-24 8.624277326006827e-17 8.624277325097164e-17 9.096652021119579e-27
1.1884924949847024 2.833117618459606e-24 8.937796897753123e-17 8.937796896504603e-17 1.2485231446420098e-26
1.2064549276569216 2.8904450931935033e-24 9.25646703011846e-17 9.256467028413119e-17 1.7053385517426868e-26
1.2246888378427687 2.9464067810314094e-24 9.578288148133268e-17 9.578288145815144e-17 2.3181261078916108e-26
1.2431983285522175 3.0008724516973082e-24 9.902785846637388e-17 9.902785843501227e-17 3.136157040001644e-26
1.2619875648066055 3.0538229003469226e-24 1.022982857404316e-16 1.0229828569820192e-16 4.222965738191096e-26
1.3004222497298317 3.1542975889407818e-24 1.0888210001566552e-16 1.0888209994015277e-16 7.551275499577024e-26
1.3400274889804893 3.2474476454487457e-24 1.1551152000323112e-16 1.1551151987063142e-16 1.325997253736761e-25
1.3808389325824078 3.332938440528239e-24 1.2216301672917832e-16 1.2216301650041672e-16 2.287615885535559e-25
1.4228933163050095 3.411204217440684e-24 1.2883963695266467e-16 1.288396365647342e-16 3.879304630357793e-25
1.466228494730424 3.484159599848776e-24 1.3560294733238208e-16 1.3560294668543136e-16 6.469506908969054e-25
1.5108834753276823 3.5503867059176145e-24 1.4238887642733718e-16 1.4238887536582082e-16 1.0615163789033904e-24
1.5568984535646726 3.6087429685098185e-24 1.4913709213780756e-16 1.4913709042239434e-16 1.7154132610233877e-24
1.6043148490894465 3.659351485159384e-24 1.5583433867406222e-16 1.558343359388973e-16 2.735164961206373e-24
1.6531753430134553 3.702383231585626e-24 1.6246870639638447e-16 1.6246870209817205e-16 4.298212440668964e-24
1.7035239163302658 3.738369067905536e-24 1.6904403196884254e-16 1.6904402531011576e-16 6.658726813664741e-24
1.755405889504358 3.7702999278472375e-24 1.7568022699645355e-16 1.756802168219111e-16 1.0174542437511633e-23
1.8088679632656115 3.79745760085875e-24 1.8233466091254522e-16 1.8233464557281419e-16 1.533973102356447e-23
1.8639582606462262 3.819362464011274e-24 1.8897157889362056e-16 1.8897155606513585e-16 2.282848475822916e-23
1.9207263702978936 3.836392592980364e-24 1.9559510230122868e-16 1.95595068753524e-16 3.354770477713446e-23
1.979223391128241 3.8494057470351525e-24 2.0223575391282095e-16 2.0223570521061878e-16 4.870220224660601e-23
2.039501978296691 3.8594246651337404e-24 2.089373739877203e-16 2.0893730411676063e-16 6.987095969504508e-23
2.1016163906111602 3.869281140818872e-24 2.1585055342919122e-16 2.1585045432451846e-16 9.910467271230223e-23
2.1656225393682647 3.8806259863051845e-24 2.230765829693054e-16 2.230764439424042e-16 1.3902690120324146e-22
2.231578038680979 3.8935952680234864e-24 2.306387721176865e-16 2.306385791631886e-16 1.929544979303852e-22
2.299542257339062 3.909185479143129e-24 2.386146503174367e-16 2.3861438528148095e-16 2.6503595579423285e-22
2.369576372248914 3.929576014908813e-24 2.471643545835571e-16 2.4716399417132137e-16 3.604122356901873e-22
2.4417434235010123 3.957337840673746e-24 2.564912697957704e-16 2.564907844166028e-16 4.853791675817384e-22
2.5161083711144245 3.996860848276584e-24 2.669425495951952e-16 2.6694190200248777e-16 6.4759270745500395e-22
2.5927381535095444 4.055318160405078e-24 2.790956220773922e-16 2.790947658054379e-16 8.562719543147771e-22
2.6717017477616296 4.141270086636406e-24 2.93691219768069e-16 2.936900974000839e-16 1.1223679850559185e-21
2.753070231689431 4.267592341269051e-24 3.118671637483155e-16 3.1186570495603793e-16 1.4587922774028358e-21
2.836916847834745 4.463433218321626e-24 3.361128224561312e-16 3.3611094174731244e-16 1.8807088187970524e-21
2.9233170693905177 4.792965004548336e-24 3.7192006881626676e-16 3.71917663383521e-16 2.405432745702742e-21
2.967498994190263 5.0711957642686934e-24 3.9945732509620225e-16 3.9945461637573577e-16 2.708720466488045e-21
3.0123486681368425 5.395834795400621e-24 4.314528239061098e-16 4.314497775618729e-16 3.0463442369968837e-21
3.0578761833420214 6.118723980343526e-24 4.966497163450274e-16 4.966462937894443e-16 3.422555583087135e-21
3.1040917844459814 7.049688313744464e-24 5.808632540481676e-16 5.808594154471271e-16 3.838601040464272e-21
3.127460860933648 8.032730344878271e-24 6.668443940492764e-16 6.668403300194442e-16 4.064029832260131e-21
3.1510058709225794 9.342107308118932e-24 7.813821697589159e-16 7.813778687679069e-16 4.300991009173189e-21
3.162844764501044 1.056014956700588e-23 8.86578875573862e-16 8.865744511807246e-16 4.424393137416499e-21
3.1747281389236908 1.1976567291363426e-23 1.0092722520313708e-15 1.0092677011835128e-15 4.550847858202434e-21
3.1986289994194426 1.5926966806407904e-23 1.3522792321021138e-15 1.3522744183170055e-15 4.813785108777079e-21
3.2227097969389145 2.523657035927427e-23 2.1588425362065936e-15 2.1588374416154237e-15 5.0945911691532674e-21
3.2348180950136065 3.4064288178446987e-23 2.9249511349603745e-15 2.9249458899071316e-15 5.245053242764941e-21
3.240889293275058 4.066392574886138e-23 3.4981862853303446e-15 3.4981809608690397e-15 5.3244613052484354e-21
3.2469718861334385 4.829871925005396e-23 4.162781117880262e-15 4.162775711220853e-15 5.406659408797835e-21
3.2714166318528037 8.902164759320004e-23 7.730381339777333e-15 7.730375591615173e-15 5.7481621611082336e-21
3.2744851364798273 9.156736541637064e-23 7.95890233221036e-15 7.958896543337442e-15 5.788872918422193e-21
3.2775565192852394 9.418618086642277e-23 8.194204716065373e-15 8.194198886230782e-15 5.829834590105693e-21
3.283707930232385 9.166794659632209e-23 7.99008607564592e-15 7.990080171657107e-15 5.9039888115748085e-21
3.2898708863219004 8.368148593667185e-23 7.307648853034199e-15 7.30764288072189e-15 5.97231230818929e-21
3.29141343181113 8.179807534446826e-23 7.146525624952195e-15 7.146519635458335e-15 5.9894938607954034e-21
3.292184975758714 8.087263343367305e-23 7.067327985736891e-15 7.067321987637103e-15 5.998099787199514e-21
3.295272960557952 7.503130249279623e-23 6.563013738607627e-15 6.56300770687658e-15 6.031731046812225e-21
3.3076538914384823 5.479495725058753e-23 4.810941596806306e-15 4.810935429516004e-15 6.167290300277941e-21
3.310756385682612 5.067627043378953e-23 4.4534984296736985e-15 4.453492228112013e-15 6.2015616863143315e-21
3.313861789986515 4.687610507034027e-23 4.123398832139832e-15 4.123392596153146e-15 6.235986686124914e-21
3.3200813396944477 4.154695247589031e-23 3.661485596124535e-15 3.66147928645654e-15 6.309667996104001e-21
3.345076488085796 3.2041735262729376e-23 2.845060549546196e-15 2.845053912227499e-15 6.637318696510866e-21
3.3482140837626964 3.2398472166320093e-23 2.879434357242785e-15 2.879427675543244e-15 6.6816995413534335e-21
3.3513546224236106 3.2759149861308067e-23 2.914220714163567e-15 2.9142139878284806e-15 6.726335086460312e-21
3.3576445397418455 3.5393826730656444e-23 3.154508273325263e-15 3.154501453790231e-15 6.819535032972474e-21
3.3702598118196083 4.511050729617968e-23 4.035622417375169e-15 4.035615402153536e-15 7.015221632131021e-21
3.382922481734668 4.732421573208574e-23 4.2495691907410065e-15 4.249561983595262e-15 7.207145745094158e-21
3.389271646505754 4.8471038469988217e-23 4.360719339344894e-15 4.3607120345488144e-15 7.304796078838241e-21
3.395632727569191 4.970682211815494e-23 4.480290168765378e-15 4.4802827632948564e-15 7.405470522128798e-21
3.421196662673239 5.564038897153953e-23 5.052864244188004e-15 5.052856419797687e-15 7.824390315440774e-21
3.4276182099114902 5.444554284644284e-23 4.953637321991642e-15 4.953629402217382e-15 7.919774260853437e-21
3.4340518103208963 4.92081239920989e-23 4.485522965348268e-15 4.485514954444836e-15 8.01090343139984e-21
3.4469541582030403 4.1749122202105323e-23 3.819902599647773e-15 3.819894411936213e-15 8.18771155874035e-21
3.472904465399547 3.96603666592823e-23 3.6561078190057005e-15 3.656099226142168e-15 8.592863531805274e-21
3.4990501388274233 3.6464831105011526e-23 3.3868331743167984e-15 3.3868241620385275e-15 9.012278270844479e-21
3.5253949054701885 2.5087845675459586e-23 2.3476890542938108e-15 2.34767962722342e-15 9.427070390351456e-21
3.5519380250092896 1.4394704777734985e-23 1.3571803869190949e-15 1.357170536743343e-15 9.850175751267911e-21
3.578680990867387 1.0156287646790512e-23 9.647780452113461e-16 9.64767729613977e-16 1.0315597369190698e-20
3.605625307711299 8.443370605770276e-24 8.081014362450634e-16 8.080906261481655e-16 1.0810096897937321e-20
3.660119384959845 7.196779338496708e-24 6.992023371855179e-16 6.991904697272157e-16 1.1867458302521669e-20
3.715437065384467 6.315518905611019e-24 6.228570462892858e-16 6.228440365020322e-16 1.3009787253466477e-20
3.8285932144167436 5.875854321294681e-24 5.971448322459712e-16 5.971292671983812e-16 1.5565047589983898e-20
3.94519561050918 5.8003613061959936e-24 6.074255016617841e-16 6.074069910900243e-16 1.8510571759857964e-20
4.06534921144712 5.875102503562467e-24 6.33990482755574e-16 6.339685898732227e-16 2.1892882351330623e-20
4.189162171576248 6.037458813226258e-24 6.713527732984939e-16 6.71326999231317e-16 2.577406717701148e-20
4.316745939156006 6.26420023154673e-24 7.177803310572587e-16 7.177501218635211e-16 3.02091937376819e-20
4.448215356677963 6.547666588903933e-24 7.731108973827039e-16 7.730756737276211e-16 3.52236550826675e-20
4.58368876423945 6.889027163146135e-24 8.381899538184536e-16 8.381490471848257e-16 4.0906633627834224e-20
4.723288106065518 7.296011321020332e-24 9.147435781748343e-16 9.14696192934774e-16 4.7385240060101934e-20
4.867139040275056 7.783870405794342e-24 1.0056313012976522e-15 1.0055766454027714e-15 5.465589488062263e-20
4.940699165968905 8.077028340849558e-24 1.0592767760163839e-15 1.0592181339157918e-15 5.864210059257054e-20
5.015371051989984 8.380879080159516e-24 1.1157376199068693e-15 1.1156747439466056e-15 6.287596026378089e-20
5.091171501069577 8.749861005358444e-24 1.182465052505561e-15 1.1823976146980296e-15 6.743780753099622e-20
5.129500256944802 8.93934365881084e-24 1.2171668686130628e-15 1.21709704501935e-15 6.982359371268101e-20
5.168117569889187 9.136811523630272e-24 1.2534196076268585e-15 1.2533473136015062e-15 7.229402535226203e-20
5.20702561229733 9.377954675431006e-24 1.296185850754162e-15 1.2961109043770674e-15 7.494637709458952e-20
5.246226572918644 9.625271241375439e-24 1.340384671837077e-15 1.3403069879122503e-15 7.768392482661627e-20
5.265937586045735 9.75130603107951e-24 1.3630378843221714e-15 1.3629587988743452e-15 7.908544782664186e-20
5.285722656980489 9.878959002314453e-24 1.3860694390660902e-15 1.3859889298247627e-15 8.050924132781551e-20
5.305582063971359 1.0008256219363057e-23 1.4094863830083272e-15 1.4094044273677845e-15 8.195564054255301e-20
5.3255160863122235 1.0146972058781764e-23 1.4343911545065119e-15 1.4343077235938454e-15 8.343091266733176e-20
5.365609099470188 1.0490990865225293e-23 1.4941870626671412e-15 1.4941005640735289e-15 8.649859361285085e-20
5.406003951863644 1.0848018728036863e-23 1.5566687897975362e-15 1.5565791231741794e-15 8.966662335695686e-20
5.446702915881641 1.121867951637289e-23 1.621977638928983e-15 1.6218847007757504e-15 9.293815323320918e-20
5.487708281020852 1.1618818202413365e-23 1.6924755610761296e-15 1.6923792369180664e-15 9.632415806239102e-20
5.529022354014368 1.2172474061418592e-23 1.786473739551437e-15 1.7863738502223077e-15 9.988932912968254e-20
5.570647458961463 1.2758440829035337e-23 1.8865690772661465e-15 1.8864655034347703e-15 1.0357383137666951e-19
5.612585937458331 1.3379030337619174e-23 1.9932284407840663e-15 1.993121059211617e-15 1.0738157244967604e-19
5.654840148729818 1.406057952892094e-23 2.1105370816574645e-15 2.1104257545257303e-15 1.1132713173440035e-19
5.67608639626678 1.4523522113310752e-23 2.1882169644309316e-15 2.188103569144628e-15 1.1339528630333171e-19
5.686739436050992 1.4762079716525898e-23 2.228334112821931e-15 2.228219670253608e-15 1.1444256832309535e-19
5.6974124697621304 1.5005511645162794e-23 2.2693312990059358e-15 2.2692158002535677e-15 1.154987523683577e-19
5.718818669136295 1.5507466130515394e-23 2.35405497378935e-15 2.353937335662069e-15 1.176381272816261e-19
5.740305295436557 1.6060413243676614e-23 2.4471530932148253e-15 2.447033268955062e-15 1.1982425976245734e-19
5.7835210386641895 1.749281582197629e-23 2.685477242386657e-15 2.6853528518008547e-15 1.2439058580232832e-19
5.827062130521658 1.9141421250855852e-23 2.9606922222504715e-15 2.9605630792711394e-15 1.2914297933197583e-19
5.8489554468988025 2.0296742770174887e-23 3.151186404116245e-15 3.15105471390864e-15 1.3169020760536604e-19
5.870931020387893 2.1535952877795935e-23 3.3561433546996577e-15 3.3560090699936048e-15 1.342847060529408e-19
5.892989160043636 2.2865786826975437e-23 3.576771740745746e-15 3.576634813387683e-15 1.3692735806270514e-19
5.915130176081913 2.4377566011674733e-23 3.827578275028261e-15 3.827438607118654e-15 1.3966790960669662e-19
5.95966208400165 2.860195550772249e-23 4.5246688062168215e-15 4.524523070181789e-15 1.4573603503222792e-19
6.004529249263818 3.468665553749861e-23 5.528544698731405e-15 5.528392194833531e-15 1.5250389787320476e-19
6.027089341400364 3.891494699436529e-23 6.225776208335301e-15 6.22561988180935e-15 1.563265259522868e-19
6.049734195844842 4.39099553163953e-23 7.051292362821029e-15 7.051131992920964e-15 1.6036990006617816e-19
6.095279466722835 5.833569196056152e-23 9.438378932582532e-15 9.438208958108354e-15 1.6997447418335556e-19
6.141167624020661 8.053047754904977e-23 1.312745865674365e-14 1.3127276618957615e-14 1.8203778604190343e-19
6.164241091010745 9.470608029596637e-23 1.5496260610528227e-14 1.5496071211766675e-14 1.8939876155673613e-19
6.187401249150058 1.1084993678423632e-22 1.8205942362973372e-14 1.820574531380885e-14 1.970491645181098e-19
6.1990139391386085 1.1873395625938417e-22 1.9537409749101237e-14 1.9537208787000552e-14 2.0096210068337517e-19
6.204828454712694 1.2288655811159188e-22 2.023967770116501e-14 2.0239474752989905e-14 2.029481750974102e-19
6.210648424152782 1.2591928784148563e-22 2.0758627555531765e-14 2.075842285721256e-14 2.0469831920514603e-19
6.233982942956859 1.3622508875439338e-22 2.2541984261742963e-14 2.254177320119109e-14 2.110605518734267e-19
6.239830258556775 1.3754407566564056e-22 2.2781593478295428e-14 2.27813813457876e-14 2.1213250782932436e-19
6.245683058788269 1.3766144357500646e-22 2.2822420051207357e-14 2.2822206841469214e-14 2.1320973814975436e-19
6.257405133728602 1.373852424408791e-22 2.281937743338359e-14 2.281916222473987e-14 2.1520864372868398e-19
6.269149208991335 1.3536740212448014e-22 2.2526417748382588e-14 2.2526201267914735e-14 2.164804678568703e-19
6.280915325867298 1.30296895761164e-22 2.1723332056268834e-14 2.1723115212585785e-14 2.168436830541736e-19
6.304513850009849 1.1778836729510036e-22 1.9711670827820538e-14 1.971145408424216e-14 2.1674357838021979e-19
6.32820103803542 1.0228042029782822e-22 1.7180753413544896e-14 1.7180537652547385e-14 2.1576099751470268e-19
6.3519772230701035 8.805793233249999e-23 1.4847278291648505e-14 1.4847063227757762e-14 2.1506389073985175e-19
6.375842739491607 7.609082809019011e-23 1.2877730739604351e-14 1.2877516081981254e-14 2.1465762309542856e-19
6.399797922933955 6.650331813078932e-23 1.1297413083930951e-14 1.1297197734249469e-14 2.1534968147919881e-19
6.42384311029221 5.853106370682623e-23 9.980464987703325e-15 9.980248714618345e-15 2.1627308497903953e-19
6.447978639727206 5.272481407749421e-23 9.024186873397694e-15 9.023968789170351e-15 2.180842273428555e-19
6.472204850670314 4.7888031192774415e-23 8.227135876772964e-15 8.226915780120554e-15 2.200966524111063e-19
6.496522083828205 4.4748452757753426e-23 7.716642414213066e-15 7.71641955840941e-15 2.2285580365433356e-19
6.520930681187647 4.210456696505549e-23 7.287997613401812e-15 7.287771846480653e-15 2.2576692115911444e-19
6.57002334288761 3.94097865835342e-23 6.872906387935604e-15 6.872673649398486e-15 2.3273853711880874e-19
