Dust emission spectrum from A.P. Jones, M. Kohler, N. Ysard, M. Bocchio, and L. Verstraete (2017), A&A, 602A, 46J 
inside the DustPedia framework.

lambda    nu*dP/dnu     j_nu    j_nu(carb.) j_nu(sil)
 (um)   (erg s-1 H-1) (Jy cm2 sr-1 H-1)
0.9927057738263894 5.08696386769744e-20 1.3404438725162247e-12 1.3404436742894908e-12 1.9822673378760714e-19
1.0001793341362166 5.1721929138427637e-20 1.3731627850850563e-12 1.373162546616574e-12 2.3846848263262396e-19
1.0077091589558085 5.257797562836045e-20 1.4063988404116213e-12 1.4063985539176216e-12 2.8649400012406404e-19
1.0114953028030835 5.300737561838822e-20 1.4232120308884895e-12 1.4232117170266562e-12 3.1386183308515674e-19
1.0152956718711033 5.3437677249594863e-20 1.4401560078298347e-12 1.4401556641015902e-12 3.4372824454491463e-19
1.0229392996569957 5.430051818723199e-20 1.474426985581442e-12 1.4744265737347241e-12 4.118467183338661e-19
1.0267826658714554 5.473208074926977e-20 1.49172895762023e-12 1.4917285070189875e-12 4.506012427403853e-19
1.0306404723013447 5.516447904770629e-20 1.5091629929523864e-12 1.5091625001156308e-12 4.928367554104437e-19
1.03451277320114 5.559770309533477e-20 1.5267296513585435e-12 1.5267291125086725e-12 5.388498710362661e-19
1.0383996230291617 5.603174335888805e-20 1.5444295057355486e-12 1.5444289167745407e-12 5.889610083240411e-19
1.0403485208654093 5.624906671936058e-20 1.5533295641600866e-12 1.5533289484996757e-12 6.156604111504052e-19
1.0423010764483396 5.646659077019352e-20 1.5622631426263766e-12 1.5622624991102036e-12 6.435161730390256e-19
1.0462171883269815 5.69022367372848e-20 1.580231162758276e-12 1.580230459869412e-12 7.028888642277154e-19
1.0471985131304309 5.701127204276595e-20 1.5847442369650823e-12 1.5847435184337559e-12 7.18531326208144e-19
1.048180758391296 5.712035662719718e-20 1.5892657582796954e-12 1.5892650237731784e-12 7.345065169026765e-19
1.0501480137395462 5.733867315546565e-20 1.5983341815891232e-12 1.5983334141070115e-12 7.674821113317359e-19
1.0521189612883777 5.755718538694573e-20 1.6074365120114247e-12 1.6074357101404273e-12 8.018709973176912e-19
1.0531058218030118 5.76663715285905e-20 1.6119964178347618e-12 1.6119955982202578e-12 8.196145039754002e-19
1.0540936079674168 5.777513752924193e-20 1.6165517080215608e-12 1.6165508702844248e-12 8.377371354743167e-19
1.058054026499678 5.821066658617773e-20 1.634857296212389e-12 1.6348563820790243e-12 9.141333645613473e-19
1.0590464539527713 5.831966461055328e-20 1.6394548512430469e-12 1.6394539169947004e-12 9.342483465623496e-19
1.06003981227728 5.842870874488948e-20 1.6440608901471279e-12 1.644059935361105e-12 9.547860228062739e-19
1.0620293250338977 5.86469349720466e-20 1.653298461473289e-12 1.6532974643099445e-12 9.971633444901631e-19
1.0660195594769086 5.908393677946583e-20 1.6718758753189411e-12 1.6718747879468364e-12 1.0873721043925151e-18
1.070024785945596 5.952166664751195e-20 1.6905902269553385e-12 1.6905890416086172e-12 1.185346721366704e-18
1.0740450607676866 5.996011977235128e-20 1.7094422238752992e-12 1.7094409321559625e-12 1.2917193370478836e-18
1.07808044048254 6.039929191779223e-20 1.7284325924617862e-12 1.728431185291413e-12 1.4071703727784392e-18
1.0861967418109137 6.127911432584725e-20 1.7668122777316185e-12 1.7668106094398778e-12 1.6682917408256081e-18
1.0902777775684922 6.171824752843817e-20 1.786159258924515e-12 1.7861574433277922e-12 1.815596722723765e-18
1.0943741465085532 6.21580629321938e-20 1.8056464966933801e-12 1.8056445214367516e-12 1.9752566280187207e-18
1.1026131145906286 6.303973650899066e-20 1.8450450556112266e-12 1.84504271998611e-12 2.3356251164074662e-18
1.1109141095355224 6.392413378014174e-20 1.885014813478822e-12 1.885012055359215e-12 2.758119606697264e-18
1.1192775983109025 6.481058042003616e-20 1.9255427080208903e-12 1.9255394552326197e-12 3.252788270499755e-18
1.1277040513999907 6.569595511626716e-20 1.9665419027323477e-12 1.9665380715421374e-12 3.831190210294345e-18
1.1361939428280308 6.658401270866584e-20 2.0081301988576954e-12 2.0081256922529557e-12 4.506604739865804e-18
1.1447477501889525 6.747479643970328e-20 2.050316065862486e-12 2.0503107715964127e-12 5.294266072886625e-18
1.1533659546722406 6.836866475043465e-20 2.093117741573861e-12 2.0931115299375863e-12 6.2116362745168176e-18
1.1707974979042381 7.016841650843537e-20 2.1806847908010245e-12 2.1806762724624028e-12 8.518338621290656e-18
1.1884924949847024 7.198132791778887e-20 2.270835792936693e-12 2.2708241700832237e-12 1.1622853470201479e-17
1.2064549276569216 7.381966548526506e-20 2.364027953161277e-12 2.364012172996807e-12 1.578016447007523e-17
1.2246888378427687 7.567232284825839e-20 2.459983861513727e-12 2.459962542457859e-12 2.1319055868036567e-17
1.2431983285522175 7.753821143484073e-20 2.5587368844557894e-12 2.558708222495438e-12 2.866196035169421e-17
1.2619875648066055 7.94205394268163e-20 2.6604637207418587e-12 2.660425371862186e-12 3.834887967264555e-17
1.3004222497298317 8.322546605777868e-20 2.872830880296362e-12 2.8727631996008484e-12 6.768069551398184e-17
1.3400274889804893 8.71028728182771e-20 3.0982440163394806e-12 3.0981267663048628e-12 1.1725003461810585e-16
1.3808389325824078 9.107202504806149e-20 3.3380854516302366e-12 3.3378859699867634e-12 1.994816434745727e-16
1.4228933163050095 9.517111843773773e-20 3.5945700011759537e-12 3.5942365354706475e-12 3.3346570530579523e-16
1.466228494730424 9.947492682802493e-20 3.871548612221637e-12 3.871000618046168e-12 5.479941754688826e-16
1.5108834753276823 1.0398545772129277e-19 4.170354870087447e-12 4.169469205328238e-12 8.856647592092146e-16
1.5568984535646726 1.0871119056792985e-19 4.492664339249132e-12 4.4912550736355175e-12 1.4092656136147416e-15
1.6043148490894465 1.136917933032257e-19 4.841591602754902e-12 4.839379706412137e-12 2.2118963427656408e-15
1.6531753430134553 1.1897155127976684e-19 5.220732923997367e-12 5.217312627891906e-12 3.4202961054602458e-15
1.7035239163302658 1.2460277766106798e-19 5.634370375888315e-12 5.6291585459441895e-12 5.211829944124604e-15
1.755405889504358 1.3070109483141643e-19 6.090125042592786e-12 6.0822950604948056e-12 7.829982097981766e-15
1.8088679632656115 1.3729697281360469e-19 6.592304539918079e-12 6.58070267352694e-12 1.160186639114073e-14
1.8639582606462262 1.444237650432301e-19 7.145691765875803e-12 7.128730319614156e-12 1.6961446261644746e-14
1.9207263702978936 1.5214050860156767e-19 7.756750025671032e-12 7.732274754070822e-12 2.4475271600209448e-14
1.979223391128241 1.605219187683247e-19 8.433320204462273e-12 8.398447344413006e-12 3.4872860049266733e-14
2.039501978296691 1.6964604477015247e-19 9.184114778012025e-12 9.13503580768306e-12 4.907897032896841e-14
2.1016163906111602 1.7964636705273943e-19 1.0021698175612781e-11 9.9534442029024e-12 6.82539727103801e-14
2.1656225393682647 1.9062778498096244e-19 1.0958179181047288e-11 1.0864351354187555e-11 9.382782685973682e-14
2.231578038680979 2.0264876361812899e-19 1.2003985723913881e-11 1.1876447918808158e-11 1.2753780510572235e-13
2.299542257339062 2.1580071885702585e-19 1.3172363742537925e-11 1.3000897129384198e-11 1.7146661315372693e-13
2.369576372248914 2.30197937546409e-19 1.447910014827502e-11 1.4251018383555077e-11 2.2808176471994666e-13
2.4417434235010123 2.4596397742115936e-19 1.5941932539686965e-11 1.5641671459619947e-11 3.002610800670216e-13
2.5161083711144245 2.632617179641962e-19 1.7582737271045123e-11 1.7191408888716016e-11 3.913283823291103e-13
2.5927381535095444 2.8229825663049307e-19 1.9428366512624193e-11 1.8923298944143287e-11 5.050675684809066e-13
2.6717017477616296 3.032579034245083e-19 2.1506489965108796e-11 2.0860789533121232e-11 6.457004319875688e-13
2.753070231689431 3.263594073518263e-19 2.3849696642563738e-11 2.3031820452172182e-11 8.178761903915629e-13
2.836916847834745 3.5205371586717865e-19 2.6510930556900218e-11 2.548425167829813e-11 1.0266788786020973e-12
2.9233170693905177 3.812016654405397e-19 2.958013453237832e-11 2.830282908934733e-11 1.2773054430309865e-12
2.967498994190263 3.9766944981476156e-19 3.1324362552663316e-11 2.9907305999797275e-11 1.4170565528660421e-12
3.0123486681368425 4.151596424772021e-19 3.319630917375792e-11 3.162621607867274e-11 1.570093095085174e-12
3.0578761833420214 4.386032808896488e-19 3.5600918711422675e-11 3.386293806580686e-11 1.7379806456158042e-12
3.1040917844459814 4.647928087598792e-19 3.829687942771612e-11 3.63769171781705e-11 1.919962249545617e-12
3.127460860933648 4.848997067783803e-19 4.0254388888763437e-11 3.823727192669783e-11 2.017116962065614e-12
3.1510058709225794 5.090889076792605e-19 4.258064932918375e-11 4.0462467568971225e-11 2.118181760212525e-12
3.162844764501044 5.288482197539494e-19 4.439952834414565e-11 4.222912390539879e-11 2.1704044387468603e-12
3.1747281389236908 5.5082142899457945e-19 4.641804037701102e-11 4.419440652551601e-11 2.2236338514950135e-12
3.1986289994194426 6.083117956093783e-19 5.164871741393648e-11 4.931528020390622e-11 2.3334372100302715e-12
3.2227097969389145 7.340608079979979e-19 6.279465370720966e-11 6.034507235159485e-11 2.4495813556148137e-12
3.2348180950136065 8.494642968400554e-19 7.293977628813946e-11 7.042826514468662e-11 2.5115111434528585e-12
3.240889293275058 9.34964271820546e-19 8.043195861501611e-11 7.788778057560043e-11 2.544178039415701e-12
3.2469718861334385 1.033818702439184e-18 8.910300398535931e-11 8.652502542527392e-11 2.5779785600854124e-12
3.2714166318528037 1.5492612120799655e-18 1.3453334428308873e-10 1.3181585452437266e-10 2.717489758716082e-12
3.2744851364798273 1.5817906919286662e-18 1.3748694821363672e-10 1.3475306582342504e-10 2.733882390211699e-12
3.2775565192852394 1.6151613908652191e-18 1.4051916071429463e-10 1.3776880814506607e-10 2.750352569228545e-12
3.283707930232385 1.5851206300457018e-18 1.3816443745730643e-10 1.35384729359632e-10 2.7797080976744267e-12
3.2898708863219004 1.4866605958390228e-18 1.2982553400468753e-10 1.2701920116388352e-10 2.806332840804053e-12
3.29141343181113 1.4634048339983978e-18 1.2785459928985632e-10 1.2504158310213442e-10 2.8130161877218778e-12
3.292184975758714 1.4519723705292462e-18 1.2688550543088228e-10 1.240691434927035e-10 2.8163619381787904e-12
3.295272960557952 1.3804584769409634e-18 1.2074917599372277e-10 1.1791981681478e-10 2.829359178942738e-12
3.3076538914384823 1.1309865869107798e-18 9.929947370003135e-11 9.641795585816193e-11 2.881517841869454e-12
3.310756385682612 1.0797443306793122e-18 9.488937603275415e-11 9.199472027507908e-11 2.894655757675078e-12
3.313861789986515 1.0322853166906988e-18 9.080370612896199e-11 8.789587313369591e-11 2.9078329952661094e-12
3.3200813396944477 9.665290033312076e-19 8.517910010337007e-11 8.224288171945149e-11 2.9362183839185863e-12
3.345076488085796 8.557789650361266e-19 7.598661410163467e-11 7.29237825869537e-11 3.0628315146809698e-12
3.3482140837626964 8.614187691299907e-19 7.655912868586407e-11 7.347914023789452e-11 3.0799884479695454e-12
3.3513546224236106 8.671030429463164e-19 7.713660640665713e-11 7.403938853839558e-11 3.0972178682615218e-12
3.3576445397418455 9.026591264041321e-19 8.04503481328304e-11 7.731709118659158e-11 3.1332569462388382e-12
3.3702598118196083 1.0284306728318731e-18 9.200423862996595e-11 8.879539544975144e-11 3.2088431802145063e-12
3.382922481734668 1.0611713176214994e-18 9.528992435906161e-11 9.200776573814094e-11 3.282158620920678e-12
3.389271646505754 1.0779957552201198e-18 9.698238548016039e-11 9.366309540936396e-11 3.3192900707964326e-12
3.395632727569191 1.0964288616224946e-18 9.882586011636623e-11 9.546830355869455e-11 3.3575565576716774e-12
3.421196662673239 1.1846537757098237e-18 1.0758182708047408e-10 1.0406602826992681e-10 3.5157988105472662e-12
3.4276182099114902 1.1717125386113605e-18 1.0660631997519012e-10 1.0305537443965717e-10 3.550945535532933e-12
3.4340518103208963 1.107211221746439e-18 1.0092685840720928e-10 9.734275175189369e-11 3.584106655315594e-12
3.4469541582030403 1.0153898232546754e-18 9.290471322318802e-11 8.925712300782134e-11 3.647590215366705e-12
3.472904465399547 9.955919106141847e-19 9.177906498460028e-11 8.798498046087388e-11 3.794084523726385e-12
3.4990501388274233 9.625049117458002e-19 8.939691935376944e-11 8.545328984440555e-11 3.943629509363866e-12
3.5253949054701885 8.286048448189894e-19 7.753979953803772e-11 7.345147729557361e-11 4.088322242464104e-12
3.5519380250092896 7.013896321759198e-19 6.612933485443391e-11 6.189605600746254e-11 4.233278846971361e-12
3.578680990867387 6.564926747820798e-19 6.236232583191694e-11 5.79702256685777e-11 4.392100163339232e-12
3.605625307711299 6.440155937157328e-19 6.163769785140479e-11 5.7078610009363934e-11 4.559087842040851e-12
3.660119384959845 6.468989704903325e-19 6.284940121343597e-11 5.7940778992471745e-11 4.908622220964221e-12
3.715437065384467 6.541978519630334e-19 6.451912310807469e-11 5.924389998818019e-11 5.275223119894503e-12
3.8285932144167436 6.862494741454225e-19 6.974140349809786e-11 6.368481705607149e-11 6.056586442026384e-12
3.94519561050918 7.232260424063518e-19 7.57376857117978e-11 6.883882828944492e-11 6.898857422352882e-12
4.06534921144712 7.62143297935559e-19 8.224394333445231e-11 7.4445164289914e-11 7.798779044538312e-12
4.189162171576248 8.019331238798114e-19 8.917328355718257e-11 8.041750213565751e-11 8.75578142152507e-12
4.316745939156006 8.419362606161599e-19 9.647285615660471e-11 8.67091581278128e-11 9.763698028791917e-12
4.448215356677963 8.815979106697487e-19 1.0409402228935122e-10 9.328845412345664e-11 1.080556816589462e-11
4.58368876423945 9.206106868057618e-19 1.1201097205517398e-10 1.0013059034183903e-10 1.1880381713334968e-11
4.723288106065518 9.58781305518006e-19 1.2020801551799507e-10 1.0721522637403169e-10 1.2992789143963378e-11
4.867139040275056 9.956933702951457e-19 1.2863785847693207e-10 1.1452938005552908e-10 1.4108478421402999e-11
4.940699165968905 1.0138511606899134e-18 1.3296338003725762e-10 1.1829278414084716e-10 1.4670595896410486e-11
5.015371051989984 1.0314212261425615e-18 1.373120233535004e-10 1.2207861667831983e-10 1.5233406675180592e-11
5.091171501069577 1.049193750797428e-18 1.4178910303437025e-10 1.259791208711257e-10 1.5809982163244596e-11
5.129500256944802 1.0578250648999786e-18 1.4403178476259558e-10 1.2793411066820247e-10 1.6097674094393133e-11
5.168117569889187 1.0663675773271522e-18 1.4628801600017437e-10 1.2989980830284197e-10 1.6388207697332375e-11
5.20702561229733 1.0754814750932476e-18 1.4864903052008122e-10 1.3194082966436543e-10 1.670820085571579e-11
5.246226572918644 1.0844309857596178e-18 1.5101441138916433e-10 1.339858603394507e-10 1.702855104971365e-11
5.265937586045735 1.0888429652388164e-18 1.5219850622757008e-10 1.3500970195113503e-10 1.7188804276435055e-11
5.285722656980489 1.0932125150179552e-18 1.5338341389168314e-10 1.3603433424769024e-10 1.7349079643992892e-11
5.305582063971359 1.0975392160645257e-18 1.5456904239398405e-10 1.3705968781923321e-10 1.7509354574750853e-11
5.3255160863122235 1.1019361167725149e-18 1.5577133844197424e-10 1.381002385944754e-10 1.7671099847498834e-11
5.365609099470188 1.1114732098327708e-18 1.583023864922203e-10 1.402963914809261e-10 1.800599501129421e-11
5.406003951863644 1.1208720666447555e-18 1.6084287898510211e-10 1.4250176038598275e-10 1.8341118599119354e-11
5.446702915881641 1.1301321274654043e-18 1.6339258440433347e-10 1.447162951559642e-10 1.8676289248369274e-11
5.487708281020852 1.1394607533979137e-18 1.6598155202486848e-10 1.46968558476372e-10 1.901299354849646e-11
5.529022354014368 1.1504860843770083e-18 1.6884925505598948e-10 1.4948524799497913e-10 1.936400706101042e-11
5.570647458961463 1.161487908897726e-18 1.717472535953006e-10 1.5203210863175893e-10 1.9715144963541662e-11
5.612585937458331 1.172477073423984e-18 1.7467743102014894e-10 1.5461120775054618e-10 2.0066223269602785e-11
5.654840148729818 1.1837720037617976e-18 1.7768789010640228e-10 1.5726880635661626e-10 2.0419083749786e-11
5.67608639626678 1.1907754594630083e-18 1.794106857066648e-10 1.5880651270933885e-10 2.0604172997325965e-11
5.686739436050992 1.1943027521408149e-18 1.802798531600671e-10 1.5958311727766906e-10 2.0696735882398013e-11
5.6974124697621304 1.197848014058178e-18 1.811543687436081e-10 1.6036506170395748e-10 2.0789307039650616e-11
5.718818669136295 1.2049953413543038e-18 1.8291997240775655e-10 1.619455099757308e-10 2.097446243202571e-11
5.740305295436557 1.2126005264460632e-18 1.8476605079229552e-10 1.6360485343775852e-10 2.1161197354536985e-11
5.7835210386641895 1.2311821894482582e-18 1.890096931587963e-10 1.6746282149748728e-10 2.1546871661309005e-11
5.827062130521658 1.2513502662283616e-18 1.935521376380406e-10 1.7161548235609294e-10 2.193665528194763e-11
5.8489554468988025 1.2650163995275145e-18 1.964010937278504e-10 1.742525382645862e-10 2.2148555463264216e-11
5.870931020387893 1.2792390453031371e-18 1.9935545203541745e-10 1.7699467956831462e-10 2.2360772467102802e-11
5.892989160043636 1.2940655084476836e-18 2.0242368986966075e-10 1.7985040772449507e-10 2.2573282145165642e-11
5.915130176081913 1.3105810518068532e-18 2.0577737577070672e-10 1.8298333744772687e-10 2.2794038322979828e-11
5.95966208400165 1.3559260280902403e-18 2.1449988624662083e-10 1.9119489101380758e-10 2.330499523281323e-11
6.004529249263818 1.4191688451328711e-18 2.2619472168142924e-10 2.0231022372960512e-10 2.3884497951824107e-11
6.027089341400364 1.4625105899251774e-18 2.3397856963580074e-10 2.097552904663709e-10 2.4223279169429816e-11
6.049734195844842 1.5126990855313762e-18 2.429172025386017e-10 2.1833419180091624e-10 2.4583010737685483e-11
6.095279466722835 1.65598662229805e-18 2.679290966344093e-10 2.424485692709281e-10 2.54805273634812e-11
6.141167624020661 1.8715927318494e-18 3.050926426538348e-10 2.7843080622485473e-10 2.6661836428980158e-11
6.164241091010745 2.0085094847930006e-18 3.2864190258749147e-10 3.0123076781253485e-10 2.7411134774956633e-11
6.187401249150058 2.1607756109939166e-18 3.548847872565327e-10 3.267057757133968e-10 2.817901154313591e-11
6.1990139391386085 2.2345170530590585e-18 3.6768483618618237e-10 3.391153819173976e-10 2.8569454268784804e-11
6.204828454712694 2.273051388618016e-18 3.743764021939393e-10 3.4560990371511647e-10 2.8766498478822874e-11
6.210648424152782 2.3008329180708317e-18 3.7930752653132394e-10 3.5037486991567223e-10 2.8932656615651807e-11
6.233982942956859 2.3931141587939598e-18 3.9600298445280243e-10 3.664983091704127e-10 2.950467528238973e-11
6.239830258556775 2.4036977256487803e-18 3.9812739418563854e-10 3.6854885457316607e-10 2.957853961247255e-11
6.245683058788269 2.402977424740281e-18 3.9838141121271936e-10 3.6872894615092e-10 2.9652465061799236e-11
6.257405133728602 2.3966083957473526e-18 3.980712234511586e-10 3.6829257858551277e-10 2.977864486564581e-11
6.269149208991335 2.3735789330405855e-18 3.9498601410156717e-10 3.651765881842938e-10 2.980942591727348e-11
6.280915325867298 2.3216909650493284e-18 3.8707647999729466e-10 3.5735402665539086e-10 2.972245334190382e-11
6.304513850009849 2.1960858767548222e-18 3.6751101069058973e-10 3.380686975642973e-10 2.944231312629248e-11
6.32820103803542 2.044631434038935e-18 3.4345095950443147e-10 3.144017342899792e-10 2.9049225214452252e-11
6.3519772230701035 1.90700785820982e-18 3.215369203570525e-10 2.928444579538257e-10 2.8692462403226876e-11
6.375842739491607 1.7904034914313647e-18 3.0301068678832186e-10 2.7463754404354684e-10 2.8373142744775028e-11
6.399797922933955 1.6990179102410587e-18 2.8862480412242463e-10 2.604375239353464e-10 2.8187280187078216e-11
6.42384311029221 1.622357749720043e-18 2.7663745869565756e-10 2.4860924437900566e-10 2.8028214316651827e-11
6.447978639727206 1.5671722775993454e-18 2.682314910599475e-10 2.402587328940408e-10 2.7972758165906692e-11
6.472204850670314 1.5208376262573913e-18 2.6127901870428767e-10 2.3334125687625873e-10 2.7937761828029002e-11
