Dust emission spectrum from A.P. Jones, M. Kohler, N. Ysard, M. Bocchio, and L. Verstraete (2017), A&A, 602A, 46J 
inside the DustPedia framework.

lambda    nu*dP/dnu     j_nu    j_nu(carb.) j_nu(sil)
 (um)   (erg s-1 H-1) (Jy cm2 sr-1 H-1)
0.9927057738263894 6.093763117249144e-24 1.6057411932786737e-16 1.605741193278669e-16 4.433446888324789e-31
1.0001793341362166 6.194470153277675e-24 1.644566633436213e-16 1.6445666334362074e-16 5.342709143974256e-31
1.0077091589558085 6.295034491624981e-24 1.6838474862461359e-16 1.6838474862461297e-16 6.430346859483217e-31
1.0114953028030835 6.3452507653349234e-24 1.703656731327845e-16 1.703656731327838e-16 7.05122951161928e-31
1.0152956718711033 6.395416543109244e-24 1.7235774515635262e-16 1.723577451563518e-16 7.729610602074222e-31
1.0229392996569957 6.49552780841262e-24 1.7637366651447896e-16 1.7637366651447804e-16 9.279715603429645e-31
1.0267826658714554 6.545351919402614e-24 1.7839429567307843e-16 1.7839429567307742e-16 1.0163210784378745e-30
1.0306404723013447 6.595103507379047e-24 1.8042563475347071e-16 1.804256347534696e-16 1.1127276627581738e-30
1.03451277320114 6.644777771521036e-24 1.824675964234314e-16 1.8246759642343023e-16 1.2178909190376809e-30
1.0383996230291617 6.694369937585847e-24 1.8452009225725083e-16 1.8452009225724955e-16 1.3325679053949745e-30
1.0403485208654093 6.719133749381657e-24 1.8555026255872042e-16 1.8555026255871901e-16 1.393727420537256e-30
1.0423010764483396 6.74387525882452e-24 1.865830327566517e-16 1.865830327566502e-16 1.4575775586570747e-30
1.0462171883269815 6.793289016877342e-24 1.88656327371734e-16 1.8865632737173241e-16 1.593805437351166e-30
1.0471985131304309 6.805627599484085e-24 1.8917625814632952e-16 1.8917625814632795e-16 1.6297257821055895e-30
1.048180758391296 6.817960093200132e-24 1.8969682889341754e-16 1.8969682889341586e-16 1.666422408132372e-30
1.0501480137395462 6.842606522649011e-24 1.9073988452193687e-16 1.9073988452193517e-16 1.742208802109819e-30
1.0521189612883777 6.867227723799919e-24 1.9178548265212274e-16 1.91785482652121e-16 1.8212963727113775e-30
1.0531058218030118 6.879509785923461e-24 1.9230870327725755e-16 1.923087032772557e-16 1.8621232782789136e-30
1.0540936079674168 6.891723412268636e-24 1.9283082186825257e-16 1.9283082186825062e-16 1.903836041439298e-30
1.058054026499678 6.940508674444228e-24 1.9492546488953686e-16 1.9492546488953474e-16 2.0798276020259955e-30
1.0590464539527713 6.952687322400769e-24 1.9545066035622104e-16 1.954506603562189e-16 2.1262049304848928e-30
1.06003981227728 6.964858761062058e-24 1.9597646671358705e-16 1.9597646671358484e-16 2.173573042434944e-30
1.0620293250338977 6.989179727027521e-24 1.9702990608396774e-16 1.9702990608396552e-16 2.2713626636419354e-30
1.0660195594769086 7.037732036672028e-24 1.9914404913452643e-16 1.99144049134524e-16 2.4797449703183735e-30
1.070024785945596 7.086161104241663e-24 2.0126779682441525e-16 2.0126779682441254e-16 2.706381400169919e-30
1.0740450607676866 7.134462465550769e-24 2.0340105105810243e-16 2.0340105105809945e-16 2.9527895944915748e-30
1.07808044048254 7.182631692083912e-24 2.0554371288233108e-16 2.0554371288232788e-16 3.220606108738938e-30
1.0861967418109137 7.278471114880674e-24 2.0985440586666507e-16 2.098544058666612e-16 3.827658255250749e-30
1.0902777775684922 7.325939131663963e-24 2.1201661638739249e-16 2.1201661638738832e-16 4.1708443091722e-30
1.0943741465085532 7.37325428521827e-24 2.1418767157942283e-16 2.1418767157941834e-16 4.543357514724524e-30
1.1026131145906286 7.46740918076684e-24 2.185559006141274e-16 2.18555900614122e-16 5.386042393940838e-30
1.1109141095355224 7.56090256375236e-24 2.229582552492993e-16 2.229582552492929e-16 6.376952023649252e-30
1.1192775983109025 7.653615086884986e-24 2.273913090275921e-16 2.273913090275846e-16 7.540648388231985e-30
1.1277040513999907 7.74511626481264e-24 2.318422138673875e-16 2.318422138673786e-16 8.905498678062439e-30
1.1361939428280308 7.835847872507692e-24 2.3632403795317636e-16 2.3632403795316586e-16 1.050421558559697e-29
1.1447477501889525 7.925779643928949e-24 2.4083590015651235e-16 2.408359001565e-16 1.2374478693677964e-29
1.1533659546722406 8.01493100266096e-24 2.453784104223474e-16 2.4537841042233285e-16 1.4559651257214927e-29
1.1707974979042381 8.191180172372634e-24 2.545644167195446e-16 2.545644167195245e-16 2.0081497420668872e-29
1.1884924949847024 8.36392794249283e-24 2.6386158036773685e-16 2.638615803677093e-16 2.756203495964784e-29
1.2064549276569216 8.534524281909866e-24 2.7331272550125336e-16 2.7331272550121574e-16 3.764657854175362e-29
1.2246888378427687 8.701106733711435e-24 2.8285879614347246e-16 2.8285879614342134e-16 5.117433940515797e-29
1.2431983285522175 8.863285487288903e-24 2.9248566705521684e-16 2.924856670551476e-16 6.923303261014476e-29
1.2619875648066055 9.020999660218712e-24 3.021893642884641e-16 3.0218936428837095e-16 9.322525559651853e-29
1.3004222497298317 9.320412883721416e-24 3.217280865796284e-16 3.2172808657946175e-16 1.6670080907219905e-28
1.3400274889804893 9.598172859345764e-24 3.414064389276962e-16 3.4140643892740344e-16 2.9272661779436553e-28
1.3808389325824078 9.853247589936261e-24 3.611535201278257e-16 3.6115352012732074e-16 5.050172054554108e-28
1.4228933163050095 1.0086874580594812e-23 3.809766804069962e-16 3.8097668040613995e-16 8.564112982827958e-28
1.466228494730424 1.0304668627986654e-23 4.010560932108773e-16 4.010560932094491e-16 1.428262550901897e-27
1.5108834753276823 1.0502397086611059e-23 4.212004620408774e-16 4.212004620385338e-16 2.343561059246909e-27
1.5568984535646726 1.0676634251678002e-23 4.4122903737078443e-16 4.4122903736699706e-16 3.7873666331992485e-27
1.6043148490894465 1.0827695040900781e-23 4.610999251933581e-16 4.61099925187319e-16 6.0392091377599734e-27
1.6531753430134553 1.0956035199823141e-23 4.80774883313792e-16 4.807748833043008e-16 9.491287589587323e-27
1.7035239163302658 1.106317446580757e-23 5.002619014078881e-16 5.002619013931823e-16 1.470574512169165e-26
1.755405889504358 1.1157907765723095e-23 5.199118920512438e-16 5.199118920287692e-16 2.2474707927107926e-26
1.8088679632656115 1.1238060635836859e-23 5.395946948523031e-16 5.395946948184095e-16 3.389331880237537e-26
1.8639582606462262 1.130215932380071e-23 5.591998435473891e-16 5.591998434969305e-16 5.045873592539344e-26
1.9207263702978936 1.135126862799574e-23 5.787344477215549e-16 5.787344476473645e-16 7.419013215907025e-26
1.979223391128241 1.1387870101369293e-23 5.982831238784091e-16 5.982831237706291e-16 1.0777965679412873e-25
2.039501978296691 1.1414934267143684e-23 6.179694117534476e-16 6.179694115986745e-16 1.5477310211013423e-25
2.1016163906111602 1.144078543929064e-23 6.382322139075392e-16 6.382322136877326e-16 2.1980645345084346e-25
2.1656225393682647 1.1470250054680885e-23 6.59363771987191e-16 6.593637716783262e-16 3.088647378893848e-25
2.231578038680979 1.150367253329529e-23 6.8142493641102755e-16 6.814249359814217e-16 4.296058518251149e-25
2.299542257339062 1.154394254861361e-23 7.046362545902526e-16 7.046362539984928e-16 5.917594500123789e-25
2.369576372248914 1.1597451321686627e-23 7.294620487969903e-16 7.294620479893612e-16 8.076293819305503e-25
2.4417434235010123 1.1671746137818153e-23 7.56493660170589e-16 7.564936590779095e-16 1.0926792090381577e-24
2.5161083711144245 1.177975325875312e-23 7.867467714943735e-16 7.867467700280416e-16 1.4663322223240412e-24
2.5927381535095444 1.1942626264404952e-23 8.219169432982199e-16 8.219169413452808e-16 1.952939445405059e-24
2.6717017477616296 1.2185620524004981e-23 8.641816835068093e-16 8.641816809239082e-16 2.582901163488983e-24
2.753070231689431 1.254676108677585e-23 9.168923555610597e-16 9.168923521668196e-16 3.394240028768582e-24
2.836916847834745 1.311219597107354e-23 9.873962442956994e-16 9.873962398608604e-16 4.434839014866427e-24
2.9233170693905177 1.407165720614069e-23 1.0919194510079559e-15 1.0919194452435601e-15 5.764395316711062e-24
2.967498994190263 1.4886464067572692e-23 1.1726045282006287e-15 1.1726045216484053e-15 6.552223678485843e-24
3.0123486681368425 1.5838063368244596e-23 1.2664170465815181e-15 1.266417039137291e-15 7.444227176785919e-24
3.0578761833420214 1.796729440050221e-23 1.4583844108941204e-15 1.4583844024368983e-15 8.457222291630001e-24
3.1040917844459814 2.0711013239355542e-23 1.7064962320946684e-15 1.7064962224937231e-15 9.600945706445866e-24
3.127460860933648 2.3613514531858172e-23 1.960297322741682e-15 1.960297312509455e-15 1.0232226435238844e-23
3.1510058709225794 2.74806723293961e-23 2.298507891524207e-15 2.298507880619454e-15 1.0904752025168183e-23
3.162844764501044 3.108043140612094e-23 2.6093620884388655e-15 2.6093620771773676e-15 1.1261497775947732e-23
3.1747281389236908 3.526662745113672e-23 2.9719390909970915e-15 2.9719390793674007e-15 1.1629691327056041e-23
3.1986289994194426 4.6943060315324386e-23 3.9857008762139235e-15 3.985700863806608e-15 1.2407315227171051e-23
3.2227097969389145 7.446731225274787e-23 6.370247579585677e-15 6.370247566306892e-15 1.3278787221721484e-23
3.2348180950136065 1.0056890452707867e-22 8.635411076175648e-15 8.635411062402275e-15 1.3773374665183757e-23
3.240889293275058 1.2008325461302514e-22 1.033037481377161e-14 1.033037479972302e-14 1.4048591644899397e-23
3.2469718861334385 1.4265836858899608e-22 1.229547226698381e-14 1.2295472252640363e-14 1.4343448366097077e-23
3.2714166318528037 2.630779026810412e-22 2.2844921036359506e-14 2.284492102074001e-14 1.561949713608798e-23
3.2744851364798273 2.7060577194198585e-22 2.352066044081692e-14 2.3520660425052482e-14 1.5764434957586743e-23
3.2775565192852394 2.7834986296137408e-22 2.4216458707769542e-14 2.4216458691858624e-14 1.59109183194272e-23
3.283707930232385 2.7090271383918845e-22 2.3612790316261278e-14 2.3612790300122632e-14 1.613863925657286e-23
3.2898708863219004 2.4728511333224665e-22 2.1594654475690996e-14 2.1594654459375813e-14 1.6315188260406622e-23
3.29141343181113 2.4171549012781616e-22 2.1118173464006047e-14 2.1118173447646482e-14 1.6359569724109574e-23
3.292184975758714 2.389787740388201e-22 2.0883966628177326e-14 2.088396661179553e-14 1.6381797204809643e-23
3.295272960557952 2.2170433494350766e-22 1.9392554144755885e-14 1.9392554128295296e-14 1.646058608746111e-23
3.3076538914384823 1.618602405827451e-22 1.4211164737796284e-14 1.4211164721022814e-14 1.67734695529232e-23
3.310756385682612 1.496804093087675e-22 1.3154114580717868e-14 1.315411456386534e-14 1.6852531423326943e-23
3.313861789986515 1.3844260792802381e-22 1.2177933448015932e-14 1.2177933431083994e-14 1.693193225926903e-23
3.3200813396944477 1.2268285654024128e-22 1.0811900400496948e-14 1.0811900383372338e-14 1.71246113634891e-23
3.345076488085796 9.45690175109305e-23 8.397004054978674e-15 8.397004036868254e-15 1.8110420777964856e-23
3.3482140837626964 9.562327410954667e-23 8.498577939403713e-15 8.498577921145578e-15 1.8258128402311066e-23
3.3513546224236106 9.66891867308963e-23 8.60137189150964e-15 8.601371873102573e-15 1.8407068721969132e-23
3.3576445397418455 1.0447904667048493e-22 9.31179382267006e-15 9.311793803932602e-15 1.873745696889557e-23
3.3702598118196083 1.3321130096982854e-22 1.1917190576286826e-14 1.1917190556815912e-14 1.947091568159836e-23
3.382922481734668 1.3975549494400179e-22 1.2549614111156351e-14 1.2549614091014758e-14 2.0141594627182805e-23
3.389271646505754 1.4314584396897555e-22 1.2878181896780605e-14 1.2878181876294591e-14 2.048600955382627e-23
3.395632727569191 1.467991241185805e-22 1.3231637923029186e-14 1.3231637902181743e-14 2.0847443732390697e-23
3.421196662673239 1.643408479491086e-22 1.4924266523124772e-14 1.4924266500740895e-14 2.2383883528350222e-23
3.4276182099114902 1.608059646022638e-22 1.4630663709227477e-14 1.463066368652434e-14 2.270313717388317e-23
3.4340518103208963 1.4531585128679575e-22 1.3246137736945933e-14 1.3246137713959869e-14 2.298606243239896e-23
3.4469541582030403 1.2325505439628175e-22 1.1277418012020905e-14 1.1277417988520027e-14 2.3500872839720517e-23
3.472904465399547 1.1707244137378038e-22 1.0792372949395992e-14 1.0792372924489492e-14 2.4906501338063504e-23
3.4990501388274233 1.076163178669073e-22 9.995343579127983e-15 9.995343552759386e-15 2.6368594185723592e-23
3.5253949054701885 7.396355419753233e-23 6.9214164042817006e-15 6.92141637658814e-15 2.769356078792308e-23
3.5519380250092896 4.233358432850634e-23 3.991350378196144e-15 3.991350349182514e-15 2.901362973971746e-23
3.578680990867387 2.9791857145373336e-23 2.830023203312078e-15 2.8300231726767754e-15 3.0635301014715405e-23
3.605625307711299 2.471874483824648e-23 2.3657913573414586e-15 2.3657913248873872e-15 3.2454070942765726e-23
3.660119384959845 2.1017314969530967e-23 2.0419350179951265e-15 2.041934981478393e-15 3.651673375198901e-23
3.715437065384467 1.839573931287518e-23 1.8142477322877383e-15 1.8142476912040178e-15 4.108372031229996e-23
3.8285932144167436 1.706374426616609e-23 1.7341353529443441e-15 1.7341353008727835e-15 5.207156090068005e-23
3.94519561050918 1.6806663246667032e-23 1.7600275767239322e-15 1.7600275107215616e-15 6.600237064028154e-23
4.06534921144712 1.69915759307488e-23 1.8335845920273458e-15 1.833584508348544e-15 8.367880152971406e-23
4.189162171576248 1.7433072672641438e-23 1.9385211639461015e-15 1.9385210578002385e-15 1.0614586274293153e-22
4.316745939156006 1.806226044459169e-23 2.069655311506582e-15 2.0696551768112947e-15 1.346952875675688e-22
4.448215356677963 1.8856251979318635e-23 2.2264380281228928e-15 2.226437857247815e-15 1.7087507811067624e-22
4.58368876423945 1.981824544062176e-23 2.4112917306383915e-15 2.411291513862038e-15 2.1677635329117823e-22
4.723288106065518 2.0970754132212176e-23 2.6292260014259093e-15 2.6292257263473333e-15 2.7507857649035735e-22
4.867139040275056 2.2358464301192905e-23 2.8885850326449772e-15 2.888584683831092e-15 3.4881388596385684e-22
4.940699165968905 2.3196134216179203e-23 3.042099796070939e-15 3.0420994032746933e-15 3.9279624701677574e-22
5.015371051989984 2.4064384094799262e-23 3.203666152160378e-15 3.203665709960729e-15 4.421996496498394e-22
5.091171501069577 2.5123611166047515e-23 3.395230184616249e-15 3.3952296865525384e-15 4.980637098922901e-22
5.129500256944802 2.566757820340083e-23 3.494856779101637e-15 3.4948562505975614e-15 5.285040761498873e-22
5.168117569889187 2.6234821060734814e-23 3.598984069558849e-15 3.5989835087606476e-15 5.607982014248642e-22
5.20702561229733 2.693041760965354e-23 3.7222216857141444e-15 3.7222210902079246e-15 5.955062191295126e-22
5.246226572918644 2.7643976638603514e-23 3.849612299311317e-15 3.8496116670376225e-15 6.322736940053473e-22
5.265937586045735 2.800767274643836e-23 3.914913436561165e-15 3.914912785096194e-15 6.514649704095828e-22
5.285722656980489 2.8376079389062785e-23 3.981311839889054e-15 3.981311168674962e-15 6.712140935878211e-22
5.305582063971359 2.8749273183217906e-23 4.048828106012555e-15 4.048827414476431e-15 6.915361241815253e-22
5.3255160863122235 2.9150120366648723e-23 4.120704636269694e-15 4.120703923739857e-15 7.125298361995767e-22
5.365609099470188 3.014755801440713e-23 4.29378804488806e-15 4.293787287861003e-15 7.570270572035817e-22
5.406003951863644 3.1183143402883045e-23 4.4747181324080774e-15 4.474717328232296e-15 8.041757812762791e-22
5.446702915881641 3.2258719528884604e-23 4.6639109050196895e-15 4.6639100508977344e-15 8.541219547258835e-22
5.487708281020852 3.342085876975524e-23 4.868308094039939e-15 4.8683071868154586e-15 9.072244814182185e-22
5.529022354014368 3.5034210730418695e-23 5.141740055473172e-15 5.141739090135163e-15 9.653380085303273e-22
5.570647458961463 3.6742746758166214e-23 5.433087849576869e-15 5.4330868225786205e-15 1.0269982501909595e-21
5.612585937458331 3.855330938344561e-23 5.743731108326779e-15 5.743730015922299e-15 1.0924044824787358e-21
5.654840148729818 4.054332474771745e-23 6.085680189620552e-15 6.085679027455469e-15 1.1621650832153958e-21
5.67608639626678 4.189747057397955e-23 6.31257040554252e-15 6.3125692051560604e-15 1.2003864584352987e-21
5.686739436050992 4.2595459417604335e-23 6.429779346423122e-15 6.4297781264775196e-15 1.2199456050880818e-21
5.6974124697621304 4.3307836731653715e-23 6.549582027685302e-15 6.5495807878758225e-15 1.2398094792044096e-21
5.718818669136295 4.477714157340689e-23 6.797232503737548e-15 6.797231223268541e-15 1.2804690076256326e-21
5.740305295436557 4.639650213113202e-23 7.069515708087477e-15 7.069514385094993e-15 1.322992482064659e-21
5.7835210386641895 5.059551178258386e-23 7.767365576920843e-15 7.767364159969578e-15 1.4169512651978038e-21
5.827062130521658 5.543209533568797e-23 8.573938756824549e-15 8.57393723819731e-15 1.5186272384538204e-21
5.8489554468988025 5.882350905274361e-23 9.1326891249663e-15 9.132687547045457e-15 1.5779208442036916e-21
5.870931020387893 6.246275353498112e-23 9.734138832036862e-15 9.734137192558383e-15 1.6394784754430314e-21
5.892989160043636 6.636977038726743e-23 1.0381865315078801e-14 1.0381863611697289e-14 1.7033815088225608e-21
5.915130176081913 7.081274421097191e-23 1.1118473485303827e-14 1.111847171341504e-14 1.7718887871027663e-21
5.95966208400165 8.32320481119618e-23 1.316684279394989e-14 1.3166840856315174e-14 1.937634716509742e-21
6.004529249263818 1.0112916071130087e-22 1.611850657476034e-14 1.6118504428933644e-14 2.145826698603443e-21
6.027089341400364 1.1356829551117835e-22 1.8169131576025654e-14 1.8169129298379934e-14 2.277645717689182e-21
6.049734195844842 1.2826741326585255e-22 2.0597858163217195e-14 2.059785573833058e-14 2.4248866139234733e-21
6.095279466722835 1.707233429324983e-22 2.762205348182939e-14 2.7622050659929668e-14 2.8218997254010736e-21
6.141167624020661 2.360574840656414e-22 3.8480274263854736e-14 3.8480270868158825e-14 3.395695914289096e-21
6.164241091010745 2.7777947921595016e-22 4.545160341062609e-14 4.5451599638392176e-14 3.7722339113414864e-21
6.187401249150058 3.253065452947476e-22 5.342819658492024e-14 5.3428192397592406e-14 4.187327851748553e-21
6.1990139391386085 3.4851370393124464e-22 5.734715873533884e-14 5.734715433426313e-14 4.401075699356217e-21
6.204828454712694 3.6073831169712783e-22 5.941436781541322e-14 5.941436330323717e-14 4.512176035656123e-21
6.210648424152782 3.6966306171871447e-22 6.094140104188355e-14 6.094139643715703e-14 4.6047265209147405e-21
6.233982942956859 3.999866126001186e-22 6.618818903760092e-14 6.618818410372071e-14 4.933880197223717e-21
6.239830258556775 4.0386447618908715e-22 6.689256714502679e-14 6.689256216524312e-14 4.979783656476982e-21
6.245683058788269 4.0420353372122213e-22 6.701152184083988e-14 6.701151681475089e-14 5.026088980282251e-21
6.257405133728602 4.033769427554122e-22 6.699999607760796e-14 6.699999097030018e-14 5.107307768933562e-21
6.269149208991335 3.974214719597156e-22 6.613469682537907e-14 6.613469169070877e-14 5.134670320751867e-21
6.280915325867298 3.824773406702877e-22 6.376730793808965e-14 6.376730284304214e-14 5.0950475277730795e-21
6.304513850009849 3.4562110130810197e-22 5.783906795367824e-14 5.783906300024401e-14 4.953434235977887e-21
6.32820103803542 2.9993416244156226e-22 5.0382026884533827e-14 5.038202215046888e-14 4.734064943948263e-21
6.3519772230701035 2.5803650695769026e-22 4.350703822728466e-14 4.3507033700404834e-14 4.526879821145276e-21
6.375842739491607 2.2278974320673946e-22 3.7705284547059274e-14 3.770528020182583e-14 4.345233441927602e-21
6.399797922933955 1.9454349884923666e-22 3.304855052451179e-14 3.304854630014307e-14 4.224368725331807e-21
6.42384311029221 1.7106095600774339e-22 2.916857774445726e-14 2.916857362171765e-14 4.122739606167389e-21
6.447978639727206 1.5395229202533805e-22 2.634991279025808e-14 2.6349908712563945e-14 4.077694127811429e-21
6.472204850670314 1.3970200720160536e-22 2.400072349766891e-14 2.4000719450913044e-14 4.046755866944467e-21
6.496522083828205 1.3044524974311714e-22 2.2494617911139804e-14 2.2494613846012676e-14 4.065127125304456e-21
