Dust emission spectrum from A.P. Jones, M. Kohler, N. Ysard, M. Bocchio, and L. Verstraete (2017), A&A, 602A, 46J 
inside the DustPedia framework.

lambda    nu*dP/dnu     j_nu    j_nu(carb.) j_nu(sil)
 (um)   (erg s-1 H-1) (Jy cm2 sr-1 H-1)
0.9927057738263894 2.976580156826085e-24 7.843457779614446e-17 7.84345765214948e-17 1.2746496694481576e-24
1.0001793341362166 3.026630592913364e-24 8.035385693494448e-17 8.035385540047993e-17 1.5344645765355072e-24
1.0077091589558085 3.0768067323534015e-24 8.230095146946665e-17 8.230094962466292e-17 1.8448037215838755e-24
1.0114953028030835 3.101938486347762e-24 8.328494141322292e-17 8.328493939145344e-17 2.0217694815474374e-24
1.0152956718711033 3.1270975523573346e-24 8.427589968146546e-17 8.427589746648707e-17 2.2149783819055664e-24
1.0229392996569957 3.177467820686255e-24 8.627807720881139e-17 8.627807455286248e-17 2.6559489412782746e-24
1.0267826658714554 3.202620909172935e-24 8.728778963071009e-17 8.72877867237115e-17 2.9069985949561082e-24
1.0306404723013447 3.2277947786005476e-24 8.830443997297991e-17 8.830443679225411e-17 3.1807257971910544e-24
1.03451277320114 3.2529881632395067e-24 8.932803349483795e-17 8.932803001576171e-17 3.4790762571683456e-24
1.0383996230291617 3.278199817181558e-24 9.035857569027374e-17 9.035857188612059e-17 3.804153133334054e-24
1.0403485208654093 3.29081211135454e-24 9.087645432708416e-17 9.087645034966698e-17 3.977417181865019e-24
1.0423010764483396 3.3034285149072293e-24 9.139607231015523e-17 9.139606815192627e-17 4.158228946293075e-24
1.0462171883269815 3.328673051848865e-24 9.244052938464974e-17 9.244052484089142e-17 4.543758324946162e-24
1.0471985131304309 3.334986521841657e-24 9.270273195939691e-17 9.270272731403557e-17 4.645361374406143e-24
1.048180758391296 3.341300889464804e-24 9.296537005876302e-17 9.296536530962468e-17 4.7491383039557334e-24
1.0501480137395462 3.353932244948996e-24 9.349195324595558e-17 9.349194828256392e-17 4.9633916388861184e-24
1.0521189612883777 3.3665669738710475e-24 9.402027978872469e-17 9.402027460184208e-17 5.18688260139923e-24
1.0531058218030118 3.372876844590181e-24 9.428485349700793e-17 9.428484819479042e-17 5.302217522043618e-24
1.0540936079674168 3.3791589557504996e-24 9.45490640992421e-17 9.454905867921131e-17 5.420030804823187e-24
1.058054026499678 3.404293774468566e-24 9.561021788680045e-17 9.561021196997016e-17 5.916830274753668e-24
1.0590464539527713 3.410578986284523e-24 9.587658471547421e-17 9.587657866779727e-17 6.0476769640602576e-24
1.06003981227728 3.4168647667282436e-24 9.614338311713823e-17 9.614337693584825e-17 6.181289964426698e-24
1.0620293250338977 3.42943796579877e-24 9.667827509273382e-17 9.667826863569553e-17 6.4570382915588956e-24
1.0660195594769086 3.454590448112857e-24 9.775324299843232e-17 9.775323595418423e-17 7.04424809068558e-24
1.070024785945596 3.479750164336821e-24 9.883512931370468e-17 9.883512163137202e-17 7.682332615804853e-24
1.0740450607676866 3.504916082473241e-24 9.99239422013651e-17 9.992393382590032e-17 8.375464804594354e-24
1.07808044048254 3.530087196117652e-24 1.0101969030210479e-16 1.0101968117396555e-16 9.128139228202093e-24
1.0861967418109137 3.580401064915267e-24 1.0323087450412808e-16 1.032308636722856e-16 1.0831842496579002e-23
1.0902777775684922 3.6054508645895255e-24 1.04343686061673e-16 1.0434367426798567e-16 1.1793687350386944e-23
1.0943741465085532 3.63050050557282e-24 1.054633978263155e-16 1.0546338498956089e-16 1.2836754611546723e-23
1.1026131145906286 3.6805958903435645e-24 1.0772356651923644e-16 1.0772355132627235e-16 1.5192964107271853e-23
1.1109141095355224 3.730680668112936e-24 1.100114762280375e-16 1.1001145826969906e-16 1.7958338438999317e-23
1.1192775983109025 3.780707711003204e-24 1.123260140072745e-16 1.1232599280764325e-16 2.11996312353722e-23
1.1277040513999907 3.830482736031749e-24 1.146616225423301e-16 1.146615975485896e-16 2.499374050109048e-23
1.1361939428280308 3.8802243210616325e-24 1.1702502328238087e-16 1.1702499385325565e-16 2.9429125235358163e-23
1.1447477501889525 3.9299279738322575e-24 1.1941635821948864e-16 1.1941632361207884e-16 3.4607409774756095e-23
1.1533659546722406 3.979609841164764e-24 1.2183639966481786e-16 1.2183635901957484e-16 4.064524300702008e-23
1.1707974979042381 4.079059868245512e-24 1.2676848442747e-16 1.2676842857356406e-16 5.585390593956169e-23
1.1884924949847024 4.178376061713893e-24 1.3181760036612048e-16 1.318175239959025e-16 7.637021798085367e-23
1.2064549276569216 4.278252492828156e-24 1.370083217966693e-16 1.370082178879223e-16 1.0390874700235576e-22
1.2246888378427687 4.377932589796275e-24 1.4231945197836226e-16 1.4231931129153384e-16 1.4068682844527294e-22
1.2431983285522175 4.477297308827098e-24 1.4774941999271917e-16 1.4774923043077239e-16 1.895619468113479e-22
1.2619875648066055 4.576446801857614e-24 1.5330380244353073e-16 1.5330354824576546e-16 2.5419776524949804e-22
1.3004222497298317 4.773249574309841e-24 1.647661398125281e-16 1.6476568912943874e-16 4.506830893943404e-22
1.3400274889804893 4.968629418229385e-24 1.767338535039377e-16 1.767330690699609e-16 7.844339768285878e-22
1.3808389325824078 5.163013689582848e-24 1.8924121731858975e-16 1.8923987631523507e-16 1.3410033546836316e-21
1.4228933163050095 5.357925000916797e-24 2.0236639847251508e-16 2.0236414575911285e-16 2.252713402223992e-21
1.466228494730424 5.557020452275338e-24 2.1627836788750123e-16 2.1627464738755714e-16 3.720499944105817e-21
1.5108834753276823 5.759407300075675e-24 2.3098203161315255e-16 2.3097598785708306e-16 6.043756069494805e-21
1.5568984535646726 5.964512821651025e-24 2.4649306032649447e-16 2.464833936162808e-16 9.66671021372919e-21
1.6043148490894465 6.173526958320156e-24 2.6290108909677866e-16 2.6288583723209527e-16 1.525186468341845e-20
1.6531753430134553 6.387736893380329e-24 2.8030792193910697e-16 2.802842120232155e-16 2.3709915891436435e-20
1.7035239163302658 6.608791947159679e-24 2.9884070216133083e-16 2.9880437745610644e-16 3.6324705224382797e-20
1.755405889504358 6.841887261131233e-24 3.1880336581232854e-16 3.187484931732809e-16 5.48726390475578e-20
1.8088679632656115 7.086820253540898e-24 3.402731784511111e-16 3.4019141780031575e-16 8.176065079527364e-20
1.8639582606462262 7.343380193097644e-24 3.6333031038074985e-16 3.632101007366221e-16 1.2020964412768865e-19
1.9207263702978936 7.61251453924179e-24 3.881173586866555e-16 3.8794289564499464e-16 1.7446304166104202e-19
1.979223391128241 7.895705944235061e-24 4.148157272161255e-16 4.1456569078310803e-16 2.5003643301758164e-19
2.039501978296691 8.19432539200795e-24 4.4361555868009377e-16 4.432615673927341e-16 3.539912873597329e-19
2.1016163906111602 8.512478109382458e-24 4.748745423485091e-16 4.74379263984205e-16 4.952783643040941e-19
2.1656225393682647 8.852168843613506e-24 5.088641844046423e-16 5.081791351685177e-16 6.850492361246646e-19
2.231578038680979 9.212455679613227e-24 5.457037313519215e-16 5.447667225123061e-16 9.37008839615535e-19
2.299542257339062 9.59375535042146e-24 5.855978413880827e-16 5.843300537856183e-16 1.2677876024642267e-18
2.369576372248914 9.997675266770952e-24 6.288385681488787e-16 6.271412269702498e-16 1.6973411786289082e-18
2.4417434235010123 1.0426143156738302e-23 6.757610305237415e-16 6.735117647307316e-16 2.24926579300989e-18
2.5161083711144245 1.0883356114146881e-23 7.268781525170028e-16 7.239269439987362e-16 2.951208518266409e-18
2.5927381535095444 1.1376676993529947e-23 7.829671106164538e-16 7.791319726553131e-16 3.835137961140326e-18
2.6717017477616296 1.1913308819733776e-23 8.448698407843055e-16 8.399324916895685e-16 4.937349094736848e-18
2.753070231689431 1.2504319854202117e-23 9.1379083466349e-16 9.074922577894984e-16 6.298576873991477e-18
2.836916847834745 1.3178716184710504e-23 9.924054593241952e-16 9.844412098849293e-16 7.964249439265709e-18
2.9233170693905177 1.4001399055094733e-23 1.0864676239349186e-15 1.0764851934312021e-15 9.98243050371667e-18
2.967498994190263 1.4532488313540313e-23 1.1447219114712635e-15 1.1336026486798042e-15 1.1119262791459676e-17
3.0123486681368425 1.511121501069917e-23 1.20829799951918e-15 1.1959288166458416e-15 1.2369182873338086e-17
3.0578761833420214 1.6115754781881314e-23 1.3080970912922285e-15 1.2943516503188697e-15 1.3745440973358413e-17
3.1040917844459814 1.7321357591290025e-23 1.4272035425158456e-15 1.4119586181137192e-15 1.5244924402126563e-17
3.127460860933648 1.846964827809381e-23 1.5332746009782018e-15 1.517226099641712e-15 1.6048501336489852e-17
3.1510058709225794 1.9946828071458334e-23 1.6683704526428182e-15 1.651483812175639e-15 1.6886640467178986e-17
3.162844764501044 2.1287236052323885e-23 1.787172964132145e-15 1.7698523835752647e-15 1.7320580556879747e-17
3.1747281389236908 2.281709103725374e-23 1.9228094574795546e-15 1.9050459727625936e-15 1.7763484716961624e-17
3.1986289994194426 2.699556017024522e-23 2.2920582318598366e-15 2.273379282324711e-15 1.867894953512514e-17
3.2227097969389145 3.670234553316254e-23 3.1396732435326807e-15 3.1200236890993006e-15 1.9649554433381016e-17
3.2348180950136065 4.583468906990228e-23 3.935623874283424e-15 3.915456211361712e-15 2.016766292171181e-17
3.240889293275058 5.2656328294197343e-23 4.529853969639691e-15 4.509413015567445e-15 2.0440954072244965e-17
3.2469718861334385 6.055733234952988e-23 5.219329281770571e-15 5.198605548421793e-15 2.0723733348777323e-17
3.2714166318528037 1.0226214944911113e-22 8.880148067797773e-15 8.85825529627627e-15 2.1892771521501244e-17
3.2744851364798273 1.0487391530161195e-22 9.115488310563589e-15 9.093457639048979e-15 2.2030671514607278e-17
3.2775565192852394 1.07557396567556e-22 9.357501473082658e-15 9.335332200151075e-15 2.2169272931580378e-17
3.283707930232385 1.0500264796078935e-22 9.152383428768927e-15 9.129966023469883e-15 2.241740529904602e-17
3.2898708863219004 9.685186739461424e-23 8.457778082670384e-15 8.435134615744353e-15 2.2643466926029734e-17
3.29141343181113 9.492697962192986e-23 8.293570350042647e-15 8.270870111433971e-15 2.2700238608676165e-17
3.292184975758714 9.39807494285346e-23 8.212824936652278e-15 8.190096273707799e-15 2.2728662944479325e-17
3.295272960557952 8.805057498271583e-23 7.7018139643697e-15 7.678974689492725e-15 2.283927487697327e-17
3.3076538914384823 6.740391412662339e-23 5.9179952048572055e-15 5.894711533765088e-15 2.3283671092118612e-17
3.310756385682612 6.317324032274744e-23 5.5517488593076094e-15 5.528353148708705e-15 2.339571059890526e-17
3.313861789986515 5.925864284747366e-23 5.2126135126800235e-15 5.189105385564818e-15 2.3508127115207456e-17
3.3200813396944477 5.378632425645745e-23 4.740127489441872e-15 4.7163776806571905e-15 2.3749808784681877e-17
3.345076488085796 4.4178398330334284e-23 3.922703224440319e-15 3.897876687481895e-15 2.4826536958424906e-17
3.3482140837626964 4.4565130920236774e-23 3.960753718508689e-15 3.935781334453944e-15 2.4972384054743298e-17
3.3513546224236106 4.495563402541417e-23 3.9992075633792776e-15 3.974088661402327e-15 2.5118901976948938e-17
3.3576445397418455 4.7707897405581394e-23 4.252011465561813e-15 4.226586273801898e-15 2.542519175991426e-17
3.3702598118196083 5.772545052312258e-23 5.164165427240128e-15 5.138097754419419e-15 2.6067672820708915e-17
3.382922481734668 6.009935756436954e-23 5.396737681501904e-15 5.3700449777396065e-15 2.6692703762297592e-17
3.389271646505754 6.132524703660476e-23 5.5171541436688045e-15 5.49014452649984e-15 2.700961716896461e-17
3.395632727569191 6.266384217860678e-23 5.648162245868766e-15 5.62082602708894e-15 2.733621877982504e-17
3.421196662673239 6.912987060459592e-23 6.277882988236793e-15 6.2491941827793196e-15 2.8688805457473606e-17
3.4276182099114902 6.794267146579679e-23 6.181651160647334e-15 6.1526599009279474e-15 2.899125971938638e-17
3.4340518103208963 6.256658096141872e-23 5.703201280561455e-15 5.6739236594790124e-15 2.9277621082441914e-17
3.4469541582030403 5.487731949389748e-23 5.021087973578267e-15 4.991260123803367e-15 2.9827849774897506e-17
3.472904465399547 5.2781669102288106e-23 4.8657006820657364e-15 4.834606218656338e-15 3.109446340940013e-17
3.4990501388274233 4.95708168235626e-23 4.6041098178279904e-15 4.5717178651000075e-15 3.239195272798281e-17
3.5253949054701885 3.8027784686876006e-23 3.558592277046328e-15 3.524937666715833e-15 3.365461033049447e-17
3.5519380250092896 2.707889879477982e-23 2.5530881606190943e-15 2.5181627258125565e-15 3.492543480653685e-17
3.578680990867387 2.2811238626959432e-23 2.166912062432787e-15 2.1305935057829262e-15 3.631855664986148e-17
3.605625307711299 2.1170020786392668e-23 2.026148679430265e-15 1.988361858295362e-15 3.778682113490379e-17
3.660119384959845 2.0144702809303657e-23 1.9571564756513663e-15 1.9162803135455286e-15 4.087616210583789e-17
3.715437065384467 1.947275518907503e-23 1.920466546209823e-15 1.876326901114587e-15 4.413964509523598e-17
3.8285932144167436 1.9505314891754186e-23 1.9822645954188658e-15 1.931087560959641e-15 5.1177034459224803e-17
3.94519561050918 1.9898958289086455e-23 2.0838589327847016e-15 2.0249727891407413e-15 5.888614364396048e-17
4.06534921144712 2.043064522078541e-23 2.2046993424675465e-15 2.1374329693979094e-15 6.726637306963685e-17
4.189162171576248 2.1034288221113365e-23 2.3389687894298335e-15 2.26262746424309e-15 7.634132518674419e-17
4.316745939156006 2.1682707866161555e-23 2.4845025151037376e-15 2.398416052938083e-15 8.608646216565553e-17
4.448215356677963 2.23642713369263e-23 2.6406448232874514e-15 2.544267480654268e-15 9.637734263318398e-17
4.58368876423945 2.3077318825727985e-23 2.8078241444989274e-15 2.7005898180064112e-15 1.072343264925157e-16
4.723288106065518 2.3827185801722667e-23 2.9873535331982335e-15 2.868621115014954e-15 1.1873241818328017e-16
4.867139040275056 2.462337400404188e-23 3.181198343640262e-15 3.0506135014121575e-15 1.3058484222810544e-16
4.940699165968905 2.5058121284583584e-23 3.2862935237106437e-15 3.1496123041262828e-15 1.3668121958436163e-16
5.015371051989984 2.5491308405461438e-23 3.39363108530617e-15 3.2507571752127882e-15 1.4287391009338097e-16
5.091171501069577 2.5982716992640516e-23 3.5113306136091224e-15 3.3620373314835683e-15 1.4929328212555355e-16
5.129500256944802 2.622774270333152e-23 3.57112788985783e-15 3.4185940102625975e-15 1.5253387959523145e-16
5.168117569889187 2.647758887070917e-23 3.632287802741428e-15 3.4764630123603357e-15 1.5582479038109092e-16
5.20702561229733 2.677286247499852e-23 3.700445003769995e-15 3.5410366134159944e-15 1.5940839035400082e-16
5.246226572918644 2.7069631996976854e-23 3.769630890509155e-15 3.606608491276971e-15 1.63022399232184e-16
5.265937586045735 2.721860422378313e-23 3.8046174119797115e-15 3.63977699015315e-15 1.648404218265613e-16
5.285722656980489 2.736798310727742e-23 3.839870677162142e-15 3.6732050965904805e-15 1.6666558057166197e-16
5.305582063971359 2.751778047409308e-23 3.875394076523256e-15 3.70689636036269e-15 1.6849771616056698e-16
5.3255160863122235 2.767661752432724e-23 3.9124080694789214e-15 3.742057530598737e-15 1.7035053888018414e-16
5.365609099470188 2.8062836065191656e-23 3.996869993410081e-15 3.822686107987688e-15 1.74183885422392e-16
5.406003951863644 2.845550934871596e-23 4.083308151603297e-15 3.905259175791179e-15 1.7804897581211679e-16
5.446702915881641 2.8855035379893544e-23 4.1718120290705695e-15 3.989867476006855e-15 1.8194455306371438e-16
5.487708281020852 2.927846021984972e-23 4.264898333441739e-15 4.079013033692258e-15 1.8588529974948086e-16
5.529022354014368 2.985866071710977e-23 4.382158713187367e-15 4.192164253984686e-15 1.8999445920267947e-16
5.570647458961463 3.046022626699609e-23 4.504102165138136e-15 4.309964867116894e-15 1.9413729802124224e-16
5.612585937458331 3.108483676338225e-23 4.631066613227322e-15 4.432754066325121e-15 1.9831254690220022e-16
5.654840148729818 3.175973323781749e-23 4.7672355583985695e-15 4.5646968268245445e-15 2.0253873157402572e-16
5.67608639626678 3.222040473471607e-23 4.854554955145394e-15 4.649805517133332e-15 2.04749438012061e-16
5.686739436050992 3.2455991586995134e-23 4.899227927742372e-15 4.6933696189835725e-15 2.0585830875880047e-16
5.6974124697621304 3.269519364571004e-23 4.944598226424877e-15 4.737628728072089e-15 2.0696949835278697e-16
5.718818669136295 3.31848000653588e-23 5.0374989047592875e-15 4.828300149901461e-15 2.09198754857827e-16
5.740305295436557 3.372188883518439e-23 5.138262840438379e-15 4.926809584169617e-15 2.1145325626876034e-16
5.7835210386641895 3.5114612601927655e-23 5.3907554951348456e-15 5.174639989170116e-15 2.1611550596472962e-16
5.827062130521658 3.669165626057111e-23 5.675268303669118e-15 5.454410224239054e-15 2.2085807943006388e-16
5.8489554468988025 3.7807295453775766e-23 5.869800724154201e-15 5.646383154426701e-15 2.2341756972750036e-16
5.870931020387893 3.899098459434194e-23 6.0763196586679186e-15 5.850328724848846e-15 2.259909338190727e-16
5.892989160043636 4.024808959702987e-23 6.29579163747943e-15 6.067213602073012e-15 2.2857803540641583e-16
5.915130176081913 4.1671959958976215e-23 6.543011248146638e-15 6.311751812721178e-15 2.312594354254589e-16
5.95966208400165 4.5667946471415876e-23 7.224412777909696e-15 6.987050357277043e-15 2.373624206326547e-16
6.004529249263818 5.139470784075363e-23 8.191563446313685e-15 7.947336649491414e-15 2.4422679682227284e-16
6.027089341400364 5.537383957293645e-23 8.858938778132758e-15 8.610749197615204e-15 2.481895805175551e-16
6.049734195844842 6.004264021038551e-23 9.641964044564157e-15 9.389577360646858e-15 2.5238668391729674e-16
6.095279466722835 7.35141753929571e-23 1.1894170120483894e-14 1.1631478542185686e-14 2.6269157829820984e-16
6.141167624020661 9.411197588175227e-23 1.5341409986544115e-14 1.506535820041628e-14 2.760517861278331e-16
6.164241091010745 1.0725649532170416e-22 1.754981938311535e-14 1.7265389185557117e-14 2.8443019755823345e-16
6.187401249150058 1.2209373503762634e-22 2.0052618589235588e-14 1.9759581771772612e-14 2.9303681746297694e-16
6.1990139391386085 1.293188853519559e-22 2.1279136407269517e-14 2.0981719614878108e-14 2.9741679239140427e-16
6.204828454712694 1.3311316751561074e-22 2.1924022038688772e-14 2.1624392620847683e-14 2.996294178410867e-16
6.210648424152782 1.3587072077596074e-22 2.239918710341194e-14 2.2097670918973706e-14 3.0151618443822717e-16
6.233982942956859 1.451636458926435e-22 2.402110103953713e-14 2.371299976396411e-14 3.0810127557301947e-16
6.239830258556775 1.4630929129936007e-22 2.4233386864165558e-14 2.392436659329313e-14 3.090202708724246e-16
6.245683058788269 1.463432249167973e-22 2.4261742895930592e-14 2.3951802037323006e-14 3.0994085860759415e-16
6.257405133728602 1.4593749740743632e-22 2.4239887602606312e-14 2.3928332323355107e-14 3.11555279251205e-16
6.269149208991335 1.439226383589491e-22 2.3950090082557463e-14 2.3637926692451944e-14 3.1216339010552076e-16
6.280915325867298 1.3909312653029656e-22 2.3189855419892886e-14 2.2878328676425142e-14 3.115267434677444e-16
6.304513850009849 1.2727576337954372e-22 2.1299369451413575e-14 2.099024279419616e-14 3.091266572174146e-16
6.32820103803542 1.1277676725521922e-22 1.8943897799272223e-14 1.863837014361616e-14 3.0552765565606336e-16
6.3519772230701035 9.952181778553811e-23 1.6780181928110775e-14 1.6477872275487843e-14 3.023096526229367e-16
6.375842739491607 8.834438560226267e-23 1.495154197550902e-14 1.4652060090295522e-14 2.994818852135028e-16
6.399797922933955 7.944665599343404e-23 1.3496194116654826e-14 1.3198116156291349e-14 2.980779603634768e-16
6.42384311029221 7.202309559381034e-23 1.2281068177412949e-14 1.1984110740346766e-14 2.9695743706618504e-16
6.447978639727206 6.662859364728974e-23 1.1403907073073494e-14 1.1106958507646477e-14 2.9694856542701197e-16
6.472204850670314 6.211894217874313e-23 1.0671998098410744e-14 1.0374837359769366e-14 2.9716073864137834e-16
6.496522083828205 5.918437952082153e-23 1.020604434619525e-14 9.907769507329494e-15 2.982748388657581e-16
6.520930681187647 5.670242860841842e-23 9.814782437145426e-15 9.515255768619434e-15 2.9952666852599295e-16
6.57002334288761 5.410966768981036e-23 9.436505826442359e-15 9.133222676270551e-15 3.0328315017180695e-16
